Data from USB4F104151__221__14-33-53-690.txt Node

Date: Thu Mar 13 14:33:53 EDT 2025
User: louis
Spectrometer: USB4F10415
Trigger mode: 4
Integration Time (sec): 2.500000E-2
Scans to average: 1
Electric dark correction enabled: true
Nonlinearity correction enabled: false
Boxcar width: 0
XAxis mode: Wavelengths
Number of Pixels in Spectrum: 3648
>>>>>Begin Spectral Data<<<<<
178.204	-163.67
178.424	-163.67
178.644	-163.67
178.864	-159.57
179.084	-75.6
179.304	-26.45
179.524	14.51
179.744	53.42
179.964	8.36
180.184	-8.02
180.404	-71.51
180.624	-65.36
180.844	-24.4
181.064	-3.93
181.283	55.47
181.503	65.71
181.723	2.22
181.943	-42.84
182.163	75.95
182.383	32.94
182.602	84.14
182.822	24.75
183.042	106.67
183.262	-3.93
183.482	73.9
183.701	-8.02
183.921	24.75
184.141	16.55
184.361	53.42
184.58	18.6
184.8	75.95
185.02	-32.6
185.239	18.6
185.459	-32.6
185.679	34.99
185.898	20.65
186.118	-3.93
186.338	88.23
186.557	37.03
186.777	-63.32
186.997	-57.17
187.216	-30.55
187.436	141.48
187.655	57.51
187.875	73.9
188.095	-8.02
188.314	88.23
188.534	94.38
188.753	8.36
188.973	73.9
189.192	100.52
189.412	116.9
189.631	-5.97
189.851	-5.97
190.07	94.38
190.29	-85.84
190.509	106.67
190.729	39.08
190.948	123.05
191.168	164.01
191.387	82.09
191.607	65.71
191.826	41.13
192.045	-16.21
192.265	41.13
192.484	8.36
192.704	16.55
192.923	24.75
193.142	155.82
193.362	37.03
193.581	114.86
193.8	92.33
194.02	75.95
194.239	20.65
194.458	-8.02
194.678	-16.21
194.897	-16.21
195.116	24.75
195.335	-16.21
195.555	-14.17
195.774	49.32
195.993	92.33
196.212	26.79
196.432	53.42
196.651	-57.17
196.87	94.38
197.089	114.86
197.308	34.99
197.528	51.37
197.747	-28.5
197.966	32.94
198.185	73.9
198.404	30.89
198.623	61.61
198.842	24.75
199.062	88.23
199.281	18.6
199.5	-8.02
199.719	-3.93
199.938	43.18
200.157	43.18
200.376	37.03
200.595	110.76
200.814	57.51
201.033	57.51
201.252	116.9
201.471	53.42
201.69	61.61
201.909	49.32
202.128	24.75
202.347	0.17
202.566	82.09
202.785	-12.12
203.004	12.46
203.223	135.34
203.442	26.79
203.661	-36.69
203.879	8.36
204.098	67.75
204.317	-5.97
204.536	32.94
204.755	41.13
204.974	45.23
205.193	-14.17
205.411	-12.12
205.63	-46.93
205.849	26.79
206.068	43.18
206.287	57.51
206.505	59.56
206.724	51.37
206.943	-18.26
207.162	-8.02
207.381	4.27
207.599	-12.12
207.818	47.27
208.037	24.75
208.255	4.27
208.474	-14.17
208.693	-55.12
208.911	8.36
209.13	57.51
209.349	10.41
209.567	-8.02
209.786	92.33
210.005	37.03
210.223	-20.31
210.442	49.32
210.661	-1.88
210.879	20.65
211.098	49.32
211.316	28.84
211.535	18.6
211.753	32.94
211.972	57.51
212.191	-12.12
212.409	12.46
212.628	30.89
212.846	-36.69
213.065	65.71
213.283	24.75
213.502	22.7
213.72	0.17
213.938	47.27
214.157	-38.74
214.375	32.94
214.594	16.55
214.812	135.34
215.031	57.51
215.249	84.14
215.467	-65.36
215.686	-14.17
215.904	61.61
216.122	90.28
216.341	92.33
216.559	49.32
216.778	98.47
216.996	24.75
217.214	69.8
217.432	-16.21
217.651	-73.56
217.869	20.65
218.087	49.32
218.306	10.41
218.524	32.94
218.742	65.71
218.96	39.08
219.179	24.75
219.397	-3.93
219.615	106.67
219.833	55.47
220.051	0.17
220.27	129.19
220.488	-16.21
220.706	16.55
220.924	-22.36
221.142	37.03
221.36	51.37
221.578	65.71
221.796	10.41
222.015	-3.93
222.233	84.14
222.451	180.39
222.669	26.79
222.887	84.14
223.105	84.14
223.323	34.99
223.541	32.94
223.759	24.75
223.977	32.94
224.195	55.47
224.413	98.47
224.631	49.32
224.849	8.36
225.067	92.33
225.285	4.27
225.503	26.79
225.721	63.66
225.939	24.75
226.157	0.17
226.375	112.81
226.592	4.27
226.81	30.89
227.028	67.75
227.246	102.57
227.464	43.18
227.682	75.95
227.9	61.61
228.117	-8.02
228.335	104.62
228.553	24.75
228.771	73.9
228.989	32.94
229.206	14.51
229.424	22.7
229.642	-40.79
229.86	-24.4
230.077	57.51
230.295	34.99
230.513	82.09
230.731	34.99
230.948	57.51
231.166	45.23
231.384	67.75
231.601	22.7
231.819	-16.21
232.037	41.13
232.254	24.75
232.472	49.32
232.689	53.42
232.907	34.99
233.125	8.36
233.342	-24.4
233.56	-10.07
233.777	-46.93
233.995	51.37
234.213	118.95
234.43	14.51
234.648	16.55
234.865	37.03
235.083	49.32
235.3	-12.12
235.518	28.84
235.735	59.56
235.953	90.28
236.17	18.6
236.388	32.94
236.605	61.61
236.822	135.34
237.04	34.99
237.257	32.94
237.475	-22.36
237.692	-22.36
237.909	32.94
238.127	-40.79
238.344	37.03
238.562	67.75
238.779	-16.21
238.996	18.6
239.214	28.84
239.431	90.28
239.648	41.13
239.865	-10.07
240.083	77.99
240.3	30.89
240.517	45.23
240.735	98.47
240.952	51.37
241.169	30.89
241.386	57.51
241.603	69.8
241.821	12.46
242.038	61.61
242.255	108.71
242.472	-32.6
242.689	82.09
242.907	8.36
243.124	28.84
243.341	-137.04
243.558	69.8
243.775	12.46
243.992	-8.02
244.209	37.03
244.426	123.05
244.643	98.47
244.86	-8.02
245.078	75.95
245.295	24.75
245.512	32.94
245.729	18.6
245.946	49.32
246.163	24.75
246.38	30.89
246.597	-3.93
246.814	45.23
247.031	73.9
247.248	73.9
247.464	69.8
247.681	127.14
247.898	22.7
248.115	88.23
248.332	10.41
248.549	10.41
248.766	90.28
248.983	2.22
249.2	-40.79
249.417	75.95
249.633	45.23
249.85	65.71
250.067	32.94
250.284	20.65
250.501	34.99
250.717	57.51
250.934	12.46
251.151	98.47
251.368	18.6
251.585	37.03
251.801	57.51
252.018	-53.08
252.235	110.76
252.451	10.41
252.668	49.32
252.885	37.03
253.102	32.94
253.318	69.8
253.535	30.89
253.752	49.32
253.968	49.32
254.185	-5.97
254.401	-3.93
254.618	4.27
254.835	-79.7
255.051	51.37
255.268	90.28
255.484	65.71
255.701	-38.74
255.917	53.42
256.134	12.46
256.351	0.17
256.567	77.99
256.784	20.65
257	-40.79
257.217	61.61
257.433	57.51
257.65	-8.02
257.866	57.51
258.082	12.46
258.299	-24.4
258.515	61.61
258.732	12.46
258.948	2.22
259.165	100.52
259.381	0.17
259.597	8.36
259.814	32.94
260.03	39.08
260.246	-8.02
260.463	2.22
260.679	32.94
260.895	65.71
261.112	26.79
261.328	8.36
261.544	-30.55
261.761	118.95
261.977	-14.17
262.193	26.79
262.409	88.23
262.626	67.75
262.842	20.65
263.058	34.99
263.274	49.32
263.49	24.75
263.707	73.9
263.923	51.37
264.139	14.51
264.355	47.27
264.571	45.23
264.787	55.47
265.004	32.94
265.22	67.75
265.436	57.51
265.652	86.19
265.868	75.95
266.084	4.27
266.3	16.55
266.516	10.41
266.732	26.79
266.948	51.37
267.164	41.13
267.38	16.55
267.596	98.47
267.812	106.67
268.028	63.66
268.244	51.37
268.46	77.99
268.676	53.42
268.892	114.86
269.108	-30.55
269.324	51.37
269.54	67.75
269.756	65.71
269.972	53.42
270.188	-51.03
270.403	41.13
270.619	-48.98
270.835	61.61
271.051	57.51
271.267	65.71
271.483	32.94
271.698	51.37
271.914	32.94
272.13	2.22
272.346	20.65
272.562	90.28
272.777	67.75
272.993	6.31
273.209	-28.5
273.425	28.84
273.64	20.65
273.856	67.75
274.072	34.99
274.287	51.37
274.503	30.89
274.719	65.71
274.934	84.14
275.15	51.37
275.366	37.03
275.581	0.17
275.797	57.51
276.012	22.7
276.228	67.75
276.444	45.23
276.659	32.94
276.875	8.36
277.09	-40.79
277.306	2.22
277.521	57.51
277.737	94.38
277.952	41.13
278.168	82.09
278.383	37.03
278.599	75.95
278.814	82.09
279.03	69.8
279.245	147.62
279.461	49.32
279.676	28.84
279.892	0.17
280.107	37.03
280.322	-28.5
280.538	114.86
280.753	-1.88
280.969	39.08
281.184	8.36
281.399	77.99
281.615	98.47
281.83	73.9
282.045	-14.17
282.26	92.33
282.476	6.31
282.691	59.56
282.906	20.65
283.122	41.13
283.337	-73.56
283.552	114.86
283.767	-14.17
283.983	106.67
284.198	24.75
284.413	57.51
284.628	-22.36
284.843	71.85
285.058	123.05
285.274	41.13
285.489	-30.55
285.704	90.28
285.919	65.71
286.134	102.57
286.349	14.51
286.564	32.94
286.779	116.9
286.995	-40.79
287.21	-32.6
287.425	47.27
287.64	51.37
287.855	28.84
288.07	-44.88
288.285	28.84
288.5	92.33
288.715	8.36
288.93	-32.6
289.145	12.46
289.36	59.56
289.575	-65.36
289.79	92.33
290.004	49.32
290.219	108.71
290.434	12.46
290.649	86.19
290.864	4.27
291.079	14.51
291.294	73.9
291.509	26.79
291.724	57.51
291.938	59.56
292.153	75.95
292.368	-44.88
292.583	51.37
292.798	43.18
293.012	26.79
293.227	24.75
293.442	10.41
293.657	18.6
293.871	37.03
294.086	65.71
294.301	8.36
294.516	80.04
294.73	65.71
294.945	8.36
295.16	82.09
295.374	-28.5
295.589	0.17
295.804	59.56
296.018	55.47
296.233	75.95
296.447	57.51
296.662	43.18
296.877	67.75
297.091	4.27
297.306	32.94
297.52	98.47
297.735	24.75
297.949	59.56
298.164	10.41
298.378	49.32
298.593	12.46
298.807	10.41
299.022	67.75
299.236	43.18
299.451	8.36
299.665	8.36
299.88	53.42
300.094	59.56
300.309	4.27
300.523	-8.02
300.737	-14.17
300.952	37.03
301.166	16.55
301.381	28.84
301.595	34.99
301.809	45.23
302.024	14.51
302.238	26.79
302.452	147.62
302.667	-26.45
302.881	82.09
303.095	51.37
303.309	73.9
303.524	4.27
303.738	6.31
303.952	34.99
304.166	53.42
304.381	10.41
304.595	135.34
304.809	-5.97
305.023	86.19
305.237	-14.17
305.452	80.04
305.666	0.17
305.88	67.75
306.094	110.76
306.308	96.43
306.522	131.24
306.736	92.33
306.95	-3.93
307.164	90.28
307.379	61.61
307.593	65.71
307.807	26.79
308.021	41.13
308.235	37.03
308.449	16.55
308.663	14.51
308.877	86.19
309.091	135.34
309.305	32.94
309.519	-22.36
309.733	10.41
309.947	-40.79
310.161	65.71
310.374	69.8
310.588	28.84
310.802	69.8
311.016	18.6
311.23	49.32
311.444	24.75
311.658	82.09
311.872	84.14
312.085	65.71
312.299	139.43
312.513	98.47
312.727	37.03
312.941	51.37
313.154	98.47
313.368	32.94
313.582	114.86
313.796	37.03
314.009	12.46
314.223	32.94
314.437	26.79
314.651	47.27
314.864	-16.21
315.078	6.31
315.292	-5.97
315.505	-22.36
315.719	65.71
315.933	75.95
316.146	12.46
316.36	37.03
316.573	6.31
316.787	20.65
317.001	22.7
317.214	-40.79
317.428	34.99
317.641	-12.12
317.855	61.61
318.068	-40.79
318.282	32.94
318.495	61.61
318.709	59.56
318.922	92.33
319.136	39.08
319.349	92.33
319.563	53.42
319.776	-8.02
319.99	-8.02
320.203	102.57
320.417	41.13
320.63	94.38
320.843	151.72
321.057	57.51
321.27	69.8
321.483	90.28
321.697	112.81
321.91	57.51
322.124	-18.26
322.337	-5.97
322.55	-3.93
322.763	28.84
322.977	4.27
323.19	28.84
323.403	65.71
323.617	102.57
323.83	57.51
324.043	0.17
324.256	84.14
324.469	18.6
324.683	32.94
324.896	-30.55
325.109	65.71
325.322	18.6
325.535	131.24
325.748	121
325.962	20.65
326.175	55.47
326.388	65.71
326.601	118.95
326.814	32.94
327.027	26.79
327.24	123.05
327.453	-3.93
327.666	98.47
327.879	65.71
328.092	0.17
328.305	37.03
328.518	26.79
328.731	0.17
328.944	65.71
329.157	32.94
329.37	65.71
329.583	139.43
329.796	129.19
330.009	-12.12
330.222	90.28
330.435	82.09
330.648	45.23
330.861	59.56
331.073	75.95
331.286	135.34
331.499	98.47
331.712	-34.64
331.925	51.37
332.138	22.7
332.35	82.09
332.563	-1.88
332.776	69.8
332.989	-8.02
333.202	110.76
333.414	57.51
333.627	98.47
333.84	65.71
334.053	61.61
334.265	0.17
334.478	-30.55
334.691	14.51
334.903	41.13
335.116	51.37
335.329	53.42
335.541	14.51
335.754	102.57
335.966	-8.02
336.179	2.22
336.392	30.89
336.604	28.84
336.817	30.89
337.029	108.71
337.242	24.75
337.454	96.43
337.667	53.42
337.88	57.51
338.092	53.42
338.305	47.27
338.517	32.94
338.729	73.9
338.942	114.86
339.154	32.94
339.367	8.36
339.579	4.27
339.792	84.14
340.004	41.13
340.217	49.32
340.429	28.84
340.641	57.51
340.854	-16.21
341.066	-16.21
341.278	90.28
341.491	30.89
341.703	106.67
341.915	4.27
342.128	67.75
342.34	-22.36
342.552	106.67
342.764	-8.02
342.977	43.18
343.189	90.28
343.401	45.23
343.613	16.55
343.826	49.32
344.038	-3.93
344.25	-12.12
344.462	-24.4
344.674	-5.97
344.886	16.55
345.099	16.55
345.311	164.01
345.523	41.13
345.735	-10.07
345.947	47.27
346.159	8.36
346.371	139.43
346.583	8.36
346.795	98.47
347.007	49.32
347.219	67.75
347.431	-22.36
347.643	98.47
347.855	45.23
348.067	106.67
348.279	71.85
348.491	61.61
348.703	67.75
348.915	61.61
349.127	-24.4
349.339	55.47
349.551	57.51
349.763	22.7
349.975	57.51
350.187	69.8
350.399	41.13
350.61	16.55
350.822	67.75
351.034	43.18
351.246	104.62
351.458	49.32
351.669	26.79
351.881	20.65
352.093	22.7
352.305	110.76
352.517	131.24
352.728	176.3
352.94	98.47
353.152	94.38
353.363	28.84
353.575	39.08
353.787	71.85
353.999	123.05
354.21	43.18
354.422	57.51
354.633	10.41
354.845	100.52
355.057	18.6
355.268	102.57
355.48	53.42
355.692	65.71
355.903	139.43
356.115	4.27
356.326	51.37
356.538	145.58
356.749	106.67
356.961	145.58
357.172	-32.6
357.384	12.46
357.595	116.9
357.807	8.36
358.018	41.13
358.23	77.99
358.441	121
358.653	69.8
358.864	69.8
359.075	-46.93
359.287	65.71
359.498	43.18
359.709	32.94
359.921	34.99
360.132	67.75
360.344	24.75
360.555	18.6
360.766	90.28
360.977	57.51
361.189	127.14
361.4	16.55
361.611	131.24
361.823	32.94
362.034	57.51
362.245	0.17
362.456	75.95
362.667	73.9
362.879	121
363.09	8.36
363.301	12.46
363.512	69.8
363.723	16.55
363.935	43.18
364.146	24.75
364.357	2.22
364.568	69.8
364.779	18.6
364.99	104.62
365.201	82.09
365.412	30.89
365.623	-30.55
365.834	114.86
366.045	16.55
366.256	67.75
366.467	77.99
366.678	-28.5
366.889	16.55
367.1	100.52
367.311	73.9
367.522	26.79
367.733	106.67
367.944	129.19
368.155	84.14
368.366	82.09
368.577	8.36
368.788	125.1
368.999	12.46
369.209	67.75
369.42	114.86
369.631	77.99
369.842	106.67
370.053	-73.56
370.264	47.27
370.474	53.42
370.685	77.99
370.896	41.13
371.107	90.28
371.317	92.33
371.528	51.37
371.739	61.61
371.95	98.47
372.16	65.71
372.371	86.19
372.582	69.8
372.792	82.09
373.003	125.1
373.214	16.55
373.424	84.14
373.635	51.37
373.846	94.38
374.056	-8.02
374.267	32.94
374.477	24.75
374.688	82.09
374.898	94.38
375.109	32.94
375.319	131.24
375.53	73.9
375.74	65.71
375.951	37.03
376.161	26.79
376.372	51.37
376.582	-28.5
376.793	108.71
377.003	49.32
377.214	22.7
377.424	32.94
377.635	98.47
377.845	45.23
378.055	82.09
378.266	-10.07
378.476	139.43
378.686	94.38
378.897	69.8
379.107	53.42
379.317	59.56
379.528	67.75
379.738	43.18
379.948	16.55
380.158	123.05
380.369	92.33
380.579	59.56
380.789	49.32
380.999	41.13
381.21	100.52
381.42	157.86
381.63	28.84
381.84	41.13
382.05	73.9
382.261	102.57
382.471	82.09
382.681	90.28
382.891	104.62
383.101	114.86
383.311	65.71
383.521	96.43
383.731	94.38
383.941	41.13
384.151	164.01
384.361	90.28
384.571	172.2
384.781	16.55
384.991	114.86
385.201	90.28
385.411	139.43
385.621	32.94
385.831	145.58
386.041	73.9
386.251	16.55
386.461	147.62
386.671	82.09
386.881	10.41
387.091	92.33
387.301	86.19
387.511	22.7
387.72	90.28
387.93	123.05
388.14	-65.36
388.35	86.19
388.56	82.09
388.769	-3.93
388.979	43.18
389.189	65.71
389.399	90.28
389.609	127.14
389.818	114.86
390.028	94.38
390.238	92.33
390.447	147.62
390.657	106.67
390.867	102.57
391.076	49.32
391.286	110.76
391.496	108.71
391.705	98.47
391.915	133.29
392.125	92.33
392.334	90.28
392.544	200.87
392.753	8.36
392.963	90.28
393.172	164.01
393.382	16.55
393.591	133.29
393.801	114.86
394.01	98.47
394.22	90.28
394.429	67.75
394.639	45.23
394.848	104.62
395.058	116.9
395.267	139.43
395.477	0.17
395.686	123.05
395.895	112.81
396.105	131.24
396.314	100.52
396.524	90.28
396.733	141.48
396.942	67.75
397.152	157.86
397.361	168.1
397.57	98.47
397.78	100.52
397.989	155.82
398.198	149.67
398.407	45.23
398.617	94.38
398.826	141.48
399.035	145.58
399.244	114.86
399.453	102.57
399.663	88.23
399.872	217.26
400.081	84.14
400.29	182.44
400.499	164.01
400.708	204.97
400.917	45.23
401.127	123.05
401.336	116.9
401.545	239.78
401.754	133.29
401.963	108.71
402.172	98.47
402.381	123.05
402.59	86.19
402.799	123.05
403.008	184.49
403.217	172.2
403.426	172.2
403.635	125.1
403.844	254.12
404.053	77.99
404.262	172.2
404.471	164.01
404.68	164.01
404.888	174.25
405.097	164.01
405.306	192.68
405.515	229.54
405.724	166.06
405.933	264.36
406.142	223.4
406.35	198.82
406.559	139.43
406.768	217.26
406.977	329.89
407.185	258.21
407.394	270.5
407.603	200.87
407.812	319.65
408.02	374.95
408.229	282.79
408.438	299.17
408.646	290.98
408.855	319.65
409.064	393.38
409.272	372.9
409.481	442.53
409.69	352.42
409.898	348.33
410.107	413.86
410.315	495.78
410.524	450.72
410.733	516.26
410.941	497.83
411.15	516.26
411.358	508.07
411.567	540.83
411.775	540.83
411.984	573.6
412.192	565.41
412.401	630.95
412.609	663.71
412.818	702.62
413.026	600.23
413.234	700.58
413.443	690.34
413.651	759.97
413.86	673.95
414.068	831.65
414.276	815.26
414.485	770.21
414.693	837.79
414.901	985.24
415.11	956.57
415.318	886.94
415.526	958.62
415.734	999.58
415.943	1032.35
416.151	1155.23
416.359	1034.39
416.567	1126.55
416.776	1138.84
416.984	1263.77
417.192	1327.25
417.4	1314.97
417.608	1231
417.817	1360.02
418.025	1429.65
418.233	1550.48
418.441	1573.01
418.649	1466.52
418.857	1622.16
419.065	1720.46
419.273	1769.62
419.481	1818.77
419.689	1876.11
419.897	1949.84
420.105	1982.6
420.313	2031.76
420.521	2134.15
420.729	2123.91
420.937	2220.17
421.145	2369.67
421.353	2490.5
421.561	2650.24
421.769	2609.28
421.977	2746.5
422.185	2664.58
422.393	2875.52
422.601	3129.47
422.809	2992.25
423.017	3047.55
423.224	3235.96
423.432	3295.35
423.64	3348.6
423.848	3580.02
424.056	3512.44
424.263	3846.26
424.471	3840.11
424.679	3901.55
424.887	3948.65
425.094	4292.71
425.302	4210.79
425.51	4417.64
425.718	4538.47
425.925	4401.26
426.133	4735.07
426.341	5077.09
426.548	5275.74
426.756	5193.82
426.964	5374.04
427.171	5658.71
427.379	5644.37
427.586	5861.46
427.794	5832.79
428.001	6334.54
428.209	6594.63
428.417	6391.88
428.624	6715.46
428.832	6864.96
429.039	6936.64
429.247	6826.05
429.454	7292.99
429.662	7981.1
429.869	7422.01
430.076	7995.44
430.284	7733.3
430.491	8044.59
430.699	8542.25
430.906	8527.91
431.114	8757.29
431.321	9109.54
431.528	9224.22
431.736	9754.65
431.943	10027.03
432.15	9852.95
432.358	9873.43
432.565	10473.48
432.772	10323.98
432.979	11016.19
433.187	11055.11
433.394	11413.5
433.601	11999.22
433.808	11886.58
434.016	12111.86
434.223	12402.67
434.43	13393.89
434.637	12861.41
434.844	13764.57
435.052	14079.96
435.259	14010.32
435.466	14094.29
435.673	14079.96
435.88	14888.9
436.087	15488.96
436.294	15290.31
436.501	15343.55
436.708	15601.6
436.915	16195.51
437.122	16744.36
437.329	16719.79
437.537	17418.14
437.743	17520.54
437.95	17414.05
438.157	18319.25
438.364	18864.01
438.571	18947.98
438.778	19048.33
438.985	20631.41
439.192	19838.84
439.399	20428.66
439.606	20021.11
439.813	21196.65
440.02	22591.31
440.227	21962.59
440.433	22081.37
440.64	22335.32
440.847	22302.55
441.054	22988.62
441.261	24547.12
441.467	24266.55
441.674	24776.5
441.881	25542.44
442.088	25237.29
442.294	25257.77
442.501	25610.02
442.708	26240.79
442.914	27631.37
443.121	28219.13
443.328	27748.1
443.534	29941.47
443.741	28903.15
443.948	28331.77
444.154	30539.48
444.361	30246.62
444.568	30365.4
444.774	30680.79
444.981	31022.8
445.187	31405.77
445.394	32812.73
445.6	32741.05
445.807	35567.24
446.013	34248.35
446.22	34774.68
446.426	36556.41
446.633	36796.03
446.839	38129.25
447.046	35759.75
447.252	38026.85
447.459	38293.09
447.665	37963.37
447.871	39624.27
448.078	41238.07
448.284	39253.59
448.491	40107.59
448.697	42235.43
448.903	42520.1
449.11	42612.26
449.316	42202.66
449.522	43066.91
449.728	43767.31
449.935	44291.59
450.141	44432.9
450.347	45366.77
450.553	43568.66
450.76	44539.4
450.966	46001.64
451.172	45458.93
451.378	46405.09
451.584	45602.29
451.791	46573.03
451.997	46411.24
452.203	46999.01
452.409	47486.42
452.615	46534.12
452.821	44901.89
453.027	44588.55
453.233	47236.57
453.44	45166.07
453.646	45327.86
453.852	45587.96
454.058	46513.64
454.264	45141.5
454.47	46079.47
454.676	44649.99
454.882	46247.4
455.088	42411.56
455.294	42976.79
455.5	43914.76
455.705	44303.88
455.911	42358.31
456.117	41651.76
456.323	40851
456.529	38954.58
456.735	40947.26
456.941	39317.07
457.147	38841.95
457.352	37768.81
457.558	37217.91
457.764	37584.49
457.97	36431.49
458.176	35542.67
458.381	35808.9
458.587	34100.9
458.793	34143.91
458.999	32388.8
459.204	34530.97
459.41	33437.36
459.616	31747.78
459.821	31360.72
460.027	31358.67
460.233	30990.03
460.438	29120.24
460.644	29325.04
460.85	28262.14
461.055	27690.76
461.261	27737.86
461.466	25356.07
461.672	24921.9
461.878	26316.57
462.083	24674.1
462.289	24385.33
462.494	24246.07
462.7	22792.01
462.905	22423.38
463.111	22736.72
463.316	23195.46
463.522	22710.1
463.727	22914.89
463.932	22765.39
464.138	22116.19
464.343	22601.55
464.549	22005.59
464.754	22673.23
464.959	22708.05
465.165	22060.89
465.37	21188.46
465.575	20746.09
465.781	21677.92
465.986	21571.43
466.191	20989.8
466.397	20422.52
466.602	19566.46
466.807	20049.78
467.012	20225.91
467.218	20170.61
467.423	19517.31
467.628	19787.64
467.833	20787.05
468.038	19804.03
468.244	19519.36
468.449	20160.38
468.654	19572.61
468.859	19234.69
469.064	19412.87
469.269	18513.81
469.474	19019.66
469.679	19134.34
469.885	18646.93
470.09	18970.51
470.295	18622.35
470.5	18028.44
470.705	18220.95
470.91	17797.02
471.115	17483.68
471.32	17926.04
471.525	17905.56
471.73	17364.9
471.935	17518.5
472.139	16678.83
472.344	16955.3
472.549	16703.4
472.754	16590.77
472.959	16318.39
473.164	16039.86
473.369	15818.68
473.574	16271.28
473.778	16179.12
473.983	15814.59
474.188	16021.43
474.393	15347.65
474.598	15124.42
474.802	15128.52
475.007	15011.78
475.212	15112.13
475.417	14594
475.621	14401.49
475.826	14514.13
476.031	14243.79
476.235	13860.82
476.44	14497.74
476.645	13950.93
476.849	14092.24
477.054	13842.39
477.259	13617.11
477.463	13668.31
477.668	13039.59
477.872	13268.96
478.077	13139.94
478.282	13027.3
478.486	12591.08
478.691	12691.43
478.895	12769.26
479.1	12642.28
479.304	12451.82
479.509	12261.36
479.713	12582.89
479.918	12265.46
480.122	12040.18
480.326	12273.65
480.531	12118
480.735	12074.99
480.94	11700.22
481.144	12257.26
481.348	11689.98
481.553	11962.36
481.757	11907.06
481.961	11974.64
482.166	11919.35
482.37	11812.85
482.574	11554.81
482.778	11669.5
482.983	11896.82
483.187	11530.23
483.391	11825.14
483.595	11546.62
483.8	11536.38
484.004	11739.13
484.208	11847.67
484.412	11569.15
484.616	11755.51
484.821	11657.21
485.025	11436.03
485.229	11689.98
485.433	11608.06
485.637	11585.53
485.841	11636.73
486.045	11503.61
486.249	11544.57
486.453	11589.63
486.657	11661.3
486.861	11730.94
487.065	11458.56
487.269	11669.5
487.473	11462.65
487.677	11489.28
487.881	11921.4
488.085	11427.84
488.289	11784.18
488.493	11616.25
488.697	11935.73
488.901	11763.7
489.105	11700.22
489.309	11864.05
489.512	11882.49
489.716	11644.92
489.92	11794.42
490.124	11780.09
490.328	11773.94
490.531	11849.72
490.735	11788.28
490.939	11876.34
491.143	11847.67
491.346	12034.04
491.55	11935.73
491.754	11708.41
491.958	12337.13
492.161	11982.84
492.365	11921.4
492.569	12173.3
492.772	11894.77
492.976	11919.35
493.18	12388.33
493.383	12462.06
493.587	12378.09
493.79	12632.04
493.994	12451.82
494.197	12417.01
494.401	12724.2
494.605	12748.78
494.808	12900.33
495.012	12787.69
495.215	12763.11
495.419	13189.09
495.622	13094.88
495.825	13080.55
496.029	13141.99
496.232	13518.81
496.436	13457.37
496.639	13580.25
496.843	13416.41
497.046	13856.73
497.249	13877.21
497.453	13891.54
497.656	14311.38
497.859	14282.7
498.063	14303.18
498.266	14809.03
498.469	14641.1
498.673	14856.14
498.876	15101.89
499.079	15093.7
499.282	15038.41
499.485	15503.29
499.689	15566.78
499.892	15673.28
500.095	15763.39
500.298	16230.32
500.501	16119.73
500.705	16359.35
500.908	16406.45
501.111	16631.72
501.314	16818.09
501.517	17160.1
501.72	17428.38
501.923	17055.65
502.126	17522.59
502.329	17766.3
502.532	17891.23
502.735	17817.5
502.938	18284.44
503.141	18392.98
503.344	18462.61
503.547	18522
503.75	18911.11
503.953	19050.38
504.156	19246.98
504.359	19537.79
504.562	19310.47
504.765	19888
504.968	20074.36
505.17	20289.4
505.373	20473.71
505.576	20832.11
505.779	21049.19
505.982	21129.06
506.185	21602.15
506.387	21671.78
506.59	21559.14
506.793	22363.99
506.996	22234.97
507.198	22409.04
507.401	22316.89
507.604	22904.65
507.807	23359.3
508.009	23273.29
508.212	23482.18
508.415	23832.38
508.617	23844.67
508.82	24112.95
509.022	23836.48
509.225	24737.59
509.428	24852.27
509.63	25184.04
509.833	25206.57
510.035	25800.48
510.238	25622.31
510.44	25884.45
510.643	26152.73
510.845	26351.38
511.048	26279.71
511.25	26869.52
511.453	26961.68
511.655	28223.23
511.858	27664.13
512.06	28106.49
512.262	28143.36
512.465	27959.04
512.667	28565.24
512.87	28747.51
513.072	28849.91
513.274	29415.15
513.477	29462.25
513.679	29736.68
513.881	30097.12
514.084	30574.3
514.286	30406.36
514.488	30482.14
514.69	31391.44
514.893	31416.01
515.095	31491.79
515.297	32050.88
515.499	32106.18
515.701	32511.67
515.904	32904.88
516.106	33197.74
516.308	33167.02
516.51	33535.66
516.712	33558.19
516.914	33519.28
517.116	34311.84
517.318	34293.41
517.52	34932.37
517.722	34817.69
517.925	35321.49
518.127	35890.82
518.329	35784.33
518.531	35499.66
518.733	36146.82
518.935	36705.91
519.136	36771.45
519.338	36908.66
519.54	37017.21
519.742	37654.12
519.944	37578.35
520.146	38024.81
520.348	38448.74
520.55	38248.04
520.752	38671.96
520.954	39341.65
521.155	38944.34
521.357	38999.64
521.559	39521.87
521.761	40275.52
521.963	39906.89
522.164	40209.99
522.366	39857.74
522.568	40439.36
522.77	40793.66
522.971	41317.94
523.173	40527.42
523.375	41467.44
523.576	40724.03
523.778	40676.93
523.98	41940.52
524.181	41999.91
524.383	41709.1
524.584	42348.07
524.786	42063.4
524.988	42042.92
525.189	42573.35
525.391	42569.25
525.592	42772
525.794	42792.48
525.995	43044.38
526.197	42948.12
526.398	42919.45
526.6	43218.46
526.801	43173.4
527.003	43265.56
527.204	43218.46
527.406	43353.62
527.607	43355.67
527.808	43830.8
528.01	43095.58
528.211	43515.41
528.412	44285.45
528.614	43824.65
528.815	43896.33
529.016	44471.81
529.218	43683.34
529.419	43830.8
529.62	43922.96
529.822	43726.35
530.023	43824.65
530.224	43929.1
530.425	43875.85
530.626	43718.16
530.828	43380.24
531.029	44068.36
531.23	43681.3
531.431	44070.41
531.632	44271.11
531.833	44275.21
532.035	43587.09
532.236	43920.91
532.437	43908.62
532.638	43775.5
532.839	43984.4
533.04	44015.12
533.241	43732.5
533.442	44086.79
533.643	43947.53
533.844	43841.04
534.045	44070.41
534.246	43206.17
534.447	43914.76
534.648	43521.55
534.849	43478.55
535.05	43339.29
535.251	43255.32
535.451	43638.29
535.652	43327
535.853	43052.57
536.054	43777.55
536.255	43953.68
536.456	42989.08
536.657	43335.19
536.857	43150.87
537.058	43001.37
537.259	43601.43
537.46	43423.25
537.66	43140.63
537.861	42880.54
538.062	42821.15
538.263	42927.64
538.463	42421.8
538.664	42417.7
538.865	42982.94
539.065	43105.82
539.266	42991.13
539.466	42944.03
539.667	42255.91
539.868	42995.23
540.068	43007.51
540.269	42702.37
540.469	42776.09
540.67	42251.81
540.87	42028.59
541.071	42444.32
541.271	42624.54
541.472	42253.86
541.672	42202.66
541.873	42227.24
542.073	41711.15
542.274	42546.72
542.474	42059.3
542.675	42233.38
542.875	42610.21
543.075	42280.49
543.276	41616.94
543.476	42685.98
543.676	42350.12
543.877	42649.12
544.077	42255.91
544.277	41846.32
544.478	42124.84
544.678	42346.02
544.878	42202.66
545.078	42415.65
545.279	42180.14
545.479	41874.99
545.679	41911.85
545.879	42135.08
546.079	41776.69
546.28	42047.02
546.48	41854.51
546.68	42159.66
546.88	42370.6
547.08	42180.14
547.28	42126.89
547.48	41256.5
547.68	42049.07
547.88	41737.77
548.081	41915.95
548.281	42212.9
548.481	41997.87
548.681	42483.23
548.881	41770.54
549.081	42059.3
549.28	41803.31
549.48	42085.93
549.68	41784.88
549.88	42604.06
550.08	42071.59
550.28	42260.01
550.48	42063.4
550.68	41805.36
550.88	41553.46
551.08	41901.61
551.279	42081.83
551.479	41915.95
551.679	41924.14
551.879	42067.5
552.079	41973.29
552.278	41879.08
552.478	42151.46
552.678	42296.87
552.878	42356.26
553.077	41831.98
553.277	42012.2
553.477	42718.75
553.676	41983.53
553.876	42317.35
554.076	41639.47
554.275	42274.34
554.475	41809.45
554.674	42208.81
554.874	42446.37
555.074	42274.34
555.273	42335.78
555.473	42429.99
555.672	41817.64
555.872	42270.25
556.071	42401.32
556.271	42413.6
556.47	41969.19
556.67	41889.32
556.869	42004.01
557.068	42556.96
557.268	42223.14
557.467	42137.13
557.667	42317.35
557.866	41983.53
558.065	42231.33
558.265	42104.36
558.464	42335.78
558.663	42413.6
558.863	41963.05
559.062	42536.48
559.261	41727.53
559.461	42827.29
559.66	41946.67
559.859	41979.43
560.058	41866.8
560.258	41934.38
560.457	42151.46
560.656	42839.58
560.855	41563.7
561.054	42251.81
561.253	42124.84
561.453	42212.9
561.652	42341.92
561.851	42530.34
562.05	41944.62
562.249	41899.56
562.448	42544.67
562.647	42092.07
562.846	41823.79
563.045	41670.19
563.244	41924.14
563.443	42257.96
563.642	41207.35
563.841	41793.07
564.04	41573.94
564.239	41825.84
564.438	41618.99
564.637	41940.52
564.836	42044.97
565.035	41334.32
565.234	41891.37
565.432	41612.85
565.631	41326.13
565.83	41694.77
566.029	41295.41
566.228	41586.22
566.427	41252.41
566.625	41199.16
566.824	41059.9
567.023	41150.01
567.222	40590.91
567.42	41440.82
567.619	40959.55
567.818	41305.65
568.016	40801.85
568.215	40990.27
568.414	41045.56
568.612	41168.44
568.811	40603.2
569.01	40742.46
569.208	40457.79
569.407	40668.73
569.605	40083.02
569.804	40693.31
570.002	40007.24
570.201	40511.04
570.4	40001.1
570.598	40048.2
570.797	39857.74
570.995	39997
571.193	39292.5
571.392	40298.05
571.59	39849.55
571.789	39444.05
571.987	39444.05
572.186	39597.65
572.384	39474.77
572.582	39464.53
572.781	39884.36
572.979	38788.7
573.177	39650.89
573.376	39087.7
573.574	38962.78
573.772	39042.65
573.971	38755.93
574.169	38768.22
574.367	38581.85
574.565	38471.26
574.763	38348.39
574.962	38250.08
575.16	37951.08
575.358	37910.12
575.556	37781.1
575.754	38301.28
575.952	37613.16
576.151	38104.68
576.349	37449.33
576.547	37658.22
576.745	37957.22
576.943	37475.95
577.141	37332.59
577.339	37375.6
577.537	37191.28
577.735	37273.2
577.933	36955.77
578.131	37097.08
578.329	36601.47
578.527	36478.59
578.725	36761.21
578.923	36984.44
579.121	36718.2
579.319	36695.67
579.516	36681.34
579.714	36634.24
579.912	36136.58
580.11	36021.89
580.308	35919.49
580.506	36079.24
580.704	35661.45
580.901	35554.96
581.099	35907.21
581.297	35849.86
581.495	35333.78
581.692	35260.05
581.89	35640.97
582.088	35591.82
582.285	35423.89
582.483	35319.44
582.681	35149.46
582.878	34772.63
583.076	34774.68
583.274	35329.68
583.471	34666.14
583.669	35096.21
583.866	34418.33
584.064	34956.95
584.262	34191.01
584.459	34688.67
584.657	34338.46
584.854	34549.4
585.052	33838.76
585.249	34295.46
585.447	33973.92
585.644	33705.64
585.841	34145.95
586.039	34223.78
586.236	33425.07
586.434	33650.35
586.631	33445.55
586.828	33791.66
587.026	33474.22
587.223	33582.76
587.42	33255.09
587.618	33765.03
587.815	32970.42
588.012	33130.16
588.21	33162.93
588.407	33367.73
588.604	32868.02
588.801	32644.79
588.999	32927.41
589.196	32929.46
589.393	32519.87
589.59	32509.63
589.787	32304.83
589.984	32425.66
590.182	32106.18
590.379	32124.61
590.576	31946.44
590.773	32014.02
590.97	31858.37
591.167	32372.41
591.364	31571.66
591.561	31917.76
591.758	31837.89
591.955	31446.73
592.152	31887.04
592.349	31442.63
592.546	31919.81
592.743	31477.45
592.94	30938.83
593.137	31082.19
593.334	31520.46
593.531	31145.68
593.727	31186.64
593.924	31209.17
594.121	30932.69
594.318	31198.93
594.515	30697.17
594.712	31213.26
594.908	30555.86
595.105	30963.41
595.302	30293.72
595.499	30881.49
595.696	30865.11
595.892	30623.45
596.089	30645.98
596.286	30701.27
596.482	30514.91
596.679	30744.28
596.876	30506.71
597.072	30150.37
597.269	30287.58
597.466	30457.56
597.662	30148.32
597.859	30559.96
598.055	30367.45
598.252	29949.67
598.448	29855.46
598.645	30140.13
598.841	29630.18
599.038	29996.77
599.234	30271.2
599.431	29513.45
599.627	29574.89
599.824	30101.22
600.02	29675.24
600.217	30007.01
600.413	29533.93
600.609	29693.67
600.806	29796.07
601.002	29818.6
601.198	29339.37
601.395	29531.88
601.591	29609.7
601.787	29794.02
601.984	29361.9
602.18	29857.51
602.376	29542.12
602.572	29611.75
602.769	29591.27
602.965	29583.08
603.161	29814.5
603.357	29290.22
603.553	29587.18
603.75	29458.15
603.946	29480.68
604.142	29458.15
604.338	29046.51
604.534	29183.73
604.73	29081.33
604.926	29150.96
605.122	29650.66
605.318	29331.18
605.514	28989.17
605.71	29048.56
605.906	29218.54
606.102	29054.7
606.298	29298.41
606.494	29083.37
606.69	29597.42
606.886	29693.67
607.082	28874.48
607.278	29662.95
607.474	29028.08
607.67	29374.19
607.866	28983.02
608.062	29394.67
608.257	29239.02
608.453	29103.85
608.649	29304.56
608.845	29365.99
609.041	29406.95
609.236	29325.04
609.432	29253.36
609.628	29148.91
609.824	29468.39
610.019	29562.6
610.215	29257.45
610.411	29710.05
610.606	29341.42
610.802	29384.43
610.998	29462.25
611.193	29425.39
611.389	29382.38
611.584	29226.73
611.78	29230.83
611.976	29134.57
612.171	29583.08
612.367	29484.78
612.562	29439.72
612.758	28940.02
612.953	29026.03
613.149	29460.2
613.344	29142.77
613.539	29609.7
613.735	29607.65
613.93	29320.94
614.126	29054.7
614.321	29769.44
614.517	29378.28
614.712	29177.58
614.907	29171.44
615.103	29429.48
615.298	29138.67
615.493	29351.66
615.688	28909.3
615.884	29880.03
616.079	29064.94
616.274	29218.54
616.47	28899.06
616.665	29359.85
616.86	29046.51
617.055	28860.15
617.25	29251.31
617.445	29150.96
617.641	28659.45
617.836	29066.99
618.031	28690.16
618.226	28958.45
618.421	28720.88
618.616	29009.65
618.811	28374.78
619.006	29140.72
619.201	28200.7
619.396	28477.18
619.591	28249.85
619.786	28428.02
619.981	28038.91
620.176	28133.12
620.371	28114.69
620.566	28143.36
620.761	28053.25
620.956	27885.31
621.151	27488.01
621.346	27647.75
621.541	27256.59
621.735	27952.9
621.93	27326.22
622.125	26937.1
622.32	26738.45
622.515	27442.95
622.709	26840.85
622.904	26629.91
623.099	26453.78
623.294	26717.97
623.488	26230.55
623.683	26668.82
623.878	25894.69
624.072	26216.22
624.267	25898.78
624.462	25886.5
624.656	25798.43
624.851	25794.34
625.046	25487.14
625.24	25560.87
625.435	24997.68
625.629	25098.03
625.824	25052.97
626.018	25110.32
626.213	24508.21
626.407	24954.67
626.602	24649.52
626.796	24686.39
626.991	24565.56
627.185	24239.93
627.38	24043.32
627.574	24121.15
627.768	23615.3
627.963	23488.32
628.157	23633.73
628.352	23959.36
628.546	23492.42
628.74	23588.67
628.935	23207.75
629.129	23283.53
629.323	22878.03
629.517	22992.72
629.712	22914.89
629.906	22509.4
630.1	22374.23
630.294	22824.78
630.489	22271.83
630.683	22574.93
630.877	21792.61
631.071	22079.32
631.265	22126.43
631.459	21817.18
631.653	21526.37
631.848	21538.66
632.042	21387.11
632.236	21591.91
632.43	21264.23
632.624	21266.28
632.818	21235.56
633.012	20629.36
633.206	20631.41
633.4	20889.45
633.594	20479.86
633.788	20823.92
633.982	20537.2
634.176	20346.74
634.369	20197.24
634.563	20205.43
634.757	19914.62
634.951	19871.61
635.145	19763.07
635.339	19746.69
635.533	19527.55
635.726	19775.36
635.92	19449.73
636.114	19672.96
636.308	19220.36
636.501	19169.16
636.695	19310.47
636.889	19015.56
637.083	18808.72
637.276	18698.13
637.47	19007.37
637.664	18618.25
637.857	18726.8
638.051	18626.45
638.244	18259.86
638.438	18526.1
638.632	17956.76
638.825	18055.06
639.019	18010.01
639.212	17643.42
639.406	17725.34
639.599	17600.41
639.793	17584.03
639.986	17289.12
640.18	17295.27
640.373	17305.51
640.567	17119.14
640.76	17272.74
640.954	17047.46
641.147	16666.54
641.34	17108.9
641.534	16945.06
641.727	16736.17
641.92	16558
642.114	16594.86
642.307	16242.61
642.5	16236.47
642.694	16236.47
642.887	15910.84
643.08	16027.57
643.273	16099.25
643.467	15787.96
643.66	15798.2
643.853	15847.35
644.046	15368.13
644.239	15513.53
644.432	15386.56
644.626	15581.12
644.819	14983.11
645.012	15048.65
645.205	15062.98
645.398	14927.81
645.591	14946.25
645.784	14929.86
645.977	14510.03
646.17	14606.28
646.363	14286.8
646.556	14241.75
646.749	14436.3
646.942	14192.59
647.135	14094.29
647.328	14264.27
647.521	13985.75
647.714	13963.22
647.907	13963.22
648.099	13934.55
648.292	13666.27
648.485	14045.14
648.678	13434.85
648.871	13385.69
649.064	13330.4
649.256	13539.29
649.449	13475.81
649.642	13189.09
649.835	13250.53
650.027	13043.68
650.22	12959.72
650.413	12830.69
650.605	12957.67
650.798	12916.71
650.991	12675.05
651.183	12453.87
651.376	12586.99
651.568	12521.45
651.761	12531.69
651.954	12464.11
652.146	12337.13
652.339	12349.42
652.531	12412.91
652.724	12339.18
652.916	11968.5
653.109	12070.9
653.301	12290.03
653.494	11888.63
653.686	11771.9
653.879	11919.35
654.071	11769.85
654.263	11538.43
654.456	11593.72
654.648	11585.53
654.84	11460.6
655.033	11266.05
655.225	11282.43
655.417	11182.08
655.61	11307.01
655.802	11276.29
655.994	11042.82
656.186	11079.68
656.379	11177.98
656.571	10858.5
656.763	11034.63
656.955	10641.42
657.148	10942.47
657.34	10942.47
657.532	10629.13
657.724	10428.43
657.916	10727.43
658.108	10539.02
658.3	10577.93
658.492	10448.91
658.684	10199.06
658.876	10158.1
659.068	10100.75
659.26	10004.5
659.452	10162.19
659.644	10027.03
659.836	10010.64
660.028	9875.48
660.22	9932.82
660.412	9736.21
660.604	9736.21
660.796	9781.27
660.988	9605.14
661.18	9615.38
661.372	9437.21
661.563	9680.92
661.755	9443.35
661.947	9263.13
662.139	9093.15
662.331	9437.21
662.522	9236.51
662.714	9197.6
662.906	9003.04
663.097	9111.58
663.289	8972.32
663.481	8974.37
663.673	8908.83
663.864	8841.25
664.056	8902.69
664.247	8896.55
664.439	8568.87
664.631	8820.77
664.822	8638.5
665.014	8755.24
665.205	8511.53
665.397	8597.54
665.588	8331.31
665.78	8458.28
665.971	8359.98
666.163	8331.31
666.354	8351.79
666.546	8323.12
666.737	8198.19
666.929	8161.33
667.12	7995.44
667.311	7981.1
667.503	8040.5
667.694	7987.25
667.885	7856.18
668.077	7884.85
668.268	7802.93
668.459	7706.68
668.651	7827.51
668.842	7751.73
669.033	7710.77
669.224	7790.64
669.416	7729.2
669.607	7551.03
669.798	7491.64
669.989	7606.33
670.18	7413.82
670.371	7483.45
670.563	7567.42
670.754	7487.54
670.945	7295.04
671.136	7254.08
671.327	7258.17
671.518	7198.78
671.709	7327.8
671.9	7340.09
672.091	7092.29
672.282	7161.92
672.473	7184.45
672.664	7080
672.855	6965.31
673.046	6979.65
673.237	7170.11
673.428	7020.61
673.619	7020.61
673.809	6930.5
674	6918.21
674.191	6824
674.382	6729.8
674.573	6824
674.764	6676.55
674.954	6688.84
675.145	6598.73
675.336	6580.29
675.527	6756.42
675.717	6705.22
675.908	6670.4
676.099	6479.94
676.289	6549.57
676.48	6453.32
676.671	6488.14
676.861	6504.52
677.052	6418.5
677.243	6449.22
677.433	6531.14
677.624	6463.56
677.814	6398.03
678.005	6285.39
678.195	6457.42
678.386	6307.91
678.576	6144.08
678.767	6328.39
678.957	6221.9
679.148	6316.11
679.338	6219.85
679.529	6260.81
679.719	6170.7
679.909	6408.26
680.1	6103.12
680.29	6146.12
680.481	6201.42
680.671	6219.85
680.861	6125.65
681.052	6148.17
681.242	6049.87
681.432	6135.89
681.622	6070.35
681.813	5957.71
682.003	6004.82
682.193	5750.87
682.383	5908.56
682.573	5943.38
682.764	5924.94
682.954	6017.1
683.144	5888.08
683.334	6039.63
683.524	5761.11
683.714	6074.45
683.904	5877.84
684.094	5865.55
684.284	5754.96
684.474	5820.5
684.664	5734.48
684.854	5857.36
685.044	5685.33
685.234	5619.8
685.424	5646.42
685.614	5679.19
685.804	5703.76
685.994	5787.73
686.184	5769.3
686.374	5656.66
686.564	5570.65
686.753	5638.23
686.943	5472.34
687.133	5627.99
687.323	5472.34
687.513	5441.62
687.702	5552.21
687.892	5599.32
688.082	5351.51
688.272	5435.48
688.461	5447.77
688.651	5300.31
688.841	5171.29
689.03	5292.12
689.22	5216.35
689.41	5222.49
689.599	5302.36
689.789	5310.55
689.979	5230.68
690.168	5107.8
690.358	5146.72
690.547	5107.8
690.737	5232.73
690.926	5132.38
691.116	5046.37
691.305	5103.71
691.495	5193.82
691.684	5083.23
691.874	5005.41
692.063	5099.61
692.252	4964.45
692.442	4923.49
692.631	4968.54
692.82	4939.87
693.01	4980.83
693.199	5091.42
693.388	4872.29
693.578	4933.73
693.767	4845.66
693.956	4800.61
694.146	4726.88
694.335	4737.12
694.524	4737.12
694.713	4786.27
694.902	4712.55
695.092	4726.88
695.281	4741.22
695.47	4663.4
695.659	4710.5
695.848	4700.26
696.037	4759.65
696.226	4710.5
696.415	4657.25
696.604	4753.51
696.793	4677.73
696.982	4589.67
697.171	4563.05
697.36	4581.48
697.549	4579.43
697.738	4468.84
697.927	4434.02
698.116	4497.51
698.305	4427.88
698.494	4372.58
698.683	4491.37
698.872	4456.55
699.061	4448.36
699.25	4489.32
699.438	4391.02
699.627	4319.34
699.816	4380.78
700.005	4274.28
700.193	4298.86
700.382	4341.86
700.571	4315.24
700.76	4200.55
700.948	4358.25
701.137	4237.42
701.326	4257.9
701.514	4282.47
701.703	4370.54
701.892	4128.88
702.08	4311.14
702.269	4202.6
702.457	4186.22
702.646	4186.22
702.834	4120.68
703.023	4153.45
703.212	4073.58
703.4	4075.63
703.589	3778.67
703.777	4038.77
703.965	3819.63
704.154	4089.96
704.342	3958.89
704.531	3926.13
704.719	3874.93
704.907	3969.13
705.096	3944.56
705.284	3901.55
705.472	4038.77
705.661	3952.75
705.849	3756.15
706.037	3932.27
706.226	3993.71
706.414	3817.58
706.602	3862.64
706.79	3864.69
706.979	3858.54
707.167	3811.44
707.355	3729.52
707.543	3727.47
707.731	3850.35
707.919	3739.76
708.107	3752.05
708.296	3584.12
708.484	3623.03
708.672	3584.12
708.86	3735.67
709.048	3532.92
709.236	3596.4
709.424	3594.36
709.612	3620.98
709.8	3543.16
709.988	3514.49
710.176	3639.41
710.364	3512.44
710.551	3539.06
710.739	3500.15
710.927	3512.44
711.115	3623.03
711.303	3510.39
711.491	3491.96
711.679	3539.06
711.866	3262.58
712.054	3403.89
712.242	3328.12
712.43	3399.8
712.617	3393.65
712.805	3412.09
712.993	3321.98
713.181	3444.85
713.368	3328.12
713.556	3358.84
713.744	3274.87
713.931	3293.3
714.119	3328.12
714.306	3246.2
714.494	3195
714.682	3219.58
714.869	3076.22
715.057	3268.73
715.244	3252.35
715.432	3203.19
715.619	3117.18
715.807	3195
715.994	3270.78
716.182	3059.84
716.369	3235.96
716.556	3209.34
716.744	3100.8
716.931	3057.79
717.119	3121.28
717.306	3096.7
717.493	3051.64
717.681	2936.96
717.868	3108.99
718.055	3016.83
718.242	3043.45
718.43	2781.31
718.617	3014.78
718.804	2916.48
718.991	2885.76
719.179	2959.49
719.366	2902.14
719.553	3051.64
719.74	2949.25
719.927	2898.05
720.114	2805.89
720.301	2943.1
720.488	2814.08
720.676	2769.02
720.863	2920.57
721.05	2836.61
721.237	2795.65
721.424	2875.52
721.611	2820.22
721.798	2689.15
721.985	2760.83
722.172	2740.35
722.358	2705.54
722.545	2680.96
722.732	2830.46
722.919	2760.83
723.106	2707.59
723.293	2640
723.48	2748.54
723.667	2662.53
723.853	2748.54
724.04	2721.92
724.227	2597
724.414	2762.88
724.6	2531.46
724.787	2662.53
724.974	2613.38
725.161	2637.95
725.347	2562.18
725.534	2627.71
725.72	2646.15
725.907	2670.72
726.094	2580.61
726.28	2543.75
726.467	2500.74
726.653	2541.7
726.84	2617.47
727.027	2558.08
727.213	2343.05
727.4	2654.34
727.586	2568.32
727.773	2502.79
727.959	2510.98
728.145	2449.54
728.332	2537.6
728.518	2408.58
728.705	2420.87
728.891	2484.36
729.077	2498.69
729.264	2490.5
729.45	2457.73
729.636	2474.12
729.823	2349.19
730.009	2390.15
730.195	2433.16
730.382	2441.35
730.568	2500.74
730.754	2295.94
730.94	2273.42
731.126	2312.33
731.313	2343.05
731.499	2343.05
731.685	2265.22
731.871	2437.25
732.057	2318.47
732.243	2351.24
732.429	2295.94
732.615	2295.94
732.801	2375.81
732.987	2179.21
733.173	2244.74
733.359	2248.84
733.545	2164.87
733.731	2197.64
733.917	2222.22
734.103	2306.18
734.289	2230.41
734.475	2263.18
734.661	2203.79
734.847	2211.98
735.033	2252.94
735.219	2293.9
735.404	2181.26
735.59	2060.43
735.776	2138.25
735.962	2171.02
736.148	2203.79
736.333	2046.09
736.519	2097.29
736.705	2238.6
736.89	2123.91
737.076	2080.91
737.262	1998.99
737.447	2068.62
737.633	2080.91
737.819	2150.54
738.004	2091.15
738.19	2099.34
738.375	1994.89
738.561	2080.91
738.747	2029.71
738.932	1992.84
739.118	2082.95
739.303	2033.8
739.489	2009.23
739.674	1960.08
739.859	2076.81
740.045	1947.79
740.23	1923.21
740.416	1900.69
740.601	1980.56
740.786	1908.88
740.972	1998.99
741.157	1908.88
741.342	1958.03
741.528	1917.07
741.713	1853.58
741.898	1878.16
742.084	1892.49
742.269	1890.45
742.454	1847.44
742.639	1943.69
742.824	1849.49
743.01	1919.12
743.195	1919.12
743.38	1732.75
743.565	1722.51
743.75	1761.42
743.935	1853.58
744.12	1777.81
744.305	1822.86
744.49	1628.31
744.675	1777.81
744.86	1775.76
745.045	1712.27
745.23	1634.45
745.415	1738.9
745.6	1720.46
745.785	1685.65
745.97	1708.18
746.155	1781.9
746.34	1622.16
746.525	1597.59
746.71	1712.27
746.895	1626.26
747.079	1632.4
747.264	1605.78
747.449	1564.82
747.634	1622.16
747.819	1581.2
748.003	1568.91
748.188	1468.56
748.373	1589.39
748.557	1507.48
748.742	1552.53
748.927	1517.72
749.111	1511.57
749.296	1505.43
749.481	1474.71
749.665	1495.19
749.85	1503.38
750.034	1425.56
750.219	1575.06
750.404	1491.09
750.588	1376.41
750.773	1362.07
750.957	1409.17
751.141	1454.23
751.326	1470.61
751.51	1353.88
751.695	1458.32
751.879	1339.54
752.064	1403.03
752.248	1251.48
752.432	1343.64
752.617	1345.69
752.801	1450.13
752.985	1253.53
753.17	1362.07
753.354	1323.16
753.538	1335.45
753.722	1314.97
753.907	1321.11
754.091	1187.99
754.275	1269.91
754.459	1290.39
754.643	1128.6
754.828	1249.43
755.012	1214.62
755.196	1099.93
755.38	1233.05
755.564	1300.63
755.748	1198.23
755.932	1142.94
756.116	1196.18
756.3	1190.04
756.484	1101.98
756.668	1124.51
756.852	1120.41
757.036	1142.94
757.22	1081.5
757.404	1106.07
757.588	1101.98
757.772	1083.55
757.956	1091.74
758.14	1007.77
758.323	1036.44
758.507	1181.85
758.691	1036.44
758.875	1101.98
759.059	1075.35
759.242	1048.73
759.426	987.29
759.61	1030.3
759.794	970.91
759.977	1038.49
760.161	1065.11
760.345	1009.82
760.528	1077.4
760.712	942.24
760.895	954.52
761.079	954.52
761.263	888.99
761.446	929.95
761.63	932
761.813	1046.68
761.997	864.41
762.18	878.75
762.364	1026.2
762.547	938.14
762.731	860.32
762.914	968.86
763.098	913.56
763.281	854.17
763.464	927.9
763.648	776.35
763.831	903.32
764.015	866.46
764.198	948.38
764.381	942.24
764.564	854.17
764.748	858.27
764.931	905.37
765.114	843.93
765.297	954.52
765.481	909.47
765.664	860.32
765.847	962.72
766.03	798.88
766.213	872.61
766.397	843.93
766.58	829.6
766.763	886.94
766.946	862.37
767.129	854.17
767.312	823.45
767.495	825.5
767.678	764.06
767.861	827.55
768.044	770.21
768.227	813.21
768.41	811.17
768.593	872.61
768.776	839.84
768.959	755.87
769.142	872.61
769.324	811.17
769.507	854.17
769.69	790.69
769.873	768.16
770.056	811.17
770.239	805.02
770.421	778.4
770.604	823.45
770.787	796.83
770.97	790.69
771.152	762.02
771.335	692.38
771.518	682.14
771.7	835.74
771.883	835.74
772.066	708.77
772.248	852.13
772.431	782.49
772.613	792.73
772.796	782.49
772.978	727.2
773.161	796.83
773.343	710.82
773.526	721.06
773.708	630.95
773.891	684.19
774.073	723.1
774.256	745.63
774.438	731.3
774.621	620.71
774.803	694.43
774.985	598.18
775.168	641.18
775.35	661.66
775.532	692.38
775.715	649.38
775.897	712.86
776.079	712.86
776.261	698.53
776.444	589.99
776.626	702.62
776.808	632.99
776.99	630.95
777.173	630.95
777.355	616.61
777.537	616.61
777.719	655.52
777.901	651.42
778.083	592.03
778.265	589.99
778.447	649.38
778.629	540.83
778.811	551.07
778.993	501.92
779.175	602.27
779.357	663.71
779.539	534.69
779.721	647.33
779.903	571.55
780.085	559.27
780.267	567.46
780.449	551.07
780.631	585.89
780.812	618.66
780.994	571.55
781.176	501.92
781.358	524.45
781.54	516.26
781.721	575.65
781.903	460.96
782.085	569.51
782.267	542.88
782.448	467.11
782.63	438.44
782.812	442.53
782.993	577.7
783.175	450.72
783.357	530.59
783.538	491.68
783.72	442.53
783.901	436.39
784.083	401.57
784.264	516.26
784.446	440.48
784.627	395.43
784.809	549.03
784.99	430.24
785.172	475.3
785.353	426.15
785.535	473.25
785.716	450.72
785.897	377
786.079	479.4
786.26	411.81
786.441	467.11
786.623	417.96
786.804	344.23
786.985	381.09
787.167	397.48
787.348	387.24
787.529	393.38
787.71	422.05
787.891	434.34
788.073	333.99
788.254	352.42
788.435	514.21
788.616	352.42
788.797	374.95
788.978	327.85
789.159	307.37
789.34	370.85
789.522	354.47
789.703	370.85
789.884	293.03
790.065	403.62
790.246	401.57
790.427	346.28
790.607	348.33
790.788	399.52
790.969	317.61
791.15	315.56
791.331	374.95
791.512	325.8
791.693	254.12
791.874	243.88
792.054	442.53
792.235	344.23
792.416	247.97
792.597	280.74
792.778	362.66
792.958	327.85
793.139	379.04
793.32	317.61
793.5	313.51
793.681	364.71
793.862	307.37
794.042	313.51
794.223	270.5
794.404	262.31
794.584	286.89
794.765	254.12
794.945	286.89
795.126	270.5
795.306	293.03
795.487	260.26
795.667	385.19
795.848	288.93
796.028	274.6
796.209	288.93
796.389	264.36
796.57	270.5
796.75	295.08
796.93	219.3
797.111	229.54
797.291	313.51
797.471	297.13
797.652	282.79
797.832	221.35
798.012	213.16
798.192	258.21
798.373	264.36
798.553	155.82
798.733	245.93
798.913	204.97
799.093	164.01
799.274	321.7
799.454	262.31
799.634	299.17
799.814	288.93
799.994	221.35
800.174	190.63
800.354	305.32
800.534	233.64
800.714	237.74
800.894	204.97
801.074	151.72
801.254	164.01
801.434	198.82
801.614	213.16
801.794	155.82
801.974	901.28
802.154	192.68
802.334	241.83
802.514	174.25
802.693	166.06
802.873	239.78
803.053	254.12
803.233	225.45
803.413	137.38
803.592	204.97
803.772	168.1
803.952	256.17
804.131	157.86
804.311	286.89
804.491	188.58
804.67	149.67
804.85	207.02
805.03	129.19
805.209	233.64
805.389	121
805.568	196.78
805.748	155.82
805.928	170.15
806.107	184.49
806.287	147.62
806.466	209.06
806.646	200.87
806.825	139.43
807.004	127.14
807.184	194.73
807.363	204.97
807.543	157.86
807.722	182.44
807.901	266.41
808.081	164.01
808.26	145.58
808.439	188.58
808.619	174.25
808.798	180.39
808.977	192.68
809.156	139.43
809.336	123.05
809.515	84.14
809.694	59.56
809.873	237.74
810.052	215.21
810.231	180.39
810.411	221.35
810.59	127.14
810.769	131.24
810.948	153.77
811.127	90.28
811.306	190.63
811.485	98.47
811.664	172.2
811.843	207.02
812.022	135.34
812.201	213.16
812.38	217.26
812.559	106.67
812.737	221.35
812.916	170.15
813.095	213.16
813.274	186.54
813.453	114.86
813.632	172.2
813.811	172.2
813.989	98.47
814.168	145.58
814.347	106.67
814.526	133.29
814.704	121
814.883	159.91
815.062	61.61
815.24	131.24
815.419	77.99
815.598	168.1
815.776	151.72
815.955	127.14
816.133	47.27
816.312	106.67
816.49	121
816.669	82.09
816.847	106.67
817.026	143.53
817.204	84.14
817.383	43.18
817.561	92.33
817.74	153.77
817.918	45.23
818.097	94.38
818.275	106.67
818.453	141.48
818.632	221.35
818.81	57.51
818.988	106.67
819.167	118.95
819.345	116.9
819.523	106.67
819.701	159.91
819.879	98.47
820.058	127.14
820.236	67.75
820.414	84.14
820.592	98.47
820.77	108.71
820.948	127.14
821.127	157.86
821.305	92.33
821.483	131.24
821.661	198.82
821.839	49.32
822.017	118.95
822.195	75.95
822.373	104.62
822.551	69.8
822.729	82.09
822.907	94.38
823.085	75.95
823.262	6.31
823.44	57.51
823.618	32.94
823.796	49.32
823.974	12.46
824.152	67.75
824.329	26.79
824.507	123.05
824.685	164.01
824.863	57.51
825.04	37.03
825.218	141.48
825.396	98.47
825.574	106.67
825.751	114.86
825.929	65.71
826.107	118.95
826.284	125.1
826.462	67.75
826.639	96.43
826.817	37.03
826.994	127.14
827.172	92.33
827.349	139.43
827.527	143.53
827.704	108.71
827.882	141.48
828.059	149.67
828.237	-8.02
828.414	161.96
828.591	26.79
828.769	86.19
828.946	12.46
829.124	149.67
829.301	94.38
829.478	71.85
829.655	123.05
829.833	98.47
830.01	-12.12
830.187	106.67
830.364	90.28
830.542	49.32
830.719	61.61
830.896	18.6
831.073	34.99
831.25	164.01
831.427	55.47
831.604	86.19
831.782	57.51
831.959	170.15
832.136	88.23
832.313	106.67
832.49	4.27
832.667	26.79
832.844	139.43
833.021	114.86
833.198	32.94
833.374	129.19
833.551	123.05
833.728	98.47
833.905	77.99
834.082	0.17
834.259	100.52
834.436	16.55
834.612	131.24
834.789	26.79
834.966	47.27
835.143	-32.6
835.319	55.47
835.496	147.62
835.673	12.46
835.85	-26.45
836.026	-38.74
836.203	96.43
836.38	69.8
836.556	75.95
836.733	84.14
836.909	92.33
837.086	-5.97
837.262	32.94
837.439	-8.02
837.616	32.94
837.792	59.56
837.968	18.6
838.145	12.46
838.321	67.75
838.498	6.31
838.674	106.67
838.851	67.75
839.027	86.19
839.203	102.57
839.38	24.75
839.556	41.13
839.732	133.29
839.909	141.48
840.085	106.67
840.261	10.41
840.437	63.66
840.614	49.32
840.79	69.8
840.966	53.42
841.142	114.86
841.318	-5.97
841.494	32.94
841.671	51.37
841.847	37.03
842.023	-16.21
842.199	118.95
842.375	131.24
842.551	12.46
842.727	-46.93
842.903	102.57
843.079	20.65
843.255	84.14
843.431	53.42
843.607	123.05
843.783	24.75
843.959	43.18
844.134	10.41
844.31	77.99
844.486	49.32
844.662	-8.02
844.838	18.6
845.013	67.75
845.189	24.75
845.365	41.13
845.541	18.6
845.716	16.55
845.892	114.86
846.068	57.51
846.244	0.17
846.419	75.95
846.595	77.99
846.77	-8.02
846.946	16.55
847.122	98.47
847.297	16.55
847.473	67.75
847.648	24.75
847.824	6.31
847.999	41.13
848.175	37.03
848.35	125.1
848.526	131.24
848.701	131.24
848.876	73.9
849.052	16.55
849.227	2.22
849.403	-28.5
849.578	37.03
849.753	71.85
849.929	26.79
850.104	16.55
850.279	77.99
850.454	118.95
850.63	43.18
850.805	98.47
850.98	73.9
851.155	-3.93
851.33	8.36
851.505	-16.21
851.681	110.76
851.856	8.36
852.031	127.14
852.206	77.99
852.381	10.41
852.556	43.18
852.731	37.03
852.906	96.43
853.081	28.84
853.256	57.51
853.431	43.18
853.606	16.55
853.781	-1.88
853.956	-51.03
854.131	12.46
854.305	-16.21
854.48	18.6
854.655	-36.69
854.83	24.75
855.005	18.6
855.18	49.32
855.354	20.65
855.529	-8.02
855.704	61.61
855.879	67.75
856.053	43.18
856.228	108.71
856.403	8.36
856.577	53.42
856.752	-24.4
856.926	-32.6
857.101	57.51
857.276	0.17
857.45	30.89
857.625	10.41
857.799	-55.12
857.974	37.03
858.148	-24.4
858.323	45.23
858.497	-18.26
858.672	98.47
858.846	-71.51
859.02	12.46
859.195	-40.79
859.369	20.65
859.543	94.38
859.718	41.13
859.892	39.08
860.066	114.86
860.241	4.27
860.415	63.66
860.589	73.9
860.763	-14.17
860.938	8.36
861.112	-24.4
861.286	14.51
861.46	10.41
861.634	-5.97
861.808	65.71
861.982	47.27
862.157	-24.4
862.331	43.18
862.505	34.99
862.679	2.22
862.853	41.13
863.027	-8.02
863.201	65.71
863.375	-14.17
863.549	-20.31
863.722	104.62
863.896	73.9
864.07	-38.74
864.244	0.17
864.418	4.27
864.592	6.31
864.766	45.23
864.939	55.47
865.113	-61.27
865.287	8.36
865.461	34.99
865.634	41.13
865.808	63.66
865.982	-12.12
866.156	-65.36
866.329	26.79
866.503	-3.93
866.676	32.94
866.85	-5.97
867.024	8.36
867.197	28.84
867.371	100.52
867.544	20.65
867.718	10.41
867.891	-30.55
868.065	-71.51
868.238	41.13
868.412	139.43
868.585	26.79
868.759	-16.21
868.932	16.55
869.105	16.55
869.279	-46.93
869.452	-14.17
869.625	-5.97
869.799	32.94
869.972	-51.03
870.145	55.47
870.319	45.23
870.492	-22.36
870.665	32.94
870.838	-24.4
871.011	-42.84
871.185	-10.07
871.358	-44.88
871.531	41.13
871.704	-3.93
871.877	6.31
872.05	49.32
872.223	-32.6
872.396	-16.21
872.569	37.03
872.742	-65.36
872.915	16.55
873.088	-8.02
873.261	24.75
873.434	41.13
873.607	18.6
873.78	57.51
873.953	4.27
874.126	75.95
874.299	16.55
874.471	4.27
874.644	4.27
874.817	51.37
874.99	-24.4
875.163	8.36
875.335	-28.5
875.508	-10.07
875.681	20.65
875.853	-14.17
876.026	-12.12
876.199	-38.74
876.371	73.9
876.544	14.51
876.717	34.99
876.889	-40.79
877.062	-28.5
877.234	-32.6
877.407	100.52
877.579	45.23
877.752	57.51
877.924	26.79
878.097	57.51
878.269	-96.08
878.442	24.75
878.614	8.36
878.786	73.9
878.959	-5.97
879.131	-32.6
879.303	-16.21
879.476	-48.98
879.648	32.94
879.82	28.84
879.993	-48.98
880.165	-32.6
880.337	6.31
880.509	-3.93
880.681	-114.52
880.854	-77.65
881.026	16.55
881.198	-3.93
881.37	8.36
881.542	20.65
881.714	20.65
881.886	-24.4
882.058	18.6
882.23	51.37
882.402	-14.17
882.574	43.18
882.746	24.75
882.918	0.17
883.09	-16.21
883.262	26.79
883.434	43.18
883.606	-38.74
883.778	26.79
883.95	121
884.122	-14.17
884.293	39.08
884.465	59.56
884.637	73.9
884.809	28.84
884.98	37.03
885.152	20.65
885.324	-42.84
885.496	26.79
885.667	-40.79
885.839	32.94
886.011	82.09
886.182	-5.97
886.354	53.42
886.525	-20.31
886.697	37.03
886.869	-20.31
887.04	8.36
887.212	108.71
887.383	84.14
887.555	-3.93
887.726	2.22
887.897	-40.79
888.069	20.65
888.24	73.9
888.412	32.94
888.583	-48.98
888.754	-20.31
888.926	-65.36
889.097	-40.79
889.268	-8.02
889.44	4.27
889.611	-38.74
889.782	24.75
889.953	-12.12
890.125	-28.5
890.296	10.41
890.467	34.99
890.638	37.03
890.809	-14.17
890.98	-10.07
891.151	37.03
891.323	65.71
891.494	-38.74
891.665	8.36
891.836	-61.27
892.007	-40.79
892.178	49.32
892.349	32.94
892.52	-22.36
892.691	24.75
892.862	-3.93
893.032	10.41
893.203	-40.79
893.374	-20.31
893.545	8.36
893.716	-24.4
893.887	-5.97
894.057	-69.46
894.228	28.84
894.399	2.22
894.57	14.51
894.74	-5.97
894.911	-10.07
895.082	90.28
895.253	-96.08
895.423	20.65
895.594	16.55
895.764	34.99
895.935	-44.88
896.106	41.13
896.276	-18.26
896.447	0.17
896.617	-40.79
896.788	-12.12
896.958	16.55
897.129	67.75
897.299	-16.21
897.47	67.75
897.64	26.79
897.81	65.71
897.981	57.51
898.151	-24.4
898.322	4.27
898.492	-12.12
898.662	-28.5
898.832	4.27
899.003	8.36
899.173	16.55
899.343	26.79
899.513	-30.55
