Data from USB4F104151__89__14-30-39-396.txt Node

Date: Thu Mar 13 14:30:39 EDT 2025
User: louis
Spectrometer: USB4F10415
Trigger mode: 4
Integration Time (sec): 2.500000E-2
Scans to average: 1
Electric dark correction enabled: true
Nonlinearity correction enabled: false
Boxcar width: 0
XAxis mode: Wavelengths
Number of Pixels in Spectrum: 3648
>>>>>Begin Spectral Data<<<<<
178.204	-184.32
178.424	-184.32
178.644	-184.32
178.864	-143.36
179.084	-159.74
179.304	-28.67
179.524	-10.24
179.744	-28.67
179.964	90.11
180.184	-28.67
180.404	-43.01
180.624	22.53
180.844	36.86
181.064	-24.58
181.283	8.19
181.503	-45.06
181.723	51.2
181.943	-86.01
182.163	36.86
182.383	16.38
182.602	65.54
182.822	86.01
183.042	36.86
183.262	30.72
183.482	-20.48
183.701	-8.19
183.921	-4.1
184.141	20.48
184.361	-16.38
184.58	106.49
184.8	102.4
185.02	-16.38
185.239	102.4
185.459	69.63
185.679	71.68
185.898	14.34
186.118	4.1
186.338	20.48
186.557	36.86
186.777	24.58
186.997	55.3
187.216	-32.77
187.436	165.89
187.655	75.77
187.875	94.21
188.095	14.34
188.314	153.6
188.534	112.64
188.753	55.3
188.973	102.4
189.192	102.4
189.412	8.19
189.631	36.86
189.851	36.86
190.07	63.49
190.29	-12.29
190.509	12.29
190.729	47.1
190.948	77.82
191.168	194.56
191.387	12.29
191.607	53.25
191.826	61.44
192.045	20.48
192.265	12.29
192.484	30.72
192.704	55.3
192.923	49.15
193.142	73.73
193.362	40.96
193.581	114.69
193.8	55.3
194.02	57.34
194.239	36.86
194.458	167.93
194.678	0
194.897	30.72
195.116	45.06
195.335	14.34
195.555	6.14
195.774	24.58
195.993	110.59
196.212	20.48
196.432	-40.96
196.651	73.73
196.87	6.14
197.089	57.34
197.308	79.87
197.528	36.86
197.747	8.19
197.966	10.24
198.185	28.67
198.404	16.38
198.623	122.88
198.842	102.4
199.062	28.67
199.281	79.87
199.5	47.1
199.719	61.44
199.938	59.39
200.157	86.01
200.376	57.34
200.595	104.45
200.814	32.77
201.033	36.86
201.252	40.96
201.471	20.48
201.69	77.82
201.909	47.1
202.128	12.29
202.347	28.67
202.566	61.44
202.785	69.63
203.004	-20.48
203.223	92.16
203.442	-32.77
203.661	94.21
203.879	14.34
204.098	63.49
204.317	47.1
204.536	86.01
204.755	-8.19
204.974	61.44
205.193	71.68
205.411	143.36
205.63	40.96
205.849	90.11
206.068	34.82
206.287	-12.29
206.505	40.96
206.724	94.21
206.943	45.06
207.162	55.3
207.381	65.54
207.599	40.96
207.818	36.86
208.037	69.63
208.255	18.43
208.474	110.59
208.693	24.58
208.911	98.3
209.13	6.14
209.349	45.06
209.567	40.96
209.786	96.25
210.005	20.48
210.223	4.1
210.442	-69.63
210.661	28.67
210.879	36.86
211.098	65.54
211.316	75.77
211.535	69.63
211.753	77.82
211.972	4.1
212.191	-34.82
212.409	40.96
212.628	-34.82
212.846	30.72
213.065	73.73
213.283	108.54
213.502	49.15
213.72	55.3
213.938	86.01
214.157	12.29
214.375	75.77
214.594	2.05
214.812	112.64
215.031	-2.05
215.249	20.48
215.467	24.58
215.686	2.05
215.904	94.21
216.122	45.06
216.341	118.78
216.559	-4.1
216.778	53.25
216.996	83.97
217.214	69.63
217.432	88.06
217.651	36.86
217.869	65.54
218.087	94.21
218.306	61.44
218.524	-4.1
218.742	83.97
218.96	20.48
219.179	104.45
219.397	129.02
219.615	49.15
219.833	16.38
220.051	36.86
220.27	139.26
220.488	88.06
220.706	100.35
220.924	-43.01
221.142	36.86
221.36	0
221.578	77.82
221.796	20.48
222.015	20.48
222.233	63.49
222.451	81.92
222.669	-24.58
222.887	73.73
223.105	20.48
223.323	-22.53
223.541	-16.38
223.759	61.44
223.977	-8.19
224.195	86.01
224.413	47.1
224.631	4.1
224.849	86.01
225.067	86.01
225.285	45.06
225.503	4.1
225.721	12.29
225.939	20.48
226.157	63.49
226.375	145.41
226.592	79.87
226.81	8.19
227.028	45.06
227.246	100.35
227.464	59.39
227.682	49.15
227.9	32.77
228.117	67.58
228.335	71.68
228.553	-26.62
228.771	69.63
228.989	45.06
229.206	94.21
229.424	-18.43
229.642	67.58
229.86	14.34
230.077	-8.19
230.295	110.59
230.513	6.14
230.731	61.44
230.948	69.63
231.166	61.44
231.384	-4.1
231.601	47.1
231.819	69.63
232.037	45.06
232.254	-4.1
232.472	14.34
232.689	32.77
232.907	34.82
233.125	65.54
233.342	40.96
233.56	18.43
233.777	-4.1
233.995	6.14
234.213	53.25
234.43	77.82
234.648	22.53
234.865	73.73
235.083	45.06
235.3	102.4
235.518	-8.19
235.735	55.3
235.953	86.01
236.17	71.68
236.388	38.91
236.605	53.25
236.822	118.78
237.04	55.3
237.257	53.25
237.475	71.68
237.692	36.86
237.909	73.73
238.127	63.49
238.344	94.21
238.562	57.34
238.779	16.38
238.996	4.1
239.214	14.34
239.431	102.4
239.648	12.29
239.865	20.48
240.083	34.82
240.3	6.14
240.517	14.34
240.735	28.67
240.952	81.92
241.169	30.72
241.386	22.53
241.603	55.3
241.821	0
242.038	47.1
242.255	71.68
242.472	10.24
242.689	126.97
242.907	112.64
243.124	69.63
243.341	0
243.558	30.72
243.775	18.43
243.992	24.58
244.209	49.15
244.426	61.44
244.643	69.63
244.86	71.68
245.078	63.49
245.295	79.87
245.512	53.25
245.729	4.1
245.946	69.63
246.163	-12.29
246.38	141.31
246.597	45.06
246.814	-26.62
247.031	-20.48
247.248	49.15
247.464	53.25
247.681	28.67
247.898	96.25
248.115	126.97
248.332	-28.67
248.549	120.83
248.766	32.77
248.983	32.77
249.2	92.16
249.417	79.87
249.633	-26.62
249.85	73.73
250.067	63.49
250.284	59.39
250.501	45.06
250.717	71.68
250.934	-12.29
251.151	81.92
251.368	-20.48
251.585	22.53
251.801	69.63
252.018	57.34
252.235	77.82
252.451	61.44
252.668	-45.06
252.885	55.3
253.102	47.1
253.318	12.29
253.535	61.44
253.752	-20.48
253.968	8.19
254.185	-4.1
254.401	4.1
254.618	6.14
254.835	20.48
255.051	28.67
255.268	22.53
255.484	61.44
255.701	12.29
255.917	106.49
256.134	-4.1
256.351	36.86
256.567	34.82
256.784	12.29
257	-4.1
257.217	63.49
257.433	94.21
257.65	118.78
257.866	-4.1
258.082	8.19
258.299	14.34
258.515	63.49
258.732	16.38
258.948	-18.43
259.165	20.48
259.381	94.21
259.597	110.59
259.814	55.3
260.03	110.59
260.246	28.67
260.463	57.34
260.679	45.06
260.895	-10.24
261.112	-51.2
261.328	36.86
261.544	90.11
261.761	81.92
261.977	22.53
262.193	-8.19
262.409	86.01
262.626	67.58
262.842	40.96
263.058	28.67
263.274	10.24
263.49	59.39
263.707	86.01
263.923	71.68
264.139	-28.67
264.355	-2.05
264.571	110.59
264.787	55.3
265.004	-4.1
265.22	-10.24
265.436	6.14
265.652	-43.01
265.868	81.92
266.084	73.73
266.3	137.21
266.516	108.54
266.732	36.86
266.948	98.3
267.164	8.19
267.38	81.92
267.596	67.58
267.812	122.88
268.028	96.25
268.244	57.34
268.46	4.1
268.676	12.29
268.892	22.53
269.108	77.82
269.324	77.82
269.54	90.11
269.756	18.43
269.972	65.54
270.188	63.49
270.403	22.53
270.619	12.29
270.835	30.72
271.051	59.39
271.267	22.53
271.483	22.53
271.698	92.16
271.914	45.06
272.13	40.96
272.346	16.38
272.562	30.72
272.777	92.16
272.993	-20.48
273.209	94.21
273.425	34.82
273.64	-45.06
273.856	126.97
274.072	69.63
274.287	45.06
274.503	-12.29
274.719	114.69
274.934	118.78
275.15	-12.29
275.366	118.78
275.581	-18.43
275.797	110.59
276.012	-16.38
276.228	63.49
276.444	40.96
276.659	47.1
276.875	77.82
277.09	-28.67
277.306	110.59
277.521	110.59
277.737	34.82
277.952	94.21
278.168	53.25
278.383	69.63
278.599	40.96
278.814	71.68
279.03	14.34
279.245	77.82
279.461	20.48
279.676	90.11
279.892	24.58
280.107	61.44
280.322	53.25
280.538	-20.48
280.753	38.91
280.969	106.49
281.184	14.34
281.399	43.01
281.615	-4.1
281.83	57.34
282.045	28.67
282.26	-36.86
282.476	65.54
282.691	116.73
282.906	69.63
283.122	94.21
283.337	49.15
283.552	61.44
283.767	34.82
283.983	-4.1
284.198	38.91
284.413	86.01
284.628	18.43
284.843	118.78
285.058	79.87
285.274	22.53
285.489	-12.29
285.704	65.54
285.919	57.34
286.134	86.01
286.349	34.82
286.564	45.06
286.779	114.69
286.995	30.72
287.21	-16.38
287.425	45.06
287.64	51.2
287.855	36.86
288.07	20.48
288.285	143.36
288.5	102.4
288.715	110.59
288.93	53.25
289.145	63.49
289.36	-34.82
289.575	96.25
289.79	24.58
290.004	145.41
290.219	86.01
290.434	-51.2
290.649	20.48
290.864	63.49
291.079	45.06
291.294	49.15
291.509	71.68
291.724	71.68
291.938	-55.3
292.153	83.97
292.368	49.15
292.583	102.4
292.798	110.59
293.012	88.06
293.227	32.77
293.442	36.86
293.657	53.25
293.871	133.12
294.086	40.96
294.301	155.65
294.516	38.91
294.73	18.43
294.945	36.86
295.16	49.15
295.374	69.63
295.589	61.44
295.804	28.67
296.018	45.06
296.233	145.41
296.447	45.06
296.662	53.25
296.877	104.45
297.091	57.34
297.306	94.21
297.52	94.21
297.735	47.1
297.949	18.43
298.164	45.06
298.378	-4.1
298.593	45.06
298.807	45.06
299.022	57.34
299.236	71.68
299.451	-12.29
299.665	38.91
299.88	51.2
300.094	57.34
300.309	77.82
300.523	69.63
300.737	112.64
300.952	-22.53
301.166	126.97
301.381	6.14
301.595	47.1
301.809	90.11
302.024	12.29
302.238	71.68
302.452	77.82
302.667	36.86
302.881	69.63
303.095	65.54
303.309	114.69
303.524	12.29
303.738	53.25
303.952	75.77
304.166	43.01
304.381	-86.01
304.595	26.62
304.809	65.54
305.023	71.68
305.237	45.06
305.452	75.77
305.666	79.87
305.88	57.34
306.094	36.86
306.308	69.63
306.522	63.49
306.736	16.38
306.95	61.44
307.164	0
307.379	30.72
307.593	184.32
307.807	57.34
308.021	57.34
308.235	26.62
308.449	-20.48
308.663	53.25
308.877	94.21
309.091	61.44
309.305	92.16
309.519	-12.29
309.733	38.91
309.947	-2.05
310.161	102.4
310.374	118.78
310.588	126.97
310.802	43.01
311.016	118.78
311.23	36.86
311.444	45.06
311.658	57.34
311.872	40.96
312.085	98.3
312.299	94.21
312.513	86.01
312.727	77.82
312.941	0
313.154	-10.24
313.368	30.72
313.582	20.48
313.796	4.1
314.009	61.44
314.223	63.49
314.437	79.87
314.651	53.25
314.864	53.25
315.078	65.54
315.292	63.49
315.505	71.68
315.719	126.97
315.933	16.38
316.146	69.63
316.36	57.34
316.573	51.2
316.787	86.01
317.001	79.87
317.214	4.1
317.428	77.82
317.641	-20.48
317.855	69.63
318.068	55.3
318.282	96.25
318.495	38.91
318.709	159.74
318.922	86.01
319.136	79.87
319.349	94.21
319.563	96.25
319.776	4.1
319.99	-24.58
320.203	137.21
320.417	71.68
320.63	20.48
320.843	104.45
321.057	6.14
321.27	55.3
321.483	81.92
321.697	59.39
321.91	28.67
322.124	20.48
322.337	12.29
322.55	38.91
322.763	28.67
322.977	59.39
323.19	14.34
323.403	45.06
323.617	129.02
323.83	40.96
324.043	-28.67
324.256	86.01
324.469	38.91
324.683	79.87
324.896	106.49
325.109	86.01
325.322	-49.15
325.535	139.26
325.748	81.92
325.962	69.63
326.175	24.58
326.388	122.88
326.601	77.82
326.814	45.06
327.027	51.2
327.24	186.37
327.453	-43.01
327.666	77.82
327.879	106.49
328.092	143.36
328.305	55.3
328.518	73.73
328.731	55.3
328.944	75.77
329.157	49.15
329.37	151.55
329.583	190.46
329.796	98.3
330.009	28.67
330.222	88.06
330.435	28.67
330.648	79.87
330.861	102.4
331.073	118.78
331.286	49.15
331.499	57.34
331.712	57.34
331.925	4.1
332.138	2.05
332.35	110.59
332.563	26.62
332.776	71.68
332.989	-32.77
333.202	22.53
333.414	86.01
333.627	59.39
333.84	4.1
334.053	106.49
334.265	4.1
334.478	-10.24
334.691	61.44
334.903	69.63
335.116	-57.34
335.329	102.4
335.541	90.11
335.754	100.35
335.966	28.67
336.179	102.4
336.392	47.1
336.604	79.87
336.817	88.06
337.029	167.93
337.242	69.63
337.454	63.49
337.667	12.29
337.88	106.49
338.092	38.91
338.305	73.73
338.517	-8.19
338.729	79.87
338.942	47.1
339.154	129.02
339.367	-26.62
339.579	22.53
339.792	24.58
340.004	104.45
340.217	38.91
340.429	28.67
340.641	-45.06
340.854	71.68
341.066	110.59
341.278	110.59
341.491	92.16
341.703	59.39
341.915	12.29
342.128	135.17
342.34	-24.58
342.552	120.83
342.764	65.54
342.977	94.21
343.189	65.54
343.401	110.59
343.613	32.77
343.826	61.44
344.038	61.44
344.25	61.44
344.462	-26.62
344.674	12.29
344.886	79.87
345.099	92.16
345.311	40.96
345.523	2.05
345.735	24.58
345.947	110.59
346.159	73.73
346.371	77.82
346.583	-24.58
346.795	131.07
347.007	-12.29
347.219	53.25
347.431	30.72
347.643	86.01
347.855	61.44
348.067	69.63
348.279	34.82
348.491	120.83
348.703	47.1
348.915	63.49
349.127	57.34
349.339	194.56
349.551	38.91
349.763	145.41
349.975	32.77
350.187	131.07
350.399	69.63
350.61	47.1
350.822	65.54
351.034	71.68
351.246	32.77
351.458	104.45
351.669	149.5
351.881	81.92
352.093	120.83
352.305	143.36
352.517	36.86
352.728	55.3
352.94	94.21
353.152	86.01
353.363	47.1
353.575	94.21
353.787	135.17
353.999	73.73
354.21	79.87
354.422	55.3
354.633	65.54
354.845	22.53
355.057	45.06
355.268	98.3
355.48	63.49
355.692	83.97
355.903	112.64
356.115	59.39
356.326	-34.82
356.538	73.73
356.749	-8.19
356.961	120.83
357.172	16.38
357.384	36.86
357.595	122.88
357.807	18.43
358.018	12.29
358.23	36.86
358.441	208.89
358.653	20.48
358.864	45.06
359.075	-24.58
359.287	38.91
359.498	32.77
359.709	45.06
359.921	104.45
360.132	45.06
360.344	79.87
360.555	32.77
360.766	63.49
360.977	90.11
361.189	102.4
361.4	22.53
361.611	163.84
361.823	30.72
362.034	86.01
362.245	32.77
362.456	4.1
362.667	55.3
362.879	67.58
363.09	135.17
363.301	86.01
363.512	16.38
363.723	65.54
363.935	102.4
364.146	88.06
364.357	36.86
364.568	110.59
364.779	-4.1
364.99	145.41
365.201	81.92
365.412	94.21
365.623	36.86
365.834	96.25
366.045	102.4
366.256	59.39
366.467	28.67
366.678	20.48
366.889	104.45
367.1	36.86
367.311	61.44
367.522	-2.05
367.733	79.87
367.944	122.88
368.155	4.1
368.366	47.1
368.577	75.77
368.788	53.25
368.999	36.86
369.209	18.43
369.42	176.13
369.631	116.73
369.842	65.54
370.053	6.14
370.264	43.01
370.474	131.07
370.685	94.21
370.896	40.96
371.107	131.07
371.317	61.44
371.528	69.63
371.739	143.36
371.95	92.16
372.16	108.54
372.371	14.34
372.582	-2.05
372.792	98.3
373.003	2.05
373.214	-2.05
373.424	24.58
373.635	90.11
373.846	104.45
374.056	55.3
374.267	90.11
374.477	116.73
374.688	-20.48
374.898	4.1
375.109	73.73
375.319	69.63
375.53	28.67
375.74	69.63
375.951	88.06
376.161	47.1
376.372	104.45
376.582	-16.38
376.793	131.07
377.003	57.34
377.214	73.73
377.424	40.96
377.635	45.06
377.845	45.06
378.055	69.63
378.266	59.39
378.476	81.92
378.686	112.64
378.897	55.3
379.107	77.82
379.317	92.16
379.528	88.06
379.738	69.63
379.948	75.77
380.158	61.44
380.369	-86.01
380.579	120.83
380.789	28.67
380.999	135.17
381.21	110.59
381.42	147.45
381.63	110.59
381.84	49.15
382.05	118.78
382.261	69.63
382.471	45.06
382.681	45.06
382.891	100.35
383.101	53.25
383.311	-22.53
383.521	73.73
383.731	96.25
383.941	167.93
384.151	88.06
384.361	120.83
384.571	0
384.781	112.64
384.991	126.97
385.201	104.45
385.411	118.78
385.621	192.51
385.831	79.87
386.041	102.4
386.251	94.21
386.461	63.49
386.671	110.59
386.881	65.54
387.091	57.34
387.301	61.44
387.511	38.91
387.72	147.45
387.93	135.17
388.14	129.02
388.35	-2.05
388.56	98.3
388.769	90.11
388.979	53.25
389.189	147.45
389.399	92.16
389.609	159.74
389.818	118.78
390.028	65.54
390.238	77.82
390.447	40.96
390.657	182.27
390.867	59.39
391.076	61.44
391.286	110.59
391.496	143.36
391.705	104.45
391.915	133.12
392.125	96.25
392.334	94.21
392.544	135.17
392.753	77.82
392.963	126.97
393.172	53.25
393.382	90.11
393.591	145.41
393.801	184.32
394.01	104.45
394.22	81.92
394.429	69.63
394.639	151.55
394.848	169.98
395.058	157.69
395.267	131.07
395.477	157.69
395.686	86.01
395.895	165.89
396.105	184.32
396.314	108.54
396.524	79.87
396.733	147.45
396.942	161.79
397.152	96.25
397.361	153.6
397.57	167.93
397.78	167.93
397.989	135.17
398.198	157.69
398.407	149.5
398.617	126.97
398.826	178.17
399.035	184.32
399.244	202.75
399.453	86.01
399.663	172.03
399.872	137.21
400.081	90.11
400.29	208.89
400.499	155.65
400.708	139.26
400.917	149.5
401.127	135.17
401.336	167.93
401.545	200.7
401.754	194.56
401.963	159.74
402.172	178.17
402.381	167.93
402.59	198.65
402.799	163.84
403.008	184.32
403.217	143.36
403.426	237.56
403.635	102.4
403.844	200.7
404.053	112.64
404.262	215.04
404.471	241.66
404.68	221.18
404.888	153.6
405.097	276.48
405.306	233.47
405.515	241.66
405.724	178.17
405.933	225.28
406.142	237.56
406.35	286.72
406.559	286.72
406.768	301.05
406.977	321.53
407.185	274.43
407.394	229.37
407.603	294.91
407.812	348.15
408.02	299
408.229	272.38
408.438	376.83
408.646	372.73
408.855	356.35
409.064	339.96
409.272	352.25
409.481	366.59
409.69	415.74
409.898	405.5
410.107	471.03
410.315	448.51
410.524	477.18
410.733	579.58
410.941	491.51
411.15	544.76
411.358	675.83
411.567	585.72
411.775	503.8
411.984	669.69
412.192	708.6
412.401	634.87
412.609	667.64
412.818	765.94
413.026	737.27
413.234	798.71
413.443	817.14
413.651	716.79
413.86	933.87
414.068	946.16
414.276	962.55
414.485	983.03
414.693	1026.03
414.901	1089.52
415.11	1103.86
415.318	1030.13
415.526	1036.27
415.734	1210.35
415.943	1128.43
416.151	1212.4
416.359	1224.69
416.567	1259.5
416.776	1208.3
416.984	1478.63
417.192	1519.59
417.4	1437.67
417.608	1374.19
417.817	1556.46
418.025	1673.19
418.233	1742.82
418.441	1728.49
418.649	1824.74
418.857	1826.79
419.065	1970.15
419.273	1896.42
419.481	2056.16
419.689	2131.94
419.897	2293.72
420.105	2404.32
420.313	2269.15
420.521	2447.32
420.729	2469.85
420.937	2576.34
421.145	2592.73
421.353	2748.37
421.561	2869.2
421.769	2977.75
421.977	3086.29
422.185	2854.87
422.393	3178.45
422.601	3438.54
422.809	3336.14
423.017	3334.09
423.224	3583.95
423.432	3649.48
423.64	3758.02
423.848	4229.06
424.056	4020.16
424.263	4270.01
424.471	4243.39
424.679	4364.22
424.887	4536.25
425.094	4644.79
425.302	4820.92
425.51	4902.84
425.718	5009.33
425.925	5119.92
426.133	5257.14
426.341	5613.48
426.548	5867.43
426.756	5898.15
426.964	5947.3
427.171	6481.82
427.379	6451.1
427.586	6506.4
427.794	6688.67
428.001	7028.63
428.209	7409.55
428.417	7141.27
428.624	7757.71
428.832	7747.47
429.039	7526.29
429.247	7782.28
429.454	8243.07
429.662	9023.35
429.869	8447.87
430.076	9031.54
430.284	8769.4
430.491	9361.27
430.699	9719.66
430.906	9697.13
431.114	9695.08
431.321	10309.47
431.528	10461.02
431.736	10925.91
431.943	11308.88
432.15	11251.54
432.358	11261.78
432.565	12048.2
432.772	11808.59
432.979	12556.1
433.187	12853.05
433.394	12779.33
433.601	13670.19
433.808	13711.15
434.016	13627.18
434.223	14143.27
434.43	15017.75
434.637	14720.8
434.844	15546.13
435.052	15847.18
435.259	15724.3
435.466	15920.91
435.673	15900.43
435.88	16819.97
436.087	17610.48
436.294	17856.24
436.501	17151.74
436.708	17610.48
436.915	18058.99
437.122	19025.63
437.329	18833.12
437.537	19601.11
437.743	19971.79
437.95	19826.39
438.157	20829.89
438.364	21128.89
438.571	21276.35
438.778	21581.49
438.985	23389.85
439.192	22617.77
439.399	23187.1
439.606	22711.97
439.813	23791.25
440.02	25386.62
440.227	25044.61
440.433	24733.32
440.64	25499.26
440.847	25161.34
441.054	25792.12
441.261	27465.31
441.467	27305.57
441.674	27682.39
441.881	28683.85
442.088	28956.23
442.294	28393.04
442.501	29109.83
442.708	29660.73
442.914	30842.41
443.121	32124.44
443.328	31295.01
443.534	33568.26
443.741	32460.3
443.948	32218.64
444.154	34528.75
444.361	34182.65
444.568	34455.03
444.774	34422.26
444.981	34731.5
445.187	35931.61
445.394	37180.87
445.6	36513.23
445.807	40334.74
446.013	38485.43
446.22	39439.78
446.426	40654.23
446.633	41035.15
446.839	42923.38
447.046	40854.93
447.252	43140.46
447.459	43154.8
447.665	43154.8
447.871	44848.47
448.078	46677.3
448.284	44502.36
448.491	45579.59
448.697	47232.3
448.903	47783.21
449.11	48194.85
449.316	47330.61
449.522	48520.48
449.728	49659.15
449.935	50040.07
450.141	49759.5
450.347	50816.25
450.553	49059.09
450.76	49808.65
450.966	51782.89
451.172	50900.22
451.378	52215.01
451.584	51270.9
451.791	52573.41
451.997	52153.57
452.203	53392.59
452.409	53085.4
452.615	52514.01
452.821	50814.2
453.027	50341.12
453.233	53150.93
453.44	51131.64
453.646	51504.37
453.852	51969.25
454.058	53163.22
454.264	50797.82
454.47	51952.87
454.676	50894.07
454.882	52264.16
455.088	47637.8
455.294	49040.66
455.5	49267.98
455.705	50087.17
455.911	47523.11
456.117	46873.91
456.323	46185.79
456.529	43896.16
456.735	45925.7
456.941	44705.11
457.147	44189.02
457.352	42827.12
457.558	42689.91
457.764	42292.6
457.97	41477.51
458.176	40385.94
458.381	40244.63
458.587	38690.23
458.793	38964.65
458.999	36541.91
459.204	38782.38
459.41	38374.84
459.616	35591.65
459.821	35890.65
460.027	35751.39
460.233	34647.54
460.438	33234.44
460.644	33682.94
460.85	31780.38
461.055	31436.32
461.261	30981.67
461.466	28986.95
461.672	27741.78
461.878	30428.72
462.083	28051.03
462.289	27389.53
462.494	27264.61
462.7	26021.49
462.905	25501.31
463.111	26220.14
463.316	26478.19
463.522	25929.33
463.727	26156.66
463.932	25767.54
464.138	25355.9
464.343	25607.8
464.549	24985.22
464.754	25351.81
464.959	25499.26
465.165	25407.1
465.37	24254.09
465.575	23912.08
465.781	24407.69
465.986	24897.16
466.191	23938.71
466.397	23367.32
466.602	22253.23
466.807	22853.28
467.012	22957.73
467.218	22900.39
467.423	22650.53
467.628	22777.51
467.833	23543.45
468.038	22881.95
468.244	21907.12
468.449	22912.67
468.654	22116.01
468.859	21991.09
469.064	22173.36
469.269	21014.21
469.474	21231.29
469.679	21751.48
469.885	21132.99
470.09	21450.42
470.295	21147.33
470.5	20870.85
470.705	20872.9
470.91	20246.22
471.115	20156.11
471.32	20694.72
471.525	20268.75
471.73	19869.39
471.935	19779.28
472.139	18917.09
472.344	19234.52
472.549	19128.03
472.754	19021.53
472.959	18554.6
473.164	18304.74
473.369	17774.32
473.574	18601.7
473.778	18632.42
473.983	18104.04
474.188	17903.34
474.393	17186.55
474.598	17583.86
474.802	17170.17
475.007	17125.11
475.212	17360.63
475.417	16199.43
475.621	16559.88
475.826	16537.35
476.031	16305.93
476.235	16008.97
476.44	16189.19
476.645	15994.64
476.849	15812.37
477.054	15724.3
477.259	15308.57
477.463	15439.64
477.668	14935.84
477.872	15349.53
478.077	14878.49
478.282	14749.47
478.486	14475.04
478.691	14450.47
478.895	14481.19
479.1	14274.34
479.304	14309.16
479.509	13864.75
479.713	14118.7
479.918	13852.46
480.122	13760.3
480.326	13805.36
480.531	13731.63
480.735	13762.35
480.94	13449.01
481.144	13928.24
481.348	13188.92
481.553	13348.66
481.757	13037.37
481.961	13319.99
482.166	13444.91
482.37	13502.26
482.574	13205.3
482.778	13037.37
482.983	13561.65
483.187	13356.85
483.391	13438.77
483.595	12967.74
483.8	13070.14
484.004	13371.19
484.208	13549.36
484.412	13242.17
484.616	13088.57
484.821	13127.48
485.025	13066.04
485.229	13340.47
485.433	13029.18
485.637	13227.83
485.841	13068.09
486.045	13127.48
486.249	13055.8
486.453	13135.67
486.657	13397.81
486.861	13096.76
487.065	12934.97
487.269	13242.17
487.473	12851
487.677	13315.89
487.881	13260.6
488.085	13072.18
488.289	13246.26
488.493	13014.84
488.697	13088.57
488.901	13152.06
489.105	13184.82
489.309	13225.78
489.512	13344.56
489.716	13307.7
489.92	13160.25
490.124	13240.12
490.328	13588.27
490.531	13324.08
490.735	13258.55
490.939	13305.65
491.143	13575.98
491.346	13401.91
491.55	13670.19
491.754	13547.31
491.958	13584.18
492.161	13629.23
492.365	13858.6
492.569	13653.81
492.772	13610.8
492.976	14030.63
493.18	13860.65
493.383	13811.5
493.587	14063.4
493.79	14106.41
493.994	13940.52
494.197	14026.54
494.401	14214.95
494.605	14186.28
494.808	14688.03
495.012	14628.64
495.215	14538.53
495.419	14833.44
495.622	14692.13
495.825	15095.58
496.029	15105.82
496.232	15177.5
496.436	15167.26
496.639	15566.61
496.843	15437.59
497.046	15658.77
497.249	16117.51
497.453	16168.71
497.656	16002.83
497.859	16183.05
498.063	16432.9
498.266	16514.82
498.469	16576.26
498.673	16828.16
498.876	17078.01
499.079	17168.12
499.282	16895.74
499.485	17469.17
499.689	17706.74
499.892	17911.53
500.095	17874.67
500.298	18419.43
500.501	17952.49
500.705	18796.26
500.908	18691.81
501.111	18835.17
501.314	19042.01
501.517	18976.48
501.72	19455.7
501.923	19511
502.126	20238.03
502.329	20225.74
502.532	20416.2
502.735	20289.23
502.938	20680.39
503.141	20842.18
503.344	21190.33
503.547	21278.4
503.75	21624.5
503.953	21624.5
504.156	22150.83
504.359	22005.42
504.562	22187.69
504.765	22564.52
504.968	23117.47
505.17	23148.19
505.373	23078.56
505.576	23821.97
505.779	24123.02
505.982	23877.27
506.185	24442.51
506.387	24510.09
506.59	24733.32
506.793	25130.62
506.996	25077.38
507.198	25902.71
507.401	25376.38
507.604	25921.14
507.807	26613.35
508.009	26498.67
508.212	26625.64
508.415	27283.04
508.617	27280.99
508.82	27213.41
509.022	27549.28
509.225	28036.69
509.428	28413.52
509.63	28323.41
509.833	28589.64
510.035	29328.96
510.238	29064.77
510.44	29546.05
510.643	30266.93
510.845	30424.62
511.048	30326.32
511.25	30682.67
511.453	30398
511.655	31647.26
511.858	31594.01
512.06	31489.57
512.262	32054.81
512.465	31880.73
512.667	32572.94
512.87	32880.14
513.072	32800.27
513.274	33842.68
513.477	33932.79
513.679	34039.29
513.881	34180.6
514.084	34850.28
514.286	34665.97
514.488	34932.2
514.69	35585.5
514.893	35917.28
515.095	36320.73
515.297	36550.1
515.499	36756.94
515.701	36730.32
515.904	37246.41
516.106	37406.15
516.308	37936.57
516.51	38196.67
516.712	38090.17
516.914	38917.55
517.116	39183.79
517.318	39120.3
517.52	39318.95
517.722	39765.41
517.925	40232.35
518.127	40656.28
518.329	40689.04
518.531	40426.9
518.733	41338.25
518.935	41850.24
519.136	41782.66
519.338	42052.99
519.54	42149.24
519.742	42747.25
519.944	42427.77
520.146	43494.76
520.348	43548.01
520.55	43746.66
520.752	43750.76
520.954	44719.45
521.155	44148.06
521.357	44893.52
521.559	45331.79
521.761	45831.49
521.963	45141.33
522.164	45634.89
522.366	45555.02
522.568	46093.63
522.77	46560.57
522.971	46523.71
523.173	46720.31
523.375	46978.36
523.576	46529.85
523.778	47138.1
523.98	47840.55
524.181	47680.81
524.383	47752.49
524.584	48244
524.786	48389.41
524.988	48039.2
525.189	48205.09
525.391	48450.84
525.592	48598.3
525.794	48471.32
525.995	48479.52
526.197	48815.38
526.398	49042.71
526.6	49016.08
526.801	49063.19
527.003	49300.75
527.204	49478.93
527.406	49648.91
527.607	49620.23
527.808	49855.75
528.01	48983.32
528.211	49882.37
528.412	50664.7
528.614	50134.28
528.815	49550.6
529.016	50208
529.218	49683.72
529.419	49949.96
529.62	50136.32
529.822	49798.41
530.023	50029.83
530.224	49921.29
530.425	49755.4
530.626	49206.55
530.828	49448.21
531.029	50128.13
531.23	49808.65
531.431	49579.28
531.632	50052.36
531.833	50304.26
532.035	49661.19
532.236	49626.38
532.437	49802.5
532.638	49390.86
532.839	49304.85
533.04	49868.04
533.241	49724.68
533.442	50136.32
533.643	49585.42
533.844	49399.05
534.045	49546.51
534.246	49341.71
534.447	49882.37
534.648	49564.94
534.849	49822.98
535.05	49075.48
535.251	49222.93
535.451	48964.88
535.652	48985.36
535.853	48973.08
536.054	49196.31
536.255	49026.32
536.456	48420.13
536.657	49730.83
536.857	49165.59
537.058	48301.34
537.259	48997.65
537.46	49040.66
537.66	48684.31
537.861	48979.22
538.062	48784.66
538.263	48950.55
538.463	48755.99
538.664	48467.23
538.865	48590.11
539.065	48932.12
539.266	48612.63
539.466	48872.73
539.667	47867.17
539.868	48952.6
540.068	48454.94
540.269	47961.38
540.469	48481.56
540.67	48028.96
540.87	48047.39
541.071	48047.39
541.271	48485.66
541.472	48330.01
541.672	47662.38
541.873	47590.7
542.073	47588.65
542.274	48063.78
542.474	48162.08
542.675	47547.69
542.875	48112.93
543.075	47439.15
543.276	47023.41
543.476	48155.94
543.676	47703.34
543.877	48241.95
544.077	48350.49
544.277	47670.57
544.478	47938.85
544.678	47961.38
544.878	47531.31
545.078	48151.84
545.279	47514.92
545.479	47529.26
545.679	47889.7
545.879	47621.42
546.079	47611.18
546.28	47818.02
546.48	47324.46
546.68	47602.99
546.88	47275.31
547.08	47985.96
547.28	47629.61
547.48	46796.09
547.68	47281.45
547.88	47555.88
548.081	47682.86
548.281	47498.54
548.481	47643.94
548.681	47473.96
548.881	47768.87
549.081	47353.13
549.28	47490.35
549.48	47727.91
549.68	47340.85
549.88	48041.25
550.08	47328.56
550.28	47605.03
550.48	47611.18
550.68	47854.89
550.88	47635.75
551.08	47099.19
551.279	47889.7
551.479	47330.61
551.679	47553.83
551.879	47367.47
552.079	47897.89
552.278	47588.65
552.478	47496.49
552.678	47512.88
552.878	48002.34
553.077	47684.9
553.277	47299.89
553.477	48014.63
553.676	47564.07
553.876	47299.89
554.076	47277.36
554.275	47596.84
554.475	46953.78
554.674	47912.23
554.874	47947.04
555.074	47430.96
555.273	47867.17
555.473	48127.27
555.672	47555.88
555.872	48016.68
556.071	47633.71
556.271	47813.93
556.47	48084.26
556.67	47322.41
556.869	47768.87
557.068	47811.88
557.268	47437.1
557.467	47830.31
557.667	47629.61
557.866	47854.89
558.065	47885.61
558.265	47725.86
558.464	47590.7
558.663	48278.82
558.863	47613.23
559.062	48530.72
559.261	47009.07
559.461	48297.25
559.66	47613.23
559.859	47686.95
560.058	47584.55
560.258	47699.24
560.457	47514.92
560.656	48268.58
560.855	47414.57
561.054	47170.86
561.253	47353.13
561.453	47279.41
561.652	47703.34
561.851	47973.67
562.05	47459.63
562.249	46798.13
562.448	48028.96
562.647	47938.85
562.846	48061.73
563.045	47643.94
563.244	47144.24
563.443	47547.69
563.642	46601.53
563.841	46900.53
564.04	46908.72
564.239	47506.73
564.438	47035.7
564.637	47111.47
564.836	47009.07
565.035	47111.47
565.234	47158.58
565.432	46898.48
565.631	46802.23
565.83	46777.65
566.029	46624.06
566.228	46746.93
566.427	46126.4
566.625	46042.43
566.824	46531.9
567.023	46437.69
567.222	45731.14
567.42	46490.94
567.619	45841.73
567.818	46153.02
568.016	46071.11
568.215	46802.23
568.414	46097.73
568.612	46359.87
568.811	45651.27
569.01	46275.9
569.208	45770.05
569.407	45821.25
569.605	45794.63
569.804	46075.2
570.002	44938.58
570.201	45428.04
570.4	45229.39
570.598	45104.46
570.797	45178.19
570.995	45143.38
571.193	44756.31
571.392	45126.99
571.59	44617.05
571.789	44717.4
571.987	44696.92
572.186	44744.02
572.384	44287.32
572.582	44522.84
572.781	44717.4
572.979	43804
573.177	44402.01
573.376	44365.15
573.574	43773.28
573.772	44178.78
573.971	43769.19
574.169	43490.66
574.367	43369.83
574.565	43666.79
574.763	43519.34
574.962	43197.8
575.16	42777.97
575.358	43070.83
575.556	42837.36
575.754	43367.79
575.952	42507.64
576.151	43240.81
576.349	42405.24
576.547	42646.9
576.745	42446.2
576.943	42564.98
577.141	42196.35
577.339	42462.58
577.537	41887.1
577.735	42077.57
577.933	41385.35
578.131	41893.25
578.329	41164.17
578.527	41516.42
578.725	41346.44
578.923	41391.5
579.121	41454.98
579.319	41016.72
579.516	41330.06
579.714	41145.74
579.912	40947.09
580.11	40437.14
580.308	40574.36
580.506	40734.1
580.704	39972.25
580.901	40469.91
581.099	40394.14
581.297	39992.73
581.495	39925.15
581.692	40486.29
581.89	39673.25
582.088	39994.78
582.285	39646.63
582.483	39581.09
582.681	39820.7
582.878	39388.58
583.076	38809.01
583.274	39421.35
583.471	39155.11
583.669	39101.87
583.866	38677.94
584.064	39462.31
584.262	38286.78
584.459	39026.09
584.657	38389.17
584.854	38776.24
585.052	38294.97
585.249	38067.64
585.447	38544.82
585.644	38180.28
585.841	38481.33
586.039	38364.6
586.236	37785.02
586.434	37651.91
586.631	37459.4
586.828	37901.76
587.026	37731.78
587.223	37549.51
587.42	37164.49
587.618	37400.01
587.815	37039.56
588.012	36945.36
588.21	37121.48
588.407	37412.29
588.604	36632.02
588.801	36926.92
588.999	37154.25
589.196	36758.99
589.393	36443.6
589.59	36556.24
589.787	36515.28
589.984	36355.54
590.182	36019.67
590.379	36283.86
590.576	36009.43
590.773	35870.17
590.97	36279.77
591.167	36232.66
591.364	35501.54
591.561	35995.1
591.758	35483.11
591.955	35560.93
592.152	35769.82
592.349	35511.78
592.546	35612.13
592.743	35927.52
592.94	34983.4
593.137	35382.76
593.334	35309.03
593.531	34541.04
593.727	35241.45
593.924	35225.06
594.121	35091.94
594.318	34946.54
594.515	34385.4
594.712	34954.73
594.908	34606.58
595.105	34723.31
595.302	34561.52
595.499	34817.52
595.696	34518.51
595.892	34307.57
596.089	34559.47
596.286	34153.97
596.482	34704.88
596.679	34186.74
596.876	34598.38
597.072	33992.19
597.269	34106.87
597.466	34041.34
597.662	34027
597.859	33689.09
598.055	34006.52
598.252	33988.09
598.448	33893.88
598.645	33859.07
598.841	33332.74
599.038	33674.75
599.234	33947.13
599.431	33607.17
599.627	33670.65
599.824	33652.22
600.02	33099.27
600.217	33363.46
600.413	33226.25
600.609	33678.85
600.806	33164.81
601.002	33660.41
601.198	33412.61
601.395	33213.96
601.591	33291.78
601.787	33197.57
601.984	32996.87
602.18	33140.23
602.376	33058.31
602.572	33316.36
602.769	33154.57
602.965	32966.15
603.161	33093.13
603.357	33099.27
603.553	32988.68
603.75	33013.26
603.946	32706.06
604.142	32742.92
604.338	32540.18
604.534	32841.23
604.73	32572.94
604.926	32716.3
605.122	33111.56
605.318	32890.38
605.514	32634.38
605.71	32609.81
605.906	32720.4
606.102	32888.33
606.298	32937.48
606.494	32857.61
606.69	33154.57
606.886	32771.6
607.082	32538.13
607.278	33033.74
607.474	32474.64
607.67	32830.99
607.866	32495.12
608.062	33173
608.257	32581.13
608.453	32704.01
608.649	33121.8
608.845	32673.29
609.041	32665.1
609.236	32634.38
609.432	32923.15
609.628	32663.05
609.824	32851.47
610.019	32898.57
610.215	32779.79
610.411	33037.83
610.606	32652.81
610.802	32878.09
610.998	32902.67
611.193	32976.39
611.389	32536.08
611.584	32855.56
611.78	32804.36
611.976	32753.16
612.171	32595.47
612.367	32695.82
612.562	32441.87
612.758	32562.7
612.953	32484.88
613.149	33185.29
613.344	32394.77
613.539	32900.62
613.735	32769.55
613.93	33003.02
614.126	32417.3
614.321	33068.55
614.517	32974.34
614.712	32775.69
614.907	32667.15
615.103	32898.57
615.298	32552.46
615.493	33027.59
615.688	32097.81
615.884	32812.56
616.079	32613.9
616.274	32656.91
616.47	32644.62
616.665	32378.39
616.86	32275.99
617.055	32605.71
617.25	32153.11
617.445	32548.37
617.641	32099.86
617.836	32349.71
618.031	32019.99
618.226	32466.45
618.421	31776.28
618.616	32556.56
618.811	31940.12
619.006	32198.16
619.201	31309.35
619.396	31802.91
619.591	31542.81
619.786	31747.61
619.981	31198.76
620.176	31827.48
620.371	31161.89
620.566	31346.21
620.761	30973.48
620.956	31127.08
621.151	30651.95
621.346	30891.56
621.541	30441.01
621.735	30795.31
621.93	30637.61
622.125	30092.85
622.32	29955.64
622.515	30060.09
622.709	29830.71
622.904	30045.75
623.099	29638.2
623.294	29400.64
623.488	29269.57
623.683	29562.43
623.878	29247.04
624.072	29265.47
624.267	28894.79
624.462	29161.03
624.656	28427.85
624.851	28526.16
625.046	28360.27
625.24	28350.03
625.435	27917.91
625.629	28063.32
625.824	28071.51
626.018	27901.53
626.213	27086.43
626.407	27729.5
626.602	27362.91
626.796	27233.89
626.991	27033.19
627.185	26828.39
627.38	27061.86
627.574	26539.63
627.768	26558.06
627.963	26310.25
628.157	26170.99
628.352	26486.38
628.546	25708.15
628.74	25904.76
628.935	25581.18
629.129	25736.82
629.323	25271.93
629.517	25321.09
629.712	25132.67
629.906	25290.37
630.1	24833.67
630.294	25087.62
630.489	24632.97
630.683	24911.49
630.877	24235.66
631.071	24004.24
631.265	24317.58
631.459	24223.37
631.653	24276.62
631.848	23955.09
632.042	23674.52
632.236	23789.2
632.43	23832.21
632.624	23703.19
632.818	23418.52
633.012	23252.64
633.206	23297.69
633.4	23043.74
633.594	22853.28
633.788	22922.91
633.982	22697.64
634.176	22449.83
634.369	22675.11
634.563	22550.18
634.757	22433.45
634.951	22052.53
635.145	22027.95
635.339	22136.49
635.533	21827.25
635.726	21849.78
635.92	21329.59
636.114	21636.79
636.308	21413.56
636.501	21378.75
636.695	21214.91
636.889	20985.54
637.083	20889.28
637.276	21030.59
637.47	20772.55
637.664	20604.61
637.857	20543.17
638.051	20350.67
638.244	20154.06
638.438	20405.96
638.632	20205.26
638.825	19908.3
639.019	19943.12
639.212	19695.32
639.406	19756.75
639.599	19330.78
639.793	19402.46
639.986	19406.55
640.18	19322.59
640.373	19103.45
640.567	19140.32
640.76	19035.87
640.954	18435.81
641.147	18530.02
641.34	18661.09
641.534	18362.09
641.727	18519.78
641.92	18429.67
642.114	18181.87
642.307	18165.48
642.5	17891.05
642.694	17762.03
642.887	17671.92
643.08	17798.9
643.273	17686.26
643.467	17512.18
643.66	17352.44
643.853	17211.13
644.046	17018.62
644.239	17106.68
644.432	16791.3
644.626	16967.42
644.819	16725.76
645.012	16885.5
645.205	16903.93
645.398	16817.92
645.591	16473.86
645.784	16357.13
645.977	16467.72
646.17	16119.56
646.363	16117.51
646.556	15863.57
646.749	15847.18
646.942	15853.33
647.135	15648.53
647.328	15750.93
647.521	15619.86
647.714	15206.17
647.907	15324.95
648.099	15406.87
648.292	15433.49
648.485	15206.17
648.678	14898.97
648.871	15085.34
649.064	14708.51
649.256	14847.77
649.449	14499.62
649.642	14511.91
649.835	14343.97
650.027	14327.59
650.22	14544.67
650.413	14055.21
650.605	14327.59
650.798	13991.72
650.991	13973.29
651.183	14155.56
651.376	13803.31
651.568	13844.27
651.761	13641.52
651.954	13588.27
652.146	13535.03
652.339	13502.26
652.531	13670.19
652.724	13338.42
652.916	13276.98
653.109	13168.44
653.301	13082.42
653.494	13102.9
653.686	12963.64
653.879	13088.57
654.071	12924.73
654.263	12851
654.456	12826.43
654.648	12779.33
654.84	12597.06
655.033	12638.02
655.225	12416.83
655.417	12494.66
655.61	12388.16
655.802	12562.24
655.994	12201.8
656.186	12365.64
656.379	12136.26
656.571	12054.34
656.763	11923.27
656.955	11902.79
657.148	12037.96
657.34	11845.45
657.532	11718.48
657.724	11919.18
657.916	11714.38
658.108	11599.69
658.3	11415.38
658.492	11415.38
658.684	11216.72
658.876	11233.11
659.068	11181.91
659.26	11194.2
659.452	11046.74
659.644	10993.5
659.836	10813.27
660.028	10878.81
660.22	10712.92
660.412	10907.48
660.604	10669.92
660.796	10645.34
660.988	10508.13
661.18	10530.66
661.372	10508.13
661.563	10379.11
661.755	10264.42
661.947	10456.93
662.139	10274.66
662.331	10375.01
662.522	9996.14
662.714	9918.31
662.906	10045.29
663.097	9953.13
663.289	9895.78
663.481	9752.43
663.673	9840.49
663.864	9871.21
664.056	9613.17
664.247	9662.32
664.439	9471.86
664.631	9570.16
664.822	9504.62
665.014	9533.29
665.205	9533.29
665.397	9191.28
665.588	9254.77
665.78	9236.34
665.971	9047.93
666.163	9099.13
666.354	9207.67
666.546	8966.01
666.737	8972.15
666.929	8941.43
667.12	9047.93
667.311	8800.12
667.503	8816.51
667.694	8777.59
667.885	8757.11
668.077	8767.35
668.268	8687.48
668.459	8566.65
668.651	8544.13
668.842	8589.18
669.033	8523.65
669.224	8241.03
669.416	8359.81
669.607	8531.84
669.798	8400.77
669.989	8386.43
670.18	8161.16
670.371	8210.31
670.563	8044.42
670.754	8279.94
670.945	8122.24
671.136	8159.11
671.327	7935.88
671.518	8034.18
671.709	7958.41
671.9	8023.94
672.091	7923.59
672.282	7966.6
672.473	7679.88
672.664	7757.71
672.855	7581.58
673.046	7753.61
673.237	7763.85
673.428	7767.95
673.619	7622.54
673.809	7526.29
674	7493.52
674.191	7604.11
674.382	7413.65
674.573	7559.05
674.764	7421.84
674.954	7339.92
675.145	7509.9
675.336	7278.48
675.527	7288.72
675.717	7530.38
675.908	7237.52
676.099	7249.81
676.289	7167.89
676.48	7321.49
676.671	7104.4
676.861	7278.48
677.052	7090.07
677.243	7169.94
677.433	7114.64
677.624	6975.38
677.814	6911.89
678.005	7026.58
678.195	7100.31
678.386	6883.22
678.576	6854.55
678.767	6764.44
678.957	6854.55
679.148	6911.89
679.338	6889.37
679.529	6924.18
679.719	6725.53
679.909	6858.65
680.1	6778.78
680.29	6815.64
680.481	6688.67
680.671	6619.03
680.861	6684.57
681.052	6746.01
681.242	6606.75
681.432	6838.17
681.622	6520.73
681.813	6502.3
682.003	6477.73
682.193	6524.83
682.383	6641.56
682.573	6541.21
682.764	6510.49
682.954	6494.11
683.144	6590.36
683.334	6625.18
683.524	6569.88
683.714	6565.79
683.904	6426.53
684.094	6412.19
684.284	6508.44
684.474	6430.62
684.664	6399.9
684.854	6246.3
685.044	6303.65
685.234	6328.22
685.424	6377.37
685.614	6260.64
685.804	6123.43
685.994	6256.54
686.184	6174.63
686.374	6188.96
686.564	6262.69
686.753	6115.23
686.943	6207.39
687.133	6135.71
687.323	6193.06
687.513	6295.46
687.702	5973.92
687.892	6127.52
688.082	5994.4
688.272	6045.6
688.461	5869.48
688.651	6066.08
688.841	6033.32
689.03	5994.4
689.22	5920.68
689.41	5707.69
689.599	5779.37
689.789	5715.88
689.979	5754.79
690.168	5894.05
690.358	5814.18
690.547	5873.57
690.737	5631.91
690.926	5650.35
691.116	5648.3
691.305	5754.79
691.495	5625.77
691.684	5566.38
691.874	5593
692.063	5652.39
692.252	5437.36
692.442	5539.76
692.631	5517.23
692.82	5509.04
693.01	5445.55
693.199	5451.69
693.388	5406.64
693.578	5398.45
693.767	5441.45
693.956	5386.16
694.146	5234.61
694.335	5439.4
694.524	5246.9
694.713	5230.51
694.902	5236.66
695.092	5312.43
695.281	5210.03
695.47	5248.94
695.659	5234.61
695.848	5214.13
696.037	5111.73
696.226	5291.95
696.415	5005.24
696.604	5087.15
696.793	5076.91
696.982	4970.42
697.171	5031.86
697.36	5046.19
697.549	5081.01
697.738	5140.4
697.927	4814.77
698.116	4927.41
698.305	4855.73
698.494	4886.45
698.683	4906.93
698.872	4892.6
699.061	4851.64
699.25	5044.15
699.438	4812.73
699.627	4888.5
699.816	4769.72
700.005	4786.1
700.193	4749.24
700.382	4964.28
700.571	4831.16
700.76	4708.28
700.948	4853.69
701.137	4673.46
701.326	4677.56
701.514	4771.77
701.703	4693.94
701.892	4644.79
702.08	4538.3
702.269	4700.09
702.457	4569.02
702.646	4552.63
702.834	4579.26
703.023	4577.21
703.212	4509.63
703.4	4583.35
703.589	4435.9
703.777	4505.53
703.965	4431.8
704.154	4540.35
704.342	4433.85
704.531	4360.13
704.719	4294.59
704.907	4349.89
705.096	4382.65
705.284	4460.48
705.472	4257.73
705.661	4304.83
705.849	4364.22
706.037	4255.68
706.226	4339.65
706.414	4218.82
706.602	4284.35
706.79	4243.39
706.979	4251.58
707.167	4106.18
707.355	4167.62
707.543	4235.2
707.731	4155.33
707.919	3987.4
708.107	4071.36
708.296	4190.14
708.484	4087.75
708.672	4241.34
708.86	4075.46
709.048	4079.55
709.236	3979.2
709.424	4112.32
709.612	3985.35
709.8	3948.48
709.988	4001.73
710.176	3923.91
710.364	3954.63
710.551	3905.48
710.739	3913.67
710.927	3923.91
711.115	3817.41
711.303	4061.12
711.491	3829.7
711.679	3911.62
711.866	3923.91
712.054	3796.93
712.242	3719.11
712.43	3858.37
712.617	3809.22
712.805	3782.6
712.993	3608.52
713.181	3731.4
713.368	3760.07
713.556	3846.09
713.744	3520.46
713.931	3702.73
714.119	3739.59
714.306	3637.19
714.494	3747.78
714.682	3655.62
714.869	3633.1
715.057	3561.42
715.244	3553.23
715.432	3559.37
715.619	3608.52
715.807	3647.43
715.994	3469.26
716.182	3444.68
716.369	3542.99
716.556	3612.62
716.744	3471.31
716.931	3420.11
717.119	3557.32
717.306	3393.48
717.493	3436.49
717.681	3299.28
717.868	3346.38
718.055	3456.97
718.242	3354.57
718.43	3420.11
718.617	3405.77
718.804	3258.32
718.991	3379.15
719.179	3391.44
719.366	3370.96
719.553	3456.97
719.74	3178.45
719.927	3256.27
720.114	3205.07
720.301	3284.94
720.488	3102.67
720.676	3280.85
720.863	3170.26
721.05	3358.67
721.237	3309.52
721.424	3276.75
721.611	3063.76
721.798	3061.71
721.985	3307.47
722.172	3090.38
722.358	3141.58
722.545	2969.55
722.732	3112.91
722.919	3125.2
723.106	2992.08
723.293	2957.27
723.48	3037.14
723.667	3067.86
723.853	3174.35
724.04	3028.95
724.227	3143.63
724.414	2881.49
724.6	3002.32
724.787	2963.41
724.974	2992.08
725.161	2912.21
725.347	2922.45
725.534	2961.36
725.72	2998.23
725.907	2840.53
726.094	3055.57
726.28	2754.52
726.467	2846.68
726.653	2889.68
726.84	2830.29
727.027	2899.92
727.213	2893.78
727.4	2815.96
727.586	2961.36
727.773	2809.81
727.959	2772.95
728.145	2863.06
728.332	2838.48
728.518	2750.42
728.705	2768.85
728.891	2682.84
729.077	2693.08
729.264	2756.57
729.45	2721.75
729.636	2822.1
729.823	2641.88
730.009	2668.5
730.195	2658.26
730.382	2727.89
730.568	2740.18
730.754	2639.83
730.94	2557.91
731.126	2629.59
731.313	2695.13
731.499	2570.2
731.685	2750.42
731.871	2650.07
732.057	2742.23
732.243	2641.88
732.429	2619.35
732.615	2600.92
732.801	2584.54
732.987	2693.08
733.173	2529.24
733.359	2625.5
733.545	2693.08
733.731	2398.17
733.917	2535.39
734.103	2625.5
734.289	2514.91
734.475	2453.47
734.661	2465.75
734.847	2437.08
735.033	2461.66
735.219	2363.36
735.404	2486.23
735.59	2588.63
735.776	2414.56
735.962	2494.43
736.148	2486.23
736.333	2387.93
736.519	2478.04
736.705	2461.66
736.89	2467.8
737.076	2420.7
737.262	2451.42
737.447	2312.16
737.633	2447.32
737.819	2398.17
738.004	2346.97
738.19	2471.9
738.375	2363.36
738.561	2457.56
738.747	2310.11
738.932	2365.4
739.118	2344.92
739.303	2301.92
739.489	2240.48
739.674	2154.46
739.859	2246.62
740.045	2285.53
740.23	2316.25
740.416	2133.98
740.601	2342.88
740.786	2174.94
740.972	2291.68
741.157	2125.79
741.342	2039.78
741.528	2146.27
741.713	2252.77
741.898	2080.74
742.084	2174.94
742.269	2142.18
742.454	2129.89
742.639	2086.88
742.824	2207.71
743.01	2062.3
743.195	2125.79
743.38	2031.59
743.565	2133.98
743.75	2011.11
743.935	2027.49
744.12	2111.46
744.305	1966.05
744.49	2068.45
744.675	1996.77
744.86	1976.29
745.045	2013.15
745.23	1880.04
745.415	1867.75
745.6	2015.2
745.785	1947.62
745.97	1880.04
746.155	1970.15
746.34	1970.15
746.525	1957.86
746.71	1902.56
746.895	1873.89
747.079	1961.95
747.264	1791.97
747.449	1908.71
747.634	1898.47
747.819	1867.75
748.003	1863.65
748.188	1849.32
748.373	1757.16
748.557	1759.21
748.742	1732.58
748.927	1814.5
749.111	1652.71
749.296	1658.85
749.481	1740.77
749.665	1726.44
749.85	1665
750.034	1585.13
750.219	1710.05
750.404	1619.94
750.588	1601.51
750.773	1593.32
750.957	1646.57
751.141	1538.02
751.326	1581.03
751.51	1609.7
751.695	1695.72
751.879	1525.74
752.064	1687.53
752.248	1566.7
752.432	1671.14
752.617	1611.75
752.801	1503.21
752.985	1499.11
753.17	1480.68
753.354	1478.63
753.538	1482.73
753.722	1452.01
753.907	1304.56
754.091	1325.04
754.275	1470.44
754.459	1300.46
754.643	1400.81
754.828	1357.8
755.012	1421.29
755.196	1417.19
755.38	1398.76
755.564	1331.18
755.748	1349.61
755.932	1454.06
756.116	1400.81
756.3	1372.14
756.484	1380.33
756.668	1363.95
756.852	1257.45
757.036	1253.36
757.22	1271.79
757.404	1249.26
757.588	1306.6
757.772	1228.78
757.956	1284.08
758.14	1292.27
758.323	1159.15
758.507	1253.36
758.691	1261.55
758.875	1251.31
759.059	1331.18
759.242	1249.26
759.426	1142.77
759.61	1163.25
759.794	1144.81
759.977	1212.4
760.161	1185.77
760.345	1126.38
760.528	1277.93
760.712	1247.21
760.895	1249.26
761.079	1157.1
761.263	1198.06
761.446	1153.01
761.63	1081.33
761.813	1161.2
761.997	1044.46
762.18	1118.19
762.364	1110
762.547	1054.7
762.731	1128.43
762.914	1093.62
763.098	1069.04
763.281	1034.22
763.464	995.31
763.648	1097.71
763.831	1060.85
764.015	1028.08
764.198	1038.32
764.381	997.36
764.564	1028.08
764.748	1103.86
764.931	1120.24
765.114	940.02
765.297	1140.72
765.481	962.55
765.664	983.03
765.847	950.26
766.03	1073.14
766.213	1019.89
766.397	1034.22
766.58	956.4
766.763	995.31
766.946	1023.98
767.129	1040.37
767.312	897.01
767.495	942.07
767.678	913.39
767.861	987.12
768.044	970.74
768.227	993.26
768.41	1021.94
768.593	956.4
768.776	897.01
768.959	1007.6
769.142	911.35
769.324	1042.42
769.507	858.1
769.69	1003.5
769.873	999.41
770.056	948.21
770.239	958.45
770.421	987.12
770.604	870.39
770.787	897.01
770.97	854
771.152	829.43
771.335	856.05
771.518	839.67
771.7	972.79
771.883	911.35
772.066	835.57
772.248	909.3
772.431	862.19
772.613	888.82
772.796	892.91
772.978	757.75
773.161	954.35
773.343	864.24
773.526	759.8
773.708	847.86
773.891	700.41
774.073	792.56
774.256	798.71
774.438	839.67
774.621	796.66
774.803	786.42
774.985	872.43
775.168	763.89
775.35	724.98
775.532	745.46
775.715	722.93
775.897	749.56
776.079	761.84
776.261	755.7
776.444	763.89
776.626	747.51
776.808	770.04
776.99	786.42
777.173	667.64
777.355	694.26
777.537	665.59
777.719	817.14
777.901	733.17
778.083	700.41
778.265	675.83
778.447	757.75
778.629	647.16
778.811	739.32
778.993	645.11
779.175	667.64
779.357	622.58
779.539	686.07
779.721	735.22
779.903	645.11
780.085	618.49
780.267	667.64
780.449	620.53
780.631	614.39
780.812	622.58
780.994	585.72
781.176	636.92
781.358	667.64
781.54	561.14
781.721	634.87
781.903	581.62
782.085	563.19
782.267	561.14
782.448	606.2
782.63	571.38
782.812	667.64
782.993	598.01
783.175	561.14
783.357	505.85
783.538	530.42
783.72	561.14
783.901	555
784.083	548.86
784.264	555
784.446	454.65
784.627	462.84
784.809	555
784.99	475.13
785.172	514.04
785.353	518.14
785.535	466.94
785.716	411.64
785.897	413.69
786.079	475.13
786.26	479.22
786.441	487.42
786.623	514.04
786.804	438.27
786.985	516.09
787.167	425.98
787.348	462.84
787.529	425.98
787.71	495.61
787.891	440.31
788.073	360.44
788.254	372.73
788.435	368.63
788.616	497.66
788.797	421.88
788.978	389.11
789.159	372.73
789.34	430.07
789.522	372.73
789.703	432.12
789.884	405.5
790.065	423.93
790.246	411.64
790.427	438.27
790.607	391.16
790.788	450.55
790.969	329.72
791.15	350.2
791.331	344.06
791.512	389.11
791.693	344.06
791.874	372.73
792.054	483.32
792.235	413.69
792.416	325.63
792.597	391.16
792.778	385.02
792.958	335.87
793.139	333.82
793.32	348.15
793.5	276.48
793.681	374.78
793.862	352.25
794.042	407.55
794.223	266.24
794.404	268.28
794.584	251.9
794.765	327.68
794.945	294.91
795.126	380.92
795.306	432.12
795.487	284.67
795.667	294.91
795.848	352.25
796.028	243.71
796.209	374.78
796.389	348.15
796.57	342.01
796.75	262.14
796.93	303.1
797.111	323.58
797.291	303.1
797.471	294.91
797.652	292.86
797.832	270.33
798.012	225.28
798.192	307.2
798.373	266.24
798.553	352.25
798.733	282.62
798.913	280.57
799.093	249.85
799.274	274.43
799.454	309.24
799.634	317.44
799.814	354.3
799.994	258.04
800.174	327.68
800.354	319.48
800.534	118.78
800.714	251.9
800.894	194.56
801.074	212.99
801.254	315.39
801.434	307.2
801.614	233.47
801.794	215.04
801.974	868.34
802.154	212.99
802.334	290.81
802.514	258.04
802.693	192.51
802.873	274.43
803.053	299
803.233	245.76
803.413	315.39
803.592	249.85
803.772	194.56
803.952	212.99
804.131	210.94
804.311	172.03
804.491	284.67
804.67	241.66
804.85	282.62
805.03	210.94
805.209	282.62
805.389	202.75
805.568	139.26
805.748	233.47
805.928	194.56
806.107	176.13
806.287	178.17
806.466	245.76
806.646	176.13
806.825	180.22
807.004	194.56
807.184	186.37
807.363	260.09
807.543	184.32
807.722	153.6
807.901	192.51
808.081	225.28
808.26	233.47
808.439	172.03
808.619	235.52
808.798	169.98
808.977	106.49
809.156	262.14
809.336	155.65
809.515	184.32
809.694	135.17
809.873	178.17
810.052	184.32
810.231	120.83
810.411	188.41
810.59	235.52
810.769	208.89
810.948	176.13
811.127	65.54
811.306	161.79
811.485	192.51
811.664	239.61
811.843	153.6
812.022	169.98
812.201	96.25
812.38	178.17
812.559	69.63
812.737	182.27
812.916	159.74
813.095	176.13
813.274	96.25
813.453	225.28
813.632	126.97
813.811	208.89
813.989	143.36
814.168	139.26
814.347	192.51
814.526	159.74
814.704	169.98
814.883	266.24
815.062	145.41
815.24	145.41
815.419	143.36
815.598	225.28
815.776	86.01
815.955	186.37
816.133	120.83
816.312	139.26
816.49	98.3
816.669	256
816.847	114.69
817.026	155.65
817.204	137.21
817.383	110.59
817.561	94.21
817.74	124.93
817.918	108.54
818.097	45.06
818.275	118.78
818.453	186.37
818.632	194.56
818.81	102.4
818.988	63.49
819.167	172.03
819.345	71.68
819.523	102.4
819.701	163.84
819.879	106.49
820.058	120.83
820.236	184.32
820.414	110.59
820.592	94.21
820.77	135.17
820.948	135.17
821.127	145.41
821.305	135.17
821.483	110.59
821.661	163.84
821.839	143.36
822.017	151.55
822.195	118.78
822.373	112.64
822.551	116.73
822.729	145.41
822.907	98.3
823.085	135.17
823.262	145.41
823.44	114.69
823.618	112.64
823.796	96.25
823.974	49.15
824.152	102.4
824.329	71.68
824.507	133.12
824.685	163.84
824.863	88.06
825.04	184.32
825.218	155.65
825.396	98.3
825.574	112.64
825.751	139.26
825.929	137.21
826.107	-8.19
826.284	167.93
826.462	102.4
826.639	100.35
826.817	69.63
826.994	167.93
827.172	36.86
827.349	143.36
827.527	86.01
827.704	79.87
827.882	129.02
828.059	71.68
828.237	188.41
828.414	94.21
828.591	49.15
828.769	114.69
828.946	126.97
829.124	114.69
829.301	106.49
829.478	161.79
829.655	55.3
829.833	88.06
830.01	47.1
830.187	137.21
830.364	122.88
830.542	143.36
830.719	116.73
830.896	120.83
831.073	77.82
831.25	137.21
831.427	55.3
831.604	153.6
831.782	61.44
831.959	94.21
832.136	61.44
832.313	135.17
832.49	147.45
832.667	81.92
832.844	86.01
833.021	151.55
833.198	77.82
833.374	126.97
833.551	102.4
833.728	73.73
833.905	145.41
834.082	102.4
834.259	63.49
834.436	147.45
834.612	45.06
834.789	104.45
834.966	55.3
835.143	143.36
835.319	81.92
835.496	129.02
835.673	81.92
835.85	94.21
836.026	94.21
836.203	34.82
836.38	57.34
836.556	65.54
836.733	63.49
836.909	163.84
837.086	24.58
837.262	79.87
837.439	118.78
837.616	73.73
837.792	149.5
837.968	90.11
838.145	32.77
838.321	53.25
838.498	81.92
838.674	120.83
838.851	79.87
839.027	4.1
839.203	32.77
839.38	63.49
839.556	8.19
839.732	90.11
839.909	26.62
840.085	118.78
840.261	28.67
840.437	88.06
840.614	20.48
840.79	73.73
840.966	135.17
841.142	-36.86
841.318	86.01
841.494	45.06
841.671	49.15
841.847	88.06
842.023	-8.19
842.199	81.92
842.375	24.58
842.551	-12.29
842.727	55.3
842.903	110.59
843.079	79.87
843.255	96.25
843.431	28.67
843.607	63.49
843.783	12.29
843.959	79.87
844.134	43.01
844.31	159.74
844.486	77.82
844.662	-10.24
844.838	102.4
845.013	79.87
845.189	63.49
845.365	36.86
845.541	73.73
845.716	36.86
845.892	34.82
846.068	30.72
846.244	75.77
846.419	-20.48
846.595	77.82
846.77	-14.34
846.946	71.68
847.122	4.1
847.297	12.29
847.473	14.34
847.648	-26.62
847.824	63.49
847.999	28.67
848.175	28.67
848.35	-4.1
848.526	102.4
848.701	98.3
848.876	40.96
849.052	98.3
849.227	-16.38
849.403	2.05
849.578	61.44
849.753	75.77
849.929	79.87
850.104	88.06
850.279	45.06
850.454	98.3
850.63	147.45
850.805	36.86
850.98	96.25
851.155	45.06
851.33	83.97
851.505	90.11
851.681	112.64
851.856	-28.67
852.031	45.06
852.206	61.44
852.381	20.48
852.556	-4.1
852.731	57.34
852.906	28.67
853.081	79.87
853.256	141.31
853.431	16.38
853.606	14.34
853.781	22.53
853.956	-12.29
854.131	71.68
854.305	-69.63
854.48	106.49
854.655	26.62
854.83	0
855.005	71.68
855.18	98.3
855.354	6.14
855.529	45.06
855.704	4.1
855.879	110.59
856.053	2.05
856.228	47.1
856.403	-12.29
856.577	43.01
856.752	57.34
856.926	49.15
857.101	20.48
857.276	20.48
857.45	36.86
857.625	22.53
857.799	71.68
857.974	77.82
858.148	-28.67
858.323	126.97
858.497	32.77
858.672	30.72
858.846	47.1
859.02	61.44
859.195	-51.2
859.369	32.77
859.543	45.06
859.718	53.25
859.892	45.06
860.066	135.17
860.241	-12.29
860.415	59.39
860.589	38.91
860.763	12.29
860.938	49.15
861.112	102.4
861.286	22.53
861.46	-43.01
861.634	-4.1
861.808	90.11
861.982	-14.34
862.157	28.67
862.331	112.64
862.505	-28.67
862.679	20.48
862.853	28.67
863.027	36.86
863.201	71.68
863.375	63.49
863.549	36.86
863.722	53.25
863.896	63.49
864.07	-81.92
864.244	65.54
864.418	-45.06
864.592	73.73
864.766	24.58
864.939	77.82
865.113	53.25
865.287	55.3
865.461	12.29
865.634	30.72
865.808	-24.58
865.982	30.72
866.156	-6.14
866.329	-32.77
866.503	-14.34
866.676	36.86
866.85	6.14
867.024	47.1
867.197	8.19
867.371	77.82
867.544	-8.19
867.718	-4.1
867.891	0
868.065	-86.01
868.238	94.21
868.412	26.62
868.585	-34.82
868.759	-10.24
868.932	-28.67
869.105	6.14
869.279	-2.05
869.452	8.19
869.625	45.06
869.799	-10.24
869.972	-16.38
870.145	120.83
870.319	32.77
870.492	0
870.665	45.06
870.838	20.48
871.011	-20.48
871.185	98.3
871.358	0
871.531	-2.05
871.704	-2.05
871.877	122.88
872.05	51.2
872.223	16.38
872.396	40.96
872.569	14.34
872.742	59.39
872.915	40.96
873.088	-20.48
873.261	-14.34
873.434	67.58
873.607	2.05
873.78	79.87
873.953	-38.91
874.126	61.44
874.299	-12.29
874.471	-24.58
874.644	-32.77
874.817	-12.29
874.99	-4.1
875.163	-49.15
875.335	-2.05
875.508	20.48
875.681	69.63
875.853	-28.67
876.026	-16.38
876.199	-28.67
876.371	24.58
876.544	-16.38
876.717	-8.19
876.889	20.48
877.062	6.14
877.234	-14.34
877.407	55.3
877.579	36.86
877.752	20.48
877.924	55.3
878.097	116.73
878.269	-18.43
878.442	49.15
878.614	100.35
878.786	10.24
878.959	12.29
879.131	77.82
879.303	-2.05
879.476	4.1
879.648	86.01
879.82	34.82
879.993	61.44
880.165	114.69
880.337	-12.29
880.509	-24.58
880.681	32.77
880.854	-10.24
881.026	-16.38
881.198	57.34
881.37	-6.14
881.542	4.1
881.714	38.91
881.886	-10.24
882.058	81.92
882.23	-32.77
882.402	10.24
882.574	61.44
882.746	61.44
882.918	47.1
883.09	36.86
883.262	73.73
883.434	-4.1
883.606	34.82
883.778	4.1
883.95	69.63
884.122	20.48
884.293	45.06
884.465	38.91
884.637	-2.05
884.809	53.25
884.98	94.21
885.152	45.06
885.324	0
885.496	-2.05
885.667	6.14
885.839	16.38
886.011	61.44
886.182	28.67
886.354	77.82
886.525	12.29
886.697	32.77
886.869	-4.1
887.04	-4.1
887.212	51.2
887.383	47.1
887.555	24.58
887.726	55.3
887.897	-10.24
888.069	-10.24
888.24	-26.62
888.412	16.38
888.583	4.1
888.754	36.86
888.926	28.67
889.097	-77.82
889.268	6.14
889.44	-26.62
889.611	-26.62
889.782	-4.1
889.953	-8.19
890.125	63.49
890.296	-34.82
890.467	20.48
890.638	-49.15
890.809	86.01
890.98	-10.24
891.151	10.24
891.323	110.59
891.494	47.1
891.665	8.19
891.836	-12.29
892.007	28.67
892.178	-2.05
892.349	10.24
892.52	14.34
892.691	36.86
892.862	-53.25
893.032	-20.48
893.203	16.38
893.374	53.25
893.545	30.72
893.716	45.06
893.887	14.34
894.057	14.34
894.228	38.91
894.399	12.29
894.57	49.15
894.74	-12.29
894.911	36.86
895.082	16.38
895.253	69.63
895.423	-16.38
895.594	28.67
895.764	28.67
895.935	20.48
896.106	-8.19
896.276	51.2
896.447	30.72
896.617	-16.38
896.788	55.3
896.958	47.1
897.129	-2.05
897.299	-26.62
897.47	90.11
897.64	8.19
897.81	24.58
897.981	45.06
898.151	12.29
898.322	79.87
898.492	36.86
898.662	88.06
898.832	-51.2
899.003	-36.86
899.173	61.44
899.343	-28.67
899.513	20.48
