Data from USB4F104151__104__14-30-53-117.txt Node

Date: Thu Mar 13 14:30:53 EDT 2025
User: louis
Spectrometer: USB4F10415
Trigger mode: 4
Integration Time (sec): 2.500000E-2
Scans to average: 1
Electric dark correction enabled: true
Nonlinearity correction enabled: false
Boxcar width: 0
XAxis mode: Wavelengths
Number of Pixels in Spectrum: 3648
>>>>>Begin Spectral Data<<<<<
178.204	-136.87
178.424	-136.87
178.644	-136.87
178.864	-147.11
179.084	-159.4
179.304	-30.38
179.524	-34.47
179.744	-75.43
179.964	61.78
180.184	12.63
180.404	51.54
180.624	-38.57
180.844	53.59
181.064	-32.43
181.283	26.96
181.503	-40.62
181.723	45.4
181.943	-114.34
182.163	47.44
182.383	-16.04
182.602	47.44
182.822	69.97
183.042	29.01
183.262	-20.14
183.482	94.55
183.701	0.34
183.921	-67.24
184.141	-20.14
184.361	18.77
184.58	-11.95
184.8	53.59
185.02	6.49
185.239	4.44
185.459	-13.99
185.679	61.78
185.898	-87.72
186.118	51.54
186.338	35.16
186.557	80.21
186.777	-48.81
186.997	4.44
187.216	-73.39
187.436	4.44
187.655	-3.75
187.875	29.01
188.095	18.77
188.314	-9.9
188.534	18.77
188.753	-28.33
188.973	-38.57
189.192	90.45
189.412	-11.95
189.631	8.53
189.851	72.02
190.07	84.31
190.29	2.39
190.509	-5.8
190.729	10.58
190.948	-26.28
191.168	115.03
191.387	65.88
191.607	6.49
191.826	86.36
192.045	16.73
192.265	-5.8
192.484	-44.71
192.704	-5.8
192.923	-3.75
193.142	94.55
193.362	57.68
193.581	72.02
193.8	6.49
194.02	-36.52
194.239	59.73
194.458	51.54
194.678	29.01
194.897	74.07
195.116	43.35
195.335	14.68
195.555	35.16
195.774	18.77
195.993	29.01
196.212	43.35
196.432	2.39
196.651	55.64
196.87	-28.33
197.089	123.22
197.308	51.54
197.528	67.92
197.747	-46.76
197.966	-28.33
198.185	80.21
198.404	-20.14
198.623	108.88
198.842	29.01
199.062	76.12
199.281	69.97
199.5	-52.91
199.719	100.69
199.938	-36.52
200.157	59.73
200.376	53.59
200.595	74.07
200.814	-20.14
201.033	-18.09
201.252	45.4
201.471	2.39
201.69	26.96
201.909	49.49
202.128	-13.99
202.347	-38.57
202.566	2.39
202.785	6.49
203.004	26.96
203.223	174.42
203.442	22.87
203.661	-30.38
203.879	35.16
204.098	31.06
204.317	-11.95
204.536	-38.57
204.755	55.64
204.974	72.02
205.193	-52.91
205.411	53.59
205.63	-5.8
205.849	-5.8
206.068	10.58
206.287	59.73
206.505	76.12
206.724	6.49
206.943	45.4
207.162	-20.14
207.381	78.16
207.599	10.58
207.818	2.39
208.037	29.01
208.255	45.4
208.474	-3.75
208.693	39.25
208.911	4.44
209.13	84.31
209.349	26.96
209.567	-42.67
209.786	39.25
210.005	45.4
210.223	84.31
210.442	-46.76
210.661	-3.75
210.879	53.59
211.098	2.39
211.316	18.77
211.535	31.06
211.753	-3.75
211.972	51.54
212.191	-48.81
212.409	-11.95
212.628	2.39
212.846	-22.19
213.065	29.01
213.283	6.49
213.502	63.83
213.72	0.34
213.938	26.96
214.157	-44.71
214.375	43.35
214.594	18.77
214.812	14.68
215.031	12.63
215.249	84.31
215.467	84.31
215.686	-38.57
215.904	-63.15
216.122	0.34
216.341	37.2
216.559	-34.47
216.778	-5.8
216.996	72.02
217.214	51.54
217.432	41.3
217.651	-24.23
217.869	76.12
218.087	-69.29
218.306	88.4
218.524	55.64
218.742	-13.99
218.96	51.54
219.179	18.77
219.397	41.3
219.615	63.83
219.833	59.73
220.051	-13.99
220.27	59.73
220.488	16.73
220.706	53.59
220.924	-5.8
221.142	2.39
221.36	-16.04
221.578	20.82
221.796	33.11
222.015	4.44
222.233	39.25
222.451	-5.8
222.669	45.4
222.887	24.92
223.105	29.01
223.323	31.06
223.541	-44.71
223.759	80.21
223.977	-48.81
224.195	84.31
224.413	29.01
224.631	-13.99
224.849	2.39
225.067	94.55
225.285	-1.71
225.503	26.96
225.721	-46.76
225.939	-13.99
226.157	-28.33
226.375	86.36
226.592	67.92
226.81	2.39
227.028	35.16
227.246	63.83
227.464	35.16
227.682	53.59
227.9	67.92
228.117	-11.95
228.335	10.58
228.553	39.25
228.771	12.63
228.989	-59.05
229.206	43.35
229.424	18.77
229.642	33.11
229.86	20.82
230.077	92.5
230.295	-18.09
230.513	67.92
230.731	63.83
230.948	-18.09
231.166	80.21
231.384	-34.47
231.601	59.73
231.819	43.35
232.037	41.3
232.254	-24.23
232.472	53.59
232.689	31.06
232.907	72.02
233.125	123.22
233.342	-30.38
233.56	-87.72
233.777	35.16
233.995	2.39
234.213	59.73
234.43	96.6
234.648	80.21
234.865	59.73
235.083	37.2
235.3	-1.71
235.518	94.55
235.735	26.96
235.953	59.73
236.17	-11.95
236.388	-69.29
236.605	14.68
236.822	143.7
237.04	14.68
237.257	65.88
237.475	-57
237.692	-1.71
237.909	8.53
238.127	10.58
238.344	8.53
238.562	82.26
238.779	4.44
238.996	-28.33
239.214	12.63
239.431	-13.99
239.648	26.96
239.865	29.01
240.083	43.35
240.3	-52.91
240.517	-36.52
240.735	41.3
240.952	29.01
241.169	43.35
241.386	39.25
241.603	74.07
241.821	45.4
242.038	63.83
242.255	59.73
242.472	-11.95
242.689	35.16
242.907	22.87
243.124	59.73
243.341	-11.95
243.558	-20.14
243.775	-11.95
243.992	-46.76
244.209	45.4
244.426	24.92
244.643	86.36
244.86	51.54
245.078	-24.23
245.295	20.82
245.512	4.44
245.729	6.49
245.946	84.31
246.163	-5.8
246.38	26.96
246.597	-22.19
246.814	78.16
247.031	-30.38
247.248	35.16
247.464	80.21
247.681	78.16
247.898	57.68
248.115	31.06
248.332	-28.33
248.549	69.97
248.766	117.08
248.983	67.92
249.2	2.39
249.417	76.12
249.633	-26.28
249.85	10.58
250.067	55.64
250.284	-20.14
250.501	-13.99
250.717	96.6
250.934	-63.15
251.151	55.64
251.368	69.97
251.585	45.4
251.801	-18.09
252.018	26.96
252.235	84.31
252.451	35.16
252.668	26.96
252.885	35.16
253.102	29.01
253.318	24.92
253.535	-1.71
253.752	-75.43
253.968	0.34
254.185	10.58
254.401	67.92
254.618	-5.8
254.835	-18.09
255.051	35.16
255.268	-16.04
255.484	8.53
255.701	29.01
255.917	-20.14
256.134	26.96
256.351	-42.67
256.567	43.35
256.784	-26.28
257	-28.33
257.217	35.16
257.433	-28.33
257.65	-36.52
257.866	14.68
258.082	-13.99
258.299	-38.57
258.515	4.44
258.732	37.2
258.948	-54.95
259.165	88.4
259.381	31.06
259.597	67.92
259.814	-36.52
260.03	63.83
260.246	10.58
260.463	84.31
260.679	39.25
260.895	20.82
261.112	-63.15
261.328	10.58
261.544	29.01
261.761	100.69
261.977	26.96
262.193	16.73
262.409	84.31
262.626	43.35
262.842	2.39
263.058	-46.76
263.274	10.58
263.49	168.27
263.707	20.82
263.923	51.54
264.139	18.77
264.355	2.39
264.571	76.12
264.787	69.97
265.004	84.31
265.22	20.82
265.436	10.58
265.652	4.44
265.868	37.2
266.084	-85.67
266.3	59.73
266.516	-7.85
266.732	10.58
266.948	74.07
267.164	-36.52
267.38	-48.81
267.596	61.78
267.812	125.27
268.028	55.64
268.244	4.44
268.46	14.68
268.676	-20.14
268.892	26.96
269.108	-26.28
269.324	29.01
269.54	-38.57
269.756	35.16
269.972	2.39
270.188	-22.19
270.403	-1.71
270.619	6.49
270.835	29.01
271.051	2.39
271.267	-30.38
271.483	-11.95
271.698	108.88
271.914	61.78
272.13	-20.14
272.346	49.49
272.562	90.45
272.777	108.88
272.993	45.4
273.209	-65.19
273.425	-5.8
273.64	-30.38
273.856	72.02
274.072	22.87
274.287	33.11
274.503	26.96
274.719	12.63
274.934	-30.38
275.15	-79.53
275.366	39.25
275.581	-57
275.797	-28.33
276.012	20.82
276.228	61.78
276.444	-16.04
276.659	67.92
276.875	22.87
277.09	-11.95
277.306	-5.8
277.521	22.87
277.737	78.16
277.952	78.16
278.168	31.06
278.383	67.92
278.599	59.73
278.814	72.02
279.03	29.01
279.245	92.5
279.461	-54.95
279.676	-30.38
279.892	-5.8
280.107	-54.95
280.322	39.25
280.538	69.97
280.753	-1.71
280.969	106.84
281.184	2.39
281.399	96.6
281.615	22.87
281.83	108.88
282.045	-5.8
282.26	24.92
282.476	6.49
282.691	31.06
282.906	24.92
283.122	0.34
283.337	51.54
283.552	-9.9
283.767	22.87
283.983	51.54
284.198	80.21
284.413	88.4
284.628	-36.52
284.843	2.39
285.058	78.16
285.274	-44.71
285.489	26.96
285.704	22.87
285.919	45.4
286.134	26.96
286.349	31.06
286.564	51.54
286.779	4.44
286.995	51.54
287.21	2.39
287.425	26.96
287.64	67.92
287.855	135.51
288.07	39.25
288.285	76.12
288.5	24.92
288.715	31.06
288.93	2.39
289.145	-13.99
289.36	-18.09
289.575	35.16
289.79	78.16
290.004	53.59
290.219	35.16
290.434	-20.14
290.649	-13.99
290.864	-54.95
291.079	51.54
291.294	39.25
291.509	-34.47
291.724	22.87
291.938	84.31
292.153	51.54
292.368	51.54
292.583	84.31
292.798	-38.57
293.012	57.68
293.227	43.35
293.442	65.88
293.657	-5.8
293.871	72.02
294.086	88.4
294.301	67.92
294.516	94.55
294.73	49.49
294.945	-1.71
295.16	-42.67
295.374	76.12
295.589	-22.19
295.804	6.49
296.018	-5.8
296.233	123.22
296.447	63.83
296.662	-50.86
296.877	37.2
297.091	26.96
297.306	65.88
297.52	43.35
297.735	29.01
297.949	80.21
298.164	43.35
298.378	29.01
298.593	-18.09
298.807	-11.95
299.022	94.55
299.236	108.88
299.451	22.87
299.665	-22.19
299.88	45.4
300.094	20.82
300.309	80.21
300.523	10.58
300.737	39.25
300.952	86.36
301.166	-16.04
301.381	6.49
301.595	76.12
301.809	-7.85
302.024	-22.19
302.238	59.73
302.452	59.73
302.667	45.4
302.881	-13.99
303.095	51.54
303.309	39.25
303.524	-20.14
303.738	102.74
303.952	49.49
304.166	90.45
304.381	-95.91
304.595	57.68
304.809	26.96
305.023	-3.75
305.237	39.25
305.452	84.31
305.666	35.16
305.88	104.79
306.094	67.92
306.308	31.06
306.522	45.4
306.736	-9.9
306.95	100.69
307.164	92.5
307.379	76.12
307.593	90.45
307.807	72.02
308.021	43.35
308.235	53.59
308.449	-26.28
308.663	51.54
308.877	84.31
309.091	72.02
309.305	63.83
309.519	-38.57
309.733	45.4
309.947	35.16
310.161	35.16
310.374	155.99
310.588	92.5
310.802	37.2
311.016	29.01
311.23	35.16
311.444	8.53
311.658	39.25
311.872	59.73
312.085	108.88
312.299	45.4
312.513	94.55
312.727	4.44
312.941	4.44
313.154	41.3
313.368	135.51
313.582	37.2
313.796	61.78
314.009	-3.75
314.223	33.11
314.437	20.82
314.651	39.25
314.864	55.64
315.078	-32.43
315.292	-13.99
315.505	76.12
315.719	45.4
315.933	39.25
316.146	76.12
316.36	-22.19
316.573	63.83
316.787	112.98
317.001	125.27
317.214	-1.71
317.428	20.82
317.641	4.44
317.855	29.01
318.068	55.64
318.282	18.77
318.495	72.02
318.709	65.88
318.922	-1.71
319.136	47.44
319.349	14.68
319.563	26.96
319.776	43.35
319.99	35.16
320.203	100.69
320.417	26.96
320.63	76.12
320.843	4.44
321.057	84.31
321.27	29.01
321.483	45.4
321.697	53.59
321.91	10.58
322.124	53.59
322.337	55.64
322.55	-48.81
322.763	-34.47
322.977	72.02
323.19	-7.85
323.403	61.78
323.617	22.87
323.83	10.58
324.043	53.59
324.256	84.31
324.469	-34.47
324.683	67.92
324.896	-30.38
325.109	-65.19
325.322	-30.38
325.535	110.93
325.748	90.45
325.962	-13.99
326.175	45.4
326.388	29.01
326.601	86.36
326.814	57.68
327.027	-30.38
327.24	53.59
327.453	-20.14
327.666	4.44
327.879	112.98
328.092	61.78
328.305	67.92
328.518	10.58
328.731	43.35
328.944	86.36
329.157	94.55
329.37	47.44
329.583	76.12
329.796	59.73
330.009	61.78
330.222	106.84
330.435	45.4
330.648	-18.09
330.861	20.82
331.073	53.59
331.286	67.92
331.499	-5.8
331.712	22.87
331.925	100.69
332.138	67.92
332.35	63.83
332.563	-1.71
332.776	67.92
332.989	41.3
333.202	18.77
333.414	18.77
333.627	47.44
333.84	69.97
334.053	35.16
334.265	-40.62
334.478	55.64
334.691	47.44
334.903	67.92
335.116	61.78
335.329	35.16
335.541	51.54
335.754	59.73
335.966	26.96
336.179	41.3
336.392	-38.57
336.604	18.77
336.817	67.92
337.029	51.54
337.242	35.16
337.454	39.25
337.667	72.02
337.88	65.88
338.092	67.92
338.305	-67.24
338.517	59.73
338.729	84.31
338.942	112.98
339.154	-26.28
339.367	-26.28
339.579	8.53
339.792	53.59
340.004	43.35
340.217	2.39
340.429	67.92
340.641	-59.05
340.854	22.87
341.066	41.3
341.278	51.54
341.491	86.36
341.703	-30.38
341.915	-3.75
342.128	76.12
342.34	57.68
342.552	-11.95
342.764	43.35
342.977	67.92
343.189	18.77
343.401	94.55
343.613	20.82
343.826	4.44
344.038	-18.09
344.25	67.92
344.462	43.35
344.674	125.27
344.886	43.35
345.099	-46.76
345.311	22.87
345.523	55.64
345.735	43.35
345.947	69.97
346.159	18.77
346.371	6.49
346.583	18.77
346.795	67.92
347.007	37.2
347.219	47.44
347.431	0.34
347.643	12.63
347.855	8.53
348.067	72.02
348.279	-46.76
348.491	59.73
348.703	108.88
348.915	39.25
349.127	37.2
349.339	61.78
349.551	45.4
349.763	76.12
349.975	72.02
350.187	76.12
350.399	117.08
350.61	51.54
350.822	-20.14
351.034	31.06
351.246	20.82
351.458	20.82
351.669	63.83
351.881	141.65
352.093	59.73
352.305	2.39
352.517	26.96
352.728	151.89
352.94	61.78
353.152	-9.9
353.363	18.77
353.575	96.6
353.787	86.36
353.999	61.78
354.21	117.08
354.422	133.46
354.633	-9.9
354.845	84.31
355.057	55.64
355.268	20.82
355.48	133.46
355.692	14.68
355.903	53.59
356.115	55.64
356.326	-48.81
356.538	59.73
356.749	18.77
356.961	14.68
357.172	37.2
357.384	0.34
357.595	166.23
357.807	98.64
358.018	18.77
358.23	33.11
358.441	72.02
358.653	78.16
358.864	6.49
359.075	20.82
359.287	24.92
359.498	115.03
359.709	135.51
359.921	8.53
360.132	-1.71
360.344	67.92
360.555	-38.57
360.766	102.74
360.977	6.49
361.189	127.32
361.4	10.58
361.611	84.31
361.823	82.26
362.034	53.59
362.245	59.73
362.456	67.92
362.667	4.44
362.879	160.08
363.09	90.45
363.301	51.54
363.512	67.92
363.723	117.08
363.935	55.64
364.146	24.92
364.357	53.59
364.568	-46.76
364.779	-24.23
364.99	59.73
365.201	39.25
365.412	67.92
365.623	-38.57
365.834	47.44
366.045	51.54
366.256	16.73
366.467	37.2
366.678	102.74
366.889	63.83
367.1	-5.8
367.311	121.17
367.522	43.35
367.733	35.16
367.944	57.68
368.155	6.49
368.366	35.16
368.577	59.73
368.788	49.49
368.999	39.25
369.209	10.58
369.42	143.7
369.631	98.64
369.842	92.5
370.053	-11.95
370.264	117.08
370.474	61.78
370.685	18.77
370.896	76.12
371.107	119.12
371.317	76.12
371.528	-44.71
371.739	39.25
371.95	43.35
372.16	12.63
372.371	53.59
372.582	20.82
372.792	-9.9
373.003	59.73
373.214	61.78
373.424	16.73
373.635	-50.86
373.846	108.88
374.056	76.12
374.267	-13.99
374.477	69.97
374.688	-3.75
374.898	10.58
375.109	92.5
375.319	2.39
375.53	84.31
375.74	47.44
375.951	94.55
376.161	35.16
376.372	72.02
376.582	29.01
376.793	14.68
377.003	72.02
377.214	18.77
377.424	45.4
377.635	35.16
377.845	37.2
378.055	125.27
378.266	24.92
378.476	14.68
378.686	55.64
378.897	45.4
379.107	-40.62
379.317	39.25
379.528	69.97
379.738	37.2
379.948	96.6
380.158	100.69
380.369	14.68
380.579	47.44
380.789	51.54
380.999	67.92
381.21	67.92
381.42	112.98
381.63	-9.9
381.84	6.49
382.05	57.68
382.261	33.11
382.471	51.54
382.681	22.87
382.891	112.98
383.101	55.64
383.311	45.4
383.521	100.69
383.731	205.14
383.941	96.6
384.151	59.73
384.361	-38.57
384.571	35.16
384.781	137.56
384.991	119.12
385.201	108.88
385.411	67.92
385.621	162.13
385.831	59.73
386.041	35.16
386.251	-9.9
386.461	100.69
386.671	-42.67
386.881	37.2
387.091	6.49
387.301	125.27
387.511	108.88
387.72	162.13
387.93	84.31
388.14	-54.95
388.35	43.35
388.56	78.16
388.769	117.08
388.979	108.88
389.189	-5.8
389.399	119.12
389.609	94.55
389.818	92.5
390.028	67.92
390.238	92.5
390.447	-3.75
390.657	74.07
390.867	82.26
391.076	22.87
391.286	2.39
391.496	100.69
391.705	82.26
391.915	96.6
392.125	76.12
392.334	43.35
392.544	110.93
392.753	61.78
392.963	67.92
393.172	18.77
393.382	35.16
393.591	215.38
393.801	53.59
394.01	121.17
394.22	141.65
394.429	61.78
394.639	6.49
394.848	135.51
395.058	143.7
395.267	104.79
395.477	108.88
395.686	59.73
395.895	125.27
396.105	176.47
396.314	86.36
396.524	119.12
396.733	112.98
396.942	149.84
397.152	80.21
397.361	108.88
397.57	117.08
397.78	166.23
397.989	43.35
398.198	242
398.407	102.74
398.617	92.5
398.826	76.12
399.035	178.51
399.244	51.54
399.453	145.75
399.663	61.78
399.872	141.65
400.081	137.56
400.29	149.84
400.499	102.74
400.708	133.46
400.917	100.69
401.127	127.32
401.336	135.51
401.545	186.71
401.754	201.04
401.963	133.46
402.172	153.94
402.381	92.5
402.59	153.94
402.799	162.13
403.008	153.94
403.217	158.03
403.426	149.84
403.635	174.42
403.844	184.66
404.053	92.5
404.262	170.32
404.471	268.63
404.68	160.08
404.888	129.36
405.097	162.13
405.306	141.65
405.515	250.19
405.724	160.08
405.933	285.01
406.142	192.85
406.35	211.28
406.559	289.1
406.768	219.47
406.977	225.62
407.185	272.72
407.394	282.96
407.603	239.95
407.812	321.87
408.02	364.88
408.229	252.24
408.438	340.3
408.646	356.69
408.855	362.83
409.064	289.1
409.272	340.3
409.481	432.46
409.69	297.3
409.898	389.46
410.107	467.28
410.315	407.89
410.524	436.56
410.733	461.13
410.941	424.27
411.15	469.33
411.358	448.85
411.567	575.82
411.775	545.1
411.984	594.25
412.192	596.3
412.401	575.82
412.609	692.55
412.818	579.92
413.026	727.37
413.234	706.89
413.443	764.23
413.651	643.4
413.86	680.27
414.068	887.11
414.276	784.71
414.485	870.73
414.693	952.65
414.901	895.3
415.11	1009.99
415.318	985.41
415.526	1036.61
415.734	1036.61
415.943	1081.67
416.151	1081.67
416.359	1126.72
416.567	1153.35
416.776	1225.03
416.984	1288.51
417.192	1417.54
417.4	1243.46
417.608	1323.33
417.817	1431.87
418.025	1526.08
418.233	1575.23
418.441	1526.08
418.649	1667.39
418.857	1749.31
419.065	1814.84
419.273	1732.92
419.481	1839.42
419.689	2025.78
419.897	2036.02
420.105	2076.98
420.313	2107.7
420.521	2193.72
420.729	2320.69
420.937	2289.97
421.145	2349.36
421.353	2459.95
421.561	2617.65
421.769	2664.75
421.977	2742.57
422.185	2869.55
422.393	2967.85
422.601	3168.55
422.809	3189.03
423.017	3295.52
423.224	3270.95
423.432	3457.31
423.64	3418.4
423.848	3866.91
424.056	3602.72
424.263	3844.38
424.471	3993.88
424.679	4090.13
424.887	4237.59
425.094	4235.54
425.302	4352.27
425.51	4583.7
425.718	4573.46
425.925	4737.29
426.133	4821.26
426.341	5187.85
426.548	5335.3
426.756	5404.93
426.964	5345.54
427.171	5847.29
427.379	5888.25
427.586	6064.38
427.794	6187.25
428.001	6469.87
428.209	6689.01
428.417	6785.26
428.624	7282.92
428.832	7170.28
429.039	7071.98
429.247	7074.03
429.454	7702.75
429.662	8286.42
429.869	7530.72
430.076	8294.61
430.284	8112.35
430.491	8290.52
430.699	8843.47
430.906	8661.2
431.114	9132.23
431.321	9210.06
431.528	9470.15
431.736	10086.59
431.943	10344.63
432.15	10260.66
432.358	10012.86
432.565	10860.72
432.772	10840.24
432.979	11401.38
433.187	11604.13
433.394	11548.84
433.601	12345.5
433.808	12415.13
434.016	12400.79
434.223	12871.82
434.43	13813.89
434.637	13494.41
434.844	14153.85
435.052	14344.31
435.259	14418.04
435.466	14657.65
435.673	14370.94
435.88	15233.13
436.087	15958.11
436.294	16115.81
436.501	15698.02
436.708	16025.7
436.915	16590.94
437.122	17309.77
437.329	17127.5
437.537	17944.64
437.743	17883.2
437.95	17907.78
438.157	18888.76
438.364	19447.85
438.571	19460.14
438.778	19376.17
438.985	21342.22
439.192	20523.04
439.399	21172.24
439.606	20715.55
439.813	21827.59
440.02	22943.74
440.227	22837.24
440.433	22470.65
440.64	23586.8
440.847	22986.74
441.054	23709.68
441.261	24649.69
441.467	24872.92
441.674	25339.86
441.881	26222.53
442.088	26001.35
442.294	25759.69
442.501	26775.48
442.708	27279.29
442.914	28491.68
443.121	29648.78
443.328	28321.7
443.534	30707.58
443.741	29790.09
443.948	29603.73
444.154	31625.07
444.361	31080.32
444.568	31410.04
444.774	31455.09
444.981	32018.28
445.187	32925.53
445.394	34056.01
445.6	33556.31
445.807	37240.61
446.013	35546.93
446.22	36058.93
446.426	37424.92
446.633	37549.85
446.839	38991.62
447.046	37336.86
447.252	39163.65
447.459	39536.38
447.665	39229.18
447.871	41111.27
448.078	42927.81
448.284	40531.69
448.491	41860.82
448.697	43345.6
448.903	44203.7
449.11	44308.15
449.316	43263.68
449.522	44539.57
449.728	45657.76
449.935	45887.13
450.141	45801.11
450.347	47101.57
450.553	45268.64
450.76	46077.59
450.966	47507.07
451.172	46802.57
451.378	48346.74
451.584	46947.98
451.791	48162.42
451.997	48486
452.203	48848.49
452.409	48572.02
452.615	48782.96
452.821	46724.75
453.027	46493.33
453.233	48664.17
453.44	46923.4
453.646	47677.05
453.852	47459.97
454.058	48344.69
454.264	46808.72
454.47	47672.96
454.676	46562.96
454.882	48332.4
455.088	43716.28
455.294	44834.47
455.5	45565.6
455.705	46169.75
455.911	43816.63
456.117	43306.69
456.323	42534.6
456.529	40691.43
456.735	42194.64
456.941	41279.2
457.147	40498.92
457.352	39309.05
457.558	38858.5
457.764	39173.89
457.97	37955.35
458.176	37084.96
458.381	37586.71
458.587	35436.34
458.793	35776.31
458.999	33883.98
459.204	36271.92
459.41	35266.36
459.616	32816.99
459.821	33097.56
460.027	32935.77
460.233	32087.92
460.438	30517.12
460.644	30764.93
460.85	29759.38
461.055	28979.1
461.261	29151.13
461.466	26879.93
461.672	25894.86
461.878	27856.81
462.083	26038.22
462.289	25538.51
462.494	25180.12
462.7	23971.82
462.905	23449.58
463.111	24231.91
463.316	24326.11
463.522	24111.08
463.727	23758.83
463.932	23830.51
464.138	23521.26
464.343	23484.4
464.549	22837.24
464.754	23783.4
464.959	23369.71
465.165	23091.19
465.37	22251.52
465.575	21262.35
465.781	22515.71
465.986	22624.25
466.191	21575.69
466.397	21370.9
466.602	20183.07
466.807	21112.85
467.012	20885.53
467.218	20776.98
467.423	20756.5
467.628	20770.84
467.833	21418
468.038	20897.81
468.244	20103.2
468.449	20607
468.654	20052
468.859	19965.99
469.064	20207.65
469.269	19275.82
469.474	19529.77
469.679	19767.34
469.885	18968.63
470.09	19374.13
470.295	19605.55
470.5	18667.58
470.705	19154.99
470.91	18421.82
471.115	18411.58
471.32	18507.83
471.525	18247.74
471.73	18081.86
471.935	17975.36
472.139	17383.5
472.344	17557.58
472.549	17201.23
472.754	17279.05
472.959	16883.8
473.164	16547.93
473.369	16336.99
473.574	16685.14
473.778	16554.07
473.983	16564.31
474.188	16423
474.393	15659.11
474.598	15693.93
474.802	15554.66
475.007	15915.11
475.212	15558.76
475.417	14889.07
475.621	14940.27
475.826	15177.84
476.031	14975.09
476.235	14571.64
476.44	14626.93
476.645	14377.08
476.849	14366.84
477.054	14196.86
477.259	14254.2
477.463	14252.16
477.668	13559.94
477.872	13793.41
478.077	13342.86
478.282	13256.84
478.486	13279.37
478.691	13095.05
478.895	13146.25
479.1	12996.75
479.304	12990.61
479.509	12554.39
479.713	12882.06
479.918	12406.94
480.122	12376.22
480.326	12589.21
480.531	12376.22
480.735	12372.12
480.94	12163.23
481.144	12775.57
481.348	12071.07
481.553	12157.08
481.757	11882.66
481.961	12140.7
482.166	12224.67
482.37	12050.59
482.574	11878.56
482.778	11935.9
482.983	12167.32
483.187	11962.53
483.391	12333.21
483.595	11841.7
483.8	12015.77
484.004	12109.98
484.208	11948.19
484.412	11999.39
484.616	11833.5
484.821	11847.84
485.025	11874.46
485.229	11917.47
485.433	11745.44
485.637	11847.84
485.841	11790.5
486.045	11911.33
486.249	11970.72
486.453	11847.84
486.657	11946.14
486.861	11940
487.065	11593.89
487.269	11692.19
487.473	11532.45
487.677	11894.94
487.881	11905.18
488.085	11882.66
488.289	11946.14
488.493	11962.53
488.697	11843.74
488.901	12013.73
489.105	11856.03
489.309	12077.21
489.512	11935.9
489.716	12026.01
489.92	11899.04
490.124	11913.38
490.328	12064.93
490.531	11894.94
490.735	11946.14
490.939	12101.79
491.143	12052.64
491.346	11831.46
491.55	12388.5
491.754	12288.15
491.958	12142.75
492.161	12347.54
492.365	12443.8
492.569	12210.33
492.772	12435.61
492.976	12339.35
493.18	12644.5
493.383	12656.79
493.587	12540.05
493.79	12855.44
493.994	12480.66
494.197	12677.27
494.401	12863.63
494.605	12925.07
494.808	13127.82
495.012	13043.85
495.215	13310.09
495.419	13107.34
495.622	13252.75
495.825	13371.53
496.029	13404.3
496.232	13664.39
496.436	13752.45
496.639	13971.58
496.843	13840.51
497.046	14305.4
497.249	14096.51
497.453	14262.4
497.656	14571.64
497.859	14483.58
498.063	14577.78
498.266	14860.4
498.469	14846.07
498.673	14866.55
498.876	15415.4
499.079	15333.48
499.282	15093.87
499.485	15908.96
499.689	16011.36
499.892	15976.55
500.095	16095.33
500.298	16566.36
500.501	16263.26
500.705	16525.4
500.908	17037.39
501.111	17018.96
501.314	17082.45
501.517	17385.55
501.72	17528.91
501.923	17311.82
502.126	17741.89
502.329	18008.13
502.532	18153.54
502.735	18391.1
502.938	18655.29
503.141	18634.81
503.344	18892.85
503.547	18987.06
503.75	19302.45
503.953	19388.46
504.156	19578.92
504.359	19863.59
504.562	19828.77
504.765	20424.73
504.968	20402.21
505.17	20885.53
505.373	20903.96
505.576	20977.69
505.779	21227.54
505.982	21479.44
506.185	21762.06
506.387	21946.37
506.59	22132.74
506.793	22257.67
506.996	22122.5
507.198	22882.3
507.401	22734.84
507.604	23056.37
507.807	23685.1
508.009	23582.7
508.212	24106.98
508.415	23953.38
508.617	24600.54
508.82	24586.21
509.022	24569.82
509.225	25143.25
509.428	25292.76
509.63	25542.61
509.833	25649.1
510.035	26189.77
510.238	26193.86
510.44	26132.42
510.643	26660.8
510.845	26847.16
511.048	26982.33
511.25	27371.44
511.453	27598.77
511.655	28737.44
511.858	27991.98
512.06	28391.33
512.262	28235.69
512.465	28467.11
512.667	29226.9
512.87	29169.56
513.072	29374.36
513.274	30019.47
513.477	30017.42
513.679	30543.75
513.881	30723.97
514.084	31104.89
514.286	31106.94
514.488	31817.58
514.69	32513.89
514.893	31872.88
515.095	32198.51
515.297	32446.31
515.499	32792.42
515.701	33335.13
515.904	33519.45
516.106	33757.01
516.308	33902.42
516.51	34221.9
516.712	34291.53
516.914	34561.86
517.116	35129.15
517.318	34942.78
517.52	35456.82
517.722	35663.67
517.925	36362.03
518.127	36609.83
518.329	36562.73
518.531	36478.76
518.733	37539.61
518.935	37156.64
519.136	37037.86
519.338	38088.46
519.54	37773.08
519.742	38254.35
519.944	38434.57
520.146	39155.46
520.348	39436.03
520.55	38940.42
520.752	39386.88
520.954	39712.5
521.155	39681.78
521.357	40337.13
521.559	40419.05
521.761	41096.93
521.963	40556.27
522.164	40961.76
522.366	41117.41
522.568	41778.9
522.77	41322.21
522.971	42233.55
523.173	42047.19
523.375	42016.47
523.576	42104.53
523.778	42163.92
523.98	42927.81
524.181	42706.63
524.383	42909.38
524.584	42979.01
524.786	43060.93
524.988	43189.95
525.189	43466.43
525.391	43935.41
525.592	43818.68
525.794	43712.19
525.995	43871.93
526.197	43732.67
526.398	44064.44
526.6	44451.5
526.801	44428.98
527.003	44146.36
527.204	44201.65
527.406	44807.85
527.607	44588.72
527.808	44963.5
528.01	44365.49
528.211	44490.41
528.412	45301.41
528.614	45057.7
528.815	44981.93
529.016	45090.47
529.218	44687.02
529.419	45258.4
529.62	45389.47
529.822	44781.23
530.023	44846.76
530.224	44883.62
530.425	45055.65
530.626	44424.88
530.828	44277.43
531.029	45026.98
531.23	44928.68
531.431	43830.97
531.632	44705.45
531.833	44848.81
532.035	44531.37
532.236	44652.2
532.437	44938.92
532.638	44332.72
532.839	44588.72
533.04	44502.7
533.241	44476.08
533.442	44789.42
533.643	44689.07
533.844	44768.94
534.045	44586.67
534.246	44482.22
534.447	44738.22
534.648	43935.41
534.849	44668.59
535.05	44129.97
535.251	44277.43
535.451	43835.06
535.652	44406.45
535.853	44005.05
536.054	44156.6
536.255	44218.03
536.456	43542.2
536.657	44449.46
536.857	43654.84
537.058	43718.33
537.259	43974.33
537.46	44056.25
537.66	43667.13
537.861	43591.36
538.062	43235.01
538.263	43239.11
538.463	43386.56
538.664	43325.12
538.865	43417.28
539.065	43570.88
539.266	42895.05
539.466	43384.51
539.667	43390.66
539.868	43810.49
540.068	43243.2
540.269	43245.25
540.469	43175.62
540.67	42749.64
540.87	42667.72
541.071	43003.59
541.271	43402.94
541.472	43003.59
541.672	42950.34
541.873	42917.57
542.073	42340.05
542.274	43372.22
542.474	42794.7
542.675	42737.35
542.875	43249.35
543.075	43134.66
543.276	42196.69
543.476	43048.64
543.676	42360.53
543.877	43056.84
544.077	42827.46
544.277	42518.22
544.478	42417.87
544.678	42821.32
544.878	43019.97
545.078	42637
545.279	42333.9
545.479	42483.41
545.679	42602.19
545.879	42460.88
546.079	42561.23
546.28	42319.57
546.48	42204.88
546.68	42520.27
546.88	42735.31
547.08	42260.18
547.28	42028.76
547.48	41983.7
547.68	42362.57
547.88	42303.18
548.081	42514.12
548.281	42161.87
548.481	42440.4
548.681	42630.86
548.881	42399.44
549.081	42491.6
549.28	42008.28
549.48	42577.61
549.68	42145.49
549.88	42811.08
550.08	42256.08
550.28	42950.34
550.48	42471.12
550.68	42716.87
550.88	42602.19
551.08	42532.56
551.279	42553.04
551.479	42489.55
551.679	42481.36
551.879	41926.36
552.079	42903.24
552.278	42335.95
552.478	42905.29
552.678	42628.81
552.878	42921.67
553.077	42426.06
553.277	42168.02
553.477	42688.2
553.676	42559.18
553.876	42634.95
554.076	42544.84
554.275	42536.65
554.475	42307.28
554.674	42444.49
554.874	42600.14
555.074	42811.08
555.273	42628.81
555.473	42872.52
555.672	42426.06
555.872	42284.75
556.071	42858.18
556.271	43083.46
556.47	42751.69
556.67	42319.57
556.869	42579.66
557.068	42778.31
557.268	42520.27
557.467	42720.97
557.667	42958.53
557.866	42831.56
558.065	42702.54
558.265	42780.36
558.464	42632.91
558.663	42972.87
558.863	42086.1
559.062	43153.09
559.261	42069.72
559.461	43022.02
559.66	42276.56
559.859	42301.14
560.058	41993.94
560.258	42735.31
560.457	42680.01
560.656	42829.51
560.855	42718.92
561.054	42661.58
561.253	42602.19
561.453	42553.04
561.652	42716.87
561.851	42606.28
562.05	42411.73
562.249	42348.24
562.448	42604.24
562.647	42591.95
562.846	42217.17
563.045	42239.7
563.244	42098.39
563.443	42548.94
563.642	42000.08
563.841	42200.79
564.04	41909.97
564.239	42950.34
564.438	42055.38
564.637	42053.33
564.836	42409.68
565.035	41572.06
565.234	42362.57
565.432	41748.18
565.631	41916.12
565.83	41684.7
566.029	41522.91
566.228	41803.48
566.427	41572.06
566.625	41430.75
566.824	40965.86
567.023	41877.21
567.222	41244.38
567.42	41680.6
567.619	41074.4
567.818	41670.36
568.016	40791.78
568.215	41676.51
568.414	40742.63
568.612	41514.72
568.811	40861.41
569.01	40883.94
569.208	40724.2
569.407	40986.34
569.605	40414.96
569.804	40875.75
570.002	40396.52
570.201	40431.34
570.4	40167.15
570.598	40306.41
570.797	40337.13
570.995	40376.05
571.193	39712.5
571.392	40828.65
571.59	39905.01
571.789	39511.8
571.987	39870.2
572.186	39620.34
572.384	39139.07
572.582	39417.6
572.781	39825.14
572.979	38860.55
573.177	38993.67
573.376	39679.74
573.574	39218.94
573.772	38958.85
573.971	38743.81
574.169	38690.57
574.367	38801.16
574.565	39010.05
574.763	38549.26
574.962	38534.92
575.16	38246.16
575.358	38147.86
575.556	37846.8
575.754	38346.51
575.952	38100.75
576.151	38086.42
576.349	37678.87
576.547	37375.77
576.745	37648.15
576.943	37609.24
577.141	37361.44
577.339	37723.93
577.537	37322.52
577.735	37398.3
577.933	36792.1
578.131	37027.62
578.329	36763.43
578.527	36327.21
578.725	36960.03
578.923	36691.75
579.121	36220.72
579.319	36765.48
579.516	36480.81
579.714	36441.9
579.912	36044.59
580.11	35858.23
580.308	36169.52
580.506	35886.9
580.704	35544.89
580.901	35829.55
581.099	35864.37
581.297	35419.96
581.495	35254.08
581.692	35585.85
581.89	35270.46
582.088	35462.97
582.285	35204.92
582.483	35135.29
582.681	35120.96
582.878	35186.49
583.076	34867.01
583.274	35106.62
583.471	34316.11
583.669	34664.26
583.866	34465.61
584.064	34658.12
584.262	34258.76
584.459	34549.57
584.657	34074.45
584.854	34621.25
585.052	33439.58
585.249	34078.54
585.447	33918.8
585.644	33705.81
585.841	33908.56
586.039	33890.13
586.236	33415
586.434	33490.77
586.631	33185.63
586.828	33285.98
587.026	33390.42
587.223	32997.21
587.42	33054.56
587.618	33189.72
587.815	32827.23
588.012	32925.53
588.21	32898.91
588.407	33357.66
588.604	32841.57
588.801	32517.99
588.999	32804.7
589.196	32542.56
589.393	32257.9
589.59	32434.02
589.787	32214.89
589.984	31852.4
590.182	31846.26
590.379	32241.51
590.576	32028.52
590.773	32124.78
590.97	31926.13
591.167	32038.76
591.364	31788.91
591.561	31868.78
591.758	31266.68
591.955	31496.05
592.152	31756.14
592.349	31379.32
592.546	31446.9
592.743	31240.06
592.94	30924.67
593.137	31485.81
593.334	31047.55
593.531	30721.92
593.727	31119.23
593.924	30916.48
594.121	30822.27
594.318	31049.6
594.515	30510.98
594.712	31172.47
594.908	30775.17
595.105	31004.54
595.302	30562.18
595.499	30799.74
595.696	30803.84
595.892	30494.6
596.089	30533.51
596.286	30439.3
596.482	30427.01
596.679	30125.96
596.876	30373.77
597.072	30236.55
597.269	30224.26
597.466	30183.3
597.662	30054.28
597.859	30336.9
598.055	30257.03
598.252	29792.14
598.448	30052.23
598.645	30232.46
598.841	29689.74
599.038	30113.67
599.234	30111.63
599.431	29794.19
599.627	29872.01
599.824	30117.77
600.02	29876.11
600.217	30140.3
600.413	29912.97
600.609	29601.68
600.806	29570.96
601.002	29826.96
601.198	29740.94
601.395	29769.62
601.591	29644.69
601.787	29788.05
601.984	29360.02
602.18	30234.5
602.376	29634.45
602.572	29640.59
602.769	29530
602.965	29894.54
603.161	30197.64
603.357	29683.6
603.553	29656.98
603.75	29763.47
603.946	29609.87
604.142	29960.08
604.338	29519.76
604.534	29925.26
604.73	29339.54
604.926	29538.19
605.122	29855.63
605.318	29544.34
605.514	29677.46
605.71	29568.91
605.906	29570.96
606.102	29779.85
606.298	29527.95
606.494	29779.85
606.69	29712.27
606.886	29966.22
607.082	29216.66
607.278	29867.92
607.474	29478.8
607.67	29675.41
607.866	29243.29
608.062	29851.53
608.257	29607.83
608.453	30025.61
608.649	30082.95
608.845	29816.72
609.041	29976.46
609.236	29702.03
609.432	30101.39
609.628	30291.85
609.824	29577.11
610.019	29910.92
610.215	29980.56
610.411	29958.03
610.606	30115.72
610.802	30185.35
610.998	30115.72
611.193	30130.06
611.389	29777.81
611.584	29925.26
611.78	29587.35
611.976	29939.6
612.171	30078.86
612.367	29806.48
612.562	29728.66
612.758	29632.4
612.953	29988.75
613.149	30455.68
613.344	29841.29
613.539	29937.55
613.735	30265.22
613.93	30289.8
614.126	29966.22
614.321	30437.25
614.517	30318.47
614.712	29816.72
614.907	29601.68
615.103	30461.83
615.298	30050.19
615.493	30254.98
615.688	29882.25
615.884	30341
616.079	30007.18
616.274	30318.47
616.47	29910.92
616.665	30154.63
616.86	29788.05
617.055	30248.84
617.25	30201.74
617.445	30371.72
617.641	29693.84
617.836	30138.25
618.031	29769.62
618.226	29927.31
618.421	29706.13
618.616	30259.08
618.811	29476.76
619.006	30007.18
619.201	29292.44
619.396	29534.1
619.591	28825.5
619.786	29720.46
619.981	29067.16
620.176	29280.15
620.371	29063.07
620.566	29255.57
620.761	28891.04
620.956	29050.78
621.151	28723.1
621.346	28944.28
621.541	28313.51
621.735	28719.01
621.93	28192.68
622.125	28659.62
622.32	27924.4
622.515	27928.49
622.709	27729.84
622.904	27758.51
623.099	27731.89
623.294	27887.53
623.488	27074.49
623.683	27445.17
623.878	27119.54
624.072	27176.89
624.267	26732.48
624.462	26822.59
624.656	26437.57
624.851	26914.75
625.046	26539.97
625.24	26306.5
625.435	26380.23
625.629	26347.46
625.824	25882.57
626.018	25987.02
626.213	25368.53
626.407	25851.85
626.602	25137.11
626.796	25618.38
626.991	25393.11
627.185	25352.15
627.38	25057.24
627.574	24795.1
627.768	24573.92
627.963	24795.1
628.157	24623.07
628.352	24367.07
628.546	24193
628.74	24616.93
628.935	23887.85
629.129	24414.18
629.323	23570.41
629.517	23902.18
629.712	23590.89
629.906	23783.4
630.1	23199.73
630.294	23504.88
630.489	23164.92
630.683	23136.24
630.877	22835.19
631.071	22904.82
631.265	23052.28
631.459	22874.1
631.653	22650.88
631.848	22581.24
632.042	22464.51
632.236	22411.26
632.43	22194.18
632.624	22261.76
632.818	22007.81
633.012	21608.46
633.206	21555.21
633.4	21667.85
633.594	21303.31
633.788	21549.07
633.982	21448.72
634.176	21346.32
634.369	21248.02
634.563	21035.03
634.757	20877.33
634.951	20740.12
635.145	20662.3
635.339	20525.08
635.533	20316.19
635.726	20520.99
635.92	20299.81
636.114	20150.31
636.308	20138.02
636.501	20092.96
636.695	19820.58
636.889	19566.63
637.083	19791.91
637.276	19525.68
637.47	19406.89
637.664	19335.21
637.857	19212.34
638.051	19243.06
638.244	19017.78
638.438	18704.44
638.632	18729.02
638.825	18368.57
639.019	18591.8
639.212	18397.24
639.406	18313.28
639.599	18200.64
639.793	17895.49
639.986	17930.31
640.18	18182.21
640.373	17643.59
640.567	17584.2
640.76	17659.98
640.954	17625.16
641.147	17492.04
641.34	17508.43
641.534	17174.61
641.727	17229.9
641.92	17045.59
642.114	16730.2
642.307	16623.7
642.5	16820.31
642.694	16484.44
642.887	16439.39
643.08	16390.24
643.273	16480.35
643.467	16502.87
643.66	15788.13
643.853	16111.71
644.046	15902.82
644.239	16173.15
644.432	15882.34
644.626	15577.19
644.819	15577.19
645.012	15542.38
645.205	15360.11
645.398	15464.55
645.591	15366.25
645.784	14964.85
645.977	15044.72
646.17	14893.17
646.363	14940.27
646.556	14839.92
646.749	14782.58
646.942	14817.4
647.135	14475.38
647.328	14686.33
647.521	14368.89
647.714	14340.22
647.907	14299.26
648.099	14006.4
648.292	14231.68
648.485	13936.77
648.678	13568.13
648.871	13756.55
649.064	13637.77
649.256	13920.38
649.449	13461.64
649.642	13441.16
649.835	13346.95
650.027	13330.57
650.22	13277.32
650.413	13371.53
650.605	13154.44
650.798	13050
650.991	12908.69
651.183	13179.02
651.376	12830.87
651.568	12843.15
651.761	12544.15
651.954	12667.03
652.146	12538.01
652.339	12548.25
652.531	12439.7
652.724	12202.14
652.916	12484.76
653.109	12183.71
653.301	12251.29
653.494	12290.2
653.686	11921.57
653.879	11983.01
654.071	12011.68
654.263	11577.51
654.456	11792.55
654.648	11727.01
654.84	11552.93
655.033	11530.41
655.225	11557.03
655.417	11481.25
655.61	11702.43
655.802	11352.23
655.994	11260.07
656.186	11372.71
656.379	11061.42
656.571	11208.87
656.763	11112.62
656.955	10930.35
657.148	10989.74
657.34	10930.35
657.532	10637.49
657.724	10750.13
657.916	10664.11
658.108	10715.31
658.3	10612.92
658.492	10412.21
658.684	10184.89
658.876	10293.43
659.068	10506.42
659.26	10211.51
659.452	10131.64
659.644	10201.27
659.836	10143.93
660.028	10145.98
660.22	9885.89
660.412	10000.57
660.604	9834.69
660.796	9832.64
660.988	9951.42
661.18	9619.65
661.372	9625.79
661.563	9629.89
661.755	9562.31
661.947	9480.39
662.139	9341.13
662.331	9324.74
662.522	9363.65
662.714	9062.6
662.906	9171.15
663.097	9083.08
663.289	9060.56
663.481	9240.78
663.673	8962.25
663.864	8911.05
664.056	8913.1
664.247	8866
664.439	8724.69
664.631	8868.05
664.822	8810.7
665.014	8790.22
665.205	8558.8
665.397	8399.06
665.588	8499.41
665.78	8378.58
665.971	8394.97
666.163	8644.82
666.354	8595.67
666.546	8386.77
666.737	8087.77
666.929	8347.86
667.12	8251.61
667.311	8278.23
667.503	7942.36
667.694	8032.47
667.885	8030.43
668.077	7878.88
668.268	7844.06
668.459	7958.75
668.651	7811.29
668.842	7727.33
669.033	7682.27
669.224	7753.95
669.416	7629.02
669.607	7588.07
669.798	7702.75
669.989	7776.48
670.18	7497.95
670.371	7495.91
670.563	7508.19
670.754	7479.52
670.945	7469.28
671.136	7442.66
671.327	7350.5
671.518	7411.94
671.709	7416.04
671.9	7477.48
672.091	7266.53
672.282	7487.72
672.473	7035.11
672.664	7198.95
672.855	7125.22
673.046	7114.98
673.237	7155.94
673.428	7233.77
673.619	7022.83
673.809	7022.83
674	6994.15
674.191	6861.04
674.382	7002.35
674.573	6867.18
674.764	6863.08
674.954	6842.6
675.145	6656.24
675.336	6918.38
675.527	6783.21
675.717	6783.21
675.908	6922.48
676.099	6889.71
676.289	6711.53
676.48	6623.47
676.671	6666.48
676.861	6781.17
677.052	6533.36
677.243	6476.02
677.433	6678.77
677.624	6602.99
677.814	6449.39
678.005	6504.69
678.195	6580.46
678.386	6473.97
678.576	6252.79
678.767	6394.1
678.957	6498.55
679.148	6451.44
679.338	6455.54
679.529	6484.21
679.719	6453.49
679.909	6185.21
680.1	6209.78
680.29	6465.78
680.481	6263.03
680.671	6181.11
680.861	6263.03
681.052	6158.58
681.242	6287.61
681.432	6410.48
681.622	6230.26
681.813	6250.74
682.003	6324.47
682.193	5992.7
682.383	6265.08
682.573	6226.17
682.764	6201.59
682.954	6029.56
683.144	6072.57
683.334	6191.35
683.524	6070.52
683.714	6164.73
683.904	5966.07
684.094	6101.24
684.284	6076.66
684.474	6043.9
684.664	6150.39
684.854	5820.67
685.044	5863.68
685.234	5798.14
685.424	6056.18
685.614	6019.32
685.804	5990.65
685.994	5939.45
686.184	5949.69
686.374	5855.48
686.564	5841.15
686.753	6015.23
686.943	5783.81
687.133	5859.58
687.323	5826.81
687.513	5826.81
687.702	5746.94
687.892	5800.19
688.082	5744.89
688.272	5957.88
688.461	5720.32
688.651	5722.37
688.841	5568.77
689.03	5718.27
689.22	5599.49
689.41	5585.15
689.599	5425.41
689.789	5622.02
689.979	5542.14
690.168	5542.14
690.358	5560.58
690.547	5402.88
690.737	5523.71
690.926	5486.85
691.116	5507.33
691.305	5683.45
691.495	5320.96
691.684	5118.22
691.874	5417.22
692.063	5441.79
692.252	5337.35
692.442	5318.92
692.631	5222.66
692.82	5406.98
693.01	5245.19
693.199	5173.51
693.388	5146.89
693.578	5419.27
693.767	5216.52
693.956	5234.95
694.146	5150.98
694.335	5259.53
694.524	5030.15
694.713	5257.48
694.902	5122.31
695.092	5253.38
695.281	5198.09
695.47	5275.91
695.659	5001.48
695.848	5097.74
696.037	4927.75
696.226	4917.51
696.415	5040.39
696.604	5087.5
696.793	5032.2
696.982	4978.95
697.171	5005.58
697.36	4993.29
697.549	4839.69
697.738	4682
697.927	4749.58
698.116	4970.76
698.305	4792.59
698.494	5003.53
698.683	4790.54
698.872	4802.83
699.061	4901.13
699.25	4829.45
699.438	4921.61
699.627	4612.37
699.816	4835.6
700.005	4761.87
700.193	4716.81
700.382	4819.21
700.571	4632.85
700.76	4722.96
700.948	4739.34
701.137	4741.39
701.326	4661.52
701.514	4585.74
701.703	4688.14
701.892	4583.7
702.08	4768.01
702.269	4682
702.457	4466.96
702.646	4475.15
702.834	4387.09
703.023	4401.43
703.212	4589.84
703.4	4532.5
703.589	4444.43
703.777	4552.98
703.965	4501.78
704.154	4403.47
704.342	4299.03
704.531	4409.62
704.719	4319.51
704.907	4493.58
705.096	4339.99
705.284	4223.25
705.472	4296.98
705.661	4339.99
705.849	4305.17
706.037	4378.9
706.226	4202.77
706.414	4278.55
706.602	4321.56
706.79	4237.59
706.979	4221.2
707.167	4223.25
707.355	4178.2
707.543	4237.59
707.731	4098.33
707.919	4229.4
708.107	4133.14
708.296	3993.88
708.484	4106.52
708.672	4143.38
708.86	4184.34
709.048	4114.71
709.236	4006.17
709.424	4118.81
709.612	4133.14
709.8	4016.41
709.988	3995.93
710.176	4040.98
710.364	3957.02
710.551	3959.06
710.739	3969.3
710.927	3967.26
711.115	3997.98
711.303	3993.88
711.491	3942.68
711.679	3973.4
711.866	3805.47
712.054	3950.87
712.242	3801.37
712.43	3879.19
712.617	3993.88
712.805	3692.83
712.993	3901.72
713.181	3791.13
713.368	3879.19
713.556	3770.65
713.744	3731.74
713.931	3813.66
714.119	3668.25
714.306	3684.64
714.494	3836.19
714.682	3688.73
714.869	3627.29
715.057	3733.79
715.244	3705.12
715.432	3508.51
715.619	3655.97
715.807	3670.3
715.994	3658.01
716.182	3686.69
716.369	3713.31
716.556	3598.62
716.744	3451.17
716.931	3436.83
717.119	3569.95
717.306	3528.99
717.493	3567.9
717.681	3449.12
717.868	3410.21
718.055	3522.85
718.242	3508.51
718.43	3512.61
718.617	3442.98
718.804	3416.35
718.991	3440.93
719.179	3477.79
719.366	3510.56
719.553	3395.87
719.74	3500.32
719.927	3369.25
720.114	3303.71
720.301	3281.19
720.488	3352.87
720.676	3350.82
720.863	3420.45
721.05	3414.31
721.237	3283.24
721.424	3338.53
721.611	3285.28
721.798	3273
721.985	3148.07
722.172	3289.38
722.358	3076.39
722.545	3279.14
722.732	3191.08
722.919	3158.31
723.106	3164.45
723.293	3266.85
723.48	3107.11
723.667	3070.25
723.853	3197.22
724.04	3236.13
724.227	3160.36
724.414	3074.34
724.6	3143.97
724.787	3197.22
724.974	3262.76
725.161	3115.3
725.347	2971.94
725.534	3014.95
725.72	3027.24
725.907	2994.47
726.094	3143.97
726.28	3076.39
726.467	2918.7
726.653	3062.05
726.84	3125.54
727.027	3076.39
727.213	2939.18
727.4	2941.22
727.586	2994.47
727.773	3045.67
727.959	2930.98
728.145	2951.46
728.332	2912.55
728.518	2885.93
728.705	2971.94
728.891	2832.68
729.077	3029.29
729.264	2724.14
729.45	2806.06
729.636	2986.28
729.823	2808.11
730.009	2793.77
730.195	2740.52
730.382	2738.48
730.568	2896.17
730.754	2871.59
730.94	2713.9
731.126	2795.82
731.313	2918.7
731.499	2742.57
731.685	2840.87
731.871	2799.91
732.057	2734.38
732.243	2732.33
732.429	2793.77
732.615	2742.57
732.801	2748.72
732.987	2656.56
733.173	2623.79
733.359	2791.72
733.545	2709.8
733.731	2652.46
733.917	2679.08
734.103	2758.96
734.289	2697.52
734.475	2613.55
734.661	2689.32
734.847	2709.8
735.033	2656.56
735.219	2607.41
735.404	2713.9
735.59	2582.83
735.776	2611.5
735.962	2730.28
736.148	2615.6
736.333	2634.03
736.519	2724.14
736.705	2736.43
736.89	2623.79
737.076	2525.49
737.262	2593.07
737.447	2498.86
737.633	2449.71
737.819	2574.64
738.004	2427.18
738.19	2615.6
738.375	2486.58
738.561	2548.01
738.747	2552.11
738.932	2427.18
739.118	2558.25
739.303	2431.28
739.489	2435.38
739.674	2410.8
739.859	2371.89
740.045	2451.76
740.23	2365.75
740.416	2263.35
740.601	2427.18
740.786	2369.84
740.972	2300.21
741.157	2230.58
741.342	2369.84
741.528	2386.22
741.713	2304.31
741.898	2361.65
742.084	2287.92
742.269	2279.73
742.454	2300.21
742.639	2249.01
742.824	2191.67
743.01	2240.82
743.195	2218.29
743.38	2193.72
743.565	2259.25
743.75	2255.15
743.935	2273.59
744.12	2292.02
744.305	2156.85
744.49	2115.89
744.675	2117.94
744.86	2148.66
745.045	2197.81
745.23	2124.08
745.415	2058.55
745.6	2113.85
745.785	2099.51
745.97	2111.8
746.155	2181.43
746.34	2025.78
746.525	2001.21
746.71	2054.45
746.895	2017.59
747.079	1968.44
747.264	2124.08
747.449	1937.72
747.634	1890.62
747.819	1968.44
748.003	1907
748.188	1925.43
748.373	1904.95
748.557	1968.44
748.742	1853.75
748.927	1927.48
749.111	1853.75
749.296	1823.03
749.481	1835.32
749.665	1876.28
749.85	1841.47
750.034	1878.33
750.219	1820.99
750.404	1775.93
750.588	1843.51
750.773	1681.72
750.957	1710.4
751.141	1724.73
751.326	1847.61
751.51	1763.64
751.695	1755.45
751.879	1575.23
752.064	1784.12
752.248	1667.39
752.432	1677.63
752.617	1724.73
752.801	1669.44
752.985	1683.77
753.17	1569.09
753.354	1661.24
753.538	1493.31
753.722	1587.52
753.907	1560.89
754.091	1552.7
754.275	1618.24
754.459	1546.56
754.643	1493.31
754.828	1546.56
755.012	1526.08
755.196	1466.69
755.38	1489.21
755.564	1438.02
755.748	1493.31
755.932	1476.93
756.116	1358.14
756.3	1388.86
756.484	1472.83
756.668	1489.21
756.852	1304.9
757.036	1388.86
757.22	1419.58
757.404	1382.72
757.588	1374.53
757.772	1427.78
757.956	1288.51
758.14	1374.53
758.323	1329.47
758.507	1341.76
758.691	1315.14
758.875	1290.56
759.059	1390.91
759.242	1270.08
759.426	1335.62
759.61	1255.75
759.794	1141.06
759.977	1212.74
760.161	1345.86
760.345	1239.36
760.528	1298.75
760.712	1231.17
760.895	1241.41
761.079	1200.45
761.263	1239.36
761.446	1132.87
761.63	1218.88
761.813	1184.07
761.997	1122.63
762.18	1225.03
762.364	1167.68
762.547	1005.89
762.731	1184.07
762.914	1132.87
763.098	1091.91
763.281	1085.76
763.464	1069.38
763.648	1108.29
763.831	1005.89
764.015	1050.95
764.198	1100.1
764.381	1145.16
764.564	1063.24
764.748	1110.34
764.931	1077.57
765.114	1116.48
765.297	1136.96
765.481	1065.29
765.664	1038.66
765.847	1044.81
766.03	1132.87
766.213	1085.76
766.397	1059.14
766.58	1050.95
766.763	1100.1
766.946	983.37
767.129	985.41
767.312	1046.85
767.495	1040.71
767.678	1009.99
767.861	938.31
768.044	1005.89
768.227	1020.23
768.41	969.03
768.593	977.22
768.776	966.98
768.959	964.93
769.142	1046.85
769.324	981.32
769.507	1059.14
769.69	887.11
769.873	958.79
770.056	1012.04
770.239	1036.61
770.421	1036.61
770.604	911.69
770.787	846.15
770.97	944.45
771.152	952.65
771.335	962.89
771.518	919.88
771.7	911.69
771.883	868.68
772.066	930.12
772.248	899.4
772.431	903.5
772.613	850.25
772.796	844.1
772.978	915.78
773.161	973.13
773.343	893.26
773.526	782.67
773.708	911.69
773.891	827.72
774.073	833.86
774.256	821.58
774.438	932.17
774.621	883.02
774.803	899.4
774.985	864.58
775.168	891.21
775.35	850.25
775.532	782.67
775.715	842.06
775.897	766.28
776.079	788.81
776.261	825.67
776.444	854.34
776.626	782.67
776.808	780.62
776.99	856.39
777.173	797
777.355	772.43
777.537	743.75
777.719	690.51
777.901	682.31
778.083	764.23
778.265	692.55
778.447	731.47
778.629	735.56
778.811	739.66
778.993	600.4
779.175	715.08
779.357	739.66
779.539	737.61
779.721	629.07
779.903	727.37
780.085	690.51
780.267	700.75
780.449	702.79
780.631	608.59
780.812	741.71
780.994	672.08
781.176	672.08
781.358	588.11
781.54	606.54
781.721	641.36
781.903	682.31
782.085	567.63
782.267	657.74
782.448	551.24
782.63	567.63
782.812	510.29
782.993	573.77
783.175	631.12
783.357	600.4
783.538	655.69
783.72	498
783.901	592.2
784.083	493.9
784.264	502.09
784.446	502.09
784.627	528.72
784.809	563.53
784.99	553.29
785.172	561.48
785.353	541.01
785.535	579.92
785.716	479.57
785.897	481.61
786.079	469.33
786.26	506.19
786.441	457.04
786.623	520.53
786.804	473.42
786.985	528.72
787.167	536.91
787.348	457.04
787.529	491.85
787.71	502.09
787.891	471.37
788.073	481.61
788.254	399.7
788.435	469.33
788.616	438.61
788.797	481.61
788.978	428.37
789.159	401.74
789.34	448.85
789.522	362.83
789.703	344.4
789.884	397.65
790.065	395.6
790.246	428.37
790.427	379.22
790.607	457.04
790.788	495.95
790.969	346.45
791.15	428.37
791.331	379.22
791.512	323.92
791.693	395.6
791.874	293.2
792.054	424.27
792.235	418.13
792.416	381.26
792.597	309.58
792.778	321.87
792.958	366.93
793.139	407.89
793.32	395.6
793.5	346.45
793.681	399.7
793.862	362.83
794.042	321.87
794.223	340.3
794.404	317.78
794.584	291.15
794.765	299.34
794.945	299.34
795.126	289.1
795.306	358.74
795.487	362.83
795.667	307.54
795.848	323.92
796.028	244.05
796.209	360.78
796.389	295.25
796.57	254.29
796.75	379.22
796.93	297.3
797.111	301.39
797.291	260.43
797.471	297.3
797.652	307.54
797.832	186.71
798.012	330.06
798.192	289.1
798.373	233.81
798.553	336.21
798.733	373.07
798.913	254.29
799.093	264.53
799.274	305.49
799.454	305.49
799.634	319.82
799.814	323.92
799.994	250.19
800.174	297.3
800.354	307.54
800.534	323.92
800.714	239.95
800.894	272.72
801.074	244.05
801.254	244.05
801.434	264.53
801.614	280.91
801.794	258.39
801.974	856.39
802.154	227.67
802.334	231.76
802.514	158.03
802.693	274.77
802.873	242
803.053	356.69
803.233	248.15
803.413	190.8
803.592	190.8
803.772	182.61
803.952	227.67
804.131	258.39
804.311	260.43
804.491	305.49
804.67	184.66
804.85	287.06
805.03	252.24
805.209	229.71
805.389	172.37
805.568	176.47
805.748	282.96
805.928	198.99
806.107	264.53
806.287	315.73
806.466	244.05
806.646	242
806.825	244.05
807.004	246.1
807.184	274.77
807.363	252.24
807.543	211.28
807.722	131.41
807.901	250.19
808.081	289.1
808.26	192.85
808.439	192.85
808.619	149.84
808.798	194.9
808.977	190.8
809.156	207.19
809.336	145.75
809.515	196.95
809.694	139.6
809.873	176.47
810.052	201.04
810.231	235.86
810.411	190.8
810.59	282.96
810.769	201.04
810.948	203.09
811.127	88.4
811.306	207.19
811.485	162.13
811.664	242
811.843	184.66
812.022	137.56
812.201	127.32
812.38	123.22
812.559	235.86
812.737	203.09
812.916	82.26
813.095	96.6
813.274	219.47
813.453	190.8
813.632	147.8
813.811	182.61
813.989	80.21
814.168	160.08
814.347	100.69
814.526	92.5
814.704	108.88
814.883	223.57
815.062	115.03
815.24	201.04
815.419	145.75
815.598	121.17
815.776	92.5
815.955	112.98
816.133	6.49
816.312	129.36
816.49	76.12
816.669	117.08
816.847	158.03
817.026	170.32
817.204	76.12
817.383	78.16
817.561	190.8
817.74	153.94
817.918	137.56
818.097	102.74
818.275	141.65
818.453	184.66
818.632	133.46
818.81	143.7
818.988	155.99
819.167	137.56
819.345	80.21
819.523	78.16
819.701	119.12
819.879	186.71
820.058	172.37
820.236	145.75
820.414	76.12
820.592	84.31
820.77	119.12
820.948	88.4
821.127	141.65
821.305	102.74
821.483	82.26
821.661	166.23
821.839	160.08
822.017	78.16
822.195	141.65
822.373	135.51
822.551	86.36
822.729	110.93
822.907	155.99
823.085	96.6
823.262	37.2
823.44	65.88
823.618	108.88
823.796	76.12
823.974	47.44
824.152	125.27
824.329	119.12
824.507	102.74
824.685	127.32
824.863	69.97
825.04	108.88
825.218	94.55
825.396	121.17
825.574	104.79
825.751	86.36
825.929	84.31
826.107	45.4
826.284	106.84
826.462	100.69
826.639	53.59
826.817	121.17
826.994	145.75
827.172	76.12
827.349	155.99
827.527	57.68
827.704	192.85
827.882	135.51
828.059	117.08
828.237	6.49
828.414	67.92
828.591	24.92
828.769	94.55
828.946	151.89
829.124	110.93
829.301	86.36
829.478	45.4
829.655	92.5
829.833	69.97
830.01	20.82
830.187	94.55
830.364	84.31
830.542	92.5
830.719	115.03
830.896	88.4
831.073	45.4
831.25	88.4
831.427	160.08
831.604	76.12
831.782	57.68
831.959	129.36
832.136	65.88
832.313	51.54
832.49	10.58
832.667	67.92
832.844	84.31
833.021	141.65
833.198	69.97
833.374	92.5
833.551	96.6
833.728	117.08
833.905	100.69
834.082	-5.8
834.259	59.73
834.436	45.4
834.612	55.64
834.789	37.2
834.966	92.5
835.143	80.21
835.319	22.87
835.496	92.5
835.673	65.88
835.85	110.93
836.026	80.21
836.203	112.98
836.38	61.78
836.556	14.68
836.733	76.12
836.909	59.73
837.086	4.44
837.262	24.92
837.439	76.12
837.616	59.73
837.792	45.4
837.968	65.88
838.145	2.39
838.321	6.49
838.498	39.25
838.674	43.35
838.851	78.16
839.027	53.59
839.203	80.21
839.38	92.5
839.556	92.5
839.732	18.77
839.909	33.11
840.085	125.27
840.261	78.16
840.437	129.36
840.614	20.82
840.79	67.92
840.966	80.21
841.142	84.31
841.318	22.87
841.494	92.5
841.671	94.55
841.847	67.92
842.023	31.06
842.199	-5.8
842.375	41.3
842.551	65.88
842.727	12.63
842.903	59.73
843.079	2.39
843.255	145.75
843.431	37.2
843.607	112.98
843.783	10.58
843.959	51.54
844.134	59.73
844.31	53.59
844.486	35.16
844.662	-3.75
844.838	8.53
845.013	-5.8
845.189	-13.99
845.365	112.98
845.541	-9.9
845.716	12.63
845.892	104.79
846.068	-13.99
846.244	14.68
846.419	53.59
846.595	-5.8
846.77	45.4
846.946	4.44
847.122	14.68
847.297	-5.8
847.473	102.74
847.648	-24.23
847.824	33.11
847.999	-13.99
848.175	-9.9
848.35	14.68
848.526	59.73
848.701	39.25
848.876	45.4
849.052	39.25
849.227	-44.71
849.403	-42.67
849.578	-34.47
849.753	12.63
849.929	76.12
850.104	14.68
850.279	6.49
850.454	133.46
850.63	47.44
850.805	41.3
850.98	80.21
851.155	59.73
851.33	76.12
851.505	24.92
851.681	45.4
851.856	57.68
852.031	-11.95
852.206	86.36
852.381	51.54
852.556	-11.95
852.731	108.88
852.906	37.2
853.081	45.4
853.256	78.16
853.431	51.54
853.606	78.16
853.781	-22.19
853.956	35.16
854.131	-30.38
854.305	-71.34
854.48	-18.09
854.655	59.73
854.83	26.96
855.005	-5.8
855.18	84.31
855.354	22.87
855.529	0.34
855.704	2.39
855.879	31.06
856.053	-9.9
856.228	67.92
856.403	18.77
856.577	57.68
856.752	-3.75
856.926	100.69
857.101	6.49
857.276	76.12
857.45	84.31
857.625	51.54
857.799	-18.09
857.974	129.36
858.148	-67.24
858.323	12.63
858.497	35.16
858.672	-28.33
858.846	45.4
859.02	100.69
859.195	-42.67
859.369	-3.75
859.543	-1.71
859.718	2.39
859.892	51.54
860.066	31.06
860.241	-13.99
860.415	-65.19
860.589	86.36
860.763	2.39
860.938	-54.95
861.112	61.78
861.286	0.34
861.46	35.16
861.634	69.97
861.808	29.01
861.982	39.25
862.157	-50.86
862.331	-52.91
862.505	22.87
862.679	-42.67
862.853	-24.23
863.027	-54.95
863.201	59.73
863.375	-87.72
863.549	22.87
863.722	53.59
863.896	20.82
864.07	14.68
864.244	16.73
864.418	37.2
864.592	20.82
864.766	2.39
864.939	-22.19
865.113	-83.63
865.287	61.78
865.461	-5.8
865.634	-71.34
865.808	-54.95
865.982	2.39
866.156	-85.67
866.329	12.63
866.503	26.96
866.676	-22.19
866.85	14.68
867.024	-3.75
867.197	4.44
867.371	43.35
867.544	-28.33
867.718	29.01
867.891	8.53
868.065	-108.2
868.238	24.92
868.412	57.68
868.585	47.44
868.759	20.82
868.932	10.58
869.105	-7.85
869.279	2.39
869.452	4.44
869.625	-30.38
869.799	4.44
869.972	-13.99
870.145	67.92
870.319	4.44
870.492	0.34
870.665	31.06
870.838	2.39
871.011	-3.75
871.185	45.4
871.358	-20.14
871.531	92.5
871.704	-36.52
871.877	-61.1
872.05	84.31
872.223	-97.96
872.396	43.35
872.569	12.63
872.742	-38.57
872.915	49.49
873.088	69.97
873.261	-36.52
873.434	18.77
873.607	35.16
873.78	43.35
873.953	26.96
874.126	16.73
874.299	26.96
874.471	-61.1
874.644	-5.8
874.817	4.44
874.99	92.5
875.163	-18.09
875.335	-1.71
875.508	-48.81
875.681	43.35
875.853	-52.91
876.026	14.68
876.199	-1.71
876.371	-9.9
876.544	-59.05
876.717	45.4
876.889	31.06
877.062	72.02
877.234	-36.52
877.407	-5.8
877.579	14.68
877.752	14.68
877.924	92.5
878.097	18.77
878.269	59.73
878.442	10.58
878.614	-36.52
878.786	-20.14
878.959	10.58
879.131	55.64
879.303	-157.35
879.476	-5.8
879.648	6.49
879.82	-5.8
879.993	-20.14
880.165	18.77
880.337	-63.15
880.509	-63.15
880.681	-54.95
880.854	4.44
881.026	26.96
881.198	59.73
881.37	-50.86
881.542	-32.43
881.714	37.2
881.886	35.16
882.058	-11.95
882.23	22.87
882.402	-57
882.574	-7.85
882.746	51.54
882.918	26.96
883.09	-5.8
883.262	-36.52
883.434	-20.14
883.606	31.06
883.778	-28.33
883.95	100.69
884.122	-63.15
884.293	4.44
884.465	14.68
884.637	55.64
884.809	-38.57
884.98	35.16
885.152	29.01
885.324	4.44
885.496	-22.19
885.667	26.96
885.839	-24.23
886.011	67.92
886.182	29.01
886.354	18.77
886.525	14.68
886.697	-13.99
886.869	2.39
887.04	-38.57
887.212	49.49
887.383	90.45
887.555	10.58
887.726	-28.33
887.897	-54.95
888.069	-26.28
888.24	-9.9
888.412	0.34
888.583	16.73
888.754	35.16
888.926	-40.62
889.097	55.64
889.268	-67.24
889.44	-24.23
889.611	-61.1
889.782	29.01
889.953	-81.58
890.125	76.12
890.296	-11.95
890.467	4.44
890.638	-91.82
890.809	-34.47
890.98	37.2
891.151	51.54
891.323	22.87
891.494	-11.95
891.665	55.64
891.836	53.59
892.007	14.68
892.178	39.25
892.349	-3.75
892.52	-18.09
892.691	49.49
892.862	-13.99
893.032	-71.34
893.203	-20.14
893.374	10.58
893.545	6.49
893.716	2.39
893.887	-5.8
894.057	-124.58
894.228	-30.38
894.399	-28.33
894.57	35.16
894.74	-65.19
894.911	31.06
895.082	6.49
895.253	-13.99
895.423	0.34
895.594	-26.28
895.764	-22.19
895.935	-34.47
896.106	-7.85
896.276	43.35
896.447	6.49
896.617	43.35
896.788	-30.38
896.958	10.58
897.129	-13.99
897.299	-73.39
897.47	78.16
897.64	10.58
897.81	12.63
897.981	43.35
898.151	-22.19
898.322	20.82
898.492	-11.95
898.662	-26.28
898.832	-9.9
899.003	-69.29
899.173	10.58
899.343	-69.29
899.513	-36.52
