Data from USB4F104151__186__14-32-57-531.txt Node

Date: Thu Mar 13 14:32:57 EDT 2025
User: louis
Spectrometer: USB4F10415
Trigger mode: 4
Integration Time (sec): 2.500000E-2
Scans to average: 1
Electric dark correction enabled: true
Nonlinearity correction enabled: false
Boxcar width: 0
XAxis mode: Wavelengths
Number of Pixels in Spectrum: 3648
>>>>>Begin Spectral Data<<<<<
178.204	-135.17
178.424	-135.17
178.644	-135.17
178.864	-192.51
179.084	-135.17
179.304	-57.34
179.524	-20.48
179.744	20.48
179.964	40.96
180.184	-2.05
180.404	61.44
180.624	-55.3
180.844	-26.62
181.064	-79.87
181.283	43.01
181.503	20.48
181.723	55.3
181.943	36.86
182.163	102.4
182.383	28.67
182.602	53.25
182.822	69.63
183.042	8.19
183.262	43.01
183.482	47.1
183.701	20.48
183.921	32.77
184.141	77.82
184.361	16.38
184.58	61.44
184.8	57.34
185.02	69.63
185.239	-40.96
185.459	67.58
185.679	102.4
185.898	28.67
186.118	77.82
186.338	-4.1
186.557	114.69
186.777	-6.14
186.997	-28.67
187.216	-57.34
187.436	38.91
187.655	45.06
187.875	94.21
188.095	32.77
188.314	-12.29
188.534	32.77
188.753	57.34
188.973	75.77
189.192	112.64
189.412	45.06
189.631	45.06
189.851	86.01
190.07	69.63
190.29	12.29
190.509	-4.1
190.729	-24.58
190.948	45.06
191.168	184.32
191.387	-16.38
191.607	38.91
191.826	61.44
192.045	-22.53
192.265	-8.19
192.484	34.82
192.704	53.25
192.923	-4.1
193.142	38.91
193.362	16.38
193.581	45.06
193.8	6.14
194.02	-20.48
194.239	16.38
194.458	6.14
194.678	-24.58
194.897	124.93
195.116	16.38
195.335	45.06
195.555	69.63
195.774	61.44
195.993	90.11
196.212	143.36
196.432	16.38
196.651	36.86
196.87	118.78
197.089	88.06
197.308	30.72
197.528	81.92
197.747	20.48
197.966	126.97
198.185	88.06
198.404	61.44
198.623	79.87
198.842	16.38
199.062	63.49
199.281	22.53
199.5	51.2
199.719	88.06
199.938	45.06
200.157	55.3
200.376	6.14
200.595	55.3
200.814	-8.19
201.033	-51.2
201.252	96.25
201.471	32.77
201.69	81.92
201.909	61.44
202.128	53.25
202.347	90.11
202.566	71.68
202.785	-16.38
203.004	-32.77
203.223	110.59
203.442	22.53
203.661	12.29
203.879	65.53
204.098	32.77
204.317	-12.29
204.536	102.4
204.755	53.25
204.974	45.06
205.193	-26.62
205.411	73.73
205.63	-20.48
205.849	75.77
206.068	22.53
206.287	-18.43
206.505	36.86
206.724	36.86
206.943	10.24
207.162	14.34
207.381	4.1
207.599	77.82
207.818	45.06
208.037	12.29
208.255	-20.48
208.474	20.48
208.693	36.86
208.911	20.48
209.13	86.01
209.349	69.63
209.567	36.86
209.786	61.44
210.005	49.15
210.223	-32.77
210.442	-28.67
210.661	-57.34
210.879	53.25
211.098	94.21
211.316	61.44
211.535	90.11
211.753	69.63
211.972	24.58
212.191	36.86
212.409	61.44
212.628	122.88
212.846	36.86
213.065	28.67
213.283	137.21
213.502	30.72
213.72	16.38
213.938	61.44
214.157	8.19
214.375	79.87
214.594	-10.24
214.812	104.45
215.031	16.38
215.249	30.72
215.467	30.72
215.686	6.14
215.904	12.29
216.122	51.2
216.341	83.97
216.559	-16.38
216.778	45.06
216.996	100.35
217.214	-10.24
217.432	-28.67
217.651	-49.15
217.869	-26.62
218.087	57.34
218.306	8.19
218.524	28.67
218.742	-2.05
218.96	55.3
219.179	38.91
219.397	-45.06
219.615	94.21
219.833	79.87
220.051	53.25
220.27	104.45
220.488	12.29
220.706	14.34
220.924	6.14
221.142	-12.29
221.36	49.15
221.578	14.34
221.796	90.11
222.015	108.54
222.233	69.63
222.451	55.3
222.669	-10.24
222.887	36.86
223.105	12.29
223.323	14.34
223.541	47.1
223.759	108.54
223.977	71.68
224.195	53.25
224.413	77.82
224.631	32.77
224.849	-32.77
225.067	63.49
225.285	-10.24
225.503	36.86
225.721	-20.48
225.939	-12.29
226.157	63.49
226.375	200.7
226.592	69.63
226.81	38.91
227.028	57.34
227.246	53.25
227.464	4.1
227.682	65.53
227.9	49.15
228.117	47.1
228.335	81.92
228.553	24.58
228.771	16.38
228.989	14.34
229.206	-10.24
229.424	6.14
229.642	38.91
229.86	4.1
230.077	55.3
230.295	45.06
230.513	122.88
230.731	14.34
230.948	6.14
231.166	131.07
231.384	40.96
231.601	-4.1
231.819	75.77
232.037	-16.38
232.254	28.67
232.472	2.05
232.689	10.24
232.907	-10.24
233.125	36.86
233.342	28.67
233.56	-10.24
233.777	24.58
233.995	114.69
234.213	67.58
234.43	22.53
234.648	-20.48
234.865	51.2
235.083	71.68
235.3	73.73
235.518	-28.67
235.735	102.4
235.953	73.73
236.17	30.72
236.388	-26.62
236.605	79.87
236.822	153.6
237.04	106.49
237.257	49.15
237.475	45.06
237.692	61.44
237.909	16.38
238.127	-10.24
238.344	88.06
238.562	73.73
238.779	-61.44
238.996	-2.05
239.214	-45.06
239.431	77.82
239.648	30.72
239.865	36.86
240.083	73.73
240.3	49.15
240.517	6.14
240.735	57.34
240.952	18.43
241.169	18.43
241.386	4.1
241.603	16.38
241.821	53.25
242.038	53.25
242.255	45.06
242.472	-20.48
242.689	53.25
242.907	61.44
243.124	12.29
243.341	49.15
243.558	12.29
243.775	-8.19
243.992	-49.15
244.209	38.91
244.426	86.01
244.643	36.86
244.86	40.96
245.078	69.63
245.295	61.44
245.512	-10.24
245.729	6.14
245.946	45.06
246.163	104.45
246.38	69.63
246.597	28.67
246.814	12.29
247.031	32.77
247.248	28.67
247.464	57.34
247.681	63.49
247.898	69.63
248.115	45.06
248.332	-10.24
248.549	112.64
248.766	53.25
248.983	65.53
249.2	49.15
249.417	-4.1
249.633	-34.82
249.85	2.05
250.067	36.86
250.284	67.58
250.501	69.63
250.717	73.73
250.934	14.34
251.151	20.48
251.368	36.86
251.585	28.67
251.801	40.96
252.018	6.14
252.235	51.2
252.451	-2.05
252.668	-28.67
252.885	36.86
253.102	47.1
253.318	77.82
253.535	24.58
253.752	-34.82
253.968	69.63
254.185	22.53
254.401	36.86
254.618	57.34
254.835	20.48
255.051	55.3
255.268	-59.39
255.484	147.45
255.701	94.21
255.917	126.97
256.134	8.19
256.351	100.35
256.567	-4.1
256.784	26.62
257	32.77
257.217	12.29
257.433	61.44
257.65	108.54
257.866	110.59
258.082	-26.62
258.299	34.82
258.515	36.86
258.732	55.3
258.948	28.67
259.165	40.96
259.381	71.68
259.597	-8.19
259.814	24.58
260.03	28.67
260.246	-16.38
260.463	36.86
260.679	69.63
260.895	24.58
261.112	51.2
261.328	-4.1
261.544	-40.96
261.761	73.73
261.977	14.34
262.193	40.96
262.409	38.91
262.626	-32.77
262.842	4.1
263.058	81.92
263.274	-12.29
263.49	77.82
263.707	61.44
263.923	2.05
264.139	32.77
264.355	94.21
264.571	126.97
264.787	12.29
265.004	53.25
265.22	32.77
265.436	16.38
265.652	16.38
265.868	-24.58
266.084	-20.48
266.3	-18.43
266.516	-12.29
266.732	69.63
266.948	-20.48
267.164	10.24
267.38	77.82
267.596	38.91
267.812	61.44
268.028	18.43
268.244	-20.48
268.46	-4.1
268.676	-75.77
268.892	30.72
269.108	4.1
269.324	36.86
269.54	71.68
269.756	61.44
269.972	-4.1
270.188	8.19
270.403	47.1
270.619	4.1
270.835	-24.58
271.051	45.06
271.267	47.1
271.483	30.72
271.698	24.58
271.914	12.29
272.13	28.67
272.346	16.38
272.562	18.43
272.777	61.44
272.993	69.63
273.209	20.48
273.425	69.63
273.64	-0
273.856	30.72
274.072	69.63
274.287	6.14
274.503	36.86
274.719	36.86
274.934	45.06
275.15	-102.4
275.366	47.1
275.581	14.34
275.797	65.53
276.012	79.87
276.228	49.15
276.444	49.15
276.659	77.82
276.875	53.25
277.09	77.82
277.306	65.53
277.521	28.67
277.737	61.44
277.952	28.67
278.168	79.87
278.383	30.72
278.599	55.3
278.814	53.25
279.03	36.86
279.245	-0
279.461	32.77
279.676	100.35
279.892	8.19
280.107	36.86
280.322	61.44
280.538	28.67
280.753	53.25
280.969	61.44
281.184	55.3
281.399	65.53
281.615	71.68
281.83	12.29
282.045	-43.01
282.26	45.06
282.476	69.63
282.691	14.34
282.906	81.92
283.122	45.06
283.337	36.86
283.552	73.73
283.767	-28.67
283.983	143.36
284.198	-26.62
284.413	71.68
284.628	-59.39
284.843	71.68
285.058	38.91
285.274	45.06
285.489	-2.05
285.704	14.34
285.919	12.29
286.134	40.96
286.349	36.86
286.564	94.21
286.779	94.21
286.995	61.44
287.21	-61.44
287.425	-12.29
287.64	20.48
287.855	96.25
288.07	51.2
288.285	36.86
288.5	77.82
288.715	57.34
288.93	28.67
289.145	30.72
289.36	126.97
289.575	65.53
289.79	55.3
290.004	65.53
290.219	69.63
290.434	47.1
290.649	8.19
290.864	26.62
291.079	14.34
291.294	71.68
291.509	57.34
291.724	34.82
291.938	30.72
292.153	96.25
292.368	-49.15
292.583	55.3
292.798	90.11
293.012	147.45
293.227	38.91
293.442	77.82
293.657	63.49
293.871	49.15
294.086	32.77
294.301	98.3
294.516	106.49
294.73	53.25
294.945	14.34
295.16	24.58
295.374	55.3
295.589	71.68
295.804	4.1
296.018	67.58
296.233	53.25
296.447	24.58
296.662	-32.77
296.877	43.01
297.091	38.91
297.306	-10.24
297.52	-0
297.735	40.96
297.949	75.77
298.164	69.63
298.378	-0
298.593	-0
298.807	22.53
299.022	6.14
299.236	22.53
299.451	53.25
299.665	22.53
299.88	47.1
300.094	57.34
300.309	18.43
300.523	-20.48
300.737	55.3
300.952	30.72
301.166	53.25
301.381	-45.06
301.595	55.3
301.809	45.06
302.024	22.53
302.238	55.3
302.452	94.21
302.667	38.91
302.881	126.97
303.095	53.25
303.309	104.45
303.524	-2.05
303.738	71.68
303.952	2.05
304.166	12.29
304.381	-61.44
304.595	151.55
304.809	47.1
305.023	90.11
305.237	88.06
305.452	20.48
305.666	90.11
305.88	63.49
306.094	69.63
306.308	61.44
306.522	73.73
306.736	86.01
306.95	79.87
307.164	26.62
307.379	57.34
307.593	24.58
307.807	102.4
308.021	69.63
308.235	69.63
308.449	57.34
308.663	45.06
308.877	153.6
309.091	10.24
309.305	45.06
309.519	-57.34
309.733	49.15
309.947	28.67
310.161	53.25
310.374	69.63
310.588	45.06
310.802	10.24
311.016	-2.05
311.23	61.44
311.444	32.77
311.658	22.53
311.872	20.48
312.085	94.21
312.299	79.87
312.513	67.58
312.727	79.87
312.941	40.96
313.154	53.25
313.368	43.01
313.582	110.59
313.796	-2.05
314.009	32.77
314.223	86.01
314.437	53.25
314.651	86.01
314.864	-20.48
315.078	8.19
315.292	-73.73
315.505	83.97
315.719	12.29
315.933	14.34
316.146	-49.15
316.36	-28.67
316.573	118.78
316.787	96.25
317.001	83.97
317.214	2.05
317.428	73.73
317.641	-18.43
317.855	61.44
318.068	20.48
318.282	6.14
318.495	104.45
318.709	63.49
318.922	73.73
319.136	118.78
319.349	110.59
319.563	32.77
319.776	114.69
319.99	-16.38
320.203	45.06
320.417	53.25
320.63	20.48
320.843	71.68
321.057	63.49
321.27	59.39
321.483	118.78
321.697	94.21
321.91	32.77
322.124	28.67
322.337	106.49
322.55	34.82
322.763	4.1
322.977	126.97
323.19	45.06
323.403	63.49
323.617	18.43
323.83	139.26
324.043	86.01
324.256	24.58
324.469	53.25
324.683	122.88
324.896	47.1
325.109	120.83
325.322	-53.25
325.535	57.34
325.748	131.07
325.962	88.06
326.175	47.1
326.388	98.3
326.601	71.68
326.814	59.39
327.027	49.15
327.24	-0
327.453	-0
327.666	36.86
327.879	65.53
328.092	100.35
328.305	75.77
328.518	-0
328.731	34.82
328.944	40.96
329.157	53.25
329.37	6.14
329.583	126.97
329.796	137.21
330.009	-28.67
330.222	55.3
330.435	22.53
330.648	-36.86
330.861	24.58
331.073	49.15
331.286	59.39
331.499	53.25
331.712	-69.63
331.925	45.06
332.138	-32.77
332.35	77.82
332.563	57.34
332.776	73.73
332.989	12.29
333.202	51.2
333.414	36.86
333.627	12.29
333.84	-2.05
334.053	59.39
334.265	-2.05
334.478	-0
334.691	45.06
334.903	24.58
335.116	-65.54
335.329	61.44
335.541	-4.1
335.754	77.82
335.966	57.34
336.179	30.72
336.392	-16.38
336.604	20.48
336.817	45.06
337.029	53.25
337.242	-2.05
337.454	126.97
337.667	53.25
337.88	126.97
338.092	38.91
338.305	65.53
338.517	28.67
338.729	-8.19
338.942	88.06
339.154	-51.2
339.367	-24.58
339.579	63.49
339.792	-28.67
340.004	71.68
340.217	28.67
340.429	126.97
340.641	-16.38
340.854	61.44
341.066	88.06
341.278	32.77
341.491	88.06
341.703	61.44
341.915	-16.38
342.128	-34.82
342.34	94.21
342.552	12.29
342.764	4.1
342.977	8.19
343.189	45.06
343.401	71.68
343.613	-16.38
343.826	81.92
344.038	-16.38
344.25	143.36
344.462	86.01
344.674	118.78
344.886	28.67
345.099	20.48
345.311	36.86
345.523	49.15
345.735	26.62
345.947	-8.19
346.159	120.83
346.371	55.3
346.583	28.67
346.795	100.35
347.007	40.96
347.219	49.15
347.431	24.58
347.643	143.36
347.855	61.44
348.067	71.68
348.279	-2.05
348.491	49.15
348.703	20.48
348.915	-24.58
349.127	12.29
349.339	77.82
349.551	43.01
349.763	43.01
349.975	90.11
350.187	102.4
350.399	53.25
350.61	61.44
350.822	45.06
351.034	90.11
351.246	53.25
351.458	-12.29
351.669	49.15
351.881	67.58
352.093	57.34
352.305	122.88
352.517	71.68
352.728	24.58
352.94	69.63
353.152	90.11
353.363	8.19
353.575	77.82
353.787	57.34
353.999	88.06
354.21	67.58
354.422	30.72
354.633	-4.1
354.845	36.86
355.057	79.87
355.268	22.53
355.48	86.01
355.692	77.82
355.903	-8.19
356.115	36.86
356.326	12.29
356.538	53.25
356.749	53.25
356.961	73.73
357.172	86.01
357.384	-4.1
357.595	96.25
357.807	6.14
358.018	59.39
358.23	110.59
358.441	86.01
358.653	47.1
358.864	51.2
359.075	30.72
359.287	83.97
359.498	57.34
359.709	120.83
359.921	102.4
360.132	81.92
360.344	92.16
360.555	69.63
360.766	36.86
360.977	43.01
361.189	-10.24
361.4	24.58
361.611	118.78
361.823	57.34
362.034	-10.24
362.245	36.86
362.456	143.36
362.667	45.06
362.879	12.29
363.09	104.45
363.301	22.53
363.512	73.73
363.723	22.53
363.935	-0
364.146	122.88
364.357	90.11
364.568	4.1
364.779	-16.38
364.99	122.88
365.201	-10.24
365.412	28.67
365.623	6.14
365.834	96.25
366.045	88.06
366.256	126.97
366.467	88.06
366.678	94.21
366.889	28.67
367.1	69.63
367.311	45.06
367.522	38.91
367.733	94.21
367.944	135.17
368.155	12.29
368.366	59.39
368.577	102.4
368.788	81.92
368.999	102.4
369.209	77.82
369.42	106.49
369.631	114.69
369.842	22.53
370.053	28.67
370.264	77.82
370.474	14.34
370.685	86.01
370.896	47.1
371.107	86.01
371.317	77.82
371.528	16.38
371.739	53.25
371.95	22.53
372.16	71.68
372.371	-8.19
372.582	-28.67
372.792	24.58
373.003	63.49
373.214	96.25
373.424	67.58
373.635	53.25
373.846	83.97
374.056	69.63
374.267	6.14
374.477	18.43
374.688	34.82
374.898	104.45
375.109	22.53
375.319	81.92
375.53	53.25
375.74	126.97
375.951	77.82
376.161	28.67
376.372	61.44
376.582	63.49
376.793	57.34
377.003	75.77
377.214	53.25
377.424	30.72
377.635	114.69
377.845	12.29
378.055	61.44
378.266	28.67
378.476	53.25
378.686	22.53
378.897	32.77
379.107	86.01
379.317	36.86
379.528	16.38
379.738	71.68
379.948	20.48
380.158	94.21
380.369	67.58
380.579	51.2
380.789	159.74
380.999	110.59
381.21	118.78
381.42	81.92
381.63	-12.29
381.84	57.34
382.05	55.3
382.261	51.2
382.471	92.16
382.681	98.3
382.891	81.92
383.101	26.62
383.311	16.38
383.521	28.67
383.731	63.49
383.941	55.3
384.151	-8.19
384.361	45.06
384.571	71.68
384.781	94.21
384.991	69.63
385.201	120.83
385.411	104.45
385.621	45.06
385.831	20.48
386.041	77.82
386.251	63.49
386.461	98.3
386.671	45.06
386.881	53.25
387.091	49.15
387.301	120.83
387.511	8.19
387.72	94.21
387.93	45.06
388.14	-28.67
388.35	69.63
388.56	118.78
388.769	22.53
388.979	75.77
389.189	73.73
389.399	90.11
389.609	61.44
389.818	104.45
390.028	79.87
390.238	24.58
390.447	77.82
390.657	30.72
390.867	4.1
391.076	-12.29
391.286	53.25
391.496	63.49
391.705	4.1
391.915	63.49
392.125	75.77
392.334	28.67
392.544	135.17
392.753	55.3
392.963	38.91
393.172	61.44
393.382	24.58
393.591	73.73
393.801	-0
394.01	204.8
394.22	45.06
394.429	75.77
394.639	63.49
394.848	120.83
395.058	147.45
395.267	118.78
395.477	63.49
395.686	83.97
395.895	198.65
396.105	106.49
396.314	108.54
396.524	96.25
396.733	102.4
396.942	114.69
397.152	104.45
397.361	159.74
397.57	53.25
397.78	104.45
397.989	159.74
398.198	145.41
398.407	14.34
398.617	104.45
398.826	102.4
399.035	69.63
399.244	167.93
399.453	145.41
399.663	47.1
399.872	124.93
400.081	32.77
400.29	73.73
400.499	114.69
400.708	163.84
400.917	114.69
401.127	129.02
401.336	79.87
401.545	114.69
401.754	184.32
401.963	212.99
402.172	151.55
402.381	96.25
402.59	157.69
402.799	139.26
403.008	184.32
403.217	77.82
403.426	169.98
403.635	57.34
403.844	73.73
404.053	137.21
404.262	194.56
404.471	229.37
404.68	169.98
404.888	167.93
405.097	169.98
405.306	249.85
405.515	176.13
405.724	225.28
405.933	188.41
406.142	178.17
406.35	301.05
406.559	194.56
406.768	157.69
406.977	241.66
407.185	176.13
407.394	225.28
407.603	210.94
407.812	176.13
408.02	268.28
408.229	217.08
408.438	204.8
408.646	186.37
408.855	262.14
409.064	301.05
409.272	247.8
409.481	274.43
409.69	262.14
409.898	258.04
410.107	323.58
410.315	389.11
410.524	290.81
410.733	344.06
410.941	356.35
411.15	399.35
411.358	376.83
411.567	348.15
411.775	442.36
411.984	432.12
412.192	458.74
412.401	462.84
412.609	409.59
412.818	524.28
413.026	471.03
413.234	520.18
413.443	579.58
413.651	538.62
413.86	585.72
414.068	604.15
414.276	659.45
414.485	540.66
414.693	614.39
414.901	692.21
415.11	735.22
415.318	729.08
415.526	684.02
415.734	843.76
415.943	761.84
416.151	843.76
416.359	782.32
416.567	858.1
416.776	868.34
416.984	1021.94
417.192	968.69
417.4	948.21
417.608	1052.66
417.817	974.83
418.025	1071.09
418.233	1136.62
418.441	1232.88
418.649	1093.62
418.857	1363.95
419.065	1351.66
419.273	1165.29
419.481	1400.81
419.689	1435.63
419.897	1503.21
420.105	1499.11
420.313	1619.94
420.521	1630.18
420.729	1638.37
420.937	1626.09
421.145	1789.92
421.353	1859.56
421.561	2125.79
421.769	1918.95
421.977	1980.39
422.185	1859.56
422.393	2047.97
422.601	2285.53
422.809	2326.49
423.017	2310.11
423.224	2486.23
423.432	2346.97
423.64	2342.88
423.848	2738.13
424.056	2641.88
424.263	2879.44
424.471	2889.68
424.679	2838.48
424.887	3102.67
425.094	3137.49
425.302	3147.73
425.51	3241.93
425.718	3428.3
425.925	3379.15
426.133	3489.74
426.341	3758.02
426.548	3772.36
426.756	3846.09
426.964	3930.05
427.171	4085.7
427.379	4267.97
427.586	4227.01
427.794	4521.91
428.001	4624.31
428.209	4822.97
428.417	4655.03
428.624	5060.53
428.832	5160.88
429.039	4884.41
429.247	5250.99
429.454	5533.61
429.662	5947.3
429.869	5420.97
430.076	5902.25
430.284	5836.71
430.491	5877.67
430.699	6215.59
430.906	6360.99
431.114	6410.14
431.321	6696.86
431.528	6991.77
431.736	7364.5
431.943	7311.25
432.15	7485.33
432.358	7348.11
432.565	7962.5
432.772	7784.33
432.979	8302.47
433.187	8263.55
433.394	8499.07
433.601	8984.44
433.808	9056.12
434.016	8814.46
434.223	9234.29
434.43	9564.01
434.637	9703.28
434.844	10082.15
435.052	10258.28
435.259	10284.9
435.466	10379.11
435.673	10307.43
435.88	10932.06
436.087	11726.67
436.294	11554.64
436.501	11278.16
436.708	11474.77
436.915	11812.68
437.122	12328.77
437.329	12332.87
437.537	12898.11
437.743	12924.73
437.95	12808
438.157	13463.35
438.364	14073.64
438.571	13831.98
438.778	14030.63
438.985	15234.84
439.192	14696.22
439.399	15060.76
439.606	14911.26
439.813	15791.89
440.02	16588.55
440.227	16334.6
440.433	16150.28
440.64	16594.69
440.847	16412.42
441.054	16893.69
441.261	18165.48
441.467	17972.97
441.674	18267.88
441.881	18958.05
442.088	18534.12
442.294	18976.48
442.501	19259.1
442.708	19676.88
442.914	20326.09
443.121	20932.29
443.328	20756.16
443.534	22027.95
443.741	21302.97
443.948	21118.65
444.154	22613.67
444.361	22597.29
444.568	22750.88
444.774	22343.34
444.981	22898.34
445.187	23553.69
445.394	24379.02
445.6	24174.22
445.807	26261.1
446.013	25220.74
446.22	25767.54
446.426	26900.07
446.633	26922.6
446.839	28034.64
447.046	26916.45
447.252	28427.85
447.459	28069.46
447.665	28345.94
447.871	29431.36
448.078	30375.47
448.284	29384.26
448.491	29941.3
448.697	30975.53
448.903	31731.23
449.11	31749.66
449.316	31098.41
449.522	31864.35
449.728	32736.78
449.935	33142.28
450.141	33064.46
450.347	33660.41
450.553	32486.93
450.76	32957.96
450.966	34022.9
451.172	33302.02
451.378	34881
451.584	33922.55
451.791	34596.34
451.997	34358.77
452.203	35372.52
452.409	35128.81
452.615	34743.79
452.821	33527.3
453.027	33433.09
453.233	34971.11
453.44	33418.75
453.646	34113.02
453.852	33867.26
454.058	34661.87
454.264	33332.74
454.47	34473.46
454.676	33158.66
454.882	34194.93
455.088	31471.14
455.294	32177.68
455.5	32292.37
455.705	32511.5
455.911	31348.26
456.117	30735.91
456.323	30518.83
456.529	28902.98
456.735	30082.61
456.941	29339.2
457.147	28761.67
457.352	27741.78
457.558	27534.94
457.764	27764.31
457.97	26773.1
458.176	26650.22
458.381	26556.01
458.587	25323.13
458.793	25054.85
458.999	23910.04
459.204	25615.99
459.41	25050.75
459.616	23281.31
459.821	23318.17
460.027	23402.14
460.233	22705.83
460.438	21728.95
460.644	21460.66
460.85	20809.41
461.055	20469.45
461.261	20573.89
461.466	18847.46
461.672	18124.52
461.878	19484.37
462.083	18444.01
462.289	17899.25
462.494	17661.68
462.7	16715.52
462.905	16510.72
463.111	17153.79
463.316	16867.07
463.522	16701.19
463.727	16961.28
463.932	16824.06
464.138	16461.57
464.343	16731.9
464.549	15867.66
464.754	16948.99
464.959	16340.74
465.165	16209.67
465.37	15494.93
465.575	15251.22
465.781	15773.46
465.986	15947.53
466.191	15382.29
466.397	15177.5
466.602	14311.21
466.807	14669.6
467.012	14939.93
467.218	14677.79
467.423	14470.95
467.628	14411.56
467.833	15204.12
468.038	14688.03
468.244	14239.53
468.449	14835.49
468.654	14563.11
468.859	14255.91
469.064	13844.27
469.269	13842.22
469.474	13881.13
469.679	14004.01
469.885	13477.68
470.09	13967.15
470.295	13363
470.5	13262.65
470.705	13414.2
470.91	12859.2
471.115	12918.59
471.32	13107
471.525	13096.76
471.73	12760.89
471.935	12785.47
472.139	12363.59
472.344	12453.7
472.549	12171.08
472.754	12283.72
472.959	12029.77
473.164	11607.89
473.369	11622.22
473.574	12001.1
473.778	11710.29
473.983	11673.42
474.188	11614.03
474.393	11089.75
474.598	11046.74
474.802	10940.25
475.007	10960.73
475.212	11024.22
475.417	10651.49
475.621	10647.39
475.826	10684.25
476.031	10293.09
476.235	10170.21
476.44	10356.58
476.645	10051.43
476.849	10178.4
477.054	10100.58
477.259	10143.59
477.463	10043.24
477.668	9860.97
477.872	10051.43
478.077	9697.13
478.282	9574.25
478.486	9361.27
478.691	9387.89
478.895	9318.26
479.1	9131.89
479.304	9279.35
479.509	8984.44
479.713	9199.48
479.918	8730.49
480.122	8875.9
480.326	8957.82
480.531	8927.1
480.735	8879.99
480.94	8591.23
481.144	9039.73
481.348	8564.61
481.553	8683.39
481.757	8662.91
481.961	8667
482.166	8761.21
482.37	8730.49
482.574	8361.86
482.778	8497.02
482.983	8720.25
483.187	8605.56
483.391	8542.08
483.595	8578.94
483.8	8462.21
484.004	8466.3
484.208	8484.73
484.412	8658.81
484.616	8558.46
484.821	8558.46
485.025	8533.89
485.229	8562.56
485.433	8550.27
485.637	8634.24
485.841	8437.63
486.045	8544.13
486.249	8533.89
486.453	8306.56
486.657	8460.16
486.861	8437.63
487.065	8359.81
487.269	8621.95
487.473	8363.9
487.677	8585.09
487.881	8550.27
488.085	8607.61
488.289	8542.08
488.493	8474.49
488.697	8542.08
488.901	8519.55
489.105	8583.04
489.309	8613.76
489.512	8464.25
489.716	8611.71
489.92	8757.11
490.124	8572.8
490.328	8642.43
490.531	8523.65
490.735	8806.27
490.939	8621.95
491.143	8591.23
491.346	8548.22
491.55	8937.34
491.754	8822.65
491.958	8716.16
492.161	8773.5
492.365	8898.42
492.569	8894.33
492.772	8755.07
492.976	8978.3
493.18	8818.55
493.383	8796.03
493.587	8976.25
493.79	9174.9
493.994	9052.02
494.197	9158.52
494.401	9230.2
494.605	9262.96
494.808	9451.38
495.012	9521.01
495.215	9455.47
495.419	9443.18
495.622	9441.14
495.825	9762.67
496.029	9740.14
496.232	9748.33
496.436	9860.97
496.639	10002.28
496.843	10080.1
497.046	10202.98
497.249	10219.36
497.453	10235.75
497.656	10567.52
497.859	10403.68
498.063	10293.09
498.266	10805.08
498.469	10757.98
498.673	10702.68
498.876	10901.34
499.079	10995.54
499.282	10862.43
499.485	11255.64
499.689	11188.05
499.892	11480.91
500.095	11452.24
500.298	11945.8
500.501	11695.95
500.705	11966.28
500.908	12066.63
501.111	12042.06
501.314	12382.02
501.517	12478.27
501.72	12316.48
501.923	12506.95
502.126	12904.25
502.329	12934.97
502.532	13281.08
502.735	13180.73
502.938	13268.79
503.141	13336.37
503.344	13451.06
503.547	13655.86
503.75	13662
503.953	14186.28
504.156	14094.12
504.359	14223.14
504.562	14184.23
504.765	14556.96
504.968	14718.75
505.17	14989.08
505.373	14804.77
505.576	15157.02
505.779	15376.15
505.982	15089.43
506.185	15361.81
506.387	15570.71
506.59	15843.09
506.793	16078.6
506.996	16054.03
507.198	16449.28
507.401	16541.44
507.604	16486.15
507.807	16951.04
508.009	16920.32
508.212	16992
508.415	17291
508.617	17796.85
508.82	17774.32
509.022	17452.79
509.225	17882.86
509.428	18106.09
509.63	18220.78
509.833	18527.97
510.035	18728.67
510.238	18865.89
510.44	19025.63
510.643	19199.71
510.845	19273.43
511.048	19261.15
511.25	19476.18
511.453	19656.4
511.655	20256.46
511.858	20291.27
512.06	20287.18
512.262	20537.03
512.465	20350.67
512.667	21061.31
512.87	20825.79
513.072	21081.79
513.274	21774
513.477	21638.84
513.679	21825.2
513.881	21943.99
514.084	22384.3
514.286	22286
514.488	22539.94
514.69	22828.71
514.893	23162.53
515.095	22892.19
515.297	23381.66
515.499	23443.1
515.701	23832.21
515.904	23926.42
516.106	23948.95
516.308	24411.79
516.51	24598.15
516.712	24553.1
516.914	24792.71
517.116	25396.86
517.318	25300.61
517.52	25482.88
517.722	25652.86
517.925	26134.13
518.127	26011.25
518.329	26066.55
518.531	25980.53
518.733	26631.79
518.935	26629.74
519.136	26979.94
519.338	27207.26
519.54	26994.28
519.742	27379.29
519.944	27874.9
520.146	27463.26
520.348	27717.21
520.55	28245.58
520.752	28141.14
520.954	28589.64
521.155	28337.74
521.357	28702.28
521.559	29068.87
521.761	29511.23
521.963	29210.18
522.164	29331.01
522.366	29277.76
522.568	29742.65
522.77	29644.35
522.971	30242.35
523.173	30066.23
523.375	29779.51
523.576	30076.47
523.778	30080.56
523.98	30230.07
524.181	30557.74
524.383	30699.05
524.584	30866.98
524.786	31217.19
524.988	30928.42
525.189	30950.95
525.391	31387.17
525.592	31364.64
525.794	31489.57
525.995	31538.72
526.197	31598.11
526.398	31585.82
526.6	31833.63
526.801	31534.62
527.003	31483.42
527.204	31624.73
527.406	32103.96
527.607	31776.28
527.808	32122.39
528.01	31481.38
528.211	31845.91
528.412	32269.84
528.614	32056.85
528.815	32108.05
529.016	32544.27
529.218	31991.32
529.419	32114.2
529.62	31921.69
529.822	32136.73
530.023	32345.62
530.224	32138.77
530.425	32140.82
530.626	31964.7
530.828	31866.39
531.029	32331.28
531.23	32218.64
531.431	31997.46
531.632	32157.21
531.833	32198.16
532.035	32024.09
532.236	32065.05
532.437	32206.36
532.638	31809.05
532.839	31974.94
533.04	32359.95
533.241	31675.93
533.442	32398.87
533.643	32005.66
533.844	31792.67
534.045	32126.49
534.246	31395.36
534.447	32015.9
534.648	31786.52
534.849	32155.16
535.05	31442.46
535.251	32089.62
535.451	31753.76
535.652	31819.29
535.853	31407.65
536.054	31604.25
536.255	31727.13
536.456	31254.05
536.657	32177.68
536.857	31594.01
537.058	31243.81
537.259	31518.24
537.46	31440.42
537.66	31348.26
537.861	31561.25
538.062	31284.77
538.263	31401.5
538.463	31161.89
538.664	31059.49
538.865	31227.43
539.065	31362.59
539.266	31143.46
539.466	31180.32
539.667	31016.49
539.868	31286.82
540.068	31247.91
540.269	31075.88
540.469	31122.98
540.67	30961.19
540.87	31096.36
541.071	30981.67
541.271	31196.71
541.472	30791.21
541.672	30807.59
541.873	30858.79
542.073	30477.87
542.274	31075.88
542.474	30709.29
542.675	30625.32
542.875	31016.49
543.075	31114.79
543.276	30582.32
543.476	31049.25
543.676	30875.18
543.877	30826.03
544.077	30930.47
544.277	30557.74
544.478	30881.32
544.678	30817.83
544.878	30795.31
545.078	30467.63
545.279	30924.33
545.479	30766.63
545.679	30758.44
545.879	30887.46
546.079	30776.87
546.28	30697
546.48	30207.54
546.68	30883.37
546.88	30608.94
547.08	30742.06
547.28	30883.37
547.48	30451.25
547.68	31151.65
547.88	30385.71
548.081	30914.09
548.281	30746.15
548.481	30570.03
548.681	30764.59
548.881	30570.03
549.081	30772.78
549.28	30633.52
549.48	30963.24
549.68	30621.23
549.88	31174.18
550.08	30543.41
550.28	30580.27
550.48	30834.22
550.68	31075.88
550.88	30559.79
551.08	30522.93
551.279	31049.25
551.479	30633.52
551.679	31004.2
551.879	30811.69
552.079	30795.31
552.278	30733.87
552.478	30613.04
552.678	30762.54
552.878	31061.54
553.077	30713.39
553.277	30332.47
553.477	30983.72
553.676	30836.27
553.876	30848.55
554.076	30744.11
554.275	30625.32
554.475	30357.04
554.674	30725.68
554.874	31172.13
555.074	30629.42
555.273	31383.07
555.473	31256.1
555.672	30555.69
555.872	30631.47
556.071	30918.18
556.271	31055.4
556.47	30727.72
556.67	30678.57
556.869	30864.94
557.068	31057.45
557.268	30633.52
557.467	30993.96
557.667	30758.44
557.866	30930.47
558.065	30830.12
558.265	30770.73
558.464	30866.98
558.663	31368.74
558.863	30748.2
559.062	30944.81
559.261	30940.71
559.461	31252
559.66	30494.25
559.859	30834.22
560.058	30981.67
560.258	31264.29
560.457	30723.63
560.656	31233.57
560.855	30594.61
561.054	30596.65
561.253	31059.49
561.453	30991.91
561.652	30623.28
561.851	30891.56
562.05	30961.19
562.249	30664.24
562.448	30955.05
562.647	30961.19
562.846	31096.36
563.045	30912.04
563.244	30389.81
563.443	30721.58
563.642	30412.34
563.841	30645.8
564.04	30701.1
564.239	31020.58
564.438	30504.49
564.637	30932.52
564.836	30955.05
565.035	30201.4
565.234	30873.13
565.432	30393.9
565.631	30430.77
565.83	30436.91
566.029	30215.73
566.228	30191.16
566.427	30330.42
566.625	30287.41
566.824	29982.26
567.023	30635.56
567.222	29904.44
567.42	30504.49
567.619	30236.21
567.818	30166.58
568.016	30035.51
568.215	30127.67
568.414	29896.25
568.612	29986.36
568.811	29779.51
569.01	29965.88
569.208	29685.31
569.407	29900.34
569.605	29300.29
569.804	29763.13
570.002	29378.11
570.201	29654.59
570.4	29316.67
570.598	29304.38
570.797	29298.24
570.995	29382.21
571.193	29201.99
571.392	29296.19
571.59	29038.15
571.789	29208.13
571.987	29023.81
572.186	29122.12
572.384	29023.81
572.582	28814.92
572.781	29226.56
572.979	28665.42
573.177	28687.95
573.376	28739.15
573.574	28567.12
573.772	28329.55
573.971	28315.22
574.169	28153.43
574.367	28249.68
574.565	28255.82
574.763	27848.28
574.962	28032.6
575.16	27536.99
575.358	28178
575.556	27342.43
575.754	28106.32
575.952	27500.12
576.151	27788.89
576.349	27582.04
576.547	27670.11
576.745	27512.41
576.943	27463.26
577.141	27362.91
577.339	27377.25
577.537	26981.99
577.735	27213.41
577.933	26961.51
578.131	27223.65
578.329	26629.74
578.527	26629.74
578.725	27012.71
578.923	26861.16
579.121	26748.52
579.319	26613.35
579.516	26816.1
579.714	26287.73
579.912	26682.98
580.11	26324.59
580.308	26023.54
580.506	26265.2
580.704	26205.81
580.901	26455.66
581.099	26599.02
581.297	25812.6
581.495	25939.57
581.692	26259.06
581.89	25876.09
582.088	26259.06
582.285	25906.8
582.483	25816.69
582.681	25704.06
582.878	25712.25
583.076	25214.59
583.274	25519.74
583.471	25276.03
583.669	25097.86
583.866	25104
584.064	25241.21
584.262	25069.19
584.459	25257.6
584.657	25104
584.854	25202.3
585.052	24780.42
585.249	24942.21
585.447	24587.91
585.644	24667.78
585.841	24794.76
586.039	24897.16
586.236	24549
586.434	24381.07
586.631	24077.97
586.828	24571.53
587.026	24444.55
587.223	24553.1
587.42	24108.69
587.618	24204.94
587.815	24030.87
588.012	23824.02
588.21	23969.43
588.407	24120.98
588.604	24174.22
588.801	23680.66
588.999	23983.76
589.196	23824.02
589.393	23950.99
589.59	23606.94
589.787	23713.43
589.984	23522.97
590.182	23500.44
590.379	23766.68
590.576	23608.98
590.773	23342.75
590.97	23393.95
591.167	23449.24
591.364	23094.94
591.561	23551.64
591.758	22949.54
591.955	22990.5
592.152	23090.85
592.349	23023.26
592.546	23260.83
592.743	23123.62
592.94	22664.87
593.137	22996.64
593.334	23064.22
593.531	22230.7
593.727	22556.33
593.924	22480.55
594.121	22505.13
594.318	22748.84
594.515	22357.67
594.712	22826.66
594.908	22474.41
595.105	22609.57
595.302	22310.57
595.499	22476.46
595.696	22255.28
595.892	22003.38
596.089	22599.34
596.286	22429.35
596.482	22374.06
596.679	22435.5
596.876	22144.69
597.072	22183.6
597.269	22036.14
597.466	22132.4
597.662	21927.6
597.859	22107.82
598.055	22206.13
598.252	21587.64
598.448	22191.79
598.645	21708.47
598.841	21814.96
599.038	21626.55
599.234	21804.72
599.431	21718.71
599.627	21489.34
599.824	22048.43
600.02	21745.33
600.217	21819.06
600.413	21810.87
600.609	21616.31
600.806	21378.75
601.002	22005.42
601.198	21692.08
601.395	21419.71
601.591	21638.84
601.787	21653.17
601.984	21755.57
602.18	21925.55
602.376	21636.79
602.572	21894.83
602.769	21784.24
602.965	21700.28
603.161	21614.26
603.357	21583.54
603.553	21507.77
603.75	21919.41
603.946	21493.43
604.142	21866.16
604.338	21563.06
604.534	21714.61
604.73	21653.17
604.926	21556.92
605.122	21511.86
605.318	21556.92
605.514	21579.45
605.71	21534.39
605.906	21571.25
606.102	21350.07
606.298	21659.32
606.494	21597.88
606.69	21765.81
606.886	21886.64
607.082	21880.5
607.278	21769.91
607.474	21475
607.67	21593.78
607.866	21368.51
608.062	21774
608.257	21458.62
608.453	21855.92
608.649	21747.38
608.845	21833.39
609.041	21673.65
609.236	22032.05
609.432	21800.63
609.628	21778.1
609.824	21894.83
610.019	21741.24
610.215	21827.25
610.411	22027.95
610.606	22083.25
610.802	21812.92
610.998	21857.97
611.193	21935.79
611.389	21524.15
611.584	22027.95
611.78	21954.22
611.976	21890.74
612.171	22111.92
612.367	21997.23
612.562	21769.91
612.758	21765.81
612.953	21724.85
613.149	22372.01
613.344	21759.67
613.539	22494.89
613.735	22296.24
613.93	22144.69
614.126	22015.66
614.321	22118.06
614.517	22181.55
614.712	22263.47
614.907	22126.25
615.103	22316.72
615.298	22189.74
615.493	22554.28
615.688	21716.66
615.884	22322.86
616.079	21878.45
616.274	22265.52
616.47	22179.5
616.665	22236.84
616.86	21986.99
617.055	22181.55
617.25	21968.56
617.445	21749.43
617.641	21702.32
617.836	21669.56
618.031	21575.35
618.226	21778.1
618.421	21874.35
618.616	22154.93
618.811	21737.14
619.006	22363.82
619.201	21743.28
619.396	21687.99
619.591	21475
619.786	21860.02
619.981	21307.07
620.176	21597.88
620.371	21571.25
620.566	21376.7
620.761	21241.53
620.956	21323.45
621.151	21001.92
621.346	21122.75
621.541	20836.03
621.735	21130.94
621.93	20762.31
622.125	20676.29
622.32	20403.91
622.515	20567.75
622.709	20287.18
622.904	20551.37
623.099	20491.98
623.294	20639.43
623.488	20295.37
623.683	20401.86
623.878	19916.5
624.072	20076.24
624.267	19859.15
624.462	19797.71
624.656	19721.94
624.851	19769.04
625.046	19570.39
625.24	19386.07
625.435	19222.23
625.629	19070.68
625.824	19384.02
626.018	19052.25
626.213	18771.68
626.407	18984.67
626.602	18607.84
626.796	19130.08
626.991	18777.83
627.185	18661.09
627.38	18439.91
627.574	18532.07
627.768	18151.15
627.963	18364.14
628.157	18099.95
628.352	18083.56
628.546	18102
628.74	17880.82
628.935	17807.09
629.129	17678.07
629.323	17694.45
629.517	17493.75
629.712	17469.17
629.906	17321.72
630.1	17538.8
630.294	17377.01
630.489	17129.21
630.683	17393.4
630.877	17041.15
631.071	16846.59
631.265	16992
631.459	16756.48
631.653	16527.11
631.848	16652.03
632.042	16574.21
632.236	16647.94
632.43	16293.64
632.624	16613.12
632.818	16305.93
633.012	16131.85
633.206	16256.78
633.4	15933.2
633.594	15734.54
633.788	15884.05
633.982	16062.22
634.176	15970.06
634.369	15511.32
634.563	15533.84
634.757	15363.86
634.951	15435.54
635.145	15490.84
635.339	15470.36
635.533	15236.89
635.726	15281.94
635.92	15101.72
636.114	15064.86
636.308	14882.59
636.501	15243.03
636.695	14868.25
636.889	14718.75
637.083	14673.7
637.276	14481.19
637.47	14501.67
637.664	14178.09
637.857	14124.84
638.051	14077.74
638.244	14173.99
638.438	14034.73
638.632	14020.39
638.825	14071.59
639.019	13786.93
639.212	13496.11
639.406	13645.62
639.599	13618.99
639.793	13477.68
639.986	13281.08
640.18	13348.66
640.373	13496.11
640.567	13160.25
640.76	12848.96
640.954	12971.83
641.147	13186.87
641.34	13094.71
641.534	13063.99
641.727	12875.58
641.92	12799.8
642.114	12801.85
642.307	12721.98
642.5	12549.95
642.694	12263.24
642.887	12236.61
643.08	12343.11
643.273	11980.62
643.467	12244.81
643.66	12324.68
643.853	12070.73
644.046	11997
644.239	11986.76
644.432	11515.73
644.626	11779.92
644.819	11710.29
645.012	11814.73
645.205	11585.36
645.398	11405.14
645.591	11171.67
645.784	11691.85
645.977	11235.16
646.17	11229.01
646.363	11198.29
646.556	11206.49
646.749	11145.05
646.942	11147.09
647.135	10944.34
647.328	10968.92
647.521	11001.69
647.714	10698.59
647.907	10858.33
648.099	10461.02
648.292	10538.85
648.485	10551.14
648.678	10456.93
648.871	10514.27
649.064	10092.39
649.256	10235.75
649.449	10039.14
649.642	10088.29
649.835	10088.29
650.027	9930.6
650.22	10026.85
650.413	9901.93
650.605	9899.88
650.798	9973.61
650.991	9826.15
651.183	9822.06
651.376	9682.8
651.568	9699.18
651.761	9629.55
651.954	9451.38
652.146	9537.39
652.339	9303.92
652.531	9336.69
652.724	9191.28
652.916	9009.01
653.109	9211.76
653.301	9344.88
653.494	9328.5
653.686	8927.1
653.879	9213.81
654.071	9072.5
654.263	8664.96
654.456	9029.49
654.648	8826.75
654.84	8699.77
655.033	8853.37
655.225	8710.01
655.417	8861.56
655.61	8707.96
655.802	8630.14
655.994	8615.8
656.186	8523.65
656.379	8492.93
656.571	8556.41
656.763	8329.09
656.955	8089.48
657.148	8224.64
657.34	8155.01
657.532	8122.24
657.724	8204.16
657.916	7894.92
658.108	8142.72
658.3	8097.67
658.492	8181.64
658.684	7741.32
658.876	7892.87
659.068	7944.07
659.26	7745.42
659.452	7894.92
659.644	7747.47
659.836	7634.83
660.028	7825.29
660.22	7514
660.412	7360.4
660.604	7466.89
660.796	7434.13
660.988	7413.65
661.18	7393.17
661.372	7278.48
661.563	7278.48
661.755	7051.16
661.947	7237.52
662.139	7026.58
662.331	7163.79
662.522	7026.58
662.714	7069.59
662.906	7024.53
663.097	6856.6
663.289	6836.12
663.481	6780.82
663.673	6920.09
663.864	6715.29
664.056	6801.3
664.247	6803.35
664.439	6588.32
664.631	6641.56
664.822	6563.74
665.014	6516.64
665.205	6451.1
665.397	6457.25
665.588	6498.2
665.78	6264.74
665.971	6453.15
666.163	6332.32
666.354	6191.01
666.546	6270.88
666.737	6184.87
666.929	6315.94
667.12	6270.88
667.311	6209.44
667.503	6137.76
667.694	6197.15
667.885	6086.56
668.077	6082.47
668.268	5787.56
668.459	5973.92
668.651	5973.92
668.842	5879.72
669.033	5703.59
669.224	5773.22
669.416	6111.14
669.607	5922.73
669.798	5724.07
669.989	5832.61
670.18	5748.65
670.371	5576.62
670.563	5621.67
670.754	5443.5
670.945	5443.5
671.136	5615.53
671.327	5521.32
671.518	5476.27
671.709	5445.55
671.9	5590.95
672.091	5453.74
672.282	5406.64
672.473	5347.25
672.664	5466.03
672.855	5306.29
673.046	5232.56
673.237	5320.62
673.428	5226.42
673.619	5253.04
673.809	5171.12
674	5218.22
674.191	5038
674.382	5119.92
674.573	5148.59
674.764	5113.78
674.954	5072.82
675.145	5058.48
675.336	5132.21
675.527	4927.41
675.717	5083.06
675.908	4886.45
676.099	5019.57
676.289	5074.87
676.48	4951.99
676.671	4935.6
676.861	4988.85
677.052	4841.4
677.243	4927.41
677.433	4853.69
677.624	4911.03
677.814	4837.3
678.005	4624.31
678.195	4857.78
678.386	4716.47
678.576	4767.67
678.767	4739
678.957	4644.79
679.148	4779.96
679.338	4655.03
679.529	4757.43
679.719	4642.75
679.909	4669.37
680.1	4661.18
680.29	4634.55
680.481	4501.44
680.671	4589.5
680.861	4634.55
681.052	4585.4
681.242	4511.68
681.432	4599.74
681.622	4487.1
681.813	4648.89
682.003	4433.85
682.193	4358.08
682.383	4521.91
682.573	4468.67
682.764	4552.63
682.954	4435.9
683.144	4431.8
683.334	4427.71
683.524	4483
683.714	4388.8
683.904	4286.4
684.094	4415.42
684.284	4433.85
684.474	4454.33
684.664	4421.56
684.854	4370.37
685.044	4210.62
685.234	4280.25
685.424	4409.28
685.614	4370.37
685.804	4280.25
685.994	4267.97
686.184	4239.3
686.374	4132.8
686.564	4206.53
686.753	4159.42
686.943	4028.35
687.133	4120.51
687.323	4157.38
687.513	4210.62
687.702	3971.01
687.892	4196.29
688.082	4126.66
688.272	4093.89
688.461	4020.16
688.651	4067.27
688.841	4063.17
689.03	4095.94
689.22	4018.11
689.41	3919.81
689.599	3887.04
689.789	4161.47
689.979	3862.47
690.168	3829.7
690.358	3901.38
690.547	3948.48
690.737	3889.09
690.926	3829.7
691.116	3913.67
691.305	3862.47
691.495	3907.52
691.684	3925.96
691.874	3665.86
692.063	3940.29
692.252	3903.43
692.442	3760.07
692.631	3715.02
692.82	3774.41
693.01	3602.38
693.199	3788.74
693.388	3723.21
693.578	3731.4
693.767	3805.13
693.956	3809.22
694.146	3616.71
694.335	3766.21
694.524	3510.22
694.713	3712.97
694.902	3616.71
695.092	3731.4
695.281	3620.81
695.47	3651.53
695.659	3573.71
695.848	3547.08
696.037	3588.04
696.226	3553.23
696.415	3489.74
696.604	3708.87
696.793	3534.79
696.982	3528.65
697.171	3592.14
697.36	3518.41
697.549	3465.16
697.738	3555.27
697.927	3493.83
698.116	3461.07
698.305	3446.73
698.494	3565.51
698.683	3420.11
698.872	3538.89
699.061	3442.64
699.25	3428.3
699.438	3383.24
699.627	3393.48
699.816	3440.59
700.005	3282.89
700.193	3403.72
700.382	3381.2
700.571	3284.94
700.76	3356.62
700.948	3293.13
701.137	3375.05
701.326	3323.85
701.514	3276.75
701.703	3305.42
701.892	3117.01
702.08	3248.08
702.269	3229.65
702.457	3274.7
702.646	3313.61
702.834	3145.68
703.023	3203.02
703.212	3151.82
703.4	3143.63
703.589	3248.08
703.777	3196.88
703.965	3192.78
704.154	3026.9
704.342	3139.54
704.531	3135.44
704.719	3143.63
704.907	3137.49
705.096	3129.3
705.284	3125.2
705.472	2961.36
705.661	3139.54
705.849	2992.08
706.037	2885.59
706.226	3045.33
706.414	2979.79
706.602	2938.84
706.79	2975.7
706.979	2996.18
707.167	2891.73
707.355	2779.09
707.543	2942.93
707.731	3047.38
707.919	2951.12
708.107	2813.91
708.296	2830.29
708.484	2850.77
708.672	2863.06
708.86	2914.26
709.048	2822.1
709.236	2918.36
709.424	2684.89
709.612	2824.15
709.8	2795.48
709.988	2752.47
710.176	2928.6
710.364	2998.23
710.551	2787.29
710.739	2744.28
710.927	2691.03
711.115	2658.26
711.303	2740.18
711.491	2713.56
711.679	2777.05
711.866	2701.27
712.054	2666.46
712.242	2731.99
712.43	2748.37
712.617	2744.28
712.805	2545.63
712.993	2596.82
713.181	2559.96
713.368	2619.35
713.556	2783.19
713.744	2605.02
713.931	2572.25
714.119	2602.97
714.306	2617.3
714.494	2590.68
714.682	2684.89
714.869	2527.19
715.057	2648.02
715.244	2488.28
715.432	2605.02
715.619	2496.47
715.807	2494.43
715.994	2447.32
716.182	2494.43
716.369	2521.05
716.556	2539.48
716.744	2430.94
716.931	2359.26
717.119	2428.89
717.306	2404.32
717.493	2519
717.681	2326.49
717.868	2428.89
718.055	2420.7
718.242	2320.35
718.43	2414.56
718.617	2392.03
718.804	2338.78
718.991	2457.56
719.179	2445.27
719.366	2338.78
719.553	2306.01
719.74	2412.51
719.927	2385.88
720.114	2215.9
720.301	2263.01
720.488	2236.38
720.676	2277.34
720.863	2299.87
721.05	2285.53
721.237	2176.99
721.424	2346.97
721.611	2256.86
721.798	2207.71
721.985	2226.14
722.172	2131.94
722.358	2160.61
722.545	2217.95
722.732	2234.33
722.919	2150.37
723.106	2129.89
723.293	2066.4
723.48	2138.08
723.667	2113.5
723.853	2127.84
724.04	2117.6
724.227	2017.25
724.414	2062.3
724.6	2187.23
724.787	2174.94
724.974	2086.88
725.161	2025.44
725.347	2084.83
725.534	2109.41
725.72	2076.64
725.907	2129.89
726.094	2013.15
726.28	2078.69
726.467	2027.49
726.653	2054.11
726.84	2043.87
727.027	2002.91
727.213	2150.37
727.4	2093.02
727.586	2023.39
727.773	1982.43
727.959	1830.88
728.145	2045.92
728.332	1972.19
728.518	1980.39
728.705	2002.91
728.891	1951.71
729.077	1890.28
729.264	1929.19
729.45	2043.87
729.636	1970.15
729.823	1849.32
730.009	1957.86
730.195	1916.9
730.382	1814.5
730.568	1937.38
730.754	1904.61
730.94	1824.74
731.126	1806.31
731.313	1904.61
731.499	1867.75
731.685	1890.28
731.871	1880.04
732.057	1916.9
732.243	1728.49
732.429	1941.47
732.615	1953.76
732.801	1814.5
732.987	1710.05
733.173	1892.32
733.359	1763.3
733.545	1830.88
733.731	1798.12
733.917	1789.92
734.103	1832.93
734.289	1783.78
734.475	1667.05
734.661	1859.56
734.847	1755.11
735.033	1740.77
735.219	1843.17
735.404	1757.16
735.59	1613.8
735.776	1814.5
735.962	1775.59
736.148	1740.77
736.333	1783.78
736.519	1730.53
736.705	1693.67
736.89	1699.81
737.076	1550.31
737.262	1540.07
737.447	1660.9
737.633	1626.09
737.819	1701.86
738.004	1601.51
738.19	1617.9
738.375	1548.26
738.561	1624.04
738.747	1646.57
738.932	1554.41
739.118	1740.77
739.303	1597.42
739.489	1667.05
739.674	1564.65
739.859	1486.83
740.045	1626.09
740.23	1538.02
740.416	1431.53
740.601	1564.65
740.786	1515.5
740.972	1499.11
741.157	1591.27
741.342	1445.87
741.528	1501.16
741.713	1576.94
741.898	1519.59
742.084	1490.92
742.269	1464.3
742.454	1505.26
742.639	1603.56
742.824	1544.17
743.01	1480.68
743.195	1562.6
743.38	1519.59
743.565	1476.59
743.75	1382.38
743.935	1486.83
744.12	1497.07
744.305	1349.61
744.49	1470.44
744.675	1388.52
744.86	1419.24
745.045	1347.56
745.23	1355.76
745.415	1458.15
745.6	1366
745.785	1361.9
745.97	1454.06
746.155	1298.41
746.34	1322.99
746.525	1302.51
746.71	1384.43
746.895	1349.61
747.079	1218.54
747.264	1306.6
747.449	1277.93
747.634	1325.04
747.819	1306.6
748.003	1259.5
748.188	1290.22
748.373	1198.06
748.557	1202.16
748.742	1245.16
748.927	1325.04
749.111	1232.88
749.296	1183.73
749.481	1202.16
749.665	1185.77
749.85	1157.1
750.034	1218.54
750.219	1155.05
750.404	1159.15
750.588	1202.16
750.773	999.41
750.957	1175.53
751.141	1069.04
751.326	1134.57
751.51	954.35
751.695	1169.39
751.879	1038.32
752.064	1142.77
752.248	1120.24
752.432	1202.16
752.617	1101.81
752.801	1085.42
752.985	1140.72
753.17	1112.05
753.354	1073.14
753.538	1095.66
753.722	1028.08
753.907	1060.85
754.091	1003.5
754.275	1044.46
754.459	952.31
754.643	921.59
754.828	989.17
755.012	1003.5
755.196	905.2
755.38	940.02
755.564	946.16
755.748	980.98
755.932	1003.5
756.116	983.02
756.3	987.12
756.484	929.78
756.668	946.16
756.852	808.95
757.036	868.34
757.22	909.3
757.404	849.91
757.588	880.63
757.772	972.79
757.956	872.43
758.14	921.59
758.323	860.15
758.507	868.34
758.691	937.97
758.875	937.97
759.059	909.3
759.242	854
759.426	856.05
759.61	798.71
759.794	864.24
759.977	784.37
760.161	831.48
760.345	917.49
760.528	847.86
760.712	802.8
760.895	833.52
761.079	827.38
761.263	745.46
761.446	749.56
761.63	798.71
761.813	864.24
761.997	847.86
762.18	776.18
762.364	708.6
762.547	716.79
762.731	776.18
762.914	847.86
763.098	712.69
763.281	751.6
763.464	716.79
763.648	782.32
763.831	751.6
764.015	733.17
764.198	765.94
764.381	780.28
764.564	831.48
764.748	665.59
764.931	704.5
765.114	743.41
765.297	700.41
765.481	643.06
765.664	645.11
765.847	753.65
766.03	684.02
766.213	671.73
766.397	686.07
766.58	747.51
766.763	763.89
766.946	614.39
767.129	694.26
767.312	675.83
767.495	628.73
767.678	677.88
767.861	634.87
768.044	735.22
768.227	741.36
768.41	624.63
768.593	688.12
768.776	630.77
768.959	688.12
769.142	786.42
769.324	679.93
769.507	700.41
769.69	618.49
769.873	577.53
770.056	718.84
770.239	579.58
770.421	702.45
770.604	700.41
770.787	645.11
770.97	598.01
771.152	700.41
771.335	567.29
771.518	530.42
771.7	679.93
771.883	565.24
772.066	608.25
772.248	716.79
772.431	669.69
772.613	655.35
772.796	587.77
772.978	712.69
773.161	626.68
773.343	651.25
773.526	598.01
773.708	546.81
773.891	610.29
774.073	569.34
774.256	548.86
774.438	618.49
774.621	462.84
774.803	595.96
774.985	577.53
775.168	555
775.35	587.77
775.532	598.01
775.715	577.53
775.897	593.91
776.079	610.29
776.261	534.52
776.444	552.95
776.626	552.95
776.808	454.65
776.99	522.23
777.173	542.71
777.355	471.03
777.537	462.84
777.719	516.09
777.901	524.28
778.083	514.04
778.265	507.9
778.447	464.89
778.629	505.85
778.811	581.62
778.993	485.37
779.175	528.38
779.357	401.4
779.539	401.4
779.721	516.09
779.903	473.08
780.085	413.69
780.267	411.64
780.449	438.27
780.631	442.36
780.812	462.84
780.994	507.9
781.176	452.6
781.358	456.7
781.54	481.27
781.721	391.16
781.903	471.03
782.085	430.07
782.267	462.84
782.448	471.03
782.63	446.46
782.812	372.73
782.993	450.55
783.175	462.84
783.357	399.35
783.538	374.78
783.72	337.91
783.901	489.46
784.083	397.31
784.264	413.69
784.446	356.35
784.627	348.15
784.809	317.44
784.99	372.73
785.172	296.96
785.353	311.29
785.535	405.5
785.716	309.24
785.897	380.92
786.079	405.5
786.26	348.15
786.441	333.82
786.623	301.05
786.804	348.15
786.985	266.24
787.167	372.73
787.348	309.24
787.529	368.63
787.71	417.79
787.891	319.48
788.073	303.1
788.254	266.24
788.435	366.59
788.616	256
788.797	288.76
788.978	288.76
789.159	356.35
789.34	438.27
789.522	282.62
789.703	282.62
789.884	290.81
790.065	303.1
790.246	266.24
790.427	299
790.607	299
790.788	253.95
790.969	274.43
791.15	382.97
791.331	333.82
791.512	233.47
791.693	227.32
791.874	235.52
792.054	344.06
792.235	307.2
792.416	301.05
792.597	274.43
792.778	260.09
792.958	268.28
793.139	319.48
793.32	372.73
793.5	245.76
793.681	309.24
793.862	339.96
794.042	278.52
794.223	282.62
794.404	200.7
794.584	186.37
794.765	151.55
794.945	217.08
795.126	225.28
795.306	202.75
795.487	217.08
795.667	204.8
795.848	348.15
796.028	141.31
796.209	276.48
796.389	178.17
796.57	219.13
796.75	172.03
796.93	210.94
797.111	120.83
797.291	229.37
797.471	258.04
797.652	299
797.832	200.7
798.012	155.65
798.192	178.17
798.373	196.6
798.553	192.51
798.733	116.73
798.913	167.93
799.093	264.19
799.274	155.65
799.454	270.33
799.634	208.89
799.814	243.71
799.994	227.32
800.174	200.7
800.354	204.8
800.534	212.99
800.714	126.97
800.894	90.11
801.074	167.93
801.254	229.37
801.434	145.41
801.614	180.22
801.794	235.52
801.974	942.07
802.154	86.01
802.334	276.48
802.514	86.01
802.693	135.17
802.873	143.36
803.053	200.7
803.233	172.03
803.413	126.97
803.592	276.48
803.772	131.07
803.952	143.36
804.131	79.87
804.311	315.39
804.491	247.8
804.67	167.93
804.85	145.41
805.03	163.84
805.209	159.74
805.389	139.26
805.568	151.55
805.748	212.99
805.928	151.55
806.107	223.23
806.287	159.74
806.466	186.37
806.646	176.13
806.825	92.16
807.004	163.84
807.184	149.5
807.363	176.13
807.543	192.51
807.722	139.26
807.901	217.08
808.081	186.37
808.26	40.96
808.439	94.21
808.619	139.26
808.798	176.13
808.977	294.91
809.156	163.84
809.336	184.32
809.515	180.22
809.694	94.21
809.873	106.49
810.052	106.49
810.231	120.83
810.411	110.59
810.59	210.94
810.769	153.6
810.948	81.92
811.127	61.44
811.306	88.06
811.485	151.55
811.664	192.51
811.843	73.73
812.022	159.74
812.201	180.22
812.38	172.03
812.559	69.63
812.737	145.41
812.916	143.36
813.095	102.4
813.274	176.13
813.453	147.45
813.632	145.41
813.811	149.5
813.989	45.06
814.168	159.74
814.347	118.78
814.526	176.13
814.704	165.89
814.883	159.74
815.062	122.88
815.24	143.36
815.419	77.82
815.598	88.06
815.776	180.22
815.955	94.21
816.133	77.82
816.312	108.54
816.49	159.74
816.669	106.49
816.847	118.78
817.026	106.49
817.204	108.54
817.383	120.83
817.561	65.53
817.74	131.07
817.918	143.36
818.097	118.78
818.275	32.77
818.453	53.25
818.632	38.91
818.81	77.82
818.988	71.68
819.167	71.68
819.345	71.68
819.523	45.06
819.701	96.25
819.879	194.56
820.058	186.37
820.236	61.44
820.414	100.35
820.592	118.78
820.77	126.97
820.948	67.58
821.127	22.53
821.305	63.49
821.483	75.77
821.661	73.73
821.839	120.83
822.017	102.4
822.195	-8.19
822.373	151.55
822.551	81.92
822.729	86.01
822.907	57.34
823.085	133.12
823.262	114.69
823.44	57.34
823.618	6.14
823.796	145.41
823.974	126.97
824.152	61.44
824.329	49.15
824.507	100.35
824.685	110.59
824.863	116.73
825.04	61.44
825.218	77.82
825.396	106.49
825.574	90.11
825.751	16.38
825.929	145.41
826.107	77.82
826.284	10.24
826.462	55.3
826.639	53.25
826.817	73.73
826.994	104.45
827.172	36.86
827.349	102.4
827.527	47.1
827.704	65.53
827.882	145.41
828.059	86.01
828.237	38.91
828.414	83.97
828.591	-10.24
828.769	88.06
828.946	45.06
829.124	133.12
829.301	53.25
829.478	102.4
829.655	86.01
829.833	90.11
830.01	116.73
830.187	8.19
830.364	43.01
830.542	61.44
830.719	47.1
830.896	98.3
831.073	102.4
831.25	145.41
831.427	118.78
831.604	18.43
831.782	16.38
831.959	102.4
832.136	-2.05
832.313	77.82
832.49	4.1
832.667	122.88
832.844	92.16
833.021	73.73
833.198	67.58
833.374	-45.06
833.551	131.07
833.728	55.3
833.905	79.87
834.082	32.77
834.259	176.13
834.436	145.41
834.612	49.15
834.789	69.63
834.966	30.72
835.143	135.17
835.319	69.63
835.496	57.34
835.673	8.19
835.85	149.5
836.026	61.44
836.203	20.48
836.38	30.72
836.556	32.77
836.733	32.77
836.909	86.01
837.086	22.53
837.262	30.72
837.439	-6.14
837.616	71.68
837.792	36.86
837.968	88.06
838.145	24.58
838.321	88.06
838.498	102.4
838.674	71.68
838.851	45.06
839.027	61.44
839.203	36.86
839.38	90.11
839.556	-8.19
839.732	79.87
839.909	61.44
840.085	163.84
840.261	20.48
840.437	61.44
840.614	8.19
840.79	98.3
840.966	32.77
841.142	28.67
841.318	77.82
841.494	73.73
841.671	-40.96
841.847	18.43
842.023	26.62
842.199	-28.67
842.375	20.48
842.551	-20.48
842.727	-26.62
842.903	118.78
843.079	32.77
843.255	169.98
843.431	-4.1
843.607	-61.44
843.783	20.48
843.959	-14.34
844.134	45.06
844.31	110.59
844.486	69.63
844.662	22.53
844.838	77.82
845.013	45.06
845.189	131.07
845.365	12.29
845.541	53.25
845.716	20.48
845.892	61.44
846.068	77.82
846.244	36.86
846.419	40.96
846.595	88.06
846.77	67.58
846.946	-0
847.122	2.05
847.297	28.67
847.473	36.86
847.648	-24.58
847.824	57.34
847.999	-40.96
848.175	-34.82
848.35	114.69
848.526	53.25
848.701	51.2
848.876	40.96
849.052	83.97
849.227	-12.29
849.403	-26.62
849.578	77.82
849.753	4.1
849.929	102.4
850.104	16.38
850.279	86.01
850.454	20.48
850.63	20.48
850.805	22.53
850.98	-28.67
851.155	-0
851.33	45.06
851.505	-49.15
851.681	149.5
851.856	57.34
852.031	-24.58
852.206	57.34
852.381	32.77
852.556	20.48
852.731	90.11
852.906	69.63
853.081	18.43
853.256	32.77
853.431	12.29
853.606	12.29
853.781	-8.19
853.956	-20.48
854.131	47.1
854.305	8.19
854.48	12.29
854.655	53.25
854.83	55.3
855.005	96.25
855.18	-2.05
855.354	28.67
855.529	24.58
855.704	-28.67
855.879	112.64
856.053	-8.19
856.228	32.77
856.403	-32.77
856.577	63.49
856.752	81.92
856.926	-36.86
857.101	4.1
857.276	8.19
857.45	12.29
857.625	90.11
857.799	30.72
857.974	45.06
858.148	-98.3
858.323	45.06
858.497	-8.19
858.672	-0
858.846	-59.39
859.02	126.97
859.195	-43.01
859.369	-18.43
859.543	20.48
859.718	40.96
859.892	59.39
860.066	32.77
860.241	-10.24
860.415	86.01
860.589	22.53
860.763	-59.39
860.938	-2.05
861.112	30.72
861.286	-53.25
861.46	63.49
861.634	73.73
861.808	69.63
861.982	12.29
862.157	-61.44
862.331	16.38
862.505	30.72
862.679	12.29
862.853	110.59
863.027	-26.62
863.201	102.4
863.375	57.34
863.549	57.34
863.722	32.77
863.896	38.91
864.07	-65.54
864.244	-4.1
864.418	20.48
864.592	-40.96
864.766	-34.82
864.939	4.1
865.113	-4.1
865.287	96.25
865.461	-57.34
865.634	24.58
865.808	26.62
865.982	61.44
866.156	22.53
866.329	36.86
866.503	-14.34
866.676	45.06
866.85	67.58
867.024	36.86
867.197	28.67
867.371	53.25
867.544	-6.14
867.718	-43.01
867.891	-32.77
868.065	-65.54
868.238	-4.1
868.412	63.49
868.585	20.48
868.759	-20.48
868.932	-2.05
869.105	6.14
869.279	86.01
869.452	-4.1
869.625	-10.24
869.799	36.86
869.972	24.58
870.145	-20.48
870.319	-4.1
870.492	-6.14
870.665	-2.05
870.838	22.53
871.011	-38.91
871.185	-4.1
871.358	-49.15
871.531	34.82
871.704	4.1
871.877	71.68
872.05	-20.48
872.223	47.1
872.396	98.3
872.569	-14.34
872.742	-40.96
872.915	16.38
873.088	-45.06
873.261	-8.19
873.434	-16.38
873.607	-4.1
873.78	100.35
873.953	43.01
874.126	-18.43
874.299	69.63
874.471	-36.86
874.644	38.91
874.817	-0
874.99	61.44
875.163	67.58
875.335	-6.14
875.508	-10.24
875.681	71.68
875.853	36.86
876.026	90.11
876.199	-4.1
876.371	6.14
876.544	51.2
876.717	61.44
876.889	-47.1
877.062	63.49
877.234	-79.87
877.407	14.34
877.579	26.62
877.752	77.82
877.924	43.01
878.097	81.92
878.269	51.2
878.442	49.15
878.614	40.96
878.786	20.48
878.959	53.25
879.131	-14.34
879.303	-22.53
879.476	-26.62
879.648	57.34
879.82	-45.06
879.993	45.06
880.165	43.01
880.337	-20.48
880.509	53.25
880.681	-0
880.854	4.1
881.026	40.96
881.198	67.58
881.37	-2.05
881.542	-8.19
881.714	26.62
881.886	-36.86
882.058	49.15
882.23	2.05
882.402	30.72
882.574	-16.38
882.746	20.48
882.918	-18.43
883.09	12.29
883.262	-53.25
883.434	-4.1
883.606	43.01
883.778	-20.48
883.95	22.53
884.122	-24.58
884.293	14.34
884.465	40.96
884.637	45.06
884.809	-4.1
884.98	112.64
885.152	4.1
885.324	71.68
885.496	12.29
885.667	-4.1
885.839	24.58
886.011	22.53
886.182	59.39
886.354	38.91
886.525	20.48
886.697	12.29
886.869	-16.38
887.04	-59.39
887.212	49.15
887.383	59.39
887.555	-28.67
887.726	4.1
887.897	6.14
888.069	-4.1
888.24	53.25
888.412	20.48
888.583	45.06
888.754	-14.34
888.926	-14.34
889.097	-51.2
889.268	-12.29
889.44	-10.24
889.611	-61.44
889.782	14.34
889.953	16.38
890.125	45.06
890.296	-0
890.467	-10.24
890.638	16.38
890.809	59.39
890.98	-2.05
891.151	-18.43
891.323	10.24
891.494	30.72
891.665	-51.2
891.836	34.82
892.007	49.15
892.178	79.87
892.349	-10.24
892.52	-73.73
892.691	81.92
892.862	38.91
893.032	-36.86
893.203	-118.78
893.374	34.82
893.545	-4.1
893.716	-43.01
893.887	-40.96
894.057	28.67
894.228	16.38
894.399	-22.53
894.57	43.01
894.74	-40.96
894.911	-4.1
895.082	-4.1
895.253	53.25
895.423	-14.34
895.594	96.25
895.764	32.77
895.935	38.91
896.106	8.19
896.276	65.53
896.447	-4.1
896.617	-34.82
896.788	-36.86
896.958	-53.25
897.129	-20.48
897.299	12.29
897.47	4.1
897.64	-45.06
897.81	-102.4
897.981	30.72
898.151	28.67
898.322	-4.1
898.492	-8.19
898.662	12.29
898.832	28.67
899.003	12.29
899.173	38.91
899.343	-2.05
899.513	-20.48
