Data from USB4F104151__51__14-29-59-107.txt Node

Date: Thu Mar 13 14:29:59 EDT 2025
User: louis
Spectrometer: USB4F10415
Trigger mode: 4
Integration Time (sec): 2.500000E-2
Scans to average: 1
Electric dark correction enabled: true
Nonlinearity correction enabled: false
Boxcar width: 0
XAxis mode: Wavelengths
Number of Pixels in Spectrum: 3648
>>>>>Begin Spectral Data<<<<<
178.204	-200.36
178.424	-200.36
178.644	-200.36
178.864	-143.02
179.084	-194.22
179.304	-3.75
179.524	14.68
179.744	-26.28
179.964	53.59
180.184	33.11
180.404	-69.29
180.624	-16.04
180.844	37.2
181.064	-52.91
181.283	-61.1
181.503	53.59
181.723	37.2
181.943	-44.71
182.163	90.45
182.383	12.63
182.602	37.2
182.822	112.98
183.042	8.53
183.262	-67.24
183.482	-20.14
183.701	22.87
183.921	12.63
184.141	20.82
184.361	55.64
184.58	-26.28
184.8	-9.9
185.02	31.06
185.239	135.51
185.459	37.2
185.679	45.4
185.898	-20.14
186.118	98.64
186.338	-3.75
186.557	78.16
186.777	41.3
186.997	-32.43
187.216	33.11
187.436	-69.29
187.655	31.06
187.875	45.4
188.095	29.01
188.314	-5.8
188.534	-9.9
188.753	16.73
188.973	61.78
189.192	76.12
189.412	0.34
189.631	-28.33
189.851	20.82
190.07	45.4
190.29	-52.91
190.509	57.68
190.729	55.64
190.948	20.82
191.168	188.75
191.387	24.92
191.607	53.59
191.826	14.68
192.045	57.68
192.265	-11.95
192.484	12.63
192.704	-1.71
192.923	-44.71
193.142	110.93
193.362	-32.43
193.581	31.06
193.8	16.73
194.02	63.83
194.239	-40.62
194.458	20.82
194.678	33.11
194.897	65.88
195.116	-1.71
195.335	20.82
195.555	33.11
195.774	-3.75
195.993	12.63
196.212	-69.29
196.432	20.82
196.651	10.58
196.87	98.64
197.089	168.27
197.308	4.44
197.528	4.44
197.747	12.63
197.966	12.63
198.185	-18.09
198.404	-24.23
198.623	12.63
198.842	37.2
199.062	0.34
199.281	104.79
199.5	18.77
199.719	41.3
199.938	12.63
200.157	31.06
200.376	69.97
200.595	92.5
200.814	33.11
201.033	51.54
201.252	53.59
201.471	78.16
201.69	29.01
201.909	86.36
202.128	29.01
202.347	61.78
202.566	16.73
202.785	78.16
203.004	-38.57
203.223	98.64
203.442	61.78
203.661	33.11
203.879	-3.75
204.098	-9.9
204.317	-48.81
204.536	16.73
204.755	12.63
204.974	80.21
205.193	6.49
205.411	176.47
205.63	20.82
205.849	24.92
206.068	2.39
206.287	10.58
206.505	41.3
206.724	33.11
206.943	14.68
207.162	4.44
207.381	-9.9
207.599	12.63
207.818	10.58
208.037	-28.33
208.255	49.49
208.474	67.92
208.693	31.06
208.911	-1.71
209.13	-42.67
209.349	0.34
209.567	74.07
209.786	74.07
210.005	106.84
210.223	92.5
210.442	-26.28
210.661	55.64
210.879	55.64
211.098	4.44
211.316	-9.9
211.535	82.26
211.753	4.44
211.972	74.07
212.191	37.2
212.409	57.68
212.628	-3.75
212.846	33.11
213.065	55.64
213.283	37.2
213.502	94.55
213.72	31.06
213.938	-3.75
214.157	24.92
214.375	43.35
214.594	29.01
214.812	65.88
215.031	47.44
215.249	45.4
215.467	4.44
215.686	51.54
215.904	-16.04
216.122	31.06
216.341	69.97
216.559	14.68
216.778	88.4
216.996	80.21
217.214	47.44
217.432	8.53
217.651	-3.75
217.869	59.73
218.087	31.06
218.306	53.59
218.524	-11.95
218.742	41.3
218.96	61.78
219.179	53.59
219.397	0.34
219.615	69.97
219.833	78.16
220.051	63.83
220.27	47.44
220.488	76.12
220.706	-36.52
220.924	-3.75
221.142	53.59
221.36	0.34
221.578	37.2
221.796	-26.28
222.015	31.06
222.233	20.82
222.451	69.97
222.669	55.64
222.887	12.63
223.105	-9.9
223.323	65.88
223.541	57.68
223.759	-42.67
223.977	-11.95
224.195	45.4
224.413	88.4
224.631	55.64
224.849	37.2
225.067	16.73
225.285	47.44
225.503	10.58
225.721	-28.33
225.939	-28.33
226.157	29.01
226.375	119.12
226.592	31.06
226.81	10.58
227.028	24.92
227.246	96.6
227.464	-20.14
227.682	-9.9
227.9	88.4
228.117	4.44
228.335	31.06
228.553	0.34
228.771	2.39
228.989	-16.04
229.206	80.21
229.424	10.58
229.642	-13.99
229.86	12.63
230.077	-16.04
230.295	84.31
230.513	20.82
230.731	78.16
230.948	31.06
231.166	100.69
231.384	53.59
231.601	106.84
231.819	29.01
232.037	29.01
232.254	16.73
232.472	41.3
232.689	-46.76
232.907	57.68
233.125	12.63
233.342	-11.95
233.56	49.49
233.777	14.68
233.995	63.83
234.213	78.16
234.43	37.2
234.648	-20.14
234.865	4.44
235.083	55.64
235.3	65.88
235.518	55.64
235.735	51.54
235.953	29.01
236.17	43.35
236.388	80.21
236.605	20.82
236.822	61.78
237.04	18.77
237.257	29.01
237.475	57.68
237.692	29.01
237.909	29.01
238.127	43.35
238.344	20.82
238.562	39.25
238.779	-44.71
238.996	-40.62
239.214	-54.95
239.431	51.54
239.648	-16.04
239.865	33.11
240.083	24.92
240.3	6.49
240.517	47.44
240.735	45.4
240.952	90.45
241.169	4.44
241.386	-30.38
241.603	2.39
241.821	14.68
242.038	29.01
242.255	41.3
242.472	-46.76
242.689	57.68
242.907	16.73
243.124	31.06
243.341	53.59
243.558	-11.95
243.775	29.01
243.992	-32.43
244.209	24.92
244.426	127.32
244.643	45.4
244.86	-3.75
245.078	33.11
245.295	4.44
245.512	37.2
245.729	-28.33
245.946	12.63
246.163	39.25
246.38	47.44
246.597	69.97
246.814	63.83
247.031	12.63
247.248	12.63
247.464	29.01
247.681	59.73
247.898	2.39
248.115	59.73
248.332	53.59
248.549	29.01
248.766	22.87
248.983	53.59
249.2	-28.33
249.417	14.68
249.633	35.16
249.85	8.53
250.067	-18.09
250.284	31.06
250.501	39.25
250.717	106.84
250.934	18.77
251.151	86.36
251.368	31.06
251.585	37.2
251.801	43.35
252.018	-40.62
252.235	88.4
252.451	-20.14
252.668	-13.99
252.885	20.82
253.102	20.82
253.318	14.68
253.535	39.25
253.752	-11.95
253.968	-1.71
254.185	-50.86
254.401	53.59
254.618	29.01
254.835	-11.95
255.051	147.8
255.268	0.34
255.484	10.58
255.701	-65.19
255.917	57.68
256.134	31.06
256.351	31.06
256.567	16.73
256.784	4.44
257	-7.85
257.217	80.21
257.433	10.58
257.65	78.16
257.866	112.98
258.082	-42.67
258.299	6.49
258.515	0.34
258.732	18.77
258.948	-32.43
259.165	78.16
259.381	2.39
259.597	35.16
259.814	-11.95
260.03	78.16
260.246	49.49
260.463	43.35
260.679	20.82
260.895	41.3
261.112	20.82
261.328	6.49
261.544	-65.19
261.761	35.16
261.977	-20.14
262.193	-18.09
262.409	43.35
262.626	39.25
262.842	35.16
263.058	29.01
263.274	-7.85
263.49	61.78
263.707	47.44
263.923	16.73
264.139	29.01
264.355	49.49
264.571	12.63
264.787	69.97
265.004	45.4
265.22	53.59
265.436	49.49
265.652	14.68
265.868	37.2
266.084	43.35
266.3	-18.09
266.516	-11.95
266.732	96.6
266.948	20.82
267.164	45.4
267.38	-1.71
267.596	135.51
267.812	45.4
268.028	94.55
268.244	41.3
268.46	-44.71
268.676	61.78
268.892	12.63
269.108	20.82
269.324	-28.33
269.54	-24.23
269.756	12.63
269.972	-48.81
270.188	16.73
270.403	-20.14
270.619	61.78
270.835	33.11
271.051	-7.85
271.267	-3.75
271.483	-32.43
271.698	49.49
271.914	2.39
272.13	-28.33
272.346	6.49
272.562	45.4
272.777	12.63
272.993	12.63
273.209	31.06
273.425	-79.53
273.64	-1.71
273.856	-52.91
274.072	72.02
274.287	8.53
274.503	4.44
274.719	31.06
274.934	29.01
275.15	69.97
275.366	49.49
275.581	-28.33
275.797	65.88
276.012	31.06
276.228	-18.09
276.444	51.54
276.659	29.01
276.875	-32.43
277.09	82.26
277.306	18.77
277.521	45.4
277.737	41.3
277.952	10.58
278.168	72.02
278.383	12.63
278.599	-24.23
278.814	22.87
279.03	4.44
279.245	61.78
279.461	-9.9
279.676	104.79
279.892	-9.9
280.107	-28.33
280.322	57.68
280.538	-57
280.753	8.53
280.969	-18.09
281.184	-30.38
281.399	47.44
281.615	33.11
281.83	-24.23
282.045	20.82
282.26	39.25
282.476	2.39
282.691	12.63
282.906	2.39
283.122	16.73
283.337	8.53
283.552	-24.23
283.767	12.63
283.983	102.74
284.198	-32.43
284.413	88.4
284.628	14.68
284.843	57.68
285.058	-18.09
285.274	16.73
285.489	16.73
285.704	53.59
285.919	4.44
286.134	33.11
286.349	45.4
286.564	14.68
286.779	90.45
286.995	-3.75
287.21	-16.04
287.425	20.82
287.64	-61.1
287.855	37.2
288.07	4.44
288.285	37.2
288.5	45.4
288.715	53.59
288.93	-11.95
289.145	-65.19
289.36	63.83
289.575	53.59
289.79	92.5
290.004	57.68
290.219	49.49
290.434	12.63
290.649	-42.67
290.864	125.27
291.079	-11.95
291.294	4.44
291.509	26.96
291.724	-24.23
291.938	6.49
292.153	-7.85
292.368	20.82
292.583	35.16
292.798	76.12
293.012	20.82
293.227	80.21
293.442	53.59
293.657	115.03
293.871	127.32
294.086	41.3
294.301	63.83
294.516	61.78
294.73	-9.9
294.945	61.78
295.16	43.35
295.374	72.02
295.589	98.64
295.804	-50.86
296.018	-7.85
296.233	76.12
296.447	41.3
296.662	-30.38
296.877	98.64
297.091	-42.67
297.306	-3.75
297.52	78.16
297.735	55.64
297.949	-32.43
298.164	49.49
298.378	-26.28
298.593	8.53
298.807	-50.86
299.022	-11.95
299.236	127.32
299.451	53.59
299.665	-11.95
299.88	18.77
300.094	78.16
300.309	69.97
300.523	6.49
300.737	33.11
300.952	4.44
301.166	53.59
301.381	41.3
301.595	-9.9
301.809	80.21
302.024	4.44
302.238	-20.14
302.452	78.16
302.667	-5.8
302.881	74.07
303.095	29.01
303.309	88.4
303.524	-36.52
303.738	24.92
303.952	-75.43
304.166	65.88
304.381	-65.19
304.595	102.74
304.809	24.92
305.023	-13.99
305.237	18.77
305.452	6.49
305.666	-5.8
305.88	35.16
306.094	78.16
306.308	61.78
306.522	-20.14
306.736	-1.71
306.95	16.73
307.164	-3.75
307.379	33.11
307.593	121.17
307.807	119.12
308.021	41.3
308.235	20.82
308.449	-48.81
308.663	88.4
308.877	96.6
309.091	16.73
309.305	63.83
309.519	20.82
309.733	59.73
309.947	14.68
310.161	69.97
310.374	12.63
310.588	45.4
310.802	-36.52
311.016	37.2
311.23	-36.52
311.444	-1.71
311.658	33.11
311.872	110.93
312.085	10.58
312.299	141.65
312.513	78.16
312.727	22.87
312.941	-7.85
313.154	-34.47
313.368	29.01
313.582	0.34
313.796	20.82
314.009	-3.75
314.223	39.25
314.437	65.88
314.651	41.3
314.864	22.87
315.078	-48.81
315.292	-11.95
315.505	-28.33
315.719	45.4
315.933	51.54
316.146	4.44
316.36	4.44
316.573	-1.71
316.787	61.78
317.001	53.59
317.214	-1.71
317.428	31.06
317.641	-7.85
317.855	22.87
318.068	29.01
318.282	102.74
318.495	72.02
318.709	78.16
318.922	0.34
319.136	37.2
319.349	53.59
319.563	6.49
319.776	0.34
319.99	-32.43
320.203	72.02
320.417	31.06
320.63	20.82
320.843	12.63
321.057	-46.76
321.27	29.01
321.483	78.16
321.697	69.97
321.91	8.53
322.124	12.63
322.337	41.3
322.55	29.01
322.763	-3.75
322.977	65.88
323.19	35.16
323.403	45.4
323.617	76.12
323.83	55.64
324.043	-3.75
324.256	137.56
324.469	33.11
324.683	29.01
324.896	47.44
325.109	-3.75
325.322	-59.05
325.535	45.4
325.748	65.88
325.962	22.87
326.175	24.92
326.388	55.64
326.601	143.7
326.814	53.59
327.027	37.2
327.24	-7.85
327.453	45.4
327.666	39.25
327.879	127.32
328.092	20.82
328.305	153.94
328.518	4.44
328.731	18.77
328.944	22.87
329.157	74.07
329.37	-18.09
329.583	84.31
329.796	63.83
330.009	29.01
330.222	16.73
330.435	51.54
330.648	22.87
330.861	94.55
331.073	33.11
331.286	82.26
331.499	41.3
331.712	4.44
331.925	-1.71
332.138	51.54
332.35	129.36
332.563	-16.04
332.776	55.64
332.989	-18.09
333.202	16.73
333.414	74.07
333.627	2.39
333.84	10.58
334.053	29.01
334.265	29.01
334.478	49.49
334.691	33.11
334.903	74.07
335.116	78.16
335.329	39.25
335.541	51.54
335.754	53.59
335.966	41.3
336.179	110.93
336.392	94.55
336.604	86.36
336.817	39.25
337.029	55.64
337.242	45.4
337.454	49.49
337.667	-18.09
337.88	147.8
338.092	63.83
338.305	29.01
338.517	39.25
338.729	57.68
338.942	41.3
339.154	31.06
339.367	6.49
339.579	31.06
339.792	82.26
340.004	49.49
340.217	45.4
340.429	104.79
340.641	12.63
340.854	12.63
341.066	4.44
341.278	57.68
341.491	143.7
341.703	94.55
341.915	-52.91
342.128	45.4
342.34	8.53
342.552	39.25
342.764	29.01
342.977	-32.43
343.189	82.26
343.401	61.78
343.613	-18.09
343.826	49.49
344.038	18.77
344.25	51.54
344.462	31.06
344.674	37.2
344.886	10.58
345.099	90.45
345.311	45.4
345.523	78.16
345.735	8.53
345.947	80.21
346.159	69.97
346.371	57.68
346.583	-11.95
346.795	78.16
347.007	-16.04
347.219	2.39
347.431	16.73
347.643	67.92
347.855	-38.57
348.067	69.97
348.279	-20.14
348.491	49.49
348.703	61.78
348.915	-22.19
349.127	-20.14
349.339	166.23
349.551	65.88
349.763	94.55
349.975	-63.15
350.187	72.02
350.399	74.07
350.61	65.88
350.822	96.6
351.034	65.88
351.246	29.01
351.458	22.87
351.669	53.59
351.881	63.83
352.093	45.4
352.305	86.36
352.517	78.16
352.728	10.58
352.94	45.4
353.152	-11.95
353.363	-20.14
353.575	24.92
353.787	-3.75
353.999	37.2
354.21	37.2
354.422	6.49
354.633	-28.33
354.845	69.97
355.057	-11.95
355.268	0.34
355.48	-9.9
355.692	29.01
355.903	41.3
356.115	-61.1
356.326	-77.48
356.538	39.25
356.749	33.11
356.961	84.31
357.172	-7.85
357.384	72.02
357.595	69.97
357.807	41.3
358.018	33.11
358.23	-44.71
358.441	94.55
358.653	98.64
358.864	43.35
359.075	110.93
359.287	37.2
359.498	63.83
359.709	65.88
359.921	63.83
360.132	55.64
360.344	57.68
360.555	35.16
360.766	29.01
360.977	47.44
361.189	12.63
361.4	145.75
361.611	110.93
361.823	61.78
362.034	4.44
362.245	-11.95
362.456	45.4
362.667	16.73
362.879	16.73
363.09	82.26
363.301	102.74
363.512	80.21
363.723	29.01
363.935	67.92
364.146	45.4
364.357	29.01
364.568	24.92
364.779	72.02
364.99	82.26
365.201	22.87
365.412	57.68
365.623	-36.52
365.834	53.59
366.045	22.87
366.256	72.02
366.467	104.79
366.678	33.11
366.889	51.54
367.1	33.11
367.311	16.73
367.522	22.87
367.733	63.83
367.944	41.3
368.155	43.35
368.366	53.59
368.577	49.49
368.788	76.12
368.999	-7.85
369.209	76.12
369.42	96.6
369.631	123.22
369.842	61.78
370.053	53.59
370.264	47.44
370.474	45.4
370.685	53.59
370.896	86.36
371.107	14.68
371.317	39.25
371.528	45.4
371.739	86.36
371.95	31.06
372.16	45.4
372.371	-7.85
372.582	-26.28
372.792	29.01
373.003	-3.75
373.214	22.87
373.424	20.82
373.635	45.4
373.846	94.55
374.056	-28.33
374.267	41.3
374.477	84.31
374.688	-16.04
374.898	33.11
375.109	24.92
375.319	31.06
375.53	119.12
375.74	121.17
375.951	-20.14
376.161	16.73
376.372	108.88
376.582	45.4
376.793	76.12
377.003	49.49
377.214	67.92
377.424	29.01
377.635	61.78
377.845	12.63
378.055	102.74
378.266	31.06
378.476	61.78
378.686	86.36
378.897	63.83
379.107	80.21
379.317	59.73
379.528	8.53
379.738	35.16
379.948	76.12
380.158	131.41
380.369	16.73
380.579	115.03
380.789	88.4
380.999	106.84
381.21	98.64
381.42	84.31
381.63	-3.75
381.84	43.35
382.05	18.77
382.261	65.88
382.471	96.6
382.681	24.92
382.891	110.93
383.101	133.46
383.311	0.34
383.521	57.68
383.731	104.79
383.941	96.6
384.151	129.36
384.361	69.97
384.571	16.73
384.781	69.97
384.991	47.44
385.201	117.08
385.411	92.5
385.621	20.82
385.831	47.44
386.041	24.92
386.251	65.88
386.461	51.54
386.671	61.78
386.881	55.64
387.091	72.02
387.301	39.25
387.511	53.59
387.72	86.36
387.93	-5.8
388.14	-9.9
388.35	72.02
388.56	53.59
388.769	94.55
388.979	86.36
389.189	31.06
389.399	69.97
389.609	123.22
389.818	49.49
390.028	29.01
390.238	104.79
390.447	26.96
390.657	112.98
390.867	37.2
391.076	-11.95
391.286	59.73
391.496	86.36
391.705	47.44
391.915	45.4
392.125	31.06
392.334	37.2
392.544	94.55
392.753	24.92
392.963	8.53
393.172	108.88
393.382	49.49
393.591	119.12
393.801	6.49
394.01	115.03
394.22	72.02
394.429	22.87
394.639	88.4
394.848	102.74
395.058	86.36
395.267	14.68
395.477	149.84
395.686	123.22
395.895	139.6
396.105	170.32
396.314	151.89
396.524	106.84
396.733	24.92
396.942	149.84
397.152	112.98
397.361	127.32
397.57	137.56
397.78	47.44
397.989	90.45
398.198	37.2
398.407	112.98
398.617	112.98
398.826	94.55
399.035	16.73
399.244	112.98
399.453	166.23
399.663	45.4
399.872	106.84
400.081	61.78
400.29	76.12
400.499	80.21
400.708	117.08
400.917	164.18
401.127	69.97
401.336	61.78
401.545	162.13
401.754	106.84
401.963	106.84
402.172	108.88
402.381	74.07
402.59	90.45
402.799	45.4
403.008	160.08
403.217	104.79
403.426	108.88
403.635	129.36
403.844	108.88
404.053	86.36
404.262	104.79
404.471	227.67
404.68	147.8
404.888	102.74
405.097	110.93
405.306	225.62
405.515	119.12
405.724	176.47
405.933	194.9
406.142	229.71
406.35	217.43
406.559	155.99
406.768	246.1
406.977	258.39
407.185	178.51
407.394	178.51
407.603	151.89
407.812	260.43
408.02	274.77
408.229	244.05
408.438	258.39
408.646	235.86
408.855	260.43
409.064	235.86
409.272	272.72
409.481	311.63
409.69	217.43
409.898	258.39
410.107	293.2
410.315	416.08
410.524	317.78
410.733	389.46
410.941	340.3
411.15	366.93
411.358	383.31
411.567	364.88
411.775	358.74
411.984	428.37
412.192	536.91
412.401	610.64
412.609	536.91
412.818	512.33
413.026	541.01
413.234	520.53
413.443	569.68
413.651	592.2
413.86	612.68
414.068	667.98
414.276	713.03
414.485	553.29
414.693	700.75
414.901	717.13
415.11	729.42
415.318	801.1
415.526	819.53
415.734	780.62
415.943	885.06
416.151	862.54
416.359	883.02
416.567	948.55
416.776	1071.43
416.984	995.65
417.192	1118.53
417.4	1032.52
417.608	1093.96
417.817	1141.06
418.025	1278.27
418.233	1349.95
418.441	1270.08
418.649	1265.99
418.857	1405.25
419.065	1438.02
419.273	1481.02
419.481	1423.68
419.689	1567.04
419.897	1638.72
420.105	1683.77
420.313	1628.48
420.521	1837.37
420.729	1696.06
420.937	1782.07
421.145	1880.38
421.353	2015.54
421.561	2124.08
421.769	2150.71
421.977	2292.02
422.185	2251.06
422.393	2273.59
422.601	2447.66
422.809	2339.12
423.017	2490.67
423.224	2572.59
423.432	2715.95
423.64	2687.28
423.848	3019.05
424.056	2822.44
424.263	3060.01
424.471	3084.58
424.679	3070.25
424.887	3326.24
425.094	3342.63
425.302	3453.22
425.51	3447.07
425.718	3580.19
425.925	3682.59
426.133	4026.65
426.341	3985.69
426.548	4274.45
426.756	4317.46
426.964	4235.54
427.171	4407.57
427.379	4788.49
427.586	4722.96
427.794	4690.19
428.001	5167.37
428.209	5243.14
428.417	5134.6
428.624	5589.25
428.832	5732.61
429.039	5525.76
429.247	5492.99
429.454	6148.34
429.662	6289.65
429.869	6050.04
430.076	6445.3
430.284	6185.21
430.491	6574.32
430.699	6932.72
430.906	6877.42
431.114	7186.66
431.321	7327.97
431.528	7375.08
431.736	7917.79
431.943	8132.83
432.15	8042.71
432.358	8089.82
432.565	8397.01
432.772	8390.87
432.979	8892.62
433.187	9089.23
433.394	9072.84
433.601	9724.1
433.808	9760.96
434.016	9709.76
434.223	10172.6
434.43	10612.92
434.637	10379.45
434.844	11047.08
435.052	11178.15
435.259	11161.77
435.466	11380.9
435.673	11210.92
435.88	11923.62
436.087	12505.24
436.294	12644.5
436.501	12329.11
436.708	12435.61
436.915	12957.84
437.122	13656.2
437.329	13516.94
437.537	13891.71
437.743	14106.75
437.95	14119.04
438.157	14815.35
438.364	15143.02
438.571	15333.48
438.778	15183.98
438.985	16801.88
439.192	16070.75
439.399	16506.97
439.606	16271.45
439.813	17027.15
440.02	17961.03
440.227	17807.43
440.433	17453.13
440.64	18206.78
440.847	17655.88
441.054	18405.44
441.261	19664.94
441.467	19644.46
441.674	19740.71
441.881	20580.38
442.088	20394.01
442.294	20351.01
442.501	20914.2
442.708	21108.76
442.914	21952.52
443.121	23072.76
443.328	22339.58
443.534	23967.72
443.741	23187.44
443.948	22964.21
444.154	24498.14
444.361	24057.83
444.568	24586.21
444.774	24745.95
444.981	25014.23
445.187	25825.23
445.394	26460.1
445.6	26507.2
445.807	28913.56
446.013	27463.6
446.22	28047.27
446.426	29034.39
446.633	29192.09
446.839	30580.61
447.046	29030.3
447.252	31197.05
447.459	30764.93
447.665	30646.15
447.871	31846.26
448.078	33427.29
448.284	31872.88
448.491	32735.07
448.697	33759.06
448.903	34080.59
449.11	34500.42
449.316	34043.73
449.522	34531.14
449.728	35313.47
449.935	35667.77
450.141	35776.31
450.347	36689.7
450.553	35362.62
450.76	35802.93
450.966	36828.96
451.172	36714.28
451.378	37418.78
451.584	36955.94
451.791	37748.5
451.997	37594.9
452.203	37953.3
452.409	38205.2
452.615	37609.24
452.821	36730.66
453.027	36120.37
453.233	38160.14
453.44	36445.99
453.646	36738.85
453.852	37459.74
454.058	37787.41
454.264	36546.34
454.47	36949.79
454.676	36312.88
454.882	37803.8
455.088	34205.52
455.294	35118.91
455.5	35237.69
455.705	35882.8
455.911	34156.36
456.117	33462.1
456.323	33087.32
456.529	31100.79
456.735	32700.26
456.941	31850.35
457.147	31170.43
457.352	30130.06
457.558	29968.27
457.764	29998.99
457.97	29536.15
458.176	28602.27
458.381	29015.96
458.587	27486.13
458.793	27522.99
458.999	25911.24
459.204	27998.12
459.41	26906.55
459.616	25114.58
459.821	25401.3
460.027	25212.88
460.233	24485.86
460.438	23599.09
460.644	23603.18
460.85	22665.21
461.055	22151.17
461.261	22132.74
461.466	20754.46
461.672	19615.79
461.878	21221.39
462.083	19656.75
462.289	19558.44
462.494	19206.19
462.7	18358.33
462.905	17805.38
463.111	18470.97
463.316	18280.51
463.522	18305.09
463.727	18253.89
463.932	18128.96
464.138	17987.65
464.343	17913.92
464.549	17457.23
464.754	17936.45
464.959	17883.2
465.165	17797.19
465.37	17004.63
465.575	16654.42
465.781	17324.11
465.986	17156.18
466.191	16560.22
466.397	16177.25
466.602	15564.9
466.807	16162.91
467.012	16093.28
467.218	15728.74
467.423	15767.65
467.628	15931.49
467.833	16511.07
468.038	15646.82
468.244	15390.83
468.449	16001.12
468.654	15364.2
468.859	15329.39
469.064	15226.99
469.269	14407.8
469.474	14749.81
469.679	15069.3
469.885	14676.09
470.09	14739.57
470.295	14739.57
470.5	14284.92
470.705	14213.24
470.91	14022.78
471.115	13924.48
471.32	14188.67
471.525	14172.29
471.73	13742.21
471.935	13566.09
472.139	13187.21
472.344	13359.24
472.549	13310.09
472.754	12990.61
472.959	12705.94
473.164	12609.68
473.369	12521.62
473.574	13031.57
473.778	12748.95
473.983	12687.51
474.188	12490.9
474.393	11993.25
474.598	11942.05
474.802	11813.03
475.007	11792.55
475.212	11804.83
475.417	11276.46
475.621	11331.75
475.826	11325.61
476.031	11276.46
476.235	11116.72
476.44	11129
476.645	10868.91
476.849	10786.99
477.054	10809.52
477.259	10647.73
477.463	10440.89
477.668	10123.45
477.872	10268.86
478.077	10188.99
478.282	9885.89
478.486	10168.51
478.691	9892.03
478.895	9973.95
479.1	9920.7
479.304	9916.61
479.509	9525.44
479.713	9806.02
479.918	9515.2
480.122	9396.42
480.326	9590.98
480.531	9248.97
480.735	9310.41
480.94	9214.15
481.144	9447.62
481.348	9134.28
481.553	9195.72
481.757	8884.43
481.961	9279.69
482.166	9189.58
482.37	9355.46
482.574	9070.79
482.778	9087.18
482.983	9281.74
483.187	8976.59
483.391	9126.09
483.595	9056.46
483.8	8984.78
484.004	8997.07
484.208	8988.88
484.412	9156.81
484.616	8958.16
484.821	9035.98
485.025	8892.62
485.229	9017.55
485.433	8925.39
485.637	8986.83
485.841	9158.86
486.045	8771.79
486.249	9025.74
486.453	8880.33
486.657	8943.82
486.861	8929.49
487.065	8745.17
487.269	8909.01
487.473	8620.24
487.677	8812.75
487.881	8925.39
488.085	8902.86
488.289	9062.6
488.493	8818.89
488.697	8970.44
488.901	8986.83
489.105	8714.45
489.309	8894.67
489.512	9154.76
489.716	9138.38
489.92	8913.1
490.124	8866
490.328	9171.15
490.531	8886.48
490.735	9220.3
490.939	9040.08
491.143	9011.4
491.346	9238.73
491.55	9218.25
491.754	9093.32
491.958	9244.87
492.161	9222.34
492.365	9291.98
492.569	9138.38
492.772	9224.39
492.976	9384.13
493.18	9359.56
493.383	9507.01
493.587	9597.12
493.79	9584.84
493.994	9566.4
494.197	9554.12
494.401	9550.02
494.605	9410.76
494.808	9695.43
495.012	9627.84
495.215	9812.16
495.419	9920.7
495.622	9904.32
495.825	10088.64
496.029	9973.95
496.232	10186.94
496.436	10072.25
496.639	10453.17
496.843	10174.65
497.046	10717.36
497.249	10866.86
497.453	10717.36
497.656	10956.97
497.859	10766.51
498.063	10870.96
498.266	11301.03
498.469	10928.3
498.673	11053.23
498.876	11352.23
499.079	11612.32
499.282	11434.15
499.485	11724.96
499.689	11507.88
499.892	12038.3
500.095	11915.42
500.298	12146.84
500.501	11997.34
500.705	12466.33
500.908	12273.82
501.111	12345.5
501.314	12757.14
501.517	12685.46
501.72	13006.99
501.923	12851.35
502.126	13310.09
502.329	13373.58
502.532	13301.9
502.735	13512.84
502.938	13824.13
503.141	13697.16
503.344	14059.65
503.547	14078.08
503.75	14119.04
503.953	14282.88
504.156	14497.91
504.359	14768.24
504.562	14782.58
504.765	14979.18
504.968	15253.61
505.17	15566.95
505.373	15366.25
505.576	15558.76
505.779	15818.85
505.982	15798.37
506.185	15900.77
506.387	16289.88
506.59	16384.09
506.793	16359.52
506.996	16478.3
507.198	16928.85
507.401	16734.29
507.604	17279.05
507.807	17240.14
508.009	17467.47
508.212	17608.78
508.415	17913.92
508.617	18206.78
508.82	18083.91
509.022	18069.57
509.225	18411.58
509.428	18765.88
509.63	18788.41
509.833	18974.77
510.035	19273.78
510.238	19085.36
510.44	19576.87
510.643	19613.74
510.845	19791.91
511.048	19632.17
511.25	20068.39
511.453	20189.22
511.655	20959.25
511.858	20529.18
512.06	20736.02
512.262	21164.05
512.465	20760.6
512.667	21653.51
512.87	21616.65
513.072	21835.78
513.274	22175.75
513.477	22659.07
513.679	22544.38
513.881	22757.37
514.084	22933.5
514.286	23025.65
514.488	23271.41
514.69	23492.59
514.893	23554.03
515.095	23689.2
515.297	24025.06
515.499	24352.74
515.701	24532.96
515.904	24846.3
516.106	24905.69
516.308	25223.12
516.51	25452.5
516.712	25423.83
516.914	25745.36
517.116	26187.72
517.318	26060.74
517.52	26320.84
517.722	26283.97
517.925	26550.21
518.127	27148.22
518.329	27099.06
518.531	26851.26
518.733	27592.62
518.935	27445.17
519.136	27688.88
519.338	28123.05
519.54	28245.93
519.742	28454.82
519.944	28100.52
520.146	28508.07
520.348	28999.58
520.55	28872.6
520.752	29153.18
520.954	29378.45
521.155	29190.04
521.357	29808.53
521.559	29908.88
521.761	30607.23
521.963	30214.02
522.164	30187.4
522.366	30384.01
522.568	30510.98
522.77	30553.99
522.971	31285.11
523.173	30928.77
523.375	31281.02
523.576	31035.26
523.778	31158.14
523.98	31608.69
524.181	31637.36
524.383	31702.9
524.584	31936.37
524.786	31924.08
524.988	31885.17
525.189	32169.83
525.391	32102.25
525.592	32153.45
525.794	32261.99
525.995	32075.63
526.197	32503.65
526.398	32675.68
526.6	32624.48
526.801	32618.34
527.003	32536.42
527.204	32552.8
527.406	33017.69
527.607	32622.44
527.808	33048.41
528.01	32880.48
528.211	32860
528.412	33228.63
528.614	32960.35
528.815	33109.85
529.016	32857.95
529.218	32802.66
529.419	32900.96
529.62	32681.83
529.822	32540.52
530.023	32749.41
530.224	33116
530.425	32837.47
530.626	32706.4
530.828	32638.82
531.029	33376.09
531.23	32651.11
531.431	32288.62
531.632	32866.14
531.833	32647.01
532.035	32776.03
532.236	32558.95
532.437	32757.6
532.638	32292.71
532.839	32681.83
533.04	32735.07
533.241	32567.14
533.442	32798.56
533.643	32339.82
533.844	32634.72
534.045	32520.04
534.246	32036.72
534.447	32395.11
534.648	32358.25
534.849	32391.02
535.05	32030.57
535.251	32057.2
535.451	31956.85
535.652	32270.18
535.853	32044.91
536.054	31840.11
536.255	32044.91
536.456	31512.44
536.657	32384.87
536.857	31455.09
537.058	31831.92
537.259	31772.53
537.46	31631.22
537.66	31524.72
537.861	31647.6
538.062	31487.86
538.263	31772.53
538.463	31422.33
538.664	31479.67
538.865	31836.02
539.065	31610.74
539.266	31338.36
539.466	31639.41
539.667	31211.39
539.868	31772.53
540.068	31387.51
540.269	31070.08
540.469	31158.14
540.67	31106.94
540.87	31321.98
541.071	31262.58
541.271	31592.31
541.472	31201.15
541.672	31352.69
541.873	31049.6
542.073	30703.49
542.274	31262.58
542.474	30945.15
542.675	30814.08
542.875	31242.1
543.075	30838.65
543.276	30771.07
543.476	31367.03
543.676	30975.87
543.877	31182.71
544.077	30904.19
544.277	30951.29
544.478	31086.46
544.678	30941.05
544.878	30625.67
545.078	30896
545.279	30691.2
545.479	30820.22
545.679	31045.5
545.879	30787.46
546.079	31170.43
546.28	30547.84
546.48	30445.44
546.68	30793.6
546.88	30998.4
547.08	30971.77
547.28	30691.2
547.48	30551.94
547.68	30732.16
547.88	30240.65
548.081	30760.83
548.281	30791.55
548.481	30717.82
548.681	31016.83
548.881	30785.41
549.081	30738.3
549.28	30646.15
549.48	30869.37
549.68	30664.58
549.88	31020.92
550.08	30474.12
550.28	30873.47
550.48	30885.76
550.68	30996.35
550.88	30709.63
551.08	30812.03
551.279	30775.17
551.479	30355.33
551.679	30906.24
551.879	30965.63
552.079	31006.59
552.278	30816.13
552.478	30951.29
552.678	30576.51
552.878	31113.08
553.077	30660.48
553.277	30625.67
553.477	31127.42
553.676	30887.81
553.876	30920.57
554.076	30635.91
554.275	30709.63
554.475	30328.71
554.674	30859.13
554.874	30656.39
555.074	30781.31
555.273	30930.81
555.473	31078.27
555.672	31252.34
555.872	31188.86
556.071	30689.15
556.271	31569.78
556.47	31006.59
556.67	30994.3
556.869	30959.48
557.068	31299.45
557.268	30865.28
557.467	30934.91
557.667	31117.18
557.866	30977.92
558.065	31022.97
558.265	31014.78
558.464	30832.51
558.663	31025.02
558.863	30830.46
559.062	31020.92
559.261	31229.82
559.461	31403.89
559.66	30834.56
559.859	31031.16
560.058	30750.59
560.258	30994.3
560.457	30711.68
560.656	30998.4
560.855	30809.98
561.054	31043.45
561.253	31022.97
561.453	30961.53
561.652	30965.63
561.851	31172.47
562.05	31160.19
562.249	30721.92
562.448	31319.93
562.647	30994.3
562.846	30949.25
563.045	30998.4
563.244	30758.78
563.443	31053.69
563.642	30379.91
563.841	30779.26
564.04	30764.93
564.239	30750.59
564.438	30707.58
564.637	30586.75
564.836	30709.63
565.035	30517.12
565.234	30621.57
565.432	30592.9
565.631	30431.11
565.83	30510.98
566.029	30220.17
566.228	30166.92
566.427	30447.49
566.625	30070.67
566.824	30005.13
567.023	30443.4
567.222	29753.23
567.42	30361.48
567.619	30244.74
567.818	29923.21
568.016	30138.25
568.215	29974.41
568.414	29876.11
568.612	30146.44
568.811	29958.03
569.01	29984.65
569.208	29327.25
569.407	29587.35
569.605	29618.07
569.804	29751.18
570.002	29433.75
570.201	29585.3
570.4	29101.98
570.598	29142.94
570.797	28862.36
570.995	28956.57
571.193	28379.04
571.392	29108.12
571.59	28716.96
571.789	28749.73
571.987	28917.66
572.186	28637.09
572.384	28405.67
572.582	28712.86
572.781	28880.8
572.979	28415.91
573.177	28719.01
573.376	28305.32
573.574	27924.4
573.772	28319.65
573.971	28123.05
574.169	28020.65
574.367	27971.5
574.565	27989.93
574.763	27719.6
574.962	27897.77
575.16	27439.03
575.358	27367.35
575.556	27682.73
575.754	27858.86
575.952	27371.44
576.151	27619.25
576.349	27326.39
576.547	26951.61
576.745	26851.26
576.943	27277.24
577.141	26957.75
577.339	26918.84
577.537	27021.24
577.735	26757.05
577.933	26554.3
578.131	26582.98
578.329	26548.16
578.527	26501.06
578.725	26517.44
578.923	26533.82
579.121	26474.43
579.319	26269.64
579.516	26363.84
579.714	26574.78
579.912	26343.36
580.11	26103.75
580.308	26267.59
580.506	25937.87
580.704	25569.23
580.901	25812.94
581.099	25958.35
581.297	25507.79
581.495	25522.13
581.692	25616.33
581.89	25483.22
582.088	25235.41
582.285	25313.24
582.483	25489.36
582.681	25309.14
582.878	25227.22
583.076	24733.66
583.274	25204.69
583.471	24965.08
583.669	24936.41
583.866	24944.6
584.064	24932.31
584.262	24422.37
584.459	24883.16
584.657	24635.36
584.854	24528.86
585.052	24070.12
585.249	24420.32
585.447	24256.48
585.644	24066.02
585.841	24272.87
586.039	24352.74
586.236	24109.03
586.434	23988.2
586.631	24102.89
586.828	23840.75
587.026	24268.77
587.223	23764.97
587.42	23754.73
587.618	23832.55
587.815	23644.14
588.012	23740.4
588.21	23457.78
588.407	23977.96
588.604	23519.21
588.801	23666.67
588.999	23250.93
589.196	23240.69
589.393	23209.97
589.59	23099.38
589.787	23158.77
589.984	23060.47
590.182	23103.48
590.379	23355.38
590.576	23023.61
590.773	23062.52
590.97	22822.91
591.167	22753.27
591.364	22921.21
591.561	22874.1
591.758	22810.62
591.955	22872.06
592.152	22806.52
592.349	22515.71
592.546	22960.12
592.743	22771.71
592.94	22149.12
593.137	22515.71
593.334	22571
593.531	22296.58
593.727	22702.07
593.924	22536.19
594.121	21831.69
594.318	22286.34
594.515	22065.16
594.712	22484.99
594.908	21954.57
595.105	22038.53
595.302	21819.4
595.499	22337.54
595.696	22038.53
595.892	22218.75
596.089	22255.62
596.286	22145.03
596.482	21764.11
596.679	22018.05
596.876	22034.44
597.072	21848.07
597.269	21989.38
597.466	21721.1
597.662	21565.45
597.859	21676.04
598.055	21921.8
598.252	22073.35
598.448	21927.94
598.645	21848.07
598.841	21508.11
599.038	21927.94
599.234	21626.89
599.431	21729.29
599.627	21700.62
599.824	21778.44
600.02	21960.71
600.217	21786.63
600.413	21424.14
600.609	21684.23
600.806	21843.98
601.002	21954.57
601.198	21565.45
601.395	21667.85
601.591	21630.99
601.787	21655.56
601.984	21821.45
602.18	21817.35
602.376	21739.53
602.572	21647.37
602.769	21729.29
602.965	21504.01
603.161	21753.87
603.357	21860.36
603.553	21792.78
603.75	21919.75
603.946	21706.76
604.142	21852.17
604.338	21823.5
604.534	22093.83
604.73	22024.2
604.926	22042.63
605.122	21968.9
605.318	21966.85
605.514	21655.56
605.71	21792.78
605.906	22032.39
606.102	21850.12
606.298	22071.3
606.494	21997.57
606.69	22038.53
606.886	22202.37
607.082	21702.67
607.278	22372.35
607.474	22073.35
607.67	22335.49
607.866	21860.36
608.062	22323.2
608.257	22159.36
608.453	22231.04
608.649	22450.17
608.845	22421.5
609.041	22351.87
609.236	22390.78
609.432	22247.43
609.628	22446.08
609.824	22466.56
610.019	22288.39
610.215	22360.06
610.411	22583.29
610.606	22589.44
610.802	22816.76
610.998	22540.29
611.193	22501.37
611.389	22431.74
611.584	22458.37
611.78	22304.77
611.976	22759.42
612.171	22872.06
612.367	22685.69
612.562	22745.08
612.758	22437.89
612.953	22554.62
613.149	23154.68
613.344	22804.47
613.539	22923.26
613.735	22804.47
613.93	22849.53
614.126	22872.06
614.321	22900.73
614.517	22802.43
614.712	23007.22
614.907	22849.53
615.103	22908.92
615.298	23044.09
615.493	23085.05
615.688	22818.81
615.884	23203.83
616.079	22491.13
616.274	23037.94
616.47	22851.58
616.665	23103.48
616.86	22677.5
617.055	22743.03
617.25	22714.36
617.445	23312.37
617.641	22585.34
617.836	23195.64
618.031	22818.81
618.226	23021.56
618.421	22775.8
618.616	22816.76
618.811	22601.72
619.006	22689.79
619.201	22280.19
619.396	22280.19
619.591	22499.33
619.786	22525.95
619.981	22263.81
620.176	22579.2
620.371	22171.65
620.566	22294.53
620.761	22022.15
620.956	22282.24
621.151	22007.81
621.346	22243.33
621.541	21569.55
621.735	21858.31
621.93	21440.53
622.125	21649.42
622.32	21241.87
622.515	21489.68
622.709	21205.01
622.904	21245.97
623.099	21032.98
623.294	20924.44
623.488	21129.23
623.683	21065.75
623.878	20842.52
624.072	20844.57
624.267	20639.77
624.462	20787.22
624.656	20547.61
624.851	20408.35
625.046	20174.88
625.24	20176.93
625.435	20379.68
625.629	20125.73
625.824	20037.67
626.018	20099.11
626.213	19423.28
626.407	19695.66
626.602	19499.05
626.796	19683.37
626.991	19554.35
627.185	19169.33
627.38	19402.8
627.574	19193.9
627.768	18868.28
627.963	18919.48
628.157	18991.16
628.352	19101.75
628.546	18745.4
628.74	18755.64
628.935	18563.13
629.129	18473.02
629.323	18276.41
629.517	18323.52
629.712	18206.78
629.906	18071.62
630.1	18141.25
630.294	18001.99
630.489	17815.62
630.683	18012.23
630.877	17477.71
631.071	17307.73
631.265	17559.63
631.459	17457.23
631.653	17354.83
631.848	17717.32
632.042	17195.09
632.236	17297.49
632.43	16855.12
632.624	17080.4
632.818	16711.77
633.012	16709.72
633.206	16732.25
633.4	16711.77
633.594	16371.8
633.788	16562.26
633.982	16441.43
634.176	16416.86
634.369	16224.35
634.563	15980.64
634.757	15796.32
634.951	16003.17
635.145	15949.92
635.339	15798.37
635.533	15841.38
635.726	15489.13
635.92	15478.89
636.114	15616.1
636.308	15437.93
636.501	15171.69
636.695	15313
636.889	15032.43
637.083	15179.89
637.276	14962.8
637.47	14946.42
637.664	14758
637.857	14891.12
638.051	14637.17
638.244	14508.15
638.438	14690.42
638.632	14504.06
638.825	14243.96
639.019	14370.94
639.212	14190.72
639.406	14004.35
639.599	13807.75
639.793	14166.14
639.986	13742.21
640.18	13705.35
640.373	13820.03
640.567	13613.19
640.76	13461.64
640.954	13308.04
641.147	13629.57
641.34	13271.18
641.534	13271.18
641.727	13099.15
641.92	13152.4
642.114	12787.86
642.307	12808.34
642.5	12837.01
642.694	12961.94
642.887	12548.25
643.08	12820.63
643.273	12564.63
643.467	12470.42
643.66	12277.91
643.853	12337.31
644.046	12277.91
644.239	12202.14
644.432	12220.57
644.626	11890.85
644.819	11753.63
645.012	12017.82
645.205	11737.25
645.398	11884.7
645.591	11743.39
645.784	11567.27
645.977	11344.04
646.17	11282.6
646.363	11403.43
646.556	11206.83
646.749	11243.69
646.942	11198.63
647.135	10999.98
647.328	10907.82
647.521	11018.41
647.714	10791.09
647.907	11006.13
648.099	10678.45
648.292	10942.64
648.485	10805.42
648.678	10461.37
648.871	10461.37
649.064	10463.41
649.256	10580.15
649.449	10301.62
649.642	10125.5
649.835	9971.9
650.027	10211.51
650.22	10043.58
650.413	10113.21
650.605	9945.28
650.798	9855.17
650.991	9765.06
651.183	9894.08
651.376	9697.47
651.568	9722.05
651.761	9674.95
651.954	9720
652.146	9732.29
652.339	9769.15
652.531	9531.59
652.724	9461.96
652.916	9328.84
653.109	9486.53
653.301	9113.8
653.494	9302.22
653.686	9040.08
653.879	9261.26
654.071	9111.75
654.263	9105.61
654.456	8970.44
654.648	8843.47
654.84	8757.46
655.033	8773.84
655.225	8782.03
655.417	8782.03
655.61	8704.21
655.802	8816.85
655.994	8585.43
656.186	8646.87
656.379	8597.71
656.571	8523.99
656.763	8442.07
656.955	8368.34
657.148	8431.83
657.34	8278.23
657.532	8173.78
657.724	8175.83
657.916	8243.42
658.108	8476.88
658.3	8134.87
658.492	8120.54
658.684	8001.76
658.876	8034.52
659.068	7901.4
659.26	7880.93
659.452	7622.88
659.644	7852.25
659.836	7647.46
660.028	7715.04
660.22	7624.93
660.412	7573.73
660.604	7502.05
660.796	7715.04
660.988	7631.07
661.18	7352.55
661.372	7274.73
661.563	7299.3
661.755	7205.1
661.947	7327.97
662.139	7254.25
662.331	7078.12
662.522	7041.26
662.714	7045.35
662.906	7108.84
663.097	7043.31
663.289	7045.35
663.481	7008.49
663.673	7008.49
663.864	6955.24
664.056	6586.61
664.247	6887.66
664.439	6682.86
664.631	6781.17
664.822	6631.66
665.014	6777.07
665.205	6615.28
665.397	6627.57
665.588	6615.28
665.78	6709.49
665.971	6494.45
666.163	6357.24
666.354	6320.37
666.546	6277.37
666.737	6174.97
666.929	6275.32
667.12	6254.84
667.311	6230.26
667.503	6072.57
667.694	6332.66
667.885	6050.04
668.077	6140.15
668.268	6043.9
668.459	6004.99
668.651	6029.56
668.842	6205.69
669.033	5986.55
669.224	6007.03
669.416	5937.4
669.607	6037.75
669.798	6185.21
669.989	5933.31
670.18	5880.06
670.371	5806.33
670.563	5726.46
670.754	5927.16
670.945	5509.38
671.136	5757.18
671.327	5632.26
671.518	5679.36
671.709	5533.95
671.9	5730.56
672.091	5667.07
672.282	5697.79
672.473	5558.53
672.664	5726.46
672.855	5413.12
673.046	5468.42
673.237	5470.47
673.428	5277.96
673.619	5398.79
673.809	5568.77
674	5413.12
674.191	5427.46
674.382	5331.2
674.573	5306.63
674.764	5247.24
674.954	5337.35
675.145	5257.48
675.336	5490.95
675.527	5116.17
675.717	5220.61
675.908	5304.58
676.099	5284.1
676.289	5169.41
676.48	5226.76
676.671	5277.96
676.861	5304.58
677.052	5040.39
677.243	5032.2
677.433	5126.41
677.624	5150.98
677.814	5132.55
678.005	5138.69
678.195	4995.34
678.386	5118.22
678.576	5046.54
678.767	4921.61
678.957	5019.91
679.148	5134.6
679.338	5050.63
679.529	5118.22
679.719	5067.02
679.909	5126.41
680.1	5067.02
680.29	5034.25
680.481	5081.35
680.671	5005.58
680.861	4972.81
681.052	5058.82
681.242	5026.06
681.432	5075.21
681.622	5069.06
681.813	4974.86
682.003	4970.76
682.193	4927.75
682.383	4808.97
682.573	4923.66
682.764	4952.33
682.954	4999.43
683.144	4935.95
683.334	4917.51
683.524	4815.12
683.714	4815.12
683.904	4897.03
684.094	4806.92
684.284	4950.28
684.474	5079.3
684.664	4897.03
684.854	4815.12
685.044	4784.4
685.234	4897.03
685.424	4892.94
685.614	4675.85
685.804	4825.36
685.994	4854.03
686.184	4874.51
686.374	4765.96
686.564	4704.53
686.753	4706.57
686.943	4653.33
687.133	4757.77
687.323	4700.43
687.513	4739.34
687.702	4735.25
687.892	4552.98
688.082	4624.65
688.272	4610.32
688.461	4501.78
688.651	4722.96
688.841	4606.22
689.03	4452.63
689.22	4428.05
689.41	4602.13
689.599	4403.47
689.789	4454.67
689.979	4501.78
690.168	4501.78
690.358	4567.31
690.547	4485.39
690.737	4432.15
690.926	4374.8
691.116	4436.24
691.305	4452.63
691.495	4329.75
691.684	4339.99
691.874	4520.21
692.063	4305.17
692.252	4323.6
692.442	4241.68
692.631	4358.42
692.82	4280.6
693.01	4323.6
693.199	4243.73
693.388	4333.84
693.578	4325.65
693.767	4296.98
693.956	4086.04
694.146	4215.06
694.335	4182.29
694.524	4088.09
694.713	4253.97
694.902	4339.99
695.092	4200.73
695.281	4176.15
695.47	4067.61
695.659	4198.68
695.848	4151.57
696.037	4141.33
696.226	4137.24
696.415	4178.2
696.604	4190.49
696.793	4174.1
696.982	4174.1
697.171	4118.81
697.36	4176.15
697.549	4079.9
697.738	4043.03
697.927	4032.79
698.116	4069.66
698.305	4110.61
698.494	4116.76
698.683	4028.7
698.872	4153.62
699.061	4036.89
699.25	3995.93
699.438	3973.4
699.627	3995.93
699.816	4057.37
700.005	3838.23
700.193	3830.04
700.382	3942.68
700.571	3887.39
700.76	4006.17
700.948	3891.48
701.137	3815.71
701.326	3815.71
701.514	3762.46
701.703	3744.03
701.892	3836.19
702.08	3965.21
702.269	3922.2
702.457	3604.77
702.646	3887.39
702.834	3684.64
703.023	3717.4
703.212	3813.66
703.4	3946.78
703.589	3692.83
703.777	3793.18
703.965	3680.54
704.154	3649.82
704.342	3735.84
704.531	3649.82
704.719	3600.67
704.907	3674.4
705.096	3705.12
705.284	3651.87
705.472	3610.91
705.661	3709.21
705.849	3705.12
706.037	3619.1
706.226	3535.14
706.414	3479.84
706.602	3461.41
706.79	3563.81
706.979	3682.59
707.167	3600.67
707.355	3494.18
707.543	3551.52
707.731	3467.55
707.919	3488.03
708.107	3617.05
708.296	3354.91
708.484	3504.42
708.672	3578.14
708.86	3408.16
709.048	3481.89
709.236	3483.94
709.424	3461.41
709.612	3289.38
709.8	3313.95
709.988	3387.68
710.176	3424.55
710.364	3436.83
710.551	3293.48
710.739	3191.08
710.927	3379.49
711.115	3354.91
711.303	3356.96
711.491	3311.91
711.679	3266.85
711.866	3266.85
712.054	3309.86
712.242	3211.56
712.43	3297.57
712.617	3250.47
712.805	3287.33
712.993	3281.19
713.181	3184.93
713.368	3221.8
713.556	3301.67
713.744	3191.08
713.931	3115.3
714.119	3113.25
714.306	3117.35
714.494	3084.58
714.682	3060.01
714.869	3135.78
715.057	3076.39
715.244	3025.19
715.432	3150.12
715.619	3080.49
715.807	3103.01
715.994	3100.97
716.182	3043.62
716.369	3053.86
716.556	3062.05
716.744	2849.07
716.931	2937.13
717.119	3084.58
717.306	2961.7
717.493	2971.94
717.681	2949.42
717.868	3008.81
718.055	2926.89
718.242	2939.18
718.43	2844.97
718.617	2955.56
718.804	2814.25
718.991	3006.76
719.179	2933.03
719.366	2969.9
719.553	2959.66
719.74	2826.54
719.927	2732.33
720.114	2840.87
720.301	2871.59
720.488	2818.35
720.676	2797.87
720.863	2814.25
721.05	2904.36
721.237	2783.53
721.424	2838.83
721.611	2826.54
721.798	2808.11
721.985	2715.95
722.172	2857.26
722.358	2718
722.545	2724.14
722.732	2732.33
722.919	2740.52
723.106	2658.6
723.293	2699.56
723.48	2580.78
723.667	2679.08
723.853	2758.96
724.04	2752.81
724.227	2505.01
724.414	2644.27
724.6	2453.81
724.787	2658.6
724.974	2613.55
725.161	2584.88
725.347	2525.49
725.534	2617.65
725.72	2656.56
725.907	2638.13
726.094	2588.97
726.28	2494.77
726.467	2519.34
726.653	2474.29
726.84	2601.26
727.027	2498.86
727.213	2617.65
727.4	2527.53
727.586	2478.38
727.773	2523.44
727.959	2462
728.145	2482.48
728.332	2437.42
728.518	2531.63
728.705	2421.04
728.891	2396.46
729.077	2584.88
729.264	2453.81
729.45	2480.43
729.636	2429.23
729.823	2498.86
730.009	2375.99
730.195	2404.66
730.382	2437.42
730.568	2412.85
730.754	2369.84
730.94	2314.55
731.126	2515.25
731.313	2388.27
731.499	2296.11
731.685	2339.12
731.871	2486.58
732.057	2390.32
732.243	2382.13
732.429	2365.75
732.615	2386.22
732.801	2234.68
732.987	2267.44
733.173	2308.4
733.359	2355.51
733.545	2185.52
733.731	2210.1
733.917	2371.89
734.103	2285.87
734.289	2210.1
734.475	2273.59
734.661	2249.01
734.847	2277.68
735.033	2246.96
735.219	2294.07
735.404	2208.05
735.59	2265.39
735.776	2193.72
735.962	2246.96
736.148	2216.24
736.333	2312.5
736.519	2240.82
736.705	2183.48
736.89	2183.48
737.076	2119.99
737.262	2199.86
737.447	2068.79
737.633	2126.13
737.819	2087.22
738.004	2038.07
738.19	2206
738.375	2113.85
738.561	2107.7
738.747	2101.56
738.932	2150.71
739.118	2117.94
739.303	2142.52
739.489	2216.24
739.674	1986.87
739.859	2056.5
740.045	2048.31
740.23	2007.35
740.416	2038.07
740.601	1995.06
740.786	2009.4
740.972	2175.28
741.157	1982.78
741.342	1986.87
741.528	1974.58
741.713	1950.01
741.898	1896.76
742.084	1849.66
742.269	2023.73
742.454	1970.49
742.639	1874.23
742.824	1980.73
743.01	1898.81
743.195	1911.1
743.38	1917.24
743.565	1929.53
743.75	1954.1
743.935	1798.46
744.12	1988.92
744.305	1802.55
744.49	1773.88
744.675	1792.31
744.86	1765.69
745.045	1747.26
745.23	1882.42
745.415	1759.55
745.6	1874.23
745.785	1720.64
745.97	1814.84
746.155	1790.27
746.34	1823.03
746.525	1667.39
746.71	1671.48
746.895	1673.53
747.079	1636.67
747.264	1642.81
747.449	1655.1
747.634	1808.7
747.819	1716.54
748.003	1734.97
748.188	1669.44
748.373	1644.86
748.557	1636.67
748.742	1579.33
748.927	1694.01
749.111	1603.9
749.296	1651
749.481	1550.65
749.665	1622.33
749.85	1478.97
750.034	1524.03
750.219	1519.93
750.404	1489.21
750.588	1579.33
750.773	1501.5
750.957	1405.25
751.141	1360.19
751.326	1427.78
751.51	1460.54
751.695	1454.4
751.879	1407.3
752.064	1429.82
752.248	1380.67
752.432	1397.06
752.617	1399.1
752.801	1485.12
752.985	1337.66
753.17	1399.1
753.354	1415.49
753.538	1427.78
753.722	1251.65
753.907	1362.24
754.091	1272.13
754.275	1343.81
754.459	1315.14
754.643	1302.85
754.828	1233.22
755.012	1292.61
755.196	1190.21
755.38	1214.79
755.564	1311.04
755.748	1128.77
755.932	1227.07
756.116	1200.45
756.3	1235.27
756.484	1241.41
756.668	1243.46
756.852	1077.57
757.036	1132.87
757.22	1169.73
757.404	1083.72
757.588	1061.19
757.772	1200.45
757.956	1128.77
758.14	1159.49
758.323	1128.77
758.507	1200.45
758.691	1089.86
758.875	1089.86
759.059	1110.34
759.242	1036.61
759.426	981.32
759.61	1093.96
759.794	1036.61
759.977	1124.68
760.161	1012.04
760.345	1143.11
760.528	1032.52
760.712	1044.81
760.895	1102.15
761.079	956.74
761.263	1003.85
761.446	940.36
761.63	1118.53
761.813	1061.19
761.997	1012.04
762.18	1020.23
762.364	1001.8
762.547	962.89
762.731	946.5
762.914	1020.23
763.098	889.16
763.281	954.69
763.464	950.6
763.648	915.78
763.831	969.03
764.015	868.68
764.198	880.97
764.381	909.64
764.564	964.93
764.748	979.27
764.931	905.54
765.114	854.34
765.297	934.22
765.481	1007.94
765.664	872.78
765.847	938.31
766.03	915.78
766.213	817.48
766.397	880.97
766.58	815.43
766.763	840.01
766.946	846.15
767.129	829.77
767.312	858.44
767.495	844.1
767.678	811.34
767.861	850.25
768.044	901.45
768.227	903.5
768.41	803.15
768.593	872.78
768.776	866.63
768.959	749.9
769.142	878.92
769.324	848.2
769.507	805.19
769.69	774.47
769.873	833.86
770.056	930.12
770.239	823.62
770.421	840.01
770.604	913.74
770.787	831.82
770.97	797
771.152	764.23
771.335	864.58
771.518	688.46
771.7	842.06
771.883	770.38
772.066	637.26
772.248	760.14
772.431	840.01
772.613	684.36
772.796	778.57
772.978	670.03
773.161	762.19
773.343	643.4
773.526	649.55
773.708	684.36
773.891	661.84
774.073	762.19
774.256	692.55
774.438	725.32
774.621	733.51
774.803	774.47
774.985	627.02
775.168	702.79
775.35	655.69
775.532	717.13
775.715	627.02
775.897	627.02
776.079	678.22
776.261	627.02
776.444	676.17
776.626	700.75
776.808	618.83
776.99	610.64
777.173	645.45
777.355	655.69
777.537	645.45
777.719	661.84
777.901	563.53
778.083	651.6
778.265	569.68
778.447	635.21
778.629	651.6
778.811	573.77
778.993	565.58
779.175	608.59
779.357	561.48
779.539	553.29
779.721	594.25
779.903	610.64
780.085	487.76
780.267	506.19
780.449	557.39
780.631	563.53
780.812	557.39
780.994	489.81
781.176	530.77
781.358	606.54
781.54	467.28
781.721	543.05
781.903	463.18
782.085	526.67
782.267	422.22
782.448	463.18
782.63	549.2
782.812	475.47
782.993	457.04
783.175	502.09
783.357	414.03
783.538	442.7
783.72	416.08
783.901	459.09
784.083	487.76
784.264	471.37
784.446	450.89
784.627	364.88
784.809	471.37
784.99	498
785.172	452.94
785.353	463.18
785.535	364.88
785.716	366.93
785.897	360.78
786.079	389.46
786.26	389.46
786.441	379.22
786.623	430.41
786.804	432.46
786.985	391.5
787.167	463.18
787.348	414.03
787.529	342.35
787.71	407.89
787.891	375.12
788.073	297.3
788.254	315.73
788.435	434.51
788.616	358.74
788.797	270.67
788.978	375.12
789.159	366.93
789.34	379.22
789.522	364.88
789.703	377.17
789.884	377.17
790.065	385.36
790.246	434.51
790.427	282.96
790.607	379.22
790.788	414.03
790.969	276.82
791.15	350.54
791.331	186.71
791.512	274.77
791.693	309.58
791.874	309.58
792.054	399.7
792.235	278.87
792.416	233.81
792.597	356.69
792.778	334.16
792.958	293.2
793.139	350.54
793.32	295.25
793.5	375.12
793.681	358.74
793.862	397.65
794.042	356.69
794.223	315.73
794.404	293.2
794.584	160.08
794.765	332.11
794.945	323.92
795.126	309.58
795.306	266.58
795.487	276.82
795.667	297.3
795.848	274.77
796.028	325.97
796.209	278.87
796.389	282.96
796.57	358.74
796.75	235.86
796.93	219.47
797.111	233.81
797.291	248.15
797.471	266.58
797.652	258.39
797.832	213.33
798.012	342.35
798.192	252.24
798.373	227.67
798.553	246.1
798.733	258.39
798.913	305.49
799.093	164.18
799.274	256.34
799.454	328.02
799.634	258.39
799.814	274.77
799.994	180.56
800.174	303.44
800.354	217.43
800.534	137.56
800.714	254.29
800.894	229.71
801.074	211.28
801.254	176.47
801.434	237.91
801.614	192.85
801.794	274.77
801.974	860.49
802.154	115.03
802.334	229.71
802.514	225.62
802.693	205.14
802.873	168.27
803.053	209.23
803.233	258.39
803.413	209.23
803.592	209.23
803.772	196.95
803.952	176.47
804.131	180.56
804.311	231.76
804.491	242
804.67	209.23
804.85	96.6
805.03	203.09
805.209	192.85
805.389	129.36
805.568	151.89
805.748	211.28
805.928	166.23
806.107	242
806.287	184.66
806.466	180.56
806.646	184.66
806.825	176.47
807.004	201.04
807.184	248.15
807.363	293.2
807.543	209.23
807.722	86.36
807.901	147.8
808.081	180.56
808.26	162.13
808.439	250.19
808.619	176.47
808.798	188.75
808.977	176.47
809.156	192.85
809.336	225.62
809.515	233.81
809.694	160.08
809.873	115.03
810.052	151.89
810.231	170.32
810.411	168.27
810.59	213.33
810.769	162.13
810.948	172.37
811.127	119.12
811.306	131.41
811.485	160.08
811.664	78.16
811.843	170.32
812.022	127.32
812.201	123.22
812.38	137.56
812.559	123.22
812.737	82.26
812.916	102.74
813.095	151.89
813.274	151.89
813.453	186.71
813.632	139.6
813.811	127.32
813.989	123.22
814.168	155.99
814.347	119.12
814.526	119.12
814.704	186.71
814.883	160.08
815.062	14.68
815.24	127.32
815.419	39.25
815.598	168.27
815.776	61.78
815.955	180.56
816.133	102.74
816.312	121.17
816.49	143.7
816.669	127.32
816.847	121.17
817.026	176.47
817.204	86.36
817.383	139.6
817.561	37.2
817.74	188.75
817.918	53.59
818.097	104.79
818.275	106.84
818.453	104.79
818.632	145.75
818.81	172.37
818.988	88.4
819.167	104.79
819.345	168.27
819.523	184.66
819.701	104.79
819.879	115.03
820.058	145.75
820.236	80.21
820.414	74.07
820.592	108.88
820.77	115.03
820.948	94.55
821.127	102.74
821.305	162.13
821.483	31.06
821.661	129.36
821.839	88.4
822.017	59.73
822.195	80.21
822.373	188.75
822.551	147.8
822.729	151.89
822.907	139.6
823.085	47.44
823.262	82.26
823.44	112.98
823.618	102.74
823.796	80.21
823.974	94.55
824.152	112.98
824.329	153.94
824.507	151.89
824.685	65.88
824.863	72.02
825.04	43.35
825.218	153.94
825.396	90.45
825.574	96.6
825.751	78.16
825.929	135.51
826.107	69.97
826.284	69.97
826.462	160.08
826.639	94.55
826.817	6.49
826.994	115.03
827.172	78.16
827.349	112.98
827.527	4.44
827.704	74.07
827.882	127.32
828.059	106.84
828.237	16.73
828.414	137.56
828.591	33.11
828.769	78.16
828.946	31.06
829.124	24.92
829.301	123.22
829.478	37.2
829.655	127.32
829.833	72.02
830.01	2.39
830.187	102.74
830.364	53.59
830.542	135.51
830.719	119.12
830.896	135.51
831.073	47.44
831.25	96.6
831.427	61.78
831.604	39.25
831.782	6.49
831.959	110.93
832.136	22.87
832.313	78.16
832.49	33.11
832.667	98.64
832.844	24.92
833.021	55.64
833.198	104.79
833.374	-3.75
833.551	0.34
833.728	76.12
833.905	8.53
834.082	-42.67
834.259	86.36
834.436	74.07
834.612	31.06
834.789	78.16
834.966	45.4
835.143	69.97
835.319	16.73
835.496	98.64
835.673	90.45
835.85	80.21
836.026	78.16
836.203	92.5
836.38	53.59
836.556	59.73
836.733	37.2
836.909	115.03
837.086	43.35
837.262	4.44
837.439	47.44
837.616	39.25
837.792	33.11
837.968	61.78
838.145	82.26
838.321	74.07
838.498	39.25
838.674	47.44
838.851	112.98
839.027	100.69
839.203	8.53
839.38	112.98
839.556	4.44
839.732	108.88
839.909	53.59
840.085	57.68
840.261	-50.86
840.437	59.73
840.614	24.92
840.79	45.4
840.966	24.92
841.142	61.78
841.318	45.4
841.494	80.21
841.671	33.11
841.847	31.06
842.023	-32.43
842.199	49.49
842.375	76.12
842.551	-57
842.727	-20.14
842.903	61.78
843.079	88.4
843.255	63.83
843.431	-7.85
843.607	45.4
843.783	24.92
843.959	37.2
844.134	-16.04
844.31	115.03
844.486	57.68
844.662	-3.75
844.838	10.58
845.013	45.4
845.189	-32.43
845.365	-11.95
845.541	86.36
845.716	110.93
845.892	0.34
846.068	8.53
846.244	78.16
846.419	78.16
846.595	14.68
846.77	-9.9
846.946	78.16
847.122	39.25
847.297	-36.52
847.473	100.69
847.648	4.44
847.824	10.58
847.999	-9.9
848.175	45.4
848.35	-73.39
848.526	20.82
848.701	18.77
848.876	102.74
849.052	78.16
849.227	-44.71
849.403	12.63
849.578	45.4
849.753	61.78
849.929	33.11
850.104	-28.33
850.279	90.45
850.454	18.77
850.63	43.35
850.805	37.2
850.98	-16.04
851.155	45.4
851.33	65.88
851.505	-42.67
851.681	88.4
851.856	12.63
852.031	98.64
852.206	6.49
852.381	10.58
852.556	45.4
852.731	72.02
852.906	53.59
853.081	94.55
853.256	20.82
853.431	45.4
853.606	4.44
853.781	-3.75
853.956	-38.57
854.131	0.34
854.305	-7.85
854.48	0.34
854.655	-9.9
854.83	8.53
855.005	-16.04
855.18	102.74
855.354	-28.33
855.529	53.59
855.704	61.78
855.879	20.82
856.053	12.63
856.228	8.53
856.403	4.44
856.577	-20.14
856.752	-42.67
856.926	39.25
857.101	22.87
857.276	4.44
857.45	22.87
857.625	63.83
857.799	8.53
857.974	-1.71
858.148	-77.48
858.323	-1.71
858.497	-26.28
858.672	10.58
858.846	-18.09
859.02	24.92
859.195	-24.23
859.369	4.44
859.543	51.54
859.718	45.4
859.892	41.3
860.066	14.68
860.241	18.77
860.415	37.2
860.589	69.97
860.763	37.2
860.938	47.44
861.112	61.78
861.286	-11.95
861.46	6.49
861.634	4.44
861.808	45.4
861.982	-32.43
862.157	6.49
862.331	-48.81
862.505	4.44
862.679	-100.01
862.853	-11.95
863.027	-7.85
863.201	104.79
863.375	-9.9
863.549	37.2
863.722	6.49
863.896	78.16
864.07	-44.71
864.244	-40.62
864.418	-3.75
864.592	90.45
864.766	29.01
864.939	33.11
865.113	-3.75
865.287	16.73
865.461	-54.95
865.634	41.3
865.808	53.59
865.982	37.2
866.156	8.53
866.329	-28.33
866.503	24.92
866.676	72.02
866.85	45.4
867.024	104.79
867.197	-28.33
867.371	-52.91
867.544	-18.09
867.718	-11.95
867.891	16.73
868.065	-22.19
868.238	39.25
868.412	94.55
868.585	37.2
868.759	4.44
868.932	-3.75
869.105	55.64
869.279	31.06
869.452	-26.28
869.625	-44.71
869.799	20.82
869.972	6.49
870.145	-26.28
870.319	8.53
870.492	20.82
870.665	-16.04
870.838	-26.28
871.011	-97.96
871.185	-20.14
871.358	20.82
871.531	12.63
871.704	16.73
871.877	6.49
872.05	-34.47
872.223	24.92
872.396	-11.95
872.569	20.82
872.742	-48.81
872.915	49.49
873.088	-32.43
873.261	-28.33
873.434	-9.9
873.607	6.49
873.78	-52.91
873.953	2.39
874.126	-44.71
874.299	-52.91
874.471	-65.19
874.644	-69.29
874.817	-50.86
874.99	61.78
875.163	12.63
875.335	6.49
875.508	20.82
875.681	67.92
875.853	-22.19
876.026	74.07
876.199	-3.75
876.371	29.01
876.544	-77.48
876.717	55.64
876.889	-11.95
877.062	-3.75
877.234	35.16
877.407	86.36
877.579	39.25
877.752	12.63
877.924	51.54
878.097	102.74
878.269	-46.76
878.442	-20.14
878.614	57.68
878.786	59.73
878.959	6.49
879.131	4.44
879.303	-93.87
879.476	26.96
879.648	37.2
879.82	74.07
879.993	-22.19
880.165	-54.95
880.337	-18.09
880.509	-1.71
880.681	-24.23
880.854	-9.9
881.026	4.44
881.198	72.02
881.37	12.63
881.542	14.68
881.714	20.82
881.886	-50.86
882.058	2.39
882.23	43.35
882.402	39.25
882.574	-28.33
882.746	4.44
882.918	86.36
883.09	53.59
883.262	22.87
883.434	16.73
883.606	-32.43
883.778	-34.47
883.95	16.73
884.122	-77.48
884.293	117.08
884.465	-52.91
884.637	14.68
884.809	-50.86
884.98	-9.9
885.152	45.4
885.324	43.35
885.496	-11.95
885.667	-36.52
885.839	-32.43
886.011	45.4
886.182	-18.09
886.354	92.5
886.525	-16.04
886.697	-3.75
886.869	0.34
887.04	-3.75
887.212	63.83
887.383	76.12
887.555	-36.52
887.726	8.53
887.897	20.82
888.069	-20.14
888.24	63.83
888.412	-13.99
888.583	14.68
888.754	61.78
888.926	-34.47
889.097	-28.33
889.268	-93.87
889.44	4.44
889.611	-30.38
889.782	-40.62
889.953	-67.24
890.125	45.4
890.296	-73.39
890.467	-77.48
890.638	-9.9
890.809	74.07
890.98	-26.28
891.151	24.92
891.323	-11.95
891.494	8.53
891.665	61.78
891.836	33.11
892.007	12.63
892.178	45.4
892.349	-18.09
892.52	-50.86
892.691	20.82
892.862	53.59
893.032	-36.52
893.203	-16.04
893.374	-34.47
893.545	24.92
893.716	-3.75
893.887	55.64
894.057	53.59
894.228	-20.14
894.399	61.78
894.57	4.44
894.74	31.06
894.911	16.73
895.082	39.25
895.253	-44.71
895.423	4.44
895.594	45.4
895.764	-18.09
895.935	-40.62
896.106	-11.95
896.276	-48.81
896.447	-13.99
896.617	22.87
896.788	2.39
896.958	47.44
897.129	-24.23
897.299	-11.95
897.47	8.53
897.64	14.68
897.81	-73.39
897.981	63.83
898.151	-3.75
898.322	22.87
898.492	-59.05
898.662	20.82
898.832	12.63
899.003	8.53
899.173	-36.52
899.343	0.34
899.513	-104.11
