Data from USB4F104151__88__14-30-38-871.txt Node

Date: Thu Mar 13 14:30:38 EDT 2025
User: louis
Spectrometer: USB4F10415
Trigger mode: 4
Integration Time (sec): 2.500000E-2
Scans to average: 1
Electric dark correction enabled: true
Nonlinearity correction enabled: false
Boxcar width: 0
XAxis mode: Wavelengths
Number of Pixels in Spectrum: 3648
>>>>>Begin Spectral Data<<<<<
178.204	-118.27
178.424	-118.27
178.644	-118.27
178.864	-124.41
179.084	-128.51
179.304	-54.78
179.524	55.81
179.744	-28.16
179.964	25.09
180.184	14.85
180.404	29.18
180.624	23.04
180.844	-30.21
181.064	-30.21
181.283	-9.73
181.503	-11.78
181.723	16.9
181.943	-32.26
182.163	53.76
182.383	8.7
182.602	-11.78
182.822	68.09
183.042	10.75
183.262	2.56
183.482	-69.12
183.701	18.94
183.921	18.94
184.141	23.04
184.361	94.72
184.58	31.23
184.8	-13.82
185.02	72.19
185.239	35.33
185.459	31.23
185.679	41.47
185.898	-85.5
186.118	121.34
186.338	10.75
186.557	47.62
186.777	-3.58
186.997	-11.78
187.216	-54.78
187.436	102.91
187.655	14.85
187.875	18.94
188.095	37.38
188.314	35.33
188.534	92.67
188.753	39.42
188.973	51.71
189.192	68.09
189.412	92.67
189.631	51.71
189.851	-1.54
190.07	86.53
190.29	16.9
190.509	74.24
190.729	18.94
190.948	39.42
191.168	209.4
191.387	76.29
191.607	31.23
191.826	-3.58
192.045	-1.54
192.265	29.18
192.484	2.56
192.704	53.76
192.923	-62.98
193.142	84.48
193.362	61.95
193.581	27.14
193.8	-7.68
194.02	59.9
194.239	25.09
194.458	-30.21
194.678	-22.02
194.897	2.56
195.116	18.94
195.335	18.94
195.555	-38.4
195.774	-38.4
195.993	100.86
196.212	-30.21
196.432	8.7
196.651	-5.63
196.87	68.09
197.089	158.21
197.308	59.9
197.528	10.75
197.747	-11.78
197.966	6.66
198.185	125.44
198.404	43.52
198.623	125.44
198.842	51.71
199.062	23.04
199.281	72.19
199.5	43.52
199.719	78.33
199.938	57.86
200.157	68.09
200.376	47.62
200.595	76.29
200.814	-15.87
201.033	2.56
201.252	6.66
201.471	76.29
201.69	59.9
201.909	49.66
202.128	59.9
202.347	35.33
202.566	51.71
202.785	-15.87
203.004	-26.11
203.223	168.45
203.442	-13.82
203.661	18.94
203.879	2.56
204.098	61.95
204.317	43.52
204.536	100.86
204.755	61.95
204.974	-15.87
205.193	33.28
205.411	92.67
205.63	-9.73
205.849	10.75
206.068	18.94
206.287	2.56
206.505	20.99
206.724	94.72
206.943	18.94
207.162	-5.63
207.381	78.33
207.599	53.76
207.818	33.28
208.037	14.85
208.255	-36.35
208.474	6.66
208.693	70.14
208.911	35.33
209.13	51.71
209.349	78.33
209.567	-40.45
209.786	68.09
210.005	-5.63
210.223	80.38
210.442	-17.92
210.661	121.34
210.879	55.81
211.098	14.85
211.316	39.42
211.535	55.81
211.753	-11.78
211.972	70.14
212.191	119.29
212.409	43.52
212.628	41.47
212.846	35.33
213.065	43.52
213.283	59.9
213.502	16.9
213.72	47.62
213.938	14.85
214.157	14.85
214.375	27.14
214.594	-26.11
214.812	37.38
215.031	64
215.249	41.47
215.467	-17.92
215.686	23.04
215.904	59.9
216.122	27.14
216.341	20.99
216.559	45.57
216.778	84.48
216.996	27.14
217.214	78.33
217.432	10.75
217.651	-9.73
217.869	-15.87
218.087	14.85
218.306	45.57
218.524	39.42
218.742	-9.73
218.96	84.48
219.179	43.52
219.397	94.72
219.615	117.25
219.833	102.91
220.051	18.94
220.27	51.71
220.488	20.99
220.706	-5.63
220.924	37.38
221.142	-30.21
221.36	4.61
221.578	147.97
221.796	6.66
222.015	20.99
222.233	84.48
222.451	66.05
222.669	68.09
222.887	10.75
223.105	86.53
223.323	-5.63
223.541	27.14
223.759	64
223.977	92.67
224.195	59.9
224.413	92.67
224.631	76.29
224.849	107.01
225.067	119.29
225.285	2.56
225.503	35.33
225.721	-62.98
225.939	12.8
226.157	70.14
226.375	96.77
226.592	43.52
226.81	27.14
227.028	100.86
227.246	61.95
227.464	61.95
227.682	70.14
227.9	29.18
228.117	12.8
228.335	20.99
228.553	59.9
228.771	2.56
228.989	80.38
229.206	29.18
229.424	10.75
229.642	-9.73
229.86	6.66
230.077	25.09
230.295	18.94
230.513	47.62
230.731	88.57
230.948	92.67
231.166	27.14
231.384	109.05
231.601	16.9
231.819	68.09
232.037	47.62
232.254	14.85
232.472	-11.78
232.689	-7.68
232.907	100.86
233.125	39.42
233.342	-19.97
233.56	64
233.777	33.28
233.995	104.96
234.213	39.42
234.43	59.9
234.648	51.71
234.865	25.09
235.083	29.18
235.3	61.95
235.518	123.39
235.735	84.48
235.953	68.09
236.17	20.99
236.388	51.71
236.605	92.67
236.822	-67.07
237.04	33.28
237.257	39.42
237.475	0.51
237.692	92.67
237.909	-34.3
238.127	2.56
238.344	29.18
238.562	43.52
238.779	-22.02
238.996	27.14
239.214	18.94
239.431	131.58
239.648	0.51
239.865	6.66
240.083	72.19
240.3	-22.02
240.517	6.66
240.735	76.29
240.952	92.67
241.169	-1.54
241.386	8.7
241.603	74.24
241.821	-19.97
242.038	10.75
242.255	27.14
242.472	47.62
242.689	100.86
242.907	43.52
243.124	49.66
243.341	59.9
243.558	45.57
243.775	2.56
243.992	-22.02
244.209	37.38
244.426	84.48
244.643	49.66
244.86	59.9
245.078	84.48
245.295	55.81
245.512	47.62
245.729	6.66
245.946	33.28
246.163	84.48
246.38	23.04
246.597	23.04
246.814	20.99
247.031	96.77
247.248	-9.73
247.464	2.56
247.681	27.14
247.898	2.56
248.115	59.9
248.332	35.33
248.549	37.38
248.766	76.29
248.983	61.95
249.2	25.09
249.417	70.14
249.633	-1.54
249.85	55.81
250.067	76.29
250.284	27.14
250.501	92.67
250.717	-28.16
250.934	53.76
251.151	27.14
251.368	-38.4
251.585	-1.54
251.801	18.94
252.018	-1.54
252.235	53.76
252.451	14.85
252.668	0.51
252.885	68.09
253.102	102.91
253.318	68.09
253.535	78.33
253.752	43.52
253.968	6.66
254.185	8.7
254.401	39.42
254.618	64
254.835	55.81
255.051	49.66
255.268	31.23
255.484	61.95
255.701	55.81
255.917	55.81
256.134	6.66
256.351	64
256.567	20.99
256.784	117.25
257	86.53
257.217	68.09
257.433	70.14
257.65	49.66
257.866	107.01
258.082	-30.21
258.299	-9.73
258.515	88.57
258.732	55.81
258.948	10.75
259.165	20.99
259.381	23.04
259.597	31.23
259.814	-5.63
260.03	-50.69
260.246	51.71
260.463	59.9
260.679	76.29
260.895	51.71
261.112	31.23
261.328	10.75
261.544	35.33
261.761	113.15
261.977	23.04
262.193	20.99
262.409	-38.4
262.626	-5.63
262.842	102.91
263.058	0.51
263.274	47.62
263.49	51.71
263.707	74.24
263.923	51.71
264.139	-44.54
264.355	-17.92
264.571	68.09
264.787	53.76
265.004	76.29
265.22	-17.92
265.436	27.14
265.652	29.18
265.868	-9.73
266.084	-5.63
266.3	64
266.516	-30.21
266.732	20.99
266.948	53.76
267.164	-19.97
267.38	61.95
267.596	53.76
267.812	92.67
268.028	43.52
268.244	68.09
268.46	61.95
268.676	-1.54
268.892	8.7
269.108	16.9
269.324	49.66
269.54	-26.11
269.756	143.87
269.972	-44.54
270.188	39.42
270.403	41.47
270.619	80.38
270.835	-17.92
271.051	92.67
271.267	-54.78
271.483	80.38
271.698	16.9
271.914	-77.31
272.13	39.42
272.346	20.99
272.562	104.96
272.777	51.71
272.993	-52.74
273.209	43.52
273.425	68.09
273.64	-22.02
273.856	51.71
274.072	117.25
274.287	-32.26
274.503	39.42
274.719	18.94
274.934	84.48
275.15	-34.3
275.366	84.48
275.581	2.56
275.797	18.94
276.012	68.09
276.228	53.76
276.444	35.33
276.659	43.52
276.875	-46.59
277.09	27.14
277.306	29.18
277.521	35.33
277.737	29.18
277.952	20.99
278.168	72.19
278.383	-5.63
278.599	2.56
278.814	64
279.03	47.62
279.245	39.42
279.461	49.66
279.676	123.39
279.892	29.18
280.107	6.66
280.322	-60.93
280.538	53.76
280.753	80.38
280.969	49.66
281.184	4.61
281.399	113.15
281.615	76.29
281.83	80.38
282.045	23.04
282.26	20.99
282.476	35.33
282.691	23.04
282.906	127.49
283.122	12.8
283.337	51.71
283.552	68.09
283.767	20.99
283.983	51.71
284.198	-9.73
284.413	51.71
284.628	59.9
284.843	80.38
285.058	80.38
285.274	8.7
285.489	10.75
285.704	37.38
285.919	6.66
286.134	29.18
286.349	37.38
286.564	84.48
286.779	59.9
286.995	53.76
287.21	29.18
287.425	80.38
287.64	14.85
287.855	51.71
288.07	-50.69
288.285	76.29
288.5	72.19
288.715	121.34
288.93	29.18
289.145	43.52
289.36	129.53
289.575	64
289.79	84.48
290.004	37.38
290.219	70.14
290.434	16.9
290.649	23.04
290.864	20.99
291.079	25.09
291.294	-5.63
291.509	66.05
291.724	68.09
291.938	51.71
292.153	27.14
292.368	12.8
292.583	109.05
292.798	94.72
293.012	104.96
293.227	27.14
293.442	55.81
293.657	12.8
293.871	76.29
294.086	14.85
294.301	29.18
294.516	102.91
294.73	100.86
294.945	-75.26
295.16	59.9
295.374	96.77
295.589	111.1
295.804	76.29
296.018	78.33
296.233	68.09
296.447	64
296.662	45.57
296.877	109.05
297.091	80.38
297.306	68.09
297.52	61.95
297.735	109.05
297.949	31.23
298.164	104.96
298.378	61.95
298.593	43.52
298.807	-7.68
299.022	64
299.236	45.57
299.451	2.56
299.665	51.71
299.88	33.28
300.094	29.18
300.309	37.38
300.523	20.99
300.737	72.19
300.952	53.76
301.166	16.9
301.381	-22.02
301.595	-5.63
301.809	-7.68
302.024	31.23
302.238	6.66
302.452	82.43
302.667	61.95
302.881	61.95
303.095	18.94
303.309	68.09
303.524	80.38
303.738	-9.73
303.952	49.66
304.166	18.94
304.381	-38.4
304.595	12.8
304.809	76.29
305.023	133.63
305.237	-22.02
305.452	2.56
305.666	-46.59
305.88	64
306.094	78.33
306.308	39.42
306.522	41.47
306.736	53.76
306.95	109.05
307.164	92.67
307.379	12.8
307.593	168.45
307.807	72.19
308.021	76.29
308.235	27.14
308.449	-15.87
308.663	76.29
308.877	68.09
309.091	23.04
309.305	35.33
309.519	-34.3
309.733	111.1
309.947	-28.16
310.161	100.86
310.374	64
310.588	70.14
310.802	-3.58
311.016	64
311.23	59.9
311.444	51.71
311.658	2.56
311.872	111.1
312.085	94.72
312.299	20.99
312.513	55.81
312.727	68.09
312.941	-3.58
313.154	68.09
313.368	72.19
313.582	78.33
313.796	23.04
314.009	10.75
314.223	115.2
314.437	12.8
314.651	35.33
314.864	4.61
315.078	20.99
315.292	2.56
315.505	16.9
315.719	12.8
315.933	59.9
316.146	16.9
316.36	27.14
316.573	111.1
316.787	39.42
317.001	102.91
317.214	18.94
317.428	6.66
317.641	35.33
317.855	-11.78
318.068	47.62
318.282	-3.58
318.495	80.38
318.709	61.95
318.922	59.9
319.136	51.71
319.349	43.52
319.563	10.75
319.776	29.18
319.99	0.51
320.203	-19.97
320.417	-1.54
320.63	53.76
320.843	152.06
321.057	27.14
321.27	51.71
321.483	66.05
321.697	137.73
321.91	47.62
322.124	59.9
322.337	20.99
322.55	14.85
322.763	80.38
322.977	-13.82
323.19	0.51
323.403	78.33
323.617	70.14
323.83	-28.16
324.043	47.62
324.256	61.95
324.469	45.57
324.683	35.33
324.896	80.38
325.109	53.76
325.322	51.71
325.535	94.72
325.748	35.33
325.962	35.33
326.175	18.94
326.388	68.09
326.601	-3.58
326.814	55.81
327.027	-5.63
327.24	53.76
327.453	16.9
327.666	39.42
327.879	86.53
328.092	59.9
328.305	47.62
328.518	72.19
328.731	33.28
328.944	4.61
329.157	-34.3
329.37	12.8
329.583	72.19
329.796	113.15
330.009	37.38
330.222	96.77
330.435	43.52
330.648	53.76
330.861	113.15
331.073	102.91
331.286	96.77
331.499	43.52
331.712	86.53
331.925	92.67
332.138	92.67
332.35	-30.21
332.563	37.38
332.776	29.18
332.989	45.57
333.202	53.76
333.414	55.81
333.627	117.25
333.84	100.86
334.053	31.23
334.265	43.52
334.478	43.52
334.691	18.94
334.903	59.9
335.116	-13.82
335.329	92.67
335.541	47.62
335.754	76.29
335.966	35.33
336.179	72.19
336.392	2.56
336.604	117.25
336.817	92.67
337.029	84.48
337.242	47.62
337.454	55.81
337.667	-26.11
337.88	88.57
338.092	98.81
338.305	61.95
338.517	27.14
338.729	18.94
338.942	-30.21
339.154	109.05
339.367	-44.54
339.579	10.75
339.792	-62.98
340.004	37.38
340.217	109.05
340.429	64
340.641	47.62
340.854	16.9
341.066	45.57
341.278	102.91
341.491	35.33
341.703	41.47
341.915	57.86
342.128	119.29
342.34	47.62
342.552	35.33
342.764	117.25
342.977	-11.78
343.189	111.1
343.401	-9.73
343.613	2.56
343.826	78.33
344.038	-1.54
344.25	51.71
344.462	86.53
344.674	64
344.886	102.91
345.099	25.09
345.311	53.76
345.523	59.9
345.735	31.23
345.947	39.42
346.159	68.09
346.371	76.29
346.583	-15.87
346.795	123.39
347.007	37.38
347.219	-1.54
347.431	129.53
347.643	119.29
347.855	59.9
348.067	51.71
348.279	45.57
348.491	29.18
348.703	88.57
348.915	80.38
349.127	72.19
349.339	78.33
349.551	-11.78
349.763	166.4
349.975	18.94
350.187	104.96
350.399	121.34
350.61	76.29
350.822	-15.87
351.034	76.29
351.246	2.56
351.458	76.29
351.669	45.57
351.881	68.09
352.093	70.14
352.305	45.57
352.517	23.04
352.728	117.25
352.94	68.09
353.152	84.48
353.363	33.28
353.575	53.76
353.787	51.71
353.999	70.14
354.21	117.25
354.422	59.9
354.633	92.67
354.845	43.52
355.057	37.38
355.268	78.33
355.48	72.19
355.692	-19.97
355.903	51.71
356.115	10.75
356.326	43.52
356.538	121.34
356.749	88.57
356.961	76.29
357.172	-5.63
357.384	68.09
357.595	80.38
357.807	35.33
358.018	-22.02
358.23	72.19
358.441	117.25
358.653	109.05
358.864	-5.63
359.075	84.48
359.287	31.23
359.498	96.77
359.709	86.53
359.921	6.66
360.132	55.81
360.344	104.96
360.555	59.9
360.766	59.9
360.977	100.86
361.189	111.1
361.4	39.42
361.611	68.09
361.823	125.44
362.034	59.9
362.245	59.9
362.456	100.86
362.667	102.91
362.879	49.66
363.09	43.52
363.301	145.92
363.512	68.09
363.723	-3.58
363.935	29.18
364.146	51.71
364.357	100.86
364.568	78.33
364.779	78.33
364.99	55.81
365.201	61.95
365.412	29.18
365.623	18.94
365.834	129.53
366.045	51.71
366.256	119.29
366.467	127.49
366.678	84.48
366.889	100.86
367.1	47.62
367.311	78.33
367.522	12.8
367.733	51.71
367.944	100.86
368.155	18.94
368.366	90.62
368.577	84.48
368.788	55.81
368.999	6.66
369.209	109.05
369.42	115.2
369.631	74.24
369.842	102.91
370.053	141.82
370.264	129.53
370.474	51.71
370.685	51.71
370.896	47.62
371.107	-5.63
371.317	64
371.528	47.62
371.739	31.23
371.95	92.67
372.16	59.9
372.371	51.71
372.582	31.23
372.792	80.38
373.003	94.72
373.214	119.29
373.424	59.9
373.635	51.71
373.846	133.63
374.056	18.94
374.267	59.9
374.477	123.39
374.688	37.38
374.898	92.67
375.109	111.1
375.319	66.05
375.53	39.42
375.74	80.38
375.951	55.81
376.161	109.05
376.372	100.86
376.582	33.28
376.793	129.53
377.003	100.86
377.214	68.09
377.424	86.53
377.635	70.14
377.845	-15.87
378.055	92.67
378.266	18.94
378.476	51.71
378.686	141.82
378.897	76.29
379.107	168.45
379.317	74.24
379.528	55.81
379.738	35.33
379.948	37.38
380.158	109.05
380.369	14.85
380.579	92.67
380.789	102.91
380.999	61.95
381.21	14.85
381.42	158.21
381.63	47.62
381.84	43.52
382.05	84.48
382.261	59.9
382.471	20.99
382.681	70.14
382.891	16.9
383.101	121.34
383.311	-19.97
383.521	14.85
383.731	53.76
383.941	78.33
384.151	61.95
384.361	78.33
384.571	78.33
384.781	76.29
384.991	119.29
385.201	117.25
385.411	53.76
385.621	10.75
385.831	84.48
386.041	113.15
386.251	10.75
386.461	35.33
386.671	43.52
386.881	92.67
387.091	25.09
387.301	125.44
387.511	70.14
387.72	121.34
387.93	133.63
388.14	39.42
388.35	55.81
388.56	59.9
388.769	55.81
388.979	80.38
389.189	-19.97
389.399	94.72
389.609	64
389.818	133.63
390.028	96.77
390.238	96.77
390.447	80.38
390.657	51.71
390.867	86.53
391.076	29.18
391.286	84.48
391.496	117.25
391.705	53.76
391.915	125.44
392.125	172.54
392.334	12.8
392.544	141.82
392.753	170.49
392.963	-13.82
393.172	94.72
393.382	20.99
393.591	18.94
393.801	113.15
394.01	100.86
394.22	137.73
394.429	68.09
394.639	92.67
394.848	178.69
395.058	78.33
395.267	111.1
395.477	207.36
395.686	133.63
395.895	158.21
396.105	104.96
396.314	168.45
396.524	96.77
396.733	82.43
396.942	111.1
397.152	172.54
397.361	176.64
397.57	193.02
397.78	143.87
397.989	176.64
398.198	131.58
398.407	59.9
398.617	168.45
398.826	186.88
399.035	53.76
399.244	211.45
399.453	203.26
399.663	170.49
399.872	182.78
400.081	111.1
400.29	201.21
400.499	193.02
400.708	150.01
400.917	117.25
401.127	141.82
401.336	111.1
401.545	250.36
401.754	135.68
401.963	213.5
402.172	188.93
402.381	92.67
402.59	113.15
402.799	119.29
403.008	176.64
403.217	141.82
403.426	145.92
403.635	199.16
403.844	182.78
404.053	174.59
404.262	78.33
404.471	236.03
404.68	178.69
404.888	244.22
405.097	174.59
405.306	221.69
405.515	252.41
405.724	160.25
405.933	322.04
406.142	203.26
406.35	266.75
406.559	223.74
406.768	244.22
406.977	293.37
407.185	246.27
407.394	242.17
407.603	227.84
407.812	369.15
408.02	264.7
408.229	428.54
408.438	274.94
408.646	422.39
408.855	311.8
409.064	424.44
409.272	420.35
409.481	461.3
409.69	489.98
409.898	453.11
410.107	471.54
410.315	395.77
410.524	520.7
410.733	477.69
410.941	485.88
411.15	547.32
411.358	545.27
411.567	571.9
411.775	559.61
411.984	625.14
412.192	674.29
412.401	616.95
412.609	752.12
412.818	727.54
413.026	733.68
413.234	725.49
413.443	752.12
413.651	750.07
413.86	854.51
414.068	903.67
414.276	907.76
414.485	897.52
414.693	938.48
414.901	1051.12
415.11	1059.31
415.318	1042.93
415.526	1149.42
415.734	1124.85
415.943	1186.29
416.151	1298.92
416.359	1270.25
416.567	1280.49
416.776	1358.32
416.984	1477.1
417.192	1415.66
417.4	1413.61
417.608	1413.61
417.817	1503.72
418.025	1741.29
418.233	1745.38
418.441	1731.05
418.649	1788.39
418.857	1898.98
419.065	1946.08
419.273	1954.27
419.481	2085.34
419.689	2230.75
419.897	2169.31
420.105	2240.99
420.313	2429.4
420.521	2429.4
420.729	2427.35
420.937	2570.71
421.145	2662.87
421.353	2748.89
421.561	2925.01
421.769	2904.53
421.977	3068.37
422.185	3129.81
422.393	3181.01
422.601	3482.06
422.809	3506.63
423.017	3365.32
423.224	3647.94
423.432	3707.34
423.64	3791.3
423.848	4055.49
424.056	3975.62
424.263	4352.45
424.471	4243.9
424.679	4387.26
424.887	4532.67
425.094	4737.46
425.302	4655.54
425.51	4835.77
425.718	5044.66
425.925	5159.35
426.133	5337.52
426.341	5581.23
426.548	6039.97
426.756	5872.04
426.964	5843.37
427.171	6240.67
427.379	6470.05
427.586	6566.3
427.794	6787.48
428.001	7129.49
428.209	7383.44
428.417	7283.09
428.624	7768.46
428.832	7711.11
429.039	7584.14
429.247	7727.5
429.454	8626.56
429.662	9070.97
429.869	8542.59
430.076	9087.35
430.284	8894.84
430.491	9150.84
430.699	9718.12
430.906	9816.43
431.114	9607.53
431.321	10242.4
431.528	10447.2
431.736	11037.02
431.943	11325.78
432.15	11186.52
432.358	11241.81
432.565	11909.45
432.772	12099.91
432.979	12732.73
433.187	12747.07
433.394	12863.8
433.601	13799.73
433.808	13769.01
434.016	13740.33
434.223	14014.76
434.43	14913.82
434.637	14766.37
434.844	15718.67
435.052	16058.63
435.259	15751.44
435.466	15933.71
435.673	15558.93
435.88	16926.97
436.087	17684.72
436.294	17801.46
436.501	17139.96
436.708	17699.06
436.915	18252.01
437.122	18913.5
437.329	18950.37
437.537	19734.74
437.743	19601.62
437.95	19810.51
438.157	20842.69
438.364	21280.96
438.571	21106.88
438.778	21711.03
438.985	23486.62
439.192	22251.69
439.399	23189.66
439.606	22601.9
439.813	23900.31
440.02	25309.31
440.227	24772.74
440.433	24684.68
440.64	25602.17
440.847	25211.01
441.054	26120.31
441.261	27787.35
441.467	27318.37
441.674	27781.21
441.881	28864.58
442.088	28958.79
442.294	28702.79
442.501	29104.2
442.708	30042.17
442.914	30994.47
443.121	32520.21
443.328	31379.49
443.534	33644.54
443.741	32765.96
443.948	32471.06
444.154	34873.32
444.361	34207.73
444.568	34711.53
444.774	34770.93
444.981	34920.43
445.187	36179.93
445.394	37648.32
445.6	37365.7
445.807	40560.53
446.013	38903.73
446.22	39497.64
446.426	41142.16
446.633	41295.75
446.839	42559.35
447.046	41107.34
447.252	43116.4
447.459	43505.51
447.665	43167.6
447.871	44998.48
448.078	46972.72
448.284	44668.76
448.491	45956.93
448.697	47638.31
448.903	48123.68
449.11	48789.27
449.316	47787.81
449.522	48449.31
449.728	49911.56
449.935	49819.4
450.141	50108.16
450.347	50941.69
450.553	49950.47
450.76	50388.74
450.966	51582.7
451.172	51181.3
451.378	52492
451.584	51486.45
451.791	52428.51
451.997	52248.29
452.203	53540.56
452.409	53262.04
452.615	52819.67
452.821	50886.39
453.027	50937.59
453.233	53257.94
453.44	51027.7
453.646	51777.26
453.852	51822.31
454.058	52555.49
454.264	51142.39
454.47	52217.57
454.676	50714.36
454.882	52508.38
455.088	48217.89
455.294	48742.17
455.5	49495.82
455.705	50419.45
455.911	47677.22
456.117	47144.75
456.323	46489.4
456.529	44519.26
456.735	46131.01
456.941	45010.77
457.147	43900.77
457.352	42712.95
457.558	42426.23
457.764	42246.01
457.97	41459.59
458.176	40650.64
458.381	40837.01
458.587	38643.63
458.793	38969.26
458.999	36956.11
459.204	39399.33
459.41	38334.39
459.616	35958.75
459.821	35573.73
460.027	35481.57
460.233	34924.52
460.438	33232.9
460.644	33886.2
460.85	31903.77
461.055	31688.73
461.261	31492.13
461.466	29243.46
461.672	28174.42
461.878	30418.99
462.083	28424.27
462.289	27719.77
462.494	27646.04
462.7	26361.97
462.905	25827.45
463.111	26353.77
463.316	26646.63
463.522	25997.43
463.727	26243.18
463.932	25989.24
464.138	26214.51
464.343	26075.25
464.549	25178.24
464.754	26050.67
464.959	25800.82
465.165	25374.84
465.37	24316.04
465.575	23644.31
465.781	24463.5
465.986	25038.98
466.191	23906.45
466.397	23390.36
466.602	22503.59
466.807	23482.52
467.012	23134.37
467.218	22972.58
467.423	22921.38
467.628	22993.06
467.833	23652.5
468.038	22988.96
468.244	22208.69
468.449	23144.61
468.654	22366.38
468.859	22112.43
469.064	22186.16
469.269	21248.19
469.474	21287.1
469.679	21903.54
469.885	21039.29
470.09	21217.47
470.295	21508.28
470.5	20476.1
470.705	20678.85
470.91	20572.36
471.115	20320.46
471.32	20377.8
471.525	20445.38
471.73	19851.47
471.935	19806.42
472.139	19304.67
472.344	19372.25
472.549	19017.95
472.754	19034.33
472.959	18421.99
473.164	18219.24
473.369	18174.19
473.574	18641.12
473.778	18399.46
473.983	18362.6
474.188	17903.85
474.393	17420.53
474.598	17076.48
474.802	17336.57
475.007	17346.81
475.212	17260.79
475.417	16378.12
475.621	16668.93
475.826	16607.49
476.031	16404.74
476.235	16226.57
476.44	16210.18
476.645	15808.78
476.849	15792.4
477.054	15845.65
477.259	15882.51
477.463	15546.64
477.668	15124.76
477.872	15300.89
478.077	15118.62
478.282	14856.48
478.486	14797.09
478.691	14354.72
478.895	14399.78
479.1	14174.5
479.304	14410.02
479.509	13938.99
479.713	14223.65
479.918	14029.1
480.122	13709.61
480.326	13707.57
480.531	13875.5
480.735	13775.15
480.94	13572.4
481.144	13861.16
481.348	13244.73
481.553	13781.29
481.757	13173.05
481.961	13279.54
482.166	13769.01
482.37	13603.12
482.574	13289.78
482.778	13408.56
482.983	13574.45
483.187	13232.44
483.391	13338.93
483.595	13148.47
483.8	13357.36
484.004	13269.3
484.208	13189.43
484.412	13420.85
484.616	13308.21
484.821	13470
485.025	12984.63
485.229	13226.29
485.433	13250.87
485.637	13347.12
485.841	13252.92
486.045	13148.47
486.249	13420.85
486.453	12919.1
486.657	13254.97
486.861	13091.13
487.065	12996.92
487.269	13166.9
487.473	12917.05
487.677	13216.05
487.881	13142.33
488.085	12970.3
488.289	13324.6
488.493	13181.24
488.697	13216.05
488.901	13334.84
489.105	13297.97
489.309	13394.23
489.512	13482.29
489.716	13504.82
489.92	13322.55
490.124	13363.51
490.328	13513.01
490.531	13371.7
490.735	13476.15
490.939	13455.67
491.143	13443.38
491.346	13627.7
491.55	13601.07
491.754	13547.83
491.958	13687.09
492.161	13586.74
492.365	13867.31
492.569	13465.91
492.772	13736.24
492.976	13934.89
493.18	14129.45
493.383	14405.92
493.587	14281
493.79	14242.09
493.994	13967.66
494.197	14190.89
494.401	14405.92
494.605	14313.77
494.808	14674.21
495.012	14715.17
495.215	14739.74
495.419	14905.63
495.622	14651.68
495.825	14962.97
496.029	15087.9
496.232	15520.02
496.436	15149.34
496.639	15733.01
496.843	15616.27
497.046	15806.73
497.249	16167.18
497.453	16056.59
497.656	15907.09
497.859	16269.58
498.063	16468.23
498.266	16685.31
498.469	16871.68
498.673	16773.38
498.876	17139.96
499.079	17064.19
499.282	17152.25
499.485	17623.28
499.689	17502.45
499.892	17869.04
500.095	18071.79
500.298	18282.73
500.501	18288.87
500.705	18577.64
500.908	18864.35
501.111	19024.09
501.314	18917.6
501.517	19460.31
501.72	19638.48
501.923	19800.27
502.126	20158.67
502.329	20154.57
502.532	20220.11
502.735	20474.06
502.938	20963.52
503.141	20807.87
503.344	21207.23
503.547	21280.96
503.75	21588.15
503.953	21907.63
504.156	22100.14
504.359	22378.67
504.562	22386.86
504.765	22651.05
504.968	23257.25
505.17	23373.98
505.373	23337.12
505.576	23791.76
505.779	23857.3
505.982	24139.92
506.185	24631.43
506.387	24529.03
506.59	24856.71
506.793	25454.72
506.996	25372.8
507.198	25892.98
507.401	25782.39
507.604	25682.04
507.807	26384.49
508.009	26667.11
508.212	26525.8
508.415	27326.56
508.617	27400.29
508.82	27281.5
509.022	27633.75
509.225	28219.47
509.428	28407.89
509.63	28631.12
509.833	28725.32
510.035	29390.91
510.238	29397.06
510.44	30119.99
510.643	29929.53
510.845	30128.18
511.048	30513.2
511.25	30918.7
511.453	31131.68
511.655	32196.63
511.858	31524.89
512.06	31791.13
512.262	32239.64
512.465	32129.05
512.667	32591.89
512.87	33120.26
513.072	33126.41
513.274	33837.05
513.477	33953.79
513.679	34174.97
513.881	34506.74
514.084	34734.06
514.286	34662.38
514.488	34883.56
514.69	35962.84
514.893	36044.76
515.095	36200.41
515.297	36515.79
515.499	36331.48
515.701	36888.53
515.904	37251.02
516.106	37609.41
516.308	37853.12
516.51	38547.38
516.712	38469.56
516.914	39167.91
517.116	39241.64
517.318	39409.57
517.52	39997.34
517.722	39985.05
517.925	40224.67
518.127	40501.14
518.329	41097.1
518.531	40574.87
518.733	41553.8
518.935	41656.2
519.136	41695.11
519.338	42622.84
519.54	42649.46
519.742	42864.5
519.944	42688.37
520.146	43677.54
520.348	43521.9
520.55	44029.79
520.752	44248.92
520.954	44754.77
521.155	44607.32
521.357	44891.99
521.559	45168.46
521.761	45528.91
521.963	45342.54
522.164	45594.44
522.366	46028.61
522.568	46137.15
522.77	46427.96
522.971	46978.87
523.173	46825.27
523.375	47064.88
523.576	46841.65
523.778	46858.04
523.98	47662.89
524.181	47914.79
524.383	47783.72
524.584	48140.07
524.786	48215.84
524.988	47943.46
525.189	48607
525.391	48881.43
525.592	48664.35
525.794	49047.32
525.995	48701.21
526.197	49098.51
526.398	48858.9
526.6	49262.35
526.801	49321.74
527.003	49526.54
527.204	49673.99
527.406	49594.12
527.607	49649.42
527.808	50294.53
528.01	49274.64
528.211	49854.22
528.412	50204.42
528.614	50136.83
528.815	49999.62
529.016	50829.05
529.218	50220.8
529.419	50104.07
529.62	50032.39
529.822	49848.07
530.023	50102.02
530.224	49901.32
530.425	49954.57
530.626	49665.8
530.828	49348.37
531.029	50640.64
531.23	49540.88
531.431	49817.35
531.632	50110.21
531.833	49954.57
532.035	50018.05
532.236	49770.25
532.437	50140.93
532.638	49663.75
532.839	49811.21
533.04	50243.33
533.241	49899.27
533.442	50153.22
533.643	50061.06
533.844	49725.19
534.045	49905.41
534.246	49164.05
534.447	49850.12
534.648	49561.36
534.849	49807.11
535.05	49129.23
535.251	49745.67
535.451	49313.55
535.652	49293.07
535.853	48996.12
536.054	49164.05
536.255	49592.08
536.456	49135.38
536.657	49604.36
536.857	49145.62
537.058	48895.77
537.259	49354.51
537.46	49227.54
537.66	49258.26
537.861	49192.72
538.062	48727.83
538.263	48807.7
538.463	49190.67
538.664	48910.1
538.865	48953.11
539.065	48504.6
539.266	48551.71
539.466	48756.5
539.667	48019.24
539.868	48539.42
540.068	48447.26
540.269	48404.25
540.469	48650.01
540.67	48078.63
540.87	48389.92
541.071	48283.42
541.271	48271.14
541.472	48183.07
541.672	48176.93
541.873	47931.17
542.073	47361.84
542.274	48465.69
542.474	48144.16
542.675	47685.42
542.875	48365.34
543.075	48406.3
543.276	47642.41
543.476	48150.31
543.676	47896.36
543.877	48414.49
544.077	47978.28
544.277	47875.88
544.478	47951.65
544.678	47986.47
544.878	48113.44
545.078	48207.65
545.279	47683.37
545.479	47439.66
545.679	47720.23
545.879	48400.16
546.079	48152.35
546.28	48078.63
546.48	47255.34
546.68	47976.23
546.88	47890.21
547.08	47521.58
547.28	47775.53
547.48	47454
547.68	47906.6
547.88	47111.99
548.081	47884.07
548.281	47595.31
548.481	47292.21
548.681	47750.95
548.881	47972.13
549.081	47595.31
549.28	47828.77
549.48	48092.96
549.68	47669.03
549.88	48021.28
550.08	47707.94
550.28	47820.58
550.48	47468.33
550.68	48283.42
550.88	47533.87
551.08	47750.95
551.279	48006.95
551.479	47298.35
551.679	47832.87
551.879	47263.53
552.079	47714.09
552.278	47740.71
552.478	48133.92
552.678	48359.2
552.878	47998.76
553.077	48111.39
553.277	47521.58
553.477	48054.05
553.676	47914.79
553.876	48340.77
554.076	48011.04
554.275	47824.68
554.475	47447.85
554.674	47927.08
554.874	48191.26
555.074	48086.82
555.273	48107.3
555.473	48226.08
555.672	47800.1
555.872	48111.39
556.071	48195.36
556.271	48410.4
556.47	47689.51
556.67	47587.11
556.869	47945.51
557.068	48125.73
557.268	47888.17
557.467	48056.1
557.667	47855.4
557.866	48254.75
558.065	47709.99
558.265	47929.12
558.464	48058.15
558.663	48336.67
558.863	47963.94
559.062	48463.64
559.261	47443.76
559.461	48424.73
559.66	47388.46
559.859	47787.81
560.058	47484.72
560.258	48031.52
560.457	47658.79
560.656	47970.08
560.855	47675.18
561.054	48097.06
561.253	47578.92
561.453	47947.56
561.652	48142.11
561.851	48312.09
562.05	47675.18
562.249	47546.15
562.448	48009
562.647	47382.32
562.846	47357.74
563.045	47306.54
563.244	47163.18
563.443	47927.08
563.642	47017.78
563.841	47820.58
564.04	47288.11
564.239	47677.22
564.438	47294.25
564.637	47566.63
564.836	47415.08
565.035	46991.15
565.234	47492.91
565.432	47281.97
565.631	47046.45
565.83	47593.26
566.029	47130.42
566.228	46579.51
566.427	46999.35
566.625	46860.08
566.824	46382.91
567.023	46905.14
567.222	46083.9
567.42	46706.49
567.619	46634.81
567.818	46237.5
568.016	46473.02
568.215	46692.15
568.414	46169.92
568.612	46706.49
568.811	46208.83
569.01	46090.05
569.208	45631.3
569.407	45825.86
569.605	45389.64
569.804	45932.36
570.002	45397.84
570.201	45973.31
570.4	45166.41
570.598	45309.77
570.797	44937.04
570.995	45307.72
571.193	44980.05
571.392	45580.1
571.59	44834.64
571.789	45059.92
571.987	44617.56
572.186	44744.53
572.384	44570.46
572.582	44875.6
572.781	44406.62
572.979	44259.16
573.177	44175.2
573.376	44253.02
573.574	44101.47
573.772	43915.11
573.971	44124
574.169	43564.9
574.367	43356.01
574.565	43863.91
574.763	43204.46
574.962	43061.1
575.16	42954.61
575.358	43534.18
575.556	42596.21
575.754	43519.85
575.952	42776.44
576.151	43237.23
576.349	42303.35
576.547	42643.32
576.745	42633.08
576.943	42647.41
577.141	42727.28
577.339	42471.29
577.537	42211.2
577.735	41895.81
577.933	41652.1
578.131	42147.71
578.329	41432.97
578.527	41774.98
578.725	41602.95
578.923	41826.18
579.121	41170.83
579.319	41295.75
579.516	41308.04
579.714	41142.16
579.912	41115.53
580.11	40742.8
580.308	41308.04
580.506	40992.65
580.704	39907.23
580.901	40451.99
581.099	40886.16
581.297	40566.68
581.495	40173.47
581.692	40626.07
581.89	39673.76
582.088	40036.25
582.285	39788.45
582.483	40130.46
582.681	40103.84
582.878	39870.37
583.076	39137.19
583.274	39772.07
583.471	38969.26
583.669	39239.59
583.866	38995.88
584.064	39657.38
584.262	38668.21
584.459	38993.84
584.657	38703.03
584.854	39010.22
585.052	38461.37
585.249	38649.78
585.447	38363.06
585.644	38352.82
585.841	38494.13
586.039	38156.22
586.236	38279.1
586.434	38096.83
586.631	37449.67
586.828	38223.8
587.026	37709.76
587.223	37597.12
587.42	37685.18
587.618	37443.52
587.815	37136.33
588.012	37201.86
588.21	37146.57
588.407	37402.57
588.604	37093.32
588.801	36577.23
588.999	36796.37
589.196	36833.23
589.393	37109.71
589.59	36319.19
589.787	36472.79
589.984	36671.44
590.182	36227.03
590.379	36777.93
590.576	35991.51
590.773	36237.27
590.97	36184.02
591.167	36394.96
591.364	36126.68
591.561	36075.48
591.758	35880.92
591.955	35823.58
592.152	35790.81
592.349	35520.48
592.546	36083.67
592.743	35706.85
592.94	35252.2
593.137	35411.94
593.334	35645.41
593.531	34895.85
593.727	35520.48
593.924	35028.97
594.121	34916.33
594.318	35020.78
594.515	34738.16
594.712	35332.07
594.908	34709.49
595.105	34781.17
595.302	34684.91
595.499	34858.99
595.696	34414.58
595.892	34365.43
596.089	34764.78
596.286	34768.88
596.482	34760.69
596.679	34314.23
596.876	34217.97
597.072	34060.28
597.269	34412.53
597.466	34193.4
597.662	34035.7
597.859	34158.58
598.055	34400.24
598.252	33751.04
598.448	34050.04
598.645	33972.22
598.841	33656.83
599.038	34107.38
599.234	33945.59
599.431	33937.4
599.627	33865.72
599.824	34029.56
600.02	33527.81
600.217	33646.59
600.413	33478.66
600.609	33349.64
600.806	33265.67
601.002	33712.13
601.198	33388.55
601.395	33347.59
601.591	33167.37
601.787	33619.97
601.984	33468.42
602.18	33499.14
602.376	33130.5
602.572	33267.72
602.769	33513.47
602.965	32862.22
603.161	33308.68
603.357	33019.91
603.553	32780.3
603.75	33208.33
603.946	33069.06
604.142	33345.54
604.338	32708.62
604.534	33218.57
604.73	33062.92
604.926	32794.64
605.122	33136.65
605.318	32981
605.514	32999.43
605.71	32499.73
605.906	33026.06
606.102	32950.28
606.298	33069.06
606.494	33243.14
606.69	32802.83
606.886	33050.63
607.082	32487.44
607.278	33169.41
607.474	32235.54
607.67	33361.92
607.866	32534.54
608.062	33366.02
608.257	32847.88
608.453	32935.95
608.649	32948.23
608.845	32929.8
609.041	32978.95
609.236	33007.62
609.432	32811.02
609.628	32851.98
609.824	33056.78
610.019	32993.29
610.215	32673.81
610.411	33134.6
610.606	32802.83
610.802	33112.07
610.998	32919.56
611.193	32952.33
611.389	32583.69
611.584	32567.31
611.78	32573.45
611.976	32831.5
612.171	33146.89
612.367	32874.51
612.562	32884.75
612.758	32765.96
612.953	32415.76
613.149	33191.94
613.344	32970.76
613.539	33091.59
613.735	33097.73
613.93	32698.38
614.126	32497.68
614.321	33228.8
614.517	32774.16
614.712	32694.29
614.907	32567.31
615.103	32815.12
615.298	32634.89
615.493	33230.85
615.688	32344.08
615.884	33216.52
616.079	32288.79
616.274	32696.33
616.47	32444.43
616.665	32593.93
616.86	32559.12
617.055	32307.22
617.25	32612.37
617.445	32620.56
617.641	31897.63
617.836	32616.46
618.031	32137.24
618.226	32485.39
618.421	32127
618.616	32276.5
618.811	31832.09
619.006	32321.55
619.201	31735.84
619.396	32114.71
619.591	31424.54
619.786	32000.02
619.981	31526.94
620.176	31684.64
620.371	31221.8
620.566	31639.58
620.761	31070.25
620.956	31268.9
621.151	30842.92
621.346	31567.9
621.541	30584.88
621.735	30836.78
621.93	30068.79
622.125	30527.53
622.32	30175.28
622.515	30249.01
622.709	29755.45
622.904	29870.14
623.099	29605.95
623.294	29780.03
623.488	29603.9
623.683	29556.8
623.878	29046.85
624.072	29300.8
624.267	28870.73
624.462	28682.31
624.656	28637.26
624.851	28725.32
625.046	28629.07
625.24	28477.52
625.435	27834.46
625.629	28317.78
625.824	27965.53
626.018	27988.05
626.213	27545.69
626.407	27617.37
626.602	27338.85
626.796	27510.88
626.991	27390.05
627.185	26984.55
627.38	26789.99
627.574	26761.32
627.768	26753.13
627.963	26591.34
628.157	26208.37
628.352	26599.53
628.546	25700.47
628.74	26138.74
628.935	25618.55
629.129	26296.43
629.323	25542.78
629.517	25409.66
629.712	25571.45
629.906	25483.39
630.1	24957.06
630.294	24944.77
630.489	24875.14
630.683	24610.95
630.877	24625.29
631.071	24674.44
631.265	24561.8
631.459	24385.68
631.653	23885.97
631.848	24230.03
632.042	23922.83
632.236	24051.86
632.43	23693.46
632.624	23957.65
632.818	23804.05
633.012	23273.63
633.206	23222.43
633.4	23171.23
633.594	22978.72
633.788	22962.34
633.982	22640.81
634.176	22831.27
634.369	22704.29
634.563	22454.44
634.757	22102.19
634.951	22251.69
635.145	22214.83
635.339	22444.2
635.533	22126.77
635.726	21874.87
635.92	21590.2
636.114	21909.68
636.308	21100.73
636.501	21240
636.695	21448.89
636.889	21258.43
637.083	20951.23
637.276	20818.11
637.47	20691.14
637.664	20830.4
637.857	20545.73
638.051	20693.19
638.244	20338.89
638.438	20254.92
638.632	20125.9
638.825	20089.04
639.019	20009.17
639.212	19691.73
639.406	19591.38
639.599	19392.73
639.793	19280.09
639.986	19286.23
640.18	19493.08
640.373	19325.15
640.567	18950.37
640.76	19241.18
640.954	18790.63
641.147	18802.91
641.34	18434.28
641.534	18692.32
641.727	18372.84
641.92	18567.4
642.114	18407.66
642.307	18276.59
642.5	18096.36
642.694	17752.31
642.887	17965.29
643.08	17744.11
643.273	17948.91
643.467	17672.43
643.66	17580.28
643.853	17498.36
644.046	16804.1
644.239	17082.62
644.432	17142.01
644.626	16939.26
644.819	16861.44
645.012	16898.3
645.205	16589.06
645.398	16501
645.591	16402.69
645.784	16546.05
645.977	16238.86
646.17	16124.17
646.363	16210.18
646.556	15929.61
646.749	15958.28
646.942	16011.53
647.135	15690
647.328	15493.4
647.521	15630.61
647.714	15327.51
647.907	15212.82
648.099	15347.99
648.292	15190.3
648.485	15071.51
648.678	15026.46
648.871	15018.27
649.064	14940.44
649.256	14903.58
649.449	14688.54
649.642	14856.48
649.835	14477.6
650.027	14700.83
650.22	14422.31
650.413	14403.88
650.605	14264.61
650.798	14240.04
650.991	13967.66
651.183	13787.44
651.376	13889.84
651.568	13721.9
651.761	13836.59
651.954	13822.25
652.146	13609.26
652.339	13408.56
652.531	13533.49
652.724	13523.25
652.916	13357.36
653.109	13230.39
653.301	13185.33
653.494	13267.25
653.686	12888.38
653.879	13130.04
654.071	12794.17
654.263	13019.45
654.456	12962.11
654.648	13072.7
654.84	12624.19
655.033	12374.34
655.225	12476.74
655.417	12437.83
655.61	12382.53
655.802	12517.7
655.994	12421.44
656.186	12259.65
656.379	12331.33
656.571	12206.41
656.763	11923.79
656.955	12026.18
657.148	12063.05
657.34	11790.67
657.532	11813.2
657.724	11667.79
657.916	11585.87
658.108	11479.38
658.3	11581.78
658.492	11501.9
658.684	11456.85
658.876	11430.23
659.068	11100.5
659.26	11274.58
659.452	11262.29
659.644	11284.82
659.836	10983.77
660.028	11006.3
660.22	10746.2
660.412	10781.02
660.604	10690.91
660.796	10654.05
660.988	10582.37
661.18	10414.43
661.372	10377.57
661.563	10506.59
661.755	10469.73
661.947	10324.32
662.139	10287.46
662.331	10221.92
662.522	10131.81
662.714	10088.81
662.906	9890.15
663.097	9828.71
663.289	10121.57
663.481	9771.37
663.673	9771.37
663.864	9654.64
664.056	9726.32
664.247	9750.89
664.439	9572.72
664.631	9572.72
664.822	9496.94
665.014	9419.12
665.205	9361.78
665.397	9341.3
665.588	9546.09
665.78	9220.47
665.971	9367.92
666.163	9216.37
666.354	9269.62
666.546	8923.51
666.737	8868.22
666.929	8999.29
667.12	8798.59
667.311	8894.84
667.503	8839.55
667.694	8925.56
667.885	8835.45
668.077	8862.07
668.268	8704.38
668.459	8597.88
668.651	8571.26
668.842	8505.73
669.033	8456.57
669.224	8518.01
669.416	8501.63
669.607	8364.42
669.798	8286.59
669.989	8415.62
670.18	8235.39
670.371	8114.56
670.563	8161.67
670.754	8446.34
670.945	8165.76
671.136	8079.75
671.327	8083.84
671.518	7985.54
671.709	8049.03
671.9	7999.88
672.091	7940.49
672.282	7831.94
672.473	7848.33
672.664	7766.41
672.855	7844.23
673.046	7725.45
673.237	7721.35
673.428	7780.75
673.619	7702.92
673.809	7473.55
674	7330.19
674.191	7672.2
674.382	7563.66
674.573	7451.02
674.764	7471.5
674.954	7557.52
675.145	7416.21
675.336	7252.37
675.527	7426.45
675.717	7408.01
675.908	7311.76
676.099	7346.58
676.289	7305.62
676.48	7145.87
676.671	7125.4
676.861	7293.33
677.052	7049.62
677.243	7219.6
677.433	7121.3
677.624	7027.09
677.814	6883.73
678.005	7152.02
678.195	7096.72
678.386	6932.89
678.576	6750.62
678.767	6855.06
678.957	6994.33
679.148	6973.85
679.338	7131.54
679.529	6959.51
679.719	6781.34
679.909	6979.99
680.1	6812.06
680.29	6834.58
680.481	6918.55
680.671	6810.01
680.861	6619.55
681.052	6932.89
681.242	6482.33
681.432	6787.48
681.622	6629.79
681.813	6664.6
682.003	6637.98
682.193	6478.24
682.383	6607.26
682.573	6660.51
682.764	6560.16
682.954	6549.92
683.144	6605.21
683.334	6611.36
683.524	6660.51
683.714	6629.79
683.904	6435.23
684.094	6451.61
684.284	6386.08
684.474	6427.04
684.664	6404.51
684.854	6162.85
685.044	6390.17
685.234	6310.3
685.424	6181.28
685.614	6328.74
685.804	6238.62
685.994	6197.67
686.184	6369.69
686.374	6232.48
686.564	6066.6
686.753	6234.53
686.943	5935.53
687.133	6236.58
687.323	6130.08
687.513	6111.65
687.702	6218.15
687.892	6029.73
688.082	6117.79
688.272	6064.55
688.461	6087.08
688.651	5966.24
688.841	5919.14
689.03	5892.52
689.22	5896.61
689.41	5900.71
689.599	5892.52
689.789	5888.42
689.979	5933.48
690.168	5853.61
690.358	5794.22
690.547	5712.3
690.737	5769.64
690.926	5683.63
691.116	5808.55
691.305	5960.1
691.495	5720.49
691.684	5745.06
691.874	5777.83
692.063	5493.16
692.252	5681.58
692.442	5466.54
692.631	5415.34
692.82	5566.89
693.01	5554.6
693.199	5460.4
693.388	5415.34
693.578	5609.9
693.767	5544.36
693.956	5374.38
694.146	5429.68
694.335	5419.44
694.524	5415.34
694.713	5323.18
694.902	5450.16
695.092	5398.96
695.281	5212.59
695.47	5390.77
695.659	5300.66
695.848	5347.76
696.037	5376.43
696.226	5151.15
696.415	5130.67
696.604	5239.22
696.793	5235.12
696.982	5302.7
697.171	5069.23
697.36	5140.91
697.549	5058.99
697.738	5073.33
697.927	4796.85
698.116	5192.11
698.305	5015.99
698.494	5003.7
698.683	5079.47
698.872	4929.97
699.061	4929.97
699.25	4966.84
699.438	5003.7
699.627	4909.49
699.816	5032.37
700.005	4882.87
700.193	4778.42
700.382	4938.16
700.571	4823.48
700.76	4819.38
700.948	4766.14
701.137	4811.19
701.326	4725.18
701.514	4712.89
701.703	4751.8
701.892	4651.45
702.08	4727.22
702.269	4766.14
702.457	4596.15
702.646	4622.78
702.834	4700.6
703.023	4620.73
703.212	4774.33
703.4	4569.53
703.589	4440.51
703.777	4422.08
703.965	4680.12
704.154	4446.65
704.342	4434.36
704.531	4385.21
704.719	4348.35
704.907	4520.38
705.096	4344.25
705.284	4434.36
705.472	4303.29
705.661	4450.75
705.849	4364.73
706.037	4256.19
706.226	4381.12
706.414	4286.91
706.602	4368.83
706.79	4198.85
706.979	4143.55
707.167	4098.5
707.355	4174.27
707.543	4221.38
707.731	4131.26
707.919	4190.66
708.107	4096.45
708.296	4352.45
708.484	4231.62
708.672	4155.84
708.86	4008.39
709.048	4080.07
709.236	3975.62
709.424	4116.93
709.612	4106.69
709.8	3963.33
709.988	3934.66
710.176	3996.1
710.364	3969.48
710.551	3770.82
710.739	3897.8
710.927	3905.99
711.115	3983.81
711.303	4000.19
711.491	3762.63
711.679	3822.02
711.866	3805.64
712.054	3797.45
712.242	3750.34
712.43	3785.16
712.617	3951.04
712.805	3811.78
712.993	3838.41
713.181	3764.68
713.368	3658.18
713.556	3910.08
713.744	3623.37
713.931	3916.23
714.119	3666.38
714.306	3627.46
714.494	3484.11
714.682	3590.6
714.869	3600.84
715.057	3533.26
715.244	3660.23
715.432	3721.67
715.619	3557.83
715.807	3504.59
715.994	3426.76
716.182	3563.98
716.369	3412.43
716.556	3563.98
716.744	3437
716.931	3437
717.119	3420.62
717.306	3373.52
717.493	3467.72
717.681	3490.25
717.868	3422.67
718.055	3408.33
718.242	3394
718.43	3451.34
718.617	3394
718.804	3224.01
718.991	3344.84
719.179	3424.72
719.366	3379.66
719.553	3283.41
719.74	3279.31
719.927	3287.5
720.114	3152.34
720.301	3213.77
720.488	3146.19
720.676	3287.5
720.863	3172.82
721.05	3344.84
721.237	3193.3
721.424	3150.29
721.611	3279.31
721.798	3156.43
721.985	3193.3
722.172	3131.86
722.358	3164.62
722.545	3138
722.732	3131.86
722.919	3090.9
723.106	3041.75
723.293	3113.42
723.48	3070.42
723.667	3056.08
723.853	3078.61
724.04	3033.55
724.227	3062.23
724.414	2929.11
724.6	2992.59
724.787	2961.87
724.974	3000.79
725.161	2886.1
725.347	2888.15
725.534	2935.25
725.72	2886.1
725.907	2871.76
726.094	2927.06
726.28	2855.38
726.467	2724.31
726.653	2994.64
726.84	2910.68
727.027	3000.79
727.213	2922.96
727.4	2992.59
727.586	2785.75
727.773	2849.24
727.959	2781.65
728.145	2812.37
728.332	2771.41
728.518	2832.85
728.705	2849.24
728.891	2861.52
729.077	2871.76
729.264	2826.71
729.45	2701.78
729.636	2705.88
729.823	2806.23
730.009	2703.83
730.195	2787.8
730.382	2673.11
730.568	2763.22
730.754	2669.02
730.94	2759.13
731.126	2650.58
731.313	2664.92
731.499	2675.16
731.685	2623.96
731.871	2539.99
732.057	2562.52
732.243	2648.54
732.429	2644.44
732.615	2570.71
732.801	2697.69
732.987	2525.66
733.173	2572.76
733.359	2533.85
733.545	2574.81
733.731	2537.95
733.917	2521.56
734.103	2558.42
734.289	2636.25
734.475	2529.75
734.661	2601.43
734.847	2537.95
735.033	2429.4
735.219	2632.15
735.404	2445.79
735.59	2410.97
735.776	2474.46
735.962	2476.51
736.148	2451.93
736.333	2408.92
736.519	2415.07
736.705	2349.53
736.89	2492.89
737.076	2421.21
737.262	2437.59
737.447	2533.85
737.633	2386.4
737.819	2353.63
738.004	2337.24
738.19	2388.44
738.375	2361.82
738.561	2363.87
738.747	2314.72
738.932	2273.76
739.118	2337.24
739.303	2275.81
739.489	2425.31
739.674	2230.75
739.859	2333.15
740.045	2236.89
740.23	2294.24
740.416	2101.73
740.601	2249.18
740.786	2208.22
740.972	2185.69
741.157	2150.88
741.342	2214.37
741.528	2247.13
741.713	2136.54
741.898	2101.73
742.084	2173.41
742.269	2214.37
742.454	2197.98
742.639	2236.89
742.824	2152.93
743.01	2193.89
743.195	2175.45
743.38	2181.6
743.565	2146.78
743.75	2034.14
743.935	2028
744.12	2134.5
744.305	1939.94
744.49	1980.9
744.675	1987.04
744.86	1993.19
745.045	2028
745.23	1901.03
745.415	1929.7
745.6	2077.15
745.785	1874.4
745.97	2005.47
746.155	1984.99
746.34	1974.75
746.525	1886.69
746.71	1970.66
746.895	1989.09
747.079	1829.35
747.264	1997.28
747.449	1884.64
747.634	1858.02
747.819	1747.43
748.003	1776.1
748.188	1735.14
748.373	1792.48
748.557	1870.31
748.742	1804.77
748.927	1833.44
749.111	1772
749.296	1769.96
749.481	1714.66
749.665	1712.61
749.85	1696.23
750.034	1616.36
750.219	1792.48
750.404	1757.67
750.588	1628.65
750.773	1569.26
750.957	1694.18
751.141	1645.03
751.326	1640.93
751.51	1544.68
751.695	1583.59
751.879	1587.69
752.064	1681.89
752.248	1546.73
752.432	1579.5
752.617	1577.45
752.801	1493.48
752.985	1483.24
753.17	1481.19
753.354	1511.91
753.538	1462.76
753.722	1405.42
753.907	1477.1
754.091	1501.67
754.275	1440.23
754.459	1362.41
754.643	1407.47
754.828	1444.33
755.012	1386.99
755.196	1362.41
755.38	1350.12
755.564	1329.64
755.748	1337.84
755.932	1370.6
756.116	1337.84
756.3	1346.03
756.484	1329.64
756.668	1303.02
756.852	1307.12
757.036	1264.11
757.22	1239.53
757.404	1241.58
757.588	1272.3
757.772	1237.49
757.956	1296.88
758.14	1225.2
758.323	1190.38
758.507	1153.52
758.691	1225.2
758.875	1298.92
759.059	1239.53
759.242	1073.65
759.426	1180.14
759.61	1083.89
759.794	1094.13
759.977	1161.71
760.161	1309.16
760.345	1108.46
760.528	1143.28
760.712	1026.54
760.895	1186.29
761.079	1186.29
761.263	1124.85
761.446	1079.79
761.63	1036.78
761.813	1075.7
761.997	1047.02
762.18	1022.45
762.364	1067.5
762.547	1036.78
762.731	1141.23
762.914	1018.35
763.098	1139.18
763.281	1053.17
763.464	1034.74
763.648	1030.64
763.831	1083.89
764.015	1016.3
764.198	1067.5
764.381	1026.54
764.564	963.06
764.748	1065.46
764.931	1100.27
765.114	956.91
765.297	1018.35
765.481	1020.4
765.664	977.39
765.847	963.06
766.03	1102.32
766.213	981.49
766.397	1022.45
766.58	922.1
766.763	950.77
766.946	963.06
767.129	915.95
767.312	907.76
767.495	1061.36
767.678	897.52
767.861	854.51
768.044	874.99
768.227	887.28
768.41	942.58
768.593	1014.26
768.776	969.2
768.959	856.56
769.142	971.25
769.324	936.43
769.507	961.01
769.69	866.8
769.873	870.9
770.056	1014.26
770.239	897.52
770.421	930.29
770.604	928.24
770.787	844.28
770.97	854.51
771.152	823.8
771.335	952.82
771.518	815.6
771.7	897.52
771.883	932.34
772.066	866.8
772.248	829.94
772.431	881.14
772.613	889.33
772.796	774.64
772.978	907.76
773.161	889.33
773.343	928.24
773.526	840.18
773.708	694.77
773.891	774.64
774.073	721.4
774.256	858.61
774.438	907.76
774.621	879.09
774.803	707.06
774.985	774.64
775.168	764.4
775.35	819.7
775.532	797.17
775.715	791.03
775.897	797.17
776.079	766.45
776.261	741.88
776.444	772.6
776.626	731.64
776.808	686.58
776.99	821.75
777.173	776.69
777.355	727.54
777.537	731.64
777.719	657.91
777.901	725.49
778.083	748.02
778.265	575.99
778.447	641.53
778.629	635.38
778.811	715.25
778.993	608.76
779.175	733.68
779.357	643.57
779.539	666.1
779.721	647.67
779.903	723.44
780.085	702.97
780.267	612.85
780.449	698.87
780.631	639.48
780.812	602.61
780.994	633.33
781.176	633.33
781.358	606.71
781.54	526.84
781.721	598.52
781.903	598.52
782.085	535.03
782.267	575.99
782.448	485.88
782.63	619
782.812	551.42
782.993	526.84
783.175	610.81
783.357	483.83
783.538	563.7
783.72	512.5
783.901	446.97
784.083	516.6
784.264	584.18
784.446	418.3
784.627	492.02
784.809	567.8
784.99	455.16
785.172	535.03
785.353	451.07
785.535	520.7
785.716	608.76
785.897	391.67
786.079	461.3
786.26	473.59
786.441	457.21
786.623	461.3
786.804	479.74
786.985	498.17
787.167	477.69
787.348	446.97
787.529	412.15
787.71	494.07
787.891	399.87
788.073	420.35
788.254	342.52
788.435	504.31
788.616	397.82
788.797	436.73
788.978	356.86
789.159	330.23
789.34	416.25
789.522	403.96
789.703	363
789.884	395.77
790.065	424.44
790.246	403.96
790.427	379.39
790.607	373.24
790.788	430.59
790.969	367.1
791.15	436.73
791.331	322.04
791.512	354.81
791.693	346.62
791.874	416.25
792.054	479.74
792.235	453.11
792.416	424.44
792.597	356.86
792.778	276.99
792.958	360.95
793.139	354.81
793.32	395.77
793.5	328.19
793.681	334.33
793.862	383.48
794.042	346.62
794.223	326.14
794.404	309.76
794.584	287.23
794.765	248.32
794.945	336.38
795.126	373.24
795.306	412.15
795.487	305.66
795.667	350.71
795.848	305.66
796.028	322.04
796.209	305.66
796.389	354.81
796.57	258.56
796.75	305.66
796.93	248.32
797.111	248.32
797.291	346.62
797.471	317.95
797.652	274.94
797.832	215.55
798.012	336.38
798.192	291.32
798.373	203.26
798.553	289.28
798.733	313.85
798.913	283.13
799.093	309.76
799.274	301.56
799.454	416.25
799.634	219.64
799.814	297.47
799.994	297.47
800.174	375.29
800.354	213.5
800.534	113.15
800.714	274.94
800.894	250.36
801.074	186.88
801.254	217.6
801.434	289.28
801.614	283.13
801.794	252.41
801.974	788.98
802.154	281.08
802.334	301.56
802.514	281.08
802.693	221.69
802.873	166.4
803.053	227.84
803.233	307.71
803.413	223.74
803.592	240.12
803.772	182.78
803.952	283.13
804.131	281.08
804.311	215.55
804.491	297.47
804.67	223.74
804.85	137.73
805.03	293.37
805.209	131.58
805.389	236.03
805.568	225.79
805.748	166.4
805.928	236.03
806.107	209.4
806.287	227.84
806.466	199.16
806.646	215.55
806.825	199.16
807.004	289.28
807.184	219.64
807.363	264.7
807.543	168.45
807.722	207.36
807.901	244.22
808.081	225.79
808.26	113.15
808.439	215.55
808.619	242.17
808.798	178.69
808.977	152.06
809.156	209.4
809.336	121.34
809.515	276.99
809.694	64
809.873	150.01
810.052	156.16
810.231	215.55
810.411	233.98
810.59	213.5
810.769	203.26
810.948	182.78
811.127	113.15
811.306	268.8
811.485	174.59
811.664	236.03
811.843	201.21
812.022	199.16
812.201	258.56
812.38	166.4
812.559	223.74
812.737	162.3
812.916	213.5
813.095	215.55
813.274	162.3
813.453	170.49
813.632	178.69
813.811	131.58
813.989	166.4
814.168	182.78
814.347	168.45
814.526	188.93
814.704	176.64
814.883	229.88
815.062	100.86
815.24	168.45
815.419	88.57
815.598	154.11
815.776	100.86
815.955	158.21
816.133	84.48
816.312	233.98
816.49	184.83
816.669	109.05
816.847	147.97
817.026	190.97
817.204	104.96
817.383	113.15
817.561	141.82
817.74	158.21
817.918	109.05
818.097	129.53
818.275	143.87
818.453	109.05
818.632	160.25
818.81	82.43
818.988	47.62
819.167	92.67
819.345	92.67
819.523	92.67
819.701	121.34
819.879	166.4
820.058	92.67
820.236	166.4
820.414	88.57
820.592	176.64
820.77	86.53
820.948	131.58
821.127	100.86
821.305	164.35
821.483	68.09
821.661	160.25
821.839	154.11
822.017	158.21
822.195	92.67
822.373	150.01
822.551	86.53
822.729	145.92
822.907	64
823.085	94.72
823.262	23.04
823.44	86.53
823.618	182.78
823.796	145.92
823.974	205.31
824.152	166.4
824.329	94.72
824.507	92.67
824.685	141.82
824.863	43.52
825.04	29.18
825.218	182.78
825.396	14.85
825.574	92.67
825.751	135.68
825.929	174.59
826.107	66.05
826.284	117.25
826.462	121.34
826.639	66.05
826.817	113.15
826.994	92.67
827.172	119.29
827.349	94.72
827.527	104.96
827.704	100.86
827.882	70.14
828.059	133.63
828.237	72.19
828.414	141.82
828.591	31.23
828.769	88.57
828.946	33.28
829.124	117.25
829.301	152.06
829.478	76.29
829.655	80.38
829.833	43.52
830.01	107.01
830.187	78.33
830.364	84.48
830.542	102.91
830.719	72.19
830.896	109.05
831.073	109.05
831.25	66.05
831.427	176.64
831.604	92.67
831.782	68.09
831.959	127.49
832.136	6.66
832.313	113.15
832.49	76.29
832.667	107.01
832.844	27.14
833.021	193.02
833.198	53.76
833.374	47.62
833.551	100.86
833.728	68.09
833.905	59.9
834.082	43.52
834.259	119.29
834.436	47.62
834.612	66.05
834.789	72.19
834.966	76.29
835.143	100.86
835.319	-17.92
835.496	121.34
835.673	55.81
835.85	6.66
836.026	47.62
836.203	139.77
836.38	53.76
836.556	70.14
836.733	64
836.909	145.92
837.086	-5.63
837.262	53.76
837.439	16.9
837.616	104.96
837.792	129.53
837.968	76.29
838.145	-9.73
838.321	160.25
838.498	10.75
838.674	29.18
838.851	100.86
839.027	18.94
839.203	76.29
839.38	94.72
839.556	68.09
839.732	39.42
839.909	80.38
840.085	86.53
840.261	84.48
840.437	70.14
840.614	55.81
840.79	45.57
840.966	53.76
841.142	-11.78
841.318	41.47
841.494	119.29
841.671	133.63
841.847	55.81
842.023	2.56
842.199	53.76
842.375	72.19
842.551	27.14
842.727	16.9
842.903	102.91
843.079	12.8
843.255	37.38
843.431	-34.3
843.607	127.49
843.783	-62.98
843.959	45.57
844.134	51.71
844.31	154.11
844.486	61.95
844.662	18.94
844.838	2.56
845.013	45.57
845.189	117.25
845.365	27.14
845.541	113.15
845.716	72.19
845.892	66.05
846.068	82.43
846.244	47.62
846.419	55.81
846.595	-11.78
846.77	68.09
846.946	70.14
847.122	-11.78
847.297	35.33
847.473	45.57
847.648	-17.92
847.824	84.48
847.999	-52.74
848.175	-5.63
848.35	14.85
848.526	76.29
848.701	35.33
848.876	2.56
849.052	100.86
849.227	4.61
849.403	-11.78
849.578	51.71
849.753	20.99
849.929	25.09
850.104	39.42
850.279	66.05
850.454	-19.97
850.63	27.14
850.805	20.99
850.98	10.75
851.155	20.99
851.33	27.14
851.505	84.48
851.681	100.86
851.856	-15.87
852.031	39.42
852.206	61.95
852.381	76.29
852.556	-17.92
852.731	43.52
852.906	74.24
853.081	88.57
853.256	20.99
853.431	-38.4
853.606	94.72
853.781	10.75
853.956	-42.5
854.131	39.42
854.305	8.7
854.48	37.38
854.655	-22.02
854.83	-17.92
855.005	23.04
855.18	47.62
855.354	23.04
855.529	51.71
855.704	-42.5
855.879	53.76
856.053	-40.45
856.228	43.52
856.403	53.76
856.577	45.57
856.752	10.75
856.926	37.38
857.101	96.77
857.276	-17.92
857.45	-1.54
857.625	12.8
857.799	53.76
857.974	35.33
858.148	39.42
858.323	68.09
858.497	10.75
858.672	55.81
858.846	27.14
859.02	109.05
859.195	-17.92
859.369	-9.73
859.543	-42.5
859.718	2.56
859.892	39.42
860.066	4.61
860.241	-26.11
860.415	-42.5
860.589	-13.82
860.763	59.9
860.938	-9.73
861.112	51.71
861.286	78.33
861.46	27.14
861.634	-28.16
861.808	84.48
861.982	-30.21
862.157	-34.3
862.331	-34.3
862.505	109.05
862.679	0.51
862.853	-22.02
863.027	18.94
863.201	166.4
863.375	4.61
863.549	61.95
863.722	43.52
863.896	10.75
864.07	27.14
864.244	10.75
864.418	-3.58
864.592	-7.68
864.766	-60.93
864.939	-1.54
865.113	39.42
865.287	100.86
865.461	-110.08
865.634	-46.59
865.808	18.94
865.982	-22.02
866.156	25.09
866.329	-30.21
866.503	61.95
866.676	76.29
866.85	2.56
867.024	16.9
867.197	18.94
867.371	35.33
867.544	12.8
867.718	-13.82
867.891	47.62
868.065	-40.45
868.238	-36.35
868.412	37.38
868.585	39.42
868.759	-28.16
868.932	18.94
869.105	-11.78
869.279	20.99
869.452	-15.87
869.625	-9.73
869.799	43.52
869.972	10.75
870.145	-28.16
870.319	35.33
870.492	-11.78
870.665	27.14
870.838	12.8
871.011	-110.08
871.185	-11.78
871.358	45.57
871.531	31.23
871.704	49.66
871.877	70.14
872.05	2.56
872.223	-30.21
872.396	37.38
872.569	-1.54
872.742	18.94
872.915	88.57
873.088	-5.63
873.261	-67.07
873.434	2.56
873.607	53.76
873.78	107.01
873.953	61.95
874.126	2.56
874.299	80.38
874.471	-28.16
874.644	-9.73
874.817	2.56
874.99	-19.97
875.163	6.66
875.335	68.09
875.508	-62.98
875.681	-28.16
875.853	16.9
876.026	-22.02
876.199	-9.73
876.371	74.24
876.544	2.56
876.717	33.28
876.889	-54.78
877.062	23.04
877.234	-69.12
877.407	-34.3
877.579	86.53
877.752	-3.58
877.924	14.85
878.097	27.14
878.269	25.09
878.442	12.8
878.614	-13.82
878.786	43.52
878.959	18.94
879.131	43.52
879.303	-93.69
879.476	2.56
879.648	-26.11
879.82	59.9
879.993	49.66
880.165	10.75
880.337	53.76
880.509	27.14
880.681	-13.82
880.854	-79.36
881.026	70.14
881.198	61.95
881.37	16.9
881.542	14.85
881.714	-38.4
881.886	-79.36
882.058	-5.63
882.23	119.29
882.402	-9.73
882.574	37.38
882.746	20.99
882.918	82.43
883.09	53.76
883.262	-19.97
883.434	2.56
883.606	-17.92
883.778	43.52
883.95	10.75
884.122	-42.5
884.293	51.71
884.465	43.52
884.637	98.81
884.809	45.57
884.98	39.42
885.152	80.38
885.324	53.76
885.496	-13.82
885.667	-36.35
885.839	14.85
886.011	68.09
886.182	-1.54
886.354	-38.4
886.525	51.71
886.697	-30.21
886.869	-38.4
887.04	25.09
887.212	0.51
887.383	51.71
887.555	-30.21
887.726	-22.02
887.897	-38.4
888.069	-28.16
888.24	129.53
888.412	2.56
888.583	-13.82
888.754	-22.02
888.926	-69.12
889.097	-13.82
889.268	-28.16
889.44	-9.73
889.611	-13.82
889.782	-26.11
889.953	10.75
890.125	47.62
890.296	-24.06
890.467	37.38
890.638	43.52
890.809	29.18
890.98	27.14
891.151	23.04
891.323	51.71
891.494	14.85
891.665	-40.45
891.836	43.52
892.007	-60.93
892.178	25.09
892.349	23.04
892.52	-30.21
892.691	10.75
892.862	-26.11
893.032	-58.88
893.203	-1.54
893.374	53.76
893.545	43.52
893.716	35.33
893.887	-17.92
894.057	-28.16
894.228	-26.11
894.399	0.51
894.57	35.33
894.74	20.99
894.911	143.87
895.082	-11.78
895.253	10.75
895.423	2.56
895.594	20.99
895.764	10.75
895.935	-1.54
896.106	-62.98
896.276	94.72
896.447	51.71
896.617	-38.4
896.788	-9.73
896.958	-93.69
897.129	-42.5
897.299	6.66
897.47	14.85
897.64	88.57
897.81	43.52
897.981	-9.73
898.151	-9.73
898.322	4.61
898.492	-83.45
898.662	2.56
898.832	-34.3
899.003	6.66
899.173	4.61
899.343	-62.98
899.513	35.33
