Data from USB4F104151__199__14-33-12-152.txt Node

Date: Thu Mar 13 14:33:12 EDT 2025
User: louis
Spectrometer: USB4F10415
Trigger mode: 4
Integration Time (sec): 2.500000E-2
Scans to average: 1
Electric dark correction enabled: true
Nonlinearity correction enabled: false
Boxcar width: 0
XAxis mode: Wavelengths
Number of Pixels in Spectrum: 3648
>>>>>Begin Spectral Data<<<<<
178.204	-130.73
178.424	-130.73
178.644	-130.73
178.864	-163.5
179.084	-93.87
179.304	49.49
179.524	-1.71
179.744	16.73
179.964	57.68
180.184	-7.85
180.404	-7.85
180.624	-16.04
180.844	49.49
181.064	-63.15
181.283	-16.04
181.503	-52.91
181.723	-7.85
181.943	-20.14
182.163	84.31
182.383	20.82
182.602	57.68
182.822	16.73
183.042	35.16
183.262	-26.28
183.482	-65.19
183.701	86.36
183.921	4.44
184.141	0.34
184.361	47.44
184.58	82.26
184.8	12.63
185.02	-7.85
185.239	16.73
185.459	26.96
185.679	98.64
185.898	-40.62
186.118	0.34
186.338	127.32
186.557	55.64
186.777	-32.43
186.997	24.92
187.216	65.88
187.436	123.22
187.655	59.73
187.875	61.78
188.095	-13.99
188.314	65.88
188.534	123.22
188.753	20.82
188.973	98.64
189.192	74.07
189.412	80.21
189.631	112.98
189.851	45.4
190.07	82.26
190.29	24.92
190.509	-16.04
190.729	12.63
190.948	22.87
191.168	94.55
191.387	74.07
191.607	10.58
191.826	-16.04
192.045	98.64
192.265	-18.09
192.484	55.64
192.704	6.49
192.923	-13.99
193.142	106.84
193.362	41.3
193.581	33.11
193.8	29.01
194.02	69.97
194.239	2.39
194.458	61.78
194.678	35.16
194.897	-9.9
195.116	45.4
195.335	-20.14
195.555	104.79
195.774	8.53
195.993	57.68
196.212	20.82
196.432	47.44
196.651	26.96
196.87	37.2
197.089	92.5
197.308	82.26
197.528	108.88
197.747	-1.71
197.966	33.11
198.185	84.31
198.404	49.49
198.623	78.16
198.842	-87.72
199.062	61.78
199.281	90.45
199.5	39.25
199.719	10.58
199.938	43.35
200.157	39.25
200.376	92.5
200.595	45.4
200.814	80.21
201.033	61.78
201.252	53.59
201.471	16.73
201.69	104.79
201.909	84.31
202.128	41.3
202.347	96.6
202.566	55.64
202.785	-38.57
203.004	45.4
203.223	145.75
203.442	-3.75
203.661	-26.28
203.879	-32.43
204.098	16.73
204.317	37.2
204.536	119.12
204.755	22.87
204.974	39.25
205.193	4.44
205.411	106.84
205.63	12.63
205.849	92.5
206.068	22.87
206.287	90.45
206.505	-5.8
206.724	8.53
206.943	-5.8
207.162	4.44
207.381	45.4
207.599	-24.23
207.818	115.03
208.037	31.06
208.255	104.79
208.474	26.96
208.693	-28.33
208.911	24.92
209.13	90.45
209.349	29.01
209.567	90.45
209.786	59.73
210.005	78.16
210.223	41.3
210.442	-44.71
210.661	35.16
210.879	39.25
211.098	33.11
211.316	86.36
211.535	76.12
211.753	43.35
211.972	10.58
212.191	41.3
212.409	41.3
212.628	149.84
212.846	-24.23
213.065	106.84
213.283	59.73
213.502	33.11
213.72	43.35
213.938	24.92
214.157	-3.75
214.375	69.97
214.594	-5.8
214.812	-3.75
215.031	29.01
215.249	67.92
215.467	65.88
215.686	53.59
215.904	84.31
216.122	-7.85
216.341	41.3
216.559	84.31
216.778	53.59
216.996	123.22
217.214	59.73
217.432	55.64
217.651	55.64
217.869	37.2
218.087	49.49
218.306	-5.8
218.524	82.26
218.742	0.34
218.96	90.45
219.179	22.87
219.397	24.92
219.615	123.22
219.833	37.2
220.051	72.02
220.27	37.2
220.488	35.16
220.706	6.49
220.924	24.92
221.142	57.68
221.36	45.4
221.578	-13.99
221.796	49.49
222.015	49.49
222.233	65.88
222.451	115.03
222.669	24.92
222.887	-22.19
223.105	33.11
223.323	-30.38
223.541	-7.85
223.759	-44.71
223.977	31.06
224.195	49.49
224.413	41.3
224.631	78.16
224.849	65.88
225.067	98.64
225.285	39.25
225.503	47.44
225.721	41.3
225.939	45.4
226.157	45.4
226.375	67.92
226.592	10.58
226.81	2.39
227.028	106.84
227.246	158.03
227.464	37.2
227.682	43.35
227.9	16.73
228.117	82.26
228.335	33.11
228.553	65.88
228.771	29.01
228.989	51.54
229.206	31.06
229.424	0.34
229.642	26.96
229.86	0.34
230.077	33.11
230.295	102.74
230.513	57.68
230.731	-9.9
230.948	106.84
231.166	82.26
231.384	16.73
231.601	49.49
231.819	102.74
232.037	22.87
232.254	4.44
232.472	76.12
232.689	65.88
232.907	119.12
233.125	6.49
233.342	16.73
233.56	-16.04
233.777	12.63
233.995	59.73
234.213	57.68
234.43	84.31
234.648	29.01
234.865	-7.85
235.083	76.12
235.3	76.12
235.518	53.59
235.735	115.03
235.953	76.12
236.17	69.97
236.388	-9.9
236.605	84.31
236.822	43.35
237.04	33.11
237.257	65.88
237.475	-3.75
237.692	57.68
237.909	-13.99
238.127	10.58
238.344	24.92
238.562	26.96
238.779	2.39
238.996	37.2
239.214	8.53
239.431	51.54
239.648	76.12
239.865	20.82
240.083	76.12
240.3	49.49
240.517	-7.85
240.735	65.88
240.952	20.82
241.169	49.49
241.386	-11.95
241.603	49.49
241.821	24.92
242.038	69.97
242.255	16.73
242.472	57.68
242.689	104.79
242.907	141.65
243.124	139.6
243.341	90.45
243.558	-52.91
243.775	8.53
243.992	8.53
244.209	72.02
244.426	65.88
244.643	24.92
244.86	-89.77
245.078	49.49
245.295	63.83
245.512	43.35
245.729	24.92
245.946	100.69
246.163	33.11
246.38	16.73
246.597	-7.85
246.814	49.49
247.031	-3.75
247.248	108.88
247.464	72.02
247.681	24.92
247.898	117.08
248.115	4.44
248.332	26.96
248.549	65.88
248.766	94.55
248.983	61.78
249.2	35.16
249.417	37.2
249.633	24.92
249.85	24.92
250.067	57.68
250.284	39.25
250.501	2.39
250.717	65.88
250.934	12.63
251.151	86.36
251.368	33.11
251.585	65.88
251.801	-13.99
252.018	82.26
252.235	72.02
252.451	45.4
252.668	63.83
252.885	67.92
253.102	2.39
253.318	12.63
253.535	69.97
253.752	33.11
253.968	51.54
254.185	24.92
254.401	37.2
254.618	-22.19
254.835	8.53
255.051	76.12
255.268	33.11
255.484	49.49
255.701	94.55
255.917	92.5
256.134	-24.23
256.351	135.51
256.567	-13.99
256.784	41.3
257	-34.47
257.217	112.98
257.433	123.22
257.65	4.44
257.866	82.26
258.082	55.64
258.299	51.54
258.515	80.21
258.732	0.34
258.948	22.87
259.165	16.73
259.381	18.77
259.597	0.34
259.814	74.07
260.03	22.87
260.246	-46.76
260.463	96.6
260.679	43.35
260.895	78.16
261.112	16.73
261.328	4.44
261.544	-20.14
261.761	135.51
261.977	26.96
262.193	-61.1
262.409	41.3
262.626	0.34
262.842	82.26
263.058	10.58
263.274	106.84
263.49	82.26
263.707	104.79
263.923	57.68
264.139	0.34
264.355	49.49
264.571	90.45
264.787	12.63
265.004	92.5
265.22	-67.24
265.436	57.68
265.652	102.74
265.868	88.4
266.084	18.77
266.3	84.31
266.516	4.44
266.732	63.83
266.948	90.45
267.164	80.21
267.38	84.31
267.596	37.2
267.812	119.12
268.028	-3.75
268.244	22.87
268.46	57.68
268.676	51.54
268.892	51.54
269.108	10.58
269.324	-57
269.54	82.26
269.756	115.03
269.972	4.44
270.188	49.49
270.403	41.3
270.619	80.21
270.835	74.07
271.051	41.3
271.267	29.01
271.483	12.63
271.698	41.3
271.914	90.45
272.13	-40.62
272.346	63.83
272.562	4.44
272.777	29.01
272.993	-36.52
273.209	61.78
273.425	55.64
273.64	0.34
273.856	151.89
274.072	84.31
274.287	33.11
274.503	72.02
274.719	24.92
274.934	41.3
275.15	-22.19
275.366	26.96
275.581	-32.43
275.797	-5.8
276.012	59.73
276.228	47.44
276.444	16.73
276.659	-22.19
276.875	-48.81
277.09	-22.19
277.306	49.49
277.521	35.16
277.737	57.68
277.952	84.31
278.168	20.82
278.383	121.17
278.599	76.12
278.814	67.92
279.03	108.88
279.245	59.73
279.461	115.03
279.676	-28.33
279.892	61.78
280.107	41.3
280.322	-32.43
280.538	41.3
280.753	-57
280.969	41.3
281.184	-11.95
281.399	80.21
281.615	49.49
281.83	76.12
282.045	-32.43
282.26	24.92
282.476	2.39
282.691	78.16
282.906	49.49
283.122	8.53
283.337	-3.75
283.552	14.68
283.767	8.53
283.983	94.55
284.198	26.96
284.413	102.74
284.628	14.68
284.843	31.06
285.058	90.45
285.274	41.3
285.489	-52.91
285.704	57.68
285.919	88.4
286.134	20.82
286.349	41.3
286.564	-1.71
286.779	-22.19
286.995	29.01
287.21	16.73
287.425	92.5
287.64	59.73
287.855	4.44
288.07	-50.86
288.285	16.73
288.5	8.53
288.715	72.02
288.93	74.07
289.145	-1.71
289.36	164.18
289.575	4.44
289.79	26.96
290.004	-24.23
290.219	86.36
290.434	8.53
290.649	-16.04
290.864	59.73
291.079	-7.85
291.294	49.49
291.509	88.4
291.724	82.26
291.938	98.64
292.153	16.73
292.368	61.78
292.583	100.69
292.798	-28.33
293.012	24.92
293.227	98.64
293.442	-22.19
293.657	61.78
293.871	125.27
294.086	-3.75
294.301	119.12
294.516	72.02
294.73	20.82
294.945	16.73
295.16	8.53
295.374	2.39
295.589	10.58
295.804	-34.47
296.018	8.53
296.233	98.64
296.447	69.97
296.662	12.63
296.877	61.78
297.091	143.7
297.306	74.07
297.52	41.3
297.735	14.68
297.949	106.84
298.164	102.74
298.378	67.92
298.593	90.45
298.807	18.77
299.022	57.68
299.236	110.93
299.451	4.44
299.665	106.84
299.88	20.82
300.094	-13.99
300.309	20.82
300.523	53.59
300.737	43.35
300.952	14.68
301.166	43.35
301.381	92.5
301.595	61.78
301.809	59.73
302.024	59.73
302.238	-3.75
302.452	65.88
302.667	43.35
302.881	49.49
303.095	57.68
303.309	-7.85
303.524	45.4
303.738	12.63
303.952	29.01
304.166	51.54
304.381	-40.62
304.595	76.12
304.809	53.59
305.023	41.3
305.237	2.39
305.452	12.63
305.666	16.73
305.88	94.55
306.094	63.83
306.308	88.4
306.522	26.96
306.736	18.77
306.95	37.2
307.164	8.53
307.379	49.49
307.593	24.92
307.807	33.11
308.021	49.49
308.235	125.27
308.449	57.68
308.663	14.68
308.877	125.27
309.091	35.16
309.305	82.26
309.519	-22.19
309.733	84.31
309.947	-9.9
310.161	22.87
310.374	69.97
310.588	65.88
310.802	35.16
311.016	61.78
311.23	22.87
311.444	-20.14
311.658	127.32
311.872	41.3
312.085	82.26
312.299	37.2
312.513	94.55
312.727	74.07
312.941	16.73
313.154	78.16
313.368	49.49
313.582	-1.71
313.796	119.12
314.009	33.11
314.223	65.88
314.437	49.49
314.651	86.36
314.864	37.2
315.078	-3.75
315.292	24.92
315.505	49.49
315.719	12.63
315.933	49.49
316.146	22.87
316.36	4.44
316.573	59.73
316.787	57.68
317.001	117.08
317.214	16.73
317.428	151.89
317.641	92.5
317.855	74.07
318.068	-11.95
318.282	47.44
318.495	115.03
318.709	69.97
318.922	106.84
319.136	84.31
319.349	53.59
319.563	106.84
319.776	131.41
319.99	-30.38
320.203	61.78
320.417	65.88
320.63	37.2
320.843	45.4
321.057	51.54
321.27	63.83
321.483	106.84
321.697	57.68
321.91	65.88
322.124	45.4
322.337	61.78
322.55	59.73
322.763	51.54
322.977	57.68
323.19	0.34
323.403	33.11
323.617	-16.04
323.83	100.69
324.043	57.68
324.256	49.49
324.469	-1.71
324.683	110.93
324.896	74.07
325.109	98.64
325.322	-13.99
325.535	98.64
325.748	145.75
325.962	117.08
326.175	57.68
326.388	51.54
326.601	51.54
326.814	57.68
327.027	90.45
327.24	139.6
327.453	61.78
327.666	18.77
327.879	49.49
328.092	57.68
328.305	53.59
328.518	31.06
328.731	57.68
328.944	49.49
329.157	57.68
329.37	76.12
329.583	115.03
329.796	133.46
330.009	-38.57
330.222	121.17
330.435	55.64
330.648	39.25
330.861	100.69
331.073	82.26
331.286	92.5
331.499	61.78
331.712	37.2
331.925	65.88
332.138	-5.8
332.35	61.78
332.563	33.11
332.776	100.69
332.989	4.44
333.202	115.03
333.414	59.73
333.627	26.96
333.84	-5.8
334.053	65.88
334.265	65.88
334.478	51.54
334.691	82.26
334.903	18.77
335.116	49.49
335.329	12.63
335.541	139.6
335.754	90.45
335.966	72.02
336.179	0.34
336.392	4.44
336.604	37.2
336.817	65.88
337.029	143.7
337.242	20.82
337.454	96.6
337.667	20.82
337.88	82.26
338.092	57.68
338.305	33.11
338.517	8.53
338.729	98.64
338.942	131.41
339.154	29.01
339.367	-22.19
339.579	82.26
339.792	78.16
340.004	22.87
340.217	-1.71
340.429	-16.04
340.641	-16.04
340.854	41.3
341.066	6.49
341.278	65.88
341.491	98.64
341.703	67.92
341.915	39.25
342.128	100.69
342.34	51.54
342.552	8.53
342.764	-38.57
342.977	41.3
343.189	29.01
343.401	24.92
343.613	6.49
343.826	20.82
344.038	18.77
344.25	78.16
344.462	127.32
344.674	8.53
344.886	35.16
345.099	117.08
345.311	-3.75
345.523	45.4
345.735	57.68
345.947	74.07
346.159	4.44
346.371	76.12
346.583	12.63
346.795	110.93
347.007	78.16
347.219	125.27
347.431	69.97
347.643	76.12
347.855	88.4
348.067	141.65
348.279	12.63
348.491	26.96
348.703	139.6
348.915	55.64
349.127	-28.33
349.339	59.73
349.551	-32.43
349.763	45.4
349.975	47.44
350.187	92.5
350.399	-46.76
350.61	72.02
350.822	51.54
351.034	104.79
351.246	0.34
351.458	37.2
351.669	53.59
351.881	74.07
352.093	129.36
352.305	90.45
352.517	41.3
352.728	160.08
352.94	78.16
353.152	18.77
353.363	76.12
353.575	115.03
353.787	55.64
353.999	59.73
354.21	33.11
354.422	-44.71
354.633	43.35
354.845	49.49
355.057	10.58
355.268	43.35
355.48	90.45
355.692	18.77
355.903	106.84
356.115	133.46
356.326	57.68
356.538	86.36
356.749	74.07
356.961	168.27
357.172	22.87
357.384	37.2
357.595	106.84
357.807	61.78
358.018	0.34
358.23	61.78
358.441	117.08
358.653	61.78
358.864	147.8
359.075	8.53
359.287	49.49
359.498	67.92
359.709	98.64
359.921	35.16
360.132	86.36
360.344	-16.04
360.555	78.16
360.766	65.88
360.977	67.92
361.189	24.92
361.4	12.63
361.611	67.92
361.823	78.16
362.034	82.26
362.245	49.49
362.456	12.63
362.667	82.26
362.879	8.53
363.09	12.63
363.301	72.02
363.512	45.4
363.723	74.07
363.935	57.68
364.146	143.7
364.357	172.37
364.568	43.35
364.779	8.53
364.99	158.03
365.201	24.92
365.412	84.31
365.623	8.53
365.834	65.88
366.045	119.12
366.256	59.73
366.467	57.68
366.678	69.97
366.889	78.16
367.1	37.2
367.311	96.6
367.522	-7.85
367.733	82.26
367.944	137.56
368.155	86.36
368.366	67.92
368.577	106.84
368.788	115.03
368.999	-3.75
369.209	69.97
369.42	131.41
369.631	188.75
369.842	82.26
370.053	119.12
370.264	33.11
370.474	69.97
370.685	90.45
370.896	-7.85
371.107	63.83
371.317	69.97
371.528	39.25
371.739	115.03
371.95	80.21
372.16	49.49
372.371	69.97
372.582	98.64
372.792	49.49
373.003	104.79
373.214	-57
373.424	61.78
373.635	22.87
373.846	115.03
374.056	35.16
374.267	59.73
374.477	53.59
374.688	123.22
374.898	53.59
375.109	49.49
375.319	29.01
375.53	119.12
375.74	63.83
375.951	63.83
376.161	8.53
376.372	100.69
376.582	45.4
376.793	29.01
377.003	74.07
377.214	80.21
377.424	90.45
377.635	-16.04
377.845	108.88
378.055	96.6
378.266	-3.75
378.476	26.96
378.686	74.07
378.897	67.92
379.107	160.08
379.317	67.92
379.528	49.49
379.738	94.55
379.948	12.63
380.158	35.16
380.369	94.55
380.579	127.32
380.789	2.39
380.999	104.79
381.21	74.07
381.42	100.69
381.63	100.69
381.84	33.11
382.05	65.88
382.261	119.12
382.471	102.74
382.681	115.03
382.891	90.45
383.101	155.99
383.311	-13.99
383.521	0.34
383.731	174.42
383.941	133.46
384.151	65.88
384.361	24.92
384.571	61.78
384.781	129.36
384.991	141.65
385.201	205.14
385.411	94.55
385.621	57.68
385.831	86.36
386.041	110.93
386.251	29.01
386.461	92.5
386.671	49.49
386.881	90.45
387.091	18.77
387.301	41.3
387.511	39.25
387.72	104.79
387.93	112.98
388.14	29.01
388.35	117.08
388.56	108.88
388.769	188.75
388.979	74.07
389.189	-5.8
389.399	-46.76
389.609	139.6
389.818	14.68
390.028	127.32
390.238	76.12
390.447	53.59
390.657	106.84
390.867	106.84
391.076	-16.04
391.286	26.96
391.496	115.03
391.705	139.6
391.915	102.74
392.125	110.93
392.334	55.64
392.544	24.92
392.753	106.84
392.963	123.22
393.172	90.45
393.382	65.88
393.591	74.07
393.801	123.22
394.01	67.92
394.22	53.59
394.429	110.93
394.639	104.79
394.848	108.88
395.058	98.64
395.267	90.45
395.477	137.56
395.686	188.75
395.895	123.22
396.105	205.14
396.314	174.42
396.524	43.35
396.733	96.6
396.942	123.22
397.152	123.22
397.361	147.8
397.57	168.27
397.78	158.03
397.989	139.6
398.198	155.99
398.407	-1.71
398.617	174.42
398.826	84.31
399.035	115.03
399.244	115.03
399.453	164.18
399.663	147.8
399.872	164.18
400.081	153.94
400.29	147.8
400.499	82.26
400.708	196.95
400.917	92.5
401.127	155.99
401.336	119.12
401.545	158.03
401.754	192.85
401.963	192.85
402.172	131.41
402.381	137.56
402.59	102.74
402.799	223.57
403.008	164.18
403.217	168.27
403.426	135.51
403.635	110.93
403.844	203.09
404.053	215.38
404.262	205.14
404.471	262.48
404.68	98.64
404.888	194.9
405.097	172.37
405.306	270.67
405.515	166.23
405.724	164.18
405.933	213.33
406.142	233.81
406.35	227.67
406.559	293.2
406.768	303.44
406.977	323.92
407.185	287.06
407.394	254.29
407.603	289.1
407.812	295.25
408.02	270.67
408.229	254.29
408.438	287.06
408.646	328.02
408.855	377.17
409.064	393.55
409.272	414.03
409.481	319.82
409.69	338.26
409.898	313.68
410.107	491.85
410.315	418.13
410.524	377.17
410.733	500.05
410.941	565.58
411.15	657.74
411.358	565.58
411.567	602.44
411.775	620.88
411.984	520.53
412.192	557.39
412.401	532.81
412.609	719.18
412.818	684.36
413.026	655.69
413.234	704.84
413.443	764.23
413.651	807.24
413.86	788.81
414.068	805.19
414.276	903.5
414.485	811.34
414.693	913.74
414.901	960.84
415.11	987.46
415.318	999.75
415.526	1040.71
415.734	1157.44
415.943	1083.72
416.151	1245.51
416.359	1032.52
416.567	1218.88
416.776	1179.97
416.984	1380.67
417.192	1397.06
417.4	1395.01
417.608	1339.71
417.817	1411.39
418.025	1519.93
418.233	1620.28
418.441	1591.61
418.649	1691.96
418.857	1739.07
419.065	1761.59
419.273	1831.23
419.481	1835.32
419.689	2105.65
419.897	2117.94
420.105	2021.69
420.313	2165.04
420.521	2257.2
420.729	2279.73
420.937	2367.79
421.145	2343.22
421.353	2556.21
421.561	2685.23
421.769	2849.07
421.977	2892.07
422.185	2859.31
422.393	3027.24
422.601	3203.36
422.809	3219.75
423.017	3133.73
423.224	3281.19
423.432	3416.35
423.64	3451.17
423.848	3633.44
424.056	3746.08
424.263	3883.29
424.471	3909.91
424.679	4081.94
424.887	4045.08
425.094	4235.54
425.302	4426
425.51	4505.87
425.718	4636.94
425.925	4673.81
426.133	5021.96
426.341	5316.87
426.548	5357.83
426.756	5447.94
426.964	5480.71
427.171	5812.48
427.379	5976.31
427.586	6168.82
427.794	6203.64
428.001	6465.78
428.209	6713.58
428.417	6625.52
428.624	7078.12
428.832	7233.77
429.039	6979.82
429.247	7114.98
429.454	7807.2
429.662	8155.35
429.869	7899.36
430.076	8339.67
430.284	8061.15
430.491	8442.07
430.699	8888.53
430.906	8876.24
431.114	8812.75
431.321	9339.08
431.528	9486.53
431.736	9961.66
431.943	10502.33
432.15	10205.37
432.358	10322.1
432.565	10993.84
432.772	10854.58
432.979	11395.24
433.187	11579.56
433.394	11907.23
433.601	12535.96
433.808	12621.97
434.016	12742.8
434.223	12935.31
434.43	13717.64
434.637	13396.1
434.844	14116.99
435.052	14465.14
435.259	14272.64
435.466	14641.27
435.673	14516.34
435.88	15409.26
436.087	16171.1
436.294	16074.85
436.501	15917.15
436.708	15970.4
436.915	16420.95
437.122	17387.6
437.329	17096.78
437.537	17875.01
437.743	17899.59
437.95	18085.95
438.157	18939.96
438.364	19535.92
438.571	19787.82
438.778	19324.97
438.985	21233.68
439.192	20412.45
439.399	21237.78
439.606	20676.63
439.813	21956.61
440.02	23349.23
440.227	22499.33
440.433	22667.26
440.64	23203.83
440.847	23072.76
441.054	23519.21
441.261	25178.07
441.467	25040.86
441.674	25579.47
441.881	26353.6
442.088	26372.03
442.294	25937.87
442.501	26625.98
442.708	27359.16
442.914	28483.49
443.121	29405.08
443.328	29106.07
443.534	30680.96
443.741	29749.14
443.948	29278.1
444.154	31379.32
444.361	31436.66
444.568	31510.39
444.774	31424.37
444.981	31999.85
445.187	32585.57
445.394	34066.25
445.6	33736.53
445.807	37502.75
446.013	35446.58
446.22	36065.07
446.426	37039.9
446.633	37664.53
446.839	38743.81
447.046	37332.76
447.252	39057.15
447.459	39335.68
447.665	39249.66
447.871	40826.6
448.078	42614.48
448.284	40920.8
448.491	41504.48
448.697	43341.5
448.903	43943.61
449.11	44054.2
449.316	43112.13
449.522	44113.59
449.728	45543.07
449.935	45514.4
450.141	45772.44
450.347	46737.04
450.553	45115.04
450.76	45520.54
450.966	47429.25
451.172	46720.65
451.378	47955.58
451.584	47009.42
451.791	48057.98
451.997	47875.71
452.203	48748.14
452.409	48858.73
452.615	48795.24
452.821	46634.64
453.027	46229.14
453.233	48311.92
453.44	46544.53
453.646	46954.12
453.852	46864.01
454.058	47769.21
454.264	46550.67
454.47	47773.31
454.676	46603.92
454.882	48008.82
455.088	43548.35
455.294	44414.64
455.5	45004.45
455.705	45233.83
455.911	43800.25
456.117	42936.01
456.323	42440.4
456.529	40593.13
456.735	41500.38
456.941	40908.52
457.147	40462.06
457.352	39253.76
457.558	38459.15
457.764	39048.96
457.97	37949.2
458.176	36978.47
458.381	37109.54
458.587	35249.98
458.793	34879.3
458.999	33351.51
459.204	35981.1
459.41	34860.87
459.616	32929.63
459.821	32345.96
460.027	32446.31
460.233	31670.13
460.438	29996.94
460.644	30644.1
460.85	29128.6
461.055	28696.48
461.261	28501.92
461.466	26576.83
461.672	25520.08
461.878	27629.49
462.083	25901
462.289	25372.63
462.494	24860.63
462.7	23816.17
462.905	23074.81
463.111	23826.41
463.316	24233.96
463.522	23871.47
463.727	23699.44
463.932	23461.87
464.138	23052.28
464.343	23390.19
464.549	22573.05
464.754	23402.48
464.959	23238.64
465.165	22925.3
465.37	21958.66
465.575	21233.68
465.781	22327.3
465.986	22378.5
466.191	21471.25
466.397	21166.1
466.602	20299.81
466.807	20940.82
467.012	20918.29
467.218	20693.02
467.423	20377.63
467.628	20449.31
467.833	21358.61
468.038	20457.5
468.244	20310.05
468.449	20879.38
468.654	20197.41
468.859	20052
469.064	19677.23
469.269	19093.55
469.474	18946.1
469.679	19464.24
469.885	18995.25
470.09	19331.12
470.295	19111.99
470.5	18544.7
470.705	18804.79
470.91	18133.06
471.115	18165.82
471.32	18599.99
471.525	18599.99
471.73	17666.12
471.935	17850.44
472.139	17444.94
472.344	17573.96
472.549	17399.88
472.754	17162.32
472.959	16900.18
473.164	16226.4
473.369	16117.86
473.574	16865.36
473.778	16689.24
473.983	16380
474.188	16343.13
474.393	15759.46
474.598	15825
474.802	15601.77
475.007	15573.1
475.212	15368.3
475.417	14897.27
475.621	14876.79
475.826	14940.27
476.031	14758
476.235	14608.5
476.44	14547.06
476.645	14344.31
476.849	14325.88
477.054	14094.46
477.259	14108.8
477.463	14139.52
477.668	13727.88
477.872	14057.6
478.077	13508.74
478.282	13340.81
478.486	13193.36
478.691	13009.04
478.895	13090.96
479.1	12978.32
479.304	12939.41
479.509	12640.4
479.713	12953.74
479.918	12511.38
480.122	12345.5
480.326	12556.44
480.531	12435.61
480.735	12488.85
480.94	12349.59
481.144	12855.44
481.348	12103.84
481.553	12226.71
481.757	11763.87
481.961	12277.91
482.166	12279.96
482.37	12165.28
482.574	11782.31
482.778	11948.19
482.983	12085.4
483.187	11894.94
483.391	12322.97
483.595	11946.14
483.8	11874.46
484.004	12005.53
484.208	12093.6
484.412	11993.25
484.616	12038.3
484.821	12132.51
485.025	11985.05
485.229	12255.39
485.433	11733.15
485.637	12056.73
485.841	11790.5
486.045	11745.44
486.249	11899.04
486.453	11784.35
486.657	11940
486.861	11989.15
487.065	11679.91
487.269	11960.48
487.473	11688.1
487.677	11870.37
487.881	12034.21
488.085	12026.01
488.289	11915.42
488.493	11772.07
488.697	11960.48
488.901	11757.73
489.105	11776.16
489.309	12165.28
489.512	11890.85
489.716	11946.14
489.92	12075.17
490.124	11993.25
490.328	12048.54
490.531	12198.04
490.735	12196
490.939	12054.69
491.143	12042.4
491.346	12064.93
491.55	12372.12
491.754	12150.94
491.958	12265.63
492.161	12396.7
492.365	12337.31
492.569	12408.98
492.772	12198.04
492.976	12581.01
493.18	12636.31
493.383	12796.05
493.587	12982.42
493.79	12828.82
493.994	12681.36
494.197	12662.93
494.401	12998.8
494.605	12998.8
494.808	13297.8
495.012	13160.59
495.215	13451.4
495.419	13279.37
495.622	13303.95
495.825	13607.05
496.029	13443.21
496.232	13801.6
496.436	13682.82
496.639	14213.24
496.843	13912.19
497.046	14350.46
497.249	14295.16
497.453	14297.21
497.656	14633.08
497.859	14631.03
498.063	14780.53
498.266	15226.99
498.469	14952.56
498.673	15306.86
498.876	15579.24
499.079	15351.92
499.282	15450.22
499.485	16044.13
499.689	15591.53
499.892	16072.8
500.095	16107.62
500.298	16482.39
500.501	16222.3
500.705	16791.64
500.908	17025.11
501.111	17201.23
501.314	17135.7
501.517	17403.98
501.72	17565.77
501.923	17547.34
502.126	17905.73
502.329	18264.13
502.532	18122.82
502.735	18186.3
502.938	18620.47
503.141	18755.64
503.344	18882.61
503.547	19126.32
503.75	19351.6
503.953	19791.91
504.156	19980.32
504.359	19836.97
504.562	19900.45
504.765	20500.51
504.968	20531.23
505.17	20963.35
505.373	21035.03
505.576	21553.16
505.779	21618.7
505.982	21600.27
506.185	21776.39
506.387	22077.44
506.59	22288.39
506.793	22683.64
506.996	22525.95
507.198	22913.02
507.401	22915.06
507.604	23300.08
507.807	23658.48
508.009	23664.62
508.212	23934.95
508.415	24557.53
508.617	24713.18
508.82	24809.43
509.022	24725.47
509.225	25272.28
509.428	25802.7
509.63	25659.34
509.833	25610.19
510.035	26218.44
510.238	26501.06
510.44	26531.78
510.643	27226.04
510.845	27205.56
511.048	27041.72
511.25	27479.99
511.453	27598.77
511.655	28587.94
511.858	28333.99
512.06	28823.45
512.262	28729.25
512.465	28592.03
512.667	29065.11
512.87	29484.95
513.072	29740.94
513.274	30359.43
513.477	30195.59
513.679	30474.12
513.881	30855.04
514.084	31371.13
514.286	31115.13
514.488	31647.6
514.69	31979.37
514.893	32231.27
515.095	32733.03
515.297	32653.16
515.499	32687.97
515.701	33324.89
515.904	33566.55
516.106	33744.72
516.308	33804.11
516.51	34064.21
516.712	34561.86
516.914	34649.92
517.116	35178.3
517.318	35182.4
517.52	35614.52
517.722	35958.58
517.925	35880.75
518.127	36413.23
518.329	36454.19
518.531	36812.58
518.733	37285.66
518.935	37648.15
519.136	37394.2
519.338	37738.26
519.54	38262.54
519.742	38227.73
519.944	38342.41
520.146	38999.81
520.348	38975.23
520.55	39194.37
520.752	39294.72
520.954	40304.37
521.155	39433.98
521.357	40142.58
521.559	40244.98
521.761	40750.82
521.963	40818.41
522.164	41303.78
522.366	41096.93
522.568	41152.23
522.77	41604.83
522.971	41963.22
523.173	41811.67
523.375	41983.7
523.576	42108.63
523.778	41875.16
523.98	42350.29
524.181	42960.58
524.383	42563.28
524.584	43464.38
524.786	43241.15
524.988	42921.67
525.189	43609.79
525.391	43777.72
525.592	43988.66
525.794	43796.15
525.995	44117.68
526.197	43839.16
526.398	43861.69
526.6	44258.99
526.801	43957.94
527.003	44494.51
527.204	44396.21
527.406	44367.54
527.607	44537.52
527.808	44756.65
528.01	43953.85
528.211	44324.53
528.412	45162.15
528.614	44682.92
528.815	44644.01
529.016	44740.27
529.218	45192.87
529.419	44928.68
529.62	44785.32
529.822	44693.16
530.023	45076.13
530.224	44723.88
530.425	44789.42
530.626	44443.31
530.828	44367.54
531.029	45475.49
531.23	44394.16
531.431	44588.72
531.632	45184.68
531.833	45192.87
532.035	45086.37
532.236	44691.12
532.437	45039.27
532.638	44568.24
532.839	44469.93
533.04	44664.49
533.241	44324.53
533.442	45031.08
533.643	44551.85
533.844	44588.72
534.045	44664.49
534.246	44277.43
534.447	44562.09
534.648	44558
534.849	44605.1
535.05	44314.29
535.251	44187.32
535.451	44095.16
535.652	44519.09
535.853	44658.35
536.054	44383.92
536.255	44318.39
536.456	43896.5
536.657	44357.3
536.857	44191.41
537.058	43865.78
537.259	43992.76
537.46	44046.01
537.66	43710.14
537.861	43814.58
538.062	44136.12
538.263	43880.12
538.463	44041.91
538.664	43519.68
538.865	43962.04
539.065	43763.39
539.266	43546.3
539.466	43947.7
539.667	43153.09
539.868	43980.47
540.068	43761.34
540.269	43470.53
540.469	44121.78
540.67	43095.75
540.87	43275.97
541.071	43337.41
541.271	43529.92
541.472	43509.44
541.672	43095.75
541.873	42843.85
542.073	42544.84
542.274	43792.06
542.474	43480.77
542.675	42944.2
542.875	43495.1
543.075	42948.29
543.276	42976.97
543.476	43429.57
543.676	42882.76
543.877	43458.24
544.077	43112.13
544.277	42893
544.478	42651.34
544.678	43140.8
544.878	43134.66
545.078	43050.69
545.279	42622.67
545.479	42698.44
545.679	42692.3
545.879	42893
546.079	43114.18
546.28	42733.26
546.48	42645.19
546.68	42929.86
546.88	43013.83
547.08	42604.24
547.28	42772.17
547.48	42057.43
547.68	43073.22
547.88	42606.28
548.081	43073.22
548.281	42792.65
548.481	42692.3
548.681	42618.57
548.881	42739.4
549.081	42575.56
549.28	42626.76
549.48	43038.4
549.68	42553.04
549.88	42997.45
550.08	42563.28
550.28	42591.95
550.48	42653.39
550.68	43169.47
550.88	42467.02
551.08	42368.72
551.279	43030.21
551.479	42827.46
551.679	42770.12
551.879	42460.88
552.079	43093.7
552.278	42725.07
552.478	42733.26
552.678	42776.26
552.878	43028.16
553.077	42596.04
553.277	42268.37
553.477	43003.59
553.676	42825.42
553.876	42946.25
554.076	42612.43
554.275	42702.54
554.475	42376.91
554.674	42739.4
554.874	42686.15
555.074	42618.57
555.273	43075.27
555.473	43292.35
555.672	42849.99
555.872	42645.19
556.071	42849.99
556.271	43392.7
556.47	42897.09
556.67	42649.29
556.869	43187.91
557.068	42981.06
557.268	42749.64
557.467	42794.7
557.667	42989.25
557.866	42946.25
558.065	42802.89
558.265	42735.31
558.464	42706.63
558.663	42995.4
558.863	42542.8
559.062	43280.06
559.261	42778.31
559.461	43316.93
559.66	42776.26
559.859	42866.38
560.058	42530.51
560.258	42856.14
560.457	42553.04
560.656	42897.09
560.855	42579.66
561.054	42868.42
561.253	42542.8
561.453	42815.18
561.652	43132.61
561.851	43120.32
562.05	42473.17
562.249	42759.88
562.448	43198.15
562.647	42471.12
562.846	42952.39
563.045	42577.61
563.244	42249.94
563.443	43222.72
563.642	42102.48
563.841	42649.29
564.04	42383.05
564.239	42643.15
564.438	42274.51
564.637	42579.66
564.836	42432.21
565.035	42170.07
565.234	42569.42
565.432	42118.87
565.631	42065.62
565.83	42538.7
566.029	41973.46
566.228	42282.7
566.427	41553.63
566.625	41406.17
566.824	41334.49
567.023	41905.88
567.222	41256.67
567.42	42077.91
567.619	41733.85
567.818	41438.94
568.016	41297.63
568.215	41643.74
568.414	41791.19
568.612	41420.51
568.811	41449.18
569.01	41301.73
569.208	40851.17
569.407	41252.58
569.605	40877.8
569.804	41135.84
570.002	40638.19
570.201	41000.68
570.4	40543.98
570.598	40953.57
570.797	40728.3
570.995	40775.4
571.193	40515.31
571.392	40883.94
571.59	39825.14
571.789	40521.45
571.987	40410.86
572.186	40081.14
572.384	39657.21
572.582	39911.16
572.781	40152.82
572.979	39732.98
573.177	39749.37
573.376	39675.64
573.574	39476.99
573.772	39515.9
573.971	39284.48
574.169	39122.69
574.367	39354.11
574.565	39268.09
574.763	39300.86
574.962	38840.07
575.16	38477.58
575.358	38776.58
575.556	38203.15
575.754	38635.27
575.952	38260.49
576.151	38999.81
576.349	38035.22
576.547	38184.72
576.745	38145.81
576.943	38356.75
577.141	38035.22
577.339	38285.07
577.537	37855
577.735	37885.72
577.933	37091.1
578.131	37494.55
578.329	37437.21
578.527	37300
578.725	37250.84
578.923	37130.01
579.121	36914.98
579.319	37158.69
579.516	36951.84
579.714	37068.58
579.912	36802.34
580.11	36720.42
580.308	36470.57
580.506	36650.79
580.704	36110.13
580.901	36556.58
581.099	36196.14
581.297	36388.65
581.495	36204.33
581.692	36214.57
581.89	35581.75
582.088	36204.33
582.285	35661.62
582.483	35704.63
582.681	35829.55
582.878	35710.77
583.076	35514.17
583.274	35782.45
583.471	35053.37
583.669	35284.79
583.866	35143.49
584.064	35258.17
584.262	34651.97
584.459	35374.91
584.657	34836.29
584.854	34907.97
585.052	34332.49
585.249	34893.63
585.447	34895.68
585.644	34307.91
585.841	34133.84
586.039	34285.39
586.236	33582.93
586.434	34027.34
586.631	34121.55
586.828	34084.69
587.026	34041.68
587.223	33961.81
587.42	33425.24
587.618	34146.12
587.815	33337.18
588.012	33220.44
588.21	33482.58
588.407	33714
588.604	33183.58
588.801	33036.13
588.999	33195.87
589.196	32862.05
589.393	32980.83
589.59	32864.1
589.787	32464.74
589.984	32653.16
590.182	32556.9
590.379	32784.23
590.576	31967.09
590.773	32509.8
590.97	32245.61
591.167	32567.14
591.364	32206.7
591.561	32296.81
591.758	31772.53
591.955	32038.76
592.152	32032.62
592.349	31924.08
592.546	31924.08
592.743	31743.86
592.94	31590.26
593.137	31473.53
593.334	31954.8
593.531	31313.78
593.727	31219.58
593.924	31592.31
594.121	31031.16
594.318	31301.5
594.515	30830.46
594.712	31895.41
594.908	31500.15
595.105	31520.63
595.302	31008.64
595.499	30967.68
595.696	31252.34
595.892	30629.76
596.089	31231.86
596.286	30957.44
596.482	30617.47
596.679	30769.02
596.876	30750.59
597.072	30834.56
597.269	30893.95
597.466	30666.63
597.662	30648.19
597.859	30691.2
598.055	30494.6
598.252	30128.01
598.448	30474.12
598.645	30494.6
598.841	30400.39
599.038	30295.94
599.234	30187.4
599.431	30193.54
599.627	30179.21
599.824	30226.31
600.02	29972.36
600.217	30037.9
600.413	29923.21
600.609	30009.23
600.806	29851.53
601.002	30250.89
601.198	30117.77
601.395	29794.19
601.591	30023.56
601.787	30136.2
601.984	29587.35
602.18	30345.09
602.376	29607.83
602.572	29851.53
602.769	29591.44
602.965	29775.76
603.161	29900.69
603.357	29443.99
603.553	29595.54
603.75	29951.88
603.946	29388.69
604.142	29812.62
604.338	29321.11
604.534	29570.96
604.73	29597.59
604.926	29775.76
605.122	29843.34
605.318	29624.21
605.514	29405.08
605.71	29515.67
605.906	29419.41
606.102	29863.82
606.298	29742.99
606.494	29800.33
606.69	29802.38
606.886	29781.9
607.082	29343.64
607.278	29730.7
607.474	29507.48
607.67	29527.95
607.866	29300.63
608.062	29906.83
608.257	29616.02
608.453	29740.94
608.649	29849.49
608.845	29333.4
609.041	29732.75
609.236	30121.87
609.432	29544.34
609.628	29800.33
609.824	29570.96
610.019	29818.77
610.215	29603.73
610.411	29738.9
610.606	29482.9
610.802	29728.66
610.998	30017.42
611.193	29839.25
611.389	29599.63
611.584	29767.57
611.78	29761.42
611.976	29810.57
612.171	29599.63
612.367	29896.59
612.562	29734.8
612.758	29124.5
612.953	29990.8
613.149	29861.77
613.344	29267.86
613.539	29822.86
613.735	30011.28
613.93	29734.8
614.126	30003.08
614.321	29804.43
614.517	29587.35
614.712	30052.23
614.907	29601.68
615.103	29816.72
615.298	30085
615.493	29906.83
615.688	29454.23
615.884	30351.24
616.079	29495.19
616.274	29712.27
616.47	29550.48
616.665	29998.99
616.86	29374.36
617.055	29779.85
617.25	29685.65
617.445	29609.87
617.641	29288.34
617.836	29618.07
618.031	29327.25
618.226	29618.07
618.421	29095.83
618.616	29687.7
618.811	28999.58
619.006	29446.04
619.201	28768.16
619.396	29226.9
619.591	28596.13
619.786	29464.47
619.981	28743.58
620.176	29032.35
620.371	28620.7
620.566	28518.31
620.761	28827.55
620.956	28764.06
621.151	28032.94
621.346	28508.07
621.541	27967.4
621.735	28309.41
621.93	27985.83
622.125	28024.75
622.32	27328.44
622.515	27873.2
622.709	27508.66
622.904	27498.42
623.099	27226.04
623.294	27471.79
623.488	27025.34
623.683	27051.96
623.878	26761.15
624.072	27033.53
624.267	26722.24
624.462	26390.47
624.656	26300.36
624.851	26324.93
625.046	26419.14
625.24	25901
625.435	25616.33
625.629	25778.12
625.824	25610.19
626.018	25655.25
626.213	24913.88
626.407	25391.06
626.602	25141.21
626.796	25176.02
626.991	25272.28
627.185	25028.57
627.38	24600.54
627.574	24403.94
627.768	24586.21
627.963	24209.38
628.157	24057.83
628.352	24350.69
628.546	24053.73
628.74	24121.32
628.935	23906.28
629.129	23891.94
629.323	23277.55
629.517	23412.72
629.712	23734.25
629.906	23302.13
630.1	22941.69
630.294	23160.82
630.489	23162.87
630.683	22892.54
630.877	22757.37
631.071	22532.09
631.265	22437.89
631.459	22079.49
631.653	22149.12
631.848	22208.51
632.042	22110.21
632.236	22206.47
632.43	21684.23
632.624	22130.69
632.818	21477.39
633.012	21641.23
633.206	21538.83
633.4	21448.72
633.594	21073.94
633.788	21297.17
633.982	21008.4
634.176	21102.61
634.369	20602.91
634.563	20723.74
634.757	20555.8
634.951	20768.79
635.145	20819.99
635.339	20408.35
635.533	20305.95
635.726	20121.63
635.92	19922.98
636.114	20029.48
636.308	19597.35
636.501	19714.09
636.695	19685.42
636.889	19187.76
637.083	19378.22
637.276	19187.76
637.47	19394.61
637.664	19087.41
637.857	18966.58
638.051	19044.4
638.244	18628.67
638.438	18663.48
638.632	18419.77
638.825	18649.14
639.019	18214.98
639.212	18319.42
639.406	18479.16
639.599	17940.55
639.793	18135.1
639.986	17678.41
640.18	17856.58
640.373	17842.25
640.567	17350.73
640.76	17627.21
640.954	17533
641.147	17301.58
641.34	17211.47
641.534	17252.43
641.727	17164.37
641.92	17240.14
642.114	16984.15
642.307	16613.46
642.5	16771.16
642.694	16455.77
642.887	16482.39
643.08	16480.35
643.273	16046.18
643.467	16277.6
643.66	15941.73
643.853	15751.27
644.046	15745.13
644.239	15831.14
644.432	15882.34
644.626	15517.8
644.819	15466.6
645.012	15505.51
645.205	15374.44
645.398	15409.26
645.591	15077.49
645.784	15073.39
645.977	14758
646.17	15114.35
646.363	14991.47
646.556	14594.17
646.749	14663.8
646.942	14970.99
647.135	14504.06
647.328	14430.33
647.521	14415.99
647.714	14098.56
647.907	14258.3
648.099	14276.73
648.292	14123.13
648.485	13992.06
648.678	13805.7
648.871	13897.86
649.064	13910.15
649.256	13686.92
649.449	13670.53
649.642	13594.76
649.835	13475.98
650.027	13238.41
650.22	13559.94
650.413	13113.49
650.605	13406.34
650.798	13111.44
650.991	12902.54
651.183	12931.22
651.376	12867.73
651.568	12939.41
651.761	12636.31
651.954	12652.69
652.146	12667.03
652.339	12595.35
652.531	12656.79
652.724	12380.31
652.916	12370.07
653.109	12232.86
653.301	12269.72
653.494	12292.25
653.686	11858.08
653.879	12021.92
654.071	11876.51
654.263	11587.75
654.456	11743.39
654.648	11800.74
654.84	11559.08
655.033	11722.91
655.225	11718.82
655.417	11440.29
655.61	11421.86
655.802	11399.34
655.994	11317.42
656.186	11403.43
656.379	11077.8
656.571	11264.17
656.763	10928.3
656.955	11161.77
657.148	10985.65
657.34	10825.9
657.532	10496.18
657.724	10758.32
657.916	11069.61
658.108	10651.83
658.3	10467.51
658.492	10598.58
658.684	10420.41
658.876	10563.76
659.068	10320.06
659.26	10119.35
659.452	10297.53
659.644	10272.95
659.836	10078.4
660.028	10219.71
660.22	9912.51
660.412	9896.13
660.604	9717.95
660.796	9941.18
660.988	9740.48
661.18	9605.31
661.372	9789.63
661.563	9625.79
661.755	9642.18
661.947	9545.92
662.139	9408.71
662.331	9296.07
662.522	9326.79
662.714	9343.17
662.906	9281.74
663.097	9332.93
663.289	9154.76
663.481	9205.96
663.673	9042.12
663.864	9038.03
664.056	9021.64
664.247	8898.77
664.439	8898.77
664.631	8915.15
664.822	8921.29
665.014	8794.32
665.205	8569.04
665.397	8634.58
665.588	8610
665.78	8585.43
665.971	8593.62
666.163	8610
666.354	8278.23
666.546	8304.85
666.737	8272.09
666.929	8141.02
667.12	8087.77
667.311	8354.01
667.503	8126.68
667.694	8278.23
667.885	7872.73
668.077	8085.72
668.268	7852.25
668.459	7958.75
668.651	7792.86
668.842	8085.72
669.033	7696.61
669.224	7760.09
669.416	7934.17
669.607	7794.91
669.798	7669.98
669.989	7780.57
670.18	7555.3
670.371	7592.16
670.563	7604.45
670.754	7710.94
670.945	7364.84
671.136	7293.16
671.327	7397.6
671.518	7438.56
671.709	7383.27
671.9	7227.62
672.091	7274.73
672.282	7149.8
672.473	7160.04
672.664	7231.72
672.855	7213.29
673.046	7039.21
673.237	7153.9
673.428	7039.21
673.619	6975.72
673.809	6979.82
674	6881.52
674.191	7096.55
674.382	6881.52
674.573	6922.48
674.764	6930.67
674.954	6967.53
675.145	6699.25
675.336	6820.08
675.527	6693.1
675.717	6834.41
675.908	6627.57
676.099	6701.3
676.289	6775.02
676.48	6631.66
676.671	6562.03
676.861	6578.42
677.052	6557.94
677.243	6379.76
677.433	6371.57
677.624	6705.39
677.814	6398.2
678.005	6445.3
678.195	6443.25
678.386	6365.43
678.576	6220.02
678.767	6439.16
678.957	6424.82
679.148	6373.62
679.338	6267.13
679.529	6273.27
679.719	6271.22
679.909	6185.21
680.1	6215.93
680.29	6187.25
680.481	6316.28
680.671	6187.25
680.861	6131.96
681.052	6312.18
681.242	6127.86
681.432	6207.73
681.622	6062.33
681.813	6013.18
682.003	6113.53
682.193	5959.93
682.383	6093.05
682.573	5906.68
682.764	5982.46
682.954	5964.03
683.144	5908.73
683.334	5980.41
683.524	6070.52
683.714	6013.18
683.904	5923.07
684.094	5996.79
684.284	5890.3
684.474	5994.75
684.664	5810.43
684.854	5935.35
685.044	5892.35
685.234	5847.29
685.424	5941.5
685.614	5814.52
685.804	5875.96
685.994	5761.28
686.184	5808.38
686.374	5751.04
686.564	5726.46
686.753	5681.41
686.943	5634.3
687.133	5742.85
687.323	5583.1
687.513	5576.96
687.702	5615.87
687.892	5595.39
688.082	5538.05
688.272	5540.1
688.461	5587.2
688.651	5548.29
688.841	5456.13
689.03	5368.07
689.22	5484.8
689.41	5419.27
689.599	5431.55
689.789	5464.32
689.979	5357.83
690.168	5482.75
690.358	5382.4
690.547	5290.24
690.737	5411.07
690.926	5288.2
691.116	5091.59
691.305	5357.83
691.495	5267.72
691.684	5116.17
691.874	5226.76
692.063	5214.47
692.252	5124.36
692.442	4921.61
692.631	5128.46
692.82	5312.77
693.01	5001.48
693.199	5021.96
693.388	5116.17
693.578	5073.16
693.767	5097.74
693.956	5056.78
694.146	5013.77
694.335	5054.73
694.524	5054.73
694.713	5077.26
694.902	4919.56
695.092	4968.71
695.281	4817.16
695.47	4948.23
695.659	4759.82
695.848	4837.64
696.037	4901.13
696.226	4829.45
696.415	4778.25
696.604	4841.74
696.793	4813.07
696.982	4684.05
697.171	4763.92
697.36	4753.68
697.549	4743.44
697.738	4704.53
697.927	4716.81
698.116	4735.25
698.305	4628.75
698.494	4641.04
698.683	4589.84
698.872	4682
699.061	4620.56
699.25	4378.9
699.438	4565.26
699.627	4563.22
699.816	4608.27
700.005	4557.07
700.193	4514.06
700.382	4552.98
700.571	4520.21
700.76	4487.44
700.948	4526.35
701.137	4411.67
701.326	4475.15
701.514	4403.47
701.703	4272.4
701.892	4290.84
702.08	4436.24
702.269	4389.14
702.457	4487.44
702.646	4258.07
702.834	4278.55
703.023	4301.08
703.212	4268.31
703.4	4301.08
703.589	4137.24
703.777	4303.12
703.965	4239.64
704.154	4174.1
704.342	4108.57
704.531	4178.2
704.719	4120.85
704.907	4176.15
705.096	4032.79
705.284	4067.61
705.472	4063.51
705.661	4063.51
705.849	4147.48
706.037	4167.96
706.226	3991.83
706.414	4006.17
706.602	3973.4
706.79	3967.26
706.979	3920.15
707.167	3973.4
707.355	3875.1
707.543	4022.55
707.731	3934.49
707.919	3963.16
708.107	3789.08
708.296	3946.78
708.484	3776.8
708.672	3871
708.86	3952.92
709.048	3952.92
709.236	3852.57
709.424	3731.74
709.612	3834.14
709.8	3688.73
709.988	3875.1
710.176	3801.37
710.364	3827.99
710.551	3694.88
710.739	3725.6
710.927	3686.69
711.115	3797.28
711.303	3721.5
711.491	3784.99
711.679	3567.9
711.866	3598.62
712.054	3588.38
712.242	3612.96
712.43	3678.49
712.617	3547.42
712.805	3604.77
712.993	3457.31
713.181	3406.11
713.368	3565.85
713.556	3572
713.744	3453.22
713.931	3502.37
714.119	3434.78
714.306	3543.33
714.494	3426.59
714.682	3412.26
714.869	3426.59
715.057	3383.59
715.244	3322.15
715.432	3531.04
715.619	3350.82
715.807	3363.11
715.994	3313.95
716.182	3289.38
716.369	3359.01
716.556	3273
716.744	3322.15
716.931	3352.87
717.119	3416.35
717.306	3281.19
717.493	3316
717.681	3213.6
717.868	3240.23
718.055	3285.28
718.242	3252.52
718.43	3268.9
718.617	3051.81
718.804	3268.9
718.991	3178.79
719.179	3238.18
719.366	2998.57
719.553	3207.46
719.74	3121.45
719.927	3041.57
720.114	3068.2
720.301	3195.17
720.488	3053.86
720.676	2885.93
720.863	3047.72
721.05	3060.01
721.237	3019.05
721.424	3023.14
721.611	3131.69
721.798	2967.85
721.985	2939.18
722.172	2976.04
722.358	3064.1
722.545	3090.73
722.732	2943.27
722.919	3004.71
723.106	2982.18
723.293	3014.95
723.48	2928.94
723.667	2797.87
723.853	2844.97
724.04	2799.91
724.227	2859.31
724.414	2896.17
724.6	2853.16
724.787	2812.2
724.974	2857.26
725.161	2797.87
725.347	2797.87
725.534	2894.12
725.72	2801.96
725.907	2978.09
726.094	2728.24
726.28	2748.72
726.467	2732.33
726.653	2728.24
726.84	2724.14
727.027	2820.39
727.213	2705.71
727.4	2900.27
727.586	2646.32
727.773	2601.26
727.959	2621.74
728.145	2752.81
728.332	2531.63
728.518	2593.07
728.705	2656.56
728.891	2679.08
729.077	2603.31
729.264	2636.08
729.45	2541.87
729.636	2627.89
729.823	2631.98
730.009	2668.84
730.195	2631.98
730.382	2638.13
730.568	2562.35
730.754	2564.4
730.94	2593.07
731.126	2601.26
731.313	2492.72
731.499	2484.53
731.685	2613.55
731.871	2584.88
732.057	2529.58
732.243	2556.21
732.429	2582.83
732.615	2488.62
732.801	2582.83
732.987	2523.44
733.173	2482.48
733.359	2384.18
733.545	2433.33
733.731	2433.33
733.917	2519.34
734.103	2433.33
734.289	2443.57
734.475	2414.9
734.661	2515.25
734.847	2480.43
735.033	2425.14
735.219	2343.22
735.404	2408.75
735.59	2388.27
735.776	2367.79
735.962	2347.31
736.148	2283.83
736.333	2345.27
736.519	2373.94
736.705	2343.22
736.89	2277.68
737.076	2326.83
737.262	2212.15
737.447	2189.62
737.633	2212.15
737.819	2279.73
738.004	2312.5
738.19	2261.3
738.375	2277.68
738.561	2195.76
738.747	2122.04
738.932	2187.57
739.118	2441.52
739.303	2203.96
739.489	2165.04
739.674	2298.16
739.859	2044.21
740.045	2206
740.23	2175.28
740.416	2148.66
740.601	2175.28
740.786	2064.69
740.972	2048.31
741.157	2169.14
741.342	2138.42
741.528	2072.89
741.713	2117.94
741.898	2181.43
742.084	2087.22
742.269	2015.54
742.454	2031.93
742.639	2140.47
742.824	2027.83
743.01	2033.97
743.195	2040.12
743.38	2040.12
743.565	1968.44
743.75	2062.65
743.935	1892.66
744.12	1995.06
744.305	1878.33
744.49	1931.58
744.675	1773.88
744.86	1986.87
745.045	1835.32
745.23	1941.82
745.415	1771.83
745.6	1913.14
745.785	1843.51
745.97	1884.47
746.155	1837.37
746.34	1894.71
746.525	1810.75
746.71	1747.26
746.895	1632.57
747.079	1722.68
747.264	1728.83
747.449	1714.49
747.634	1755.45
747.819	1876.28
748.003	1732.92
748.188	1763.64
748.373	1728.83
748.557	1773.88
748.742	1671.48
748.927	1780.03
749.111	1655.1
749.296	1614.14
749.481	1673.53
749.665	1689.92
749.85	1618.24
750.034	1765.69
750.219	1632.57
750.404	1564.99
750.588	1548.61
750.773	1653.05
750.957	1663.29
751.141	1513.79
751.326	1622.33
751.51	1599.8
751.695	1558.85
751.879	1601.85
752.064	1593.66
752.248	1478.97
752.432	1458.5
752.617	1456.45
752.801	1550.65
752.985	1452.35
753.17	1425.73
753.354	1456.45
753.538	1417.54
753.722	1468.73
753.907	1360.19
754.091	1372.48
754.275	1395.01
754.459	1370.43
754.643	1278.27
754.828	1345.86
755.012	1417.54
755.196	1274.18
755.38	1417.54
755.564	1272.13
755.748	1331.52
755.932	1311.04
756.116	1384.77
756.3	1274.18
756.484	1278.27
756.668	1315.14
756.852	1220.93
757.036	1251.65
757.22	1194.31
757.404	1249.6
757.588	1188.16
757.772	1321.28
757.956	1204.55
758.14	1253.7
758.323	1149.25
758.507	1257.79
758.691	1069.38
758.875	1265.99
759.059	1130.82
759.242	1065.29
759.426	1202.5
759.61	1106.24
759.794	1069.38
759.977	1075.52
760.161	1220.93
760.345	1085.76
760.528	1085.76
760.712	1069.38
760.895	1120.58
761.079	1057.09
761.263	1012.04
761.446	950.6
761.63	1036.61
761.813	1100.1
761.997	966.98
762.18	1040.71
762.364	1057.09
762.547	956.74
762.731	1104.2
762.914	1071.43
763.098	1024.33
763.281	1032.52
763.464	989.51
763.648	962.89
763.831	999.75
764.015	958.79
764.198	962.89
764.381	989.51
764.564	1028.42
764.748	1098.05
764.931	1024.33
765.114	1003.85
765.297	1032.52
765.481	926.02
765.664	1075.52
765.847	964.93
766.03	1028.42
766.213	952.65
766.397	1028.42
766.58	950.6
766.763	962.89
766.946	991.56
767.129	966.98
767.312	868.68
767.495	889.16
767.678	887.11
767.861	885.06
768.044	936.26
768.227	883.02
768.41	887.11
768.593	909.64
768.776	899.4
768.959	946.5
769.142	899.4
769.324	876.87
769.507	848.2
769.69	866.63
769.873	831.82
770.056	913.74
770.239	895.3
770.421	860.49
770.604	842.06
770.787	817.48
770.97	981.32
771.152	831.82
771.335	831.82
771.518	844.1
771.7	919.88
771.883	899.4
772.066	825.67
772.248	788.81
772.431	962.89
772.613	764.23
772.796	788.81
772.978	889.16
773.161	895.3
773.343	815.43
773.526	852.3
773.708	680.27
773.891	807.24
774.073	786.76
774.256	790.86
774.438	880.97
774.621	721.23
774.803	762.19
774.985	704.84
775.168	756.04
775.35	743.75
775.532	766.28
775.715	708.94
775.897	762.19
776.079	756.04
776.261	735.56
776.444	651.6
776.626	723.27
776.808	710.99
776.99	729.42
777.173	729.42
777.355	749.9
777.537	641.36
777.719	731.47
777.901	674.12
778.083	756.04
778.265	602.44
778.447	706.89
778.629	686.41
778.811	708.94
778.993	616.78
779.175	608.59
779.357	581.96
779.539	575.82
779.721	493.9
779.903	573.77
780.085	590.16
780.267	538.96
780.449	606.54
780.631	663.88
780.812	629.07
780.994	567.63
781.176	483.66
781.358	536.91
781.54	676.17
781.721	581.96
781.903	610.64
782.085	602.44
782.267	657.74
782.448	606.54
782.63	592.2
782.812	620.88
782.993	543.05
783.175	598.35
783.357	579.92
783.538	526.67
783.72	559.44
783.901	581.96
784.083	545.1
784.264	575.82
784.446	434.51
784.627	483.66
784.809	481.61
784.99	526.67
785.172	483.66
785.353	549.2
785.535	452.94
785.716	524.62
785.897	450.89
786.079	493.9
786.26	459.09
786.441	424.27
786.623	346.45
786.804	461.13
786.985	430.41
787.167	434.51
787.348	475.47
787.529	446.8
787.71	590.16
787.891	467.28
788.073	442.7
788.254	373.07
788.435	401.74
788.616	436.56
788.797	434.51
788.978	389.46
789.159	422.22
789.34	450.89
789.522	336.21
789.703	420.17
789.884	420.17
790.065	436.56
790.246	373.07
790.427	401.74
790.607	459.09
790.788	461.13
790.969	360.78
791.15	352.59
791.331	307.54
791.512	348.5
791.693	362.83
791.874	364.88
792.054	450.89
792.235	385.36
792.416	430.41
792.597	438.61
792.778	344.4
792.958	346.45
793.139	377.17
793.32	321.87
793.5	297.3
793.681	411.98
793.862	278.87
794.042	328.02
794.223	342.35
794.404	270.67
794.584	342.35
794.765	356.69
794.945	401.74
795.126	371.02
795.306	315.73
795.487	246.1
795.667	334.16
795.848	311.63
796.028	362.83
796.209	266.58
796.389	393.55
796.57	229.71
796.75	246.1
796.93	289.1
797.111	170.32
797.291	315.73
797.471	336.21
797.652	368.98
797.832	328.02
798.012	287.06
798.192	231.76
798.373	272.72
798.553	262.48
798.733	233.81
798.913	205.14
799.093	242
799.274	270.67
799.454	313.68
799.634	303.44
799.814	295.25
799.994	299.34
800.174	371.02
800.354	160.08
800.534	237.91
800.714	239.95
800.894	250.19
801.074	242
801.254	295.25
801.434	203.09
801.614	250.19
801.794	217.43
801.974	960.84
802.154	256.34
802.334	311.63
802.514	229.71
802.693	262.48
802.873	205.14
803.053	274.77
803.233	196.95
803.413	213.33
803.592	184.66
803.772	211.28
803.952	229.71
804.131	215.38
804.311	227.67
804.491	235.86
804.67	295.25
804.85	213.33
805.03	227.67
805.209	237.91
805.389	246.1
805.568	188.75
805.748	172.37
805.928	211.28
806.107	213.33
806.287	225.62
806.466	272.72
806.646	213.33
806.825	158.03
807.004	213.33
807.184	147.8
807.363	213.33
807.543	141.65
807.722	112.98
807.901	246.1
808.081	231.76
808.26	180.56
808.439	221.52
808.619	149.84
808.798	217.43
808.977	217.43
809.156	256.34
809.336	143.7
809.515	198.99
809.694	168.27
809.873	158.03
810.052	149.84
810.231	254.29
810.411	180.56
810.59	237.91
810.769	213.33
810.948	194.9
811.127	106.84
811.306	151.89
811.485	211.28
811.664	201.04
811.843	151.89
812.022	164.18
812.201	176.47
812.38	131.41
812.559	217.43
812.737	262.48
812.916	125.27
813.095	162.13
813.274	106.84
813.453	151.89
813.632	176.47
813.811	264.53
813.989	94.55
814.168	172.37
814.347	180.56
814.526	176.47
814.704	190.8
814.883	164.18
815.062	135.51
815.24	196.95
815.419	164.18
815.598	196.95
815.776	176.47
815.955	98.64
816.133	115.03
816.312	172.37
816.49	143.7
816.669	192.85
816.847	98.64
817.026	100.69
817.204	131.41
817.383	141.65
817.561	123.22
817.74	180.56
817.918	139.6
818.097	110.93
818.275	115.03
818.453	115.03
818.632	98.64
818.81	155.99
818.988	90.45
819.167	119.12
819.345	192.85
819.523	151.89
819.701	98.64
819.879	153.94
820.058	59.73
820.236	147.8
820.414	115.03
820.592	180.56
820.77	141.65
820.948	123.22
821.127	106.84
821.305	213.33
821.483	90.45
821.661	86.36
821.839	72.02
822.017	98.64
822.195	84.31
822.373	176.47
822.551	102.74
822.729	155.99
822.907	102.74
823.085	149.84
823.262	45.4
823.44	135.51
823.618	69.97
823.796	123.22
823.974	69.97
824.152	53.59
824.329	84.31
824.507	69.97
824.685	94.55
824.863	115.03
825.04	106.84
825.218	127.32
825.396	155.99
825.574	18.77
825.751	84.31
825.929	188.75
826.107	110.93
826.284	115.03
826.462	123.22
826.639	72.02
826.817	72.02
826.994	164.18
827.172	102.74
827.349	102.74
827.527	86.36
827.704	106.84
827.882	100.69
828.059	102.74
828.237	61.78
828.414	33.11
828.591	57.68
828.769	33.11
828.946	141.65
829.124	123.22
829.301	117.08
829.478	55.64
829.655	100.69
829.833	133.46
830.01	106.84
830.187	98.64
830.364	166.23
830.542	82.26
830.719	190.8
830.896	108.88
831.073	115.03
831.25	100.69
831.427	139.6
831.604	123.22
831.782	78.16
831.959	135.51
832.136	117.08
832.313	164.18
832.49	82.26
832.667	69.97
832.844	141.65
833.021	155.99
833.198	92.5
833.374	108.88
833.551	61.78
833.728	141.65
833.905	102.74
834.082	49.49
834.259	119.12
834.436	131.41
834.612	49.49
834.789	106.84
834.966	8.53
835.143	117.08
835.319	29.01
835.496	98.64
835.673	82.26
835.85	65.88
836.026	137.56
836.203	158.03
836.38	84.31
836.556	55.64
836.733	115.03
836.909	133.46
837.086	90.45
837.262	90.45
837.439	39.25
837.616	78.16
837.792	74.07
837.968	139.6
838.145	12.63
838.321	41.3
838.498	110.93
838.674	125.27
838.851	82.26
839.027	49.49
839.203	2.39
839.38	57.68
839.556	74.07
839.732	65.88
839.909	33.11
840.085	92.5
840.261	84.31
840.437	65.88
840.614	24.92
840.79	135.51
840.966	59.73
841.142	106.84
841.318	8.53
841.494	92.5
841.671	51.54
841.847	84.31
842.023	49.49
842.199	115.03
842.375	158.03
842.551	-11.95
842.727	-22.19
842.903	61.78
843.079	24.92
843.255	108.88
843.431	55.64
843.607	63.83
843.783	16.73
843.959	67.92
844.134	78.16
844.31	90.45
844.486	33.11
844.662	33.11
844.838	35.16
845.013	131.41
845.189	61.78
845.365	51.54
845.541	69.97
845.716	41.3
845.892	33.11
846.068	6.49
846.244	41.3
846.419	-7.85
846.595	26.96
846.77	35.16
846.946	41.3
847.122	102.74
847.297	55.64
847.473	94.55
847.648	2.39
847.824	53.59
847.999	24.92
848.175	-7.85
848.35	-16.04
848.526	84.31
848.701	57.68
848.876	41.3
849.052	14.68
849.227	43.35
849.403	2.39
849.578	65.88
849.753	82.26
849.929	92.5
850.104	69.97
850.279	74.07
850.454	67.92
850.63	45.4
850.805	12.63
850.98	59.73
851.155	90.45
851.33	-24.23
851.505	-34.47
851.681	-32.43
851.856	12.63
852.031	-11.95
852.206	78.16
852.381	80.21
852.556	0.34
852.731	65.88
852.906	69.97
853.081	37.2
853.256	33.11
853.431	110.93
853.606	-7.85
853.781	61.78
853.956	-22.19
854.131	100.69
854.305	-36.52
854.48	69.97
854.655	61.78
854.83	49.49
855.005	67.92
855.18	74.07
855.354	12.63
855.529	33.11
855.704	67.92
855.879	37.2
856.053	8.53
856.228	8.53
856.403	-71.34
856.577	-16.04
856.752	-13.99
856.926	53.59
857.101	4.44
857.276	35.16
857.45	96.6
857.625	67.92
857.799	26.96
857.974	10.58
858.148	-81.58
858.323	41.3
858.497	-11.95
858.672	-32.43
858.846	69.97
859.02	49.49
859.195	10.58
859.369	57.68
859.543	16.73
859.718	10.58
859.892	110.93
860.066	49.49
860.241	-32.43
860.415	-38.57
860.589	65.88
860.763	41.3
860.938	41.3
861.112	102.74
861.286	-20.14
861.46	18.77
861.634	57.68
861.808	108.88
861.982	41.3
862.157	35.16
862.331	63.83
862.505	12.63
862.679	-67.24
862.853	35.16
863.027	-73.39
863.201	121.17
863.375	2.39
863.549	74.07
863.722	53.59
863.896	67.92
864.07	10.58
864.244	67.92
864.418	110.93
864.592	-16.04
864.766	-48.81
864.939	26.96
865.113	20.82
865.287	-71.34
865.461	-24.23
865.634	-85.67
865.808	-36.52
865.982	61.78
866.156	29.01
866.329	6.49
866.503	24.92
866.676	61.78
866.85	147.8
867.024	-28.33
867.197	20.82
867.371	24.92
867.544	-7.85
867.718	-54.95
867.891	106.84
868.065	78.16
868.238	-20.14
868.412	10.58
868.585	57.68
868.759	33.11
868.932	0.34
869.105	-24.23
869.279	4.44
869.452	-7.85
869.625	24.92
869.799	31.06
869.972	-61.1
870.145	-44.71
870.319	61.78
870.492	57.68
870.665	2.39
870.838	8.53
871.011	-46.76
871.185	45.4
871.358	-13.99
871.531	65.88
871.704	-3.75
871.877	74.07
872.05	-79.53
872.223	-42.67
872.396	45.4
872.569	12.63
872.742	-13.99
872.915	69.97
873.088	26.96
873.261	-1.71
873.434	29.01
873.607	12.63
873.78	47.44
873.953	-54.95
874.126	-7.85
874.299	74.07
874.471	29.01
874.644	-26.28
874.817	10.58
874.99	74.07
875.163	26.96
875.335	35.16
875.508	-24.23
875.681	61.78
875.853	-11.95
876.026	4.44
876.199	43.35
876.371	-1.71
876.544	33.11
876.717	-26.28
876.889	33.11
877.062	37.2
877.234	-3.75
877.407	37.2
877.579	12.63
877.752	20.82
877.924	26.96
878.097	43.35
878.269	-16.04
878.442	-71.34
878.614	-13.99
878.786	20.82
878.959	18.77
879.131	-30.38
879.303	-32.43
879.476	8.53
879.648	24.92
879.82	-54.95
879.993	8.53
880.165	4.44
880.337	-79.53
880.509	10.58
880.681	-97.96
880.854	74.07
881.026	16.73
881.198	74.07
881.37	26.96
881.542	16.73
881.714	-7.85
881.886	18.77
882.058	41.3
882.23	51.54
882.402	-16.04
882.574	76.12
882.746	-5.8
882.918	65.88
883.09	29.01
883.262	24.92
883.434	49.49
883.606	10.58
883.778	24.92
883.95	90.45
884.122	26.96
884.293	82.26
884.465	61.78
884.637	53.59
884.809	-13.99
884.98	51.54
885.152	55.64
885.324	45.4
885.496	-48.81
885.667	-11.95
885.839	35.16
886.011	65.88
886.182	74.07
886.354	90.45
886.525	16.73
886.697	-1.71
886.869	12.63
887.04	43.35
887.212	76.12
887.383	33.11
887.555	2.39
887.726	-3.75
887.897	-44.71
888.069	80.21
888.24	69.97
888.412	57.68
888.583	-5.8
888.754	37.2
888.926	-9.9
889.097	-30.38
889.268	-44.71
889.44	33.11
889.611	-61.1
889.782	-3.75
889.953	-48.81
890.125	57.68
890.296	-38.57
890.467	-38.57
890.638	-61.1
890.809	-40.62
890.98	-7.85
891.151	-7.85
891.323	108.88
891.494	57.68
891.665	-40.62
891.836	45.4
892.007	57.68
892.178	-16.04
892.349	24.92
892.52	6.49
892.691	59.73
892.862	-11.95
893.032	-54.95
893.203	57.68
893.374	16.73
893.545	-30.38
893.716	-30.38
893.887	74.07
894.057	-7.85
894.228	33.11
894.399	-20.14
894.57	33.11
894.74	2.39
894.911	-24.23
895.082	24.92
895.253	-24.23
895.423	-95.91
895.594	106.84
895.764	78.16
895.935	-32.43
896.106	29.01
896.276	-40.62
896.447	4.44
896.617	84.31
896.788	33.11
896.958	-16.04
897.129	0.34
897.299	0.34
897.47	0.34
897.64	41.3
897.81	-38.57
897.981	43.35
898.151	24.92
898.322	155.99
898.492	69.97
898.662	41.3
898.832	49.49
899.003	35.16
899.173	26.96
899.343	20.82
899.513	-38.57
