Data from USB4F104151__152__14-31-58-648.txt Node

Date: Thu Mar 13 14:31:58 EDT 2025
User: louis
Spectrometer: USB4F10415
Trigger mode: 4
Integration Time (sec): 2.500000E-2
Scans to average: 1
Electric dark correction enabled: true
Nonlinearity correction enabled: false
Boxcar width: 0
XAxis mode: Wavelengths
Number of Pixels in Spectrum: 3648
>>>>>Begin Spectral Data<<<<<
178.204	-163.33
178.424	-163.33
178.644	-163.33
178.864	-189.95
179.084	-120.32
179.304	-7.68
179.524	-62.98
179.744	8.7
179.964	-30.21
180.184	25.09
180.404	0.51
180.624	-9.73
180.844	-17.92
181.064	18.94
181.283	-19.97
181.503	53.76
181.723	41.47
181.943	-7.68
182.163	25.09
182.383	-17.92
182.602	84.48
182.822	64
183.042	41.47
183.262	-58.88
183.482	-22.02
183.701	-7.68
183.921	-65.02
184.141	0.51
184.361	39.42
184.58	92.67
184.8	111.1
185.02	-7.68
185.239	66.05
185.459	0.51
185.679	41.47
185.898	66.05
186.118	123.39
186.338	70.14
186.557	82.43
186.777	16.9
186.997	-24.06
187.216	29.18
187.436	45.57
187.655	29.18
187.875	43.52
188.095	25.09
188.314	45.57
188.534	8.7
188.753	8.7
188.973	8.7
189.192	41.47
189.412	-28.16
189.631	4.61
189.851	-7.68
190.07	16.9
190.29	-22.02
190.509	14.85
190.729	35.33
190.948	111.1
191.168	156.16
191.387	-5.63
191.607	-40.45
191.826	49.66
192.045	35.33
192.265	35.33
192.484	57.86
192.704	12.8
192.923	25.09
193.142	111.1
193.362	61.95
193.581	57.86
193.8	53.76
194.02	45.57
194.239	-9.73
194.458	-7.68
194.678	68.09
194.897	84.48
195.116	23.04
195.335	12.8
195.555	8.7
195.774	-9.73
195.993	29.18
196.212	-7.68
196.432	-22.02
196.651	59.9
196.87	27.14
197.089	49.66
197.308	20.99
197.528	16.9
197.747	-28.16
197.966	-32.26
198.185	98.81
198.404	-9.73
198.623	37.38
198.842	53.76
199.062	-24.06
199.281	27.14
199.5	35.33
199.719	119.29
199.938	29.18
200.157	61.95
200.376	16.9
200.595	25.09
200.814	-24.06
201.033	-73.21
201.252	14.85
201.471	57.86
201.69	41.47
201.909	102.91
202.128	68.09
202.347	27.14
202.566	47.62
202.785	0.51
203.004	-28.16
203.223	156.16
203.442	33.28
203.661	78.33
203.879	33.28
204.098	57.86
204.317	-22.02
204.536	33.28
204.755	12.8
204.974	51.71
205.193	49.66
205.411	12.8
205.63	57.86
205.849	-7.68
206.068	-7.68
206.287	-11.78
206.505	94.72
206.724	37.38
206.943	4.61
207.162	0.51
207.381	64
207.599	-32.26
207.818	37.38
208.037	49.66
208.255	-54.78
208.474	2.56
208.693	51.71
208.911	-3.58
209.13	76.29
209.349	55.81
209.567	53.76
209.786	45.57
210.005	20.99
210.223	-30.21
210.442	10.75
210.661	37.38
210.879	-5.63
211.098	82.43
211.316	37.38
211.535	61.95
211.753	-15.87
211.972	2.56
212.191	0.51
212.409	0.51
212.628	-46.59
212.846	-40.45
213.065	18.94
213.283	66.05
213.502	33.28
213.72	4.61
213.938	68.09
214.157	4.61
214.375	33.28
214.594	90.62
214.812	61.95
215.031	57.86
215.249	41.47
215.467	59.9
215.686	6.66
215.904	59.9
216.122	29.18
216.341	-3.58
216.559	2.56
216.778	55.81
216.996	76.29
217.214	35.33
217.432	18.94
217.651	-95.74
217.869	-11.78
218.087	16.9
218.306	-26.11
218.524	86.53
218.742	2.56
218.96	2.56
219.179	33.28
219.397	33.28
219.615	72.19
219.833	25.09
220.051	37.38
220.27	55.81
220.488	66.05
220.706	4.61
220.924	-5.63
221.142	8.7
221.36	49.66
221.578	29.18
221.796	43.52
222.015	33.28
222.233	-32.26
222.451	10.75
222.669	-50.69
222.887	33.28
223.105	-58.88
223.323	18.94
223.541	-24.06
223.759	74.24
223.977	68.09
224.195	35.33
224.413	41.47
224.631	33.28
224.849	66.05
225.067	53.76
225.285	45.57
225.503	70.14
225.721	-40.45
225.939	-7.68
226.157	16.9
226.375	27.14
226.592	8.7
226.81	29.18
227.028	-3.58
227.246	141.82
227.464	4.61
227.682	-19.97
227.9	27.14
228.117	-19.97
228.335	10.75
228.553	55.81
228.771	80.38
228.989	16.9
229.206	27.14
229.424	-7.68
229.642	-26.11
229.86	16.9
230.077	35.33
230.295	4.61
230.513	57.86
230.731	49.66
230.948	41.47
231.166	43.52
231.384	14.85
231.601	66.05
231.819	49.66
232.037	10.75
232.254	-40.45
232.472	20.99
232.689	-44.54
232.907	47.62
233.125	-40.45
233.342	-19.97
233.56	27.14
233.777	-28.16
233.995	82.43
234.213	10.75
234.43	-89.6
234.648	-3.58
234.865	-38.4
235.083	-5.63
235.3	8.7
235.518	-13.82
235.735	29.18
235.953	86.53
236.17	18.94
236.388	37.38
236.605	-34.3
236.822	53.76
237.04	41.47
237.257	143.87
237.475	18.94
237.692	16.9
237.909	35.33
238.127	-46.59
238.344	20.99
238.562	8.7
238.779	-7.68
238.996	2.56
239.214	16.9
239.431	39.42
239.648	16.9
239.865	16.9
240.083	-7.68
240.3	78.33
240.517	-5.63
240.735	-24.06
240.952	49.66
241.169	135.68
241.386	-30.21
241.603	16.9
241.821	-22.02
242.038	82.43
242.255	-38.4
242.472	0.51
242.689	76.29
242.907	51.71
243.124	25.09
243.341	4.61
243.558	-13.82
243.775	-15.87
243.992	-85.5
244.209	14.85
244.426	78.33
244.643	-38.4
244.86	12.8
245.078	98.81
245.295	37.38
245.512	74.24
245.729	-46.59
245.946	74.24
246.163	25.09
246.38	8.7
246.597	33.28
246.814	123.39
247.031	35.33
247.248	49.66
247.464	25.09
247.681	-5.63
247.898	-7.68
248.115	-38.4
248.332	-22.02
248.549	61.95
248.766	115.2
248.983	41.47
249.2	90.62
249.417	10.75
249.633	47.62
249.85	12.8
250.067	20.99
250.284	12.8
250.501	53.76
250.717	0.51
250.934	-1.54
251.151	-9.73
251.368	8.7
251.585	90.62
251.801	-7.68
252.018	-15.87
252.235	-3.58
252.451	-7.68
252.668	12.8
252.885	37.38
253.102	25.09
253.318	53.76
253.535	-52.74
253.752	-7.68
253.968	49.66
254.185	23.04
254.401	41.47
254.618	98.81
254.835	4.61
255.051	29.18
255.268	-28.16
255.484	27.14
255.701	-5.63
255.917	37.38
256.134	-22.02
256.351	-26.11
256.567	-15.87
256.784	49.66
257	-40.45
257.217	18.94
257.433	57.86
257.65	49.66
257.866	27.14
258.082	-32.26
258.299	72.19
258.515	4.61
258.732	-3.58
258.948	43.52
259.165	-9.73
259.381	8.7
259.597	41.47
259.814	-40.45
260.03	94.72
260.246	10.75
260.463	16.9
260.679	64
260.895	-48.64
261.112	41.47
261.328	61.95
261.544	-15.87
261.761	139.77
261.977	16.9
262.193	-32.26
262.409	82.43
262.626	-7.68
262.842	49.66
263.058	33.28
263.274	10.75
263.49	18.94
263.707	66.05
263.923	12.8
264.139	-50.69
264.355	-1.54
264.571	33.28
264.787	59.9
265.004	43.52
265.22	61.95
265.436	35.33
265.652	-48.64
265.868	76.29
266.084	-22.02
266.3	-22.02
266.516	107.01
266.732	18.94
266.948	12.8
267.164	57.86
267.38	37.38
267.596	41.47
267.812	115.2
268.028	37.38
268.244	33.28
268.46	14.85
268.676	18.94
268.892	12.8
269.108	-83.45
269.324	37.38
269.54	12.8
269.756	18.94
269.972	-56.83
270.188	-13.82
270.403	-42.5
270.619	41.47
270.835	-5.63
271.051	94.72
271.267	-19.97
271.483	4.61
271.698	70.14
271.914	74.24
272.13	57.86
272.346	-32.26
272.562	51.71
272.777	49.66
272.993	25.09
273.209	10.75
273.425	33.28
273.64	43.52
273.856	107.01
274.072	16.9
274.287	35.33
274.503	94.72
274.719	113.15
274.934	-11.78
275.15	8.7
275.366	0.51
275.581	14.85
275.797	86.53
276.012	-9.73
276.228	-32.26
276.444	16.9
276.659	115.2
276.875	51.71
277.09	35.33
277.306	-24.06
277.521	23.04
277.737	82.43
277.952	-22.02
278.168	41.47
278.383	-19.97
278.599	37.38
278.814	51.71
279.03	-48.64
279.245	53.76
279.461	33.28
279.676	0.51
279.892	-56.83
280.107	-42.5
280.322	8.7
280.538	10.75
280.753	12.8
280.969	74.24
281.184	0.51
281.399	111.1
281.615	43.52
281.83	29.18
282.045	-38.4
282.26	78.33
282.476	49.66
282.691	16.9
282.906	66.05
283.122	98.81
283.337	51.71
283.552	74.24
283.767	18.94
283.983	41.47
284.198	37.38
284.413	10.75
284.628	-93.69
284.843	16.9
285.058	55.81
285.274	82.43
285.489	-79.36
285.704	-5.63
285.919	-40.45
286.134	68.09
286.349	20.99
286.564	-19.97
286.779	92.67
286.995	-5.63
287.21	-34.3
287.425	59.9
287.64	33.28
287.855	61.95
288.07	35.33
288.285	82.43
288.5	51.71
288.715	94.72
288.93	27.14
289.145	-44.54
289.36	37.38
289.575	45.57
289.79	84.48
290.004	-15.87
290.219	78.33
290.434	-32.26
290.649	-9.73
290.864	100.86
291.079	23.04
291.294	23.04
291.509	68.09
291.724	88.57
291.938	35.33
292.153	-7.68
292.368	98.81
292.583	59.9
292.798	6.66
293.012	-1.54
293.227	66.05
293.442	16.9
293.657	-3.58
293.871	53.76
294.086	53.76
294.301	74.24
294.516	88.57
294.73	86.53
294.945	10.75
295.16	-5.63
295.374	57.86
295.589	27.14
295.804	-5.63
296.018	41.47
296.233	43.52
296.447	2.56
296.662	-22.02
296.877	119.29
297.091	-22.02
297.306	12.8
297.52	-26.11
297.735	33.28
297.949	-32.26
298.164	-3.58
298.378	8.7
298.593	31.23
298.807	-24.06
299.022	-40.45
299.236	125.44
299.451	33.28
299.665	-30.21
299.88	70.14
300.094	12.8
300.309	39.42
300.523	18.94
300.737	98.81
300.952	-11.78
301.166	-11.78
301.381	25.09
301.595	-44.54
301.809	-5.63
302.024	-36.35
302.238	-52.74
302.452	-34.3
302.667	68.09
302.881	59.9
303.095	-17.92
303.309	66.05
303.524	72.19
303.738	25.09
303.952	66.05
304.166	18.94
304.381	-28.16
304.595	84.48
304.809	-15.87
305.023	82.43
305.237	16.9
305.452	59.9
305.666	-5.63
305.88	12.8
306.094	107.01
306.308	72.19
306.522	41.47
306.736	29.18
306.95	27.14
307.164	76.29
307.379	100.86
307.593	119.29
307.807	-7.68
308.021	57.86
308.235	12.8
308.449	-5.63
308.663	-44.54
308.877	70.14
309.091	-22.02
309.305	39.42
309.519	-15.87
309.733	49.66
309.947	-5.63
310.161	92.67
310.374	12.8
310.588	90.62
310.802	-3.58
311.016	-22.02
311.23	-15.87
311.444	55.81
311.658	-7.68
311.872	41.47
312.085	41.47
312.299	-13.82
312.513	4.61
312.727	131.58
312.941	-3.58
313.154	-58.88
313.368	-30.21
313.582	18.94
313.796	35.33
314.009	-24.06
314.223	55.81
314.437	43.52
314.651	55.81
314.864	-3.58
315.078	0.51
315.292	47.62
315.505	-7.68
315.719	16.9
315.933	-3.58
316.146	-38.4
316.36	20.99
316.573	78.33
316.787	51.71
317.001	16.9
317.214	-48.64
317.428	12.8
317.641	16.9
317.855	12.8
318.068	2.56
318.282	4.61
318.495	90.62
318.709	57.86
318.922	16.9
319.136	53.76
319.349	162.3
319.563	18.94
319.776	-40.45
319.99	-22.02
320.203	33.28
320.417	72.19
320.63	43.52
320.843	74.24
321.057	8.7
321.27	4.61
321.483	-24.06
321.697	59.9
321.91	-46.59
322.124	53.76
322.337	100.86
322.55	-11.78
322.763	16.9
322.977	10.75
323.19	16.9
323.403	-13.82
323.617	33.28
323.83	53.76
324.043	23.04
324.256	66.05
324.469	-1.54
324.683	43.52
324.896	16.9
325.109	45.57
325.322	47.62
325.535	74.24
325.748	20.99
325.962	25.09
326.175	45.57
326.388	16.9
326.601	-40.45
326.814	23.04
327.027	107.01
327.24	100.86
327.453	-7.68
327.666	37.38
327.879	88.57
328.092	12.8
328.305	37.38
328.518	-5.63
328.731	-26.11
328.944	-24.06
329.157	51.71
329.37	27.14
329.583	78.33
329.796	51.71
330.009	-56.83
330.222	111.1
330.435	51.71
330.648	41.47
330.861	61.95
331.073	18.94
331.286	98.81
331.499	-13.82
331.712	-48.64
331.925	41.47
332.138	0.51
332.35	57.86
332.563	-38.4
332.776	66.05
332.989	-26.11
333.202	27.14
333.414	-19.97
333.627	25.09
333.84	-13.82
334.053	86.53
334.265	49.66
334.478	37.38
334.691	59.9
334.903	41.47
335.116	4.61
335.329	-24.06
335.541	57.86
335.754	51.71
335.966	-24.06
336.179	-24.06
336.392	-42.5
336.604	59.9
336.817	-38.4
337.029	12.8
337.242	25.09
337.454	41.47
337.667	33.28
337.88	133.63
338.092	-19.97
338.305	78.33
338.517	-19.97
338.729	70.14
338.942	18.94
339.154	43.52
339.367	23.04
339.579	94.72
339.792	-32.26
340.004	49.66
340.217	68.09
340.429	37.38
340.641	-40.45
340.854	27.14
341.066	27.14
341.278	115.2
341.491	160.25
341.703	57.86
341.915	-3.58
342.128	70.14
342.34	14.85
342.552	2.56
342.764	64
342.977	-48.64
343.189	12.8
343.401	37.38
343.613	29.18
343.826	0.51
344.038	14.85
344.25	43.52
344.462	121.34
344.674	61.95
344.886	76.29
345.099	29.18
345.311	37.38
345.523	20.99
345.735	-15.87
345.947	37.38
346.159	33.28
346.371	18.94
346.583	84.48
346.795	49.66
347.007	43.52
347.219	117.25
347.431	18.94
347.643	90.62
347.855	57.86
348.067	127.49
348.279	-5.63
348.491	-22.02
348.703	-9.73
348.915	4.61
349.127	0.51
349.339	82.43
349.551	12.8
349.763	27.14
349.975	70.14
350.187	0.51
350.399	94.72
350.61	90.62
350.822	33.28
351.034	49.66
351.246	43.52
351.458	43.52
351.669	-22.02
351.881	45.57
352.093	-19.97
352.305	25.09
352.517	61.95
352.728	80.38
352.94	70.14
353.152	49.66
353.363	25.09
353.575	35.33
353.787	88.57
353.999	49.66
354.21	90.62
354.422	49.66
354.633	57.86
354.845	45.57
355.057	-13.82
355.268	-7.68
355.48	109.05
355.692	-62.98
355.903	55.81
356.115	29.18
356.326	-34.3
356.538	74.24
356.749	33.28
356.961	90.62
357.172	10.75
357.384	-38.4
357.595	74.24
357.807	6.66
358.018	-58.88
358.23	27.14
358.441	139.77
358.653	49.66
358.864	-1.54
359.075	16.9
359.287	33.28
359.498	41.47
359.709	-32.26
359.921	25.09
360.132	107.01
360.344	27.14
360.555	8.7
360.766	-75.26
360.977	31.23
361.189	45.57
361.4	2.56
361.611	12.8
361.823	49.66
362.034	-34.3
362.245	-5.63
362.456	41.47
362.667	18.94
362.879	8.7
363.09	43.52
363.301	33.28
363.512	154.11
363.723	-19.97
363.935	25.09
364.146	123.39
364.357	10.75
364.568	33.28
364.779	-13.82
364.99	123.39
365.201	59.9
365.412	25.09
365.623	-22.02
365.834	72.19
366.045	45.57
366.256	43.52
366.467	-15.87
366.678	25.09
366.889	51.71
367.1	-13.82
367.311	51.71
367.522	-17.92
367.733	113.15
367.944	29.18
368.155	57.86
368.366	107.01
368.577	143.87
368.788	98.81
368.999	51.71
369.209	-13.82
369.42	147.97
369.631	86.53
369.842	78.33
370.053	76.29
370.264	29.18
370.474	-13.82
370.685	51.71
370.896	0.51
371.107	49.66
371.317	123.39
371.528	41.47
371.739	31.23
371.95	39.42
372.16	41.47
372.371	66.05
372.582	-32.26
372.792	33.28
373.003	100.86
373.214	55.81
373.424	41.47
373.635	25.09
373.846	141.82
374.056	82.43
374.267	49.66
374.477	104.96
374.688	-7.68
374.898	33.28
375.109	100.86
375.319	16.9
375.53	70.14
375.74	66.05
375.951	66.05
376.161	29.18
376.372	88.57
376.582	12.8
376.793	37.38
377.003	57.86
377.214	33.28
377.424	98.81
377.635	57.86
377.845	-5.63
378.055	123.39
378.266	8.7
378.476	-1.54
378.686	70.14
378.897	10.75
379.107	123.39
379.317	41.47
379.528	74.24
379.738	127.49
379.948	8.7
380.158	82.43
380.369	-7.68
380.579	70.14
380.789	72.19
380.999	102.91
381.21	94.72
381.42	64
381.63	-28.16
381.84	109.05
382.05	115.2
382.261	111.1
382.471	33.28
382.681	57.86
382.891	29.18
383.101	18.94
383.311	-38.4
383.521	41.47
383.731	90.62
383.941	92.67
384.151	12.8
384.361	98.81
384.571	35.33
384.781	41.47
384.991	107.01
385.201	90.62
385.411	68.09
385.621	47.62
385.831	90.62
386.041	90.62
386.251	12.8
386.461	74.24
386.671	61.95
386.881	82.43
387.091	4.61
387.301	35.33
387.511	53.76
387.72	51.71
387.93	127.49
388.14	25.09
388.35	51.71
388.56	8.7
388.769	27.14
388.979	16.9
389.189	-3.58
389.399	18.94
389.609	57.86
389.818	47.62
390.028	141.82
390.238	139.77
390.447	41.47
390.657	100.86
390.867	76.29
391.076	35.33
391.286	94.72
391.496	29.18
391.705	-36.35
391.915	92.67
392.125	76.29
392.334	76.29
392.544	27.14
392.753	82.43
392.963	115.2
393.172	45.57
393.382	10.75
393.591	131.58
393.801	72.19
394.01	170.49
394.22	109.05
394.429	51.71
394.639	100.86
394.848	150.01
395.058	-48.64
395.267	41.47
395.477	123.39
395.686	80.38
395.895	129.53
396.105	113.15
396.314	20.99
396.524	90.62
396.733	90.62
396.942	92.67
397.152	115.2
397.361	74.24
397.57	53.76
397.78	41.47
397.989	119.29
398.198	66.05
398.407	10.75
398.617	70.14
398.826	53.76
399.035	119.29
399.244	143.87
399.453	139.77
399.663	123.39
399.872	162.3
400.081	31.23
400.29	158.21
400.499	23.04
400.708	90.62
400.917	25.09
401.127	57.86
401.336	53.76
401.545	180.73
401.754	98.81
401.963	86.53
402.172	129.53
402.381	59.9
402.59	141.82
402.799	152.06
403.008	127.49
403.217	180.73
403.426	68.09
403.635	109.05
403.844	125.44
404.053	190.97
404.262	115.2
404.471	152.06
404.68	82.43
404.888	156.16
405.097	166.4
405.306	115.2
405.515	172.54
405.724	154.11
405.933	197.12
406.142	150.01
406.35	215.55
406.559	115.2
406.768	231.93
406.977	270.84
407.185	217.6
407.394	238.08
407.603	158.21
407.812	215.55
408.02	313.85
408.229	262.65
408.438	279.04
408.646	207.36
408.855	238.08
409.064	221.69
409.272	295.42
409.481	272.89
409.69	279.04
409.898	262.65
410.107	403.96
410.315	363
410.524	320
410.733	332.28
410.941	303.61
411.15	471.54
411.358	442.87
411.567	508.41
411.775	393.72
411.984	487.93
412.192	492.02
412.401	412.15
412.609	551.42
412.818	557.56
413.026	573.94
413.234	592.37
413.443	492.02
413.651	631.29
413.86	541.18
414.068	625.14
414.276	653.81
414.485	696.82
414.693	664.05
414.901	739.83
415.11	770.55
415.318	780.79
415.526	754.16
415.734	864.75
415.943	893.43
416.151	838.13
416.359	928.24
416.567	993.78
416.776	1028.59
416.984	977.39
417.192	1065.46
417.4	981.49
417.608	1028.59
417.817	1092.08
418.025	1214.96
418.233	1386.99
418.441	1280.49
418.649	1268.2
418.857	1440.23
419.065	1438.19
419.273	1493.48
419.481	1466.86
419.689	1565.16
419.897	1554.92
420.105	1583.59
420.313	1638.89
420.521	1788.39
420.729	1745.38
420.937	1882.6
421.145	1837.54
421.353	1976.8
421.561	2173.41
421.769	2140.64
421.977	2232.8
422.185	2165.21
422.393	2404.83
422.601	2578.9
422.809	2310.62
423.017	2466.27
423.224	2687.45
423.432	2673.11
423.64	2746.84
423.848	3011.03
424.056	2795.99
424.263	3215.82
424.471	3035.6
424.679	3215.82
424.887	3346.89
425.094	3353.04
425.302	3590.6
425.51	3584.46
425.718	3662.28
425.925	3723.72
426.133	3926.47
426.341	4067.78
426.548	4280.77
426.756	4268.48
426.964	4360.64
427.171	4551.1
427.379	4676.02
427.586	4852.15
427.794	4850.1
428.001	5251.5
428.209	5484.97
428.417	5312.94
428.624	5583.27
428.832	5695.91
429.039	5499.31
429.247	5708.2
429.454	6095.27
429.662	6701.47
429.869	6152.61
430.076	6650.27
430.284	6283.68
430.491	6719.9
430.699	7053.72
430.906	6998.42
431.114	7018.9
431.321	7510.41
431.528	7537.04
431.736	7991.69
431.943	8259.97
432.15	7983.49
432.358	8241.54
432.565	8706.43
432.772	8616.32
432.979	9118.07
433.187	9378.16
433.394	9355.63
433.601	10017.13
433.808	9736.56
434.016	9740.65
434.223	10092.9
434.43	10871.13
434.637	10727.77
434.844	11297.11
435.052	11442.51
435.259	11493.71
435.466	11731.28
435.673	11667.79
435.88	12061
436.087	12796.22
436.294	12939.58
436.501	12636.48
436.708	12677.44
436.915	13084.98
437.122	13746.48
437.329	13594.93
437.537	14231.85
437.743	14307.62
437.95	14233.89
438.157	14858.53
438.364	15472.92
438.571	15321.37
438.778	15327.51
438.985	16695.55
439.192	16218.38
439.399	16644.35
439.606	16333.06
439.813	17717.49
440.02	18483.43
440.227	17936.62
440.433	17811.7
440.64	18438.37
440.847	18235.63
441.054	18598.12
441.261	20230.35
441.467	19628.24
441.674	20091.09
441.881	21055.68
442.088	20701.38
442.294	20609.22
442.501	20975.81
442.708	21330.11
442.914	22294.7
443.121	23206.05
443.328	22519.98
443.534	24125.58
443.741	23535.77
443.948	23163.04
444.154	25018.5
444.361	24766.6
444.568	24869
444.774	25092.23
444.981	25118.85
445.187	25909.36
445.394	27070.56
445.6	26523.76
445.807	28993.61
446.013	28076.12
446.22	28407.89
446.426	29698.11
446.633	29915.19
446.839	30668.84
447.046	29521.98
447.252	31258.66
447.459	31383.59
447.665	31232.04
447.871	32704.52
448.078	33677.31
448.284	32329.75
448.491	33200.13
448.697	34252.79
448.903	34791.41
449.11	34834.41
449.316	34637.81
449.522	35461.09
449.728	36048.86
449.935	36577.23
450.141	36177.88
450.347	37377.99
450.553	36130.78
450.76	36636.62
450.966	37443.52
451.172	37492.68
451.378	38098.87
451.584	37199.82
451.791	38379.45
451.997	38502.32
452.203	39098.28
452.409	39296.94
452.615	39172.01
452.821	37662.66
453.027	37162.95
453.233	39063.47
453.44	37083.08
453.646	37736.38
453.852	37898.17
454.058	38608.82
454.264	37318.6
454.47	38170.55
454.676	37148.62
454.882	38227.9
455.088	35129.32
455.294	35545.06
455.5	36077.53
455.705	36550.61
455.911	35074.02
456.117	34639.86
456.323	33955.83
456.529	32118.81
456.735	33951.74
456.941	32806.92
457.147	32143.38
457.352	31408.16
457.558	30853.16
457.764	31002.66
457.97	30259.25
458.176	29786.17
458.381	29978.68
458.587	28082.26
458.793	28424.27
458.999	27177.06
459.204	28545.1
459.41	28143.7
459.616	26165.36
459.821	26114.16
460.027	25962.61
460.233	25473.15
460.438	24152.21
460.644	24402.06
460.85	23373.98
461.055	22698.15
461.261	22937.76
461.466	21166.27
461.672	20631.75
461.878	21815.48
462.083	20254.92
462.289	20113.61
462.494	20072.65
462.7	18987.23
462.905	18608.36
463.111	19431.64
463.316	19167.45
463.522	18933.98
463.727	18890.98
463.932	18548.96
464.138	18512.1
464.343	18532.58
464.549	18178.28
464.754	18579.68
464.959	18755.81
465.165	18399.46
465.37	17291.51
465.575	16826.62
465.781	17633.52
465.986	17776.88
466.191	17334.52
466.397	16656.64
466.602	15776.02
466.807	16433.41
467.012	16511.24
467.218	16386.31
467.423	16333.06
467.628	16365.83
467.833	16926.97
468.038	16122.12
468.244	15788.3
468.449	16245
468.654	15763.73
468.859	15718.67
469.064	15771.92
469.269	14993.69
469.474	15014.17
469.679	15391
469.885	15020.31
470.09	15270.17
470.295	15229.21
470.5	14805.28
470.705	15036.7
470.91	14098.73
471.115	14278.95
471.32	14258.47
471.525	14469.41
471.73	14258.47
471.935	14127.4
472.139	13562.16
472.344	13625.65
472.549	13390.13
472.754	13496.63
472.959	13232.44
473.164	12773.69
473.369	12781.88
473.574	13246.77
473.778	13066.55
473.983	12720.45
474.188	12562.75
474.393	12190.02
474.598	12464.45
474.802	12249.41
475.007	12407.11
475.212	12089.67
475.417	11575.63
475.621	11823.44
475.826	11514.19
476.031	11546.96
476.235	11532.62
476.44	11632.97
476.645	11256.15
476.849	11413.84
477.054	11182.42
477.259	10926.43
477.463	11043.16
477.668	10647.9
477.872	10824.03
478.077	10666.33
478.282	10527.07
478.486	10273.12
478.691	10260.84
478.895	10176.87
479.1	10029.41
479.304	10203.49
479.509	9707.88
479.713	10082.66
479.918	9595.25
480.122	9474.42
480.326	9765.23
480.531	9777.51
480.735	9636.2
480.94	9697.64
481.144	9845.1
481.348	9521.52
481.553	9523.57
481.757	9066.87
481.961	9242.99
482.166	9697.64
482.37	9527.66
482.574	9394.54
482.778	9380.21
482.983	9466.22
483.187	9531.76
483.391	9603.44
483.595	9191.8
483.8	9146.74
484.004	9202.04
484.208	9537.9
484.412	9290.1
484.616	9429.36
484.821	9404.78
485.025	9087.35
485.229	9279.86
485.433	9118.07
485.637	9415.02
485.841	9144.69
486.045	9134.45
486.249	9138.55
486.453	9187.7
486.657	9283.95
486.861	9380.21
487.065	9011.57
487.269	9306.48
487.473	9081.21
487.677	9271.67
487.881	9433.46
488.085	9173.36
488.289	9429.36
488.493	9181.56
488.697	9294.19
488.901	9245.04
489.105	9238.9
489.309	9404.78
489.512	9267.57
489.716	9412.98
489.92	9281.91
490.124	9140.6
490.328	9380.21
490.531	9183.6
490.735	9290.1
490.939	9439.6
491.143	9376.11
491.346	9257.33
491.55	9464.18
491.754	9396.59
491.958	9468.27
492.161	9484.66
492.365	9548.14
492.569	9666.92
492.772	9585.01
492.976	9662.83
493.18	9652.59
493.383	9759.08
493.587	9773.42
493.79	10033.51
493.994	9879.91
494.197	9898.34
494.401	10105.19
494.605	9914.73
494.808	10103.14
495.012	10166.63
495.215	10275.17
495.419	10338.66
495.622	10101.09
495.825	10527.07
496.029	10258.79
496.232	10621.28
496.436	10555.74
496.639	10770.78
496.843	10594.65
497.046	11004.25
497.249	11129.17
497.453	11014.49
497.656	11307.35
497.859	11159.89
498.063	11256.15
498.266	11518.29
498.469	11321.68
498.673	11604.3
498.876	11608.4
499.079	11747.66
499.282	11669.84
499.485	12253.51
499.689	12194.12
499.892	12360
500.095	12468.55
500.298	12775.74
500.501	12462.4
500.705	12935.48
500.908	12845.37
501.111	13101.37
501.314	13369.65
501.517	13416.76
501.72	13427
501.923	13252.92
502.126	13668.66
502.329	13981.99
502.532	14012.71
502.735	14002.47
502.938	14225.7
503.141	14287.14
503.344	14721.31
503.547	14440.74
503.75	14623.01
503.953	15112.47
504.156	14893.34
504.359	15077.66
504.562	15438.1
504.765	15620.37
504.968	15827.21
505.17	15968.52
505.373	15978.76
505.576	16034.06
505.779	16421.13
505.982	16580.87
506.185	16568.58
506.387	16527.62
506.59	16830.72
506.793	17131.77
506.996	17281.27
507.198	17647.86
507.401	17719.54
507.604	17453.3
507.807	17940.72
508.009	18421.99
508.212	18032.88
508.415	18505.96
508.617	18514.15
508.82	18637.03
509.022	18661.6
509.225	19259.61
509.428	19402.97
509.63	19275.99
509.833	19292.38
510.035	19798.23
510.238	19855.57
510.44	20177.1
510.643	20533.45
510.845	20392.14
511.048	20390.09
511.25	20951.23
511.453	21055.68
511.655	21770.42
511.858	21549.24
512.06	21719.22
512.262	22116.53
512.465	21883.06
512.667	22579.37
512.87	22386.86
513.072	22573.22
513.274	23093.41
513.477	23175.33
513.679	23210.14
513.881	23654.55
514.084	23455.9
514.286	23715.99
514.488	23754.9
514.69	24813.7
514.893	24526.99
515.095	24541.32
515.297	25000.07
515.499	25018.5
515.701	25428.09
515.904	25649.27
516.106	25784.44
516.308	25653.37
516.51	26210.42
516.712	26189.94
516.914	26820.71
517.116	26654.83
517.318	27029.6
517.52	26970.21
517.722	27347.04
517.925	27633.75
518.127	27773.02
518.329	28029.01
518.531	28115.03
518.733	28411.98
518.935	28524.62
519.136	28074.07
519.338	28553.29
519.54	29022.28
519.742	29294.66
519.944	29130.82
520.146	29622.33
520.348	29784.12
520.55	29745.21
520.752	29784.12
520.954	30580.78
521.155	30228.53
521.357	30496.81
521.559	30816.3
521.761	31234.08
521.963	31045.67
522.164	31225.89
522.366	31481.89
522.568	31424.54
522.77	31838.23
522.971	32253.97
523.173	31643.68
523.375	32065.56
523.576	32141.33
523.778	31971.35
523.98	32505.87
524.181	32184.34
524.383	32374.8
524.584	32989.19
524.786	32950.28
524.988	32772.11
525.189	32950.28
525.391	33540.1
525.592	33529.86
525.794	33452.03
525.995	33427.46
526.197	33077.26
526.398	33775.61
526.6	33681.41
526.801	33830.91
527.003	33650.69
527.204	33855.48
527.406	33867.77
527.607	33910.78
527.808	34033.66
528.01	33538.05
528.211	34119.67
528.412	34549.74
528.614	33986.55
528.815	34123.77
529.016	34314.23
529.218	33880.06
529.419	34275.32
529.62	34258.93
529.822	33933.31
530.023	34134.01
530.224	34078.71
530.425	34181.11
530.626	33955.83
530.828	33683.45
531.029	34398.2
531.23	33974.27
531.431	33888.25
531.632	34342.9
531.833	34209.78
532.035	33703.93
532.236	34338.8
532.437	34134.01
532.638	33611.78
532.839	34152.44
533.04	34371.57
533.241	34088.95
533.442	34164.73
533.643	33855.48
533.844	33796.09
534.045	33927.16
534.246	33513.47
534.447	33763.32
534.648	33777.66
534.849	33896.44
535.05	33529.86
535.251	33865.72
535.451	33486.85
535.652	33554.43
535.853	33579.01
536.054	33628.16
536.255	33337.35
536.456	33120.26
536.657	33830.91
536.857	33583.1
537.058	32606.22
537.259	33595.39
537.46	33196.04
537.66	33130.5
537.861	33603.58
538.062	33435.65
538.263	33425.41
538.463	33282.05
538.664	33017.86
538.865	33140.74
539.065	33468.42
539.266	33069.06
539.466	33216.52
539.667	32794.64
539.868	33435.65
540.068	32958.47
540.269	32974.86
540.469	33220.61
540.67	33288.2
540.87	32677.9
541.071	32931.85
541.271	32962.57
541.472	33079.3
541.672	32675.85
541.873	32577.55
542.073	32307.22
542.274	32913.42
542.474	32391.19
542.675	32303.12
542.875	32864.27
543.075	32757.77
543.276	32024.6
543.476	32886.79
543.676	32636.94
543.877	32698.38
544.077	32391.19
544.277	32542.74
544.478	32612.37
544.678	32522.26
544.878	32559.12
545.078	32552.98
545.279	32565.26
545.479	32573.45
545.679	32667.66
545.879	32530.45
546.079	32356.37
546.28	32612.37
546.48	32368.66
546.68	32536.59
546.88	32333.84
547.08	32389.14
547.28	32124.95
547.48	32389.14
547.68	32688.14
547.88	32282.64
548.081	32808.97
548.281	32534.54
548.481	32272.4
548.681	32614.41
548.881	32376.85
549.081	32395.28
549.28	32116.76
549.48	32180.24
549.68	32608.27
549.88	32772.11
550.08	32401.43
550.28	32802.83
550.48	32313.36
550.68	32907.27
550.88	32200.72
551.08	32477.2
551.279	32516.11
551.479	32344.08
551.679	32688.14
551.879	32288.79
552.079	32651.28
552.278	32299.03
552.478	32495.63
552.678	32268.31
552.878	32794.64
553.077	32745.48
553.277	32301.08
553.477	32995.34
553.676	32471.06
553.876	32798.73
554.076	32630.8
554.275	32657.42
554.475	32292.88
554.674	32682
554.874	32542.74
555.074	32559.12
555.273	32835.59
555.473	32843.79
555.672	32565.26
555.872	32786.44
556.071	32962.57
556.271	32929.8
556.47	32786.44
556.67	32552.98
556.869	32352.27
557.068	32995.34
557.268	32866.31
557.467	32677.9
557.667	32733.2
557.866	32798.73
558.065	32968.71
558.265	32542.74
558.464	32305.17
558.663	33169.41
558.863	32579.6
559.062	33017.86
559.261	32495.63
559.461	33286.15
559.66	32559.12
559.859	32813.07
560.058	32823.31
560.258	32722.96
560.457	32458.77
560.656	32880.65
560.855	32428.05
561.054	32649.23
561.253	32055.32
561.453	32620.56
561.652	32536.59
561.851	32829.45
562.05	32415.76
562.249	32583.69
562.448	32725
562.647	32854.03
562.846	32616.46
563.045	32464.91
563.244	32294.93
563.443	33021.96
563.642	32020.5
563.841	32696.33
564.04	32354.32
564.239	32886.79
564.438	32086.04
564.637	32364.56
564.836	32280.6
565.035	32251.92
565.234	32278.55
565.432	32428.05
565.631	32157.72
565.83	32241.68
566.029	32092.18
566.228	32135.19
566.427	31991.83
566.625	31758.36
566.824	31481.89
567.023	32071.7
567.222	31572
567.42	32090.13
567.619	31823.9
567.818	31848.47
568.016	31707.16
568.215	32124.95
568.414	31737.88
568.612	31864.86
568.811	31520.8
569.01	31741.98
569.208	31256.61
569.407	31633.44
569.605	31084.58
569.804	31653.92
570.002	30951.46
570.201	31485.98
570.4	31137.83
570.598	30994.47
570.797	30849.07
570.995	30799.91
571.193	30662.7
571.392	30941.22
571.59	30996.52
571.789	30812.2
571.987	30648.36
572.186	30408.75
572.384	30421.04
572.582	30623.79
572.781	30722.09
572.979	29886.52
573.177	30408.75
573.376	30433.33
573.574	29904.95
573.772	30052.41
573.971	30036.02
574.169	29794.36
574.367	29614.14
574.565	29917.24
574.763	29599.8
574.962	29663.29
575.16	29521.98
575.358	29804.6
575.556	29065.28
575.754	29681.72
575.952	29261.89
576.151	29509.69
576.349	28655.69
576.547	28940.36
576.745	29229.12
576.943	29012.04
577.141	28899.4
577.339	28733.51
577.537	28764.23
577.735	28784.71
577.933	28547.15
578.131	28774.47
578.329	28565.58
578.527	27830.36
578.725	27979.86
578.923	28117.07
579.121	28196.95
579.319	28143.7
579.516	28229.71
579.714	28342.35
579.912	28006.48
580.11	27703.39
580.308	27713.63
580.506	27506.78
580.704	27263.07
580.901	27707.48
581.099	27787.35
581.297	27535.45
581.495	27385.95
581.692	27367.52
581.89	27336.8
582.088	27512.92
582.285	27240.54
582.483	27338.85
582.681	27086.95
582.878	26908.77
583.076	26800.23
583.274	27269.22
583.471	26396.78
583.669	26990.69
583.866	26296.43
584.064	26763.37
584.262	26384.49
584.459	26783.85
584.657	26384.49
584.854	26523.76
585.052	26054.77
585.249	26484.84
585.447	26155.12
585.644	25714.81
585.841	26185.84
586.039	25964.66
586.236	25589.88
586.434	25923.7
586.631	25690.23
586.828	25659.51
587.026	25847.93
587.223	25796.73
587.42	25415.8
587.618	25555.07
587.815	25534.59
588.012	25280.64
588.21	25374.84
588.407	25749.62
588.604	25415.8
588.801	24950.92
588.999	25374.84
589.196	25469.05
589.393	25043.07
589.59	24891.52
589.787	24946.82
589.984	24664.2
590.182	24443.02
590.379	24823.94
590.576	24369.29
590.773	24701.06
590.97	24750.21
591.167	24635.53
591.364	24658.06
591.561	24502.41
591.758	24668.3
591.955	24539.27
592.152	24338.57
592.349	24631.43
592.546	24551.56
592.743	24195.21
592.94	24182.93
593.137	24084.62
593.334	24264.85
593.531	23752.85
593.727	23902.36
593.924	24129.68
594.121	23957.65
594.318	23900.31
594.515	23503
594.712	24131.73
594.908	23500.95
595.105	23797.91
595.302	23810.2
595.499	23814.29
595.696	23767.19
595.892	23672.98
596.089	23677.08
596.286	23847.06
596.482	23330.97
596.679	23701.65
596.876	23261.34
597.072	23687.32
597.269	23394.46
597.466	23208.09
597.662	23392.41
597.859	23480.47
598.055	23414.94
598.252	23287.96
598.448	23445.66
598.645	23156.89
598.841	23339.16
599.038	23376.03
599.234	23380.12
599.431	23537.82
599.627	23242.91
599.824	23341.21
600.02	23322.78
600.217	23546.01
600.413	23490.71
600.609	23240.86
600.806	23482.52
601.002	23509.15
601.198	23234.72
601.395	23128.22
601.591	23158.94
601.787	23382.17
601.984	23269.53
602.18	23453.85
602.376	22978.72
602.572	23173.28
602.769	23234.72
602.965	23011.49
603.161	23435.42
603.357	23292.06
603.553	23494.81
603.75	23175.33
603.946	23429.27
604.142	23398.55
604.338	23079.07
604.534	23586.97
604.73	23208.09
604.926	23330.97
605.122	23259.29
605.318	23097.5
605.514	23378.08
605.71	23109.79
605.906	23711.89
606.102	23496.86
606.298	23603.35
606.494	23406.75
606.69	23269.53
606.886	23656.6
607.082	23333.02
607.278	23601.3
607.474	23277.72
607.67	23670.93
607.866	23136.41
608.062	23771.29
608.257	23683.22
608.453	23701.65
608.649	23740.57
608.845	23683.22
609.041	23601.3
609.236	23683.22
609.432	23804.05
609.628	24187.02
609.824	23906.45
610.019	23687.32
610.215	24055.95
610.411	23894.16
610.606	23912.6
610.802	24051.86
610.998	24227.98
611.193	24127.63
611.389	24107.15
611.584	23654.55
611.78	23986.32
611.976	24045.71
612.171	24357
612.367	24096.91
612.562	24017.04
612.758	24035.47
612.953	24010.9
613.149	24445.07
613.344	24135.82
613.539	24305.81
613.735	24256.65
613.93	24463.5
614.126	24250.51
614.321	24447.11
614.517	24346.76
614.712	23996.56
614.907	24311.95
615.103	24156.3
615.298	24336.52
615.493	24631.43
615.688	24221.84
615.884	24555.66
616.079	24178.83
616.274	24092.82
616.47	24238.22
616.665	24365.2
616.86	24281.23
617.055	24514.7
617.25	24316.04
617.445	24438.92
617.641	23740.57
617.836	24256.65
618.031	24211.6
618.226	24326.28
618.421	24236.17
618.616	24463.5
618.811	23703.7
619.006	24234.13
619.201	23724.18
619.396	23892.12
619.591	23576.73
619.786	24049.81
619.981	23652.5
620.176	23933.07
620.371	23965.84
620.566	23646.36
620.761	23345.31
620.956	23638.17
621.151	23222.43
621.346	23158.94
621.541	23218.33
621.735	23431.32
621.93	22859.94
622.125	23310.49
622.32	22689.96
622.515	22853.8
622.709	22773.92
622.904	22837.41
623.099	22741.16
623.294	22835.36
623.488	22333.61
623.683	22655.14
623.878	22141.1
624.072	22249.64
624.267	22241.45
624.462	21754.04
624.656	21952.69
624.851	21872.82
625.046	21614.77
625.24	21549.24
625.435	21487.8
625.629	21520.57
625.824	21307.58
626.018	21180.6
626.213	20662.47
626.407	20949.18
626.602	20560.07
626.796	20959.42
626.991	20693.19
627.185	20793.54
627.38	20328.65
627.574	20490.44
627.768	20216.01
627.963	20293.83
628.157	20222.16
628.352	20109.52
628.546	19718.36
628.74	20191.44
628.935	19687.64
629.129	19925.2
629.323	19669.2
629.517	19536.09
629.712	19398.87
629.906	19519.7
630.1	19155.16
630.294	19204.31
630.489	18970.85
630.683	18991.33
630.877	19005.66
631.071	18772.19
631.265	18909.41
631.459	18708.71
631.653	18571.49
631.848	18534.63
632.042	18587.88
632.236	18360.55
632.43	18198.76
632.624	18309.35
632.818	17848.56
633.012	17860.85
633.206	17918.19
633.4	17776.88
633.594	17516.79
633.788	17778.93
633.982	18090.22
634.176	17694.96
634.369	17506.55
634.563	17438.97
634.757	17225.98
634.951	17142.01
635.145	17213.69
635.339	17115.39
635.533	17008.89
635.726	16763.14
635.92	16466.18
636.114	16468.23
636.308	16662.79
636.501	16646.4
636.695	16462.08
636.889	16085.26
637.083	16023.82
637.276	15978.76
637.47	16109.83
637.664	16081.16
637.857	16040.2
638.051	15763.73
638.244	15673.62
638.438	15757.58
638.632	15436.05
638.825	15327.51
639.019	15214.87
639.212	15454.48
639.406	15094.04
639.599	15198.49
639.793	15114.52
639.986	15073.56
640.18	14883.1
640.373	14727.46
640.567	14709.02
640.76	14653.73
640.954	14440.74
641.147	14520.61
641.34	14291.24
641.534	14090.54
641.727	14346.53
641.92	13975.85
642.114	14041.39
642.307	14237.99
642.5	13750.57
642.694	13533.49
642.887	13672.75
643.08	13756.72
643.273	13394.23
643.467	13443.38
643.66	13316.4
643.853	13222.2
644.046	13039.93
644.239	13013.31
644.432	12945.72
644.626	12978.49
644.819	12671.29
645.012	12775.74
645.205	12749.12
645.398	12730.69
645.591	12478.79
645.784	12511.55
645.977	12372.29
646.17	12357.96
646.363	12329.28
646.556	12175.69
646.749	12128.58
646.942	12413.25
647.135	11919.69
647.328	12054.86
647.521	11854.16
647.714	11581.78
647.907	11831.63
648.099	11673.93
648.292	11893.07
648.485	11401.55
648.678	11354.45
648.871	11354.45
649.064	11284.82
649.256	11293.01
649.449	11161.94
649.642	11071.83
649.835	10994.01
650.027	10895.71
650.22	10989.91
650.413	11098.45
650.605	10940.76
650.798	10654.05
650.991	10578.27
651.183	10701.15
651.376	10522.98
651.568	10686.81
651.761	10326.37
651.954	10469.73
652.146	10348.9
652.339	10379.62
652.531	10242.4
652.724	10260.84
652.916	10010.98
653.109	9988.46
653.301	10076.52
653.494	10068.33
653.686	9830.76
653.879	9978.22
654.071	9894.25
654.263	9701.74
654.456	9613.68
654.648	9736.56
654.84	9544.05
655.033	9576.81
655.225	9613.68
655.417	9433.46
655.61	9388.4
655.802	9259.38
655.994	9304.43
656.186	9316.72
656.379	9136.5
656.571	9269.62
656.763	8905.08
656.955	8970.62
657.148	8917.37
657.34	9042.29
657.532	8847.74
657.724	8880.5
657.916	8864.12
658.108	8913.27
658.3	8786.3
658.492	8790.39
658.684	8634.75
658.876	8612.22
659.068	8520.06
659.26	8438.14
659.452	8454.53
659.644	8403.33
659.836	8515.97
660.028	8339.84
660.22	8198.53
660.412	8317.31
660.604	8069.51
660.796	8151.43
660.988	8069.51
661.18	8106.37
661.372	7971.21
661.563	7997.83
661.755	7776.65
661.947	7809.42
662.139	7766.41
662.331	7799.18
662.522	7846.28
662.714	7672.2
662.906	7510.41
663.097	7686.54
663.289	7416.21
663.481	7588.24
663.673	7487.89
663.864	7340.43
664.056	7358.86
664.247	7350.67
664.439	7197.07
664.631	7375.25
664.822	7233.94
665.014	7475.6
665.205	7221.65
665.397	6951.32
665.588	7229.84
665.78	6947.22
665.971	6918.55
666.163	7006.61
666.354	7092.63
666.546	6988.18
666.737	6826.39
666.929	6816.15
667.12	6676.89
667.311	6795.67
667.503	6726.04
667.694	6787.48
667.885	6494.62
668.077	6709.66
668.268	6605.21
668.459	6500.76
668.651	6447.52
668.842	6607.26
669.033	6488.48
669.224	6414.75
669.416	6455.71
669.607	6226.34
669.798	6343.07
669.989	6369.69
670.18	6199.71
670.371	6205.86
670.563	6259.1
670.754	6117.79
670.945	5878.18
671.136	6119.84
671.327	6087.08
671.518	6060.45
671.709	6011.3
671.9	6115.75
672.091	5884.33
672.282	5806.5
672.473	5884.33
672.664	6119.84
672.855	5960.1
673.046	6060.45
673.237	6021.54
673.428	5980.58
673.619	5882.28
673.809	5777.83
674	5849.51
674.191	5898.66
674.382	5738.92
674.573	5794.22
674.764	5677.48
674.954	5786.02
675.145	5583.27
675.336	5775.78
675.527	5620.14
675.717	5669.29
675.908	5693.87
676.099	5597.61
676.289	5525.93
676.48	5616.04
676.671	5546.41
676.861	5550.51
677.052	5423.53
677.243	5507.5
677.433	5353.9
677.624	5300.66
677.814	5489.07
678.005	5480.88
678.195	5456.3
678.386	5378.48
678.576	5312.94
678.767	5413.29
678.957	5546.41
679.148	5452.2
679.338	5366.19
679.529	5398.96
679.719	5333.42
679.909	5458.35
680.1	5433.77
680.29	5370.29
680.481	5374.38
680.671	5390.77
680.861	5177.78
681.052	5286.32
681.242	5302.7
681.432	5331.37
681.622	5231.02
681.813	5171.63
682.003	5099.95
682.193	5228.98
682.383	5267.89
682.573	5292.46
682.764	5138.87
682.954	5317.04
683.144	5136.82
683.334	5161.39
683.524	5210.54
683.714	5128.63
683.904	5224.88
684.094	5204.4
684.284	5280.18
684.474	5171.63
684.664	5056.95
684.854	5112.24
685.044	5091.76
685.234	4823.48
685.424	5030.32
685.614	5005.75
685.804	4899.25
685.994	5231.02
686.184	4897.21
686.374	5003.7
686.564	5042.61
686.753	5003.7
686.943	4923.83
687.133	4884.92
687.323	5046.71
687.513	4768.18
687.702	5063.09
687.892	4766.14
688.082	4903.35
688.272	4903.35
688.461	4934.07
688.651	4927.92
688.841	4860.34
689.03	4889.01
689.22	4884.92
689.41	4913.59
689.599	4837.81
689.789	4835.77
689.979	4673.98
690.168	4788.66
690.358	4639.16
690.547	4667.83
690.737	4846.01
690.926	4620.73
691.116	4510.14
691.305	4694.46
691.495	4440.51
691.684	4624.83
691.874	4743.61
692.063	4624.83
692.252	4555.19
692.442	4729.27
692.631	4405.69
692.82	4512.19
693.01	4512.19
693.199	4526.52
693.388	4551.1
693.578	4450.75
693.767	4534.71
693.956	4352.45
694.146	4417.98
694.335	4360.64
694.524	4514.24
694.713	4469.18
694.902	4379.07
695.092	4446.65
695.281	4352.45
695.47	4342.21
695.659	4301.25
695.848	4159.94
696.037	4417.98
696.226	4440.51
696.415	4405.69
696.604	4469.18
696.793	4207.04
696.982	4272.57
697.171	4223.42
697.36	4301.25
697.549	4329.92
697.738	4268.48
697.927	4254.14
698.116	4274.62
698.305	4278.72
698.494	4149.7
698.683	4137.41
698.872	4202.94
699.061	4176.32
699.25	4141.5
699.438	4278.72
699.627	4104.64
699.816	4086.21
700.005	4012.48
700.193	4129.22
700.382	4153.79
700.571	4024.77
700.76	4131.26
700.948	4153.79
701.137	4161.98
701.326	4014.53
701.514	3973.57
701.703	4075.97
701.892	4055.49
702.08	4084.16
702.269	3916.23
702.457	3781.06
702.646	3961.28
702.834	3897.8
703.023	3967.43
703.212	3949
703.4	3830.21
703.589	3697.1
703.777	3789.25
703.965	3801.54
704.154	3893.7
704.342	3715.53
704.531	3903.94
704.719	3789.25
704.907	3969.48
705.096	3869.12
705.284	3834.31
705.472	3844.55
705.661	3727.82
705.849	3752.39
706.037	3713.48
706.226	3797.45
706.414	3881.41
706.602	3731.91
706.79	3680.71
706.979	3668.42
707.167	3830.21
707.355	3543.5
707.543	3572.17
707.731	3817.93
707.919	3678.66
708.107	3555.79
708.296	3604.94
708.484	3656.14
708.672	3668.42
708.86	3477.96
709.048	3486.15
709.236	3459.53
709.424	3516.87
709.612	3473.87
709.8	3529.16
709.988	3566.03
710.176	3473.87
710.364	3400.14
710.551	3396.04
710.739	3473.87
710.927	3391.95
711.115	3365.32
711.303	3516.87
711.491	3398.09
711.679	3260.88
711.866	3457.48
712.054	3338.7
712.242	3322.32
712.43	3430.86
712.617	3373.52
712.805	3322.32
712.993	3326.41
713.181	3289.55
713.368	3330.51
713.556	3310.03
713.744	3297.74
713.931	3400.14
714.119	3219.92
714.306	3299.79
714.494	3187.15
714.682	3252.69
714.869	3148.24
715.057	3197.39
715.244	3070.42
715.432	3150.29
715.619	3170.77
715.807	3006.93
715.994	3219.92
716.182	3088.85
716.369	3074.51
716.556	3164.62
716.744	3154.38
716.931	3105.23
717.119	3295.69
717.306	3211.73
717.493	3049.94
717.681	3101.14
717.868	3172.82
718.055	2984.4
718.242	2994.64
718.43	2984.4
718.617	2953.68
718.804	2949.59
718.991	2947.54
719.179	2992.59
719.366	2933.2
719.553	3033.55
719.74	2867.67
719.927	2802.13
720.114	2900.44
720.301	3047.89
720.488	2785.75
720.676	2884.05
720.863	2884.05
721.05	2963.92
721.237	2839
721.424	2814.42
721.611	2867.67
721.798	2695.64
721.985	2767.32
722.172	2744.79
722.358	2777.56
722.545	2879.96
722.732	2740.69
722.919	2877.91
723.106	2810.33
723.293	2697.69
723.48	2744.79
723.667	2748.89
723.853	2752.98
724.04	2712.02
724.227	2646.49
724.414	2560.47
724.6	2675.16
724.787	2752.98
724.974	2605.53
725.161	2693.59
725.347	2630.1
725.534	2591.19
725.72	2777.56
725.907	2630.1
726.094	2730.45
726.28	2605.53
726.467	2558.42
726.653	2482.65
726.84	2658.78
727.027	2695.64
727.213	2607.58
727.4	2523.61
727.586	2632.15
727.773	2574.81
727.959	2517.47
728.145	2648.54
728.332	2380.25
728.518	2435.55
728.705	2486.75
728.891	2560.47
729.077	2535.9
729.264	2486.75
729.45	2503.13
729.636	2527.71
729.823	2425.31
730.009	2363.87
730.195	2501.08
730.382	2513.37
730.568	2345.44
730.754	2429.4
730.94	2531.8
731.126	2531.8
731.313	2443.74
731.499	2288.09
731.685	2460.12
731.871	2329.05
732.057	2466.27
732.243	2378.2
732.429	2265.57
732.615	2294.24
732.801	2378.2
732.987	2267.61
733.173	2269.66
733.359	2206.17
733.545	2365.92
733.731	2179.55
733.917	2339.29
734.103	2365.92
734.289	2335.2
734.475	2353.63
734.661	2406.88
734.847	2286.05
735.033	2271.71
735.219	2230.75
735.404	2257.37
735.59	2370.01
735.776	2224.61
735.962	2253.28
736.148	2220.51
736.333	2224.61
736.519	2228.7
736.705	2200.03
736.89	2195.93
737.076	2099.68
737.262	2093.54
737.447	2161.12
737.633	2251.23
737.819	2146.78
738.004	2073.06
738.19	2134.5
738.375	2056.67
738.561	2163.17
738.747	2161.12
738.932	2114.02
739.118	2126.3
739.303	2140.64
739.489	2093.54
739.674	2134.5
739.859	1991.14
740.045	2138.59
740.23	2025.95
740.416	1960.42
740.601	2195.93
740.786	2103.78
740.972	1984.99
741.157	1968.61
741.342	1901.03
741.528	1960.42
741.713	2028
741.898	1980.9
742.084	1870.31
742.269	1868.26
742.454	1976.8
742.639	1925.6
742.824	1927.65
743.01	1925.6
743.195	1925.6
743.38	1890.79
743.565	1901.03
743.75	1909.22
743.935	1909.22
744.12	1864.16
744.305	1749.48
744.49	1823.2
744.675	1896.93
744.86	1896.93
745.045	1780.2
745.23	1800.68
745.415	1812.96
745.6	1845.73
745.785	1794.53
745.97	1821.16
746.155	1788.39
746.34	1802.72
746.525	1606.12
746.71	1778.15
746.895	1614.31
747.079	1581.54
747.264	1679.85
747.449	1647.08
747.634	1663.46
747.819	1683.94
748.003	1569.26
748.188	1642.98
748.373	1620.46
748.557	1649.13
748.742	1659.37
748.927	1493.48
749.111	1579.5
749.296	1552.87
749.481	1569.26
749.665	1630.7
749.85	1528.3
750.034	1505.77
750.219	1444.33
750.404	1470.95
750.588	1460.71
750.773	1548.78
750.957	1436.14
751.141	1509.86
751.326	1405.42
751.51	1444.33
751.695	1458.67
751.879	1458.67
752.064	1462.76
752.248	1450.47
752.432	1378.79
752.617	1401.32
752.801	1380.84
752.985	1356.27
753.17	1270.25
753.354	1364.46
753.538	1409.51
753.722	1405.42
753.907	1315.31
754.091	1233.39
754.275	1278.44
754.459	1278.44
754.643	1280.49
754.828	1290.73
755.012	1257.96
755.196	1204.72
755.38	1262.06
755.564	1204.72
755.748	1200.62
755.932	1208.81
756.116	1253.87
756.3	1188.33
756.484	1182.19
756.668	1294.83
756.852	1114.61
757.036	1167.85
757.22	1190.38
757.404	1247.72
757.588	1118.7
757.772	1073.65
757.956	1114.61
758.14	1198.57
758.323	1049.07
758.507	1073.65
758.691	1139.18
758.875	1077.74
759.059	1118.7
759.242	1147.37
759.426	1065.46
759.61	1094.13
759.794	1157.61
759.977	1044.98
760.161	1102.32
760.345	967.15
760.528	1034.74
760.712	1032.69
760.895	1049.07
761.079	1065.46
761.263	993.78
761.446	993.78
761.63	1065.46
761.813	963.06
761.997	999.92
762.18	991.73
762.364	926.19
762.547	926.19
762.731	936.43
762.914	993.78
763.098	950.77
763.281	985.58
763.464	862.71
763.648	1040.88
763.831	958.96
764.015	872.95
764.198	909.81
764.381	989.68
764.564	989.68
764.748	985.58
764.931	983.54
765.114	846.32
765.297	891.38
765.481	946.67
765.664	901.62
765.847	930.29
766.03	913.91
766.213	819.7
766.397	868.85
766.58	807.41
766.763	860.66
766.946	844.28
767.129	877.04
767.312	811.51
767.495	854.51
767.678	776.69
767.861	938.48
768.044	893.43
768.227	848.37
768.41	879.09
768.593	852.47
768.776	795.12
768.959	827.89
769.142	811.51
769.324	825.84
769.507	766.45
769.69	862.71
769.873	834.04
770.056	838.13
770.239	698.87
770.421	838.13
770.604	754.16
770.787	705.01
770.97	780.79
771.152	791.03
771.335	797.17
771.518	666.1
771.7	827.89
771.883	739.83
772.066	915.95
772.248	813.56
772.431	774.64
772.613	741.88
772.796	829.94
772.978	754.16
773.161	743.92
773.343	725.49
773.526	723.44
773.708	713.21
773.891	715.25
774.073	647.67
774.256	672.25
774.438	778.74
774.621	627.19
774.803	748.02
774.985	690.68
775.168	690.68
775.35	668.15
775.532	647.67
775.715	614.9
775.897	674.29
776.079	635.38
776.261	664.05
776.444	733.68
776.626	594.42
776.808	575.99
776.99	657.91
777.173	655.86
777.355	645.62
777.537	608.76
777.719	631.29
777.901	633.33
778.083	584.18
778.265	635.38
778.447	535.03
778.629	559.61
778.811	602.61
778.993	610.81
779.175	664.05
779.357	496.12
779.539	451.07
779.721	524.79
779.903	616.95
780.085	522.74
780.267	563.7
780.449	555.51
780.631	612.85
780.812	598.52
780.994	567.8
781.176	584.18
781.358	594.42
781.54	500.22
781.721	518.65
781.903	610.81
782.085	567.8
782.267	498.17
782.448	451.07
782.63	508.41
782.812	541.18
782.993	477.69
783.175	475.64
783.357	426.49
783.538	494.07
783.72	455.16
783.901	410.11
784.083	455.16
784.264	494.07
784.446	446.97
784.627	412.15
784.809	365.05
784.99	442.87
785.172	442.87
785.353	379.39
785.535	432.63
785.716	399.87
785.897	444.92
786.079	430.59
786.26	471.54
786.441	446.97
786.623	412.15
786.804	438.78
786.985	412.15
787.167	412.15
787.348	363
787.529	356.86
787.71	444.92
787.891	401.91
788.073	399.87
788.254	348.67
788.435	344.57
788.616	307.71
788.797	360.95
788.978	475.64
789.159	399.87
789.34	406.01
789.522	352.76
789.703	307.71
789.884	389.63
790.065	391.67
790.246	369.15
790.427	352.76
790.607	373.24
790.788	340.47
790.969	287.23
791.15	291.32
791.331	305.66
791.512	338.43
791.693	289.28
791.874	360.95
792.054	410.11
792.235	397.82
792.416	236.03
792.597	299.52
792.778	313.85
792.958	338.43
793.139	320
793.32	256.51
793.5	254.46
793.681	365.05
793.862	346.62
794.042	297.47
794.223	287.23
794.404	264.7
794.584	291.32
794.765	338.43
794.945	254.46
795.126	307.71
795.306	297.47
795.487	229.88
795.667	231.93
795.848	291.32
796.028	254.46
796.209	303.61
796.389	256.51
796.57	311.8
796.75	223.74
796.93	209.4
797.111	295.42
797.291	262.65
797.471	256.51
797.652	262.65
797.832	281.08
798.012	274.94
798.192	252.41
798.373	156.16
798.553	274.94
798.733	328.19
798.913	207.36
799.093	207.36
799.274	291.32
799.454	303.61
799.634	262.65
799.814	250.36
799.994	287.23
800.174	225.79
800.354	215.55
800.534	156.16
800.714	246.27
800.894	236.03
801.074	242.17
801.254	231.93
801.434	188.93
801.614	209.4
801.794	166.4
801.974	936.43
802.154	193.02
802.334	262.65
802.514	98.81
802.693	223.74
802.873	246.27
803.053	238.08
803.233	221.69
803.413	168.45
803.592	184.83
803.772	180.73
803.952	223.74
804.131	139.77
804.311	197.12
804.491	250.36
804.67	229.88
804.85	152.06
805.03	184.83
805.209	250.36
805.389	150.01
805.568	139.77
805.748	174.59
805.928	242.17
806.107	199.16
806.287	231.93
806.466	156.16
806.646	164.35
806.825	158.21
807.004	131.58
807.184	102.91
807.363	143.87
807.543	143.87
807.722	209.4
807.901	176.64
808.081	209.4
808.26	102.91
808.439	143.87
808.619	119.29
808.798	141.82
808.977	125.44
809.156	219.64
809.336	211.45
809.515	190.97
809.694	78.33
809.873	125.44
810.052	221.69
810.231	158.21
810.411	147.97
810.59	285.18
810.769	131.58
810.948	164.35
811.127	76.29
811.306	129.53
811.485	139.77
811.664	279.04
811.843	115.2
812.022	98.81
812.201	109.05
812.38	94.72
812.559	90.62
812.737	205.31
812.916	31.23
813.095	125.44
813.274	119.29
813.453	90.62
813.632	164.35
813.811	223.74
813.989	82.43
814.168	172.54
814.347	131.58
814.526	115.2
814.704	262.65
814.883	147.97
815.062	70.14
815.24	117.25
815.419	70.14
815.598	164.35
815.776	92.67
815.955	123.39
816.133	90.62
816.312	174.59
816.49	107.01
816.669	66.05
816.847	84.48
817.026	115.2
817.204	82.43
817.383	141.82
817.561	94.72
817.74	203.26
817.918	133.63
818.097	150.01
818.275	59.9
818.453	88.57
818.632	166.4
818.81	147.97
818.988	90.62
819.167	90.62
819.345	139.77
819.523	115.2
819.701	139.77
819.879	139.77
820.058	92.67
820.236	131.58
820.414	102.91
820.592	109.05
820.77	74.24
820.948	88.57
821.127	111.1
821.305	107.01
821.483	107.01
821.661	-5.63
821.839	8.7
822.017	35.33
822.195	41.47
822.373	176.64
822.551	20.99
822.729	182.78
822.907	59.9
823.085	45.57
823.262	59.9
823.44	45.57
823.618	115.2
823.796	72.19
823.974	109.05
824.152	43.52
824.329	53.76
824.507	94.72
824.685	66.05
824.863	80.38
825.04	107.01
825.218	123.39
825.396	41.47
825.574	49.66
825.751	59.9
825.929	72.19
826.107	0.51
826.284	51.71
826.462	74.24
826.639	82.43
826.817	76.29
826.994	107.01
827.172	55.81
827.349	94.72
827.527	131.58
827.704	70.14
827.882	57.86
828.059	141.82
828.237	37.38
828.414	100.86
828.591	94.72
828.769	37.38
828.946	23.04
829.124	68.09
829.301	98.81
829.478	115.2
829.655	68.09
829.833	98.81
830.01	84.48
830.187	33.28
830.364	115.2
830.542	102.91
830.719	119.29
830.896	133.63
831.073	29.18
831.25	27.14
831.427	96.77
831.604	55.81
831.782	66.05
831.959	37.38
832.136	6.66
832.313	57.86
832.49	31.23
832.667	33.28
832.844	98.81
833.021	59.9
833.198	61.95
833.374	25.09
833.551	104.96
833.728	115.2
833.905	86.53
834.082	-38.4
834.259	78.33
834.436	45.57
834.612	25.09
834.789	18.94
834.966	53.76
835.143	84.48
835.319	8.7
835.496	61.95
835.673	76.29
835.85	64
836.026	111.1
836.203	76.29
836.38	0.51
836.556	41.47
836.733	-9.73
836.909	115.2
837.086	-44.54
837.262	90.62
837.439	96.77
837.616	41.47
837.792	-28.16
837.968	41.47
838.145	35.33
838.321	-5.63
838.498	78.33
838.674	41.47
838.851	70.14
839.027	41.47
839.203	82.43
839.38	51.71
839.556	37.38
839.732	115.2
839.909	16.9
840.085	74.24
840.261	-15.87
840.437	82.43
840.614	-24.06
840.79	43.52
840.966	74.24
841.142	35.33
841.318	12.8
841.494	119.29
841.671	41.47
841.847	16.9
842.023	-24.06
842.199	100.86
842.375	4.61
842.551	4.61
842.727	72.19
842.903	98.81
843.079	20.99
843.255	127.49
843.431	37.38
843.607	90.62
843.783	94.72
843.959	27.14
844.134	-40.45
844.31	129.53
844.486	2.56
844.662	-19.97
844.838	70.14
845.013	27.14
845.189	74.24
845.365	41.47
845.541	92.67
845.716	-7.68
845.892	33.28
846.068	18.94
846.244	25.09
846.419	16.9
846.595	-13.82
846.77	16.9
846.946	49.66
847.122	29.18
847.297	-19.97
847.473	68.09
847.648	37.38
847.824	119.29
847.999	8.7
848.175	-11.78
848.35	18.94
848.526	18.94
848.701	35.33
848.876	53.76
849.052	12.8
849.227	45.57
849.403	16.9
849.578	39.42
849.753	55.81
849.929	27.14
850.104	4.61
850.279	-1.54
850.454	20.99
850.63	107.01
850.805	51.71
850.98	-13.82
851.155	29.18
851.33	8.7
851.505	39.42
851.681	41.47
851.856	-48.64
852.031	107.01
852.206	-3.58
852.381	-28.16
852.556	16.9
852.731	90.62
852.906	12.8
853.081	45.57
853.256	37.38
853.431	33.28
853.606	-7.68
853.781	27.14
853.956	-36.35
854.131	2.56
854.305	-65.02
854.48	27.14
854.655	-48.64
854.83	117.25
855.005	68.09
855.18	-3.58
855.354	-52.74
855.529	82.43
855.704	-5.63
855.879	39.42
856.053	0.51
856.228	45.57
856.403	-28.16
856.577	82.43
856.752	-42.5
856.926	74.24
857.101	115.2
857.276	-26.11
857.45	49.66
857.625	35.33
857.799	-19.97
857.974	41.47
858.148	-5.63
858.323	39.42
858.497	45.57
858.672	8.7
858.846	-9.73
859.02	39.42
859.195	-11.78
859.369	6.66
859.543	-9.73
859.718	41.47
859.892	12.8
860.066	-48.64
860.241	-46.59
860.415	-87.55
860.589	43.52
860.763	61.95
860.938	0.51
861.112	20.99
861.286	41.47
861.46	25.09
861.634	20.99
861.808	123.39
861.982	-52.74
862.157	0.51
862.331	2.56
862.505	-36.35
862.679	-22.02
862.853	10.75
863.027	35.33
863.201	59.9
863.375	23.04
863.549	2.56
863.722	-48.64
863.896	90.62
864.07	-56.83
864.244	31.23
864.418	76.29
864.592	0.51
864.766	-15.87
864.939	-32.26
865.113	18.94
865.287	109.05
865.461	-95.74
865.634	0.51
865.808	53.76
865.982	8.7
866.156	-30.21
866.329	8.7
866.503	8.7
866.676	57.86
866.85	-19.97
867.024	33.28
867.197	43.52
867.371	-5.63
867.544	47.62
867.718	-83.45
867.891	-1.54
868.065	-50.69
868.238	45.57
868.412	76.29
868.585	-32.26
868.759	-32.26
868.932	16.9
869.105	-56.83
869.279	-15.87
869.452	8.7
869.625	-11.78
869.799	-32.26
869.972	-62.98
870.145	-9.73
870.319	45.57
870.492	25.09
870.665	-28.16
870.838	-151.04
871.011	-11.78
871.185	-24.06
871.358	-40.45
871.531	45.57
871.704	53.76
871.877	27.14
872.05	-7.68
872.223	-19.97
872.396	45.57
872.569	68.09
872.742	-7.68
872.915	82.43
873.088	-75.26
873.261	47.62
873.434	27.14
873.607	20.99
873.78	-36.35
873.953	-17.92
874.126	-15.87
874.299	33.28
874.471	49.66
874.644	-22.02
874.817	12.8
874.99	76.29
875.163	8.7
875.335	27.14
875.508	4.61
875.681	8.7
875.853	0.51
876.026	49.66
876.199	0.51
876.371	47.62
876.544	33.28
876.717	-13.82
876.889	57.86
877.062	0.51
877.234	-22.02
877.407	-24.06
877.579	18.94
877.752	49.66
877.924	-56.83
878.097	-7.68
878.269	37.38
878.442	-48.64
878.614	-26.11
878.786	16.9
878.959	-32.26
879.131	2.56
879.303	10.75
879.476	-52.74
879.648	-19.97
879.82	27.14
879.993	-22.02
880.165	0.51
880.337	6.66
880.509	-22.02
880.681	-22.02
880.854	29.18
881.026	18.94
881.198	-7.68
881.37	18.94
881.542	14.85
881.714	-36.35
881.886	-89.6
882.058	-32.26
882.23	18.94
882.402	-71.17
882.574	-7.68
882.746	39.42
882.918	0.51
883.09	0.51
883.262	-56.83
883.434	10.75
883.606	-22.02
883.778	-73.21
883.95	94.72
884.122	-22.02
884.293	53.76
884.465	20.99
884.637	53.76
884.809	-15.87
884.98	-46.59
885.152	-36.35
885.324	98.81
885.496	-26.11
885.667	-3.58
885.839	0.51
886.011	51.71
886.182	-22.02
886.354	45.57
886.525	18.94
886.697	18.94
886.869	-56.83
887.04	76.29
887.212	25.09
887.383	66.05
887.555	59.9
887.726	-1.54
887.897	-54.78
888.069	57.86
888.24	43.52
888.412	39.42
888.583	-11.78
888.754	78.33
888.926	-5.63
889.097	-7.68
889.268	-48.64
889.44	16.9
889.611	-24.06
889.782	8.7
889.953	-19.97
890.125	117.25
890.296	-38.4
890.467	25.09
890.638	-15.87
890.809	-1.54
890.98	-24.06
891.151	51.71
891.323	66.05
891.494	20.99
891.665	16.9
891.836	-30.21
892.007	41.47
892.178	20.99
892.349	39.42
892.52	-44.54
892.691	-65.02
892.862	-24.06
893.032	-42.5
893.203	53.76
893.374	-32.26
893.545	51.71
893.716	-50.69
893.887	16.9
894.057	59.9
894.228	-38.4
894.399	-7.68
894.57	57.86
894.74	-40.45
894.911	41.47
895.082	-7.68
895.253	16.9
895.423	-17.92
895.594	16.9
895.764	-46.59
895.935	-73.21
896.106	55.81
896.276	-38.4
896.447	-11.78
896.617	27.14
896.788	25.09
896.958	-22.02
897.129	-56.83
897.299	-50.69
897.47	20.99
897.64	25.09
897.81	-24.06
897.981	57.86
898.151	-52.74
898.322	18.94
898.492	8.7
898.662	0.51
898.832	-28.16
899.003	0.51
899.173	84.48
899.343	35.33
899.513	-32.26
