Data from USB4F104151__258__14-34-19-808.txt Node

Date: Thu Mar 13 14:34:19 EDT 2025
User: louis
Spectrometer: USB4F10415
Trigger mode: 4
Integration Time (sec): 2.500000E-2
Scans to average: 1
Electric dark correction enabled: true
Nonlinearity correction enabled: false
Boxcar width: 0
XAxis mode: Wavelengths
Number of Pixels in Spectrum: 3648
>>>>>Begin Spectral Data<<<<<
178.204	-223.06
178.424	-223.06
178.644	-223.06
178.864	-200.53
179.084	-204.63
179.304	-63.32
179.524	69.8
179.744	-12.12
179.964	84.14
180.184	-42.84
180.404	-22.36
180.624	-55.12
180.844	14.51
181.064	-55.12
181.283	10.41
181.503	2.22
181.723	69.8
181.943	-89.94
182.163	4.27
182.383	30.89
182.602	-12.12
182.822	-44.88
183.042	-10.07
183.262	-28.5
183.482	-18.26
183.701	-48.98
183.921	10.41
184.141	-51.03
184.361	51.37
184.58	-55.12
184.8	10.41
185.02	-63.32
185.239	39.08
185.459	4.27
185.679	28.84
185.898	-28.5
186.118	-63.32
186.338	8.36
186.557	-1.88
186.777	-30.55
186.997	-32.6
187.216	-12.12
187.436	26.79
187.655	67.75
187.875	63.66
188.095	-1.88
188.314	-28.5
188.534	26.79
188.753	-77.65
188.973	-10.07
189.192	92.33
189.412	30.89
189.631	28.84
189.851	2.22
190.07	-42.84
190.29	8.36
190.509	-22.36
190.729	-55.12
190.948	0.17
191.168	86.19
191.387	-5.97
191.607	-79.7
191.826	30.89
192.045	-22.36
192.265	-18.26
192.484	41.13
192.704	-10.07
192.923	-100.18
193.142	61.61
193.362	43.18
193.581	100.52
193.8	43.18
194.02	0.17
194.239	-14.17
194.458	-55.12
194.678	-5.97
194.897	30.89
195.116	-18.26
195.335	-20.31
195.555	-28.5
195.774	14.51
195.993	86.19
196.212	-8.02
196.432	-38.74
196.651	6.31
196.87	22.7
197.089	-24.4
197.308	49.32
197.528	22.7
197.747	-102.23
197.966	18.6
198.185	2.22
198.404	-51.03
198.623	-14.17
198.842	18.6
199.062	82.09
199.281	53.42
199.5	16.55
199.719	-14.17
199.938	-32.6
200.157	59.56
200.376	4.27
200.595	22.7
200.814	75.95
201.033	6.31
201.252	18.6
201.471	-10.07
201.69	63.66
201.909	-71.51
202.128	-73.56
202.347	102.57
202.566	18.6
202.785	-38.74
203.004	-71.51
203.223	149.67
203.442	61.61
203.661	-96.08
203.879	18.6
204.098	-5.97
204.317	-32.6
204.536	-71.51
204.755	-53.08
204.974	26.79
205.193	88.23
205.411	143.53
205.63	65.71
205.849	2.22
206.068	37.03
206.287	2.22
206.505	43.18
206.724	28.84
206.943	-28.5
207.162	-12.12
207.381	-51.03
207.599	-20.31
207.818	-26.45
208.037	-44.88
208.255	-5.97
208.474	28.84
208.693	26.79
208.911	-28.5
209.13	6.31
209.349	-38.74
209.567	-36.69
209.786	108.71
210.005	-5.97
210.223	41.13
210.442	-46.93
210.661	-20.31
210.879	-18.26
211.098	-75.6
211.316	30.89
211.535	-5.97
211.753	-63.32
211.972	32.94
212.191	-55.12
212.409	-22.36
212.628	63.66
212.846	-61.27
213.065	12.46
213.283	34.99
213.502	-34.64
213.72	-46.93
213.938	-34.64
214.157	0.17
214.375	43.18
214.594	-36.69
214.812	-1.88
215.031	-3.93
215.249	-28.5
215.467	30.89
215.686	88.23
215.904	41.13
216.122	-5.97
216.341	4.27
216.559	28.84
216.778	2.22
216.996	10.41
217.214	59.56
217.432	-1.88
217.651	37.03
217.869	-36.69
218.087	51.37
218.306	39.08
218.524	-40.79
218.742	-8.02
218.96	10.41
219.179	10.41
219.397	-3.93
219.615	75.95
219.833	86.19
220.051	-46.93
220.27	-36.69
220.488	-14.17
220.706	51.37
220.924	10.41
221.142	-10.07
221.36	51.37
221.578	59.56
221.796	47.27
222.015	-12.12
222.233	-14.17
222.451	71.85
222.669	-42.84
222.887	59.56
223.105	-104.28
223.323	12.46
223.541	-61.27
223.759	-3.93
223.977	-30.55
224.195	51.37
224.413	61.61
224.631	-46.93
224.849	-16.21
225.067	45.23
225.285	-3.93
225.503	-5.97
225.721	-46.93
225.939	0.17
226.157	-53.08
226.375	34.99
226.592	20.65
226.81	-3.93
227.028	2.22
227.246	43.18
227.464	-46.93
227.682	75.95
227.9	-28.5
228.117	16.55
228.335	0.17
228.553	-59.22
228.771	-28.5
228.989	-38.74
229.206	67.75
229.424	-14.17
229.642	-59.22
229.86	26.79
230.077	20.65
230.295	-5.97
230.513	-20.31
230.731	47.27
230.948	57.51
231.166	-22.36
231.384	2.22
231.601	6.31
231.819	71.85
232.037	73.9
232.254	20.65
232.472	-14.17
232.689	-34.64
232.907	43.18
233.125	-38.74
233.342	45.23
233.56	-46.93
233.777	-71.51
233.995	-22.36
234.213	-5.97
234.43	-63.32
234.648	4.27
234.865	-34.64
235.083	-3.93
235.3	-67.41
235.518	10.41
235.735	-28.5
235.953	-3.93
236.17	-3.93
236.388	98.47
236.605	-3.93
236.822	94.38
237.04	18.6
237.257	-26.45
237.475	0.17
237.692	28.84
237.909	61.61
238.127	-53.08
238.344	-44.88
238.562	-5.97
238.779	-5.97
238.996	-46.93
239.214	2.22
239.431	-12.12
239.648	22.7
239.865	10.41
240.083	10.41
240.3	4.27
240.517	10.41
240.735	30.89
240.952	47.27
241.169	-65.36
241.386	-30.55
241.603	-26.45
241.821	-71.51
242.038	37.03
242.255	-26.45
242.472	-63.32
242.689	26.79
242.907	6.31
243.124	61.61
243.341	53.42
243.558	28.84
243.775	22.7
243.992	6.31
244.209	-44.88
244.426	45.23
244.643	18.6
244.86	-28.5
245.078	-5.97
245.295	-10.07
245.512	26.79
245.729	-61.27
245.946	-5.97
246.163	-1.88
246.38	2.22
246.597	-12.12
246.814	106.67
247.031	-48.98
247.248	-38.74
247.464	24.75
247.681	-36.69
247.898	-5.97
248.115	-67.41
248.332	-20.31
248.549	-18.26
248.766	75.95
248.983	-44.88
249.2	-42.84
249.417	-16.21
249.633	-20.31
249.85	116.9
250.067	-61.27
250.284	24.75
250.501	34.99
250.717	-71.51
250.934	-59.22
251.151	-42.84
251.368	-3.93
251.585	28.84
251.801	-28.5
252.018	-46.93
252.235	92.33
252.451	-63.32
252.668	-14.17
252.885	-30.55
253.102	24.75
253.318	18.6
253.535	-36.69
253.752	-14.17
253.968	12.46
254.185	-38.74
254.401	-22.36
254.618	-5.97
254.835	-46.93
255.051	-5.97
255.268	-46.93
255.484	-46.93
255.701	30.89
255.917	47.27
256.134	10.41
256.351	-12.12
256.567	-69.46
256.784	-1.88
257	6.31
257.217	-65.36
257.433	67.75
257.65	34.99
257.866	14.51
258.082	-55.12
258.299	26.79
258.515	12.46
258.732	-34.64
258.948	16.55
259.165	-36.69
259.381	-3.93
259.597	28.84
259.814	-59.22
260.03	43.18
260.246	-16.21
260.463	-38.74
260.679	37.03
260.895	30.89
261.112	-3.93
261.328	47.27
261.544	-79.7
261.761	67.75
261.977	-55.12
262.193	-44.88
262.409	2.22
262.626	16.55
262.842	10.41
263.058	-57.17
263.274	2.22
263.49	39.08
263.707	-36.69
263.923	-30.55
264.139	-53.08
264.355	4.27
264.571	96.43
264.787	-34.64
265.004	6.31
265.22	-94.04
265.436	-5.97
265.652	-34.64
265.868	16.55
266.084	-44.88
266.3	41.13
266.516	-59.22
266.732	-14.17
266.948	8.36
267.164	43.18
267.38	61.61
267.596	34.99
267.812	-5.97
268.028	22.7
268.244	2.22
268.46	-40.79
268.676	-14.17
268.892	-34.64
269.108	-77.65
269.324	-28.5
269.54	-55.12
269.756	-5.97
269.972	-55.12
270.188	34.99
270.403	-14.17
270.619	-63.32
270.835	71.85
271.051	-55.12
271.267	32.94
271.483	-63.32
271.698	18.6
271.914	12.46
272.13	-100.18
272.346	-110.42
272.562	-48.98
272.777	26.79
272.993	59.56
273.209	-16.21
273.425	-5.97
273.64	-10.07
273.856	-3.93
274.072	0.17
274.287	-1.88
274.503	-44.88
274.719	22.7
274.934	-20.31
275.15	-44.88
275.366	6.31
275.581	-63.32
275.797	6.31
276.012	-30.55
276.228	2.22
276.444	-24.4
276.659	2.22
276.875	-85.84
277.09	-63.32
277.306	-87.89
277.521	10.41
277.737	-61.27
277.952	71.85
278.168	-20.31
278.383	30.89
278.599	-8.02
278.814	-55.12
279.03	-5.97
279.245	18.6
279.461	-67.41
279.676	37.03
279.892	-63.32
280.107	8.36
280.322	-28.5
280.538	-36.69
280.753	-42.84
280.969	34.99
281.184	-51.03
281.399	86.19
281.615	2.22
281.83	34.99
282.045	-30.55
282.26	-46.93
282.476	47.27
282.691	-18.26
282.906	-10.07
283.122	55.47
283.337	4.27
283.552	26.79
283.767	-34.64
283.983	6.31
284.198	-36.69
284.413	6.31
284.628	-48.98
284.843	-36.69
285.058	-1.88
285.274	30.89
285.489	14.51
285.704	-44.88
285.919	0.17
286.134	-34.64
286.349	16.55
286.564	-38.74
286.779	-20.31
286.995	-30.55
287.21	-26.45
287.425	-112.47
287.64	-12.12
287.855	-30.55
288.07	-44.88
288.285	94.38
288.5	65.71
288.715	-34.64
288.93	-14.17
289.145	-69.46
289.36	2.22
289.575	4.27
289.79	92.33
290.004	28.84
290.219	53.42
290.434	-30.55
290.649	-46.93
290.864	2.22
291.079	-89.94
291.294	2.22
291.509	10.41
291.724	-55.12
291.938	80.04
292.153	-5.97
292.368	-98.13
292.583	18.6
292.798	4.27
293.012	22.7
293.227	14.51
293.442	-10.07
293.657	18.6
293.871	26.79
294.086	2.22
294.301	67.75
294.516	86.19
294.73	10.41
294.945	-30.55
295.16	4.27
295.374	12.46
295.589	57.51
295.804	2.22
296.018	-14.17
296.233	-3.93
296.447	-36.69
296.662	-26.45
296.877	43.18
297.091	-34.64
297.306	-34.64
297.52	2.22
297.735	-38.74
297.949	-3.93
298.164	43.18
298.378	-14.17
298.593	-87.89
298.807	30.89
299.022	20.65
299.236	14.51
299.451	-14.17
299.665	-12.12
299.88	-46.93
300.094	53.42
300.309	43.18
300.523	4.27
300.737	6.31
300.952	34.99
301.166	63.66
301.381	-87.89
301.595	-26.45
301.809	-5.97
302.024	-20.31
302.238	-63.32
302.452	8.36
302.667	47.27
302.881	43.18
303.095	0.17
303.309	10.41
303.524	-55.12
303.738	-36.69
303.952	-8.02
304.166	80.04
304.381	12.46
304.595	77.99
304.809	-36.69
305.023	-71.51
305.237	-5.97
305.452	-34.64
305.666	-20.31
305.88	2.22
306.094	-5.97
306.308	49.32
306.522	57.51
306.736	-3.93
306.95	-10.07
307.164	-16.21
307.379	26.79
307.593	10.41
307.807	12.46
308.021	45.23
308.235	-22.36
308.449	22.7
308.663	-16.21
308.877	53.42
309.091	-34.64
309.305	2.22
309.519	-48.98
309.733	4.27
309.947	-71.51
310.161	61.61
310.374	2.22
310.588	43.18
310.802	-8.02
311.016	-10.07
311.23	51.37
311.444	-26.45
311.658	77.99
311.872	57.51
312.085	-1.88
312.299	82.09
312.513	28.84
312.727	14.51
312.941	-20.31
313.154	-38.74
313.368	-22.36
313.582	2.22
313.796	-55.12
314.009	26.79
314.223	39.08
314.437	-18.26
314.651	-1.88
314.864	-42.84
315.078	32.94
315.292	-26.45
315.505	-55.12
315.719	51.37
315.933	-24.4
316.146	-22.36
316.36	-32.6
316.573	4.27
316.787	-3.93
317.001	24.75
317.214	-10.07
317.428	39.08
317.641	-28.5
317.855	-36.69
318.068	4.27
318.282	-75.6
318.495	55.47
318.709	24.75
318.922	30.89
319.136	67.75
319.349	47.27
319.563	26.79
319.776	39.08
319.99	-108.37
320.203	-42.84
320.417	-38.74
320.63	4.27
320.843	69.8
321.057	-38.74
321.27	10.41
321.483	139.43
321.697	24.75
321.91	18.6
322.124	-12.12
322.337	6.31
322.55	-3.93
322.763	10.41
322.977	63.66
323.19	-46.93
323.403	67.75
323.617	-14.17
323.83	39.08
324.043	88.23
324.256	-22.36
324.469	-79.7
324.683	80.04
324.896	-55.12
325.109	-30.55
325.322	6.31
325.535	43.18
325.748	-30.55
325.962	-46.93
326.175	-38.74
326.388	-30.55
326.601	8.36
326.814	-3.93
327.027	-38.74
327.24	20.65
327.453	-51.03
327.666	20.65
327.879	28.84
328.092	28.84
328.305	-55.12
328.518	-22.36
328.731	-38.74
328.944	-14.17
329.157	-28.5
329.37	18.6
329.583	131.24
329.796	102.57
330.009	-28.5
330.222	37.03
330.435	-53.08
330.648	22.7
330.861	-85.84
331.073	-16.21
331.286	-5.97
331.499	2.22
331.712	-36.69
331.925	-51.03
332.138	-30.55
332.35	20.65
332.563	10.41
332.776	110.76
332.989	-18.26
333.202	-14.17
333.414	16.55
333.627	88.23
333.84	30.89
334.053	-12.12
334.265	-14.17
334.478	37.03
334.691	-5.97
334.903	45.23
335.116	12.46
335.329	26.79
335.541	-38.74
335.754	-42.84
335.966	16.55
336.179	2.22
336.392	-30.55
336.604	37.03
336.817	67.75
337.029	92.33
337.242	-40.79
337.454	75.95
337.667	-5.97
337.88	14.51
338.092	-30.55
338.305	-20.31
338.517	-38.74
338.729	75.95
338.942	-12.12
339.154	2.22
339.367	-55.12
339.579	32.94
339.792	-1.88
340.004	-81.75
340.217	-22.36
340.429	-8.02
340.641	34.99
340.854	28.84
341.066	28.84
341.278	51.37
341.491	118.95
341.703	-14.17
341.915	-59.22
342.128	2.22
342.34	-63.32
342.552	-34.64
342.764	-63.32
342.977	-16.21
343.189	10.41
343.401	18.6
343.613	-5.97
343.826	92.33
344.038	-51.03
344.25	14.51
344.462	14.51
344.674	-34.64
344.886	20.65
345.099	14.51
345.311	34.99
345.523	-22.36
345.735	24.75
345.947	53.42
346.159	43.18
346.371	43.18
346.583	-100.18
346.795	69.8
347.007	-79.7
347.219	-61.27
347.431	12.46
347.643	63.66
347.855	37.03
348.067	2.22
348.279	-87.89
348.491	12.46
348.703	16.55
348.915	57.51
349.127	-18.26
349.339	34.99
349.551	-38.74
349.763	16.55
349.975	-14.17
350.187	-1.88
350.399	43.18
350.61	-44.88
350.822	-30.55
351.034	-12.12
351.246	57.51
351.458	-12.12
351.669	22.7
351.881	26.79
352.093	26.79
352.305	131.24
352.517	10.41
352.728	18.6
352.94	20.65
353.152	26.79
353.363	-59.22
353.575	37.03
353.787	20.65
353.999	51.37
354.21	30.89
354.422	-79.7
354.633	-55.12
354.845	2.22
355.057	-14.17
355.268	16.55
355.48	47.27
355.692	10.41
355.903	-10.07
356.115	-36.69
356.326	-75.6
356.538	16.55
356.749	51.37
356.961	127.14
357.172	-12.12
357.384	-48.98
357.595	22.7
357.807	53.42
358.018	-40.79
358.23	10.41
358.441	84.14
358.653	-46.93
358.864	26.79
359.075	2.22
359.287	-28.5
359.498	53.42
359.709	71.85
359.921	-10.07
360.132	-14.17
360.344	43.18
360.555	-5.97
360.766	-44.88
360.977	-12.12
361.189	51.37
361.4	-22.36
361.611	22.7
361.823	73.9
362.034	45.23
362.245	-63.32
362.456	28.84
362.667	2.22
362.879	-28.5
363.09	39.08
363.301	0.17
363.512	55.47
363.723	4.27
363.935	-24.4
364.146	43.18
364.357	18.6
364.568	-5.97
364.779	-42.84
364.99	43.18
365.201	-26.45
365.412	39.08
365.623	-20.31
365.834	61.61
366.045	12.46
366.256	-48.98
366.467	53.42
366.678	-34.64
366.889	6.31
367.1	-69.46
367.311	26.79
367.522	80.04
367.733	67.75
367.944	92.33
368.155	-26.45
368.366	14.51
368.577	77.99
368.788	61.61
368.999	-55.12
369.209	14.51
369.42	108.71
369.631	96.43
369.842	-5.97
370.053	53.42
370.264	45.23
370.474	-77.65
370.685	-34.64
370.896	92.33
371.107	53.42
371.317	30.89
371.528	-55.12
371.739	118.95
371.95	114.86
372.16	-20.31
372.371	-46.93
372.582	18.6
372.792	-63.32
373.003	-46.93
373.214	32.94
373.424	37.03
373.635	-28.5
373.846	75.95
374.056	2.22
374.267	18.6
374.477	-20.31
374.688	-51.03
374.898	-28.5
375.109	-28.5
375.319	16.55
375.53	59.56
375.74	30.89
375.951	-38.74
376.161	24.75
376.372	104.62
376.582	10.41
376.793	37.03
377.003	10.41
377.214	14.51
377.424	82.09
377.635	34.99
377.845	-16.21
378.055	-53.08
378.266	26.79
378.476	-61.27
378.686	12.46
378.897	34.99
379.107	30.89
379.317	-24.4
379.528	-5.97
379.738	-14.17
379.948	-28.5
380.158	34.99
380.369	43.18
380.579	34.99
380.789	14.51
380.999	-3.93
381.21	55.47
381.42	88.23
381.63	-28.5
381.84	100.52
382.05	43.18
382.261	22.7
382.471	47.27
382.681	-3.93
382.891	-8.02
383.101	59.56
383.311	-16.21
383.521	-44.88
383.731	20.65
383.941	10.41
384.151	10.41
384.361	-20.31
384.571	20.65
384.781	-22.36
384.991	116.9
385.201	59.56
385.411	-30.55
385.621	-5.97
385.831	-46.93
386.041	-18.26
386.251	2.22
386.461	75.95
386.671	20.65
386.881	49.32
387.091	-20.31
387.301	51.37
387.511	-26.45
387.72	41.13
387.93	-12.12
388.14	-79.7
388.35	4.27
388.56	18.6
388.769	-44.88
388.979	-28.5
389.189	2.22
389.399	-44.88
389.609	4.27
389.818	102.57
390.028	88.23
390.238	51.37
390.447	26.79
390.657	69.8
390.867	34.99
391.076	77.99
391.286	6.31
391.496	-20.31
391.705	61.61
391.915	30.89
392.125	92.33
392.334	18.6
392.544	112.81
392.753	92.33
392.963	-36.69
393.172	71.85
393.382	14.51
393.591	118.95
393.801	47.27
394.01	71.85
394.22	-22.36
394.429	4.27
394.639	6.31
394.848	104.62
395.058	51.37
395.267	37.03
395.477	67.75
395.686	88.23
395.895	96.43
396.105	69.8
396.314	63.66
396.524	63.66
396.733	47.27
396.942	53.42
397.152	45.23
397.361	129.19
397.57	65.71
397.78	125.1
397.989	90.28
398.198	86.19
398.407	53.42
398.617	75.95
398.826	75.95
399.035	8.36
399.244	100.52
399.453	137.38
399.663	96.43
399.872	67.75
400.081	55.47
400.29	141.48
400.499	-3.93
400.708	114.86
400.917	90.28
401.127	69.8
401.336	30.89
401.545	143.53
401.754	100.52
401.963	182.44
402.172	116.9
402.381	108.71
402.59	47.27
402.799	153.77
403.008	55.47
403.217	86.19
403.426	129.19
403.635	20.65
403.844	92.33
404.053	63.66
404.262	86.19
404.471	211.11
404.68	149.67
404.888	94.38
405.097	143.53
405.306	159.91
405.515	114.86
405.724	65.71
405.933	241.83
406.142	153.77
406.35	155.82
406.559	172.2
406.768	143.53
406.977	276.65
407.185	125.1
407.394	170.15
407.603	112.81
407.812	211.11
408.02	297.13
408.229	239.78
408.438	213.16
408.646	198.82
408.855	200.87
409.064	157.86
409.272	243.88
409.481	256.17
409.69	252.07
409.898	288.93
410.107	364.71
410.315	315.56
410.524	346.28
410.733	315.56
410.941	391.33
411.15	407.72
411.358	333.99
411.567	415.91
411.775	430.24
411.984	477.35
412.192	460.96
412.401	458.92
412.609	567.46
412.818	510.11
413.026	561.31
413.234	477.35
413.443	587.94
413.651	518.31
413.86	723.1
414.068	702.62
414.276	671.9
414.485	610.47
414.693	794.78
414.901	780.45
415.11	792.73
415.318	794.78
415.526	919.71
415.734	776.35
415.943	923.8
416.151	968.86
416.359	1054.87
416.567	1018.01
416.776	1026.2
416.984	1190.04
417.192	1108.12
417.4	1108.12
417.608	1079.45
417.817	1274.01
418.025	1198.23
418.233	1343.64
418.441	1296.53
418.649	1388.69
418.857	1454.23
419.065	1583.25
419.273	1403.03
419.481	1575.06
419.689	1685.65
419.897	1616.02
420.105	1812.62
420.313	1837.2
420.521	1837.2
420.729	1900.69
420.937	1964.17
421.145	2019.47
421.353	2160.78
421.561	2275.46
421.769	2287.75
421.977	2334.86
422.185	2273.42
422.393	2562.18
422.601	2697.35
422.809	2728.07
423.017	2717.83
423.224	2781.31
423.432	2840.7
423.64	2885.76
423.848	3264.63
424.056	3231.87
424.263	3328.12
424.471	3133.56
424.679	3403.89
424.887	3614.84
425.094	3614.84
425.302	3684.47
425.51	3836.02
425.718	3870.83
425.925	4024.43
426.133	4204.65
426.341	4409.45
426.548	4550.76
426.756	4542.57
426.964	4544.61
427.171	4886.62
427.379	4894.82
427.586	5240.92
427.794	5369.94
428.001	5423.19
428.209	5638.23
428.417	5716.05
428.624	6088.78
428.832	6109.26
429.039	6027.34
429.247	5914.7
429.454	6543.43
429.662	7030.85
429.869	6635.59
430.076	7020.61
430.284	6860.87
430.491	6801.47
430.699	7520.31
430.906	7501.88
431.114	7759.92
431.321	7925.81
431.528	7972.91
431.736	8654.89
431.943	9054.24
432.15	8597.54
432.358	8747.05
432.565	9244.7
432.772	9193.5
432.979	9685.01
433.187	9717.78
433.394	9857.04
433.601	10604.55
433.808	10622.98
434.016	10647.56
434.223	10973.19
434.43	11702.26
434.637	11519.99
434.844	11995.12
435.052	12347.37
435.259	12138.48
435.466	12394.48
435.673	12306.41
435.88	13084.64
436.087	13717.47
436.294	13744.09
436.501	13305.82
436.708	13572.06
436.915	14075.86
437.122	14739.4
437.329	14747.59
437.537	14907.34
437.743	15361.98
437.95	15562.69
438.157	16054.2
438.364	16721.84
438.571	16437.17
438.778	16779.18
438.985	18286.48
439.192	17520.54
439.399	17987.48
439.606	17557.41
439.813	18542.48
440.02	19656.57
440.227	19056.52
440.433	19040.14
440.64	19939.19
440.847	19675.01
441.054	20039.54
441.261	21626.72
441.467	21124.97
441.674	21985.12
441.881	22478.68
442.088	22415.19
442.294	22103.9
442.501	22886.22
442.708	23093.07
442.914	23985.98
443.121	25132.84
443.328	24684.34
443.534	26011.42
443.741	25390.89
443.948	25114.41
444.154	26695.44
444.361	26732.31
444.568	26588.95
444.774	26625.81
444.981	27201.29
445.187	28026.62
445.394	29064.94
445.6	28632.82
445.807	31309.52
446.013	29720.29
446.22	30508.76
446.426	31655.62
446.633	32024.26
446.839	33410.73
447.046	31669.96
447.252	33394.35
447.459	33222.32
447.665	33554.09
447.871	35010.2
448.078	36130.44
448.284	34731.67
448.491	35896.97
448.697	36863.61
448.903	37600.88
449.11	37779.05
449.316	37039.73
449.522	37727.85
449.728	39226.96
449.935	39093.85
450.141	38864.47
450.347	39839.31
450.553	38530.65
450.76	39431.76
450.966	40537.66
451.172	39845.45
451.378	41156.15
451.584	40322.63
451.791	40959.55
451.997	41158.2
452.203	41836.08
452.409	41942.57
452.615	41559.6
452.821	39820.88
453.027	39679.57
453.233	41727.53
453.44	40087.11
453.646	40347.2
453.852	40638.01
454.058	41199.16
454.264	39906.89
454.47	40977.98
454.676	39882.31
454.882	41410.1
455.088	37535.34
455.294	38073.96
455.5	38839.9
455.705	39196.24
455.911	37951.08
456.117	36916.86
456.323	36486.78
456.529	34467.48
456.735	36038.28
456.941	34997.91
457.147	34514.59
457.352	33664.68
457.558	33287.85
457.764	33046.19
457.97	32454.33
458.176	31620.81
458.381	31801.03
458.587	30052.06
458.793	30080.74
458.999	28608.25
459.204	30525.14
459.41	29877.99
459.616	27780.87
459.821	28135.17
460.027	28178.17
460.233	27389.7
460.438	25521.96
460.644	25986.85
460.85	24670
461.055	24559.41
461.261	24418.1
461.466	22464.34
461.672	22093.66
461.878	23461.7
462.083	22126.43
462.289	21438.31
462.494	21170.02
462.7	20371.32
462.905	19920.76
463.111	20270.97
463.316	20799.34
463.522	19892.09
463.727	20125.56
463.932	19863.42
464.138	19462.02
464.343	20117.37
464.549	19341.19
464.754	19789.69
464.959	19564.42
465.165	19541.89
465.37	18632.59
465.575	18294.68
465.781	19017.61
465.986	19165.06
466.191	18421.65
466.397	17893.27
466.602	17188.77
466.807	17616.8
467.012	17948.57
467.218	17557.41
467.423	17166.24
467.628	17418.14
467.833	17973.14
468.038	17434.53
468.244	16897.96
468.449	17672.09
468.654	16756.65
468.859	16680.88
469.064	16824.23
469.269	16058.29
469.474	16185.27
469.679	16627.63
469.885	15859.64
470.09	16132.02
470.295	16107.44
470.5	15798.2
470.705	16021.43
470.91	15515.58
471.115	15472.57
471.32	15597.5
471.525	15546.3
471.73	15167.43
471.935	14987.21
472.139	14528.46
472.344	14880.71
472.549	14444.49
472.754	14338
472.959	13936.6
473.164	13686.75
473.369	13649.88
473.574	14125.01
473.778	13699.03
473.983	13774.81
474.188	13584.35
474.393	12898.28
474.598	13158.37
474.802	12924.9
475.007	12840.93
475.212	13021.16
475.417	12429.29
475.621	12421.1
475.826	12623.85
476.031	12376.05
476.235	11751.42
476.44	12326.89
476.645	12007.41
476.849	12072.95
477.054	11886.58
477.259	11872.25
477.463	11718.65
477.668	11356.16
477.872	11452.41
478.077	11200.51
478.282	11143.17
478.486	11085.83
478.691	10784.77
478.895	10932.23
479.1	10956.8
479.304	10954.76
479.509	10371.08
479.713	10799.11
479.918	10514.44
480.122	10110.99
480.326	10614.79
480.531	10559.5
480.735	10262.54
480.94	10078.22
481.144	10520.59
481.348	10092.56
481.553	10133.52
481.757	9912.34
481.961	9943.06
482.166	10176.53
482.37	10041.36
482.574	9912.34
482.778	9988.11
482.983	10209.29
483.187	10123.28
483.391	10029.07
483.595	9930.77
483.8	9760.79
484.004	10209.29
484.208	10047.51
484.412	9963.54
484.616	9789.46
484.821	9857.04
485.025	9562.14
485.229	9918.48
485.433	9799.7
485.637	10049.55
485.841	9738.26
486.045	9652.25
486.249	9768.98
486.453	9695.25
486.657	10014.74
486.861	10010.64
487.065	9746.45
487.269	9701.4
487.473	9639.96
487.677	9781.27
487.881	9926.68
488.085	9834.52
488.289	9955.35
488.493	9709.59
488.697	9889.81
488.901	9793.56
489.105	9734.17
489.309	9652.25
489.512	9633.82
489.716	9674.78
489.92	9881.62
490.124	9756.69
490.328	9867.28
490.531	9947.15
490.735	9963.54
490.939	10108.94
491.143	10121.23
491.346	9863.19
491.55	10033.17
491.754	10006.55
491.958	10203.15
492.161	10053.65
492.365	9979.92
492.569	10162.19
492.772	9871.38
492.976	10274.83
493.18	10227.73
493.383	10479.63
493.587	10305.55
493.79	10563.59
493.994	10371.08
494.197	10622.98
494.401	10539.02
494.605	10582.03
494.808	10709
495.012	10764.29
495.215	10717.19
495.419	10932.23
495.622	10819.59
495.825	10835.97
496.029	10983.43
496.232	11247.62
496.436	10993.67
496.639	11585.53
496.843	11454.46
497.046	11589.63
497.249	11642.87
497.453	11505.66
497.656	11743.22
497.859	11939.83
498.063	11978.74
498.266	12103.67
498.469	12226.54
498.673	12089.33
498.876	12494.83
499.079	12488.68
499.282	12396.53
499.485	12929
499.689	12998.63
499.892	13090.79
500.095	13154.27
500.298	13352.93
500.501	13019.11
500.705	13514.72
500.908	13496.28
501.111	13819.86
501.314	13979.61
501.517	14149.59
501.72	14127.06
501.923	14139.35
502.126	14280.66
502.329	14657.48
502.532	14626.76
502.735	14981.06
502.938	14954.44
503.141	15235.01
503.344	15378.37
503.547	15443.9
503.75	15675.32
503.953	16009.14
504.156	15802.3
504.359	16107.44
504.562	16304.05
504.765	16328.63
504.968	16635.82
505.17	16844.71
505.373	16887.72
505.576	17029.03
505.779	17385.38
505.982	17375.14
506.185	17573.79
506.387	17678.24
506.59	17639.33
506.793	18255.76
506.996	18216.85
507.198	18546.58
507.401	18433.94
507.604	18986.89
507.807	19163.01
508.009	19238.79
508.212	19181.45
508.415	19713.92
508.617	19908.47
508.82	19834.75
509.022	19675.01
509.225	20305.78
509.428	20215.67
509.63	20512.63
509.833	20612.98
510.035	21049.19
510.238	21030.76
510.44	21342.05
510.643	21874.52
510.845	21839.71
511.048	21913.44
511.25	21993.31
511.453	22310.74
511.655	22908.75
511.858	22789.97
512.06	22861.65
512.262	23082.83
512.465	23095.11
512.667	23660.35
512.87	23701.31
513.072	23844.67
513.274	24219.45
513.477	24514.36
513.679	24799.02
513.881	25085.74
514.084	25145.13
514.286	25093.93
514.488	25556.77
514.69	26236.7
514.893	26007.33
515.095	25929.5
515.297	26427.16
515.499	26500.89
515.701	27057.93
515.904	27162.38
516.106	27021.07
516.308	27692.8
516.51	27746.05
516.712	27795.2
516.914	28075.77
517.116	28745.46
517.318	28765.94
517.52	28972.78
517.722	28770.04
517.925	29339.37
518.127	29492.97
518.329	29630.18
518.531	29464.3
518.733	29791.97
518.935	30191.33
519.136	30263
519.338	30852.82
519.54	30744.28
519.742	31088.34
519.944	30949.07
520.146	31514.31
520.348	31559.37
520.55	31649.48
520.752	32452.28
520.954	32278.21
521.155	31940.29
521.357	32671.42
521.559	32681.66
521.761	33197.74
521.963	33371.82
522.164	33089.2
522.366	33341.1
522.568	33539.75
522.77	33525.42
522.971	34447.01
523.173	34027.17
523.375	34191.01
523.576	34346.65
523.778	33871.53
523.98	34590.36
524.181	34692.76
524.383	34936.47
524.584	35036.82
524.786	35157.65
524.988	34920.09
525.189	34799.26
525.391	34959
525.592	35622.54
525.794	35452.56
525.995	35538.57
526.197	35352.21
526.398	35755.66
526.6	36030.08
526.801	35782.28
527.003	35999.37
527.204	35860.1
527.406	35935.88
527.607	36112
527.808	36187.78
528.01	35579.53
528.211	35970.69
528.412	36757.11
528.614	36099.72
528.815	36044.42
529.016	36456.06
529.218	36408.96
529.419	36083.33
529.62	36249.22
529.822	36091.52
530.023	36228.74
530.224	36247.17
530.425	36101.76
530.626	36339.33
530.828	36062.85
531.029	36847.22
531.23	35985.03
531.431	36284.03
531.632	35845.77
531.833	36343.42
532.035	36458.11
532.236	36351.62
532.437	36132.48
532.638	35434.13
532.839	36464.25
533.04	36114.05
533.241	36101.76
533.442	36372.1
533.643	36017.8
533.844	35987.08
534.045	36126.34
534.246	35618.44
534.447	36124.29
534.648	35813
534.849	35974.79
535.05	35870.34
535.251	35495.57
535.451	35554.96
535.652	35526.28
535.853	35454.61
536.054	35671.69
536.255	35331.73
536.456	35008.15
536.657	35786.38
536.857	35186.32
537.058	35061.4
537.259	35165.84
537.46	35194.51
537.66	34907.8
537.861	35020.44
538.062	34539.16
538.263	35225.23
538.463	34924.18
538.664	34641.56
538.865	34991.76
539.065	35212.95
539.266	34272.93
539.466	34866.84
539.667	34430.62
539.868	35020.44
540.068	34832.02
540.269	34481.82
540.469	34727.58
540.67	34133.67
540.87	34768.54
541.071	34465.44
541.271	34721.43
541.472	34668.19
541.672	34381.47
541.873	34156.19
542.073	33922.73
542.274	34731.67
542.474	34221.73
542.675	34135.71
542.875	34451.1
543.075	34414.24
543.276	33861.29
543.476	34148
543.676	34029.22
543.877	34291.36
544.077	34338.46
544.277	34119.33
544.478	34195.1
544.678	34201.25
544.878	33816.23
545.078	34156.19
545.279	34002.6
545.479	33988.26
545.679	34268.83
545.879	34182.82
546.079	33904.29
546.28	34041.51
546.48	34125.47
546.68	34199.2
546.88	34399.9
547.08	34174.63
547.28	33975.97
547.48	33638.06
547.68	34078.37
547.88	33904.29
548.081	34068.13
548.281	34045.6
548.481	33695.4
548.681	34061.99
548.881	34117.28
549.081	34127.52
549.28	33986.21
549.48	34487.96
549.68	33912.49
549.88	34655.9
550.08	34258.59
550.28	34272.93
550.48	33877.67
550.68	34324.13
550.88	34033.32
551.08	33894.05
551.279	34145.95
551.479	33924.77
551.679	34260.64
551.879	34137.76
552.079	34229.92
552.278	33980.07
552.478	34332.32
552.678	34360.99
552.878	34465.44
553.077	34092.71
553.277	33902.25
553.477	34846.36
553.676	34438.81
553.876	34154.15
554.076	34154.15
554.275	34260.64
554.475	33840.81
554.674	34391.71
554.874	34395.81
555.074	34487.96
555.273	34651.8
555.473	34682.52
555.672	34385.57
555.872	34416.29
556.071	34408.09
556.271	34817.69
556.47	34569.88
556.67	34133.67
556.869	34148
557.068	34797.21
557.268	34631.32
557.467	34684.57
557.667	34289.31
557.866	34684.57
558.065	34166.43
558.265	34176.67
558.464	34367.13
558.663	34506.4
558.863	34371.23
559.062	34746.01
559.261	34379.42
559.461	34719.38
559.66	34129.57
559.859	34694.81
560.058	34297.5
560.258	34387.61
560.457	34313.89
560.656	34625.18
560.855	34707.1
561.054	34526.88
561.253	34348.7
561.453	34643.61
561.652	34651.8
561.851	34510.49
562.05	34332.32
562.249	34229.92
562.448	34422.43
562.647	34346.65
562.846	34350.75
563.045	34698.91
563.244	34100.9
563.443	34252.45
563.642	34066.08
563.841	34395.81
564.04	33892.01
564.239	34530.97
564.438	33795.75
564.637	33992.36
564.836	34303.65
565.035	33904.29
565.234	33963.68
565.432	33971.88
565.631	34051.75
565.83	34258.59
566.029	33762.98
566.228	33695.4
566.427	34027.17
566.625	33482.41
566.824	33468.08
567.023	33719.98
567.222	33134.26
567.42	33509.04
567.619	33521.32
567.818	33382.06
568.016	33545.9
568.215	33636.01
568.414	33148.59
568.612	33515.18
568.811	33269.42
569.01	33085.11
569.208	32990.9
569.407	33132.21
569.605	32714.42
569.804	33476.27
570.002	32716.47
570.201	32859.83
570.4	32466.62
570.598	32708.28
570.797	32521.91
570.995	32650.94
571.193	32044.74
571.392	32648.89
571.59	32161.47
571.789	32526.01
571.987	32349.89
572.186	31987.39
572.384	31946.44
572.582	31774.41
572.781	32063.17
572.979	31571.66
573.177	31553.23
573.376	31864.52
573.574	31381.2
573.772	31459.02
573.971	31829.7
574.169	31233.74
574.367	30852.82
574.565	31364.81
574.763	30815.96
574.962	30764.76
575.16	30660.31
575.358	30897.88
575.556	30447.32
575.754	31084.24
575.952	30334.68
576.151	30531.29
576.349	30455.51
576.547	30054.11
576.745	30328.54
576.943	30269.15
577.141	29968.1
577.339	30095.07
577.537	29845.22
577.735	29976.29
577.933	29970.15
578.131	29742.82
578.329	29777.64
578.527	29497.06
578.725	29687.53
578.923	29505.26
579.121	29175.53
579.319	28915.44
579.516	29503.21
579.714	29128.43
579.912	29363.95
580.11	29028.08
580.308	28700.4
580.506	28780.28
580.704	28458.74
580.901	28772.08
581.099	29124.33
581.297	28423.93
581.495	28202.75
581.692	28716.79
581.89	28163.84
582.088	28362.49
582.285	28020.48
582.483	28301.05
582.681	28143.36
582.878	27817.73
583.076	27883.27
583.274	28045.05
583.471	27610.89
583.669	27852.55
583.866	27246.35
584.064	27920.13
584.262	27449.1
584.459	27365.13
584.657	27502.34
584.854	27723.52
585.052	26982.16
585.249	27408.14
585.447	27223.82
585.644	26763.03
585.841	26810.13
586.039	27299.59
586.236	26961.68
586.434	26787.6
586.631	26705.68
586.828	26887.95
587.026	26576.66
587.223	26404.63
587.42	26558.23
587.618	26695.44
587.815	26070.81
588.012	26302.23
588.21	26378.01
588.407	26576.66
588.604	26244.89
588.801	26218.27
588.999	26335
589.196	26232.6
589.393	26134.3
589.59	25818.91
589.787	25765.67
589.984	25755.43
590.182	25597.73
590.379	25765.67
590.576	25513.77
590.773	25368.36
590.97	25440.04
591.167	25380.65
591.364	25321.26
591.561	25657.12
591.758	25040.68
591.955	25179.95
592.152	25423.65
592.349	25212.71
592.546	25155.37
592.743	25456.42
592.94	24686.39
593.137	25392.94
593.334	24966.96
593.531	24590.13
593.727	25057.07
593.924	24831.79
594.121	24788.78
594.318	25042.73
594.515	24813.36
594.712	25028.4
594.908	24479.54
595.105	25026.35
595.302	24323.9
595.499	24768.3
595.696	24555.32
595.892	24305.46
596.089	24807.22
596.286	24665.91
596.482	24340.28
596.679	24590.13
596.876	24538.93
597.072	24280.89
597.269	24284.98
597.466	24196.92
597.662	24342.33
597.859	24407.86
598.055	24530.74
598.252	24383.29
598.448	24262.46
598.645	24280.89
598.841	24158.01
599.038	24340.28
599.234	24338.23
599.431	24239.93
599.627	23963.45
599.824	24162.11
600.02	24180.54
600.217	23861.05
600.413	24438.58
600.609	24360.76
600.806	24293.18
601.002	24315.7
601.198	24170.3
601.395	24049.47
601.591	24266.55
601.787	24227.64
601.984	23830.34
602.18	24645.43
602.376	24112.95
602.572	24241.98
602.769	24201.02
602.965	24076.09
603.161	24289.08
603.357	24299.32
603.553	24235.83
603.75	24268.6
603.946	24192.83
604.142	24074.04
604.338	23942.97
604.534	24274.74
604.73	24061.76
604.926	24119.1
605.122	24299.32
605.318	24315.7
605.514	24069.95
605.71	24311.61
605.906	24248.12
606.102	24072
606.298	24276.79
606.494	24303.42
606.69	24352.57
606.886	24522.55
607.082	24362.81
607.278	24616.76
607.474	24407.86
607.67	24776.5
607.866	24198.97
608.062	25042.73
608.257	24289.08
608.453	24641.33
608.649	24622.9
608.845	24414.01
609.041	24684.34
609.236	24790.83
609.432	24872.75
609.628	24856.37
609.824	24778.54
610.019	24647.47
610.215	24835.89
610.411	25241.39
610.606	24760.11
610.802	25202.47
610.998	25016.11
611.193	25073.45
611.389	25210.67
611.584	24944.43
611.78	25196.33
611.976	24723.25
612.171	25112.36
612.367	25272.11
612.562	24956.72
612.758	24829.74
612.953	24856.37
613.149	25489.19
613.344	25249.58
613.539	25435.94
613.735	25370.41
613.93	25378.6
614.126	25222.95
614.321	25397.03
614.517	25327.4
614.712	25530.15
614.907	25308.97
615.103	25452.33
615.298	25237.29
615.493	25552.68
615.688	24983.34
615.884	25671.46
616.079	25106.22
616.274	25294.63
616.47	25452.33
616.665	25225
616.86	25163.56
617.055	25110.32
617.25	25179.95
617.445	25360.17
617.641	25108.27
617.836	25165.61
618.031	24956.72
618.226	25261.87
618.421	24880.94
618.616	25440.04
618.811	24741.68
619.006	25294.63
619.201	24516.4
619.396	25073.45
619.591	24631.09
619.786	24913.71
619.981	24592.18
620.176	24698.67
620.371	24301.37
620.566	24616.76
620.761	24362.81
620.956	24592.18
621.151	24172.35
621.346	24583.99
621.541	24090.43
621.735	24119.1
621.93	23646.02
622.125	24008.51
622.32	23557.96
622.515	24039.23
622.709	23428.93
622.904	23551.81
623.099	23451.46
623.294	23519.04
623.488	23052.11
623.683	23332.68
623.878	22773.58
624.072	22886.22
624.267	22779.73
624.462	23025.48
624.656	22554.45
624.851	22751.06
625.046	22351.7
625.24	22599.51
625.435	22171.48
625.629	22234.97
625.824	22056.79
626.018	22009.69
626.213	21471.08
626.407	22021.98
626.602	21487.46
626.796	21817.18
626.991	21661.54
627.185	21641.06
627.38	21327.72
627.574	21460.84
627.768	21010.28
627.963	21114.73
628.157	20926.32
628.352	20846.44
628.546	20789.1
628.74	20871.02
628.935	20172.66
629.129	20639.6
629.323	20432.75
629.517	20098.94
629.712	20203.38
629.906	20033.4
630.1	19736.45
630.294	19900.28
630.489	19990.39
630.683	19703.68
630.877	19435.39
631.071	19539.84
631.265	19730.3
631.459	19023.75
631.653	19195.78
631.848	19113.86
632.042	18909.07
632.236	18990.98
632.43	18737.04
632.624	18913.16
632.818	18472.85
633.012	18489.23
633.206	18356.11
633.4	18442.13
633.594	18286.48
633.788	18212.76
633.982	18276.24
634.176	17917.85
634.369	18048.92
634.563	17776.54
634.757	17844.12
634.951	17942.42
635.145	17694.62
635.339	17676.19
635.533	17280.93
635.726	17448.86
635.92	17242.02
636.114	17436.58
636.308	17164.2
636.501	16836.52
636.695	17039.27
636.889	16770.99
637.083	16881.58
637.276	16299.95
637.47	16508.85
637.664	16355.25
637.857	16770.99
638.051	16488.37
638.244	16246.71
638.438	16197.56
638.632	16132.02
638.825	15732.67
639.019	15941.56
639.212	15388.61
639.406	15626.17
639.599	15413.18
639.793	15517.63
639.986	15218.63
640.18	15448
640.373	14993.35
640.567	15052.74
640.76	15048.65
640.954	14800.84
641.147	14956.49
641.34	14538.7
641.534	14895.05
641.727	14757.83
641.92	14563.28
642.114	14567.37
642.307	14262.23
642.5	14399.44
642.694	14088.15
642.887	14309.33
643.08	14139.35
643.273	13928.41
643.467	13983.7
643.66	13776.86
643.853	13914.07
644.046	13629.4
644.239	13656.03
644.432	13713.37
644.626	13387.74
644.819	13283.3
645.012	13287.39
645.205	13084.64
645.398	13117.41
645.591	13146.08
645.784	12947.43
645.977	12842.98
646.17	12769.26
646.363	12503.02
646.556	12619.75
646.749	12578.79
646.942	12695.53
647.135	12533.74
647.328	12568.55
647.521	12333.04
647.714	12281.84
647.907	12249.07
648.099	12120.05
648.292	12109.81
648.485	12011.51
648.678	11917.3
648.871	11864.05
649.064	11782.13
649.256	11534.33
649.449	11651.06
649.642	11501.56
649.835	11333.63
650.027	11214.85
650.22	11245.57
650.413	11159.55
650.605	11429.88
650.798	11233.28
650.991	11073.54
651.183	11030.53
651.376	10801.16
651.568	10987.52
651.761	10545.16
651.954	10799.11
652.146	10739.72
652.339	10887.17
652.531	10680.33
652.724	10577.93
652.916	10407.95
653.109	10520.59
653.301	10303.5
653.494	10434.57
653.686	10137.62
653.879	10405.9
654.071	10047.51
654.263	10207.25
654.456	10008.59
654.648	10078.22
654.84	9928.72
655.033	9838.61
655.225	9840.66
655.417	9824.28
655.61	9705.49
655.802	9926.68
655.994	9709.59
656.186	9492.51
656.379	9689.11
656.571	9539.61
656.763	9371.68
656.955	9447.45
657.148	9363.48
657.34	9381.92
657.532	9230.37
657.724	9058.34
657.916	9300
658.108	9017.38
658.3	9119.78
658.492	9127.97
658.684	8613.93
658.876	8794.15
659.068	8788
659.26	8751.14
659.452	8896.55
659.644	8476.71
659.836	8695.85
660.028	8654.89
660.22	8497.19
660.412	8370.22
660.604	8329.26
660.796	8462.38
660.988	8296.49
661.18	8366.12
661.372	8194.09
661.563	8300.59
661.755	8306.73
661.947	8241.2
662.139	8108.08
662.331	7942.19
662.522	8128.56
662.714	7964.72
662.906	7825.46
663.097	7854.13
663.289	7819.32
663.481	7567.42
663.673	7718.96
663.864	7622.71
664.056	7415.87
664.247	7628.85
664.439	7551.03
664.631	7475.26
664.822	7497.78
665.014	7374.91
665.205	7399.48
665.397	7209.02
665.588	7170.11
665.78	7143.49
665.971	7227.45
666.163	7311.42
666.354	7137.34
666.546	7145.53
666.737	7041.09
666.929	7182.4
667.12	7065.66
667.311	7010.37
667.503	6998.08
667.694	6918.21
667.885	6871.11
668.077	6926.4
668.268	7008.32
668.459	6887.49
668.651	6711.36
668.842	6785.09
669.033	6670.4
669.224	6578.25
669.416	6713.41
669.607	6453.32
669.798	6752.32
669.989	6574.15
670.18	6572.1
670.371	6512.71
670.563	6318.15
670.754	6342.73
670.945	6289.48
671.136	6377.55
671.327	6293.58
671.518	6293.58
671.709	6375.5
671.9	6234.19
672.091	6240.33
672.282	6107.21
672.473	6015.05
672.664	6109.26
672.855	6058.06
673.046	6072.4
673.237	6187.08
673.428	6025.29
673.619	6070.35
673.809	5912.66
674	5990.48
674.191	5970
674.382	5812.31
674.573	5910.61
674.764	5838.93
674.954	5978.19
675.145	5654.61
675.336	5924.94
675.527	5693.52
675.717	5754.96
675.908	5765.2
676.099	5769.3
676.289	5679.19
676.48	5754.96
676.671	5681.24
676.861	5589.08
677.052	5584.98
677.243	5578.84
677.433	5826.64
677.624	5623.89
677.814	5671
678.005	5634.13
678.195	5601.37
678.386	5650.52
678.576	5466.2
678.767	5443.67
678.957	5474.39
679.148	5656.66
679.338	5568.6
679.529	5605.46
679.719	5257.31
679.909	5396.57
680.1	5396.57
680.29	5527.64
680.481	5503.06
680.671	5544.02
680.861	5507.16
681.052	5423.19
681.242	5337.18
681.432	5343.32
681.622	5240.92
681.813	5402.71
682.003	5384.28
682.193	5339.23
682.383	5441.62
682.573	5429.34
682.764	5249.11
682.954	5175.39
683.144	5371.99
683.334	5195.87
683.524	5285.98
683.714	5236.83
683.904	5285.98
684.094	5292.12
684.284	5277.79
684.474	5294.17
684.664	5169.24
684.854	5216.35
685.044	5277.79
685.234	5238.87
685.424	5175.39
685.614	4995.17
685.804	5081.18
685.994	4941.92
686.184	5032.03
686.374	5138.52
686.564	5179.48
686.753	5091.42
686.943	5015.65
687.133	5038.17
687.323	4855.9
687.513	5077.09
687.702	4974.69
687.892	4952.16
688.082	4864.1
688.272	5029.98
688.461	5040.22
688.651	4935.78
688.841	4989.02
689.03	4950.11
689.22	4786.27
689.41	4823.14
689.599	4845.66
689.789	4876.38
689.979	4913.25
690.168	4812.9
690.358	4655.2
690.547	4794.47
690.737	4728.93
690.926	4864.1
691.116	4647.01
691.305	4761.7
691.495	4655.2
691.684	4638.82
691.874	4761.7
692.063	4604
692.252	4690.02
692.442	4583.52
692.631	4591.72
692.82	4632.68
693.01	4573.28
693.199	4589.67
693.388	4571.24
693.578	4548.71
693.767	4528.23
693.956	4448.36
694.146	4597.86
694.335	4581.48
694.524	4458.6
694.713	4544.61
694.902	4489.32
695.092	4393.06
695.281	4305
695.47	4311.14
695.659	4485.22
695.848	4294.76
696.037	4376.68
696.226	4364.39
696.415	4284.52
696.604	4442.21
696.793	4401.26
696.982	4182.12
697.171	4442.21
697.36	4386.92
697.549	4268.14
697.738	4272.23
697.927	4159.6
698.116	4233.32
698.305	4214.89
698.494	4261.99
698.683	4171.88
698.872	4249.71
699.061	4077.68
699.25	4227.18
699.438	4128.88
699.627	4155.5
699.816	4110.44
700.005	4305
700.193	4057.2
700.382	4135.02
700.571	4079.72
700.76	4106.35
700.948	4049
701.137	4006
701.326	4051.05
701.514	4212.84
701.703	4218.99
701.892	3962.99
702.08	4157.55
702.269	4044.91
702.457	3862.64
702.646	4024.43
702.834	4083.82
703.023	3969.13
703.212	3952.75
703.4	3973.23
703.589	4036.72
703.777	3960.94
703.965	3819.63
704.154	3958.89
704.342	3860.59
704.531	3790.96
704.719	3913.84
704.907	3930.22
705.096	3682.42
705.284	3682.42
705.472	3815.54
705.661	3737.71
705.849	3852.4
706.037	3756.15
706.226	3807.34
706.414	3987.57
706.602	3758.19
706.79	3803.25
706.979	3723.38
707.167	3752.05
707.355	3520.63
707.543	3698.8
707.731	3842.16
707.919	3649.65
708.107	3518.58
708.296	3623.03
708.484	3641.46
708.672	3737.71
708.86	3641.46
709.048	3625.08
709.236	3524.72
709.424	3563.64
709.612	3674.23
709.8	3526.77
709.988	3410.04
710.176	3582.07
710.364	3565.68
710.551	3504.25
710.739	3596.4
710.927	3424.37
711.115	3537.01
711.303	3508.34
711.491	3516.53
711.679	3541.11
711.866	3448.95
712.054	3448.95
712.242	3500.15
712.43	3444.85
712.617	3360.89
712.805	3426.42
712.993	3295.35
713.181	3362.94
713.368	3379.32
713.556	3276.92
713.744	3272.82
713.931	3395.7
714.119	3336.31
714.306	3340.41
714.494	3217.53
714.682	3285.11
714.869	3266.68
715.057	3223.67
715.244	3188.86
715.432	3311.74
715.619	3240.06
715.807	3207.29
715.994	3264.63
716.182	3246.2
716.369	3262.58
716.556	3156.09
716.744	3072.12
716.931	3172.47
717.119	3213.43
717.306	3160.19
717.493	3199.1
717.681	3139.71
717.868	3076.22
718.055	3235.96
718.242	3049.6
718.43	3123.32
718.617	3035.26
718.804	3176.57
718.991	3041.4
719.179	3123.32
719.366	3115.13
719.553	3065.98
719.74	3061.88
719.927	3115.13
720.114	3061.88
720.301	3000.44
720.488	3018.88
720.676	2820.22
720.863	3043.45
721.05	2887.81
721.237	2943.1
721.424	2932.86
721.611	2857.09
721.798	2885.76
721.985	2904.19
722.172	2869.37
722.358	2816.13
722.545	2928.77
722.732	2773.12
722.919	3002.49
723.106	2789.5
723.293	2723.97
723.48	2902.14
723.667	2789.5
723.853	2875.52
724.04	2826.37
724.227	2754.69
724.414	2799.74
724.6	2820.22
724.787	2787.46
724.974	2820.22
725.161	2832.51
725.347	2771.07
725.534	2769.02
725.72	2812.03
725.907	2711.68
726.094	2744.45
726.28	2656.39
726.467	2803.84
726.653	2599.04
726.84	2781.31
727.027	2715.78
727.213	2617.47
727.4	2683.01
727.586	2558.08
727.773	2685.06
727.959	2648.19
728.145	2676.87
728.332	2648.19
728.518	2543.75
728.705	2689.15
728.891	2584.71
729.077	2609.28
729.264	2730.11
729.45	2566.28
729.636	2666.63
729.823	2631.81
730.009	2566.28
730.195	2437.25
730.382	2619.52
730.568	2590.85
730.754	2646.15
730.94	2519.17
731.126	2547.84
731.313	2541.7
731.499	2484.36
731.685	2513.03
731.871	2568.32
732.057	2510.98
732.243	2547.84
732.429	2488.45
732.615	2484.36
732.801	2574.47
732.987	2429.06
733.173	2541.7
733.359	2463.88
733.545	2418.82
733.731	2412.68
733.917	2502.79
734.103	2369.67
734.289	2336.9
734.475	2576.52
734.661	2429.06
734.847	2508.93
735.033	2379.91
735.219	2390.15
735.404	2357.38
735.59	2467.97
735.776	2273.42
735.962	2297.99
736.148	2543.75
736.333	2388.1
736.519	2347.14
736.705	2392.2
736.89	2312.33
737.076	2338.95
737.262	2371.72
737.447	2099.34
737.633	2248.84
737.819	2377.86
738.004	2373.77
738.19	2289.8
738.375	2320.52
738.561	2345.09
738.747	2304.14
738.932	2304.14
739.118	2304.14
739.303	2197.64
739.489	2254.98
739.674	2246.79
739.859	2183.31
740.045	2322.57
740.23	2148.49
740.416	2152.59
740.601	2252.94
740.786	2226.31
740.972	2173.07
741.157	2271.37
741.342	2148.49
741.528	2132.11
741.713	2013.32
741.898	2097.29
742.084	1953.93
742.269	2183.31
742.454	2082.95
742.639	2191.5
742.824	2035.85
743.01	2087.05
743.195	2093.19
743.38	2125.96
743.565	2001.04
743.75	2123.91
743.935	2082.95
744.12	2132.11
744.305	2027.66
744.49	1941.65
744.675	1994.89
744.86	2013.32
745.045	1945.74
745.23	1886.35
745.415	1986.7
745.6	2007.18
745.785	1960.08
745.97	2052.24
746.155	1919.12
746.34	1968.27
746.525	1869.97
746.71	1878.16
746.895	1845.39
747.079	1929.36
747.264	1833.1
747.449	1757.33
747.634	1757.33
747.819	1820.81
748.003	1759.38
748.188	1767.57
748.373	1771.66
748.557	1730.7
748.742	1763.47
748.927	1763.47
749.111	1656.98
749.296	1755.28
749.481	1638.55
749.665	1773.71
749.85	1734.8
750.034	1679.51
750.219	1683.6
750.404	1654.93
750.588	1691.79
750.773	1513.62
750.957	1624.21
751.141	1599.63
751.326	1669.27
751.51	1548.44
751.695	1558.67
751.879	1536.15
752.064	1599.63
752.248	1566.87
752.432	1493.14
752.617	1517.72
752.801	1566.87
752.985	1423.51
753.17	1435.8
753.354	1405.08
753.538	1372.31
753.722	1454.23
753.907	1398.93
754.091	1452.18
754.275	1443.99
754.459	1497.24
754.643	1364.12
754.828	1300.63
755.012	1427.6
755.196	1278.1
755.38	1290.39
755.564	1317.01
755.748	1362.07
755.932	1327.25
756.116	1226.9
756.3	1304.73
756.484	1249.43
756.668	1284.25
756.852	1235.1
757.036	1263.77
757.22	1257.62
757.404	1278.1
757.588	1222.81
757.772	1165.46
757.956	1308.82
758.14	1337.49
758.323	1208.47
758.507	1173.66
758.691	1153.18
758.875	1263.77
759.059	1198.23
759.242	1116.31
759.426	1081.5
759.61	1173.66
759.794	1149.08
759.977	1165.46
760.161	1190.04
760.345	1214.62
760.528	1108.12
760.712	1140.89
760.895	1134.75
761.079	1120.41
761.263	1106.07
761.446	964.76
761.63	1052.83
761.813	1147.03
761.997	995.48
762.18	1061.02
762.364	1077.4
762.547	1013.92
762.731	995.48
762.914	999.58
763.098	1091.74
763.281	1005.72
763.464	979.1
763.648	1058.97
763.831	1018.01
764.015	983.2
764.198	1067.16
764.381	1018.01
764.564	977.05
764.748	997.53
764.931	927.9
765.114	993.44
765.297	964.76
765.481	891.04
765.664	936.09
765.847	872.61
766.03	1005.72
766.213	964.76
766.397	1048.73
766.58	876.7
766.763	905.37
766.946	899.23
767.129	936.09
767.312	848.03
767.495	954.52
767.678	872.61
767.861	911.52
768.044	915.61
768.227	968.86
768.41	856.22
768.593	946.33
768.776	1034.39
768.959	837.79
769.142	886.94
769.324	829.6
769.507	880.8
769.69	856.22
769.873	751.78
770.056	1003.68
770.239	833.69
770.421	878.75
770.604	848.03
770.787	841.89
770.97	827.55
771.152	792.73
771.335	870.56
771.518	817.31
771.7	923.8
771.883	854.17
772.066	829.6
772.248	827.55
772.431	858.27
772.613	739.49
772.796	743.58
772.978	821.41
773.161	790.69
773.343	762.02
773.526	802.97
773.708	620.71
773.891	784.54
774.073	841.89
774.256	716.96
774.438	813.21
774.621	714.91
774.803	809.12
774.985	727.2
775.168	651.42
775.35	727.2
775.532	747.68
775.715	673.95
775.897	731.3
776.079	596.13
776.261	692.38
776.444	743.58
776.626	714.91
776.808	663.71
776.99	635.04
777.173	712.86
777.355	645.28
777.537	657.57
777.719	628.9
777.901	630.95
778.083	571.55
778.265	581.79
778.447	641.18
778.629	526.5
778.811	665.76
778.993	665.76
779.175	651.42
779.357	628.9
779.539	581.79
779.721	579.75
779.903	577.7
780.085	565.41
780.267	557.22
780.449	555.17
780.631	628.9
780.812	542.88
780.994	657.57
781.176	594.08
781.358	563.36
781.54	512.16
781.721	594.08
781.903	524.45
782.085	518.31
782.267	608.42
782.448	491.68
782.63	526.5
782.812	569.51
782.993	491.68
783.175	596.13
783.357	520.35
783.538	518.31
783.72	499.88
783.901	420
784.083	430.24
784.264	522.4
784.446	530.59
784.627	422.05
784.809	483.49
784.99	465.06
785.172	377
785.353	440.48
785.535	417.96
785.716	514.21
785.897	405.67
786.079	460.96
786.26	436.39
786.441	473.25
786.623	358.57
786.804	391.33
786.985	440.48
787.167	350.37
787.348	454.82
787.529	403.62
787.71	413.86
787.891	432.29
788.073	342.18
788.254	397.48
788.435	512.16
788.616	370.85
788.797	420
788.978	383.14
789.159	379.04
789.34	374.95
789.522	366.76
789.703	452.77
789.884	325.8
790.065	393.38
790.246	356.52
790.427	338.09
790.607	317.61
790.788	381.09
790.969	366.76
791.15	405.67
791.331	276.65
791.512	338.09
791.693	336.04
791.874	364.71
792.054	358.57
792.235	338.09
792.416	325.8
792.597	284.84
792.778	360.61
792.958	342.18
793.139	274.6
793.32	350.37
793.5	264.36
793.681	422.05
793.862	319.65
794.042	243.88
794.223	225.45
794.404	264.36
794.584	266.41
794.765	270.5
794.945	166.06
795.126	329.89
795.306	372.9
795.487	231.59
795.667	254.12
795.848	274.6
796.028	280.74
796.209	321.7
796.389	270.5
796.57	297.13
796.75	190.63
796.93	256.17
797.111	288.93
797.291	293.03
797.471	278.69
797.652	190.63
797.832	252.07
798.012	313.51
798.192	186.54
798.373	174.25
798.553	207.02
798.733	250.02
798.913	256.17
799.093	329.89
799.274	190.63
799.454	256.17
799.634	256.17
799.814	239.78
799.994	180.39
800.174	209.06
800.354	215.21
800.534	151.72
800.714	186.54
800.894	217.26
801.074	182.44
801.254	149.67
801.434	227.5
801.614	200.87
801.794	207.02
801.974	903.32
802.154	219.3
802.334	178.34
802.514	190.63
802.693	186.54
802.873	170.15
803.053	247.97
803.233	198.82
803.413	184.49
803.592	170.15
803.772	190.63
803.952	200.87
804.131	215.21
804.311	245.93
804.491	207.02
804.67	170.15
804.85	161.96
805.03	157.86
805.209	168.1
805.389	198.82
805.568	250.02
805.748	157.86
805.928	155.82
806.107	174.25
806.287	264.36
806.466	219.3
806.646	170.15
806.825	151.72
807.004	149.67
807.184	108.71
807.363	172.2
807.543	86.19
807.722	118.95
807.901	151.72
808.081	252.07
808.26	75.95
808.439	116.9
808.619	112.81
808.798	157.86
808.977	125.1
809.156	174.25
809.336	194.73
809.515	186.54
809.694	174.25
809.873	133.29
810.052	129.19
810.231	209.06
810.411	182.44
810.59	96.43
810.769	213.16
810.948	170.15
811.127	108.71
811.306	184.49
811.485	157.86
811.664	112.81
811.843	147.62
812.022	202.92
812.201	102.57
812.38	86.19
812.559	77.99
812.737	116.9
812.916	129.19
813.095	151.72
813.274	96.43
813.453	166.06
813.632	155.82
813.811	168.1
813.989	47.27
814.168	188.58
814.347	61.61
814.526	100.52
814.704	176.3
814.883	207.02
815.062	34.99
815.24	125.1
815.419	77.99
815.598	127.14
815.776	108.71
815.955	71.85
816.133	59.56
816.312	86.19
816.49	96.43
816.669	166.06
816.847	114.86
817.026	110.76
817.204	96.43
817.383	116.9
817.561	92.33
817.74	104.62
817.918	73.9
818.097	116.9
818.275	94.38
818.453	108.71
818.632	86.19
818.81	94.38
818.988	86.19
819.167	98.47
819.345	106.67
819.523	135.34
819.701	100.52
819.879	123.05
820.058	88.23
820.236	129.19
820.414	24.75
820.592	86.19
820.77	39.08
820.948	86.19
821.127	75.95
821.305	43.18
821.483	37.03
821.661	143.53
821.839	145.58
822.017	-1.88
822.195	100.52
822.373	100.52
822.551	135.34
822.729	75.95
822.907	75.95
823.085	182.44
823.262	51.37
823.44	28.84
823.618	53.42
823.796	145.58
823.974	112.81
824.152	37.03
824.329	30.89
824.507	86.19
824.685	63.66
824.863	61.61
825.04	63.66
825.218	71.85
825.396	28.84
825.574	34.99
825.751	39.08
825.929	88.23
826.107	28.84
826.284	77.99
826.462	96.43
826.639	-22.36
826.817	-71.51
826.994	161.96
827.172	28.84
827.349	71.85
827.527	88.23
827.704	86.19
827.882	98.47
828.059	51.37
828.237	28.84
828.414	88.23
828.591	-3.93
828.769	84.14
828.946	84.14
829.124	100.52
829.301	53.42
829.478	2.22
829.655	59.56
829.833	47.27
830.01	8.36
830.187	108.71
830.364	84.14
830.542	30.89
830.719	88.23
830.896	-5.97
831.073	2.22
831.25	28.84
831.427	-59.22
831.604	63.66
831.782	-20.31
831.959	-12.12
832.136	-3.93
832.313	84.14
832.49	71.85
832.667	28.84
832.844	51.37
833.021	116.9
833.198	53.42
833.374	59.56
833.551	43.18
833.728	-22.36
833.905	12.46
834.082	-28.5
834.259	18.6
834.436	45.23
834.612	-44.88
834.789	67.75
834.966	26.79
835.143	67.75
835.319	-30.55
835.496	86.19
835.673	18.6
835.85	53.42
836.026	-30.55
836.203	-26.45
836.38	51.37
836.556	37.03
836.733	37.03
836.909	108.71
837.086	-12.12
837.262	14.51
837.439	-14.17
837.616	-38.74
837.792	59.56
837.968	39.08
838.145	-42.84
838.321	53.42
838.498	6.31
838.674	10.41
838.851	59.56
839.027	-5.97
839.203	0.17
839.38	75.95
839.556	45.23
839.732	59.56
839.909	8.36
840.085	34.99
840.261	-36.69
840.437	-3.93
840.614	-67.41
840.79	-22.36
840.966	-3.93
841.142	20.65
841.318	45.23
841.494	-20.31
841.671	18.6
841.847	26.79
842.023	-20.31
842.199	8.36
842.375	100.52
842.551	-22.36
842.727	-12.12
842.903	86.19
843.079	-46.93
843.255	61.61
843.431	59.56
843.607	-14.17
843.783	-14.17
843.959	10.41
844.134	18.6
844.31	67.75
844.486	26.79
844.662	26.79
844.838	47.27
845.013	-34.64
845.189	-12.12
845.365	-34.64
845.541	94.38
845.716	-1.88
845.892	67.75
846.068	-18.26
846.244	-61.27
846.419	34.99
846.595	-1.88
846.77	20.65
846.946	30.89
847.122	-22.36
847.297	6.31
847.473	100.52
847.648	-28.5
847.824	24.75
847.999	-38.74
848.175	10.41
848.35	96.43
848.526	2.22
848.701	2.22
848.876	10.41
849.052	-5.97
849.227	-36.69
849.403	-79.7
849.578	-22.36
849.753	10.41
849.929	-28.5
850.104	18.6
850.279	-34.64
850.454	63.66
850.63	47.27
850.805	14.51
850.98	12.46
851.155	2.22
851.33	34.99
851.505	-14.17
851.681	10.41
851.856	37.03
852.031	-16.21
852.206	43.18
852.381	-20.31
852.556	-69.46
852.731	-1.88
852.906	28.84
853.081	-5.97
853.256	-71.51
853.431	10.41
853.606	-30.55
853.781	-12.12
853.956	-94.04
854.131	2.22
854.305	-79.7
854.48	10.41
854.655	-28.5
854.83	-59.22
855.005	-22.36
855.18	-22.36
855.354	-14.17
855.529	12.46
855.704	49.32
855.879	14.51
856.053	4.27
856.228	-67.41
856.403	-83.8
856.577	-5.97
856.752	-14.17
856.926	6.31
857.101	-26.45
857.276	22.7
857.45	-16.21
857.625	-10.07
857.799	-5.97
857.974	14.51
858.148	-59.22
858.323	-1.88
858.497	-22.36
858.672	34.99
858.846	-10.07
859.02	-22.36
859.195	18.6
859.369	-14.17
859.543	-20.31
859.718	-44.88
859.892	-59.22
860.066	-30.55
860.241	-48.98
860.415	10.41
860.589	26.79
860.763	-38.74
860.938	-44.88
861.112	-28.5
861.286	26.79
861.46	-44.88
861.634	22.7
861.808	-5.97
861.982	-20.31
862.157	6.31
862.331	2.22
862.505	-30.55
862.679	-96.08
862.853	-67.41
863.027	-22.36
863.201	-26.45
863.375	-48.98
863.549	-5.97
863.722	34.99
863.896	69.8
864.07	-55.12
864.244	-65.36
864.418	-77.65
864.592	30.89
864.766	18.6
864.939	67.75
865.113	-53.08
865.287	-42.84
865.461	-51.03
865.634	-26.45
865.808	-61.27
865.982	-48.98
866.156	8.36
866.329	-5.97
866.503	-16.21
866.676	-18.26
866.85	-46.93
867.024	14.51
867.197	-26.45
867.371	10.41
867.544	-110.42
867.718	-55.12
867.891	10.41
868.065	-75.6
868.238	-38.74
868.412	59.56
868.585	-69.46
868.759	-3.93
868.932	4.27
869.105	14.51
869.279	34.99
869.452	-10.07
869.625	-79.7
869.799	-53.08
869.972	-36.69
870.145	-40.79
870.319	20.65
870.492	20.65
870.665	-83.8
870.838	-40.79
871.011	-87.89
871.185	2.22
871.358	-63.32
871.531	-5.97
871.704	-14.17
871.877	-28.5
872.05	-75.6
872.223	-46.93
872.396	-34.64
872.569	-55.12
872.742	20.65
872.915	-20.31
873.088	-96.08
873.261	-61.27
873.434	-22.36
873.607	-20.31
873.78	39.08
873.953	-14.17
874.126	-26.45
874.299	-1.88
874.471	26.79
874.644	-20.31
874.817	-12.12
874.99	75.95
875.163	-94.04
875.335	22.7
875.508	-36.69
875.681	71.85
875.853	-38.74
876.026	-55.12
876.199	-20.31
876.371	-3.93
876.544	-20.31
876.717	4.27
876.889	-14.17
877.062	51.37
877.234	-69.46
877.407	-38.74
877.579	-55.12
877.752	14.51
877.924	-34.64
878.097	-20.31
878.269	-38.74
878.442	-46.93
878.614	-34.64
878.786	-24.4
878.959	-26.45
879.131	-108.37
879.303	-98.13
879.476	-30.55
879.648	-18.26
879.82	-38.74
879.993	-38.74
880.165	-63.32
880.337	-81.75
880.509	-38.74
880.681	-67.41
880.854	-16.21
881.026	-14.17
881.198	12.46
881.37	-20.31
881.542	6.31
881.714	-126.8
881.886	-61.27
882.058	-20.31
882.23	4.27
882.402	-5.97
882.574	-71.51
882.746	18.6
882.918	18.6
883.09	20.65
883.262	-38.74
883.434	-18.26
883.606	-38.74
883.778	-28.5
883.95	37.03
884.122	-63.32
884.293	-22.36
884.465	-12.12
884.637	-12.12
884.809	4.27
884.98	-22.36
885.152	-22.36
885.324	2.22
885.496	-130.9
885.667	-55.12
885.839	-81.75
886.011	-28.5
886.182	-34.64
886.354	34.99
886.525	-38.74
886.697	34.99
886.869	-38.74
887.04	-26.45
887.212	43.18
887.383	39.08
887.555	-18.26
887.726	-91.99
887.897	-10.07
888.069	12.46
888.24	6.31
888.412	-28.5
888.583	-51.03
888.754	28.84
888.926	-77.65
889.097	-51.03
889.268	-87.89
889.44	-51.03
889.611	-44.88
889.782	-96.08
889.953	-59.22
890.125	-3.93
890.296	-83.8
890.467	-5.97
890.638	-55.12
890.809	-20.31
890.98	-104.28
891.151	-34.64
891.323	-28.5
891.494	-36.69
891.665	-32.6
891.836	-42.84
892.007	-46.93
892.178	-28.5
892.349	-69.46
892.52	-46.93
892.691	-44.88
892.862	-106.32
893.032	-98.13
893.203	-3.93
893.374	-63.32
893.545	-18.26
893.716	-71.51
893.887	-46.93
894.057	-34.64
894.228	-46.93
894.399	-26.45
894.57	-55.12
894.74	-26.45
894.911	-51.03
895.082	8.36
895.253	18.6
895.423	-28.5
895.594	-14.17
895.764	-55.12
895.935	-53.08
896.106	-81.75
896.276	-36.69
896.447	-26.45
896.617	-63.32
896.788	-94.04
896.958	-75.6
897.129	-36.69
897.299	-5.97
897.47	30.89
897.64	26.79
897.81	-55.12
897.981	-30.55
898.151	8.36
898.322	-83.8
898.492	-55.12
898.662	-63.32
898.832	-112.47
899.003	-1.88
899.173	-5.97
899.343	-53.08
899.513	-120.66
