Data from USB4F104151__71__14-30-24-025.txt Node

Date: Thu Mar 13 14:30:24 EDT 2025
User: louis
Spectrometer: USB4F10415
Trigger mode: 4
Integration Time (sec): 2.500000E-2
Scans to average: 1
Electric dark correction enabled: true
Nonlinearity correction enabled: false
Boxcar width: 0
XAxis mode: Wavelengths
Number of Pixels in Spectrum: 3648
>>>>>Begin Spectral Data<<<<<
178.204	-102.57
178.424	-102.57
178.644	-102.57
178.864	-100.52
179.084	-143.53
179.304	-8.36
179.524	-34.99
179.744	38.74
179.964	77.65
180.184	18.26
180.404	46.93
180.624	-4.27
180.844	-20.65
181.064	-69.8
181.283	-8.36
181.503	5.97
181.723	-41.13
181.943	-6.31
182.163	77.65
182.383	87.89
182.602	63.32
182.822	-10.41
183.042	-28.84
183.262	28.5
183.482	-2.22
183.701	-16.55
183.921	-18.6
184.141	-20.65
184.361	65.36
184.58	3.93
184.8	26.45
185.02	14.17
185.239	81.75
185.459	-6.31
185.679	24.4
185.898	-65.71
186.118	69.46
186.338	18.26
186.557	38.74
186.777	-28.84
186.997	-6.31
187.216	28.5
187.436	28.5
187.655	48.98
187.875	48.98
188.095	-37.03
188.314	61.27
188.534	-6.31
188.753	1.88
188.973	69.46
189.192	30.55
189.412	20.31
189.631	-28.84
189.851	67.41
190.07	118.61
190.29	-26.79
190.509	-53.42
190.729	-12.46
190.948	20.31
191.168	110.42
191.387	96.08
191.607	-22.7
191.826	24.4
192.045	-8.36
192.265	-20.65
192.484	12.12
192.704	85.84
192.923	12.12
193.142	38.74
193.362	-53.42
193.581	28.5
193.8	28.5
194.02	22.36
194.239	12.12
194.458	114.52
194.678	-10.41
194.897	44.88
195.116	24.4
195.335	32.6
195.555	-0.17
195.774	30.55
195.993	40.79
196.212	-0.17
196.432	-12.46
196.651	20.31
196.87	28.5
197.089	40.79
197.308	44.88
197.528	63.32
197.747	8.02
197.966	28.5
198.185	-2.22
198.404	-18.6
198.623	46.93
198.842	-4.27
199.062	-12.46
199.281	67.41
199.5	-24.75
199.719	32.6
199.938	-6.31
200.157	63.32
200.376	36.69
200.595	-8.36
200.814	-32.94
201.033	20.31
201.252	69.46
201.471	3.93
201.69	20.31
201.909	20.31
202.128	102.23
202.347	-28.84
202.566	-8.36
202.785	18.26
203.004	-53.42
203.223	143.19
203.442	18.26
203.661	55.12
203.879	36.69
204.098	12.12
204.317	85.84
204.536	30.55
204.755	24.4
204.974	110.42
205.193	59.22
205.411	98.13
205.63	-20.65
205.849	61.27
206.068	8.02
206.287	-2.22
206.505	36.69
206.724	12.12
206.943	-24.75
207.162	-34.99
207.381	12.12
207.599	-45.23
207.818	-8.36
208.037	40.79
208.255	-65.71
208.474	36.69
208.693	20.31
208.911	-18.6
209.13	32.6
209.349	61.27
209.567	14.17
209.786	53.08
210.005	14.17
210.223	5.97
210.442	-100.52
210.661	20.31
210.879	-16.55
211.098	-20.65
211.316	30.55
211.535	-12.46
211.753	69.46
211.972	38.74
212.191	-6.31
212.409	-43.18
212.628	22.36
212.846	8.02
213.065	12.12
213.283	36.69
213.502	24.4
213.72	3.93
213.938	1.88
214.157	61.27
214.375	-18.6
214.594	-53.42
214.812	104.28
215.031	112.47
215.249	8.02
215.467	114.52
215.686	-45.23
215.904	57.17
216.122	-16.55
216.341	36.69
216.559	26.45
216.778	32.6
216.996	24.4
217.214	36.69
217.432	12.12
217.651	-0.17
217.869	42.84
218.087	-20.65
218.306	12.12
218.524	44.88
218.742	-2.22
218.96	8.02
219.179	-45.23
219.397	14.17
219.615	94.04
219.833	53.08
220.051	-49.32
220.27	87.89
220.488	36.69
220.706	79.7
220.924	-4.27
221.142	-41.13
221.36	30.55
221.578	-14.51
221.796	28.5
222.015	-0.17
222.233	22.36
222.451	8.02
222.669	38.74
222.887	98.13
223.105	26.45
223.323	-18.6
223.541	-100.52
223.759	-0.17
223.977	-51.37
224.195	26.45
224.413	55.12
224.631	73.56
224.849	-14.51
225.067	36.69
225.285	61.27
225.503	-34.99
225.721	-37.03
225.939	65.36
226.157	22.36
226.375	85.84
226.592	-47.27
226.81	36.69
227.028	61.27
227.246	145.24
227.464	20.31
227.682	-10.41
227.9	75.6
228.117	46.93
228.335	36.69
228.553	-49.32
228.771	57.17
228.989	-20.65
229.206	38.74
229.424	81.75
229.642	-84.14
229.86	-37.03
230.077	108.37
230.295	-61.61
230.513	73.56
230.731	71.51
230.948	28.5
231.166	104.28
231.384	-49.32
231.601	-55.47
231.819	102.23
232.037	1.88
232.254	81.75
232.472	-18.6
232.689	8.02
232.907	44.88
233.125	3.93
233.342	-12.46
233.56	26.45
233.777	-55.47
233.995	-10.41
234.213	20.31
234.43	83.8
234.648	16.21
234.865	-8.36
235.083	36.69
235.3	18.26
235.518	63.32
235.735	85.84
235.953	94.04
236.17	8.02
236.388	61.27
236.605	46.93
236.822	26.45
237.04	-55.47
237.257	-32.94
237.475	44.88
237.692	-0.17
237.909	-14.51
238.127	20.31
238.344	30.55
238.562	145.24
238.779	-26.79
238.996	-45.23
239.214	12.12
239.431	8.02
239.648	-20.65
239.865	57.17
240.083	28.5
240.3	5.97
240.517	3.93
240.735	75.6
240.952	61.27
241.169	98.13
241.386	-37.03
241.603	20.31
241.821	8.02
242.038	87.89
242.255	14.17
242.472	-16.55
242.689	14.17
242.907	28.5
243.124	20.31
243.341	38.74
243.558	32.6
243.775	61.27
243.992	5.97
244.209	81.75
244.426	94.04
244.643	44.88
244.86	38.74
245.078	53.08
245.295	98.13
245.512	-28.84
245.729	-37.03
245.946	94.04
246.163	18.26
246.38	48.98
246.597	14.17
246.814	-6.31
247.031	36.69
247.248	-32.94
247.464	46.93
247.681	69.46
247.898	40.79
248.115	98.13
248.332	-16.55
248.549	36.69
248.766	89.94
248.983	46.93
249.2	61.27
249.417	-26.79
249.633	3.93
249.85	22.36
250.067	16.21
250.284	28.5
250.501	-12.46
250.717	36.69
250.934	-2.22
251.151	20.31
251.368	61.27
251.585	44.88
251.801	8.02
252.018	-57.51
252.235	67.41
252.451	-61.61
252.668	-18.6
252.885	40.79
253.102	-20.65
253.318	-0.17
253.535	-24.75
253.752	5.97
253.968	44.88
254.185	55.12
254.401	53.08
254.618	-2.22
254.835	22.36
255.051	69.46
255.268	22.36
255.484	55.12
255.701	-53.42
255.917	38.74
256.134	-45.23
256.351	53.08
256.567	-26.79
256.784	44.88
257	-45.23
257.217	26.45
257.433	-16.55
257.65	-8.36
257.866	89.94
258.082	-20.65
258.299	-51.37
258.515	-32.94
258.732	38.74
258.948	12.12
259.165	20.31
259.381	-24.75
259.597	3.93
259.814	-6.31
260.03	14.17
260.246	77.65
260.463	85.84
260.679	53.08
260.895	38.74
261.112	30.55
261.328	-2.22
261.544	-24.75
261.761	20.31
261.977	-4.27
262.193	28.5
262.409	65.36
262.626	-2.22
262.842	36.69
263.058	-65.71
263.274	118.61
263.49	44.88
263.707	-10.41
263.923	-0.17
264.139	-28.84
264.355	53.08
264.571	94.04
264.787	32.6
265.004	77.65
265.22	38.74
265.436	-16.55
265.652	-4.27
265.868	30.55
266.084	1.88
266.3	5.97
266.516	20.31
266.732	-43.18
266.948	51.03
267.164	36.69
267.38	102.23
267.596	75.6
267.812	85.84
268.028	-20.65
268.244	1.88
268.46	26.45
268.676	-18.6
268.892	12.12
269.108	12.12
269.324	-49.32
269.54	-26.79
269.756	53.08
269.972	-45.23
270.188	-53.42
270.403	-41.13
270.619	44.88
270.835	-18.6
271.051	42.84
271.267	-49.32
271.483	53.08
271.698	10.07
271.914	71.51
272.13	-20.65
272.346	-34.99
272.562	8.02
272.777	42.84
272.993	3.93
273.209	5.97
273.425	59.22
273.64	-28.84
273.856	30.55
274.072	38.74
274.287	-2.22
274.503	34.64
274.719	89.94
274.934	53.08
275.15	-45.23
275.366	24.4
275.581	3.93
275.797	44.88
276.012	-47.27
276.228	-12.46
276.444	22.36
276.659	44.88
276.875	-57.51
277.09	36.69
277.306	-0.17
277.521	69.46
277.737	44.88
277.952	61.27
278.168	-4.27
278.383	46.93
278.599	67.41
278.814	87.89
279.03	40.79
279.245	118.61
279.461	44.88
279.676	61.27
279.892	-8.36
280.107	-57.51
280.322	-8.36
280.538	20.31
280.753	8.02
280.969	-16.55
281.184	-16.55
281.399	63.32
281.615	71.51
281.83	3.93
282.045	22.36
282.26	-20.65
282.476	14.17
282.691	102.23
282.906	-16.55
283.122	40.79
283.337	-12.46
283.552	-10.41
283.767	44.88
283.983	28.5
284.198	5.97
284.413	12.12
284.628	46.93
284.843	26.45
285.058	36.69
285.274	-8.36
285.489	-20.65
285.704	36.69
285.919	-39.08
286.134	12.12
286.349	36.69
286.564	48.98
286.779	57.17
286.995	26.45
287.21	8.02
287.425	61.27
287.64	46.93
287.855	-34.99
288.07	24.4
288.285	28.5
288.5	87.89
288.715	3.93
288.93	28.5
289.145	-6.31
289.36	-32.94
289.575	-32.94
289.79	79.7
290.004	-20.65
290.219	32.6
290.434	44.88
290.649	-28.84
290.864	24.4
291.079	40.79
291.294	10.07
291.509	75.6
291.724	63.32
291.938	32.6
292.153	20.31
292.368	-18.6
292.583	8.02
292.798	42.84
293.012	69.46
293.227	-4.27
293.442	22.36
293.657	61.27
293.871	126.8
294.086	-0.17
294.301	83.8
294.516	20.31
294.73	75.6
294.945	-24.75
295.16	36.69
295.374	108.37
295.589	83.8
295.804	-47.27
296.018	38.74
296.233	102.23
296.447	32.6
296.662	28.5
296.877	-2.22
297.091	102.23
297.306	32.6
297.52	-45.23
297.735	14.17
297.949	61.27
298.164	59.22
298.378	32.6
298.593	53.08
298.807	-69.8
299.022	53.08
299.236	36.69
299.451	30.55
299.665	-8.36
299.88	32.6
300.094	-8.36
300.309	-22.7
300.523	-4.27
300.737	44.88
300.952	8.02
301.166	57.17
301.381	-12.46
301.595	53.08
301.809	8.02
302.024	61.27
302.238	8.02
302.452	28.5
302.667	24.4
302.881	98.13
303.095	81.75
303.309	26.45
303.524	-45.23
303.738	-28.84
303.952	85.84
304.166	-28.84
304.381	-6.31
304.595	53.08
304.809	-41.13
305.023	53.08
305.237	-34.99
305.452	44.88
305.666	57.17
305.88	-10.41
306.094	63.32
306.308	53.08
306.522	65.36
306.736	79.7
306.95	32.6
307.164	-18.6
307.379	30.55
307.593	77.65
307.807	34.64
308.021	5.97
308.235	-41.13
308.449	20.31
308.663	-18.6
308.877	102.23
309.091	59.22
309.305	79.7
309.519	-94.38
309.733	28.5
309.947	-14.51
310.161	-12.46
310.374	26.45
310.588	61.27
310.802	1.88
311.016	20.31
311.23	3.93
311.444	-30.89
311.658	32.6
311.872	153.43
312.085	34.64
312.299	98.13
312.513	98.13
312.727	24.4
312.941	-16.55
313.154	79.7
313.368	38.74
313.582	-28.84
313.796	81.75
314.009	94.04
314.223	8.02
314.437	5.97
314.651	63.32
314.864	-18.6
315.078	16.21
315.292	5.97
315.505	69.46
315.719	44.88
315.933	5.97
316.146	-41.13
316.36	-37.03
316.573	53.08
316.787	85.84
317.001	-41.13
317.214	-22.7
317.428	94.04
317.641	-41.13
317.855	-43.18
318.068	30.55
318.282	46.93
318.495	110.42
318.709	22.36
318.922	3.93
319.136	5.97
319.349	-0.17
319.563	16.21
319.776	87.89
319.99	38.74
320.203	61.27
320.417	-39.08
320.63	44.88
320.843	79.7
321.057	-26.79
321.27	48.98
321.483	24.4
321.697	118.61
321.91	-10.41
322.124	65.36
322.337	26.45
322.55	61.27
322.763	46.93
322.977	22.36
323.19	28.5
323.403	-20.65
323.617	55.12
323.83	44.88
324.043	-41.13
324.256	61.27
324.469	8.02
324.683	-20.65
324.896	20.31
325.109	-26.79
325.322	-18.6
325.535	114.52
325.748	65.36
325.962	42.84
326.175	16.21
326.388	20.31
326.601	87.89
326.814	-24.75
327.027	44.88
327.24	57.17
327.453	-80.04
327.666	-41.13
327.879	55.12
328.092	81.75
328.305	69.46
328.518	59.22
328.731	102.23
328.944	53.08
329.157	63.32
329.37	85.84
329.583	18.26
329.796	94.04
330.009	-32.94
330.222	73.56
330.435	63.32
330.648	-8.36
330.861	143.19
331.073	63.32
331.286	-12.46
331.499	79.7
331.712	-34.99
331.925	98.13
332.138	-8.36
332.35	106.32
332.563	-12.46
332.776	34.64
332.989	-32.94
333.202	-8.36
333.414	46.93
333.627	48.98
333.84	12.12
334.053	44.88
334.265	20.31
334.478	44.88
334.691	-8.36
334.903	104.28
335.116	22.36
335.329	46.93
335.541	36.69
335.754	12.12
335.966	-39.08
336.179	61.27
336.392	-32.94
336.604	14.17
336.817	102.23
337.029	-6.31
337.242	128.85
337.454	102.23
337.667	71.51
337.88	106.32
338.092	110.42
338.305	36.69
338.517	12.12
338.729	3.93
338.942	14.17
339.154	-28.84
339.367	-45.23
339.579	36.69
339.792	-53.42
340.004	36.69
340.217	-18.6
340.429	61.27
340.641	-39.08
340.854	-20.65
341.066	46.93
341.278	94.04
341.491	128.85
341.703	44.88
341.915	77.65
342.128	30.55
342.34	73.56
342.552	-26.79
342.764	-30.89
342.977	28.5
343.189	-8.36
343.401	30.55
343.613	3.93
343.826	3.93
344.038	38.74
344.25	12.12
344.462	16.21
344.674	96.08
344.886	65.36
345.099	36.69
345.311	-26.79
345.523	14.17
345.735	-16.55
345.947	-65.71
346.159	57.17
346.371	89.94
346.583	28.5
346.795	65.36
347.007	1.88
347.219	-28.84
347.431	36.69
347.643	53.08
347.855	34.64
348.067	94.04
348.279	24.4
348.491	-12.46
348.703	-10.41
348.915	-41.13
349.127	24.4
349.339	-12.46
349.551	73.56
349.763	94.04
349.975	30.55
350.187	194.39
350.399	14.17
350.61	-6.31
350.822	3.93
351.034	61.27
351.246	57.17
351.458	110.42
351.669	28.5
351.881	30.55
352.093	16.21
352.305	44.88
352.517	71.51
352.728	75.6
352.94	57.17
353.152	14.17
353.363	3.93
353.575	110.42
353.787	87.89
353.999	77.65
354.21	128.85
354.422	38.74
354.633	53.08
354.845	63.32
355.057	67.41
355.268	38.74
355.48	53.08
355.692	46.93
355.903	-51.37
356.115	20.31
356.326	-28.84
356.538	65.36
356.749	77.65
356.961	87.89
357.172	69.46
357.384	71.51
357.595	171.86
357.807	-6.31
358.018	20.31
358.23	-61.61
358.441	85.84
358.653	71.51
358.864	16.21
359.075	61.27
359.287	16.21
359.498	48.98
359.709	87.89
359.921	10.07
360.132	87.89
360.344	-53.42
360.555	48.98
360.766	30.55
360.977	63.32
361.189	63.32
361.4	1.88
361.611	30.55
361.823	1.88
362.034	53.08
362.245	8.02
362.456	94.04
362.667	-51.37
362.879	36.69
363.09	28.5
363.301	77.65
363.512	16.21
363.723	-4.27
363.935	-10.41
364.146	67.41
364.357	42.84
364.568	79.7
364.779	-26.79
364.99	16.21
365.201	32.6
365.412	14.17
365.623	16.21
365.834	5.97
366.045	1.88
366.256	73.56
366.467	51.03
366.678	51.03
366.889	28.5
367.1	-4.27
367.311	44.88
367.522	-16.55
367.733	14.17
367.944	83.8
368.155	12.12
368.366	38.74
368.577	83.8
368.788	38.74
368.999	-20.65
369.209	-10.41
369.42	85.84
369.631	118.61
369.842	98.13
370.053	-10.41
370.264	79.7
370.474	-18.6
370.685	42.84
370.896	71.51
371.107	63.32
371.317	85.84
371.528	135
371.739	8.02
371.95	85.84
372.16	89.94
372.371	5.97
372.582	24.4
372.792	34.64
373.003	55.12
373.214	53.08
373.424	-14.51
373.635	-45.23
373.846	44.88
374.056	55.12
374.267	46.93
374.477	3.93
374.688	20.31
374.898	77.65
375.109	61.27
375.319	57.17
375.53	98.13
375.74	-18.6
375.951	-12.46
376.161	53.08
376.372	98.13
376.582	16.21
376.793	94.04
377.003	-2.22
377.214	67.41
377.424	81.75
377.635	69.46
377.845	-34.99
378.055	-24.75
378.266	20.31
378.476	36.69
378.686	38.74
378.897	5.97
379.107	3.93
379.317	40.79
379.528	63.32
379.738	94.04
379.948	20.31
380.158	110.42
380.369	-39.08
380.579	96.08
380.789	42.84
380.999	-8.36
381.21	38.74
381.42	102.23
381.63	40.79
381.84	79.7
382.05	36.69
382.261	20.31
382.471	36.69
382.681	71.51
382.891	110.42
383.101	69.46
383.311	-53.42
383.521	5.97
383.731	55.12
383.941	91.99
384.151	-8.36
384.361	48.98
384.571	-37.03
384.781	120.66
384.991	102.23
385.201	81.75
385.411	12.12
385.621	122.71
385.831	32.6
386.041	-43.18
386.251	38.74
386.461	44.88
386.671	77.65
386.881	96.08
387.091	59.22
387.301	-8.36
387.511	12.12
387.72	44.88
387.93	20.31
388.14	-4.27
388.35	8.02
388.56	85.84
388.769	114.52
388.979	106.32
389.189	28.5
389.399	122.71
389.609	12.12
389.818	61.27
390.028	46.93
390.238	57.17
390.447	24.4
390.657	75.6
390.867	46.93
391.076	-39.08
391.286	81.75
391.496	32.6
391.705	40.79
391.915	104.28
392.125	141.14
392.334	61.27
392.544	-8.36
392.753	81.75
392.963	-69.8
393.172	114.52
393.382	46.93
393.591	106.32
393.801	57.17
394.01	124.76
394.22	130.9
394.429	44.88
394.639	22.36
394.848	104.28
395.058	114.52
395.267	114.52
395.477	94.04
395.686	46.93
395.895	151.38
396.105	161.62
396.314	106.32
396.524	89.94
396.733	5.97
396.942	130.9
397.152	143.19
397.361	102.23
397.57	102.23
397.78	36.69
397.989	89.94
398.198	126.8
398.407	46.93
398.617	184.15
398.826	130.9
399.035	104.28
399.244	163.67
399.453	28.5
399.663	85.84
399.872	122.71
400.081	22.36
400.29	149.33
400.499	116.56
400.708	102.23
400.917	100.18
401.127	69.46
401.336	63.32
401.545	202.58
401.754	132.95
401.963	102.23
402.172	96.08
402.381	98.13
402.59	122.71
402.799	196.43
403.008	114.52
403.217	106.32
403.426	135
403.635	63.32
403.844	81.75
404.053	139.09
404.262	79.7
404.471	202.58
404.68	163.67
404.888	87.89
405.097	141.14
405.306	89.94
405.515	167.76
405.724	155.47
405.933	169.81
406.142	216.91
406.35	212.82
406.559	192.34
406.768	194.39
406.977	259.92
407.185	159.57
407.394	292.69
407.603	145.24
407.812	245.59
408.02	278.35
408.229	216.91
408.438	266.07
408.646	233.3
408.855	288.59
409.064	315.22
409.272	333.65
409.481	341.84
409.69	333.65
409.898	251.73
410.107	329.55
410.315	421.71
410.524	333.65
410.733	364.37
410.941	431.95
411.15	429.9
411.358	429.9
411.567	479.05
411.775	421.71
411.984	470.86
412.192	425.81
412.401	454.48
412.609	503.63
412.818	634.7
413.026	585.55
413.234	534.35
413.443	630.6
413.651	501.58
413.86	708.43
414.068	624.46
414.276	786.25
414.485	677.71
414.693	716.62
414.901	825.16
415.11	790.35
415.318	855.88
415.526	782.15
415.734	915.27
415.943	847.69
416.151	956.23
416.359	1027.91
416.567	982.85
416.776	1060.68
416.984	1054.53
417.192	1171.27
417.4	1087.3
417.608	1128.26
417.817	1064.77
418.025	1318.72
418.233	1421.12
418.441	1269.57
418.649	1357.63
418.857	1396.54
419.065	1552.19
419.273	1437.5
419.481	1576.77
419.689	1576.77
419.897	1683.26
420.105	1738.55
420.313	1761.08
420.521	1963.83
420.729	1855.29
420.937	1922.87
421.145	1924.92
421.353	2053.94
421.561	2191.16
421.769	2207.54
421.977	2316.08
422.185	2314.03
422.393	2488.11
422.601	2576.17
422.809	2637.61
423.017	2629.42
423.224	2668.33
423.432	3063.59
423.64	2862.89
423.848	3122.98
424.056	3063.59
424.263	3378.98
424.471	3141.41
424.679	3358.5
424.887	3403.55
425.094	3614.49
425.302	3520.29
425.51	3800.86
425.718	3854.11
425.925	4034.33
426.133	4099.86
426.341	4290.32
426.548	4429.59
426.756	4462.35
426.964	4476.69
427.171	4679.44
427.379	4878.09
427.586	4923.15
427.794	5086.98
428.001	5418.75
428.209	5535.49
428.417	5424.9
428.624	5871.36
428.832	5867.26
429.039	5754.62
429.247	5965.56
429.454	6452.98
429.662	6801.13
429.869	6401.78
430.076	6934.25
430.284	6610.67
430.491	6878.96
430.699	7190.25
430.906	7384.8
431.114	7384.8
431.321	7818.97
431.528	7919.32
431.736	8255.19
431.943	8732.37
432.15	8269.53
432.358	8453.84
432.565	8859.34
432.772	9043.66
432.979	9240.26
433.187	9563.84
433.394	9619.14
433.601	10227.39
433.808	10348.22
434.016	10217.15
434.223	10585.78
434.43	11103.92
434.637	11140.78
434.844	11683.49
435.052	11863.71
435.259	11759.27
435.466	12127.9
435.673	11914.91
435.88	12537.49
436.087	13287.05
436.294	13350.54
436.501	12869.26
436.708	13170.32
436.915	13553.29
437.122	14134.91
437.329	14253.69
437.537	14493.3
437.743	14755.44
437.95	14679.67
438.157	15654.5
438.364	15904.35
438.571	15959.65
438.778	16092.77
438.985	17825.35
439.192	16844.37
439.399	17641.03
439.606	17018.45
439.813	17860.16
440.02	19224.11
440.227	18746.94
440.433	18634.3
440.64	19330.61
440.847	18855.48
441.054	19492.4
441.261	20723.23
441.467	20559.39
441.674	20870.68
441.881	21648.91
442.088	21782.02
442.294	21306.9
442.501	21929.48
442.708	22203.91
442.914	23381.49
443.121	24145.38
443.328	23539.18
443.534	25286.1
443.741	24659.42
443.948	24186.34
444.154	26150.34
444.361	25857.48
444.568	26097.1
444.774	25974.22
444.981	26146.25
445.187	26820.03
445.394	28120.49
445.6	28190.12
445.807	30418.31
446.013	29285.78
446.22	29603.22
446.426	30463.36
446.633	30930.3
446.839	32357.74
447.046	30788.99
447.252	32583.01
447.459	32433.51
447.665	32378.22
447.871	33871.18
448.078	35579.19
448.284	33250.65
448.491	34475.34
448.697	35622.2
448.903	36640.04
449.11	36945.19
449.316	36109.61
449.522	36685.09
449.728	37584.15
449.935	38114.58
450.141	38020.37
450.347	38405.39
450.553	37610.78
450.76	37661.97
450.966	39169.28
451.172	38761.73
451.378	39523.58
451.584	38855.94
451.791	39462.14
451.997	39611.64
452.203	40342.77
452.409	40453.36
452.615	40002.8
452.821	38917.38
453.027	38149.39
453.233	40539.37
453.44	38579.46
453.646	39376.12
453.852	39148.8
454.058	39531.77
454.264	38296.84
454.47	39650.55
454.676	38593.8
454.882	39953.65
455.088	36134.19
455.294	36513.06
455.5	37328.16
455.705	37602.58
455.911	36175.15
456.117	35697.97
456.323	34903.36
456.529	33211.74
456.735	34270.54
456.941	33719.63
457.147	33205.59
457.352	32028.01
457.558	31798.64
457.764	31559.03
457.97	31073.66
458.176	30244.23
458.381	30502.28
458.587	28800.41
458.793	28849.57
458.999	27461.04
459.204	29416.85
459.41	28442.02
459.616	26408.39
459.821	26787.26
460.027	26609.09
460.233	25679.31
460.438	24731.1
460.644	25322.96
460.85	23846.38
461.055	23541.23
461.261	23270.9
461.466	21540.36
461.672	20948.5
461.878	22750.71
462.083	21098
462.289	20465.18
462.494	20254.24
462.7	19457.58
462.905	18748.98
463.111	19523.12
463.316	19564.07
463.522	19306.03
463.727	19217.97
463.932	19181.1
464.138	18880.05
464.343	18916.92
464.549	18288.19
464.754	18947.64
464.959	18943.54
465.165	18787.89
465.37	17751.62
465.575	17399.37
465.781	17931.84
465.986	18138.69
466.191	17354.32
466.397	17059.41
466.602	16320.09
466.807	17151.57
467.012	17071.7
467.218	16815.7
467.423	16461.4
467.628	16901.72
467.833	17372.75
468.038	16832.08
468.244	16447.07
468.449	16762.45
468.654	16399.96
468.859	16035.42
469.064	15900.26
469.269	15421.03
469.474	15273.58
469.679	15996.51
469.885	15464.04
470.09	15490.66
470.295	15398.51
470.5	15046.26
470.705	15234.67
470.91	14710.39
471.115	14861.94
471.32	15089.26
471.525	14886.51
471.73	14505.59
471.935	14386.81
472.139	13973.12
472.344	14202.49
472.549	13962.88
472.754	13909.63
472.959	13512.33
473.164	13297.29
473.369	13323.91
473.574	13561.48
473.778	13584.01
473.983	13151.88
474.188	13383.31
474.393	12496.53
474.598	12625.56
474.802	12521.11
475.007	12687
475.212	12478.1
475.417	11730.59
475.621	11898.53
475.826	11828.9
476.031	11683.49
476.235	11607.72
476.44	11898.53
476.645	11517.61
476.849	11529.89
477.054	11302.57
477.259	11009.71
477.463	11181.74
477.668	10950.32
477.872	11032.24
478.077	10854.06
478.282	10630.84
478.486	10477.24
478.691	10571.44
478.895	10618.55
479.1	10153.66
479.304	10483.38
479.509	9924.29
479.713	10309.3
479.918	9916.09
480.122	9918.14
480.326	10026.68
480.531	9940.67
480.735	9744.06
480.94	9742.02
481.144	10272.44
481.348	9811.65
481.553	9563.84
481.757	9553.6
481.961	9768.64
482.166	9696.96
482.37	9760.45
482.574	9455.3
482.778	9533.12
482.983	9672.39
483.187	9731.78
483.391	9572.04
483.595	9510.6
483.8	9488.07
484.004	9500.36
484.208	9535.17
484.412	9680.58
484.616	9602.75
484.821	9535.17
485.025	9359.05
485.229	9504.45
485.433	9201.35
485.637	9522.88
485.841	9258.7
486.045	9293.51
486.249	9363.14
486.453	9273.03
486.657	9379.53
486.861	9563.84
487.065	9332.42
487.269	9555.65
487.473	9275.08
487.677	9494.21
487.881	9440.97
488.085	9238.22
488.289	9361.09
488.493	9133.77
488.697	9524.93
488.901	9369.29
489.105	9080.52
489.309	9463.49
489.512	9496.26
489.716	9567.94
489.92	9361.09
490.124	9375.43
490.328	9760.45
490.531	9465.54
490.735	9522.88
490.939	9490.12
491.143	9469.64
491.346	9520.84
491.55	9668.29
491.754	9500.36
491.958	9842.37
492.161	9582.28
492.365	9719.49
492.569	9696.96
492.772	9772.74
492.976	9707.2
493.18	9985.72
493.383	9787.07
493.587	10018.49
493.79	10223.29
493.994	9889.47
494.197	10194.62
494.401	10239.67
494.605	10262.2
494.808	10180.28
495.012	10256.06
495.215	10401.46
495.419	10606.26
495.622	10415.8
495.825	10565.3
496.029	10565.3
496.232	10610.36
496.436	10739.38
496.639	10983.09
496.843	10935.98
497.046	10985.13
497.249	11095.72
497.453	11224.75
497.656	11402.92
497.859	11288.23
498.063	11482.79
498.266	11759.27
498.469	11525.8
498.673	11796.13
498.876	11656.87
499.079	11853.47
499.282	11921.06
499.485	12310.17
499.689	12248.73
499.892	12422.81
500.095	12373.66
500.298	12811.92
500.501	12586.65
500.705	12752.53
500.908	13020.81
501.111	13262.47
501.314	13371.02
501.517	13446.79
501.72	13565.57
501.923	13452.94
502.126	13901.44
502.329	13962.88
502.532	14081.66
502.735	14134.91
502.938	14364.28
503.141	14372.47
503.344	14556.79
503.547	14648.95
503.75	14571.13
503.953	15165.04
504.156	15052.4
504.359	15222.38
504.562	15437.42
504.765	15748.71
504.968	15734.37
505.17	15945.31
505.373	16004.71
505.576	16125.54
505.779	16191.07
505.982	16223.84
506.185	16703.06
506.387	16705.11
506.59	16987.73
506.793	17206.86
506.996	17487.43
507.198	17899.08
507.401	17569.35
507.604	17958.47
507.807	18298.43
508.009	18349.63
508.212	18314.81
508.415	18708.02
508.617	18683.45
508.82	18841.14
509.022	18734.65
509.225	19279.41
509.428	19893.8
509.63	19951.14
509.833	19834.41
510.035	20176.42
510.238	20418.08
510.44	20303.39
510.643	20788.76
510.845	20854.3
511.048	21202.45
511.25	21280.27
511.453	21147.15
511.655	22091.27
511.858	21517.84
512.06	21868.04
512.262	22070.79
512.465	22156.8
512.667	22611.45
512.87	22926.84
513.072	22844.92
513.274	23064.05
513.477	23297.52
513.679	23778.79
513.881	23963.11
514.084	24292.83
514.286	23698.92
514.488	24090.09
514.69	25058.77
514.893	24948.18
515.095	25013.72
515.297	25243.09
515.499	25445.84
515.701	25955.79
515.904	26146.25
516.106	26023.37
516.308	26555.84
516.51	26543.55
516.712	26901.95
516.914	27327.92
517.116	27528.63
517.318	27512.24
517.52	27375.03
517.722	28155.3
517.925	27940.27
518.127	28138.92
518.329	28374.44
518.531	28720.54
518.733	29140.38
518.935	28724.64
519.136	28884.38
519.338	29533.59
519.54	29586.83
519.742	29863.31
519.944	29898.13
520.146	30434.69
520.348	30948.73
520.55	30379.4
520.752	30420.36
520.954	31122.81
521.155	30829.95
521.357	31116.67
521.559	31917.42
521.761	31950.19
521.963	31972.72
522.164	32071.02
522.366	31774.06
522.568	32165.23
522.77	32335.21
522.971	32712.03
523.173	32421.22
523.375	32906.59
523.576	32773.47
523.778	32623.97
523.98	33060.19
524.181	33267.03
524.383	33181.02
524.584	33609.04
524.786	33561.94
524.988	33303.9
525.189	33578.32
525.391	33963.34
525.592	33895.76
525.794	33729.87
525.995	33922.38
526.197	34219.34
526.398	34114.89
526.6	34528.58
526.801	34651.46
527.003	34432.33
527.204	34198.86
527.406	34338.12
527.607	34493.77
527.808	34454.86
528.01	34006.35
528.211	34225.48
528.412	35142.97
528.614	34657.6
528.815	34794.82
529.016	34688.32
529.218	34493.77
529.419	34594.12
529.62	34301.26
529.822	34090.32
530.023	34028.88
530.224	34284.87
530.425	34628.93
530.626	33828.18
530.828	33910.1
531.029	34377.03
531.23	33977.68
531.431	34071.89
531.632	34092.37
531.833	34233.67
532.035	34055.5
532.236	34411.85
532.437	34319.69
532.638	33942.86
532.839	33963.34
533.04	34219.34
533.241	33541.46
533.442	34669.89
533.643	33842.51
533.844	33809.75
534.045	34233.67
534.246	33307.99
534.447	33813.84
534.648	33551.7
534.849	34032.97
535.05	33447.25
535.251	33629.52
535.451	33494.36
535.652	33584.47
535.853	33144.16
536.054	33391.96
536.255	33279.32
536.456	33099.1
536.657	33586.52
536.857	33183.07
537.058	33013.09
537.259	33404.25
537.46	32628.07
537.66	33160.54
537.861	33029.47
538.062	32798.05
538.263	32681.31
538.463	32619.88
538.664	33191.26
538.865	32816.48
539.065	32666.98
539.266	32347.5
539.466	32685.41
539.667	32075.12
539.868	33049.95
540.068	32658.79
540.269	32525.67
540.469	32816.48
540.67	32320.87
540.87	32484.71
541.071	32122.22
541.271	32484.71
541.472	32275.82
541.672	32146.79
541.873	32179.56
542.073	31958.38
542.274	32191.85
542.474	32290.15
542.675	31939.95
542.875	32341.35
543.075	32116.08
543.276	31700.34
543.476	31849.84
543.676	32173.42
543.877	32232.81
544.077	32103.79
544.277	31739.25
544.478	31614.32
544.678	31989.1
544.878	32142.7
545.078	32028.01
545.279	31511.92
545.479	31669.62
545.679	31726.96
545.879	31903.09
546.079	32114.03
546.28	31677.81
546.48	31655.28
546.68	32007.53
546.88	31892.85
547.08	31798.64
547.28	31995.25
547.48	31561.08
547.68	32046.44
547.88	31772.02
548.081	31870.32
548.281	31626.61
548.481	31866.22
548.681	32241
548.881	32005.48
549.081	32238.95
549.28	31831.41
549.48	31800.69
549.68	31561.08
549.88	31853.94
550.08	31554.93
550.28	31788.4
550.48	31993.2
550.68	31722.87
550.88	31817.07
551.08	31860.08
551.279	31925.61
551.479	31491.44
551.679	32341.35
551.879	32025.96
552.079	32220.52
552.278	31890.8
552.478	32208.23
552.678	32185.71
552.878	32521.57
553.077	32128.36
553.277	32109.93
553.477	32308.58
553.676	31978.86
553.876	32214.38
554.076	32277.86
554.275	31835.5
554.475	31962.48
554.674	32064.88
554.874	32396.65
555.074	31851.89
555.273	32331.11
555.473	32707.94
555.672	32288.1
555.872	32697.7
556.071	32390.5
556.271	32511.33
556.47	32255.34
556.67	32189.8
556.869	32386.41
557.068	32808.29
557.268	32124.27
557.467	32406.89
557.667	32484.71
557.866	32630.12
558.065	32580.96
558.265	32372.07
558.464	32449.89
558.663	32679.27
558.863	32183.66
559.062	32742.75
559.261	32286.06
559.461	32898.4
559.66	31980.91
559.859	32548.2
560.058	32648.55
560.258	32535.91
560.457	32226.67
560.656	32890.21
560.855	32470.37
561.054	32626.02
561.253	32488.81
561.453	32820.58
561.652	32488.81
561.851	32859.49
562.05	32859.49
562.249	32238.95
562.448	32531.81
562.647	32523.62
562.846	32671.07
563.045	32554.34
563.244	31853.94
563.443	32925.02
563.642	32333.16
563.841	32329.06
564.04	32757.09
564.239	32724.32
564.438	32208.23
564.637	32372.07
564.836	32623.97
565.035	32206.19
565.234	32355.69
565.432	32173.42
565.631	32079.21
565.83	31989.1
566.029	32439.65
566.228	31980.91
566.427	31806.83
566.625	31642.99
566.824	31546.74
567.023	32013.68
567.222	31606.13
567.42	32013.68
567.619	31647.09
567.818	31774.06
568.016	31667.57
568.215	31837.55
568.414	31430.01
568.612	31696.24
568.811	31350.13
569.01	31368.57
569.208	30735.74
569.407	31452.53
569.605	31085.95
569.804	31542.64
570.002	30645.63
570.201	31114.62
570.4	31061.37
570.598	30745.98
570.797	30453.12
570.995	30784.9
571.193	30127.5
571.392	30879.1
571.59	30399.88
571.789	30197.13
571.987	30137.74
572.186	30160.27
572.384	29867.41
572.582	29889.93
572.781	29912.46
572.979	29916.56
573.177	29865.36
573.376	29685.14
573.574	29463.96
573.772	29664.66
573.971	29478.29
574.169	29423
574.367	29506.96
574.565	29359.51
574.763	29087.13
574.962	28919.2
575.16	28845.47
575.358	29058.46
575.556	28452.26
575.754	28994.97
575.952	28618.14
576.151	28804.51
576.349	28439.97
576.547	28378.53
576.745	28085.67
576.943	28458.4
577.141	28151.21
577.339	28198.31
577.537	28415.4
577.735	28122.54
577.933	28011.95
578.131	27831.72
578.329	27610.54
578.527	27620.78
578.725	27592.11
578.923	27807.15
579.121	27358.64
579.319	27381.17
579.516	27467.19
579.714	27336.12
579.912	27002.3
580.11	27280.82
580.308	27215.29
580.506	27010.49
580.704	26916.28
580.901	26650.05
581.099	27016.63
581.297	26525.12
581.495	26437.06
581.692	26600.9
581.89	26662.33
582.088	26654.14
582.285	26140.1
582.483	26514.88
582.681	26187.21
582.878	26201.54
583.076	25943.5
583.274	26238.4
583.471	25734.6
583.669	26105.29
583.866	25519.57
584.064	25877.96
584.262	25431.51
584.459	25527.76
584.657	25413.07
584.854	25750.99
585.052	25193.94
585.249	25517.52
585.447	25656.78
585.644	25140.69
585.841	25112.02
586.039	25468.37
586.236	24995.29
586.434	24899.03
586.631	24790.49
586.828	25114.07
587.026	24997.34
587.223	24606.17
587.42	24821.21
587.618	25013.72
587.815	24397.28
588.012	24280.55
588.21	24489.44
588.407	24819.16
588.604	24618.46
588.801	24122.85
588.999	24045.03
589.196	24307.17
589.393	24464.86
589.59	24016.36
589.787	23911.91
589.984	24020.45
590.182	23901.67
590.379	24176.1
590.576	24147.43
590.773	24083.94
590.97	23690.73
591.167	24155.62
591.364	23713.26
591.561	23836.14
591.758	23655.92
591.955	23444.98
592.152	23827.95
592.349	23508.46
592.546	23645.68
592.743	23801.32
592.94	23373.3
593.137	23629.29
593.334	23621.1
593.531	23424.5
593.727	23442.93
593.924	23625.2
594.121	23107.06
594.318	23375.34
594.515	23031.29
594.712	23227.89
594.908	23016.95
595.105	23088.63
595.302	22709.75
595.499	23358.96
595.696	22975.99
595.892	23027.19
596.089	23221.75
596.286	23090.68
596.482	23111.16
596.679	23139.83
596.876	22908.41
597.072	23039.48
597.269	23195.12
597.466	22767.1
597.662	22900.22
597.859	23172.6
598.055	23109.11
598.252	22971.89
598.448	22732.28
598.645	22879.74
598.841	23186.93
599.038	23164.4
599.234	22990.33
599.431	22965.75
599.627	22867.45
599.824	23346.67
600.02	22871.54
600.217	22930.94
600.413	22912.5
600.609	22742.52
600.806	23064.05
601.002	22853.11
601.198	22722.04
601.395	23309.81
601.591	23158.26
601.787	23502.32
601.984	23188.98
602.18	23412.21
602.376	23279.09
602.572	23141.88
602.769	23408.11
602.965	23088.63
603.161	23008.76
603.357	23289.33
603.553	23293.43
603.75	23393.78
603.946	23553.52
604.142	23490.03
604.338	23434.74
604.534	23559.66
604.73	23510.51
604.926	23514.61
605.122	23703.02
605.318	23703.02
605.514	23621.1
605.71	23586.29
605.906	23692.78
606.102	23733.74
606.298	23940.58
606.494	23858.67
606.69	23911.91
606.886	24053.22
607.082	23850.47
607.278	24174.05
607.474	23938.54
607.67	24421.86
607.866	24036.84
608.062	24448.48
608.257	23819.75
608.453	24135.14
608.649	24329.7
608.845	24215.01
609.041	24231.4
609.236	24567.26
609.432	24356.32
609.628	24477.15
609.824	24446.43
610.019	24446.43
610.215	24284.64
610.411	24729.05
610.606	24651.23
610.802	24653.28
610.998	24743.39
611.193	24661.47
611.389	24978.9
611.584	24710.62
611.78	24831.45
611.976	25042.39
612.171	25046.49
612.367	25138.65
612.562	25032.15
612.758	24684
612.953	24843.74
613.149	25124.31
613.344	25241.04
613.539	25308.63
613.735	25097.69
613.93	25253.33
614.126	24966.62
614.321	25163.22
614.517	25032.15
614.712	25091.54
614.907	25345.49
615.103	25220.56
615.298	25116.12
615.493	25538
615.688	25140.69
615.884	25656.78
616.079	24890.84
616.274	25505.23
616.47	25275.86
616.665	25466.32
616.86	25202.13
617.055	25155.03
617.25	25376.21
617.445	25677.26
617.641	24878.55
617.836	25370.07
618.031	24733.15
618.226	25361.87
618.421	25224.66
618.616	25234.9
618.811	24956.38
619.006	25095.64
619.201	24538.59
619.396	24892.89
619.591	24727
619.786	25021.91
619.981	24534.49
620.176	24653.28
620.371	24376.8
620.566	24618.46
620.761	24428
620.956	24731.1
621.151	24464.86
621.346	24266.21
621.541	24047.08
621.735	24188.39
621.93	23696.88
622.125	23811.56
622.32	23686.64
622.515	23832.04
622.709	23610.86
622.904	23606.77
623.099	23309.81
623.294	23533.04
623.488	23053.81
623.683	23105.01
623.878	22916.6
624.072	23064.05
624.267	23049.72
624.462	22679.04
624.656	22431.23
624.851	22621.69
625.046	22476.29
625.24	22531.58
625.435	22171.14
625.629	22169.09
625.824	21802.5
626.018	22181.38
626.213	21206.55
626.407	21806.6
626.602	21548.56
626.796	21544.46
626.991	21835.27
627.185	21429.77
627.38	21181.97
627.574	21104.15
627.768	21319.18
627.963	20850.2
628.157	20794.9
628.352	20997.65
628.546	20614.68
628.74	20805.14
628.935	20456.99
629.129	20282.91
629.323	20192.8
629.517	20217.38
629.712	20147.75
629.906	19856.93
630.1	19811.88
630.294	19967.52
630.489	19611.18
630.683	19779.11
630.877	19277.36
631.071	19592.75
631.265	19390
631.459	19414.57
631.653	19039.79
631.848	19342.89
632.042	18896.44
632.236	18945.59
632.43	18929.2
632.624	18697.78
632.818	18646.58
633.012	18521.66
633.206	18269.76
633.4	18337.34
633.594	18157.12
633.788	18116.16
633.982	18079.3
634.176	18079.3
634.369	17804.87
634.563	17776.2
634.757	17696.33
634.951	17901.12
635.145	17675.85
635.339	17577.55
635.533	17364.56
635.726	17081.94
635.92	17405.52
636.114	17278.54
636.308	16838.23
636.501	16764.5
636.695	17071.7
636.889	16563.8
637.083	16715.35
637.276	16205.41
637.47	16449.11
637.664	16389.72
637.857	16336.48
638.051	16279.13
638.244	16412.25
638.438	16107.1
638.632	15902.31
638.825	15664.74
639.019	15617.64
639.212	15601.26
639.406	15531.62
639.599	15210.09
639.793	15629.93
639.986	14890.61
640.18	15220.33
640.373	15216.24
640.567	15052.4
640.76	15142.51
640.954	14708.34
641.147	14536.31
641.34	14724.72
641.534	14773.88
641.727	14681.72
641.92	14540.41
642.114	14216.83
642.307	13921.92
642.5	14231.16
642.694	13958.78
642.887	13823.62
643.08	14087.81
643.273	13485.7
643.467	13686.4
643.66	13493.9
643.853	13377.16
644.046	13401.74
644.239	13424.26
644.432	13375.11
644.626	13115.02
644.819	12951.18
645.012	12859.03
645.205	13127.31
645.398	12867.22
645.591	12785.3
645.784	12914.32
645.977	12576.41
646.17	12639.89
646.363	12422.81
646.556	12342.94
646.749	12428.95
646.942	12318.36
647.135	12234.39
647.328	12236.44
647.521	11849.38
647.714	11759.27
647.907	11771.55
648.099	11873.95
648.292	11988.64
648.485	11832.99
648.678	11476.65
648.871	11638.44
649.064	11392.68
649.256	11640.48
649.449	11318.95
649.642	11359.91
649.835	11153.07
650.027	11167.4
650.22	11089.58
650.413	10956.46
650.605	10999.47
650.798	11056.81
650.991	10688.18
651.183	10788.53
651.376	10587.83
651.568	10636.98
651.761	10532.53
651.954	10321.59
652.146	10493.62
652.339	10309.3
652.531	10305.21
652.724	10317.5
652.916	10059.45
653.109	10112.7
653.301	10090.17
653.494	9955.01
653.686	10073.79
653.879	10122.94
654.071	9928.38
654.263	9555.65
654.456	9621.19
654.648	9723.58
654.84	9563.84
655.033	9674.43
655.225	9459.4
655.417	9449.16
655.61	9686.72
655.802	9381.57
655.994	9434.82
656.186	9408.2
656.379	9123.53
656.571	9277.13
656.763	9133.77
656.955	9285.32
657.148	9189.07
657.34	9047.76
657.532	8990.41
657.724	8867.53
657.916	8789.71
658.108	8888.01
658.3	8953.55
658.492	8791.76
658.684	8425.17
658.876	8584.91
659.068	8656.59
659.26	8449.75
659.452	8642.26
659.644	8144.6
659.836	8328.92
660.028	8312.53
660.22	8224.47
660.412	8310.49
660.604	8140.51
660.796	8396.5
660.988	8165.08
661.18	8007.39
661.372	8009.44
661.563	8060.63
661.755	7847.65
661.947	7982.81
662.139	7855.84
662.331	7685.86
662.522	7737.06
662.714	7605.99
662.906	7642.85
663.097	7689.95
663.289	7593.7
663.481	7345.89
663.673	7468.77
663.864	7395.04
664.056	7364.32
664.247	7300.84
664.439	7294.69
664.631	7356.13
664.822	7163.62
665.014	7083.75
665.205	7057.13
665.397	7110.38
665.588	7126.76
665.78	6944.49
665.971	7077.61
666.163	7071.47
666.354	6964.97
666.546	6924.01
666.737	6790.89
666.929	6737.65
667.12	7057.13
667.311	6500.08
667.503	6762.22
667.694	6823.66
667.885	6520.56
668.077	6729.45
668.268	6567.67
668.459	6655.73
668.651	6594.29
668.842	6600.43
669.033	6547.19
669.224	6262.52
669.416	6463.22
669.607	6280.95
669.798	6340.34
669.989	6510.32
670.18	6336.24
670.371	6291.19
670.563	6100.73
670.754	6303.48
670.945	6424.31
671.136	6340.34
671.327	6041.34
671.518	6053.62
671.709	6102.78
671.9	6094.58
672.091	6151.93
672.282	6008.57
672.473	6074.1
672.664	5965.56
672.855	5994.23
673.046	5893.88
673.237	5814.01
673.428	5840.64
673.619	5844.73
673.809	5787.39
674	6016.76
674.191	5861.12
674.382	5795.58
674.573	5781.25
674.764	5697.28
674.954	5725.95
675.145	5897.98
675.336	5658.37
675.527	5863.16
675.717	5828.35
675.908	5484.29
676.099	5713.66
676.289	5539.58
676.48	5551.87
676.671	5562.11
676.861	5625.6
677.052	5562.11
677.243	5412.61
677.433	5615.36
677.624	5852.92
677.814	5529.34
678.005	5539.58
678.195	5472
678.386	5404.42
678.576	5451.52
678.767	5553.92
678.957	5371.65
679.148	5519.11
679.338	5684.99
679.529	5578.5
679.719	5461.76
679.909	5510.91
680.1	5564.16
680.29	5453.57
680.481	5549.82
680.671	5558.02
680.861	5408.51
681.052	5476.1
681.242	5406.47
681.432	5478.15
681.622	5369.6
681.813	5515.01
682.003	5418.75
682.193	5406.47
682.383	5426.95
682.573	5322.5
682.764	5545.73
682.954	5406.47
683.144	5476.1
683.334	5375.75
683.524	5402.37
683.714	5379.84
683.904	5345.03
684.094	5336.84
684.284	5404.42
684.474	5476.1
684.664	5385.99
684.854	5246.73
685.044	5224.2
685.234	5316.36
685.424	5183.24
685.614	5383.94
685.804	5228.29
685.994	5476.1
686.184	5453.57
686.374	5152.52
686.564	5281.54
686.753	5244.68
686.943	5021.45
687.133	5168.9
687.323	5086.98
687.513	5183.24
687.702	4990.73
687.892	5052.17
688.082	5050.12
688.272	5132.04
688.461	5191.43
688.651	5099.27
688.841	5074.7
689.03	5060.36
689.22	5050.12
689.41	5000.97
689.599	5048.07
689.789	4996.87
689.979	5175.05
690.168	5031.69
690.358	4931.34
690.547	5043.98
690.737	5056.26
690.926	5076.74
691.116	4960.01
691.305	5005.06
691.495	5078.79
691.684	4839.18
691.874	4892.43
692.063	4994.83
692.252	4859.66
692.442	5041.93
692.631	4886.28
692.82	4712.21
693.01	4775.69
693.199	4890.38
693.388	4728.59
693.578	4962.06
693.767	4691.73
693.956	4767.5
694.146	4796.17
694.335	4722.45
694.524	4771.6
694.713	4830.99
694.902	4775.69
695.092	4681.49
695.281	4585.23
695.47	4828.94
695.659	4671.25
695.848	4597.52
696.037	4593.42
696.226	4550.42
696.415	4540.18
696.604	4607.76
696.793	4699.92
696.982	4609.81
697.171	4644.62
697.36	4650.77
697.549	4663.05
697.738	4349.71
697.927	4585.23
698.116	4574.99
698.305	4620.05
698.494	4562.7
698.683	4517.65
698.872	4648.72
699.061	4550.42
699.25	4570.9
699.438	4431.63
699.627	4443.92
699.816	4536.08
700.005	4314.9
700.193	4474.64
700.382	4378.39
700.571	4312.85
700.76	4439.83
700.948	4519.7
701.137	4441.87
701.326	4370.19
701.514	4398.87
701.703	4435.73
701.892	4251.41
702.08	4396.82
702.269	4208.41
702.457	4355.86
702.646	4267.8
702.834	4202.26
703.023	4151.06
703.212	4411.15
703.4	4165.4
703.589	4206.36
703.777	4300.56
703.965	4128.53
704.154	4124.44
704.342	4052.76
704.531	4058.9
704.719	4198.17
704.907	4292.37
705.096	4153.11
705.284	4024.09
705.472	4036.38
705.661	3946.27
705.849	4038.42
706.037	4071.19
706.226	4140.82
706.414	3997.46
706.602	3956.5
706.79	3981.08
706.979	4013.85
707.167	3903.26
707.355	3948.31
707.543	3925.79
707.731	3886.87
707.919	3899.16
708.107	3960.6
708.296	3786.52
708.484	3852.06
708.672	3858.2
708.86	3958.55
709.048	3821.34
709.236	3790.62
709.424	3909.4
709.612	3825.43
709.8	3698.46
709.988	3714.84
710.176	3716.89
710.364	3911.45
710.551	3626.78
710.739	3692.32
710.927	3741.47
711.115	3677.98
711.303	3698.46
711.491	3616.54
711.679	3686.17
711.866	3641.12
712.054	3702.56
712.242	3571.49
712.43	3634.97
712.617	3600.16
712.805	3618.59
712.993	3632.93
713.181	3516.19
713.368	3571.49
713.556	3585.82
713.744	3421.99
713.931	3583.77
714.119	3444.51
714.306	3571.49
714.494	3499.81
714.682	3649.31
714.869	3295.01
715.057	3381.03
715.244	3426.08
715.432	3493.66
715.619	3481.38
715.807	3315.49
715.994	3444.51
716.182	3348.26
716.369	3368.74
716.556	3448.61
716.744	3223.33
716.931	3254.05
717.119	3256.1
717.306	3387.17
717.493	3317.54
717.681	3393.31
717.868	3227.43
718.055	3188.52
718.242	3252
718.43	3204.9
718.617	3104.55
718.804	3217.19
718.991	3303.2
719.179	3069.73
719.366	3075.88
719.553	3186.47
719.74	3292.96
719.927	3135.27
720.114	3137.32
720.301	3034.92
720.488	3079.97
720.676	3047.21
720.863	2940.71
721.05	3165.99
721.237	3020.58
721.424	3096.36
721.611	3022.63
721.798	2996.01
721.985	3004.2
722.172	3008.3
722.358	2879.27
722.545	3030.82
722.732	3004.2
722.919	3088.17
723.106	2887.47
723.293	2897.71
723.48	2879.27
723.667	2860.84
723.853	2961.19
724.04	3006.25
724.227	2993.96
724.414	2912.04
724.6	2744.11
724.787	2916.14
724.974	2924.33
725.161	2871.08
725.347	2875.18
725.534	2903.85
725.72	2842.41
725.907	2846.51
726.094	2809.64
726.28	2924.33
726.467	2785.07
726.653	2625.33
726.84	2830.12
727.027	2723.63
727.213	2793.26
727.4	2830.12
727.586	2754.35
727.773	2821.93
727.959	2791.21
728.145	2707.24
728.332	2731.82
728.518	2637.61
728.705	2535.21
728.891	2635.57
729.077	2723.63
729.264	2651.95
729.45	2666.28
729.636	2733.87
729.823	2654
730.009	2703.15
730.195	2649.9
730.382	2625.33
730.568	2668.33
730.754	2535.21
730.94	2570.03
731.126	2762.54
731.313	2535.21
731.499	2551.6
731.685	2479.92
731.871	2649.9
732.057	2588.46
732.243	2647.85
732.429	2565.93
732.615	2604.85
732.801	2371.38
732.987	2422.58
733.173	2629.42
733.359	2559.79
733.545	2504.5
733.731	2453.3
733.917	2367.28
734.103	2578.22
734.289	2471.73
734.475	2371.38
734.661	2606.89
734.847	2496.3
735.033	2424.62
735.219	2432.82
735.404	2350.9
735.59	2400.05
735.776	2436.91
735.962	2320.18
736.148	2330.42
736.333	2410.29
736.519	2307.89
736.705	2357.04
736.89	2283.31
737.076	2373.43
737.262	2318.13
737.447	2328.37
737.633	2311.99
737.819	2273.07
738.004	2375.47
738.19	2463.54
738.375	2209.59
738.561	2354.99
738.747	2336.56
738.932	2160.44
739.118	2322.23
739.303	2316.08
739.489	2174.77
739.674	2125.62
739.859	2305.84
740.045	2228.02
740.23	2316.08
740.416	2174.77
740.601	2203.44
740.786	2150.2
740.972	2158.39
741.157	2176.82
741.342	2187.06
741.528	2090.81
741.713	2158.39
741.898	2088.76
742.084	2084.66
742.269	2035.51
742.454	2135.86
742.639	2203.44
742.824	2152.24
743.01	2027.32
743.195	2133.81
743.38	1998.65
743.565	2051.89
743.75	2092.85
743.935	2039.61
744.12	2117.43
744.305	1963.83
744.49	1980.22
744.675	1984.31
744.86	1808.19
745.045	1961.78
745.23	2008.89
745.415	1978.17
745.6	1898.3
745.785	1904.44
745.97	1965.88
746.155	1822.52
746.34	1912.63
746.525	1814.33
746.71	1900.34
746.895	1789.75
747.079	1871.67
747.264	1732.41
747.449	1685.31
747.634	1804.09
747.819	1787.71
748.003	1619.77
748.188	1783.61
748.373	1732.41
748.557	1740.6
748.742	1673.02
748.927	1707.84
749.111	1732.41
749.296	1544
749.481	1607.48
749.665	1666.88
749.85	1707.84
750.034	1587.01
750.219	1679.16
750.404	1576.77
750.588	1675.07
750.773	1603.39
750.957	1589.05
751.141	1609.53
751.326	1621.82
751.51	1484.61
751.695	1445.7
751.879	1570.62
752.064	1568.57
752.248	1453.89
752.432	1541.95
752.617	1554.24
752.801	1601.34
752.985	1496.89
753.17	1472.32
753.354	1470.27
753.538	1455.94
753.722	1423.17
753.907	1412.93
754.091	1402.69
754.275	1396.54
754.459	1478.46
754.643	1216.32
754.828	1425.22
755.012	1371.97
755.196	1281.86
755.38	1396.54
755.564	1404.74
755.748	1306.43
755.932	1318.72
756.116	1273.67
756.3	1298.24
756.484	1234.75
756.668	1259.33
756.852	1161.03
757.036	1296.19
757.22	1232.71
757.404	1175.36
757.588	1271.62
757.772	1204.03
757.956	1167.17
758.14	1144.64
758.323	1187.65
758.507	1193.8
758.691	1169.22
758.875	1193.8
759.059	1173.32
759.242	1148.74
759.426	1007.43
759.61	1165.12
759.794	1083.2
759.977	1126.21
760.161	1316.67
760.345	1085.25
760.528	1150.79
760.712	1113.92
760.895	1103.68
761.079	1005.38
761.263	1105.73
761.446	1161.03
761.63	1036.1
761.813	1097.54
761.997	995.14
762.18	1091.4
762.364	1068.87
762.547	888.65
762.731	1060.68
762.914	993.09
763.098	1052.49
763.281	1040.2
763.464	913.22
763.648	989
763.831	1056.58
764.015	1089.35
764.198	1109.83
764.381	1062.73
764.564	921.42
764.748	989
764.931	923.46
765.114	956.23
765.297	986.95
765.481	884.55
765.664	956.23
765.847	823.11
766.03	989
766.213	800.59
766.397	927.56
766.58	917.32
766.763	913.22
766.946	941.89
767.129	907.08
767.312	964.42
767.495	898.89
767.678	868.17
767.861	880.46
768.044	927.56
768.227	937.8
768.41	831.3
768.593	880.46
768.776	898.89
768.959	864.07
769.142	945.99
769.324	782.15
769.507	816.97
769.69	771.91
769.873	888.65
770.056	989
770.239	808.78
770.421	884.55
770.604	907.08
770.787	872.26
770.97	831.3
771.152	880.46
771.335	839.5
771.518	798.54
771.7	831.3
771.883	866.12
772.066	745.29
772.248	872.26
772.431	733
772.613	827.21
772.796	786.25
772.978	802.63
773.161	808.78
773.343	761.67
773.526	659.28
773.708	765.77
773.891	716.62
774.073	749.39
774.256	749.39
774.438	855.88
774.621	665.42
774.803	782.15
774.985	790.35
775.168	757.58
775.35	653.13
775.532	728.91
775.715	685.9
775.897	720.71
776.079	728.91
776.261	710.47
776.444	704.33
776.626	685.9
776.808	642.89
776.99	646.99
777.173	649.04
777.355	671.56
777.537	630.6
777.719	581.45
777.901	667.47
778.083	624.46
778.265	542.54
778.447	692.04
778.629	642.89
778.811	577.36
778.993	552.78
779.175	640.84
779.357	671.56
779.539	581.45
779.721	630.6
779.903	544.59
780.085	534.35
780.267	669.52
780.449	511.82
780.631	548.68
780.812	522.06
780.994	520.01
781.176	497.49
781.358	573.26
781.54	593.74
781.721	560.97
781.903	571.21
782.085	552.78
782.267	552.78
782.448	548.68
782.63	520.01
782.812	489.29
782.993	462.67
783.175	474.96
783.357	509.77
783.538	536.4
783.72	380.75
783.901	472.91
784.083	534.35
784.264	503.63
784.446	347.98
784.627	503.63
784.809	530.25
784.99	450.38
785.172	429.9
785.353	487.25
785.535	491.34
785.716	456.53
785.897	456.53
786.079	401.23
786.26	419.66
786.441	493.39
786.623	397.14
786.804	462.67
786.985	409.42
787.167	360.27
787.348	374.61
787.529	378.7
787.71	417.61
787.891	462.67
788.073	431.95
788.254	331.6
788.435	384.85
788.616	331.6
788.797	380.75
788.978	399.18
789.159	354.13
789.34	388.94
789.522	364.37
789.703	421.71
789.884	335.7
790.065	339.79
790.246	448.33
790.427	368.46
790.607	409.42
790.788	317.26
790.969	374.61
791.15	368.46
791.331	388.94
791.512	366.42
791.693	356.18
791.874	347.98
792.054	390.99
792.235	374.61
792.416	298.83
792.597	274.26
792.778	358.22
792.958	298.83
793.139	307.02
793.32	282.45
793.5	251.73
793.681	384.85
793.862	323.41
794.042	284.5
794.223	231.25
794.404	268.11
794.584	233.3
794.765	286.54
794.945	347.98
795.126	341.84
795.306	315.22
795.487	227.15
795.667	321.36
795.848	241.49
796.028	216.91
796.209	300.88
796.389	323.41
796.57	243.54
796.75	208.72
796.93	261.97
797.111	274.26
797.291	298.83
797.471	282.45
797.652	298.83
797.832	276.31
798.012	276.31
798.192	259.92
798.373	163.67
798.553	235.35
798.733	249.68
798.913	229.2
799.093	200.53
799.274	249.68
799.454	282.45
799.634	251.73
799.814	249.68
799.994	221.01
800.174	290.64
800.354	245.59
800.534	225.11
800.714	206.67
800.894	249.68
801.074	227.15
801.254	208.72
801.434	266.07
801.614	200.53
801.794	190.29
801.974	806.73
802.154	135
802.334	139.09
802.514	194.39
802.693	208.72
802.873	122.71
803.053	257.87
803.233	214.87
803.413	192.34
803.592	208.72
803.772	190.29
803.952	300.88
804.131	159.57
804.311	243.54
804.491	216.91
804.67	243.54
804.85	210.77
805.03	169.81
805.209	284.5
805.389	202.58
805.568	167.76
805.748	116.56
805.928	151.38
806.107	149.33
806.287	178
806.466	259.92
806.646	94.04
806.825	157.52
807.004	137.04
807.184	167.76
807.363	175.95
807.543	200.53
807.722	184.15
807.901	212.82
808.081	96.08
808.26	94.04
808.439	175.95
808.619	210.77
808.798	139.09
808.977	143.19
809.156	216.91
809.336	214.87
809.515	184.15
809.694	175.95
809.873	184.15
810.052	175.95
810.231	194.39
810.411	167.76
810.59	192.34
810.769	208.72
810.948	210.77
811.127	153.43
811.306	216.91
811.485	139.09
811.664	237.39
811.843	118.61
812.022	114.52
812.201	171.86
812.38	55.12
812.559	126.8
812.737	196.43
812.916	94.04
813.095	77.65
813.274	151.38
813.453	188.24
813.632	227.15
813.811	159.57
813.989	112.47
814.168	135
814.347	114.52
814.526	124.76
814.704	167.76
814.883	77.65
815.062	153.43
815.24	194.39
815.419	130.9
815.598	139.09
815.776	55.12
815.955	122.71
816.133	104.28
816.312	200.53
816.49	94.04
816.669	153.43
816.847	98.13
817.026	128.85
817.204	91.99
817.383	153.43
817.561	130.9
817.74	153.43
817.918	69.46
818.097	67.41
818.275	89.94
818.453	128.85
818.632	212.82
818.81	110.42
818.988	44.88
819.167	110.42
819.345	102.23
819.523	94.04
819.701	159.57
819.879	139.09
820.058	155.47
820.236	161.62
820.414	135
820.592	112.47
820.77	159.57
820.948	61.27
821.127	85.84
821.305	137.04
821.483	100.18
821.661	112.47
821.839	116.56
822.017	128.85
822.195	87.89
822.373	106.32
822.551	110.42
822.729	130.9
822.907	83.8
823.085	81.75
823.262	75.6
823.44	61.27
823.618	102.23
823.796	69.46
823.974	57.17
824.152	118.61
824.329	85.84
824.507	28.5
824.685	159.57
824.863	161.62
825.04	106.32
825.218	85.84
825.396	87.89
825.574	118.61
825.751	44.88
825.929	159.57
826.107	108.37
826.284	114.52
826.462	91.99
826.639	112.47
826.817	55.12
826.994	77.65
827.172	24.4
827.349	135
827.527	30.55
827.704	42.84
827.882	32.6
828.059	61.27
828.237	-6.31
828.414	102.23
828.591	38.74
828.769	114.52
828.946	85.84
829.124	89.94
829.301	147.28
829.478	135
829.655	104.28
829.833	130.9
830.01	67.41
830.187	116.56
830.364	85.84
830.542	28.5
830.719	61.27
830.896	83.8
831.073	81.75
831.25	141.14
831.427	81.75
831.604	110.42
831.782	34.64
831.959	120.66
832.136	40.79
832.313	85.84
832.49	102.23
832.667	114.52
832.844	55.12
833.021	87.89
833.198	36.69
833.374	75.6
833.551	28.5
833.728	38.74
833.905	71.51
834.082	-45.23
834.259	32.6
834.436	28.5
834.612	28.5
834.789	44.88
834.966	40.79
835.143	53.08
835.319	22.36
835.496	38.74
835.673	73.56
835.85	63.32
836.026	69.46
836.203	-6.31
836.38	22.36
836.556	112.47
836.733	59.22
836.909	126.8
837.086	46.93
837.262	48.98
837.439	53.08
837.616	48.98
837.792	61.27
837.968	36.69
838.145	8.02
838.321	-28.84
838.498	36.69
838.674	104.28
838.851	69.46
839.027	8.02
839.203	3.93
839.38	36.69
839.556	-18.6
839.732	20.31
839.909	12.12
840.085	57.17
840.261	5.97
840.437	67.41
840.614	-2.22
840.79	44.88
840.966	14.17
841.142	85.84
841.318	-63.66
841.494	69.46
841.671	69.46
841.847	3.93
842.023	24.4
842.199	-8.36
842.375	63.32
842.551	71.51
842.727	-24.75
842.903	65.36
843.079	-2.22
843.255	85.84
843.431	34.64
843.607	36.69
843.783	77.65
843.959	104.28
844.134	-4.27
844.31	32.6
844.486	24.4
844.662	-37.03
844.838	85.84
845.013	40.79
845.189	30.55
845.365	20.31
845.541	3.93
845.716	-20.65
845.892	77.65
846.068	-37.03
846.244	44.88
846.419	30.55
846.595	-51.37
846.77	85.84
846.946	71.51
847.122	-34.99
847.297	-0.17
847.473	30.55
847.648	-2.22
847.824	46.93
847.999	28.5
848.175	77.65
848.35	24.4
848.526	28.5
848.701	46.93
848.876	53.08
849.052	1.88
849.227	55.12
849.403	10.07
849.578	38.74
849.753	55.12
849.929	28.5
850.104	28.5
850.279	79.7
850.454	73.56
850.63	48.98
850.805	46.93
850.98	36.69
851.155	94.04
851.33	61.27
851.505	28.5
851.681	106.32
851.856	5.97
852.031	110.42
852.206	30.55
852.381	-51.37
852.556	14.17
852.731	3.93
852.906	-4.27
853.081	-51.37
853.256	3.93
853.431	8.02
853.606	-49.32
853.781	-12.46
853.956	-45.23
854.131	26.45
854.305	3.93
854.48	16.21
854.655	3.93
854.83	63.32
855.005	89.94
855.18	61.27
855.354	-8.36
855.529	48.98
855.704	-37.03
855.879	20.31
856.053	-37.03
856.228	12.12
856.403	36.69
856.577	-12.46
856.752	-57.51
856.926	24.4
857.101	48.98
857.276	-0.17
857.45	46.93
857.625	20.31
857.799	44.88
857.974	-55.47
858.148	-69.8
858.323	3.93
858.497	-51.37
858.672	-45.23
858.846	-0.17
859.02	85.84
859.195	-34.99
859.369	12.12
859.543	34.64
859.718	71.51
859.892	-10.41
860.066	-16.55
860.241	-2.22
860.415	51.03
860.589	85.84
860.763	71.51
860.938	20.31
861.112	42.84
861.286	-77.99
861.46	63.32
861.634	-12.46
861.808	38.74
861.982	-20.65
862.157	-20.65
862.331	3.93
862.505	-73.9
862.679	-41.13
862.853	-20.65
863.027	61.27
863.201	145.24
863.375	-28.84
863.549	5.97
863.722	-26.79
863.896	22.36
864.07	-94.38
864.244	63.32
864.418	22.36
864.592	61.27
864.766	5.97
864.939	77.65
865.113	40.79
865.287	38.74
865.461	-10.41
865.634	-12.46
865.808	110.42
865.982	-24.75
866.156	-8.36
866.329	-41.13
866.503	5.97
866.676	-6.31
866.85	14.17
867.024	-45.23
867.197	40.79
867.371	28.5
867.544	20.31
867.718	-0.17
867.891	65.36
868.065	-28.84
868.238	-67.75
868.412	40.79
868.585	10.07
868.759	-12.46
868.932	-10.41
869.105	-26.79
869.279	-41.13
869.452	-59.56
869.625	-26.79
869.799	-2.22
869.972	8.02
870.145	-2.22
870.319	69.46
870.492	44.88
870.665	28.5
870.838	-41.13
871.011	3.93
871.185	-45.23
871.358	-53.42
871.531	8.02
871.704	32.6
871.877	48.98
872.05	5.97
872.223	3.93
872.396	14.17
872.569	94.04
872.742	-47.27
872.915	106.32
873.088	36.69
873.261	40.79
873.434	20.31
873.607	24.4
873.78	28.5
873.953	-28.84
874.126	22.36
874.299	34.64
874.471	-80.04
874.644	12.12
874.817	-49.32
874.99	36.69
875.163	-84.14
875.335	53.08
875.508	61.27
875.681	85.84
875.853	10.07
876.026	-28.84
876.199	71.51
876.371	5.97
876.544	12.12
876.717	-94.38
876.889	20.31
877.062	-4.27
877.234	36.69
877.407	53.08
877.579	20.31
877.752	1.88
877.924	14.17
878.097	-49.32
878.269	57.17
878.442	-86.19
878.614	46.93
878.786	-84.14
878.959	38.74
879.131	-20.65
879.303	-75.95
879.476	-49.32
879.648	-16.55
879.82	-32.94
879.993	-18.6
880.165	-2.22
880.337	-114.86
880.509	-6.31
880.681	-43.18
880.854	26.45
881.026	16.21
881.198	-32.94
881.37	-43.18
881.542	-108.71
881.714	-4.27
881.886	-69.8
882.058	-4.27
882.23	20.31
882.402	-24.75
882.574	1.88
882.746	53.08
882.918	20.31
883.09	22.36
883.262	-34.99
883.434	-45.23
883.606	-32.94
883.778	-0.17
883.95	85.84
884.122	-116.9
884.293	44.88
884.465	-49.32
884.637	65.36
884.809	-82.09
884.98	-20.65
885.152	-28.84
885.324	53.08
885.496	-30.89
885.667	-114.86
885.839	-61.61
886.011	114.52
886.182	-28.84
886.354	-8.36
886.525	-45.23
886.697	22.36
886.869	-77.99
887.04	-59.56
887.212	48.98
887.383	46.93
887.555	-65.71
887.726	-59.56
887.897	57.17
888.069	8.02
888.24	44.88
888.412	-69.8
888.583	28.5
888.754	-8.36
888.926	-59.56
889.097	46.93
889.268	-28.84
889.44	8.02
889.611	-28.84
889.782	-2.22
889.953	20.31
890.125	-14.51
890.296	3.93
890.467	-82.09
890.638	-102.57
890.809	-57.51
890.98	-100.52
891.151	28.5
891.323	40.79
891.494	-53.42
891.665	-37.03
891.836	20.31
892.007	20.31
892.178	-77.99
892.349	36.69
892.52	-37.03
892.691	-26.79
892.862	-37.03
893.032	20.31
893.203	-94.38
893.374	-45.23
893.545	20.31
893.716	-86.19
893.887	14.17
894.057	-51.37
894.228	38.74
894.399	-12.46
894.57	10.07
894.74	-24.75
894.911	18.26
895.082	-20.65
895.253	-116.9
895.423	32.6
895.594	24.4
895.764	32.6
895.935	-67.75
896.106	-20.65
896.276	-0.17
896.447	-8.36
896.617	24.4
896.788	-86.19
896.958	-12.46
897.129	-26.79
897.299	-20.65
897.47	53.08
897.64	61.27
897.81	-75.95
897.981	96.08
898.151	-45.23
898.322	-28.84
898.492	1.88
898.662	-14.51
898.832	5.97
899.003	-10.41
899.173	-28.84
899.343	-37.03
899.513	-41.13
