Data from USB4F104151__236__14-34-05-812.txt Node

Date: Thu Mar 13 14:34:05 EDT 2025
User: louis
Spectrometer: USB4F10415
Trigger mode: 4
Integration Time (sec): 2.500000E-2
Scans to average: 1
Electric dark correction enabled: true
Nonlinearity correction enabled: false
Boxcar width: 0
XAxis mode: Wavelengths
Number of Pixels in Spectrum: 3648
>>>>>Begin Spectral Data<<<<<
178.204	-117.59
178.424	-117.59
178.644	-117.59
178.864	-82.77
179.084	-144.21
179.304	-21.33
179.524	95.4
179.744	-82.77
179.964	-17.24
180.184	-33.62
180.404	62.63
180.624	13.48
180.844	5.29
181.064	-0.85
181.283	29.87
181.503	-17.24
181.723	-33.62
181.943	-50
182.163	117.93
182.383	36.01
182.602	85.16
182.822	81.07
183.042	13.48
183.262	36.01
183.482	72.87
183.701	21.67
183.921	-35.67
184.141	1.19
184.361	40.11
184.58	79.02
184.8	64.68
185.02	58.54
185.239	85.16
185.459	13.48
185.679	62.63
185.898	-52.05
186.118	81.07
186.338	25.77
186.557	64.68
186.777	85.16
186.997	101.55
187.216	72.87
187.436	-2.9
187.655	81.07
187.875	99.5
188.095	-21.33
188.314	126.12
188.534	97.45
188.753	-9.05
188.973	38.06
189.192	13.48
189.412	52.39
189.631	23.72
189.851	29.87
190.07	93.35
190.29	-13.14
190.509	36.01
190.729	3.24
190.948	70.83
191.168	144.55
191.387	105.64
191.607	-58.2
191.826	70.83
192.045	52.39
192.265	-13.14
192.484	-43.86
192.704	-45.91
192.923	13.48
193.142	81.07
193.362	-11.09
193.581	15.53
193.8	58.54
194.02	124.07
194.239	33.96
194.458	150.7
194.678	1.19
194.897	27.82
195.116	44.2
195.335	76.97
195.555	-11.09
195.774	3.24
195.993	25.77
196.212	11.43
196.432	-37.72
196.651	-7
196.87	-25.43
197.089	64.68
197.308	36.01
197.528	70.83
197.747	-37.72
197.966	21.67
198.185	93.35
198.404	60.59
198.623	-13.14
198.842	44.2
199.062	85.16
199.281	109.74
199.5	15.53
199.719	60.59
199.938	126.12
200.157	36.01
200.376	105.64
200.595	56.49
200.814	48.3
201.033	79.02
201.252	54.44
201.471	40.11
201.69	142.5
201.909	-23.38
202.128	-4.95
202.347	103.59
202.566	56.49
202.785	-37.72
203.004	-23.38
203.223	132.26
203.442	-15.19
203.661	-2.9
203.879	23.72
204.098	46.25
204.317	79.02
204.536	76.97
204.755	83.11
204.974	13.48
205.193	17.58
205.411	76.97
205.63	60.59
205.849	85.16
206.068	-13.14
206.287	19.63
206.505	152.74
206.724	95.4
206.943	40.11
207.162	48.3
207.381	29.87
207.599	36.01
207.818	44.2
208.037	85.16
208.255	17.58
208.474	44.2
208.693	27.82
208.911	11.43
209.13	74.92
209.349	76.97
209.567	7.34
209.786	128.17
210.005	-7
210.223	68.78
210.442	54.44
210.661	29.87
210.879	21.67
211.098	-4.95
211.316	79.02
211.535	3.24
211.753	68.78
211.972	81.07
212.191	64.68
212.409	31.91
212.628	31.91
212.846	44.2
213.065	109.74
213.283	52.39
213.502	-23.38
213.72	117.93
213.938	117.93
214.157	-66.39
214.375	-45.91
214.594	-35.67
214.812	-2.9
215.031	3.24
215.249	3.24
215.467	-9.05
215.686	-54.1
215.904	44.2
216.122	48.3
216.341	91.31
216.559	38.06
216.778	27.82
216.996	103.59
217.214	-11.09
217.432	48.3
217.651	50.35
217.869	38.06
218.087	13.48
218.306	15.53
218.524	74.92
218.742	42.15
218.96	134.31
219.179	21.67
219.397	70.83
219.615	150.7
219.833	15.53
220.051	-60.24
220.27	85.16
220.488	11.43
220.706	-2.9
220.924	-23.38
221.142	-52.05
221.36	31.91
221.578	31.91
221.796	-21.33
222.015	-58.2
222.233	21.67
222.451	81.07
222.669	-43.86
222.887	70.83
223.105	3.24
223.323	42.15
223.541	33.96
223.759	29.87
223.977	105.64
224.195	138.41
224.413	52.39
224.631	27.82
224.849	85.16
225.067	130.22
225.285	-11.09
225.503	-13.14
225.721	-25.43
225.939	52.39
226.157	19.63
226.375	152.74
226.592	3.24
226.81	36.01
227.028	44.2
227.246	113.83
227.464	-4.95
227.682	44.2
227.9	52.39
228.117	21.67
228.335	72.87
228.553	105.64
228.771	60.59
228.989	46.25
229.206	13.48
229.424	11.43
229.642	13.48
229.86	70.83
230.077	144.55
230.295	68.78
230.513	70.83
230.731	48.3
230.948	76.97
231.166	44.2
231.384	76.97
231.601	27.82
231.819	79.02
232.037	-15.19
232.254	-4.95
232.472	46.25
232.689	97.45
232.907	76.97
233.125	70.83
233.342	27.82
233.56	3.24
233.777	76.97
233.995	68.78
234.213	87.21
234.43	46.25
234.648	97.45
234.865	85.16
235.083	62.63
235.3	46.25
235.518	19.63
235.735	52.39
235.953	79.02
236.17	5.29
236.388	11.43
236.605	27.82
236.822	60.59
237.04	85.16
237.257	79.02
237.475	-4.95
237.692	76.97
237.909	3.24
238.127	19.63
238.344	99.5
238.562	-11.09
238.779	-2.9
238.996	36.01
239.214	36.01
239.431	11.43
239.648	25.77
239.865	44.2
240.083	52.39
240.3	5.29
240.517	44.2
240.735	62.63
240.952	44.2
241.169	109.74
241.386	40.11
241.603	117.93
241.821	42.15
242.038	76.97
242.255	23.72
242.472	-11.09
242.689	62.63
242.907	93.35
243.124	5.29
243.341	3.24
243.558	-27.48
243.775	54.44
243.992	21.67
244.209	93.35
244.426	38.06
244.643	68.78
244.86	19.63
245.078	38.06
245.295	44.2
245.512	-86.87
245.729	122.02
245.946	87.21
246.163	-9.05
246.38	54.44
246.597	85.16
246.814	-4.95
247.031	126.12
247.248	46.25
247.464	5.29
247.681	-21.33
247.898	109.74
248.115	52.39
248.332	3.24
248.549	103.59
248.766	21.67
248.983	60.59
249.2	101.55
249.417	89.26
249.633	-4.95
249.85	56.49
250.067	93.35
250.284	-7
250.501	76.97
250.717	68.78
250.934	-31.57
251.151	-43.86
251.368	31.91
251.585	44.2
251.801	-21.33
252.018	15.53
252.235	83.11
252.451	27.82
252.668	15.53
252.885	89.26
253.102	15.53
253.318	5.29
253.535	29.87
253.752	-45.91
253.968	52.39
254.185	27.82
254.401	52.39
254.618	19.63
254.835	-29.52
255.051	134.31
255.268	21.67
255.484	44.2
255.701	46.25
255.917	158.89
256.134	29.87
256.351	60.59
256.567	36.01
256.784	11.43
257	-4.95
257.217	76.97
257.433	85.16
257.65	93.35
257.866	76.97
258.082	101.55
258.299	-21.33
258.515	-2.9
258.732	29.87
258.948	48.3
259.165	85.16
259.381	23.72
259.597	36.01
259.814	29.87
260.03	7.34
260.246	-7
260.463	29.87
260.679	103.59
260.895	117.93
261.112	50.35
261.328	-13.14
261.544	1.19
261.761	48.3
261.977	27.82
262.193	-2.9
262.409	52.39
262.626	44.2
262.842	13.48
263.058	-17.24
263.274	70.83
263.49	70.83
263.707	79.02
263.923	101.55
264.139	40.11
264.355	60.59
264.571	126.12
264.787	-13.14
265.004	52.39
265.22	21.67
265.436	36.01
265.652	72.87
265.868	40.11
266.084	68.78
266.3	105.64
266.516	68.78
266.732	60.59
266.948	68.78
267.164	101.55
267.38	25.77
267.596	54.44
267.812	152.74
268.028	1.19
268.244	91.31
268.46	56.49
268.676	115.88
268.892	44.2
269.108	27.82
269.324	11.43
269.54	11.43
269.756	76.97
269.972	3.24
270.188	83.11
270.403	9.39
270.619	111.78
270.835	46.25
271.051	48.3
271.267	97.45
271.483	60.59
271.698	13.48
271.914	101.55
272.13	-17.24
272.346	19.63
272.562	72.87
272.777	48.3
272.993	11.43
273.209	13.48
273.425	76.97
273.64	36.01
273.856	29.87
274.072	27.82
274.287	-2.9
274.503	19.63
274.719	9.39
274.934	23.72
275.15	72.87
275.366	95.4
275.581	11.43
275.797	11.43
276.012	64.68
276.228	58.54
276.444	15.53
276.659	44.2
276.875	11.43
277.09	64.68
277.306	60.59
277.521	48.3
277.737	31.91
277.952	27.82
278.168	105.64
278.383	31.91
278.599	101.55
278.814	68.78
279.03	40.11
279.245	60.59
279.461	44.2
279.676	119.98
279.892	60.59
280.107	23.72
280.322	19.63
280.538	52.39
280.753	29.87
280.969	70.83
281.184	68.78
281.399	122.02
281.615	-17.24
281.83	19.63
282.045	46.25
282.26	-41.81
282.476	27.82
282.691	56.49
282.906	7.34
283.122	62.63
283.337	9.39
283.552	79.02
283.767	21.67
283.983	36.01
284.198	31.91
284.413	85.16
284.628	-27.48
284.843	70.83
285.058	68.78
285.274	70.83
285.489	105.64
285.704	64.68
285.919	7.34
286.134	87.21
286.349	119.98
286.564	36.01
286.779	74.92
286.995	-17.24
287.21	-17.24
287.425	76.97
287.64	9.39
287.855	46.25
288.07	-21.33
288.285	122.02
288.5	79.02
288.715	68.78
288.93	17.58
289.145	38.06
289.36	60.59
289.575	31.91
289.79	40.11
290.004	64.68
290.219	29.87
290.434	-11.09
290.649	-15.19
290.864	36.01
291.079	72.87
291.294	54.44
291.509	11.43
291.724	-29.52
291.938	-0.85
292.153	70.83
292.368	62.63
292.583	-21.33
292.798	85.16
293.012	99.5
293.227	85.16
293.442	76.97
293.657	48.3
293.871	97.45
294.086	11.43
294.301	117.93
294.516	29.87
294.73	29.87
294.945	-29.52
295.16	38.06
295.374	62.63
295.589	85.16
295.804	40.11
296.018	64.68
296.233	44.2
296.447	36.01
296.662	19.63
296.877	128.17
297.091	48.3
297.306	3.24
297.52	-56.15
297.735	27.82
297.949	62.63
298.164	48.3
298.378	54.44
298.593	21.67
298.807	-2.9
299.022	36.01
299.236	7.34
299.451	85.16
299.665	17.58
299.88	103.59
300.094	23.72
300.309	15.53
300.523	64.68
300.737	19.63
300.952	64.68
301.166	31.91
301.381	27.82
301.595	36.01
301.809	-4.95
302.024	23.72
302.238	85.16
302.452	54.44
302.667	56.49
302.881	79.02
303.095	52.39
303.309	58.54
303.524	-41.81
303.738	50.35
303.952	21.67
304.166	101.55
304.381	-35.67
304.595	89.26
304.809	46.25
305.023	38.06
305.237	-13.14
305.452	38.06
305.666	19.63
305.88	46.25
306.094	70.83
306.308	21.67
306.522	76.97
306.736	-0.85
306.95	36.01
307.164	76.97
307.379	3.24
307.593	111.78
307.807	68.78
308.021	7.34
308.235	136.36
308.449	-11.09
308.663	23.72
308.877	165.03
309.091	29.87
309.305	5.29
309.519	44.2
309.733	68.78
309.947	38.06
310.161	3.24
310.374	36.01
310.588	150.7
310.802	-4.95
311.016	-0.85
311.23	52.39
311.444	52.39
311.658	40.11
311.872	89.26
312.085	36.01
312.299	111.78
312.513	103.59
312.727	91.31
312.941	70.83
313.154	60.59
313.368	93.35
313.582	-19.29
313.796	130.22
314.009	31.91
314.223	40.11
314.437	50.35
314.651	23.72
314.864	70.83
315.078	19.63
315.292	44.2
315.505	60.59
315.719	56.49
315.933	23.72
316.146	-25.43
316.36	60.59
316.573	160.94
316.787	81.07
317.001	36.01
317.214	11.43
317.428	17.58
317.641	11.43
317.855	19.63
318.068	76.97
318.282	134.31
318.495	109.74
318.709	91.31
318.922	68.78
319.136	124.07
319.349	48.3
319.563	27.82
319.776	64.68
319.99	31.91
320.203	167.08
320.417	33.96
320.63	48.3
320.843	101.55
321.057	66.73
321.27	-37.72
321.483	79.02
321.697	119.98
321.91	56.49
322.124	48.3
322.337	165.03
322.55	81.07
322.763	50.35
322.977	31.91
323.19	62.63
323.403	29.87
323.617	38.06
323.83	81.07
324.043	107.69
324.256	62.63
324.469	15.53
324.683	122.02
324.896	70.83
325.109	101.55
325.322	19.63
325.535	25.77
325.748	60.59
325.962	50.35
326.175	85.16
326.388	44.2
326.601	109.74
326.814	44.2
327.027	76.97
327.24	142.5
327.453	11.43
327.666	29.87
327.879	68.78
328.092	79.02
328.305	81.07
328.518	44.2
328.731	29.87
328.944	126.12
329.157	-9.05
329.37	89.26
329.583	97.45
329.796	107.69
330.009	9.39
330.222	79.02
330.435	126.12
330.648	7.34
330.861	29.87
331.073	23.72
331.286	93.35
331.499	99.5
331.712	27.82
331.925	36.01
332.138	52.39
332.35	85.16
332.563	36.01
332.776	40.11
332.989	40.11
333.202	52.39
333.414	21.67
333.627	109.74
333.84	25.77
334.053	-15.19
334.265	31.91
334.478	36.01
334.691	19.63
334.903	93.35
335.116	31.91
335.329	27.82
335.541	52.39
335.754	142.5
335.966	9.39
336.179	85.16
336.392	3.24
336.604	23.72
336.817	101.55
337.029	46.25
337.242	113.83
337.454	126.12
337.667	72.87
337.88	126.12
338.092	36.01
338.305	64.68
338.517	54.44
338.729	13.48
338.942	66.73
339.154	85.16
339.367	-9.05
339.579	103.59
339.792	15.53
340.004	21.67
340.217	50.35
340.429	74.92
340.641	97.45
340.854	52.39
341.066	-11.09
341.278	70.83
341.491	36.01
341.703	68.78
341.915	11.43
342.128	52.39
342.34	19.63
342.552	19.63
342.764	87.21
342.977	52.39
343.189	52.39
343.401	62.63
343.613	93.35
343.826	85.16
344.038	36.01
344.25	68.78
344.462	11.43
344.674	52.39
344.886	93.35
345.099	64.68
345.311	46.25
345.523	97.45
345.735	25.77
345.947	60.59
346.159	-7
346.371	85.16
346.583	23.72
346.795	134.31
347.007	40.11
347.219	158.89
347.431	-2.9
347.643	126.12
347.855	60.59
348.067	89.26
348.279	36.01
348.491	85.16
348.703	93.35
348.915	72.87
349.127	36.01
349.339	23.72
349.551	72.87
349.763	68.78
349.975	25.77
350.187	93.35
350.399	44.2
350.61	52.39
350.822	40.11
351.034	38.06
351.246	52.39
351.458	23.72
351.669	52.39
351.881	76.97
352.093	74.92
352.305	68.78
352.517	142.5
352.728	126.12
352.94	56.49
353.152	5.29
353.363	-35.67
353.575	119.98
353.787	58.54
353.999	111.78
354.21	128.17
354.422	-0.85
354.633	52.39
354.845	111.78
355.057	3.24
355.268	56.49
355.48	46.25
355.692	85.16
355.903	76.97
356.115	64.68
356.326	23.72
356.538	177.32
356.749	111.78
356.961	197.8
357.172	52.39
357.384	7.34
357.595	72.87
357.807	87.21
358.018	60.59
358.23	27.82
358.441	79.02
358.653	107.69
358.864	64.68
359.075	52.39
359.287	60.59
359.498	83.11
359.709	105.64
359.921	-13.14
360.132	68.78
360.344	21.67
360.555	15.53
360.766	95.4
360.977	36.01
361.189	126.12
361.4	72.87
361.611	105.64
361.823	95.4
362.034	68.78
362.245	76.97
362.456	44.2
362.667	85.16
362.879	7.34
363.09	89.26
363.301	117.93
363.512	31.91
363.723	36.01
363.935	70.83
364.146	33.96
364.357	76.97
364.568	52.39
364.779	19.63
364.99	144.55
365.201	68.78
365.412	154.79
365.623	-54.1
365.834	52.39
366.045	95.4
366.256	130.22
366.467	79.02
366.678	130.22
366.889	62.63
367.1	52.39
367.311	21.67
367.522	25.77
367.733	-21.33
367.944	11.43
368.155	122.02
368.366	91.31
368.577	76.97
368.788	119.98
368.999	62.63
369.209	-17.24
369.42	62.63
369.631	152.74
369.842	11.43
370.053	68.78
370.264	117.93
370.474	15.53
370.685	19.63
370.896	68.78
371.107	83.11
371.317	162.98
371.528	87.21
371.739	48.3
371.95	70.83
372.16	117.93
372.371	19.63
372.582	136.36
372.792	62.63
373.003	3.24
373.214	60.59
373.424	101.55
373.635	93.35
373.846	132.26
374.056	105.64
374.267	79.02
374.477	3.24
374.688	83.11
374.898	9.39
375.109	79.02
375.319	93.35
375.53	140.46
375.74	54.44
375.951	105.64
376.161	111.78
376.372	48.3
376.582	70.83
376.793	60.59
377.003	36.01
377.214	97.45
377.424	54.44
377.635	111.78
377.845	54.44
378.055	126.12
378.266	7.34
378.476	101.55
378.686	3.24
378.897	101.55
379.107	128.17
379.317	76.97
379.528	68.78
379.738	130.22
379.948	93.35
380.158	68.78
380.369	58.54
380.579	27.82
380.789	117.93
380.999	134.31
381.21	93.35
381.42	81.07
381.63	36.01
381.84	81.07
382.05	60.59
382.261	42.15
382.471	119.98
382.681	-0.85
382.891	89.26
383.101	31.91
383.311	66.73
383.521	85.16
383.731	31.91
383.941	87.21
384.151	122.02
384.361	31.91
384.571	113.83
384.781	83.11
384.991	185.51
385.201	191.66
385.411	107.69
385.621	97.45
385.831	48.3
386.041	76.97
386.251	-13.14
386.461	48.3
386.671	113.83
386.881	122.02
387.091	68.78
387.301	52.39
387.511	29.87
387.72	101.55
387.93	117.93
388.14	79.02
388.35	9.39
388.56	158.89
388.769	126.12
388.979	21.67
389.189	85.16
389.399	144.55
389.609	87.21
389.818	50.35
390.028	119.98
390.238	132.26
390.447	85.16
390.657	107.69
390.867	87.21
391.076	101.55
391.286	205.99
391.496	52.39
391.705	87.21
391.915	107.69
392.125	117.93
392.334	79.02
392.544	134.31
392.753	62.63
392.963	85.16
393.172	117.93
393.382	89.26
393.591	117.93
393.801	109.74
394.01	85.16
394.22	183.46
394.429	68.78
394.639	136.36
394.848	195.75
395.058	87.21
395.267	64.68
395.477	97.45
395.686	109.74
395.895	208.04
396.105	232.62
396.314	115.88
396.524	169.13
396.733	95.4
396.942	199.85
397.152	113.83
397.361	183.46
397.57	40.11
397.78	60.59
397.989	154.79
398.198	175.27
398.407	148.65
398.617	183.46
398.826	167.08
399.035	119.98
399.244	126.12
399.453	117.93
399.663	216.23
399.872	187.56
400.081	91.31
400.29	208.04
400.499	87.21
400.708	251.05
400.917	136.36
401.127	177.32
401.336	146.6
401.545	167.08
401.754	185.51
401.963	162.98
402.172	128.17
402.381	214.18
402.59	199.85
402.799	162.98
403.008	162.98
403.217	199.85
403.426	134.31
403.635	95.4
403.844	162.98
404.053	218.28
404.262	154.79
404.471	226.47
404.68	216.23
404.888	275.62
405.097	195.75
405.306	224.42
405.515	171.18
405.724	199.85
405.933	177.32
406.142	281.77
406.35	253.09
406.559	240.81
406.768	244.9
406.977	339.11
407.185	335.01
407.394	285.86
407.603	326.82
407.812	314.53
408.02	355.49
408.229	300.2
408.438	337.06
408.646	298.15
408.855	347.3
409.064	421.03
409.272	421.03
409.481	414.88
409.69	359.59
409.898	375.97
410.107	490.66
410.315	486.56
410.524	453.8
410.733	498.85
410.941	470.18
411.15	521.38
411.358	543.91
411.567	652.45
411.775	726.18
411.984	636.06
412.192	625.83
412.401	660.64
412.609	711.84
412.818	677.02
413.026	818.33
413.234	816.29
413.443	783.52
413.651	791.71
413.86	818.33
414.068	914.59
414.276	959.64
414.485	976.03
414.693	1027.23
414.901	1037.47
415.11	1070.23
415.318	1043.61
415.526	1137.82
415.734	1158.3
415.943	1266.84
416.151	1227.93
416.359	1219.74
416.567	1299.61
416.776	1365.14
416.984	1387.67
417.192	1438.87
417.4	1389.72
417.608	1461.4
417.817	1565.84
418.025	1707.15
418.233	1739.92
418.441	1715.34
418.649	1809.55
418.857	1938.57
419.065	1993.87
419.273	1944.72
419.481	2002.06
419.689	2227.34
419.897	2284.68
420.105	2227.34
420.313	2413.7
420.521	2358.41
420.729	2444.42
420.937	2641.03
421.145	2645.12
421.353	2782.34
421.561	2950.27
421.769	2892.93
421.977	3193.98
422.185	2931.84
422.393	3290.23
422.601	3581.04
422.809	3394.68
423.017	3652.72
423.224	3566.71
423.432	3679.35
423.64	3828.85
423.848	4000.88
424.056	3921.01
424.263	4160.62
424.471	4316.26
424.679	4367.46
424.887	4600.93
425.094	4740.19
425.302	4721.76
425.51	4971.61
425.718	5049.44
425.925	5389.4
426.133	5293.15
426.341	5700.69
426.548	5942.35
426.756	5778.51
426.964	6091.85
427.171	6302.79
427.379	6515.78
427.586	6646.85
427.794	6888.51
428.001	7054.4
428.209	7375.93
428.417	7394.36
428.624	7756.85
428.832	7803.96
429.039	7746.61
429.247	7834.68
429.454	8442.92
429.662	9063.46
429.869	8479.79
430.076	9149.47
430.284	8916
430.491	9227.29
430.699	9952.27
430.906	9833.49
431.114	9882.64
431.321	10406.92
431.528	10488.84
431.736	11025.41
431.943	11504.64
432.15	11217.92
432.358	11232.26
432.565	11981.81
432.772	11877.37
432.979	12461.04
433.187	12680.17
433.394	12909.54
433.601	13743.06
433.808	13599.71
434.016	13673.43
434.223	14066.64
434.43	14826.44
434.637	14857.16
434.844	15576
435.052	16016.31
435.259	15877.05
435.466	15954.87
435.673	15692.73
435.88	16962.47
436.087	17865.63
436.294	17515.42
436.501	17468.32
436.708	17662.88
436.915	18066.33
437.122	18992.01
437.329	19139.46
437.537	19716.99
437.743	19893.12
437.95	19786.62
438.157	20931.44
438.364	21441.38
438.571	21689.18
438.778	21621.6
438.985	23235.4
439.192	22313.81
439.399	23055.18
439.606	23006.03
439.813	23962.43
440.02	25627.43
440.227	24892.21
440.433	24783.66
440.64	25391.91
440.847	25361.19
441.054	25852.7
441.261	27935.49
441.467	27255.56
441.674	27693.83
441.881	28855.03
442.088	28582.65
442.294	28566.26
442.501	29262.57
442.708	29928.16
442.914	31326.92
443.121	32252.61
443.328	31443.66
443.534	33594.03
443.741	32981.68
443.948	32012.99
444.154	34572.96
444.361	34327.2
444.568	34871.96
444.774	34134.69
444.981	34693.79
445.187	35668.62
445.394	37821.03
445.6	37180.02
445.807	40489.54
446.013	38779.48
446.22	39293.52
446.426	40849.98
446.633	40997.43
446.839	42521.12
447.046	40725.05
447.252	42945.05
447.459	43149.85
447.665	42869.28
447.871	44995.07
448.078	46432.74
448.284	44296.71
448.491	45933.04
448.697	47499.73
448.903	48710.08
449.11	48366.02
449.316	47571.41
449.522	48828.87
449.728	49672.63
449.935	49951.15
450.141	50225.58
450.347	51022.24
450.553	49375.67
450.76	49793.46
450.966	51675.54
451.172	51534.23
451.378	52396.43
451.584	51276.19
451.791	52525.45
451.997	52390.28
452.203	53320.06
452.409	53496.19
452.615	52740.49
452.821	51241.37
453.027	50147.76
453.233	53072.26
453.44	51157.41
453.646	51534.23
453.852	51925.39
454.058	52513.16
454.264	51069.34
454.47	52216.21
454.676	50885.03
454.882	53051.78
455.088	48470.47
455.294	48947.65
455.5	49742.26
455.705	50223.53
455.911	48277.96
456.117	47329.75
456.323	46981.6
456.529	44012.04
456.735	46567.91
456.941	44866.05
457.147	44139.02
457.352	42639.9
457.558	42670.62
457.764	42701.34
457.97	42015.27
458.176	41124.41
458.381	40723.01
458.587	38918.74
458.793	38601.31
458.999	37237.36
459.204	39414.35
459.41	38513.25
459.616	36063.88
459.821	36110.98
460.027	36012.68
460.233	34841.24
460.438	33358.51
460.644	33530.54
460.85	31994.56
461.055	31787.72
461.261	31750.85
461.466	29235.95
461.672	28515.06
461.878	30464.73
462.083	28351.23
462.289	27915.01
462.494	27427.59
462.7	26376.98
462.905	25590.56
463.111	26655.51
463.316	26665.75
463.522	26059.55
463.727	26239.77
463.932	25801.5
464.138	25957.15
464.343	26139.42
464.549	25309.99
464.754	26131.23
464.959	25494.31
465.165	25445.16
465.37	24130.36
465.575	23542.6
465.781	24664.88
465.986	24697.65
466.191	23909.18
466.397	23214.92
466.602	22401.88
466.807	23100.23
467.012	23366.47
467.218	23018.32
467.423	22743.89
467.628	22752.08
467.833	23882.56
468.038	22700.88
468.244	22002.52
468.449	22993.74
468.654	22266.71
468.859	22217.56
469.064	21949.28
469.269	21330.79
469.474	21156.71
469.679	21715.81
469.885	20818.8
470.09	21422.95
470.295	21003.11
470.5	20556.66
470.705	20947.82
470.91	20329.33
471.115	20081.53
471.32	20509.55
471.525	20458.35
471.73	19886.97
471.935	19966.84
472.139	19159.94
472.344	19518.34
472.549	18996.1
472.754	18875.27
472.959	18486.16
473.164	18049.94
473.369	18105.24
473.574	18631.57
473.778	18183.06
473.983	18011.03
474.188	18154.39
474.393	17505.18
474.598	17308.58
474.802	17472.42
475.007	17208.23
475.212	17177.51
475.417	16763.82
475.621	16645.04
475.826	16501.68
476.031	16421.81
476.235	15958.97
476.44	16149.43
476.645	16096.18
476.849	16044.98
477.054	15664.06
477.259	15354.82
477.463	15475.65
477.668	15084.48
477.872	15244.23
478.077	15109.06
478.282	14509.01
478.486	14848.97
478.691	14527.44
478.895	14502.86
479.1	14547.92
479.304	14547.92
479.509	13812.7
479.713	14326.74
479.918	13777.88
480.122	13587.42
480.326	13698.01
480.531	13974.49
480.735	13714.39
480.94	13394.91
481.144	13810.65
481.348	13386.72
481.553	13528.03
481.757	13358.05
481.961	13482.97
482.166	13734.87
482.37	13390.81
482.574	13204.45
482.778	13405.15
482.983	13448.16
483.187	13462.49
483.391	13245.41
483.595	13155.3
483.8	13208.55
484.004	13265.89
484.208	13317.09
484.412	13153.25
484.616	13272.03
484.821	13573.08
485.025	13165.54
485.229	13245.41
485.433	13061.09
485.637	13265.89
485.841	12903.4
486.045	13100
486.249	13083.62
486.453	13028.32
486.657	13181.92
486.861	13145.06
487.065	13079.52
487.269	13153.25
487.473	12919.78
487.677	13294.56
487.881	13210.59
488.085	12989.41
488.289	13298.66
488.493	13286.37
488.697	13349.85
488.901	13106.15
489.105	12995.56
489.309	13310.94
489.512	13351.9
489.716	13214.69
489.92	13272.03
490.124	13200.35
490.328	13362.14
490.531	13519.84
490.735	13609.95
490.939	13489.12
491.143	13153.25
491.346	13368.29
491.55	13331.42
491.754	13489.12
491.958	13652.95
492.161	13429.73
492.365	13802.46
492.569	13743.06
492.772	13800.41
492.976	13851.61
493.18	13802.46
493.383	14035.92
493.587	14289.87
493.79	14273.49
493.994	14005.2
494.197	14240.72
494.401	14627.79
494.605	14267.34
494.808	14699.47
495.012	14621.64
495.215	14943.17
495.419	14750.67
495.622	14670.79
495.825	15068.1
496.029	15027.14
496.232	15281.09
496.436	15109.06
496.639	15657.92
496.843	15379.39
497.046	15684.54
497.249	16186.29
497.453	16067.51
497.656	16149.43
497.859	16325.55
498.063	16264.11
498.266	16630.7
498.469	16640.94
498.673	16569.26
498.876	17017.77
499.079	17169.32
499.282	17173.41
499.485	17466.27
499.689	17587.1
499.892	17861.53
500.095	17824.67
500.298	18215.83
500.501	18264.98
500.705	18545.55
500.908	18670.48
501.111	18994.06
501.314	19164.04
501.517	19606.4
501.72	19286.92
501.923	19301.25
502.126	19891.07
502.329	20030.33
502.532	20276.09
502.735	20353.91
502.938	20681.58
503.141	20783.98
503.344	21060.46
503.547	21162.86
503.75	21332.84
503.953	21844.83
504.156	21592.93
504.359	22235.99
504.562	22057.82
504.765	22698.83
504.968	22969.16
505.17	23012.17
505.373	22985.55
505.576	23507.78
505.779	23876.41
505.982	23710.53
506.185	24376.12
506.387	24310.58
506.59	24726.32
506.793	24943.41
506.996	25049.9
507.198	25525.03
507.401	25785.12
507.604	25588.52
507.807	26164
508.009	26444.57
508.212	26835.73
508.415	26927.89
508.617	27286.28
508.82	27226.89
509.022	27175.69
509.225	27849.47
509.428	27945.73
509.63	28117.76
509.833	28502.78
510.035	29115.12
510.238	29125.36
510.44	29563.62
510.643	29911.78
510.845	30087.9
511.048	29911.78
511.25	30495.45
511.453	30503.64
511.655	31910.6
511.858	31365.84
512.06	31046.35
512.262	31967.94
512.465	31654.6
512.667	32619.19
512.87	32381.63
513.072	32629.43
513.274	33448.62
513.477	33616.55
513.679	33831.59
513.881	34063.01
514.084	33911.46
514.286	33915.56
514.488	34421.41
514.69	35762.82
514.893	35502.73
515.095	35658.38
515.297	35797.64
515.499	36100.74
515.701	36741.75
515.904	37134.96
516.106	37493.36
516.308	37380.72
516.51	38185.57
516.712	37802.6
516.914	38330.98
517.116	38756.96
517.318	38756.96
517.52	39129.69
517.722	38928.98
517.925	39533.14
518.127	40192.58
518.329	40168.01
518.531	39983.69
518.733	40880.7
518.935	41247.29
519.136	41515.57
519.338	41980.46
519.54	42056.23
519.742	42252.84
519.944	42566.18
520.146	42951.2
520.348	43211.29
520.55	42953.24
520.752	43108.89
520.954	44192.26
521.155	43641.36
521.357	44210.7
521.559	44796.42
521.761	45023.74
521.963	45210.1
522.164	45306.36
522.366	45165.05
522.568	45677.04
522.77	45478.39
522.971	46346.73
523.173	46397.93
523.375	46588.39
523.576	46090.73
523.778	46309.86
523.98	46828
524.181	47106.52
524.383	47084
524.584	47579.6
524.786	47165.91
524.988	47337.94
525.189	47815.12
525.391	47733.2
525.592	48404.94
525.794	48249.29
525.995	48509.38
526.197	48265.67
526.398	48411.08
526.6	48744.9
526.801	48751.04
527.003	48509.38
527.204	48671.17
527.406	49037.76
527.607	49451.45
527.808	49523.13
528.01	48773.57
528.211	49007.04
528.412	49590.71
528.614	49414.58
528.815	49373.63
529.016	50129.33
529.218	49134.01
529.419	49381.82
529.62	49365.43
529.822	49656.24
530.023	49676.72
530.224	49641.91
530.425	49541.56
530.626	49369.53
530.828	49142.2
531.029	50383.27
531.23	49605.05
531.431	49541.56
531.632	49815.99
531.833	49574.33
532.035	49865.14
532.236	49738.16
532.437	50045.36
532.638	49430.97
532.839	49646.01
533.04	49646.01
533.241	49131.96
533.442	50069.93
533.643	49621.43
533.844	49093.05
534.045	49617.33
534.246	49037.76
534.447	49336.76
534.648	48998.85
534.849	49439.16
535.05	48988.61
535.251	49119.68
535.451	48863.68
535.652	49408.44
535.853	48611.78
536.054	49363.39
536.255	49205.69
536.456	48665.03
536.657	49314.23
536.857	48601.54
537.058	48339.4
537.259	48980.42
537.46	49013.18
537.66	48824.77
537.861	48759.23
538.062	49035.71
538.263	48957.89
538.463	48673.22
538.664	48619.97
538.865	48493
539.065	49033.66
539.266	48101.84
539.466	49007.04
539.667	48533.96
539.868	49109.44
540.068	49185.21
540.269	48280.01
540.469	48572.87
540.67	48355.78
540.87	48576.97
541.071	48609.73
541.271	48447.94
541.472	48376.26
541.672	47923.66
541.873	48306.63
542.073	47761.87
542.274	48617.92
542.474	48435.66
542.675	47997.39
542.875	48888.26
543.075	47864.27
543.276	47608.28
543.476	48331.21
543.676	48005.58
543.877	47999.44
544.077	48183.76
544.277	47997.39
544.478	48060.88
544.678	48028.11
544.878	48251.34
545.078	47720.91
545.279	47878.61
545.479	47829.46
545.679	47718.87
545.879	48208.33
546.079	47550.93
546.28	47931.86
546.48	47735.25
546.68	47839.7
546.88	47897.04
547.08	47886.8
547.28	47747.54
547.48	47432.15
547.68	47397.34
547.88	47667.67
548.081	47880.66
548.281	47763.92
548.481	47626.71
548.681	47727.06
548.881	48075.21
549.081	47757.78
549.28	47913.42
549.48	48290.25
549.68	47612.37
549.88	48048.59
550.08	47864.27
550.28	47929.81
550.48	47409.62
550.68	48003.53
550.88	47401.43
551.08	47989.2
551.279	48071.12
551.479	47542.74
551.679	47962.57
551.879	47761.87
552.079	48071.12
552.278	47813.07
552.478	48187.85
552.678	47743.44
552.878	48128.46
553.077	47423.96
553.277	47333.85
553.477	48239.05
553.676	47833.55
553.876	48126.41
554.076	47393.24
554.275	47778.26
554.475	47309.27
554.674	47956.43
554.874	47829.46
555.074	47725.01
555.273	48110.03
555.473	47780.31
555.672	47772.11
555.872	48144.84
556.071	48159.18
556.271	48302.54
556.47	47995.34
556.67	47712.72
556.869	47849.94
557.068	48142.8
557.268	47524.31
557.467	48161.23
557.667	48062.93
557.866	47880.66
558.065	47989.2
558.265	47608.28
558.464	47432.15
558.663	48443.85
558.863	47094.24
559.062	48079.31
559.261	47387.1
559.461	48480.71
559.66	47622.61
559.859	47673.81
560.058	47733.2
560.258	47442.39
560.457	47407.58
560.656	48046.54
560.855	47430.1
561.054	47956.43
561.253	47356.38
561.453	47839.7
561.652	47901.14
561.851	47684.05
562.05	47280.6
562.249	47405.53
562.448	47688.15
562.647	47806.93
562.846	47426.01
563.045	47034.84
563.244	47040.99
563.443	47862.22
563.642	46817.76
563.841	47595.99
564.04	47333.85
564.239	48056.78
564.438	46866.91
564.637	47194.59
564.836	47350.23
565.035	46920.16
565.234	47546.84
565.432	47002.08
565.631	47139.29
565.83	47147.48
566.029	47014.37
566.228	46424.55
566.427	46641.63
566.625	46612.96
566.824	46504.42
567.023	46670.31
567.222	45928.94
567.42	46576.1
567.619	46270.95
567.818	46461.41
568.016	46477.8
568.215	46776.8
568.414	46313.96
568.612	46465.51
568.811	46121.45
569.01	46189.03
569.208	45902.32
569.407	46430.69
569.605	45365.75
569.804	46129.64
570.002	45693.43
570.201	45703.67
570.4	45365.75
570.598	45277.69
570.797	44927.49
570.995	45136.38
571.193	44749.31
571.392	45324.79
571.59	44929.53
571.789	44716.54
571.987	44784.13
572.186	44745.22
572.384	44284.42
572.582	44990.97
572.781	44835.33
572.979	44298.76
573.177	44630.53
573.376	44831.23
573.574	44253.7
573.772	44499.46
573.971	44038.67
574.169	43553.3
574.367	43651.6
574.565	43979.28
574.763	43672.08
574.962	43643.41
575.16	43194.9
575.358	43444.76
575.556	42961.44
575.754	43706.9
575.952	42883.61
576.151	43448.85
576.349	42568.23
576.547	42885.66
576.745	42730.01
576.943	42693.15
577.141	42687.01
577.339	42693.15
577.537	42359.33
577.735	42439.2
577.933	42402.34
578.131	42555.94
578.329	42156.58
578.527	41687.6
578.725	42105.38
578.923	41900.59
579.121	41775.66
579.319	41388.6
579.516	41671.21
579.714	41654.83
579.912	41521.71
580.11	41345.59
580.308	41259.57
580.506	41243.19
580.704	40878.65
580.901	41239.09
581.099	41058.87
581.297	40241.73
581.495	40536.64
581.692	40854.08
581.89	40342.08
582.088	40342.08
582.285	40092.23
582.483	40256.07
582.681	40385.09
582.878	40522.3
583.076	39574.09
583.274	40161.86
583.471	39907.91
583.669	39952.97
583.866	39498.32
584.064	39805.52
584.262	39025.24
584.459	40030.79
584.657	39109.21
584.854	39041.62
585.052	38931.03
585.249	39455.31
585.447	39092.82
585.644	38687.32
585.841	38535.77
586.039	38955.61
586.236	38347.36
586.434	38498.91
586.631	38380.13
586.828	38705.76
587.026	38824.54
587.223	38269.54
587.42	38054.5
587.618	38036.07
587.815	37866.09
588.012	37780.07
588.21	37483.12
588.407	37984.87
588.604	37599.85
588.801	37515.89
588.999	37306.99
589.196	37384.82
589.393	37173.88
589.59	37507.69
589.787	36891.26
589.984	37223.03
590.182	36905.59
590.379	37137.01
590.576	37012.09
590.773	36983.41
590.97	36745.85
591.167	36301.44
591.364	36223.62
591.561	36364.93
591.758	36237.95
591.955	36086.4
592.152	36409.98
592.349	36299.39
592.546	36078.21
592.743	36127.36
592.94	35519.12
593.137	35891.85
593.334	35998.34
593.531	35586.7
593.727	35818.12
593.924	36131.46
594.121	35429.01
594.318	35621.52
594.515	35478.16
594.712	35377.81
594.908	35553.93
595.105	35150.48
595.302	34955.93
595.499	35254.93
595.696	35160.72
595.892	34695.83
596.089	35025.56
596.286	34704.03
596.482	34996.88
596.679	34880.15
596.876	34734.74
597.072	34513.56
597.269	34824.86
597.466	34316.96
597.662	34470.56
597.859	34392.73
598.055	34429.6
598.252	34452.12
598.448	33946.28
598.645	34380.45
598.841	34069.15
599.038	34331.29
599.234	34269.86
599.431	33645.23
599.627	33839.78
599.824	34093.73
600.02	33944.23
600.217	34140.83
600.413	33878.69
600.609	33958.56
600.806	33782.44
601.002	34007.72
601.198	33845.93
601.395	33407.66
601.591	33514.16
601.787	33520.3
601.984	33581.74
602.18	33661.61
602.376	33503.92
602.572	33233.58
602.769	33569.45
602.965	33100.47
603.161	33514.16
603.357	33028.79
603.553	33796.77
603.75	33723.05
603.946	33372.85
604.142	33417.9
604.338	32875.19
604.534	33417.9
604.73	33032.88
604.926	33174.19
605.122	33512.11
605.318	33182.38
605.514	33391.28
605.71	33122.99
605.906	33405.61
606.102	33350.32
606.298	33505.96
606.494	32836.28
606.69	33512.11
606.886	33798.82
607.082	33018.55
607.278	33387.18
607.474	32914.1
607.67	33305.26
607.866	32883.38
608.062	33741.48
608.257	33235.63
608.453	33532.59
608.649	33858.21
608.845	33434.28
609.041	33307.31
609.236	33532.59
609.432	33362.61
609.628	33260.21
609.824	33563.31
610.019	33088.18
610.215	33530.54
610.411	33395.37
610.606	33553.07
610.802	33084.08
610.998	33366.7
611.193	33499.82
611.389	33374.89
611.584	33487.53
611.78	33372.85
611.976	33643.18
612.171	33546.92
612.367	33286.83
612.562	33481.39
612.758	33323.69
612.953	33006.26
613.149	33516.2
613.344	33274.54
613.539	33602.22
613.735	33428.14
613.93	33569.45
614.126	33333.93
614.321	33577.64
614.517	33465
614.712	33602.22
614.907	33149.62
615.103	33563.31
615.298	33118.9
615.493	33933.99
615.688	33176.24
615.884	33905.32
616.079	33198.77
616.274	33745.58
616.47	33213.1
616.665	33440.43
616.86	33219.25
617.055	33131.19
617.25	33155.76
617.445	33637.03
617.641	32637.62
617.836	33051.31
618.031	32735.93
618.226	33274.54
618.421	32897.72
618.616	33149.62
618.811	32289.47
619.006	33245.87
619.201	32512.7
619.396	32488.12
619.591	32240.32
619.786	32234.17
619.981	31853.25
620.176	32275.13
620.371	31906.5
620.566	32111.3
620.761	31951.56
620.956	32350.91
621.151	31646.41
621.346	31630.02
621.541	31195.85
621.735	31341.26
621.93	30894.8
622.125	31103.7
622.32	30769.88
622.515	30968.53
622.709	30497.5
622.904	30505.69
623.099	30341.85
623.294	30751.45
623.488	30317.28
623.683	30292.7
623.878	29981.41
624.072	30214.88
624.267	29850.34
624.462	29350.63
624.656	29145.84
624.851	29553.38
625.046	29305.58
625.24	28996.34
625.435	28398.33
625.629	28736.24
625.824	28932.85
626.018	28625.65
626.213	28091.13
626.407	28429.05
626.602	27910.91
626.796	28732.15
626.991	28390.14
627.185	28003.07
627.38	27529.99
627.574	27284.23
627.768	27540.23
627.963	27214.6
628.157	27024.14
628.352	27276.04
628.546	26626.84
628.74	26833.68
628.935	26407.7
629.129	26469.14
629.323	26401.56
629.517	26319.64
629.712	26305.31
629.906	25912.1
630.1	25527.08
630.294	26166.04
630.489	25477.93
630.683	25717.54
630.877	25273.13
631.071	25119.53
631.265	25348.9
631.459	25123.63
631.653	25060.14
631.848	24693.55
632.042	24818.48
632.236	24855.34
632.43	24492.85
632.624	24574.77
632.818	24275.77
633.012	24263.48
633.206	24101.69
633.4	23976.76
633.594	23763.78
633.788	23655.23
633.982	23862.08
634.176	23589.7
634.369	23378.76
634.563	23491.4
634.757	23049.03
634.951	23184.2
635.145	23176.01
635.339	22885.2
635.533	22623.06
635.726	22940.49
635.92	22635.35
636.114	22526.8
636.308	22336.34
636.501	22080.35
636.695	21928.8
636.889	21857.12
637.083	21564.26
637.276	21775.2
637.47	21560.16
637.664	21427.04
637.857	21236.58
638.051	21517.15
638.244	21195.62
638.438	20986.73
638.632	21082.98
638.825	20794.22
639.019	20599.66
639.212	20638.58
639.406	20626.29
639.599	20466.55
639.793	20509.55
639.986	20255.61
640.18	20382.58
640.373	19843.96
640.567	19907.45
640.76	19860.35
640.954	19547.01
641.147	19559.3
641.34	19411.84
641.534	19372.93
641.727	19248
641.92	19086.22
642.114	18840.46
642.307	18932.62
642.5	18682.77
642.694	18533.26
642.887	18627.47
643.08	18705.29
643.273	18428.82
643.467	18408.34
643.66	17974.17
643.853	18062.23
644.046	17908.63
644.239	17824.67
644.432	17888.15
644.626	17712.03
644.819	17591.2
645.012	17513.38
645.205	17593.25
645.398	17306.53
645.591	17181.6
645.784	17206.18
645.977	16997.29
646.17	16960.42
646.363	16640.94
646.556	16493.49
646.749	16776.11
646.942	16604.08
647.135	16591.79
647.328	16452.53
647.521	16235.44
647.714	16112.56
647.907	16006.07
648.099	15905.72
648.292	16044.98
648.485	15664.06
648.678	15653.82
648.871	15690.68
649.064	15494.08
649.256	15739.83
649.449	15436.74
649.642	15416.26
649.835	14932.93
650.027	15387.58
650.22	15031.24
650.413	14914.5
650.605	14656.46
650.798	14812.1
650.991	14885.83
651.183	14728.14
651.376	14578.64
651.568	14349.26
651.761	14619.6
651.954	14232.53
652.146	14396.37
652.339	14377.94
652.531	14144.47
652.724	14025.68
652.916	13958.1
653.109	13954.01
653.301	13849.56
653.494	13962.2
653.686	13872.09
653.879	13921.24
654.071	13366.24
654.263	13435.87
654.456	13702.11
654.648	13415.39
654.84	13378.53
655.033	13229.02
655.225	12932.07
655.417	13278.18
655.61	13079.52
655.802	13028.32
655.994	12970.98
656.186	12733.42
656.379	12708.84
656.571	12839.91
656.763	12461.04
656.955	12424.17
657.148	12602.35
657.34	12432.36
657.532	12377.07
657.724	12274.67
657.916	12192.75
658.108	12229.62
658.3	12123.12
658.492	12098.55
658.684	11783.16
658.876	11799.54
659.068	11678.71
659.26	11604.99
659.452	11766.78
659.644	11774.97
659.836	11586.55
660.028	11467.77
660.22	11447.29
660.412	11348.99
660.604	11267.07
660.796	11328.51
660.988	11418.62
661.18	11070.47
661.372	10861.57
661.563	11037.7
661.755	10941.44
661.947	10980.36
662.139	10859.52
662.331	10736.65
662.522	10763.27
662.714	10564.62
662.906	10494.99
663.097	10685.45
663.289	10382.35
663.481	10423.31
663.673	10284.05
663.864	10179.6
664.056	10132.5
664.247	10216.46
664.439	9948.18
664.631	10021.91
664.822	9980.95
665.014	10105.87
665.205	10064.91
665.397	9915.41
665.588	9813.01
665.78	9743.38
665.971	9872.4
666.163	9640.98
666.354	9620.5
666.546	9638.94
666.737	9374.75
666.929	9489.43
667.12	9393.18
667.311	9436.19
667.503	9337.88
667.694	9391.13
667.885	9210.91
668.077	9137.18
668.268	8965.15
668.459	9100.32
668.651	9100.32
668.842	9128.99
669.033	8858.66
669.224	8803.36
669.416	9036.83
669.607	8989.73
669.798	8711.21
669.989	8827.94
670.18	8809.51
670.371	8758.31
670.563	8535.08
670.754	8743.97
670.945	8633.38
671.136	8621.1
671.327	8229.93
671.518	8297.52
671.709	8500.26
671.9	8442.92
672.091	8361
672.282	8406.06
672.473	8123.44
672.664	8270.89
672.855	8078.38
673.046	8082.48
673.237	8096.82
673.428	8100.91
673.619	8049.71
673.809	8035.38
674	7812.15
674.191	8023.09
674.382	7949.36
674.573	7855.15
674.764	7806
674.954	7898.16
675.145	7736.37
675.336	7947.31
675.527	7660.6
675.717	7683.13
675.908	7494.71
676.099	7523.38
676.289	7625.78
676.48	7666.74
676.671	7601.21
676.861	7658.55
677.052	7361.59
677.243	7398.46
677.433	7427.13
677.624	7275.58
677.814	7410.75
678.005	7394.36
678.195	7371.83
678.386	7201.85
678.576	7150.65
678.767	7173.18
678.957	7160.89
679.148	7306.3
679.338	7314.49
679.529	7066.69
679.719	7089.21
679.909	7171.13
680.1	7130.17
680.29	7089.21
680.481	7025.73
680.671	7132.22
680.861	6999.1
681.052	7021.63
681.242	6861.89
681.432	7148.61
681.622	6741.06
681.813	6782.02
682.003	6962.24
682.193	6863.94
682.383	6958.14
682.573	7011.39
682.764	6968.38
682.954	6861.89
683.144	6880.32
683.334	6773.83
683.524	6589.51
683.714	6599.75
683.904	6579.27
684.094	6620.23
684.284	6835.27
684.474	6779.97
684.664	6720.58
684.854	6671.43
685.044	6540.36
685.234	6566.98
685.424	6517.83
685.614	6540.36
685.804	6485.06
685.994	6523.98
686.184	6339.66
686.374	6411.34
686.564	6433.86
686.753	6415.43
686.943	6233.16
687.133	6349.9
687.323	6298.7
687.513	6345.8
687.702	6425.67
687.892	6184.01
688.082	6294.6
688.272	6171.72
688.461	6274.12
688.651	6095.95
688.841	6298.7
689.03	6032.46
689.22	6104.14
689.41	6009.93
689.599	5966.93
689.789	6130.77
689.979	5950.54
690.168	5954.64
690.358	5882.96
690.547	5973.07
690.737	5758.03
690.926	5852.24
691.116	5917.78
691.305	5946.45
691.495	5850.19
691.684	5731.41
691.874	5774.42
692.063	5758.03
692.252	5641.3
692.442	5811.28
692.631	5659.73
692.82	5870.67
693.01	5778.51
693.199	5737.56
693.388	5516.37
693.578	5698.64
693.767	5620.82
693.956	5665.88
694.146	5456.98
694.335	5520.47
694.524	5485.65
694.713	5536.85
694.902	5495.89
695.092	5354.58
695.281	5336.15
695.47	5469.27
695.659	5248.09
695.848	5422.17
696.037	5420.12
696.226	5508.18
696.415	5344.35
696.604	5442.65
696.793	5239.9
696.982	5246.04
697.171	5188.7
697.36	5280.86
697.549	5178.46
697.738	5225.56
697.927	5092.44
698.116	5170.27
698.305	5139.55
698.494	5026.91
698.683	5217.37
698.872	5108.83
699.061	5012.57
699.25	5125.21
699.438	4977.76
699.627	4914.27
699.816	4928.61
700.005	4813.92
700.193	4975.71
700.382	4758.63
700.571	4838.5
700.76	4861.02
700.948	4791.39
701.137	4940.9
701.326	4826.21
701.514	4846.69
701.703	4883.55
701.892	4824.16
702.08	4787.3
702.269	4865.12
702.457	4795.49
702.646	4732
702.834	4686.95
703.023	4680.8
703.212	4633.7
703.4	4684.9
703.589	4672.61
703.777	4666.47
703.965	4631.65
704.154	4623.46
704.342	4541.54
704.531	4631.65
704.719	4418.66
704.907	4697.19
705.096	4516.97
705.284	4543.59
705.472	4476.01
705.661	4496.49
705.849	4314.22
706.037	4441.19
706.226	4525.16
706.414	4537.45
706.602	4349.03
706.79	4361.32
706.979	4230.25
707.167	4381.8
707.355	4377.7
707.543	4246.63
707.731	4316.26
707.919	4254.83
708.107	4183.15
708.296	4297.83
708.484	4346.98
708.672	4267.11
708.86	4162.67
709.048	4172.91
709.236	4265.07
709.424	4310.12
709.612	4136.04
709.8	4172.91
709.988	4117.61
710.176	4093.04
710.364	4123.76
710.551	4056.17
710.739	3947.63
710.927	4072.56
711.115	4017.26
711.303	4002.93
711.491	3968.11
711.679	3912.81
711.866	4082.8
712.054	3898.48
712.242	3837.04
712.43	4033.65
712.617	4017.26
712.805	3918.96
712.993	3886.19
713.181	3822.7
713.368	3710.07
713.556	3740.79
713.744	3773.55
713.931	3935.34
714.119	3714.16
714.306	3837.04
714.494	3714.16
714.682	3808.37
714.869	3683.44
715.057	3746.93
715.244	3656.82
715.432	3701.87
715.619	3837.04
715.807	3574.9
715.994	3626.1
716.182	3658.87
716.369	3693.68
716.556	3607.67
716.744	3533.94
716.931	3591.28
717.119	3585.14
717.306	3560.56
717.493	3411.06
717.681	3558.52
717.868	3509.37
718.055	3550.32
718.242	3429.49
718.43	3449.97
718.617	3353.72
718.804	3452.02
718.991	3329.14
719.179	3339.38
719.366	3492.98
719.553	3558.52
719.74	3431.54
719.927	3419.25
720.114	3304.57
720.301	3230.84
720.488	3243.13
720.676	3325.05
720.863	3447.93
721.05	3253.37
721.237	3355.77
721.424	3226.75
721.611	3220.6
721.798	3255.42
721.985	3224.7
722.172	3165.31
722.358	3165.31
722.545	3245.18
722.732	3253.37
722.919	3202.17
723.106	3054.72
723.293	3112.06
723.48	3001.47
723.667	3261.56
723.853	2989.18
724.04	3093.63
724.227	3202.17
724.414	2987.13
724.6	3157.11
724.787	2989.18
724.974	3060.86
725.161	3077.24
725.347	2923.65
725.534	3060.86
725.72	3067
725.907	3071.1
726.094	2960.51
726.28	2905.21
726.467	2937.98
726.653	2878.59
726.84	2997.37
727.027	2964.61
727.213	2905.21
727.4	3110.01
727.586	2935.93
727.773	2923.65
727.959	2925.69
728.145	3003.52
728.332	2880.64
728.518	2831.49
728.705	2817.15
728.891	2798.72
729.077	2952.32
729.264	2772.1
729.45	2935.93
729.636	2903.17
729.823	2714.75
730.009	2755.71
730.195	2841.73
730.382	2739.33
730.568	2815.1
730.754	2735.23
730.94	2731.14
731.126	2759.81
731.313	2886.78
731.499	2647.17
731.685	2755.71
731.871	2765.95
732.057	2643.07
732.243	2718.85
732.429	2673.79
732.615	2575.49
732.801	2677.89
732.987	2643.07
733.173	2684.03
733.359	2638.98
733.545	2587.78
733.731	2512
733.917	2702.47
734.103	2591.88
734.289	2602.11
734.475	2667.65
734.661	2608.26
734.847	2561.16
735.033	2569.35
735.219	2679.94
735.404	2456.71
735.59	2530.44
735.776	2462.85
735.962	2565.25
736.148	2534.53
736.333	2501.76
736.519	2444.42
736.705	2563.2
736.89	2436.23
737.076	2528.39
737.262	2452.61
737.447	2497.67
737.633	2483.33
737.819	2520.2
738.004	2323.59
738.19	2444.42
738.375	2430.09
738.561	2501.76
738.747	2362.5
738.932	2413.7
739.118	2364.55
739.303	2323.59
739.489	2329.74
739.674	2389.13
739.859	2208.9
740.045	2399.37
740.23	2282.63
740.416	2155.66
740.601	2239.62
740.786	2184.33
740.972	2241.67
741.157	2239.62
741.342	2206.86
741.528	2233.48
741.713	2270.34
741.898	2178.19
742.084	2210.95
742.269	2329.74
742.454	2270.34
742.639	2157.71
742.824	2100.36
743.01	2223.24
743.195	2231.43
743.38	2360.45
743.565	2114.7
743.75	2110.6
743.935	2034.83
744.12	2149.51
744.305	2006.16
744.49	2075.79
744.675	2071.69
744.86	2075.79
745.045	1993.87
745.23	2045.07
745.415	1926.29
745.6	2094.22
745.785	2092.17
745.97	2028.68
746.155	1977.48
746.34	1905.81
746.525	1879.18
746.71	2092.17
746.895	2002.06
747.079	1928.33
747.264	1834.13
747.449	1830.03
747.634	1881.23
747.819	1852.56
748.003	1879.18
748.188	1854.61
748.373	1789.07
748.557	1817.74
748.742	1873.04
748.927	1911.95
749.111	1793.17
749.296	1846.41
749.481	1813.65
749.665	1741.97
749.85	1674.39
750.034	1625.23
750.219	1684.62
750.404	1668.24
750.588	1713.3
750.773	1731.73
750.957	1750.16
751.141	1674.39
751.326	1717.39
751.51	1600.66
751.695	1649.81
751.879	1520.79
752.064	1637.52
752.248	1674.39
752.432	1569.94
752.617	1600.66
752.801	1592.47
752.985	1653.91
753.17	1522.84
753.354	1563.79
753.538	1535.12
753.722	1588.37
753.907	1608.85
754.091	1436.82
754.275	1498.26
754.459	1408.15
754.643	1445.01
754.828	1490.07
755.012	1438.87
755.196	1387.67
755.38	1477.78
755.564	1395.86
755.748	1428.63
755.932	1352.85
756.116	1377.43
756.3	1318.04
756.484	1313.94
756.668	1449.11
756.852	1301.65
757.036	1356.95
757.22	1330.33
757.404	1256.6
757.588	1289.37
757.772	1383.57
757.956	1264.79
758.14	1221.78
758.323	1219.74
758.507	1193.11
758.691	1199.26
758.875	1293.46
759.059	1258.65
759.242	1346.71
759.426	1272.98
759.61	1127.58
759.794	1256.6
759.977	1209.5
760.161	1363.09
760.345	1299.61
760.528	1223.83
760.712	1174.68
760.895	1100.95
761.079	1111.19
761.263	1068.19
761.446	1197.21
761.63	1119.39
761.813	1234.07
761.997	1143.96
762.18	1143.96
762.364	1160.34
762.547	1103
762.731	1232.02
762.914	1057.95
763.098	1082.52
763.281	1078.43
763.464	1166.49
763.648	1084.57
763.831	1043.61
764.015	1092.76
764.198	1059.99
764.381	1150.11
764.564	1092.76
764.748	1094.81
764.931	1076.38
765.114	990.36
765.297	992.41
765.481	1084.57
765.664	1025.18
765.847	1053.85
766.03	1076.38
766.213	1037.47
766.397	1062.04
766.58	998.56
766.763	1019.04
766.946	978.08
767.129	1010.84
767.312	961.69
767.495	1062.04
767.678	1010.84
767.861	1035.42
768.044	990.36
768.227	984.22
768.41	949.4
768.593	986.27
768.776	953.5
768.959	1043.61
769.142	1010.84
769.324	941.21
769.507	896.16
769.69	969.88
769.873	900.25
770.056	1043.61
770.239	939.16
770.421	847.01
770.604	1010.84
770.787	912.54
770.97	971.93
771.152	904.35
771.335	982.17
771.518	914.59
771.7	914.59
771.883	967.84
772.066	994.46
772.248	865.44
772.431	904.35
772.613	810.14
772.796	912.54
772.978	871.58
773.161	955.55
773.343	926.88
773.526	857.25
773.708	791.71
773.891	797.85
774.073	781.47
774.256	885.92
774.438	863.39
774.621	756.9
774.803	887.97
774.985	756.9
775.168	791.71
775.35	787.61
775.532	808.09
775.715	746.66
775.897	887.97
776.079	873.63
776.261	810.14
776.444	836.77
776.626	804
776.808	742.56
776.99	765.09
777.173	777.37
777.355	742.56
777.537	767.13
777.719	742.56
777.901	722.08
778.083	650.4
778.265	664.74
778.447	707.74
778.629	670.88
778.811	642.21
778.993	677.02
779.175	744.61
779.357	691.36
779.539	646.3
779.721	597.15
779.903	677.02
780.085	631.97
780.267	617.63
780.449	642.21
780.631	646.3
780.812	623.78
780.994	648.35
781.176	644.26
781.358	523.43
781.54	631.97
781.721	709.79
781.903	576.67
782.085	674.98
782.267	715.94
782.448	521.38
782.63	533.67
782.812	658.59
782.993	554.15
783.175	613.54
783.357	550.05
783.538	484.52
783.72	560.29
783.901	541.86
784.083	543.91
784.264	560.29
784.446	550.05
784.627	486.56
784.809	578.72
784.99	529.57
785.172	580.77
785.353	576.67
785.535	457.89
785.716	494.76
785.897	537.76
786.079	498.85
786.26	548
786.441	515.23
786.623	480.42
786.804	439.46
786.985	461.99
787.167	595.11
787.348	488.61
787.529	466.08
787.71	439.46
787.891	548
788.073	470.18
788.254	423.08
788.435	568.48
788.616	445.6
788.797	357.54
788.978	455.84
789.159	513.19
789.34	455.84
789.522	414.88
789.703	392.36
789.884	478.37
790.065	330.92
790.246	478.37
790.427	429.22
790.607	394.4
790.788	439.46
790.969	361.64
791.15	429.22
791.331	298.15
791.512	382.12
791.693	453.8
791.874	392.36
792.054	502.95
792.235	359.59
792.416	330.92
792.597	314.53
792.778	418.98
792.958	363.69
793.139	412.84
793.32	461.99
793.5	324.77
793.681	500.9
793.862	341.16
794.042	390.31
794.223	324.77
794.404	314.53
794.584	226.47
794.765	363.69
794.945	365.73
795.126	429.22
795.306	302.25
795.487	367.78
795.667	365.73
795.848	390.31
796.028	361.64
796.209	347.3
796.389	287.91
796.57	318.63
796.75	259.24
796.93	298.15
797.111	146.6
797.291	384.16
797.471	421.03
797.652	249
797.832	326.82
798.012	279.72
798.192	310.44
798.373	253.09
798.553	375.97
798.733	316.58
798.913	298.15
799.093	265.38
799.274	314.53
799.454	316.58
799.634	343.21
799.814	326.82
799.994	271.53
800.174	263.33
800.354	242.85
800.534	259.24
800.714	335.01
800.894	306.34
801.074	306.34
801.254	265.38
801.434	314.53
801.614	208.04
801.794	224.42
801.974	1051.8
802.154	236.71
802.334	234.66
802.514	183.46
802.693	314.53
802.873	249
803.053	289.96
803.233	208.04
803.413	195.75
803.592	267.43
803.772	240.81
803.952	287.91
804.131	212.14
804.311	273.57
804.491	244.9
804.67	308.39
804.85	283.81
805.03	339.11
805.209	341.16
805.389	193.7
805.568	240.81
805.748	281.77
805.928	253.09
806.107	345.25
806.287	199.85
806.466	343.21
806.646	285.86
806.825	220.33
807.004	169.13
807.184	244.9
807.363	249
807.543	242.85
807.722	259.24
807.901	175.27
808.081	208.04
808.26	97.45
808.439	201.9
808.619	253.09
808.798	267.43
808.977	158.89
809.156	244.9
809.336	265.38
809.515	201.9
809.694	175.27
809.873	201.9
810.052	177.32
810.231	210.09
810.411	253.09
810.59	232.62
810.769	128.17
810.948	208.04
811.127	126.12
811.306	232.62
811.485	142.5
811.664	249
811.843	150.7
812.022	158.89
812.201	97.45
812.38	162.98
812.559	158.89
812.737	201.9
812.916	122.02
813.095	228.52
813.274	185.51
813.453	208.04
813.632	216.23
813.811	187.56
813.989	167.08
814.168	212.14
814.347	103.59
814.526	232.62
814.704	167.08
814.883	228.52
815.062	122.02
815.24	177.32
815.419	124.07
815.598	169.13
815.776	91.31
815.955	142.5
816.133	58.54
816.312	199.85
816.49	167.08
816.669	208.04
816.847	162.98
817.026	167.08
817.204	160.94
817.383	154.79
817.561	101.55
817.74	113.83
817.918	150.7
818.097	152.74
818.275	113.83
818.453	193.7
818.632	136.36
818.81	148.65
818.988	58.54
819.167	81.07
819.345	173.22
819.523	144.55
819.701	193.7
819.879	175.27
820.058	160.94
820.236	126.12
820.414	171.18
820.592	154.79
820.77	72.87
820.948	117.93
821.127	158.89
821.305	79.02
821.483	113.83
821.661	179.37
821.839	126.12
822.017	109.74
822.195	56.49
822.373	150.7
822.551	91.31
822.729	158.89
822.907	171.18
823.085	226.47
823.262	146.6
823.44	113.83
823.618	97.45
823.796	136.36
823.974	36.01
824.152	111.78
824.329	68.78
824.507	15.53
824.685	126.12
824.863	115.88
825.04	146.6
825.218	101.55
825.396	119.98
825.574	109.74
825.751	68.78
825.929	140.46
826.107	60.59
826.284	128.17
826.462	113.83
826.639	93.35
826.817	74.92
826.994	128.17
827.172	46.25
827.349	52.39
827.527	101.55
827.704	52.39
827.882	126.12
828.059	64.68
828.237	85.16
828.414	199.85
828.591	87.21
828.769	107.69
828.946	42.15
829.124	54.44
829.301	218.28
829.478	31.91
829.655	111.78
829.833	56.49
830.01	76.97
830.187	72.87
830.364	109.74
830.542	119.98
830.719	60.59
830.896	74.92
831.073	36.01
831.25	142.5
831.427	89.26
831.604	93.35
831.782	29.87
831.959	203.94
832.136	119.98
832.313	117.93
832.49	81.07
832.667	103.59
832.844	101.55
833.021	160.94
833.198	50.35
833.374	87.21
833.551	95.4
833.728	126.12
833.905	144.55
834.082	11.43
834.259	109.74
834.436	148.65
834.612	76.97
834.789	79.02
834.966	97.45
835.143	109.74
835.319	23.72
835.496	27.82
835.673	101.55
835.85	201.9
836.026	107.69
836.203	117.93
836.38	56.49
836.556	23.72
836.733	68.78
836.909	126.12
837.086	62.63
837.262	103.59
837.439	79.02
837.616	29.87
837.792	93.35
837.968	101.55
838.145	81.07
838.321	103.59
838.498	185.51
838.674	119.98
838.851	91.31
839.027	46.25
839.203	158.89
839.38	70.83
839.556	-2.9
839.732	85.16
839.909	119.98
840.085	62.63
840.261	27.82
840.437	70.83
840.614	115.88
840.79	9.39
840.966	91.31
841.142	117.93
841.318	144.55
841.494	136.36
841.671	83.11
841.847	109.74
842.023	-2.9
842.199	76.97
842.375	36.01
842.551	29.87
842.727	93.35
842.903	103.59
843.079	87.21
843.255	140.46
843.431	119.98
843.607	122.02
843.783	27.82
843.959	64.68
844.134	81.07
844.31	117.93
844.486	70.83
844.662	76.97
844.838	62.63
845.013	107.69
845.189	95.4
845.365	60.59
845.541	15.53
845.716	-0.85
845.892	36.01
846.068	56.49
846.244	60.59
846.419	54.44
846.595	-76.63
846.77	27.82
846.946	124.07
847.122	15.53
847.297	25.77
847.473	128.17
847.648	70.83
847.824	60.59
847.999	46.25
848.175	42.15
848.35	50.35
848.526	87.21
848.701	148.65
848.876	36.01
849.052	68.78
849.227	79.02
849.403	56.49
849.578	27.82
849.753	46.25
849.929	42.15
850.104	93.35
850.279	79.02
850.454	113.83
850.63	21.67
850.805	15.53
850.98	95.4
851.155	31.91
851.33	93.35
851.505	-2.9
851.681	76.97
851.856	31.91
852.031	-13.14
852.206	85.16
852.381	38.06
852.556	70.83
852.731	60.59
852.906	52.39
853.081	-13.14
853.256	64.68
853.431	27.82
853.606	-50
853.781	11.43
853.956	-82.77
854.131	21.67
854.305	7.34
854.48	44.2
854.655	27.82
854.83	5.29
855.005	46.25
855.18	99.5
855.354	29.87
855.529	-13.14
855.704	42.15
855.879	21.67
856.053	62.63
856.228	97.45
856.403	21.67
856.577	3.24
856.752	29.87
856.926	126.12
857.101	46.25
857.276	-41.81
857.45	68.78
857.625	54.44
857.799	42.15
857.974	64.68
858.148	-66.39
858.323	46.25
858.497	-21.33
858.672	-80.72
858.846	-66.39
859.02	93.35
859.195	76.97
859.369	-29.52
859.543	-56.15
859.718	-47.96
859.892	11.43
860.066	13.48
860.241	64.68
860.415	9.39
860.589	36.01
860.763	54.44
860.938	-21.33
861.112	52.39
861.286	68.78
861.46	60.59
861.634	21.67
861.808	97.45
861.982	-13.14
862.157	52.39
862.331	-4.95
862.505	-25.43
862.679	-13.14
862.853	76.97
863.027	81.07
863.201	85.16
863.375	27.82
863.549	101.55
863.722	85.16
863.896	128.17
864.07	60.59
864.244	48.3
864.418	-4.95
864.592	-9.05
864.766	3.24
864.939	36.01
865.113	19.63
865.287	42.15
865.461	-82.77
865.634	36.01
865.808	15.53
865.982	-9.05
866.156	-29.52
866.329	3.24
866.503	68.78
866.676	44.2
866.85	21.67
867.024	-45.91
867.197	13.48
867.371	109.74
867.544	19.63
867.718	-66.39
867.891	9.39
868.065	38.06
868.238	19.63
868.412	76.97
868.585	3.24
868.759	7.34
868.932	-39.76
869.105	66.73
869.279	81.07
869.452	-43.86
869.625	21.67
869.799	11.43
869.972	52.39
870.145	-15.19
870.319	38.06
870.492	-37.72
870.665	27.82
870.838	15.53
871.011	19.63
871.185	-11.09
871.358	3.24
871.531	40.11
871.704	-21.33
871.877	56.49
872.05	85.16
872.223	-41.81
872.396	76.97
872.569	44.2
872.742	-45.91
872.915	-0.85
873.088	7.34
873.261	-2.9
873.434	31.91
873.607	27.82
873.78	38.06
873.953	11.43
874.126	72.87
874.299	9.39
874.471	15.53
874.644	19.63
874.817	1.19
874.99	138.41
875.163	-11.09
875.335	68.78
875.508	11.43
875.681	58.54
875.853	-31.57
876.026	76.97
876.199	70.83
876.371	-11.09
876.544	-27.48
876.717	-17.24
876.889	19.63
877.062	54.44
877.234	3.24
877.407	44.2
877.579	31.91
877.752	27.82
877.924	7.34
878.097	36.01
878.269	17.58
878.442	48.3
878.614	-11.09
878.786	3.24
878.959	58.54
879.131	19.63
879.303	-158.55
879.476	13.48
879.648	36.01
879.82	60.59
879.993	-43.86
880.165	-9.05
880.337	-39.76
880.509	42.15
880.681	-52.05
880.854	27.82
881.026	52.39
881.198	103.59
881.37	44.2
881.542	-29.52
881.714	38.06
881.886	46.25
882.058	-21.33
882.23	46.25
882.402	5.29
882.574	-13.14
882.746	-4.95
882.918	175.27
883.09	56.49
883.262	19.63
883.434	-21.33
883.606	-9.05
883.778	-23.38
883.95	150.7
884.122	-4.95
884.293	-19.29
884.465	-29.52
884.637	48.3
884.809	76.97
884.98	68.78
885.152	46.25
885.324	68.78
885.496	46.25
885.667	11.43
885.839	54.44
886.011	68.78
886.182	3.24
886.354	3.24
886.525	-37.72
886.697	-0.85
886.869	-4.95
887.04	-15.19
887.212	11.43
887.383	56.49
887.555	-0.85
887.726	29.87
887.897	23.72
888.069	-15.19
888.24	31.91
888.412	23.72
888.583	-39.76
888.754	-35.67
888.926	54.44
889.097	-70.48
889.268	-62.29
889.44	13.48
889.611	-58.2
889.782	1.19
889.953	27.82
890.125	126.12
890.296	-4.95
890.467	-60.24
890.638	19.63
890.809	33.96
890.98	11.43
891.151	-9.05
891.323	27.82
891.494	27.82
891.665	60.59
891.836	-97.11
892.007	-2.9
892.178	21.67
892.349	9.39
892.52	74.92
892.691	46.25
892.862	60.59
893.032	-15.19
893.203	-13.14
893.374	-62.29
893.545	38.06
893.716	-45.91
893.887	36.01
894.057	-33.62
894.228	93.35
894.399	-68.44
894.57	-19.29
894.74	-37.72
894.911	27.82
895.082	44.2
895.253	-60.24
895.423	62.63
895.594	-21.33
895.764	-0.85
895.935	-41.81
896.106	40.11
896.276	7.34
896.447	-54.1
896.617	21.67
896.788	-56.15
896.958	-2.9
897.129	-37.72
897.299	-9.05
897.47	9.39
897.64	58.54
897.81	-29.52
897.981	-54.1
898.151	44.2
898.322	-4.95
898.492	-41.81
898.662	31.91
898.832	5.29
899.003	42.15
899.173	60.59
899.343	7.34
899.513	-74.58
