Data from USB4F104151__261__14-34-31-705.txt Node

Date: Thu Mar 13 14:34:31 EDT 2025
User: louis
Spectrometer: USB4F10415
Trigger mode: 4
Integration Time (sec): 2.500000E-2
Scans to average: 1
Electric dark correction enabled: true
Nonlinearity correction enabled: false
Boxcar width: 0
XAxis mode: Wavelengths
Number of Pixels in Spectrum: 3648
>>>>>Begin Spectral Data<<<<<
178.204	-104.79
178.424	-104.79
178.644	-104.79
178.864	-217.43
179.084	-170.32
179.304	-51.54
179.524	26.28
179.744	-22.87
179.964	13.99
180.184	42.67
180.404	63.15
180.624	-4.44
180.844	-2.39
181.064	-63.83
181.283	-35.16
181.503	-61.78
181.723	95.91
181.943	-6.49
182.163	32.43
182.383	-2.39
182.602	44.71
182.822	59.05
183.042	42.67
183.262	1.71
183.482	3.75
183.701	-24.92
183.921	-72.02
184.141	61.1
184.361	95.91
184.58	-14.68
184.8	9.9
185.02	34.47
185.239	67.24
185.459	-31.06
185.679	34.47
185.898	26.28
186.118	106.15
186.338	26.28
186.557	44.71
186.777	63.15
186.997	20.14
187.216	42.67
187.436	65.19
187.655	50.86
187.875	69.29
188.095	38.57
188.314	-26.96
188.534	128.68
188.753	50.86
188.973	69.29
189.192	149.16
189.412	59.05
189.631	18.09
189.851	120.49
190.07	116.39
190.29	-39.25
190.509	11.95
190.729	38.57
190.948	52.91
191.168	149.16
191.387	-4.44
191.607	71.34
191.826	-65.88
192.045	26.28
192.265	30.38
192.484	63.15
192.704	30.38
192.923	-96.6
193.142	167.59
193.362	28.33
193.581	89.77
193.8	85.67
194.02	136.87
194.239	75.43
194.458	104.11
194.678	18.09
194.897	-51.54
195.116	16.04
195.335	-22.87
195.555	22.19
195.774	61.1
195.993	63.15
196.212	83.63
196.432	34.47
196.651	20.14
196.87	110.25
197.089	75.43
197.308	22.19
197.528	83.63
197.747	-8.53
197.966	54.95
198.185	124.58
198.404	-22.87
198.623	100.01
198.842	79.53
199.062	83.63
199.281	38.57
199.5	83.63
199.719	26.28
199.938	-2.39
200.157	20.14
200.376	24.23
200.595	50.86
200.814	34.47
201.033	18.09
201.252	169.64
201.471	1.71
201.69	93.87
201.909	20.14
202.128	104.11
202.347	38.57
202.566	-39.25
202.785	-67.92
203.004	-14.68
203.223	108.2
203.442	54.95
203.661	1.71
203.879	11.95
204.098	38.57
204.317	59.05
204.536	38.57
204.755	26.28
204.974	42.67
205.193	69.29
205.411	159.4
205.63	11.95
205.849	-4.44
206.068	24.23
206.287	59.05
206.505	100.01
206.724	1.71
206.943	50.86
207.162	34.47
207.381	79.53
207.599	-39.25
207.818	-18.77
208.037	3.75
208.255	28.33
208.474	81.58
208.693	28.33
208.911	61.1
209.13	26.28
209.349	42.67
209.567	28.33
209.786	118.44
210.005	63.15
210.223	50.86
210.442	-4.44
210.661	145.06
210.879	1.71
211.098	83.63
211.316	42.67
211.535	85.67
211.753	83.63
211.972	69.29
212.191	-22.87
212.409	50.86
212.628	57
212.846	-16.73
213.065	36.52
213.283	22.19
213.502	5.8
213.72	67.24
213.938	16.04
214.157	46.76
214.375	75.43
214.594	44.71
214.812	67.24
215.031	69.29
215.249	34.47
215.467	26.28
215.686	28.33
215.904	13.99
216.122	36.52
216.341	-6.49
216.559	40.62
216.778	59.05
216.996	50.86
217.214	9.9
217.432	-18.77
217.651	-20.82
217.869	5.8
218.087	59.05
218.306	13.99
218.524	110.25
218.742	13.99
218.96	128.68
219.179	46.76
219.397	-14.68
219.615	124.58
219.833	42.67
220.051	9.9
220.27	44.71
220.488	71.34
220.706	26.28
220.924	-0.34
221.142	26.28
221.36	34.47
221.578	26.28
221.796	85.67
222.015	67.24
222.233	24.23
222.451	73.39
222.669	-53.59
222.887	155.3
223.105	-14.68
223.323	26.28
223.541	7.85
223.759	61.1
223.977	11.95
224.195	116.39
224.413	34.47
224.631	-41.3
224.849	5.8
225.067	112.3
225.285	102.06
225.503	24.23
225.721	-55.64
225.939	-14.68
226.157	108.2
226.375	145.06
226.592	28.33
226.81	57
227.028	83.63
227.246	69.29
227.464	3.75
227.682	77.48
227.9	67.24
228.117	32.43
228.335	67.24
228.553	18.09
228.771	34.47
228.989	59.05
229.206	30.38
229.424	-14.68
229.642	-14.68
229.86	38.57
230.077	42.67
230.295	83.63
230.513	42.67
230.731	69.29
230.948	108.2
231.166	63.15
231.384	-14.68
231.601	-2.39
231.819	59.05
232.037	-6.49
232.254	11.95
232.472	18.09
232.689	-63.83
232.907	89.77
233.125	89.77
233.342	26.28
233.56	3.75
233.777	52.91
233.995	30.38
234.213	91.82
234.43	108.2
234.648	44.71
234.865	-4.44
235.083	11.95
235.3	32.43
235.518	85.67
235.735	77.48
235.953	34.47
236.17	69.29
236.388	30.38
236.605	-6.49
236.822	106.15
237.04	42.67
237.257	-2.39
237.475	-14.68
237.692	128.68
237.909	83.63
238.127	-35.16
238.344	71.34
238.562	46.76
238.779	-47.44
238.996	42.67
239.214	-10.58
239.431	69.29
239.648	-72.02
239.865	34.47
240.083	52.91
240.3	-63.83
240.517	52.91
240.735	149.16
240.952	13.99
241.169	30.38
241.386	18.09
241.603	13.99
241.821	108.2
242.038	18.09
242.255	9.9
242.472	-20.82
242.689	11.95
242.907	75.43
243.124	79.53
243.341	3.75
243.558	63.15
243.775	-29.01
243.992	-55.64
244.209	42.67
244.426	91.82
244.643	91.82
244.86	50.86
245.078	20.14
245.295	46.76
245.512	1.71
245.729	75.43
245.946	44.71
246.163	59.05
246.38	-6.49
246.597	-22.87
246.814	95.91
247.031	-14.68
247.248	26.28
247.464	63.15
247.681	40.62
247.898	-53.59
248.115	67.24
248.332	-22.87
248.549	26.28
248.766	91.82
248.983	59.05
249.2	104.11
249.417	100.01
249.633	1.71
249.85	11.95
250.067	63.15
250.284	89.77
250.501	-14.68
250.717	42.67
250.934	11.95
251.151	28.33
251.368	-14.68
251.585	24.23
251.801	108.2
252.018	75.43
252.235	34.47
252.451	28.33
252.668	28.33
252.885	-22.87
253.102	42.67
253.318	100.01
253.535	-39.25
253.752	73.39
253.968	13.99
254.185	11.95
254.401	75.43
254.618	-4.44
254.835	42.67
255.051	108.2
255.268	91.82
255.484	52.91
255.701	-2.39
255.917	97.96
256.134	67.24
256.351	9.9
256.567	18.09
256.784	-0.34
257	-2.39
257.217	24.23
257.433	1.71
257.65	83.63
257.866	93.87
258.082	9.9
258.299	22.19
258.515	18.09
258.732	-18.77
258.948	54.95
259.165	67.24
259.381	9.9
259.597	83.63
259.814	75.43
260.03	3.75
260.246	-31.06
260.463	16.04
260.679	52.91
260.895	22.19
261.112	95.91
261.328	46.76
261.544	52.91
261.761	26.28
261.977	-72.02
262.193	-2.39
262.409	132.78
262.626	20.14
262.842	-6.49
263.058	-18.77
263.274	-8.53
263.49	26.28
263.707	61.1
263.923	42.67
264.139	1.71
264.355	34.47
264.571	110.25
264.787	87.72
265.004	52.91
265.22	34.47
265.436	3.75
265.652	-14.68
265.868	44.71
266.084	48.81
266.3	13.99
266.516	22.19
266.732	1.71
266.948	120.49
267.164	-29.01
267.38	1.71
267.596	-76.12
267.812	91.82
268.028	91.82
268.244	-41.3
268.46	-22.87
268.676	61.1
268.892	32.43
269.108	-2.39
269.324	-12.63
269.54	-29.01
269.756	75.43
269.972	-92.5
270.188	-20.82
270.403	-31.06
270.619	97.96
270.835	36.52
271.051	36.52
271.267	22.19
271.483	16.04
271.698	7.85
271.914	18.09
272.13	-18.77
272.346	-2.39
272.562	13.99
272.777	26.28
272.993	83.63
273.209	7.85
273.425	100.01
273.64	44.71
273.856	65.19
274.072	18.09
274.287	-29.01
274.503	28.33
274.719	75.43
274.934	13.99
275.15	3.75
275.366	50.86
275.581	50.86
275.797	-14.68
276.012	36.52
276.228	-39.25
276.444	-31.06
276.659	165.54
276.875	3.75
277.09	16.04
277.306	20.14
277.521	3.75
277.737	18.09
277.952	93.87
278.168	73.39
278.383	9.9
278.599	42.67
278.814	124.58
279.03	30.38
279.245	18.09
279.461	38.57
279.676	61.1
279.892	79.53
280.107	-14.68
280.322	-12.63
280.538	67.24
280.753	13.99
280.969	124.58
281.184	-12.63
281.399	59.05
281.615	63.15
281.83	42.67
282.045	-10.58
282.26	46.76
282.476	-0.34
282.691	85.67
282.906	59.05
283.122	79.53
283.337	42.67
283.552	85.67
283.767	1.71
283.983	-31.06
284.198	46.76
284.413	26.28
284.628	-31.06
284.843	61.1
285.058	63.15
285.274	-6.49
285.489	-31.06
285.704	110.25
285.919	-14.68
286.134	36.52
286.349	-24.92
286.564	61.1
286.779	46.76
286.995	-35.16
287.21	-20.82
287.425	28.33
287.64	46.76
287.855	1.71
288.07	-61.78
288.285	42.67
288.5	83.63
288.715	34.47
288.93	54.95
289.145	83.63
289.36	18.09
289.575	-14.68
289.79	54.95
290.004	26.28
290.219	18.09
290.434	1.71
290.649	9.9
290.864	-45.4
291.079	9.9
291.294	34.47
291.509	79.53
291.724	34.47
291.938	-31.06
292.153	67.24
292.368	9.9
292.583	22.19
292.798	24.23
293.012	89.77
293.227	46.76
293.442	34.47
293.657	128.68
293.871	124.58
294.086	13.99
294.301	40.62
294.516	26.28
294.73	1.71
294.945	-6.49
295.16	22.19
295.374	102.06
295.589	69.29
295.804	42.67
296.018	54.95
296.233	30.38
296.447	93.87
296.662	-16.73
296.877	118.44
297.091	38.57
297.306	69.29
297.52	-12.63
297.735	83.63
297.949	1.71
298.164	112.3
298.378	112.3
298.593	26.28
298.807	13.99
299.022	18.09
299.236	73.39
299.451	59.05
299.665	-4.44
299.88	34.47
300.094	-2.39
300.309	59.05
300.523	-14.68
300.737	16.04
300.952	69.29
301.166	83.63
301.381	-22.87
301.595	57
301.809	124.58
302.024	67.24
302.238	3.75
302.452	116.39
302.667	40.62
302.881	63.15
303.095	59.05
303.309	69.29
303.524	69.29
303.738	65.19
303.952	50.86
304.166	42.67
304.381	11.95
304.595	36.52
304.809	-16.73
305.023	71.34
305.237	3.75
305.452	-2.39
305.666	42.67
305.88	18.09
306.094	108.2
306.308	-24.92
306.522	87.72
306.736	42.67
306.95	-4.44
307.164	-57.68
307.379	-53.59
307.593	34.47
307.807	50.86
308.021	22.19
308.235	75.43
308.449	-6.49
308.663	44.71
308.877	52.91
309.091	38.57
309.305	116.39
309.519	-14.68
309.733	63.15
309.947	34.47
310.161	108.2
310.374	87.72
310.588	77.48
310.802	-76.12
311.016	3.75
311.23	28.33
311.444	34.47
311.658	3.75
311.872	69.29
312.085	87.72
312.299	28.33
312.513	79.53
312.727	36.52
312.941	42.67
313.154	85.67
313.368	30.38
313.582	34.47
313.796	79.53
314.009	59.05
314.223	75.43
314.437	26.28
314.651	50.86
314.864	50.86
315.078	65.19
315.292	59.05
315.505	50.86
315.719	7.85
315.933	7.85
316.146	57
316.36	-31.06
316.573	69.29
316.787	26.28
317.001	118.44
317.214	20.14
317.428	87.72
317.641	-14.68
317.855	52.91
318.068	38.57
318.282	-63.83
318.495	69.29
318.709	59.05
318.922	-22.87
319.136	67.24
319.349	116.39
319.563	5.8
319.776	69.29
319.99	83.63
320.203	42.67
320.417	30.38
320.63	42.67
320.843	130.73
321.057	9.9
321.27	13.99
321.483	11.95
321.697	173.74
321.91	73.39
322.124	7.85
322.337	102.06
322.55	16.04
322.763	67.24
322.977	42.67
323.19	9.9
323.403	50.86
323.617	22.19
323.83	85.67
324.043	5.8
324.256	13.99
324.469	18.09
324.683	71.34
324.896	69.29
325.109	50.86
325.322	-41.3
325.535	110.25
325.748	20.14
325.962	13.99
326.175	26.28
326.388	18.09
326.601	42.67
326.814	20.14
327.027	48.81
327.24	95.91
327.453	-69.97
327.666	16.04
327.879	42.67
328.092	16.04
328.305	32.43
328.518	44.71
328.731	44.71
328.944	34.47
329.157	63.15
329.37	108.2
329.583	140.97
329.796	140.97
330.009	-4.44
330.222	34.47
330.435	95.91
330.648	77.48
330.861	28.33
331.073	75.43
331.286	102.06
331.499	165.54
331.712	-18.77
331.925	46.76
332.138	48.81
332.35	57
332.563	69.29
332.776	24.23
332.989	36.52
333.202	42.67
333.414	-10.58
333.627	26.28
333.84	16.04
334.053	42.67
334.265	61.1
334.478	110.25
334.691	44.71
334.903	104.11
335.116	34.47
335.329	20.14
335.541	59.05
335.754	110.25
335.966	-22.87
336.179	20.14
336.392	65.19
336.604	-22.87
336.817	100.01
337.029	85.67
337.242	26.28
337.454	91.82
337.667	-12.63
337.88	75.43
338.092	-37.2
338.305	116.39
338.517	13.99
338.729	16.04
338.942	157.35
339.154	-20.82
339.367	-8.53
339.579	75.43
339.792	-6.49
340.004	-6.49
340.217	5.8
340.429	34.47
340.641	83.63
340.854	11.95
341.066	50.86
341.278	102.06
341.491	95.91
341.703	-2.39
341.915	73.39
342.128	91.82
342.34	16.04
342.552	42.67
342.764	50.86
342.977	52.91
343.189	124.58
343.401	26.28
343.613	38.57
343.826	26.28
344.038	1.71
344.25	75.43
344.462	54.95
344.674	18.09
344.886	-31.06
345.099	75.43
345.311	91.82
345.523	22.19
345.735	-59.73
345.947	85.67
346.159	83.63
346.371	95.91
346.583	42.67
346.795	36.52
347.007	30.38
347.219	85.67
347.431	34.47
347.643	83.63
347.855	69.29
348.067	83.63
348.279	-35.16
348.491	67.24
348.703	-22.87
348.915	36.52
349.127	59.05
349.339	50.86
349.551	38.57
349.763	40.62
349.975	32.43
350.187	106.15
350.399	124.58
350.61	104.11
350.822	26.28
351.034	71.34
351.246	69.29
351.458	63.15
351.669	91.82
351.881	57
352.093	67.24
352.305	38.57
352.517	13.99
352.728	102.06
352.94	52.91
353.152	73.39
353.363	5.8
353.575	63.15
353.787	59.05
353.999	20.14
354.21	42.67
354.422	13.99
354.633	63.15
354.845	-35.16
355.057	59.05
355.268	20.14
355.48	40.62
355.692	54.95
355.903	79.53
356.115	44.71
356.326	-6.49
356.538	106.15
356.749	91.82
356.961	112.3
357.172	106.15
357.384	54.95
357.595	202.41
357.807	91.82
358.018	-37.2
358.23	42.67
358.441	104.11
358.653	75.43
358.864	46.76
359.075	-39.25
359.287	38.57
359.498	63.15
359.709	40.62
359.921	36.52
360.132	91.82
360.344	-22.87
360.555	-24.92
360.766	42.67
360.977	-18.77
361.189	36.52
361.4	34.47
361.611	83.63
361.823	106.15
362.034	3.75
362.245	69.29
362.456	26.28
362.667	91.82
362.879	44.71
363.09	30.38
363.301	169.64
363.512	87.72
363.723	73.39
363.935	18.09
364.146	91.82
364.357	52.91
364.568	69.29
364.779	-47.44
364.99	50.86
365.201	-2.39
365.412	18.09
365.623	18.09
365.834	54.95
366.045	38.57
366.256	30.38
366.467	46.76
366.678	26.28
366.889	67.24
367.1	42.67
367.311	-6.49
367.522	42.67
367.733	38.57
367.944	65.19
368.155	18.09
368.366	34.47
368.577	30.38
368.788	173.74
368.999	28.33
369.209	91.82
369.42	145.06
369.631	67.24
369.842	71.34
370.053	59.05
370.264	69.29
370.474	59.05
370.685	16.04
370.896	13.99
371.107	114.34
371.317	59.05
371.528	-51.54
371.739	149.16
371.95	110.25
372.16	100.01
372.371	9.9
372.582	-4.44
372.792	42.67
373.003	42.67
373.214	-4.44
373.424	-14.68
373.635	30.38
373.846	124.58
374.056	69.29
374.267	46.76
374.477	36.52
374.688	9.9
374.898	122.54
375.109	28.33
375.319	28.33
375.53	75.43
375.74	30.38
375.951	46.76
376.161	22.19
376.372	100.01
376.582	153.26
376.793	50.86
377.003	-22.87
377.214	16.04
377.424	7.85
377.635	71.34
377.845	83.63
378.055	124.58
378.266	46.76
378.476	46.76
378.686	24.23
378.897	26.28
379.107	69.29
379.317	50.86
379.528	30.38
379.738	110.25
379.948	-14.68
380.158	36.52
380.369	-8.53
380.579	24.23
380.789	18.09
380.999	57
381.21	140.97
381.42	120.49
381.63	22.19
381.84	95.91
382.05	54.95
382.261	104.11
382.471	69.29
382.681	18.09
382.891	61.1
383.101	54.95
383.311	-29.01
383.521	-26.96
383.731	65.19
383.941	112.3
384.151	91.82
384.361	5.8
384.571	40.62
384.781	126.63
384.991	108.2
385.201	140.97
385.411	28.33
385.621	85.67
385.831	73.39
386.041	38.57
386.251	20.14
386.461	95.91
386.671	59.05
386.881	69.29
387.091	36.52
387.301	81.58
387.511	130.73
387.72	69.29
387.93	48.81
388.14	-35.16
388.35	20.14
388.56	102.06
388.769	85.67
388.979	102.06
389.189	52.91
389.399	11.95
389.609	100.01
389.818	116.39
390.028	67.24
390.238	116.39
390.447	48.81
390.657	11.95
390.867	-26.96
391.076	75.43
391.286	34.47
391.496	61.1
391.705	69.29
391.915	108.2
392.125	124.58
392.334	61.1
392.544	145.06
392.753	112.3
392.963	73.39
393.172	52.91
393.382	77.48
393.591	143.02
393.801	20.14
394.01	120.49
394.22	100.01
394.429	54.95
394.639	44.71
394.848	65.19
395.058	69.29
395.267	73.39
395.477	108.2
395.686	102.06
395.895	104.11
396.105	118.44
396.314	77.48
396.524	59.05
396.733	1.71
396.942	57
397.152	100.01
397.361	36.52
397.57	110.25
397.78	106.15
397.989	116.39
398.198	140.97
398.407	46.76
398.617	77.48
398.826	67.24
399.035	145.06
399.244	194.22
399.453	91.82
399.663	93.87
399.872	171.69
400.081	50.86
400.29	104.11
400.499	63.15
400.708	83.63
400.917	140.97
401.127	71.34
401.336	93.87
401.545	97.96
401.754	46.76
401.963	34.47
402.172	26.28
402.381	63.15
402.59	46.76
402.799	128.68
403.008	210.6
403.217	124.58
403.426	134.82
403.635	52.91
403.844	116.39
404.053	95.91
404.262	108.2
404.471	169.64
404.68	102.06
404.888	81.58
405.097	140.97
405.306	190.12
405.515	149.16
405.724	134.82
405.933	128.68
406.142	157.35
406.35	192.17
406.559	132.78
406.768	165.54
406.977	153.26
407.185	190.12
407.394	216.74
407.603	143.02
407.812	200.36
408.02	186.02
408.229	140.97
408.438	181.93
408.646	165.54
408.855	202.41
409.064	192.17
409.272	265.89
409.481	202.41
409.69	231.08
409.898	222.89
410.107	263.85
410.315	239.27
410.524	257.7
410.733	231.08
410.941	237.22
411.15	356.01
411.358	300.71
411.567	403.11
411.775	292.52
411.984	362.15
412.192	329.38
412.401	345.77
412.609	444.07
412.818	460.45
413.026	403.11
413.234	370.34
413.443	425.64
413.651	505.51
413.86	460.45
414.068	507.55
414.276	528.03
414.485	513.7
414.693	607.91
414.901	560.8
415.11	556.71
415.318	566.95
415.526	618.15
415.734	626.34
415.943	622.24
416.151	714.4
416.359	659.1
416.567	693.92
416.776	671.39
416.984	788.13
417.192	820.89
417.4	890.53
417.608	849.57
417.817	855.71
418.025	943.77
418.233	972.44
418.441	923.29
418.649	1003.16
418.857	1060.51
419.065	1109.66
419.273	1052.31
419.481	1058.46
419.689	1128.09
419.897	1271.45
420.105	1265.3
420.313	1236.63
420.521	1314.45
420.729	1394.33
420.937	1310.36
421.145	1461.91
421.353	1461.91
421.561	1617.55
421.769	1554.07
421.977	1656.47
422.185	1697.42
422.393	1781.39
422.601	1951.37
422.809	1822.35
423.017	1951.37
423.224	1916.56
423.432	2123.4
423.64	2029.2
423.848	2274.95
424.056	2115.21
424.263	2358.92
424.471	2295.43
424.679	2455.17
424.887	2479.75
425.094	2565.76
425.302	2578.05
425.51	2623.11
425.718	2811.52
425.925	2860.67
426.133	2764.42
426.341	2969.21
426.548	3139.19
426.756	3094.14
426.964	3327.61
427.171	3409.53
427.379	3501.69
427.586	3540.6
427.794	3671.67
428.001	3862.13
428.209	4105.84
428.417	3894.9
428.624	4228.71
428.832	4089.45
429.039	4114.03
429.247	4138.6
429.454	4603.49
429.662	4804.19
429.869	4472.42
430.076	4884.06
430.284	4769.38
430.491	4945.5
430.699	5146.2
430.906	5103.2
431.114	5121.63
431.321	5453.4
431.528	5367.38
431.736	5809.75
431.943	6237.77
432.15	5985.87
432.358	5869.14
432.565	6305.35
432.772	6149.71
432.979	6704.71
433.187	6704.71
433.394	6661.7
433.601	7358.01
433.808	7319.1
434.016	7179.84
434.223	7368.25
434.43	8001.07
434.637	7974.45
434.844	8205.87
435.052	8427.05
435.259	8349.23
435.466	8474.15
435.673	8293.93
435.88	8859.17
436.087	9489.95
436.294	9283.1
436.501	9086.5
436.708	9127.46
436.915	9809.43
437.122	9975.31
437.329	10100.24
437.537	10360.33
437.743	10470.92
437.95	10266.13
438.157	11032.07
438.364	11062.79
438.571	11130.37
438.778	11429.37
438.985	12301.81
439.192	11881.97
439.399	12140.02
439.606	11980.28
439.813	12711.4
440.02	13348.32
440.227	13092.32
440.433	13141.47
440.64	13327.84
440.847	13120.99
441.054	13706.71
441.261	14648.78
441.467	14169.55
441.674	14628.3
441.881	15119.81
442.088	15187.39
442.294	14998.98
442.501	15353.28
442.708	15623.61
442.914	16260.53
443.121	16936.36
443.328	16407.98
443.534	17675.68
443.741	17114.53
443.948	16784.81
444.154	18306.45
444.361	17962.39
444.568	17927.58
444.774	17972.63
444.981	18206.1
445.187	19010.95
445.394	19627.39
445.6	19502.47
445.807	21175.66
446.013	20292.98
446.22	21007.72
446.426	21777.76
446.633	21554.53
446.839	22658.38
447.046	21556.58
447.252	22973.77
447.459	22725.97
447.665	22707.54
447.871	23760.19
448.078	24745.27
448.284	23502.15
448.491	24272.18
448.697	25105.71
448.903	25333.03
449.11	25492.77
449.316	25171.24
449.522	25617.7
449.728	26234.14
449.935	26608.92
450.141	26428.7
450.347	27215.12
450.553	26309.91
450.76	26516.76
450.966	27485.45
451.172	27194.64
451.378	27997.44
451.584	27127.05
451.791	28163.32
451.997	27622.66
452.203	28501.24
452.409	28265.72
452.615	28028.16
452.821	26885.39
453.027	26778.9
453.233	28286.2
453.44	26848.53
453.646	27518.21
453.852	27190.54
454.058	27776.26
454.264	27032.85
454.47	27669.76
454.676	26758.42
454.882	27860.23
455.088	25746.72
455.294	25836.83
455.5	26027.29
455.705	26651.92
455.911	25627.94
456.117	24898.86
456.323	24376.63
456.529	23235.91
456.735	24024.38
456.941	23426.37
457.147	23145.8
457.352	22291.8
457.558	22074.71
457.764	22306.13
457.97	21575.01
458.176	21466.47
458.381	21157.22
458.587	20182.39
458.793	20155.77
458.999	19096.97
459.204	20491.63
459.41	20075.9
459.616	18568.59
459.821	18630.03
460.027	18560.4
460.233	18003.35
460.438	17261.99
460.644	17468.83
460.85	16709.04
461.055	16172.47
461.261	16387.5
461.466	15082.95
461.672	14583.24
461.878	15674.81
462.083	14542.28
462.289	14048.72
462.494	14015.96
462.7	13530.59
462.905	13092.32
463.111	13442.53
463.316	13491.68
463.522	13368.8
463.727	13305.31
463.932	13018.6
464.138	13110.75
464.343	13157.86
464.549	12772.84
464.754	13153.76
464.959	13080.04
465.165	12897.77
465.37	12449.26
465.575	12107.25
465.781	12527.08
465.986	12666.35
466.191	12115.44
466.397	11828.73
466.602	11234.82
466.807	11912.69
467.012	11838.97
467.218	11531.77
467.423	11363.84
467.628	11390.46
467.833	11832.82
468.038	11386.36
468.244	11208.19
468.449	11544.06
468.654	10993.15
468.859	10970.63
469.064	11017.73
469.269	10569.23
469.474	10765.83
469.679	10864.13
469.885	10454.54
470.09	10671.62
470.295	10522.12
470.5	10331.66
470.705	10313.23
470.91	10040.85
471.115	10118.67
471.32	10118.67
471.525	10143.25
471.73	9924.12
471.935	9893.4
472.139	9569.82
472.344	9444.89
472.549	9489.95
472.754	9479.71
472.959	9174.56
473.164	8988.19
473.369	8930.85
473.574	9111.07
473.778	9274.91
473.983	9084.45
474.188	8910.37
474.393	8769.06
474.598	8644.13
474.802	8367.66
475.007	8447.53
475.212	8504.87
475.417	8341.04
475.621	8082.99
475.826	8267.31
476.031	7890.48
476.235	7700.02
476.44	7892.53
476.645	7773.75
476.849	7833.14
477.054	7585.33
477.259	7398.97
477.463	7489.08
477.668	7425.59
477.872	7382.59
478.077	7360.06
478.282	7220.8
478.486	7181.89
478.691	7065.15
478.895	7026.24
479.1	6968.9
479.304	7179.84
479.509	6772.29
479.713	6964.8
479.918	6921.79
480.122	6614.6
480.326	6684.23
480.531	6927.94
480.735	6696.52
480.94	6610.5
481.144	6770.24
481.348	6497.86
481.553	6661.7
481.757	6547.01
481.961	6522.44
482.166	6710.85
482.37	6590.02
482.574	6360.65
482.778	6387.27
482.983	6755.91
483.187	6583.88
483.391	6520.39
483.595	6579.78
483.8	6415.94
484.004	6407.75
484.208	6544.97
484.412	6407.75
484.616	6657.61
484.821	6305.35
485.025	6366.79
485.229	6504.01
485.433	6282.83
485.637	6374.99
485.841	6303.31
486.045	6479.43
486.249	6364.75
486.453	6227.53
486.657	6383.18
486.861	6293.07
487.065	6348.36
487.269	6162
487.473	6270.54
487.677	6338.12
487.881	6481.48
488.085	6415.94
488.289	6440.52
488.493	6456.9
488.697	6352.46
488.901	6428.23
489.105	6473.29
489.309	6385.23
489.512	6407.75
489.716	6516.3
489.92	6323.79
490.124	6391.37
490.328	6428.23
490.531	6325.83
490.735	6440.52
490.939	6415.94
491.143	6391.37
491.346	6436.42
491.55	6436.42
491.754	6506.06
491.958	6561.35
492.161	6473.29
492.365	6499.91
492.569	6399.56
492.772	6489.67
492.976	6518.34
493.18	6590.02
493.383	6487.62
493.587	6506.06
493.79	6673.99
493.994	6622.79
494.197	6598.21
494.401	6878.79
494.605	6659.65
494.808	6952.51
495.012	7009.86
495.215	6915.65
495.419	6899.27
495.622	6819.39
495.825	6977.09
496.029	7040.58
496.232	7237.18
496.436	6923.84
496.639	7329.34
496.843	7157.31
497.046	7439.93
497.249	7441.98
497.453	7523.9
497.656	7554.62
497.859	7536.18
498.063	7546.42
498.266	7671.35
498.469	7671.35
498.673	7824.95
498.876	7816.76
499.079	7906.87
499.282	7982.64
499.485	8146.48
499.689	8214.06
499.892	8060.46
500.095	8175.15
500.298	8377.9
500.501	8275.5
500.705	8564.26
500.908	8570.41
501.111	8605.22
501.314	8873.51
501.517	8758.82
501.72	8939.04
501.923	8908.32
502.126	8934.95
502.329	9213.47
502.532	9113.12
502.735	9039.39
502.938	9684.5
503.141	9373.21
503.344	9643.54
503.547	9535
503.75	9690.65
503.953	9905.68
504.156	9971.22
504.359	9983.51
504.562	10038.8
504.765	10163.73
504.968	10405.39
505.17	10417.68
505.373	10321.42
505.576	10827.27
505.779	10663.43
505.982	10753.54
506.185	10757.64
506.387	11007.49
506.59	11118.08
506.793	11322.88
506.996	11240.96
507.198	11681.27
507.401	11566.59
507.604	11812.34
507.807	11906.55
508.009	11904.5
508.212	12117.49
508.415	12326.38
508.617	12420.59
508.82	12291.57
509.022	12254.7
509.225	12776.94
509.428	12795.37
509.63	12801.51
509.833	12973.54
510.035	13198.82
510.238	13254.11
510.44	13383.13
510.643	13503.96
510.845	13714.91
511.048	13780.44
511.25	13839.83
511.453	13841.88
511.655	14468.56
511.858	14190.03
512.06	14562.76
512.262	14472.65
512.465	14427.6
512.667	14814.66
512.87	14968.26
513.072	15082.95
513.274	15465.92
513.477	15308.23
513.679	15762.87
513.881	15590.84
514.084	15809.98
514.286	15986.1
514.488	15924.66
514.69	16508.33
514.893	16434.61
515.095	16471.47
515.297	16522.67
515.499	17024.42
515.701	16715.18
515.904	17245.6
516.106	17200.55
516.308	17343.91
516.51	17452.45
516.712	17536.42
516.914	17726.88
517.116	18277.78
517.318	18179.48
517.52	18302.36
517.722	18292.12
517.925	18449.81
518.127	18900.36
518.329	19039.62
518.531	18752.91
518.733	19262.85
518.935	19381.63
519.136	19279.24
519.338	19637.63
519.54	19647.87
519.742	19613.06
519.944	19801.47
520.146	20200.82
520.348	20112.76
520.55	20280.69
520.752	20284.79
520.954	20524.4
521.155	20602.22
521.357	20743.53
521.559	21050.73
521.761	21220.71
521.963	21026.15
522.164	21128.55
522.366	21407.08
522.568	21564.77
522.77	21325.16
522.971	21816.67
523.173	21413.22
523.375	21775.71
523.576	21886.3
523.778	21738.85
523.98	22164.82
524.181	22050.14
524.383	22011.23
524.584	22226.26
524.786	22031.71
524.988	22285.65
525.189	22371.67
525.391	22445.4
525.592	22467.92
525.794	22644.05
525.995	22388.05
526.197	22377.81
526.398	22490.45
526.6	22578.51
526.801	22697.3
527.003	22545.75
527.204	22580.56
527.406	22789.45
527.607	22635.86
527.808	22562.13
528.01	22273.37
528.211	22377.81
528.412	22979.92
528.614	22656.34
528.815	22705.49
529.016	23092.55
529.218	22402.39
529.419	22676.82
529.62	22488.4
529.822	22420.82
530.023	22529.36
530.224	22603.09
530.425	22461.78
530.626	22287.7
530.828	22033.75
531.029	22590.8
531.23	22310.23
531.431	22179.16
531.632	22572.37
531.833	22179.16
532.035	22160.73
532.236	21931.36
532.437	22359.38
532.638	21855.58
532.839	21906.78
533.04	21937.5
533.241	21792.09
533.442	22048.09
533.643	21988.7
533.844	21841.25
534.045	22035.8
534.246	21724.51
534.447	21683.55
534.648	21597.54
534.849	21546.34
535.05	21237.09
535.251	21362.02
535.451	21683.55
535.652	21464.42
535.853	21308.77
536.054	21310.82
536.255	21407.08
536.456	21378.4
536.657	21411.17
536.857	21316.97
537.058	20991.34
537.259	21310.82
537.46	21308.77
537.66	20712.81
537.861	21161.32
538.062	20835.69
538.263	20948.33
538.463	20663.66
538.664	21040.49
538.865	20624.75
539.065	20962.67
539.266	20446.58
539.466	21056.87
539.667	20596.08
539.868	20864.36
540.068	20508.02
540.269	20417.91
540.469	20852.08
540.67	20647.28
540.87	20475.25
541.071	20471.15
541.271	20596.08
541.472	20481.39
541.672	20280.69
541.873	20223.35
542.073	20209.01
542.274	20585.84
542.474	20229.49
542.675	20297.08
542.875	20483.44
543.075	20194.68
543.276	19938.68
543.476	20458.87
543.676	20268.41
543.877	20301.17
544.077	20141.43
544.277	20372.85
544.478	20321.65
544.678	20413.81
544.878	20045.18
545.078	20174.2
545.279	20213.11
545.479	20088.18
545.679	20249.97
545.879	20110.71
546.079	20368.76
546.28	20018.55
546.48	19983.74
546.68	20340.08
546.88	20385.14
547.08	20094.33
547.28	20018.55
547.48	19893.63
547.68	20344.18
547.88	20012.41
548.081	20227.45
548.281	20000.12
548.481	19955.07
548.681	20327.8
548.881	19983.74
549.081	20231.54
549.28	19869.05
549.48	20256.12
549.68	20342.13
549.88	20471.15
550.08	20018.55
550.28	20446.58
550.48	20252.02
550.68	20333.94
550.88	20454.77
551.08	20411.76
551.279	20606.32
551.479	19963.26
551.679	20561.26
551.879	20272.5
552.079	20610.42
552.278	20481.39
552.478	20563.31
552.678	20594.03
552.878	20538.74
553.077	20696.43
553.277	20450.67
553.477	20977
553.676	20366.71
553.876	20888.94
554.076	20344.18
554.275	20731.25
554.475	20356.47
554.674	21063.02
554.874	20624.75
555.074	20604.27
555.273	20809.07
555.473	20919.66
555.672	21132.65
555.872	20843.88
556.071	21202.28
556.271	21058.92
556.47	20938.09
556.67	20923.76
556.869	21251.43
557.068	21048.68
557.268	21171.56
557.467	21296.49
557.667	21228.9
557.866	21267.81
558.065	21114.22
558.265	21140.84
558.464	21173.61
558.663	21300.58
558.863	21020.01
559.062	21390.69
559.261	21069.16
559.461	21464.42
559.66	21108.07
559.859	21245.29
560.058	21282.15
560.258	21230.95
560.457	20876.65
560.656	21345.64
560.855	21065.07
561.054	21228.9
561.253	21288.29
561.453	21073.26
561.652	21476.71
561.851	21335.4
562.05	21253.48
562.249	21216.61
562.448	21343.59
562.647	21083.5
562.846	21333.35
563.045	21208.42
563.244	21198.18
563.443	21523.81
563.642	20987.24
563.841	21196.14
564.04	21247.33
564.239	21433.7
564.438	20931.95
564.637	21226.85
564.836	21200.23
565.035	21058.92
565.234	21269.86
565.432	21151.08
565.631	21245.29
565.83	21052.78
566.029	20944.24
566.228	20917.61
566.427	20964.71
566.625	20850.03
566.824	20553.07
567.023	21099.88
567.222	20751.73
567.42	20757.87
567.619	20708.72
567.818	20530.55
568.016	20696.43
568.215	20747.63
568.414	20723.05
568.612	20469.11
568.811	20483.44
569.01	20612.46
569.208	20039.03
569.407	20567.41
569.605	20182.39
569.804	20264.31
570.002	20190.58
570.201	20219.25
570.4	20010.36
570.598	19852.67
570.797	19688.83
570.995	20086.14
571.193	19680.64
571.392	19873.15
571.59	19561.86
571.789	19629.44
571.987	19674.49
572.186	19426.69
572.384	19209.61
572.582	19516.8
572.781	19381.63
572.979	19121.54
573.177	19271.04
573.376	19449.22
573.574	19088.78
573.772	19254.66
573.971	18896.27
574.169	18976.14
574.367	18630.03
574.565	18834.83
574.763	18681.23
574.962	18681.23
575.16	18376.08
575.358	18597.26
575.556	18421.14
575.754	18394.51
575.952	18222.48
576.151	18353.55
576.349	17855.9
576.547	17941.91
576.745	18273.68
576.943	18271.64
577.141	17937.82
577.339	17972.63
577.537	17909.15
577.735	17960.34
577.933	17454.5
578.131	17507.74
578.329	17589.66
578.527	17417.63
578.725	17221.03
578.923	17278.37
579.121	17333.67
579.319	17153.44
579.516	17221.03
579.714	17372.58
579.912	17083.81
580.11	17092.01
580.308	17094.05
580.506	16772.52
580.704	16844.2
580.901	16993.7
581.099	16815.53
581.297	16561.58
581.495	16547.25
581.692	16774.57
581.89	16334.26
582.088	16532.91
582.285	16432.56
582.483	16909.74
582.681	16356.79
582.878	16559.53
583.076	16231.86
583.274	16446.9
583.471	16121.27
583.669	16084.41
583.866	16031.16
584.064	16336.31
584.262	15994.29
584.459	16131.51
584.657	15889.85
584.854	16281.01
585.052	15830.46
585.249	15916.47
585.447	15785.4
585.644	15664.57
585.841	15842.74
586.039	15992.25
586.236	15566.27
586.434	15508.93
586.631	15488.45
586.828	15373.76
587.026	15771.07
587.223	15631.8
587.42	15621.56
587.618	15447.49
587.815	15312.32
588.012	15447.49
588.21	15539.65
588.407	15619.52
588.604	15404.48
588.801	15150.53
588.999	15304.13
589.196	15076.8
589.393	15287.75
589.59	14960.07
589.787	15060.42
589.984	15076.8
590.182	14945.73
590.379	14865.86
590.576	14863.82
590.773	14986.69
590.97	15052.23
591.167	14867.91
591.364	14736.84
591.561	15041.99
591.758	14861.77
591.955	14738.89
592.152	15035.85
592.349	14955.97
592.546	15099.33
592.743	14941.64
592.94	14607.82
593.137	14880.2
593.334	14958.02
593.531	14620.11
593.727	14931.4
593.924	15193.54
594.121	14675.4
594.318	14902.73
594.515	14691.79
594.712	14833.1
594.908	14781.9
595.105	14937.54
595.302	14728.65
595.499	15269.31
595.696	15017.41
595.892	14773.71
596.089	14980.55
596.286	14757.32
596.482	14978.5
596.679	14814.66
596.876	14931.4
597.072	14749.13
597.269	15101.38
597.466	15109.57
597.662	14683.59
597.859	14943.69
598.055	15101.38
598.252	14925.25
598.448	14919.11
598.645	14900.68
598.841	14783.95
599.038	15132.1
599.234	14972.36
599.431	15046.09
599.627	15031.75
599.824	15500.73
600.02	14919.11
600.217	15107.52
600.413	15279.55
600.609	15029.7
600.806	15400.38
601.002	15451.58
601.198	15046.09
601.395	15371.71
601.591	15539.65
601.787	15386.05
601.984	15396.29
602.18	15703.48
602.376	15412.67
602.572	16016.82
602.769	15773.11
602.965	15572.41
603.161	15674.81
603.357	15859.13
603.553	15560.13
603.75	16016.82
603.946	15885.75
604.142	15830.46
604.338	15947.19
604.534	16139.7
604.73	16041.4
604.926	16221.62
605.122	16160.18
605.318	16141.75
605.514	16129.46
605.71	16469.42
605.906	16311.73
606.102	16336.31
606.298	16567.73
606.494	16289.2
606.69	16700.84
606.886	16885.16
607.082	16514.48
607.278	16954.79
607.474	16760.23
607.67	16743.85
607.866	16563.63
608.062	16909.74
608.257	16797.1
608.453	16827.82
608.649	16813.48
608.845	16764.33
609.041	17180.07
609.236	17452.45
609.432	17239.46
609.628	17360.29
609.824	17280.42
610.019	16952.74
610.215	17405.35
610.411	17509.79
610.606	17044.9
610.802	17327.52
610.998	17489.31
611.193	17479.07
611.389	17411.49
611.584	17530.27
611.78	17403.3
611.976	17659.29
612.171	17937.82
612.367	17604
612.562	17739.16
612.758	17532.32
612.953	17745.31
613.149	18077.08
613.344	17714.59
613.539	18068.89
613.735	17780.12
613.93	18339.22
614.126	17898.91
614.321	18040.22
614.517	18093.46
614.712	17991.06
614.907	18253.2
615.103	17993.11
615.298	17923.48
615.493	18275.73
615.688	17960.34
615.884	18433.43
616.079	18032.02
616.274	18304.4
616.47	18310.55
616.665	18068.89
616.86	18267.54
617.055	18060.7
617.25	18245.01
617.445	18191.77
617.641	18062.74
617.836	18302.36
618.031	17808.79
618.226	18255.25
618.421	18009.5
618.616	18392.47
618.811	17812.89
619.006	18046.36
619.201	17614.24
619.396	18068.89
619.591	17771.93
619.786	18072.98
619.981	17470.88
620.176	17849.75
620.371	17755.55
620.566	17915.29
620.761	17784.22
620.956	17726.88
621.151	17335.71
621.346	17458.59
621.541	17417.63
621.735	17556.89
621.93	17161.64
622.125	17292.71
622.32	17032.61
622.515	17077.67
622.709	17098.15
622.904	16913.83
623.099	16991.66
623.294	17149.35
623.488	16815.53
623.683	16836.01
623.878	16522.67
624.072	16811.43
624.267	16571.82
624.462	16725.42
624.656	16412.08
624.851	16385.46
625.046	16094.65
625.24	16215.48
625.435	16135.6
625.629	16020.92
625.824	16162.23
626.018	15680.96
626.213	15762.87
626.407	16121.27
626.602	15599.04
626.796	15902.14
626.991	15605.18
627.185	15537.6
627.38	15414.72
627.574	15488.45
627.768	15173.06
627.963	15181.25
628.157	15273.41
628.352	15087.04
628.546	14908.87
628.74	15003.08
628.935	14884.3
629.129	14908.87
629.323	14876.1
629.517	14722.51
629.712	14730.7
629.906	14638.54
630.1	14519.76
630.294	14546.38
630.489	14472.65
630.683	14421.45
630.877	14251.47
631.071	14208.47
631.265	14044.63
631.459	14116.31
631.653	14034.39
631.848	13884.89
632.042	13813.21
632.236	14042.58
632.43	13780.44
632.624	13692.38
632.818	13495.77
633.012	13442.53
633.206	13397.47
633.4	13479.39
633.594	13192.67
633.788	13129.19
633.982	13301.22
634.176	13159.91
634.369	13133.28
634.563	13020.64
634.757	13004.26
634.951	12955.11
635.145	12912.1
635.339	12815.85
635.533	12635.63
635.726	12744.17
635.92	12510.7
636.114	12373.49
636.308	12219.89
636.501	12404.21
636.695	12527.08
636.889	12152.31
637.083	12140.02
637.276	12043.76
637.47	11888.12
637.664	11609.59
637.857	12000.76
638.051	12058.1
638.244	11666.94
638.438	11668.98
638.632	11697.66
638.825	11298.3
639.019	11392.51
639.212	11335.17
639.406	11306.49
639.599	11054.59
639.793	11093.51
639.986	11066.88
640.18	11013.63
640.373	10894.85
640.567	10956.29
640.76	10898.95
640.954	10626.57
641.147	10569.23
641.34	10585.61
641.534	10593.8
641.727	10499.59
641.92	10495.5
642.114	10378.76
642.307	10235.41
642.5	10337.8
642.694	9960.98
642.887	10264.08
643.08	10239.5
643.273	10208.78
643.467	10044.95
643.66	9809.43
643.853	9700.89
644.046	9811.48
644.239	9651.74
644.432	9678.36
644.626	9491.99
644.819	9434.65
645.012	9504.28
645.205	9405.98
645.398	9483.8
645.591	8988.19
645.784	9184.8
645.977	9041.44
646.17	9215.52
646.363	8986.15
646.556	8953.38
646.749	8947.23
646.942	8891.94
647.135	8625.7
647.328	8586.79
647.521	8678.95
647.714	8545.83
647.907	8435.24
648.099	8607.27
648.292	8486.44
648.485	8476.2
648.678	8451.63
648.871	8406.57
649.064	8111.66
649.256	8160.81
649.449	8246.83
649.642	8201.77
649.835	8037.94
650.027	8097.33
650.22	8054.32
650.413	7800.37
650.605	7884.34
650.798	7915.06
650.991	7841.33
651.183	7816.76
651.376	7693.88
651.568	7857.71
651.761	7503.42
651.954	7734.84
652.146	7642.68
652.339	7538.23
652.531	7423.55
652.724	7484.98
652.916	7173.69
653.109	7173.69
653.301	7329.34
653.494	7261.76
653.686	7142.97
653.879	7255.61
654.071	7159.36
654.263	7030.34
654.456	7110.21
654.648	7089.73
654.84	6970.94
655.033	6835.78
655.225	6915.65
655.417	6841.92
655.61	6839.87
655.802	6821.44
655.994	6764.1
656.186	6645.32
656.379	6768.2
656.571	6471.24
656.763	6549.06
656.955	6659.65
657.148	6551.11
657.34	6710.85
657.532	6522.44
657.724	6452.81
657.916	6477.38
658.108	6477.38
658.3	6286.92
658.492	6379.08
658.684	6202.96
658.876	6270.54
659.068	6092.37
659.26	6063.69
659.452	6088.27
659.644	6088.27
659.836	5938.77
660.028	6129.23
660.22	5903.95
660.412	5975.63
660.604	5852.75
660.796	5779.03
660.988	5740.12
661.18	5709.4
661.372	5770.83
661.563	5871.19
661.755	5508.69
661.947	5459.54
662.139	5662.29
662.331	5594.71
662.522	5629.52
662.714	5623.38
662.906	5394.01
663.097	5441.11
663.289	5318.23
663.481	5457.5
663.673	5570.13
663.864	5285.47
664.056	5326.43
664.247	5328.47
664.439	5295.71
664.631	5441.11
664.822	5357.14
665.014	5199.45
665.205	5158.49
665.397	5230.17
665.588	5086.81
665.78	5064.29
665.971	5013.09
666.163	5084.77
666.354	4925.02
666.546	4908.64
666.737	4906.59
666.929	4830.82
667.12	4865.63
667.311	4724.32
667.503	4736.61
667.694	4722.27
667.885	4791.91
668.077	4720.23
668.268	4720.23
668.459	4722.27
668.651	4628.07
668.842	4687.46
669.033	4630.12
669.224	4576.87
669.416	4701.79
669.607	4716.13
669.798	4638.31
669.989	4656.74
670.18	4441.7
670.371	4523.62
670.563	4441.7
670.754	4419.18
670.945	4507.24
671.136	4404.84
671.327	4572.77
671.518	4433.51
671.709	4304.49
671.9	4501.09
672.091	4376.17
672.282	4374.12
672.473	4255.34
672.664	4320.87
672.855	4351.59
673.046	4318.82
673.237	4388.46
673.428	4183.66
673.619	4220.52
673.809	4259.43
674	4363.88
674.191	4337.26
674.382	4171.37
674.573	4214.38
674.764	4224.62
674.954	4310.63
675.145	4095.6
675.336	4249.19
675.527	4068.97
675.717	4216.43
675.908	4187.75
676.099	4179.56
676.289	4187.75
676.48	4253.29
676.671	4116.08
676.861	4316.78
677.052	4097.64
677.243	4095.6
677.433	4040.3
677.624	4273.77
677.814	4093.55
678.005	3999.34
678.195	4062.83
678.386	4085.36
678.576	4015.73
678.767	4150.89
678.957	4138.6
679.148	4148.84
679.338	4015.73
679.529	4064.88
679.719	4171.37
679.909	4095.6
680.1	4105.84
680.29	4163.18
680.481	4089.45
680.671	4015.73
680.861	4019.82
681.052	4122.22
681.242	3985.01
681.432	4130.41
681.622	4017.77
681.813	4001.39
682.003	4060.78
682.193	4040.3
682.383	4028.01
682.573	4154.99
682.764	3931.76
682.954	4142.7
683.144	4023.92
683.334	4005.49
683.524	3952.24
683.714	3991.15
683.904	3939.95
684.094	3841.65
684.284	4066.92
684.474	4028.01
684.664	3827.31
684.854	4007.53
685.044	4021.87
685.234	4011.63
685.424	3855.98
685.614	3985.01
685.804	4007.53
685.994	3972.72
686.184	3870.32
686.374	3999.34
686.564	3888.75
686.753	3982.96
686.943	3909.23
687.133	3978.86
687.323	3855.98
687.513	4003.44
687.702	3944.05
687.892	3843.7
688.082	3845.74
688.272	3890.8
688.461	3892.85
688.651	3978.86
688.841	3806.83
689.03	3925.61
689.22	3827.31
689.41	3681.91
689.599	3876.46
689.789	3700.34
689.979	3825.26
690.168	3810.93
690.358	3704.43
690.547	3860.08
690.737	3780.21
690.926	3792.5
691.116	3761.78
691.305	3700.34
691.495	3761.78
691.684	3688.05
691.874	3745.39
692.063	3710.58
692.252	3679.86
692.442	3817.07
692.631	3712.63
692.82	3698.29
693.01	3657.33
693.199	3712.63
693.388	3681.91
693.578	3604.08
693.767	3716.72
693.956	3710.58
694.146	3696.24
694.335	3692.15
694.524	3604.08
694.713	3726.96
694.902	3683.95
695.092	3493.49
695.281	3540.6
695.47	3683.95
695.659	3608.18
695.848	3542.64
696.037	3688.05
696.226	3591.8
696.415	3606.13
696.604	3649.14
696.793	3485.3
696.982	3667.57
697.171	3589.75
697.36	3599.99
697.549	3554.93
697.738	3497.59
697.927	3516.02
698.116	3520.12
698.305	3653.23
698.494	3559.03
698.683	3532.4
698.872	3661.43
699.061	3493.49
699.25	3577.46
699.438	3499.64
699.627	3563.12
699.816	3507.83
700.005	3430.01
700.193	3528.31
700.382	3573.36
700.571	3475.06
700.76	3565.17
700.948	3511.93
701.137	3483.25
701.326	3505.78
701.514	3389.05
701.703	3475.06
701.892	3434.1
702.08	3509.88
702.269	3450.49
702.457	3376.76
702.646	3346.04
702.834	3239.55
703.023	3409.53
703.212	3419.77
703.4	3401.33
703.589	3311.22
703.777	3382.9
703.965	3229.31
704.154	3176.06
704.342	3278.46
704.531	3208.83
704.719	3268.22
704.907	3212.92
705.096	3155.58
705.284	3255.93
705.472	3237.5
705.661	3333.75
705.849	3319.42
706.037	3237.5
706.226	3309.18
706.414	3253.88
706.602	3090.04
706.79	3212.92
706.979	3094.14
707.167	3247.74
707.355	3139.19
707.543	3190.39
707.731	3155.58
707.919	3026.56
708.107	3249.79
708.296	3212.92
708.484	2838.14
708.672	3151.48
708.86	3114.62
709.048	3229.31
709.236	3047.04
709.424	3014.27
709.612	3204.73
709.8	3110.52
709.988	3044.99
710.176	2963.07
710.364	3085.95
710.551	2963.07
710.739	2963.07
710.927	2948.73
711.115	2913.92
711.303	2995.84
711.491	3042.94
711.679	2909.82
711.866	2977.41
712.054	2952.83
712.242	2961.02
712.43	2969.21
712.617	2991.74
712.805	2877.05
712.993	2887.29
713.181	2748.03
713.368	2868.86
713.556	2952.83
713.744	2911.87
713.931	2872.96
714.119	2948.73
714.306	2846.34
714.494	2827.9
714.682	2909.82
714.869	2741.89
715.057	2723.46
715.244	2745.98
715.432	2745.98
715.619	2764.42
715.807	2737.79
715.994	2791.04
716.182	2875.01
716.369	2754.18
716.556	2868.86
716.744	2684.55
716.931	2801.28
717.119	2758.27
717.306	2842.24
717.493	2676.35
717.681	2791.04
717.868	2737.79
718.055	2770.56
718.242	2664.07
718.43	2813.57
718.617	2705.03
718.804	2655.87
718.991	2780.8
719.179	2778.75
719.366	2680.45
719.553	2657.92
719.74	2754.18
719.927	2549.38
720.114	2633.35
720.301	2598.53
720.488	2561.67
720.676	2512.52
720.863	2559.62
721.05	2549.38
721.237	2559.62
721.424	2489.99
721.611	2508.42
721.798	2440.84
721.985	2565.76
722.172	2565.76
722.358	2588.29
722.545	2549.38
722.732	2584.2
722.919	2526.85
723.106	2565.76
723.293	2322.06
723.48	2543.24
723.667	2328.2
723.853	2522.76
724.04	2401.93
724.227	2420.36
724.414	2330.25
724.6	2428.55
724.787	2512.52
724.974	2500.23
725.161	2504.32
725.347	2322.06
725.534	2455.17
725.72	2422.41
725.907	2444.93
726.094	2285.19
726.28	2332.3
726.467	2262.66
726.653	2356.87
726.84	2256.52
727.027	2397.83
727.213	2385.54
727.4	2377.35
727.586	2293.38
727.773	2311.82
727.959	2334.34
728.145	2213.51
728.332	2305.67
728.518	2344.58
728.705	2264.71
728.891	2367.11
729.077	2315.91
729.264	2264.71
729.45	2182.79
729.636	2289.29
729.823	2199.18
730.009	2166.41
730.195	2188.94
730.382	2295.43
730.568	2188.94
730.754	2250.38
730.94	2145.93
731.126	2233.99
731.313	2238.09
731.499	2254.47
731.685	2248.33
731.871	2150.03
732.057	2100.87
732.243	2262.66
732.429	2295.43
732.615	2264.71
732.801	2147.98
732.987	2229.9
733.173	2086.54
733.359	2117.26
733.545	2057.87
733.731	2166.41
733.917	2107.02
734.103	2049.68
734.289	2043.53
734.475	2152.07
734.661	2141.83
734.847	2117.26
735.033	2150.03
735.219	2104.97
735.404	2205.32
735.59	2111.11
735.776	2057.87
735.962	2080.39
736.148	2041.48
736.333	2203.27
736.519	2182.79
736.705	1978
736.89	1959.56
737.076	1992.33
737.262	1998.48
737.447	2059.92
737.633	1963.66
737.819	2047.63
738.004	2016.91
738.19	1990.28
738.375	2000.52
738.561	1961.61
738.747	2018.96
738.932	2012.81
739.118	2008.72
739.303	1973.9
739.489	1967.76
739.674	1920.65
739.859	1853.07
740.045	1910.41
740.23	1949.32
740.416	1943.18
740.601	1969.8
740.786	1930.89
740.972	1808.02
741.157	1891.98
741.342	1748.62
741.528	1789.58
741.713	1863.31
741.898	1722
742.084	1797.78
742.269	1879.69
742.454	1797.78
742.639	1808.02
742.824	1828.49
743.01	1939.09
743.195	1838.73
743.38	1789.58
743.565	1779.34
743.75	1824.4
743.935	1697.42
744.12	1795.73
744.305	1707.66
744.49	1689.23
744.675	1703.57
744.86	1771.15
745.045	1685.14
745.23	1728.14
745.415	1736.34
745.6	1648.27
745.785	1617.55
745.97	1625.75
746.155	1533.59
746.34	1656.47
746.525	1666.71
746.71	1607.31
746.895	1640.08
747.079	1558.16
747.264	1611.41
747.449	1664.66
747.634	1625.75
747.819	1558.16
748.003	1578.64
748.188	1545.88
748.373	1568.4
748.557	1562.26
748.742	1568.4
748.927	1488.53
749.111	1496.72
749.296	1408.66
749.481	1453.72
749.665	1390.23
749.85	1461.91
750.034	1504.92
750.219	1414.81
750.404	1390.23
750.588	1386.13
750.773	1427.09
750.957	1390.23
751.141	1427.09
751.326	1396.37
751.51	1423
751.695	1322.65
751.879	1355.41
752.064	1304.21
752.248	1353.37
752.432	1367.7
752.617	1427.09
752.801	1371.8
752.985	1224.34
753.17	1261.21
753.354	1236.63
753.538	1334.93
753.722	1316.5
753.907	1355.41
754.091	1128.09
754.275	1248.92
754.459	1230.49
754.643	1189.53
754.828	1187.48
755.012	1169.05
755.196	1119.9
755.38	1197.72
755.564	1201.82
755.748	1160.86
755.932	1095.32
756.116	1123.99
756.3	1169.05
756.484	1109.66
756.668	1019.55
756.852	1115.8
757.036	1035.93
757.22	1011.36
757.404	1089.18
757.588	992.92
757.772	1025.69
757.956	1076.89
758.14	1111.71
758.323	927.39
758.507	1044.12
758.691	1017.5
758.875	1074.84
759.059	1126.04
759.242	988.83
759.426	1005.21
759.61	976.54
759.794	894.62
759.977	1019.55
760.161	1044.12
760.345	1060.51
760.528	1060.51
760.712	1083.03
760.895	935.58
761.079	951.96
761.263	997.02
761.446	886.43
761.63	972.44
761.813	917.15
761.997	894.62
762.18	913.05
762.364	937.63
762.547	904.86
762.731	900.76
762.914	847.52
763.098	876.19
763.281	927.39
763.464	812.7
763.648	853.66
763.831	886.43
764.015	845.47
764.198	837.28
764.381	863.9
764.564	792.22
764.748	853.66
764.931	874.14
765.114	865.95
765.297	820.89
765.481	806.56
765.664	888.48
765.847	878.24
766.03	835.23
766.213	839.33
766.397	790.17
766.58	824.99
766.763	839.33
766.946	767.65
767.129	790.17
767.312	751.26
767.495	771.74
767.678	837.28
767.861	730.78
768.044	781.98
768.227	861.85
768.41	763.55
768.593	767.65
768.776	771.74
768.959	818.85
769.142	796.32
769.324	804.51
769.507	755.36
769.69	788.13
769.873	722.59
770.056	790.17
770.239	661.15
770.421	685.73
770.604	691.87
770.787	757.41
770.97	700.06
771.152	796.32
771.335	741.02
771.518	757.41
771.7	761.5
771.883	706.21
772.066	685.73
772.248	788.13
772.431	732.83
772.613	714.4
772.796	757.41
772.978	741.02
773.161	724.64
773.343	673.44
773.526	687.78
773.708	685.73
773.891	616.1
774.073	624.29
774.256	587.43
774.438	687.78
774.621	663.2
774.803	640.67
774.985	700.06
775.168	704.16
775.35	632.48
775.532	634.53
775.715	534.18
775.897	632.48
776.079	614.05
776.261	628.39
776.444	540.32
776.626	523.94
776.808	673.44
776.99	616.1
777.173	593.57
777.355	591.52
777.537	632.48
777.719	657.06
777.901	568.99
778.083	595.62
778.265	550.56
778.447	509.6
778.629	571.04
778.811	603.81
778.993	538.27
779.175	595.62
779.357	444.07
779.539	542.37
779.721	589.47
779.903	583.33
780.085	489.12
780.267	509.6
780.449	525.99
780.631	509.6
780.812	636.58
780.994	585.38
781.176	519.84
781.358	501.41
781.54	470.69
781.721	446.12
781.903	540.32
782.085	519.84
782.267	460.45
782.448	382.63
782.63	485.03
782.812	462.5
782.993	454.31
783.175	472.74
783.357	390.82
783.538	448.16
783.72	419.49
783.901	396.96
784.083	429.73
784.264	378.53
784.446	403.11
784.627	358.05
784.809	370.34
784.99	403.11
785.172	437.92
785.353	390.82
785.535	425.64
785.716	429.73
785.897	415.4
786.079	411.3
786.26	460.45
786.441	462.5
786.623	403.11
786.804	370.34
786.985	362.15
787.167	472.74
787.348	341.67
787.529	321.19
787.71	429.73
787.891	349.86
788.073	370.34
788.254	317.09
788.435	427.68
788.616	390.82
788.797	335.53
788.978	394.92
789.159	317.09
789.34	306.85
789.522	399.01
789.703	259.75
789.884	392.87
790.065	298.66
790.246	347.81
790.427	298.66
790.607	364.2
790.788	353.96
790.969	315.05
791.15	339.62
791.331	300.71
791.512	321.19
791.693	292.52
791.874	360.1
792.054	345.77
792.235	308.9
792.416	296.61
792.597	380.58
792.778	337.57
792.958	315.05
793.139	272.04
793.32	255.65
793.5	257.7
793.681	370.34
793.862	308.9
794.042	280.23
794.223	222.89
794.404	280.23
794.584	288.42
794.765	194.22
794.945	325.29
795.126	327.33
795.306	345.77
795.487	222.89
795.667	214.7
795.848	304.81
796.028	231.08
796.209	257.7
796.389	274.09
796.57	251.56
796.75	249.51
796.93	280.23
797.111	249.51
797.291	202.41
797.471	296.61
797.652	290.47
797.832	280.23
798.012	263.85
798.192	222.89
798.373	175.78
798.553	263.85
798.733	249.51
798.913	212.65
799.093	288.42
799.274	224.94
799.454	206.5
799.634	259.75
799.814	229.03
799.994	218.79
800.174	231.08
800.354	249.51
800.534	175.78
800.714	231.08
800.894	161.45
801.074	198.31
801.254	206.5
801.434	274.09
801.614	132.78
801.794	157.35
801.974	992.92
802.154	237.22
802.334	243.37
802.514	132.78
802.693	175.78
802.873	206.5
803.053	181.93
803.233	149.16
803.413	267.94
803.592	165.54
803.772	134.82
803.952	173.74
804.131	177.83
804.311	145.06
804.491	200.36
804.67	136.87
804.85	155.3
805.03	183.98
805.209	190.12
805.389	173.74
805.568	132.78
805.748	171.69
805.928	216.74
806.107	175.78
806.287	181.93
806.466	173.74
806.646	100.01
806.825	149.16
807.004	206.5
807.184	206.5
807.363	153.26
807.543	136.87
807.722	145.06
807.901	263.85
808.081	192.17
808.26	63.15
808.439	226.98
808.619	155.3
808.798	75.43
808.977	233.13
809.156	177.83
809.336	192.17
809.515	181.93
809.694	110.25
809.873	169.64
810.052	188.07
810.231	243.37
810.411	153.26
810.59	192.17
810.769	112.3
810.948	134.82
811.127	132.78
811.306	85.67
811.485	108.2
811.664	177.83
811.843	153.26
812.022	159.4
812.201	93.87
812.38	108.2
812.559	165.54
812.737	183.98
812.916	50.86
813.095	132.78
813.274	134.82
813.453	177.83
813.632	192.17
813.811	157.35
813.989	106.15
814.168	167.59
814.347	167.59
814.526	118.44
814.704	204.46
814.883	194.22
815.062	102.06
815.24	206.5
815.419	136.87
815.598	108.2
815.776	54.95
815.955	63.15
816.133	67.24
816.312	102.06
816.49	153.26
816.669	222.89
816.847	106.15
817.026	126.63
817.204	165.54
817.383	44.71
817.561	97.96
817.74	198.31
817.918	102.06
818.097	165.54
818.275	128.68
818.453	97.96
818.632	132.78
818.81	97.96
818.988	126.63
819.167	183.98
819.345	167.59
819.523	118.44
819.701	100.01
819.879	202.41
820.058	81.58
820.236	46.76
820.414	81.58
820.592	167.59
820.77	85.67
820.948	50.86
821.127	85.67
821.305	67.24
821.483	140.97
821.661	151.21
821.839	54.95
822.017	116.39
822.195	67.24
822.373	140.97
822.551	104.11
822.729	13.99
822.907	102.06
823.085	157.35
823.262	147.11
823.44	40.62
823.618	46.76
823.796	126.63
823.974	59.05
824.152	116.39
824.329	95.91
824.507	93.87
824.685	106.15
824.863	145.06
825.04	69.29
825.218	100.01
825.396	57
825.574	116.39
825.751	134.82
825.929	151.21
826.107	42.67
826.284	116.39
826.462	110.25
826.639	34.47
826.817	65.19
826.994	112.3
827.172	44.71
827.349	102.06
827.527	95.91
827.704	5.8
827.882	108.2
828.059	69.29
828.237	-12.63
828.414	102.06
828.591	71.34
828.769	69.29
828.946	18.09
829.124	75.43
829.301	79.53
829.478	28.33
829.655	79.53
829.833	63.15
830.01	18.09
830.187	20.14
830.364	126.63
830.542	122.54
830.719	177.83
830.896	112.3
831.073	116.39
831.25	149.16
831.427	52.91
831.604	59.05
831.782	71.34
831.959	77.48
832.136	22.19
832.313	116.39
832.49	124.58
832.667	120.49
832.844	50.86
833.021	91.82
833.198	42.67
833.374	75.43
833.551	42.67
833.728	-4.44
833.905	83.63
834.082	42.67
834.259	147.11
834.436	128.68
834.612	22.19
834.789	26.28
834.966	28.33
835.143	61.1
835.319	34.47
835.496	69.29
835.673	145.06
835.85	61.1
836.026	73.39
836.203	77.48
836.38	149.16
836.556	9.9
836.733	67.24
836.909	104.11
837.086	-18.77
837.262	63.15
837.439	67.24
837.616	34.47
837.792	157.35
837.968	136.87
838.145	91.82
838.321	18.09
838.498	5.8
838.674	145.06
838.851	75.43
839.027	83.63
839.203	67.24
839.38	73.39
839.556	63.15
839.732	93.87
839.909	50.86
840.085	106.15
840.261	42.67
840.437	110.25
840.614	89.77
840.79	-10.58
840.966	108.2
841.142	20.14
841.318	104.11
841.494	110.25
841.671	114.34
841.847	1.71
842.023	54.95
842.199	108.2
842.375	91.82
842.551	26.28
842.727	26.28
842.903	108.2
843.079	1.71
843.255	63.15
843.431	108.2
843.607	38.57
843.783	59.05
843.959	28.33
844.134	5.8
844.31	108.2
844.486	57
844.662	28.33
844.838	46.76
845.013	34.47
845.189	69.29
845.365	50.86
845.541	67.24
845.716	79.53
845.892	75.43
846.068	63.15
846.244	73.39
846.419	18.09
846.595	28.33
846.77	13.99
846.946	11.95
847.122	-43.35
847.297	26.28
847.473	100.01
847.648	18.09
847.824	104.11
847.999	30.38
848.175	-6.49
848.35	-8.53
848.526	87.72
848.701	75.43
848.876	108.2
849.052	102.06
849.227	34.47
849.403	-96.6
849.578	9.9
849.753	75.43
849.929	-22.87
850.104	50.86
850.279	50.86
850.454	44.71
850.63	44.71
850.805	59.05
850.98	22.19
851.155	9.9
851.33	85.67
851.505	73.39
851.681	124.58
851.856	46.76
852.031	169.64
852.206	87.72
852.381	-0.34
852.556	32.43
852.731	102.06
852.906	71.34
853.081	102.06
853.256	93.87
853.431	11.95
853.606	3.75
853.781	26.28
853.956	-6.49
854.131	48.81
854.305	69.29
854.48	-10.58
854.655	42.67
854.83	20.14
855.005	20.14
855.18	-2.39
855.354	42.67
855.529	-4.44
855.704	-16.73
855.879	97.96
856.053	-4.44
856.228	69.29
856.403	67.24
856.577	22.19
856.752	-18.77
856.926	20.14
857.101	26.28
857.276	-35.16
857.45	26.28
857.625	5.8
857.799	9.9
857.974	9.9
858.148	-22.87
858.323	30.38
858.497	20.14
858.672	52.91
858.846	-26.96
859.02	75.43
859.195	69.29
859.369	-8.53
859.543	-2.39
859.718	106.15
859.892	-55.64
860.066	50.86
860.241	36.52
860.415	-22.87
860.589	54.95
860.763	69.29
860.938	-55.64
861.112	97.96
861.286	1.71
861.46	-14.68
861.634	36.52
861.808	40.62
861.982	-12.63
862.157	44.71
862.331	-63.83
862.505	9.9
862.679	69.29
862.853	36.52
863.027	-59.73
863.201	77.48
863.375	1.71
863.549	-4.44
863.722	20.14
863.896	100.01
864.07	-51.54
864.244	-55.64
864.418	57
864.592	75.43
864.766	42.67
864.939	11.95
865.113	-2.39
865.287	79.53
865.461	-26.96
865.634	16.04
865.808	114.34
865.982	52.91
866.156	-29.01
866.329	18.09
866.503	73.39
866.676	79.53
866.85	38.57
867.024	26.28
867.197	34.47
867.371	61.1
867.544	-12.63
867.718	-2.39
867.891	118.44
868.065	-20.82
868.238	16.04
868.412	67.24
868.585	18.09
868.759	18.09
868.932	42.67
869.105	-78.16
869.279	16.04
869.452	28.33
869.625	-2.39
869.799	69.29
869.972	61.1
870.145	57
870.319	-2.39
870.492	42.67
870.665	7.85
870.838	-14.68
871.011	-45.4
871.185	38.57
871.358	-22.87
871.531	30.38
871.704	57
871.877	34.47
872.05	36.52
872.223	1.71
872.396	91.82
872.569	77.48
872.742	20.14
872.915	75.43
873.088	-6.49
873.261	36.52
873.434	102.06
873.607	28.33
873.78	26.28
873.953	-2.39
874.126	5.8
874.299	75.43
874.471	-31.06
874.644	34.47
874.817	26.28
874.99	-35.16
875.163	22.19
875.335	42.67
875.508	-10.58
875.681	57
875.853	-35.16
876.026	5.8
876.199	36.52
876.371	108.2
876.544	-4.44
876.717	-4.44
876.889	-47.44
877.062	95.91
877.234	-57.68
877.407	-20.82
877.579	-22.87
877.752	30.38
877.924	79.53
878.097	28.33
878.269	40.62
878.442	20.14
878.614	61.1
878.786	46.76
878.959	69.29
879.131	77.48
879.303	-35.16
879.476	46.76
879.648	-6.49
879.82	-4.44
879.993	22.19
880.165	-12.63
880.337	9.9
880.509	-55.64
880.681	13.99
880.854	-26.96
881.026	-10.58
881.198	40.62
881.37	30.38
881.542	67.24
881.714	-22.87
881.886	3.75
882.058	-14.68
882.23	67.24
882.402	-53.59
882.574	40.62
882.746	34.47
882.918	71.34
883.09	42.67
883.262	13.99
883.434	28.33
883.606	-8.53
883.778	-12.63
883.95	26.28
884.122	28.33
884.293	26.28
884.465	75.43
884.637	73.39
884.809	-14.68
884.98	5.8
885.152	34.47
885.324	11.95
885.496	13.99
885.667	59.05
885.839	5.8
886.011	59.05
886.182	34.47
886.354	52.91
886.525	26.28
886.697	22.19
886.869	3.75
887.04	-12.63
887.212	42.67
887.383	34.47
887.555	-35.16
887.726	-22.87
887.897	32.43
888.069	36.52
888.24	7.85
888.412	-14.68
888.583	-51.54
888.754	-22.87
888.926	-43.35
889.097	-18.77
889.268	-55.64
889.44	-18.77
889.611	-78.16
889.782	18.09
889.953	87.72
890.125	106.15
890.296	36.52
890.467	54.95
890.638	-31.06
890.809	-18.77
890.98	50.86
891.151	46.76
891.323	91.82
891.494	22.19
891.665	-31.06
891.836	59.05
892.007	-47.44
892.178	50.86
892.349	22.19
892.52	-18.77
892.691	50.86
892.862	38.57
893.032	-22.87
893.203	42.67
893.374	50.86
893.545	50.86
893.716	-63.83
893.887	36.52
894.057	34.47
894.228	89.77
894.399	-37.2
894.57	1.71
894.74	59.05
894.911	75.43
895.082	34.47
895.253	1.71
895.423	18.09
895.594	9.9
895.764	13.99
895.935	-14.68
896.106	-35.16
896.276	-33.11
896.447	11.95
896.617	-31.06
896.788	-29.01
896.958	34.47
897.129	30.38
897.299	-4.44
897.47	34.47
897.64	38.57
897.81	-4.44
897.981	40.62
898.151	-80.21
898.322	52.91
898.492	34.47
898.662	-2.39
898.832	-12.63
899.003	-14.68
899.173	42.67
899.343	-8.53
899.513	-6.49
