Data from USB4F104151__106__14-31-04-038.txt Node

Date: Thu Mar 13 14:31:04 EDT 2025
User: louis
Spectrometer: USB4F10415
Trigger mode: 4
Integration Time (sec): 2.500000E-2
Scans to average: 1
Electric dark correction enabled: true
Nonlinearity correction enabled: false
Boxcar width: 0
XAxis mode: Wavelengths
Number of Pixels in Spectrum: 3648
>>>>>Begin Spectral Data<<<<<
178.204	-169.98
178.424	-169.98
178.644	-169.98
178.864	-192.51
179.084	-90.11
179.304	-32.77
179.524	-8.19
179.744	6.14
179.964	-26.62
180.184	6.14
180.404	-14.34
180.624	14.34
180.844	-10.24
181.064	-55.3
181.283	55.3
181.503	-2.05
181.723	67.58
181.943	-75.77
182.163	106.49
182.383	71.68
182.602	47.1
182.822	53.25
183.042	47.1
183.262	49.15
183.482	-12.29
183.701	22.53
183.921	-26.62
184.141	-2.05
184.361	20.48
184.58	71.68
184.8	57.34
185.02	-8.19
185.239	57.34
185.459	-38.91
185.679	47.1
185.898	-43.01
186.118	24.58
186.338	-30.72
186.557	22.53
186.777	14.34
186.997	16.38
187.216	24.58
187.436	2.05
187.655	10.24
187.875	14.34
188.095	-12.29
188.314	73.73
188.534	65.54
188.753	14.34
188.973	86.01
189.192	120.83
189.412	-38.91
189.631	75.77
189.851	49.15
190.07	57.34
190.29	-2.05
190.509	83.97
190.729	77.82
190.948	4.1
191.168	137.21
191.387	71.68
191.607	-18.43
191.826	-18.43
192.045	45.06
192.265	135.17
192.484	83.97
192.704	83.97
192.923	-65.54
193.142	137.21
193.362	65.54
193.581	88.06
193.8	67.58
194.02	67.58
194.239	16.38
194.458	55.3
194.678	59.39
194.897	-30.72
195.116	-2.05
195.335	10.24
195.555	26.62
195.774	14.34
195.993	45.06
196.212	-34.82
196.432	59.39
196.651	63.49
196.87	8.19
197.089	124.93
197.308	106.49
197.528	59.39
197.747	16.38
197.966	47.1
198.185	106.49
198.404	53.25
198.623	40.96
198.842	18.43
199.062	129.02
199.281	69.63
199.5	-4.1
199.719	34.82
199.938	2.05
200.157	55.3
200.376	40.96
200.595	63.49
200.814	61.44
201.033	22.53
201.252	28.67
201.471	79.87
201.69	104.45
201.909	30.72
202.128	83.97
202.347	63.49
202.566	30.72
202.785	-40.96
203.004	2.05
203.223	120.83
203.442	16.38
203.661	8.19
203.879	30.72
204.098	157.69
204.317	4.1
204.536	55.3
204.755	-10.24
204.974	-2.05
205.193	122.88
205.411	34.82
205.63	22.53
205.849	71.68
206.068	88.06
206.287	-75.77
206.505	90.11
206.724	73.73
206.943	-2.05
207.162	10.24
207.381	30.72
207.599	22.53
207.818	-49.15
208.037	79.87
208.255	-22.53
208.474	75.77
208.693	18.43
208.911	16.38
209.13	-8.19
209.349	4.1
209.567	14.34
209.786	10.24
210.005	22.53
210.223	65.54
210.442	-47.1
210.661	139.26
210.879	63.49
211.098	38.91
211.316	34.82
211.535	141.31
211.753	34.82
211.972	106.49
212.191	10.24
212.409	65.54
212.628	43.01
212.846	16.38
213.065	8.19
213.283	88.06
213.502	20.48
213.72	14.34
213.938	59.39
214.157	57.34
214.375	40.96
214.594	6.14
214.812	38.91
215.031	96.25
215.249	79.87
215.467	47.1
215.686	6.14
215.904	96.25
216.122	38.91
216.341	112.64
216.559	108.54
216.778	75.77
216.996	108.54
217.214	2.05
217.432	18.43
217.651	10.24
217.869	-2.05
218.087	16.38
218.306	-2.05
218.524	6.14
218.742	106.49
218.96	49.15
219.179	4.1
219.397	79.87
219.615	83.97
219.833	49.15
220.051	30.72
220.27	14.34
220.488	-16.38
220.706	22.53
220.924	30.72
221.142	14.34
221.36	-63.49
221.578	81.92
221.796	-16.38
222.015	79.87
222.233	-24.58
222.451	129.02
222.669	-18.43
222.887	79.87
223.105	-6.14
223.323	22.53
223.541	-4.1
223.759	100.35
223.977	104.45
224.195	47.1
224.413	36.86
224.631	34.82
224.849	47.1
225.067	129.02
225.285	61.44
225.503	96.25
225.721	-34.82
225.939	88.06
226.157	49.15
226.375	169.98
226.592	14.34
226.81	-8.19
227.028	38.91
227.246	141.31
227.464	83.97
227.682	38.91
227.9	88.06
228.117	92.16
228.335	-8.19
228.553	28.67
228.771	55.3
228.989	-26.62
229.206	-2.05
229.424	63.49
229.642	-26.62
229.86	40.96
230.077	96.25
230.295	53.25
230.513	57.34
230.731	53.25
230.948	38.91
231.166	83.97
231.384	79.87
231.601	-43.01
231.819	0
232.037	18.43
232.254	0
232.472	6.14
232.689	-88.06
232.907	92.16
233.125	40.96
233.342	-75.77
233.56	8.19
233.777	38.91
233.995	16.38
234.213	38.91
234.43	65.54
234.648	92.16
234.865	67.58
235.083	49.15
235.3	8.19
235.518	57.34
235.735	30.72
235.953	88.06
236.17	38.91
236.388	49.15
236.605	-10.24
236.822	65.54
237.04	26.62
237.257	65.54
237.475	73.73
237.692	30.72
237.909	71.68
238.127	34.82
238.344	2.05
238.562	-18.43
238.779	-16.38
238.996	-6.14
239.214	100.35
239.431	30.72
239.648	47.1
239.865	75.77
240.083	30.72
240.3	51.2
240.517	45.06
240.735	10.24
240.952	30.72
241.169	20.48
241.386	14.34
241.603	-38.91
241.821	-32.77
242.038	79.87
242.255	30.72
242.472	47.1
242.689	24.58
242.907	55.3
243.124	8.19
243.341	16.38
243.558	-30.72
243.775	4.1
243.992	8.19
244.209	67.58
244.426	53.25
244.643	40.96
244.86	-32.77
245.078	22.53
245.295	-2.05
245.512	59.39
245.729	-2.05
245.946	79.87
246.163	28.67
246.38	20.48
246.597	63.49
246.814	-6.14
247.031	20.48
247.248	53.25
247.464	63.49
247.681	30.72
247.898	22.53
248.115	108.54
248.332	18.43
248.549	83.97
248.766	43.01
248.983	90.11
249.2	59.39
249.417	38.91
249.633	40.96
249.85	38.91
250.067	63.49
250.284	-2.05
250.501	71.68
250.717	-26.62
250.934	14.34
251.151	22.53
251.368	47.1
251.585	100.35
251.801	65.54
252.018	67.58
252.235	30.72
252.451	63.49
252.668	88.06
252.885	71.68
253.102	30.72
253.318	67.58
253.535	22.53
253.752	-51.2
253.968	-8.19
254.185	-2.05
254.401	4.1
254.618	40.96
254.835	20.48
255.051	108.54
255.268	-59.39
255.484	57.34
255.701	47.1
255.917	129.02
256.134	-34.82
256.351	30.72
256.567	-40.96
256.784	55.3
257	73.73
257.217	88.06
257.433	38.91
257.65	0
257.866	22.53
258.082	10.24
258.299	47.1
258.515	-16.38
258.732	-16.38
258.948	-30.72
259.165	-14.34
259.381	40.96
259.597	-8.19
259.814	40.96
260.03	83.97
260.246	81.92
260.463	36.86
260.679	79.87
260.895	18.43
261.112	65.54
261.328	16.38
261.544	-2.05
261.761	129.02
261.977	14.34
262.193	-32.77
262.409	-10.24
262.626	26.62
262.842	104.45
263.058	14.34
263.274	-22.53
263.49	71.68
263.707	43.01
263.923	73.73
264.139	26.62
264.355	-108.54
264.571	98.3
264.787	73.73
265.004	81.92
265.22	14.34
265.436	6.14
265.652	0
265.868	65.54
266.084	12.29
266.3	71.68
266.516	22.53
266.732	108.54
266.948	73.73
267.164	-10.24
267.38	28.67
267.596	-2.05
267.812	-12.29
268.028	14.34
268.244	2.05
268.46	32.77
268.676	55.3
268.892	28.67
269.108	22.53
269.324	18.43
269.54	-18.43
269.756	83.97
269.972	-38.91
270.188	49.15
270.403	-6.14
270.619	75.77
270.835	92.16
271.051	22.53
271.267	-4.1
271.483	55.3
271.698	38.91
271.914	63.49
272.13	-28.67
272.346	67.58
272.562	-14.34
272.777	32.77
272.993	30.72
273.209	-18.43
273.425	75.77
273.64	71.68
273.856	16.38
274.072	-20.48
274.287	-30.72
274.503	104.45
274.719	47.1
274.934	63.49
275.15	12.29
275.366	38.91
275.581	55.3
275.797	55.3
276.012	53.25
276.228	47.1
276.444	55.3
276.659	120.83
276.875	-10.24
277.09	122.88
277.306	24.58
277.521	6.14
277.737	-10.24
277.952	67.58
278.168	55.3
278.383	30.72
278.599	38.91
278.814	79.87
279.03	45.06
279.245	71.68
279.461	30.72
279.676	81.92
279.892	-2.05
280.107	-2.05
280.322	14.34
280.538	18.43
280.753	-2.05
280.969	6.14
281.184	30.72
281.399	63.49
281.615	40.96
281.83	0
282.045	14.34
282.26	14.34
282.476	67.58
282.691	-43.01
282.906	2.05
283.122	6.14
283.337	8.19
283.552	59.39
283.767	34.82
283.983	129.02
284.198	34.82
284.413	98.3
284.628	43.01
284.843	34.82
285.058	116.73
285.274	8.19
285.489	40.96
285.704	112.64
285.919	47.1
286.134	83.97
286.349	81.92
286.564	88.06
286.779	106.49
286.995	4.1
287.21	18.43
287.425	51.2
287.64	-36.86
287.855	38.91
288.07	-14.34
288.285	67.58
288.5	43.01
288.715	49.15
288.93	32.77
289.145	2.05
289.36	88.06
289.575	71.68
289.79	-10.24
290.004	88.06
290.219	38.91
290.434	65.54
290.649	71.68
290.864	-12.29
291.079	-28.67
291.294	55.3
291.509	14.34
291.724	88.06
291.938	32.77
292.153	32.77
292.368	22.53
292.583	20.48
292.798	112.64
293.012	14.34
293.227	40.96
293.442	79.87
293.657	30.72
293.871	129.02
294.086	47.1
294.301	135.17
294.516	90.11
294.73	30.72
294.945	-63.49
295.16	34.82
295.374	86.01
295.589	139.26
295.804	38.91
296.018	-10.24
296.233	141.31
296.447	16.38
296.662	-24.58
296.877	57.34
297.091	112.64
297.306	55.3
297.52	16.38
297.735	43.01
297.949	22.53
298.164	81.92
298.378	81.92
298.593	4.1
298.807	61.44
299.022	63.49
299.236	116.73
299.451	59.39
299.665	79.87
299.88	-34.82
300.094	43.01
300.309	49.15
300.523	-14.34
300.737	-6.14
300.952	40.96
301.166	59.39
301.381	112.64
301.595	104.45
301.809	43.01
302.024	47.1
302.238	79.87
302.452	122.88
302.667	6.14
302.881	79.87
303.095	-4.1
303.309	79.87
303.524	-10.24
303.738	0
303.952	24.58
304.166	-2.05
304.381	-10.24
304.595	92.16
304.809	47.1
305.023	47.1
305.237	67.58
305.452	20.48
305.666	30.72
305.88	88.06
306.094	73.73
306.308	110.59
306.522	30.72
306.736	55.3
306.95	100.35
307.164	90.11
307.379	67.58
307.593	40.96
307.807	55.3
308.021	57.34
308.235	-49.15
308.449	47.1
308.663	18.43
308.877	116.73
309.091	38.91
309.305	30.72
309.519	6.14
309.733	124.93
309.947	22.53
310.161	75.77
310.374	49.15
310.588	65.54
310.802	-43.01
311.016	36.86
311.23	88.06
311.444	43.01
311.658	14.34
311.872	34.82
312.085	26.62
312.299	36.86
312.513	-10.24
312.727	30.72
312.941	6.14
313.154	55.3
313.368	40.96
313.582	96.25
313.796	112.64
314.009	-18.43
314.223	108.54
314.437	63.49
314.651	55.3
314.864	-8.19
315.078	22.53
315.292	88.06
315.505	38.91
315.719	96.25
315.933	65.54
316.146	-38.91
316.36	67.58
316.573	26.62
316.787	20.48
317.001	49.15
317.214	69.63
317.428	53.25
317.641	-2.05
317.855	67.58
318.068	0
318.282	16.38
318.495	79.87
318.709	73.73
318.922	116.73
319.136	108.54
319.349	8.19
319.563	51.2
319.776	30.72
319.99	30.72
320.203	14.34
320.417	75.77
320.63	129.02
320.843	45.06
321.057	-26.62
321.27	34.82
321.483	77.82
321.697	69.63
321.91	49.15
322.124	30.72
322.337	12.29
322.55	-8.19
322.763	38.91
322.977	55.3
323.19	30.72
323.403	38.91
323.617	38.91
323.83	36.86
324.043	114.69
324.256	49.15
324.469	0
324.683	92.16
324.896	40.96
325.109	100.35
325.322	55.3
325.535	-10.24
325.748	12.29
325.962	34.82
326.175	-16.38
326.388	30.72
326.601	43.01
326.814	116.73
327.027	55.3
327.24	38.91
327.453	61.44
327.666	55.3
327.879	153.6
328.092	16.38
328.305	79.87
328.518	-26.62
328.731	10.24
328.944	55.3
329.157	83.97
329.37	55.3
329.583	114.69
329.796	217.08
330.009	-34.82
330.222	51.2
330.435	26.62
330.648	26.62
330.861	73.73
331.073	6.14
331.286	112.64
331.499	65.54
331.712	30.72
331.925	51.2
332.138	-26.62
332.35	75.77
332.563	47.1
332.776	165.89
332.989	49.15
333.202	71.68
333.414	55.3
333.627	-18.43
333.84	94.21
334.053	63.49
334.265	65.54
334.478	106.49
334.691	-8.19
334.903	14.34
335.116	14.34
335.329	71.68
335.541	59.39
335.754	161.79
335.966	-8.19
336.179	-10.24
336.392	51.2
336.604	6.14
336.817	165.89
337.029	22.53
337.242	40.96
337.454	63.49
337.667	108.54
337.88	137.21
338.092	49.15
338.305	75.77
338.517	2.05
338.729	63.49
338.942	22.53
339.154	-40.96
339.367	18.43
339.579	96.25
339.792	14.34
340.004	18.43
340.217	-18.43
340.429	81.92
340.641	59.39
340.854	10.24
341.066	8.19
341.278	96.25
341.491	141.31
341.703	143.36
341.915	49.15
342.128	47.1
342.34	71.68
342.552	69.63
342.764	36.86
342.977	10.24
343.189	14.34
343.401	10.24
343.613	-32.77
343.826	71.68
344.038	30.72
344.25	88.06
344.462	49.15
344.674	129.02
344.886	26.62
345.099	110.59
345.311	67.58
345.523	20.48
345.735	-69.63
345.947	40.96
346.159	112.64
346.371	63.49
346.583	47.1
346.795	96.25
347.007	14.34
347.219	57.34
347.431	57.34
347.643	122.88
347.855	112.64
348.067	161.79
348.279	63.49
348.491	30.72
348.703	32.77
348.915	40.96
349.127	88.06
349.339	43.01
349.551	-32.77
349.763	38.91
349.975	71.68
350.187	49.15
350.399	90.11
350.61	34.82
350.822	-26.62
351.034	124.93
351.246	79.87
351.458	18.43
351.669	131.07
351.881	92.16
352.093	24.58
352.305	32.77
352.517	12.29
352.728	184.32
352.94	73.73
353.152	63.49
353.363	55.3
353.575	79.87
353.787	79.87
353.999	57.34
354.21	75.77
354.422	10.24
354.633	-26.62
354.845	59.39
355.057	75.77
355.268	104.45
355.48	24.58
355.692	24.58
355.903	65.54
356.115	79.87
356.326	-32.77
356.538	114.69
356.749	55.3
356.961	157.69
357.172	32.77
357.384	57.34
357.595	116.73
357.807	14.34
358.018	61.44
358.23	8.19
358.441	139.26
358.653	83.97
358.864	88.06
359.075	79.87
359.287	51.2
359.498	112.64
359.709	30.72
359.921	51.2
360.132	129.02
360.344	-2.05
360.555	38.91
360.766	133.12
360.977	30.72
361.189	145.41
361.4	-34.82
361.611	143.36
361.823	69.63
362.034	34.82
362.245	8.19
362.456	47.1
362.667	-14.34
362.879	36.86
363.09	75.77
363.301	86.01
363.512	49.15
363.723	10.24
363.935	71.68
364.146	6.14
364.357	63.49
364.568	83.97
364.779	57.34
364.99	73.73
365.201	32.77
365.412	139.26
365.623	114.69
365.834	161.79
366.045	-8.19
366.256	129.02
366.467	98.3
366.678	92.16
366.889	71.68
367.1	55.3
367.311	30.72
367.522	65.54
367.733	47.1
367.944	47.1
368.155	92.16
368.366	98.3
368.577	79.87
368.788	26.62
368.999	71.68
369.209	26.62
369.42	139.26
369.631	129.02
369.842	10.24
370.053	-2.05
370.264	71.68
370.474	38.91
370.685	104.45
370.896	81.92
371.107	83.97
371.317	131.07
371.528	16.38
371.739	104.45
371.95	129.02
372.16	131.07
372.371	32.77
372.582	63.49
372.792	53.25
373.003	40.96
373.214	75.77
373.424	83.97
373.635	10.24
373.846	139.26
374.056	75.77
374.267	51.2
374.477	71.68
374.688	65.54
374.898	-8.19
375.109	67.58
375.319	26.62
375.53	71.68
375.74	63.49
375.951	0
376.161	65.54
376.372	88.06
376.582	-18.43
376.793	18.43
377.003	51.2
377.214	63.49
377.424	112.64
377.635	63.49
377.845	32.77
378.055	47.1
378.266	32.77
378.476	86.01
378.686	79.87
378.897	137.21
379.107	94.21
379.317	116.73
379.528	59.39
379.738	112.64
379.948	-16.38
380.158	-30.72
380.369	81.92
380.579	100.35
380.789	55.3
380.999	0
381.21	47.1
381.42	112.64
381.63	38.91
381.84	88.06
382.05	30.72
382.261	77.82
382.471	129.02
382.681	79.87
382.891	65.54
383.101	38.91
383.311	4.1
383.521	4.1
383.731	106.49
383.941	67.58
384.151	61.44
384.361	20.48
384.571	51.2
384.781	40.96
384.991	112.64
385.201	139.26
385.411	120.83
385.621	51.2
385.831	47.1
386.041	71.68
386.251	96.25
386.461	49.15
386.671	47.1
386.881	194.56
387.091	90.11
387.301	55.3
387.511	110.59
387.72	151.55
387.93	110.59
388.14	73.73
388.35	88.06
388.56	96.25
388.769	161.79
388.979	16.38
389.189	4.1
389.399	77.82
389.609	69.63
389.818	114.69
390.028	147.45
390.238	108.54
390.447	43.01
390.657	210.94
390.867	61.44
391.076	18.43
391.286	55.3
391.496	47.1
391.705	94.21
391.915	38.91
392.125	96.25
392.334	16.38
392.544	116.73
392.753	59.39
392.963	32.77
393.172	75.77
393.382	104.45
393.591	137.21
393.801	73.73
394.01	116.73
394.22	131.07
394.429	45.06
394.639	100.35
394.848	157.69
395.058	118.78
395.267	165.89
395.477	65.54
395.686	129.02
395.895	163.84
396.105	153.6
396.314	110.59
396.524	159.74
396.733	83.97
396.942	163.84
397.152	139.26
397.361	137.21
397.57	96.25
397.78	143.36
397.989	79.87
398.198	196.61
398.407	73.73
398.617	122.88
398.826	94.21
399.035	161.79
399.244	96.25
399.453	100.35
399.663	155.65
399.872	141.31
400.081	71.68
400.29	161.79
400.499	114.69
400.708	155.65
400.917	186.37
401.127	161.79
401.336	137.21
401.545	172.03
401.754	120.83
401.963	161.79
402.172	86.01
402.381	131.07
402.59	124.93
402.799	145.41
403.008	231.42
403.217	131.07
403.426	167.93
403.635	145.41
403.844	151.55
404.053	251.9
404.262	186.37
404.471	219.13
404.68	172.03
404.888	178.17
405.097	178.17
405.306	165.89
405.515	210.94
405.724	180.22
405.933	249.85
406.142	237.56
406.35	270.33
406.559	264.19
406.768	163.84
406.977	280.57
407.185	233.47
407.394	284.67
407.603	215.04
407.812	245.76
408.02	317.44
408.229	305.15
408.438	266.24
408.646	229.37
408.855	268.28
409.064	301.05
409.272	354.3
409.481	481.27
409.69	309.24
409.898	327.67
410.107	393.21
410.315	399.35
410.524	423.93
410.733	423.93
410.941	378.87
411.15	505.85
411.358	483.32
411.567	452.6
411.775	460.79
411.984	526.33
412.192	548.86
412.401	485.37
412.609	573.43
412.818	573.43
413.026	671.73
413.234	538.62
413.443	636.92
413.651	632.82
413.86	704.5
414.068	745.46
414.276	796.66
414.485	767.99
414.693	743.41
414.901	899.06
415.11	860.15
415.318	923.63
415.526	884.72
415.734	1013.74
415.943	968.69
416.151	1054.7
416.359	927.73
416.567	1095.66
416.776	1153.01
416.984	1175.53
417.192	1275.88
417.4	1302.51
417.608	1308.65
417.817	1351.66
418.025	1378.28
418.233	1521.64
418.441	1390.57
418.649	1492.97
418.857	1587.18
419.065	1630.18
419.273	1650.66
419.481	1685.48
419.689	1816.55
419.897	1875.94
420.105	1890.28
420.313	1918.95
420.521	1974.24
420.729	2119.65
420.937	2170.85
421.145	2113.5
421.353	2275.29
421.561	2502.62
421.769	2465.75
421.977	2541.53
422.185	2463.71
422.393	2703.32
422.601	2926.55
422.809	2906.07
423.017	2834.39
423.224	3028.95
423.432	3176.4
423.64	3186.64
423.848	3551.18
424.056	3295.18
424.263	3536.84
424.471	3528.65
424.679	3629
424.887	3848.13
425.094	4057.03
425.302	3993.54
425.51	4143.04
425.718	4136.9
425.925	4298.69
426.133	4446.14
426.341	4628.41
426.548	4868.02
426.756	4927.41
426.964	5038
427.171	5152.69
427.379	5392.3
427.586	5515.18
427.794	5705.64
428.001	6012.84
428.209	6088.61
428.417	6057.89
428.624	6576.03
428.832	6354.85
429.039	6436.77
429.247	6539.16
429.454	7167.89
429.662	7450.51
429.869	6920.09
430.076	7618.44
430.284	7432.08
430.491	7765.9
430.699	7905.16
430.906	8105.86
431.114	8179.59
431.321	8324.99
431.528	8636.28
431.736	9095.03
431.943	9516.91
432.15	9228.15
432.358	9494.38
432.565	9856.87
432.772	9871.21
432.979	10303.33
433.187	10563.42
433.394	10657.63
433.601	11355.99
433.808	11298.64
434.016	11286.36
434.223	11716.43
434.43	12347.2
434.637	12263.24
434.844	13141.82
435.052	13088.57
435.259	13211.45
435.466	13408.05
435.673	13154.1
435.88	14034.73
436.087	14858.01
436.294	14808.86
436.501	14520.1
436.708	14585.63
436.915	15189.78
437.122	15718.16
437.329	15918.86
437.537	16332.55
437.743	16457.48
437.95	16596.74
438.157	17430.26
438.364	17841.9
438.571	17897.2
438.778	18061.04
438.985	19431.13
439.192	18886.37
439.399	19439.32
439.606	19056.35
439.813	20184.78
440.02	21231.29
440.227	20977.34
440.433	20700.87
440.64	21118.65
440.847	21323.45
441.054	21814.96
441.261	23101.09
441.467	22933.15
441.674	23195.29
441.881	23975.57
442.088	24145.55
442.294	23869.08
442.501	24176.27
442.708	24811.14
442.914	26132.08
443.121	26957.41
443.328	26123.89
443.534	27813.46
443.741	27096.67
443.948	26977.89
444.154	29079.11
444.361	28794.44
444.568	28962.37
444.774	29038.15
444.981	29613.63
445.187	30182.96
445.394	31614.49
445.6	31157.8
445.807	33848.83
446.013	32560.66
446.22	33072.65
446.426	34010.62
446.633	34739.69
446.839	35986.91
447.046	34360.82
447.252	36232.66
447.459	36203.99
447.665	36031.96
447.871	37981.63
448.078	39157.16
448.284	37426.63
448.491	38419.89
448.697	39990.69
448.903	40316.31
449.11	40394.14
449.316	40168.86
449.522	40637.84
449.728	41702.79
449.935	41862.53
450.141	42444.15
450.347	42962.29
450.553	41393.54
450.76	42182.01
450.966	43545.96
451.172	42665.33
451.378	44330.33
451.584	43156.85
451.791	43836.77
451.997	44232.03
452.203	44537.18
452.409	44617.05
452.615	44787.03
452.821	42745.2
453.027	42524.02
453.233	44860.76
453.44	43031.92
453.646	43382.12
453.852	43132.27
454.058	44203.36
454.264	42630.52
454.47	43994.46
454.676	42812.79
454.882	44092.77
455.088	40863.12
455.294	41082.25
455.5	41710.98
455.705	42085.76
455.911	40431
456.117	39779.75
456.323	38952.37
456.529	37262.79
456.735	38618.55
456.941	37551.56
457.147	37141.96
457.352	36322.77
457.558	35532.26
457.764	35804.64
457.97	35311.08
458.176	34565.62
458.381	34412.02
458.587	32753.16
458.793	32544.27
458.999	30875.18
459.204	32849.42
459.41	32132.63
459.616	30473.77
459.821	29992.5
460.027	29572.67
460.233	29226.56
460.438	28120.66
460.644	28212.82
460.85	26973.8
461.055	26496.62
461.261	26351.21
461.466	24520.33
461.672	23901.84
461.878	25384.57
462.083	23793.3
462.289	23357.08
462.494	22931.11
462.7	22144.69
462.905	21518.01
463.111	22144.69
463.316	22224.56
463.522	21855.92
463.727	21976.75
463.932	21794.48
464.138	21233.34
464.343	21483.19
464.549	21032.64
464.754	21634.74
464.959	21405.37
465.165	21348.03
465.37	20258.51
465.575	19603.16
465.781	20475.59
465.986	20610.76
466.191	19865.3
466.397	19547.86
466.602	18499.3
466.807	19275.48
467.012	19255
467.218	19095.26
467.423	19191.52
467.628	19044.06
467.833	19984.08
468.038	19099.36
468.244	18429.67
468.449	19287.77
468.654	18433.77
468.859	18386.66
469.064	18310.89
469.269	17800.94
469.474	17874.67
469.679	18261.74
469.885	17444.6
470.09	17972.97
470.295	17538.8
470.5	17147.64
470.705	17276.66
470.91	17170.17
471.115	16987.9
471.32	17045.24
471.525	17078.01
471.73	16664.32
471.935	16406.28
472.139	15785.74
472.344	16013.07
472.549	16013.07
472.754	15963.92
472.959	15660.82
473.164	15228.7
473.369	14919.45
473.574	15814.41
473.778	15189.78
473.983	15103.77
474.188	15073.05
474.393	14376.74
474.598	14868.25
474.802	14440.23
475.007	14323.49
475.212	14341.93
475.417	13850.41
475.621	13852.46
475.826	13850.41
476.031	13481.78
476.235	13219.64
476.44	13555.51
476.645	13254.45
476.849	13471.54
477.054	13182.77
477.259	12853.05
477.463	12984.12
477.668	12783.42
477.872	12932.92
478.077	12543.81
478.282	12089.16
478.486	12355.4
478.691	12078.92
478.895	12158.79
479.1	12089.16
479.304	12162.89
479.509	11521.87
479.713	11675.47
479.918	11671.37
480.122	11421.52
480.326	11552.59
480.531	11665.23
480.735	11386.71
480.94	11380.56
481.144	11683.66
481.348	11136.85
481.553	11255.64
481.757	10893.15
481.961	11110.23
482.166	11429.71
482.37	11188.05
482.574	11032.41
482.778	11159.38
482.983	11177.81
483.187	11231.06
483.391	11089.75
483.595	11200.34
483.8	11110.23
484.004	10960.73
484.208	11284.31
484.412	11171.67
484.616	11167.57
484.821	11124.57
485.025	10993.5
485.229	11218.77
485.433	11130.71
485.637	11071.32
485.841	10977.11
486.045	10882.91
486.249	11183.96
486.453	10690.4
486.657	11081.56
486.861	11208.53
487.065	10897.24
487.269	11120.47
487.473	11013.98
487.677	11046.74
487.881	11351.89
488.085	11052.89
488.289	11024.22
488.493	10958.68
488.697	10962.78
488.901	11220.82
489.105	11419.47
489.309	10960.73
489.512	11222.87
489.716	11329.36
489.92	11163.48
490.124	11007.83
490.328	11366.23
490.531	11183.96
490.735	11384.66
490.939	11276.12
491.143	11151.19
491.346	11265.88
491.55	11419.47
491.754	11564.88
491.958	11470.67
492.161	11487.06
492.365	11487.06
492.569	11351.89
492.772	11548.5
492.976	11687.76
493.18	11745.1
493.383	11851.6
493.587	11827.02
493.79	11923.27
493.994	11771.72
494.197	11949.9
494.401	12056.39
494.605	12035.91
494.808	12336.96
495.012	12302.15
495.215	12345.16
495.419	12504.9
495.622	12515.14
495.825	12517.18
496.029	12459.84
496.232	12943.16
496.436	12734.27
496.639	13199.16
496.843	13147.96
497.046	13395.76
497.249	13381.43
497.453	13379.38
497.656	13324.08
497.859	13334.32
498.063	13559.6
498.266	14034.73
498.469	13866.8
498.673	13862.7
498.876	14243.62
499.079	14280.49
499.282	14505.76
499.485	14747.42
499.689	14561.06
499.892	15040.28
500.095	15056.67
500.298	15267.61
500.501	15089.43
500.705	15836.94
500.908	15906.57
501.111	15810.32
501.314	16019.21
501.517	16111.37
501.72	16609.03
501.923	16324.36
502.126	16858.88
502.329	17108.73
502.532	16867.07
502.735	17104.63
502.938	17356.54
503.141	17766.13
503.344	17653.49
503.547	17590
503.75	18130.67
503.953	18091.76
504.156	18349.8
504.359	18233.07
504.562	18425.57
504.765	18890.46
504.968	19195.61
505.17	19388.12
505.373	19044.06
505.576	19963.6
505.779	19658.45
505.982	20201.16
506.185	20653.76
506.387	20457.16
506.59	20465.35
506.793	21423.8
506.996	21110.46
507.198	21806.77
507.401	21542.58
507.604	21360.31
507.807	21991.09
508.009	22152.88
508.212	22525.61
508.415	22650.53
508.617	22714.02
508.82	23090.85
509.022	22849.19
509.225	23428.76
509.428	23735.96
509.63	23774.87
509.833	23907.99
510.035	24243.85
510.238	24491.66
510.44	24753.8
510.643	25151.1
510.845	25071.23
511.048	24942.21
511.25	25495.16
511.453	25255.55
511.655	26547.82
511.858	26199.66
512.06	26623.59
512.262	26848.87
512.465	26558.06
512.667	27225.7
512.87	27471.45
513.072	27534.94
513.274	28304.98
513.477	28401.23
513.679	28558.92
513.881	28733
514.084	29109.83
514.286	28933.7
514.488	29386.3
514.69	29740.6
514.893	30092.85
515.095	30041.65
515.297	29990.45
515.499	30404.14
515.701	30279.22
515.904	31342.11
516.106	31221.28
516.308	31608.35
516.51	32194.07
516.712	31755.8
516.914	32163.35
517.116	32456.21
517.318	32988.68
517.52	32771.6
517.722	33011.21
517.925	33891.83
518.127	34098.68
518.329	34090.49
518.531	33789.44
518.733	34498.03
518.935	34584.05
519.136	34702.83
519.338	35397.09
519.54	35395.04
519.742	35759.58
519.944	35534.31
520.146	36210.14
520.348	36419.03
520.55	36531.67
520.752	36609.49
520.954	37033.42
521.155	36756.94
521.357	37438.92
521.559	37387.72
521.761	38020.54
521.963	37774.78
522.164	37985.72
522.366	38274.49
522.568	38251.96
522.77	38579.64
522.971	39464.36
523.173	38561.2
523.375	38954.41
523.576	39093.68
523.778	39439.78
523.98	39673.25
524.181	39652.77
524.383	39599.52
524.584	40039.84
524.786	39738.79
524.988	39611.81
525.189	40641.94
525.391	40365.46
525.592	40787.35
525.794	40803.73
525.995	40877.46
526.197	40648.08
526.398	40838.54
526.6	40928.66
526.801	41475.46
527.003	41319.82
527.204	41203.08
527.406	41440.65
527.607	41667.97
527.808	41878.91
528.01	41104.78
528.211	41510.28
528.412	42102.14
528.614	41903.49
528.815	41766.27
529.016	42108.29
529.218	41958.78
529.419	41508.23
529.62	41614.72
529.822	42108.29
530.023	42157.44
530.224	41864.58
530.425	41870.72
530.626	41637.25
530.828	41594.25
531.029	42421.62
531.23	41741.7
531.431	41577.86
531.632	41864.58
531.833	41905.54
532.035	41729.41
532.236	42147.2
532.437	42139.01
532.638	41751.94
532.839	41975.17
533.04	42638.71
533.241	41510.28
533.442	42253.69
533.643	41751.94
533.844	42118.53
534.045	41776.51
534.246	41338.25
534.447	42173.82
534.648	41598.34
534.849	41930.11
535.05	41559.43
535.251	41567.62
535.451	41786.75
535.652	41416.07
535.853	41661.83
536.054	41667.97
536.255	41926.02
536.456	41254.28
536.657	41934.21
536.857	41250.19
537.058	41272.71
537.259	41926.02
537.46	41420.17
537.66	41244.04
537.861	41569.67
538.062	41112.97
538.263	41538.95
538.463	40902.03
538.664	41184.65
538.865	41074.06
539.065	41368.97
539.266	41041.29
539.466	41303.43
539.667	40629.65
539.868	41420.17
540.068	41012.62
540.269	40973.71
540.469	41055.63
540.67	40996.24
540.87	40828.31
541.071	40777.11
541.271	41065.87
541.472	40674.71
541.672	40570.26
541.873	40125.85
542.073	40332.7
542.274	40723.86
542.474	40979.85
542.675	40285.59
542.875	40732.05
543.075	40504.73
543.276	40177.05
543.476	40609.17
543.676	40770.96
543.877	40764.82
544.077	40727.95
544.277	40455.57
544.478	40314.26
544.678	40512.92
544.878	40164.76
545.078	40535.45
545.279	40562.07
545.479	40029.6
545.679	40420.76
545.879	40519.06
546.079	40621.46
546.28	39955.87
546.48	40013.21
546.68	40617.36
546.88	40641.94
547.08	40326.55
547.28	39998.88
547.48	39765.41
547.68	40480.15
547.88	40033.69
548.081	40451.48
548.281	40576.4
548.481	40299.93
548.681	40498.58
548.881	40371.61
549.081	40387.99
549.28	39771.55
549.48	40678.8
549.68	40314.26
549.88	40965.52
550.08	40265.11
550.28	40496.53
550.48	40312.22
550.68	40191.39
550.88	40314.26
551.08	40244.63
551.279	40113.56
551.479	40267.16
551.679	40066.46
551.879	40336.79
552.079	40246.68
552.278	40250.78
552.478	40353.18
552.678	40459.67
552.878	40646.04
553.077	40379.8
553.277	39892.38
553.477	40658.32
553.676	40510.87
553.876	40742.29
554.076	40461.72
554.275	40349.08
554.475	39970.21
554.674	40525.21
554.874	40435.1
555.074	40414.62
555.273	40431
555.473	41065.87
555.672	40375.7
555.872	40541.59
556.071	40646.04
556.271	40580.5
556.47	40840.59
556.67	40396.18
556.869	40662.42
557.068	40666.52
557.268	40404.38
557.467	40582.55
557.667	40445.33
557.866	40627.6
558.065	40412.57
558.265	40218.01
558.464	40091.04
558.663	40539.54
558.863	40029.6
559.062	40945.04
559.261	40332.7
559.461	40795.54
559.66	40093.08
559.859	40611.22
560.058	40152.48
560.258	40422.81
560.457	40107.42
560.656	40289.69
560.855	40521.11
561.054	40560.02
561.253	40324.5
561.453	40607.12
561.652	40334.74
561.851	40383.9
562.05	40504.73
562.249	40387.99
562.448	40304.03
562.647	40390.04
562.846	39933.34
563.045	40183.19
563.244	40068.51
563.443	40150.43
563.642	39757.22
563.841	39992.73
564.04	39740.83
564.239	40142.24
564.438	39820.7
564.637	39929.25
564.836	40119.71
565.035	39777.7
565.234	40150.43
565.432	39587.24
565.631	39495.08
565.83	40009.12
566.029	39656.87
566.228	39554.47
566.427	39626.15
566.625	39409.06
566.824	39261.61
567.023	39507.37
567.222	38874.54
567.42	39339.43
567.619	39312.81
567.818	39216.55
568.016	39298.47
568.215	39742.88
568.414	38970.8
568.612	39222.7
568.811	38837.68
569.01	39116.2
569.208	38581.68
569.407	38976.94
569.605	38712.75
569.804	38733.23
570.002	38434.23
570.201	38526.39
570.4	38174.14
570.598	38120.89
570.797	38000.06
570.995	38241.72
571.193	37873.09
571.392	38329.78
571.59	37733.82
571.789	38010.3
571.987	37856.7
572.186	37731.78
572.384	37897.66
572.582	37959.1
572.781	37979.58
572.979	37463.49
573.177	37342.66
573.376	37490.12
573.574	37227.98
573.772	37357
573.971	37152.2
574.169	37029.32
574.367	37221.83
574.565	37221.83
574.763	36740.56
574.962	36681.17
575.16	36214.23
575.358	36795.85
575.556	36230.62
575.754	36570.58
575.952	35855.84
576.151	36679.12
576.349	36128.22
576.547	36101.59
576.745	36220.38
576.943	36439.51
577.141	36173.27
577.339	35833.31
577.537	35753.44
577.735	35491.3
577.933	35409.38
578.131	35737.05
578.329	35001.83
578.527	35243.49
578.725	35180.01
578.923	35454.44
579.121	35167.72
579.319	35180.01
579.516	35253.73
579.714	34680.3
579.912	34475.51
580.11	34465.27
580.308	34659.82
580.506	34883.05
580.704	34086.39
580.901	34610.67
581.099	34516.47
581.297	34065.91
581.495	33916.41
581.692	34512.37
581.89	33893.88
582.088	34055.67
582.285	33945.08
582.483	34006.52
582.681	33744.38
582.878	33267.2
583.076	33322.5
583.274	33719.81
583.471	33168.9
583.669	33363.46
583.866	33734.14
584.064	33428.99
584.262	33056.26
584.459	33428.99
584.657	33248.77
584.854	33435.14
585.052	32611.85
585.249	32796.17
585.447	32873.99
585.644	32577.04
585.841	32697.87
586.039	32790.03
586.236	32306.71
586.434	32378.39
586.631	32136.73
586.828	32554.51
587.026	32388.63
587.223	32112.15
587.42	31880.73
587.618	31899.16
587.815	31553.05
588.012	31555.1
588.21	31690.27
588.407	31751.71
588.604	31405.6
588.801	31161.89
588.999	31139.36
589.196	31548.96
589.393	31505.95
589.59	30928.42
589.787	31202.85
589.984	31036.97
590.182	30801.45
590.379	31225.38
590.576	30776.87
590.773	30748.2
590.97	30830.12
591.167	31088.17
591.364	30500.4
591.561	30641.71
591.758	30418.48
591.955	30471.73
592.152	30584.37
592.349	30281.27
592.546	30594.61
592.743	30223.92
592.94	30213.68
593.137	29937.21
593.334	30268.98
593.531	29646.4
593.727	29834.81
593.924	30088.76
594.121	29832.76
594.318	29711.93
594.515	29566.52
594.712	29746.75
594.908	29716.03
595.105	29650.49
595.302	29509.18
595.499	29591.1
595.696	29623.87
595.892	28941.89
596.089	29359.68
596.286	29488.7
596.482	29283.91
596.679	29253.19
596.876	29185.6
597.072	29077.06
597.269	29251.14
597.466	29101.64
597.662	28872.26
597.859	28939.85
598.055	29158.98
598.252	28747.34
598.448	28841.54
598.645	28909.13
598.841	28628.56
599.038	28679.75
599.234	28601.93
599.431	28403.28
599.627	28616.27
599.824	29077.06
600.02	28321.36
600.217	28481.1
600.413	28497.49
600.609	28505.68
600.806	28581.45
601.002	28700.23
601.198	28118.61
601.395	28255.82
601.591	28356.18
601.787	28452.43
601.984	28307.02
602.18	28745.29
602.376	28116.56
602.572	28343.89
602.769	28493.39
602.965	28104.28
603.161	27887.19
603.357	28110.42
603.553	28259.92
603.75	28044.88
603.946	28094.04
604.142	28106.32
604.338	27608.67
604.534	28370.51
604.73	27932.25
604.926	28251.73
605.122	28229.2
605.318	28141.14
605.514	28067.41
605.71	27962.97
605.906	28073.56
606.102	27854.42
606.298	27715.16
606.494	28059.22
606.69	28106.32
606.886	27870.81
607.082	27358.81
607.278	27663.96
607.474	27721.3
607.67	28048.98
607.866	27506.27
608.062	28319.31
608.257	28001.88
608.453	27895.38
608.649	28323.41
608.845	27840.09
609.041	27582.04
609.236	27899.48
609.432	28145.23
609.628	28196.43
609.824	27612.76
610.019	27885.14
610.215	27948.63
610.411	28307.02
610.606	27917.91
610.802	27760.22
610.998	27870.81
611.193	27891.29
611.389	27819.61
611.584	27825.75
611.78	27639.39
611.976	28053.08
612.171	28057.17
612.367	27887.19
612.562	28112.47
612.758	27600.47
612.953	27825.75
613.149	27946.58
613.344	27768.41
613.539	28167.76
613.735	27817.56
613.93	27764.31
614.126	27969.11
614.321	28151.38
614.517	28098.13
614.712	27805.27
614.907	27567.71
615.103	27870.81
615.298	27782.74
615.493	27977.3
615.688	27483.74
615.884	27962.97
616.079	27330.14
616.274	27731.54
616.47	27463.26
616.665	27795.03
616.86	27493.98
617.055	27772.5
617.25	27792.98
617.445	27555.42
617.641	27182.69
617.836	27625.05
618.031	27248.22
618.226	27641.43
618.421	27182.69
618.616	27709.02
618.811	26877.54
619.006	27410.01
619.201	26613.35
619.396	26981.99
619.591	26703.46
619.786	27125.35
619.981	26529.39
620.176	26586.73
620.371	26449.52
620.566	26963.56
620.761	26275.44
620.956	26476.14
621.151	26107.51
621.346	26398.32
621.541	25884.28
621.735	26281.58
621.93	25710.2
622.125	25884.28
622.32	25386.62
622.515	25949.81
622.709	25515.64
622.904	25196.16
623.099	25284.22
623.294	25505.4
623.488	25319.04
623.683	25187.97
623.878	24280.72
624.072	24729.22
624.267	24645.26
624.462	24637.06
624.656	24456.84
624.851	24315.53
625.046	23981.71
625.24	24311.44
625.435	23873.17
625.629	23899.8
625.824	23695
626.018	23881.36
626.213	23281.31
626.407	23596.7
626.602	23029.41
626.796	23443.1
626.991	23498.39
627.185	23068.32
627.38	22654.63
627.574	22650.53
627.768	22345.39
627.963	22453.93
628.157	22519.46
628.352	22404.78
628.546	21888.69
628.74	22271.66
628.935	22060.72
629.129	22013.62
629.323	21728.95
629.517	21620.41
629.712	21640.89
629.906	21544.63
630.1	21446.33
630.294	21157.57
630.489	21139.13
630.683	21505.72
630.877	21198.52
631.071	20842.18
631.265	20901.57
631.459	20627.14
631.653	20381.38
631.848	20383.43
632.042	20444.87
632.236	20420.3
632.43	19965.65
632.624	20348.62
632.818	20080.33
633.012	19672.79
633.206	19793.62
633.4	19824.34
633.594	19330.78
633.788	19652.31
633.982	19564.25
634.176	19345.11
634.369	19330.78
634.563	19480.28
634.757	19001.05
634.951	19314.39
635.145	18986.72
635.339	18999.01
635.533	18659.04
635.726	18681.57
635.92	18554.6
636.114	18487.01
636.308	18169.58
636.501	18323.18
636.695	18216.68
636.889	18120.43
637.083	17907.44
637.276	17991.41
637.47	17794.8
637.664	17825.52
637.857	17544.95
638.051	17512.18
638.244	17321.72
638.438	17071.87
638.632	17221.37
638.825	17168.12
639.019	16942.85
639.212	16973.56
639.406	16940.8
639.599	16545.54
639.793	16723.71
639.986	16525.06
640.18	16375.56
640.373	16549.64
640.567	16197.38
640.76	16181
640.954	16113.42
641.147	15968.01
641.34	16043.79
641.534	16029.45
641.727	15769.36
641.92	15746.83
642.114	15763.22
642.307	15640.34
642.5	15535.89
642.694	15392.53
642.887	15273.75
643.08	15470.36
643.273	15273.75
643.467	14978.84
643.66	14786.33
643.853	14886.68
644.046	14507.81
644.239	14538.53
644.432	14749.47
644.626	14409.51
644.819	14370.6
645.012	14524.19
645.205	14354.21
645.398	14468.9
645.591	14139.18
645.784	14130.98
645.977	13936.43
646.17	13788.97
646.363	13772.59
646.556	13532.98
646.749	13743.92
646.942	13760.3
647.135	13637.42
647.328	13262.65
647.521	13410.1
647.714	13195.06
647.907	13268.79
648.099	13172.53
648.292	13176.63
648.485	12973.88
648.678	12875.58
648.871	12973.88
649.064	12539.71
649.256	12795.71
649.449	12523.33
649.642	12965.69
649.835	12394.31
650.027	12357.44
650.22	12447.55
650.413	12273.48
650.605	12341.06
650.798	12173.13
650.991	11982.67
651.183	12212.04
651.376	12029.77
651.568	12078.92
651.761	11870.03
651.954	11671.37
652.146	11722.57
652.339	11751.24
652.531	11654.99
652.724	11335.51
652.916	11413.33
653.109	11517.78
653.301	11542.35
653.494	11519.82
653.686	11108.18
653.879	11444.05
654.071	11204.44
654.263	11108.18
654.456	11202.39
654.648	11102.04
654.84	10950.49
655.033	10870.62
655.225	10897.24
655.417	10712.92
655.61	10811.23
655.802	10809.18
655.994	10565.47
656.186	10426.21
656.379	10424.16
656.571	10532.7
656.763	10516.32
656.955	10264.42
657.148	10325.86
657.34	10305.38
657.532	10129.25
657.724	10094.44
657.916	10121.06
658.108	9951.08
658.3	9824.11
658.492	9879.4
658.684	9721.71
658.876	9809.77
659.068	9834.35
659.26	9617.26
659.452	9586.54
659.644	9770.86
659.836	9453.42
660.028	9432.94
660.22	9389.94
660.412	9471.86
660.604	9265.01
660.796	9320.31
660.988	9213.81
661.18	9119.6
661.372	9060.21
661.563	9176.95
661.755	8836.99
661.947	9033.59
662.139	8884.09
662.331	8857.46
662.522	8648.57
662.714	8871.8
662.906	8763.26
663.097	8691.58
663.289	8818.55
663.481	8583.04
663.673	8451.97
663.864	8451.97
664.056	8320.9
664.247	8296.32
664.439	8232.83
664.631	8408.96
664.822	8243.07
665.014	8263.55
665.205	8351.62
665.397	8214.4
665.588	7948.17
665.78	8187.78
665.971	8009.61
666.163	7985.03
666.354	8157.06
666.546	7851.91
666.737	7688.07
666.929	7653.26
667.12	7829.38
667.311	7679.88
667.503	7882.63
667.694	7835.53
667.885	7604.11
668.077	7780.23
668.268	7583.63
668.459	7528.33
668.651	7434.13
668.842	7577.48
669.033	7350.16
669.224	7350.16
669.416	7456.65
669.607	7456.65
669.798	7358.35
669.989	7329.68
670.18	7260.05
670.371	7208.85
670.563	7280.53
670.754	7128.98
670.945	7004.05
671.136	6938.52
671.327	7016.34
671.518	6891.41
671.709	7059.35
671.9	6803.35
672.091	6854.55
672.282	6930.33
672.473	6807.45
672.664	6885.27
672.855	6641.56
673.046	6784.92
673.237	6836.12
673.428	6758.3
673.619	6684.57
673.809	6719.39
674	6539.16
674.191	6606.75
674.382	6539.16
674.573	6502.3
674.764	6571.93
674.954	6666.14
675.145	6526.88
675.336	6424.48
675.527	6616.99
675.717	6367.13
675.908	6287.26
676.099	6545.31
676.289	6457.25
676.48	6360.99
676.671	6340.51
676.861	6348.7
677.052	6111.14
677.243	6244.26
677.433	6365.09
677.624	6238.11
677.814	6152.1
678.005	6250.4
678.195	6182.82
678.386	6182.82
678.576	6016.93
678.767	6133.67
678.957	6129.57
679.148	6037.41
679.338	6150.05
679.529	5986.21
679.719	5978.02
679.909	6217.63
680.1	6092.71
680.29	6035.36
680.481	6092.71
680.671	5980.07
680.861	5914.53
681.052	5912.49
681.242	5879.72
681.432	6074.28
681.622	5922.73
681.813	5824.42
682.003	5889.96
682.193	5865.38
682.383	5949.35
682.573	5758.89
682.764	5814.18
682.954	5824.42
683.144	5799.85
683.334	5736.36
683.524	5838.76
683.714	5855.14
683.904	5668.78
684.094	5740.46
684.284	5531.56
684.474	5662.63
684.664	5719.98
684.854	5593
685.044	5636.01
685.234	5621.67
685.424	5586.86
685.614	5695.4
685.804	5457.84
685.994	5529.52
686.184	5685.16
686.374	5550
686.564	5607.34
686.753	5519.28
686.943	5347.25
687.133	5492.65
687.323	5543.85
687.513	5492.65
687.702	5447.6
687.892	5179.31
688.082	5306.29
688.272	5468.08
688.461	5388.21
688.651	5218.22
688.841	5267.38
689.03	5273.52
689.22	5343.15
689.41	5128.11
689.599	5207.98
689.789	5093.3
689.979	5138.35
690.168	5134.26
690.358	4984.76
690.547	5044.15
690.737	4970.42
690.926	5201.84
691.116	4870.07
691.305	5064.63
691.495	4929.46
691.684	4806.58
691.874	4757.43
692.063	4890.55
692.252	4839.35
692.442	4853.69
692.631	4921.27
692.82	4802.49
693.01	4786.1
693.199	4749.24
693.388	4655.03
693.578	4638.65
693.767	4777.91
693.956	4777.91
694.146	4640.7
694.335	4714.42
694.524	4851.64
694.713	4646.84
694.902	4673.46
695.092	4505.53
695.281	4652.98
695.47	4585.4
695.659	4532.15
695.848	4620.22
696.037	4446.14
696.226	4663.22
696.415	4503.48
696.604	4464.57
696.793	4497.34
696.982	4450.24
697.171	4569.02
697.36	4528.06
697.549	4450.24
697.738	4349.89
697.927	4396.99
698.116	4478.91
698.305	4358.08
698.494	4347.84
698.683	4380.61
698.872	4288.45
699.061	4286.4
699.25	4310.97
699.438	4343.74
699.627	4163.52
699.816	4143.04
700.005	4300.73
700.193	4145.09
700.382	4200.38
700.571	4194.24
700.76	4100.03
700.948	4257.73
701.137	4153.28
701.326	4089.79
701.514	3993.54
701.703	4122.56
701.892	4069.31
702.08	4175.81
702.269	4138.94
702.457	3979.2
702.646	4038.59
702.834	3915.72
703.023	4046.79
703.212	3966.92
703.4	4054.98
703.589	3897.28
703.777	3895.24
703.965	3899.33
704.154	3882.95
704.342	3815.37
704.531	3891.14
704.719	3639.24
704.907	3866.56
705.096	3712.97
705.284	3850.18
705.472	3749.83
705.661	3864.52
705.849	3827.65
706.037	3798.98
706.226	3770.31
706.414	3774.41
706.602	3743.69
706.79	3772.36
706.979	3766.21
707.167	3577.8
707.355	3684.3
707.543	3766.21
707.731	3655.62
707.919	3809.22
708.107	3545.03
708.296	3577.8
708.484	3565.51
708.672	3553.23
708.86	3512.27
709.048	3581.9
709.236	3432.4
709.424	3583.95
709.612	3608.52
709.8	3569.61
709.988	3401.68
710.176	3518.41
710.364	3489.74
710.551	3411.92
710.739	3487.69
710.927	3362.76
711.115	3430.35
711.303	3356.62
711.491	3356.62
711.679	3354.57
711.866	3434.44
712.054	3219.41
712.242	3395.53
712.43	3459.02
712.617	3284.94
712.805	3225.55
712.993	3315.66
713.181	3153.87
713.368	3215.31
713.556	3348.43
713.744	3061.71
713.931	3264.46
714.119	3256.27
714.306	3260.37
714.494	3229.65
714.682	3250.13
714.869	3176.4
715.057	3141.58
715.244	3102.67
715.432	3311.57
715.619	3110.86
715.807	3127.25
715.994	3114.96
716.182	3051.47
716.369	3176.4
716.556	3045.33
716.744	3166.16
716.931	3299.28
717.119	3155.92
717.306	3012.56
717.493	2981.84
717.681	2947.03
717.868	3162.06
718.055	2893.78
718.242	3041.23
718.43	3006.42
718.617	2942.93
718.804	2889.68
718.991	2965.46
719.179	2875.35
719.366	2936.79
719.553	2881.49
719.74	2922.45
719.927	2891.73
720.114	2840.53
720.301	2901.97
720.488	2901.97
720.676	2818
720.863	2826.2
721.05	2936.79
721.237	2867.16
721.424	2795.48
721.611	2744.28
721.798	2750.42
721.985	2801.62
722.172	2693.08
722.358	2697.17
722.545	2701.27
722.732	2652.12
722.919	2834.39
723.106	2807.77
723.293	2709.46
723.48	2750.42
723.667	2662.36
723.853	2688.98
724.04	2742.23
724.227	2682.84
724.414	2695.13
724.6	2703.32
724.787	2736.09
724.974	2676.7
725.161	2611.16
725.347	2660.31
725.534	2557.91
725.72	2594.78
725.907	2596.82
726.094	2752.47
726.28	2566.1
726.467	2551.77
726.653	2602.97
726.84	2557.91
727.027	2684.89
727.213	2422.75
727.4	2537.43
727.586	2457.56
727.773	2445.27
727.959	2414.56
728.145	2586.58
728.332	2527.19
728.518	2449.37
728.705	2387.93
728.891	2291.68
729.077	2340.83
729.264	2529.24
729.45	2441.18
729.636	2375.64
729.823	2414.56
730.009	2334.68
730.195	2480.09
730.382	2484.19
730.568	2328.54
730.754	2424.8
730.94	2381.79
731.126	2316.25
731.313	2385.88
731.499	2359.26
731.685	2258.91
731.871	2275.29
732.057	2406.36
732.243	2267.1
732.429	2410.46
732.615	2406.36
732.801	2349.02
732.987	2334.68
733.173	2332.64
733.359	2252.77
733.545	2176.99
733.731	2289.63
733.917	2193.37
734.103	2213.85
734.289	2258.91
734.475	2248.67
734.661	2273.25
734.847	2193.37
735.033	2154.46
735.219	2220
735.404	2168.8
735.59	2230.24
735.776	2121.7
735.962	2213.85
736.148	2103.26
736.333	2189.28
736.519	2193.37
736.705	2103.26
736.89	2121.7
737.076	2111.46
737.262	2107.36
737.447	2045.92
737.633	2181.09
737.819	2111.46
738.004	2154.46
738.19	2121.7
738.375	2013.15
738.561	2129.89
738.747	2019.3
738.932	2023.39
739.118	2021.35
739.303	2060.26
739.489	1988.58
739.674	2002.91
739.859	2021.35
740.045	2017.25
740.23	2021.35
740.416	1886.18
740.601	2013.15
740.786	1992.67
740.972	2037.73
741.157	1910.75
741.342	1898.47
741.528	1875.94
741.713	1834.98
741.898	1951.71
742.084	1877.99
742.269	1992.67
742.454	1923.04
742.639	1939.43
742.824	1834.98
743.01	1861.6
743.195	1918.95
743.38	1849.32
743.565	1816.55
743.75	1886.18
743.935	1820.64
744.12	1828.84
744.305	1714.15
744.49	1824.74
744.675	1763.3
744.86	1826.79
745.045	1710.05
745.23	1763.3
745.415	1685.48
745.6	1677.29
745.785	1677.29
745.97	1820.64
746.155	1841.12
746.34	1632.23
746.525	1722.34
746.71	1693.67
746.895	1685.48
747.079	1542.12
747.264	1646.57
747.449	1587.18
747.634	1583.08
747.819	1601.51
748.003	1697.77
748.188	1675.24
748.373	1533.93
748.557	1628.14
748.742	1548.26
748.927	1599.46
749.111	1542.12
749.296	1472.49
749.481	1589.22
749.665	1540.07
749.85	1611.75
750.034	1529.83
750.219	1538.02
750.404	1505.26
750.588	1572.84
750.773	1460.2
750.957	1378.28
751.141	1468.39
751.326	1505.26
751.51	1400.81
751.695	1472.49
751.879	1361.9
752.064	1476.59
752.248	1419.24
752.432	1533.93
752.617	1372.14
752.801	1423.34
752.985	1366
753.17	1327.08
753.354	1366
753.538	1304.56
753.722	1286.12
753.907	1181.68
754.091	1259.5
754.275	1286.12
754.459	1220.59
754.643	1216.49
754.828	1343.47
755.012	1251.31
755.196	1292.27
755.38	1251.31
755.564	1296.36
755.748	1226.73
755.932	1251.31
756.116	1196.01
756.3	1196.01
756.484	1112.05
756.668	1171.44
756.852	1079.28
757.036	1103.86
757.22	956.4
757.404	1120.24
757.588	1013.74
757.772	1130.48
757.956	1091.57
758.14	1124.33
758.323	1056.75
758.507	1175.53
758.691	1110
758.875	1048.56
759.059	1103.86
759.242	1005.55
759.426	1062.9
759.61	1021.94
759.794	899.06
759.977	1019.89
760.161	1105.9
760.345	1056.75
760.528	970.74
760.712	1028.08
760.895	942.07
761.079	1026.03
761.263	993.26
761.446	952.31
761.63	972.79
761.813	1058.8
761.997	903.15
762.18	956.4
762.364	1021.94
762.547	950.26
762.731	937.97
762.914	980.98
763.098	1001.46
763.281	919.54
763.464	886.77
763.648	907.25
763.831	909.3
764.015	974.83
764.198	915.44
764.381	833.52
764.564	948.21
764.748	960.5
764.931	901.11
765.114	907.25
765.297	864.24
765.481	956.4
765.664	907.25
765.847	854
766.03	833.52
766.213	876.53
766.397	919.54
766.58	899.06
766.763	841.72
766.946	811
767.129	909.3
767.312	886.77
767.495	931.83
767.678	823.28
767.861	833.52
768.044	804.85
768.227	825.33
768.41	874.48
768.593	745.46
768.776	792.56
768.959	731.12
769.142	882.67
769.324	862.19
769.507	757.75
769.69	767.99
769.873	800.76
770.056	849.91
770.239	833.52
770.421	878.58
770.604	796.66
770.787	845.81
770.97	792.56
771.152	798.71
771.335	749.56
771.518	712.69
771.7	800.76
771.883	835.57
772.066	727.03
772.248	759.8
772.431	722.93
772.613	706.55
772.796	761.84
772.978	700.41
773.161	696.31
773.343	784.37
773.526	645.11
773.708	718.84
773.891	686.07
774.073	686.07
774.256	710.65
774.438	825.33
774.621	706.55
774.803	718.84
774.985	722.93
775.168	706.55
775.35	681.97
775.532	710.65
775.715	641.01
775.897	653.3
776.079	643.06
776.261	612.34
776.444	727.03
776.626	608.25
776.808	587.77
776.99	624.63
777.173	608.25
777.355	630.77
777.537	638.97
777.719	647.16
777.901	645.11
778.083	571.38
778.265	571.38
778.447	653.3
778.629	587.77
778.811	522.23
778.993	598.01
779.175	636.92
779.357	577.53
779.539	585.72
779.721	538.62
779.903	583.67
780.085	548.86
780.267	604.15
780.449	530.42
780.631	595.96
780.812	581.62
780.994	534.52
781.176	534.52
781.358	538.62
781.54	491.51
781.721	434.17
781.903	522.23
782.085	442.36
782.267	571.38
782.448	456.7
782.63	493.56
782.812	534.52
782.993	489.46
783.175	514.04
783.357	514.04
783.538	477.18
783.72	542.71
783.901	501.75
784.083	491.51
784.264	475.13
784.446	448.51
784.627	464.89
784.809	466.94
784.99	374.78
785.172	401.4
785.353	434.17
785.535	460.79
785.716	415.74
785.897	382.97
786.079	475.13
786.26	409.59
786.441	505.85
786.623	432.12
786.804	366.59
786.985	413.69
787.167	485.37
787.348	354.3
787.529	432.12
787.71	487.42
787.891	411.64
788.073	407.55
788.254	309.24
788.435	376.83
788.616	473.08
788.797	344.06
788.978	303.1
789.159	317.44
789.34	409.59
789.522	333.82
789.703	423.93
789.884	360.44
790.065	399.35
790.246	378.87
790.427	319.48
790.607	491.51
790.788	413.69
790.969	378.87
791.15	360.44
791.331	360.44
791.512	374.78
791.693	346.11
791.874	309.24
792.054	327.67
792.235	321.53
792.416	382.97
792.597	319.48
792.778	366.59
792.958	358.39
793.139	397.31
793.32	262.14
793.5	260.09
793.681	399.35
793.862	313.34
794.042	333.82
794.223	270.33
794.404	245.76
794.584	215.04
794.765	276.48
794.945	284.67
795.126	376.83
795.306	292.86
795.487	264.19
795.667	284.67
795.848	227.32
796.028	262.14
796.209	237.56
796.389	260.09
796.57	241.66
796.75	251.9
796.93	221.18
797.111	212.99
797.291	286.72
797.471	266.24
797.652	264.19
797.832	206.84
798.012	229.37
798.192	178.17
798.373	194.56
798.553	251.9
798.733	272.38
798.913	182.27
799.093	225.28
799.274	165.89
799.454	217.08
799.634	268.28
799.814	276.48
799.994	229.37
800.174	245.76
800.354	237.56
800.534	202.75
800.714	194.56
800.894	178.17
801.074	215.04
801.254	235.52
801.434	307.2
801.614	292.86
801.794	219.13
801.974	833.52
802.154	153.6
802.334	305.15
802.514	198.65
802.693	190.46
802.873	190.46
803.053	202.75
803.233	335.87
803.413	190.46
803.592	210.94
803.772	198.65
803.952	227.32
804.131	131.07
804.311	194.56
804.491	153.6
804.67	124.93
804.85	157.69
805.03	235.52
805.209	284.67
805.389	206.84
805.568	210.94
805.748	198.65
805.928	219.13
806.107	178.17
806.287	260.09
806.466	270.33
806.646	188.41
806.825	180.22
807.004	251.9
807.184	194.56
807.363	247.8
807.543	178.17
807.722	139.26
807.901	262.14
808.081	196.61
808.26	96.25
808.439	178.17
808.619	153.6
808.798	167.93
808.977	182.27
809.156	235.52
809.336	131.07
809.515	163.84
809.694	153.6
809.873	159.74
810.052	215.04
810.231	260.09
810.411	149.5
810.59	198.65
810.769	122.88
810.948	126.97
811.127	63.49
811.306	139.26
811.485	153.6
811.664	194.56
811.843	172.03
812.022	210.94
812.201	161.79
812.38	81.92
812.559	69.63
812.737	194.56
812.916	153.6
813.095	63.49
813.274	172.03
813.453	120.83
813.632	190.46
813.811	129.02
813.989	131.07
814.168	198.65
814.347	153.6
814.526	184.32
814.704	104.45
814.883	155.65
815.062	32.77
815.24	237.56
815.419	71.68
815.598	169.98
815.776	63.49
815.955	102.4
816.133	98.3
816.312	96.25
816.49	106.49
816.669	75.77
816.847	161.79
817.026	96.25
817.204	106.49
817.383	155.65
817.561	153.6
817.74	178.17
817.918	153.6
818.097	122.88
818.275	75.77
818.453	186.37
818.632	122.88
818.81	34.82
818.988	178.17
819.167	153.6
819.345	55.3
819.523	34.82
819.701	169.98
819.879	122.88
820.058	241.66
820.236	186.37
820.414	108.54
820.592	114.69
820.77	36.86
820.948	102.4
821.127	69.63
821.305	133.12
821.483	79.87
821.661	137.21
821.839	202.75
822.017	71.68
822.195	131.07
822.373	147.45
822.551	137.21
822.729	124.93
822.907	110.59
823.085	161.79
823.262	124.93
823.44	47.1
823.618	131.07
823.796	124.93
823.974	71.68
824.152	51.2
824.329	129.02
824.507	108.54
824.685	182.27
824.863	67.58
825.04	65.54
825.218	129.02
825.396	120.83
825.574	96.25
825.751	100.35
825.929	55.3
826.107	47.1
826.284	36.86
826.462	190.46
826.639	161.79
826.817	36.86
826.994	90.11
827.172	141.31
827.349	153.6
827.527	55.3
827.704	88.06
827.882	71.68
828.059	106.49
828.237	73.73
828.414	106.49
828.591	55.3
828.769	108.54
828.946	28.67
829.124	145.41
829.301	137.21
829.478	22.53
829.655	14.34
829.833	129.02
830.01	-8.19
830.187	145.41
830.364	-6.14
830.542	88.06
830.719	157.69
830.896	83.97
831.073	67.58
831.25	106.49
831.427	83.97
831.604	86.01
831.782	55.3
831.959	139.26
832.136	65.54
832.313	120.83
832.49	49.15
832.667	155.65
832.844	24.58
833.021	79.87
833.198	75.77
833.374	96.25
833.551	69.63
833.728	47.1
833.905	114.69
834.082	63.49
834.259	104.45
834.436	73.73
834.612	-40.96
834.789	57.34
834.966	81.92
835.143	73.73
835.319	12.29
835.496	-8.19
835.673	75.77
835.85	88.06
836.026	51.2
836.203	157.69
836.38	120.83
836.556	98.3
836.733	8.19
836.909	112.64
837.086	20.48
837.262	-18.43
837.439	57.34
837.616	90.11
837.792	59.39
837.968	75.77
838.145	-18.43
838.321	110.59
838.498	36.86
838.674	34.82
838.851	88.06
839.027	47.1
839.203	102.4
839.38	14.34
839.556	63.49
839.732	47.1
839.909	47.1
840.085	55.3
840.261	98.3
840.437	32.77
840.614	106.49
840.79	90.11
840.966	18.43
841.142	57.34
841.318	14.34
841.494	133.12
841.671	71.68
841.847	65.54
842.023	47.1
842.199	139.26
842.375	96.25
842.551	14.34
842.727	-47.1
842.903	122.88
843.079	18.43
843.255	112.64
843.431	38.91
843.607	38.91
843.783	-24.58
843.959	122.88
844.134	-45.06
844.31	43.01
844.486	-6.14
844.662	43.01
844.838	73.73
845.013	100.35
845.189	79.87
845.365	118.78
845.541	79.87
845.716	40.96
845.892	51.2
846.068	22.53
846.244	81.92
846.419	26.62
846.595	14.34
846.77	26.62
846.946	20.48
847.122	51.2
847.297	55.3
847.473	120.83
847.648	10.24
847.824	63.49
847.999	-2.05
848.175	0
848.35	-43.01
848.526	124.93
848.701	88.06
848.876	81.92
849.052	196.61
849.227	73.73
849.403	104.45
849.578	71.68
849.753	30.72
849.929	22.53
850.104	30.72
850.279	-10.24
850.454	120.83
850.63	83.97
850.805	88.06
850.98	55.3
851.155	-8.19
851.33	-24.58
851.505	26.62
851.681	155.65
851.856	38.91
852.031	79.87
852.206	108.54
852.381	8.19
852.556	63.49
852.731	24.58
852.906	47.1
853.081	51.2
853.256	49.15
853.431	16.38
853.606	18.43
853.781	-53.25
853.956	-2.05
854.131	67.58
854.305	-22.53
854.48	96.25
854.655	88.06
854.83	81.92
855.005	-2.05
855.18	-18.43
855.354	-14.34
855.529	94.21
855.704	14.34
855.879	59.39
856.053	-18.43
856.228	16.38
856.403	20.48
856.577	96.25
856.752	47.1
856.926	38.91
857.101	34.82
857.276	24.58
857.45	32.77
857.625	69.63
857.799	55.3
857.974	24.58
858.148	16.38
858.323	36.86
858.497	36.86
858.672	65.54
858.846	-45.06
859.02	2.05
859.195	30.72
859.369	24.58
859.543	73.73
859.718	81.92
859.892	-92.16
860.066	38.91
860.241	0
860.415	6.14
860.589	2.05
860.763	63.49
860.938	6.14
861.112	-24.58
861.286	51.2
861.46	28.67
861.634	18.43
861.808	47.1
861.982	-6.14
862.157	34.82
862.331	0
862.505	-8.19
862.679	-47.1
862.853	51.2
863.027	-4.1
863.201	59.39
863.375	-14.34
863.549	26.62
863.722	63.49
863.896	55.3
864.07	-6.14
864.244	40.96
864.418	-22.53
864.592	30.72
864.766	0
864.939	53.25
865.113	14.34
865.287	90.11
865.461	-32.77
865.634	71.68
865.808	-34.82
865.982	71.68
866.156	-43.01
866.329	28.67
866.503	38.91
866.676	51.2
866.85	57.34
867.024	-51.2
867.197	55.3
867.371	40.96
867.544	-6.14
867.718	-32.77
867.891	88.06
868.065	-4.1
868.238	22.53
868.412	81.92
868.585	73.73
868.759	18.43
868.932	-10.24
869.105	14.34
869.279	63.49
869.452	-18.43
869.625	-6.14
869.799	20.48
869.972	14.34
870.145	20.48
870.319	57.34
870.492	36.86
870.665	-30.72
870.838	6.14
871.011	-20.48
871.185	-36.86
871.358	104.45
871.531	18.43
871.704	49.15
871.877	71.68
872.05	-63.49
872.223	-47.1
872.396	10.24
872.569	88.06
872.742	-18.43
872.915	-8.19
873.088	43.01
873.261	100.35
873.434	34.82
873.607	-28.67
873.78	-51.2
873.953	22.53
874.126	10.24
874.299	24.58
874.471	-22.53
874.644	114.69
874.817	6.14
874.99	65.54
875.163	-16.38
875.335	57.34
875.508	63.49
875.681	-26.62
875.853	-57.34
876.026	-47.1
876.199	-20.48
876.371	0
876.544	-18.43
876.717	67.58
876.889	-6.14
877.062	90.11
877.234	-34.82
877.407	67.58
877.579	10.24
877.752	10.24
877.924	-16.38
878.097	32.77
878.269	-40.96
878.442	104.45
878.614	0
878.786	-30.72
878.959	73.73
879.131	38.91
879.303	-6.14
879.476	16.38
879.648	43.01
879.82	47.1
879.993	-24.58
880.165	43.01
880.337	-26.62
880.509	-24.58
880.681	-4.1
880.854	-81.92
881.026	22.53
881.198	57.34
881.37	-18.43
881.542	38.91
881.714	73.73
881.886	-8.19
882.058	2.05
882.23	-63.49
882.402	-67.58
882.574	104.45
882.746	49.15
882.918	75.77
883.09	71.68
883.262	71.68
883.434	63.49
883.606	-16.38
883.778	0
883.95	67.58
884.122	10.24
884.293	112.64
884.465	-10.24
884.637	55.3
884.809	0
884.98	-2.05
885.152	22.53
885.324	88.06
885.496	6.14
885.667	49.15
885.839	-59.39
886.011	104.45
886.182	0
886.354	43.01
886.525	26.62
886.697	79.87
886.869	30.72
887.04	67.58
887.212	86.01
887.383	30.72
887.555	88.06
887.726	-16.38
887.897	-24.58
888.069	-4.1
888.24	65.54
888.412	-8.19
888.583	6.14
888.754	-67.58
888.926	-26.62
889.097	26.62
889.268	-34.82
889.44	16.38
889.611	-10.24
889.782	-18.43
889.953	-67.58
890.125	47.1
890.296	-55.3
890.467	-90.11
890.638	-12.29
890.809	47.1
890.98	-40.96
891.151	34.82
891.323	79.87
891.494	10.24
891.665	0
891.836	30.72
892.007	-22.53
892.178	30.72
892.349	-53.25
892.52	-16.38
892.691	38.91
892.862	8.19
893.032	-57.34
893.203	10.24
893.374	2.05
893.545	-8.19
893.716	-14.34
893.887	43.01
894.057	6.14
894.228	-2.05
894.399	6.14
894.57	92.16
894.74	-47.1
894.911	2.05
895.082	-75.77
895.253	22.53
895.423	-40.96
895.594	118.78
895.764	59.39
895.935	-51.2
896.106	-6.14
896.276	8.19
896.447	-57.34
896.617	-32.77
896.788	14.34
896.958	-83.97
897.129	57.34
897.299	2.05
897.47	47.1
897.64	14.34
897.81	51.2
897.981	18.43
898.151	-51.2
898.322	55.3
898.492	6.14
898.662	-28.67
898.832	-2.05
899.003	-67.58
899.173	2.05
899.343	-2.05
899.513	-47.1
