Data from USB4F104151__140__14-31-49-276.txt Node

Date: Thu Mar 13 14:31:49 EDT 2025
User: louis
Spectrometer: USB4F10415
Trigger mode: 4
Integration Time (sec): 2.500000E-2
Scans to average: 1
Electric dark correction enabled: true
Nonlinearity correction enabled: false
Boxcar width: 0
XAxis mode: Wavelengths
Number of Pixels in Spectrum: 3648
>>>>>Begin Spectral Data<<<<<
178.204	-56.32
178.424	-56.32
178.644	-56.32
178.864	-144.38
179.084	-142.33
179.304	-56.32
179.524	-35.84
179.744	-66.56
179.964	95.23
180.184	-25.6
180.404	72.7
180.624	-66.56
180.844	17.41
181.064	31.74
181.283	56.32
181.503	-56.32
181.723	33.79
181.943	-19.46
182.163	78.85
182.383	-27.65
182.602	87.04
182.822	74.75
183.042	99.33
183.262	21.5
183.482	84.99
183.701	-7.17
183.921	44.03
184.141	25.6
184.361	105.47
184.58	9.22
184.8	39.94
185.02	29.7
185.239	48.13
185.459	50.18
185.679	27.65
185.898	37.89
186.118	74.75
186.338	78.85
186.557	-44.03
186.777	35.84
186.997	29.7
187.216	25.6
187.436	87.04
187.655	-7.17
187.875	103.42
188.095	-3.07
188.314	46.08
188.534	128
188.753	-19.46
188.973	60.42
189.192	54.27
189.412	103.42
189.631	46.08
189.851	-3.07
190.07	64.51
190.29	-17.41
190.509	23.55
190.729	41.98
190.948	78.85
191.168	209.92
191.387	78.85
191.607	5.12
191.826	23.55
192.045	25.6
192.265	37.89
192.484	5.12
192.704	46.08
192.923	-17.41
193.142	115.71
193.362	50.18
193.581	78.85
193.8	70.65
194.02	9.22
194.239	52.22
194.458	78.85
194.678	1.02
194.897	48.13
195.116	72.7
195.335	25.6
195.555	-52.22
195.774	70.65
195.993	-27.65
196.212	25.6
196.432	-25.6
196.651	44.03
196.87	62.46
197.089	78.85
197.308	44.03
197.528	13.31
197.747	1.02
197.966	-27.65
198.185	103.42
198.404	-11.26
198.623	48.13
198.842	-3.07
199.062	117.76
199.281	58.37
199.5	62.46
199.719	121.85
199.938	11.26
200.157	39.94
200.376	87.04
200.595	62.46
200.814	13.31
201.033	15.36
201.252	78.85
201.471	54.27
201.69	33.79
201.909	5.12
202.128	62.46
202.347	87.04
202.566	74.75
202.785	54.27
203.004	-23.55
203.223	138.24
203.442	21.5
203.661	-3.07
203.879	25.6
204.098	64.51
204.317	58.37
204.536	37.89
204.755	-27.65
204.974	72.7
205.193	17.41
205.411	89.09
205.63	62.46
205.849	23.55
206.068	89.09
206.287	-1.02
206.505	107.52
206.724	54.27
206.943	13.31
207.162	13.31
207.381	91.13
207.599	50.18
207.818	-3.07
208.037	111.61
208.255	5.12
208.474	33.79
208.693	99.33
208.911	-7.17
209.13	70.65
209.349	89.09
209.567	78.85
209.786	39.94
210.005	5.12
210.223	62.46
210.442	27.65
210.661	54.27
210.879	35.84
211.098	19.46
211.316	74.75
211.535	115.71
211.753	50.18
211.972	52.22
212.191	62.46
212.409	80.89
212.628	64.51
212.846	64.51
213.065	58.37
213.283	93.18
213.502	41.98
213.72	82.94
213.938	95.23
214.157	80.89
214.375	70.65
214.594	46.08
214.812	82.94
215.031	25.6
215.249	41.98
215.467	70.65
215.686	46.08
215.904	41.98
216.122	119.81
216.341	29.7
216.559	62.46
216.778	23.55
216.996	99.33
217.214	68.61
217.432	54.27
217.651	5.12
217.869	-9.22
218.087	23.55
218.306	-35.84
218.524	-17.41
218.742	15.36
218.96	80.89
219.179	31.74
219.397	31.74
219.615	125.95
219.833	62.46
220.051	56.32
220.27	7.17
220.488	56.32
220.706	1.02
220.924	95.23
221.142	95.23
221.36	-13.31
221.578	68.61
221.796	39.94
222.015	50.18
222.233	56.32
222.451	89.09
222.669	-7.17
222.887	99.33
223.105	-29.7
223.323	-11.26
223.541	41.98
223.759	119.81
223.977	37.89
224.195	82.94
224.413	56.32
224.631	154.62
224.849	62.46
225.067	99.33
225.285	56.32
225.503	13.31
225.721	-72.7
225.939	148.48
226.157	95.23
226.375	111.61
226.592	21.5
226.81	23.55
227.028	78.85
227.246	113.66
227.464	78.85
227.682	48.13
227.9	56.32
228.117	80.89
228.335	52.22
228.553	-7.17
228.771	64.51
228.989	103.42
229.206	70.65
229.424	5.12
229.642	1.02
229.86	50.18
230.077	27.65
230.295	37.89
230.513	144.38
230.731	64.51
230.948	7.17
231.166	134.14
231.384	-19.46
231.601	-3.07
231.819	3.07
232.037	5.12
232.254	48.13
232.472	54.27
232.689	13.31
232.907	171.01
233.125	37.89
233.342	5.12
233.56	-41.98
233.777	9.22
233.995	89.09
234.213	68.61
234.43	48.13
234.648	128
234.865	-1.02
235.083	46.08
235.3	29.7
235.518	107.52
235.735	103.42
235.953	103.42
236.17	54.27
236.388	-3.07
236.605	9.22
236.822	95.23
237.04	89.09
237.257	37.89
237.475	-17.41
237.692	33.79
237.909	37.89
238.127	21.5
238.344	31.74
238.562	62.46
238.779	1.02
238.996	48.13
239.214	64.51
239.431	62.46
239.648	31.74
239.865	-19.46
240.083	39.94
240.3	39.94
240.517	-7.17
240.735	23.55
240.952	179.2
241.169	132.09
241.386	72.7
241.603	41.98
241.821	5.12
242.038	95.23
242.255	29.7
242.472	21.5
242.689	121.85
242.907	56.32
243.124	41.98
243.341	25.6
243.558	9.22
243.775	15.36
243.992	-5.12
244.209	37.89
244.426	111.61
244.643	25.6
244.86	-19.46
245.078	39.94
245.295	54.27
245.512	52.22
245.729	5.12
245.946	58.37
246.163	54.27
246.38	60.42
246.597	17.41
246.814	-39.94
247.031	62.46
247.248	-9.22
247.464	87.04
247.681	58.37
247.898	97.28
248.115	21.5
248.332	-25.6
248.549	74.75
248.766	46.08
248.983	111.61
249.2	44.03
249.417	87.04
249.633	-3.07
249.85	72.7
250.067	29.7
250.284	46.08
250.501	103.42
250.717	105.47
250.934	-23.55
251.151	54.27
251.368	31.74
251.585	37.89
251.801	37.89
252.018	70.65
252.235	80.89
252.451	50.18
252.668	39.94
252.885	21.5
253.102	70.65
253.318	111.61
253.535	-25.6
253.752	13.31
253.968	31.74
254.185	-25.6
254.401	17.41
254.618	-27.65
254.835	56.32
255.051	62.46
255.268	41.98
255.484	-7.17
255.701	31.74
255.917	5.12
256.134	-1.02
256.351	21.5
256.567	-89.09
256.784	58.37
257	-5.12
257.217	17.41
257.433	-41.98
257.65	103.42
257.866	54.27
258.082	-11.26
258.299	46.08
258.515	46.08
258.732	-5.12
258.948	46.08
259.165	48.13
259.381	-15.36
259.597	33.79
259.814	39.94
260.03	91.13
260.246	29.7
260.463	5.12
260.679	64.51
260.895	64.51
261.112	21.5
261.328	29.7
261.544	13.31
261.761	95.23
261.977	31.74
262.193	-21.5
262.409	-19.46
262.626	7.17
262.842	74.75
263.058	13.31
263.274	74.75
263.49	-5.12
263.707	72.7
263.923	-52.22
264.139	-66.56
264.355	103.42
264.571	99.33
264.787	115.71
265.004	70.65
265.22	99.33
265.436	35.84
265.652	-35.84
265.868	50.18
266.084	33.79
266.3	109.57
266.516	76.8
266.732	64.51
266.948	37.89
267.164	5.12
267.38	103.42
267.596	66.56
267.812	128
268.028	78.85
268.244	46.08
268.46	105.47
268.676	23.55
268.892	15.36
269.108	17.41
269.324	37.89
269.54	-19.46
269.756	29.7
269.972	46.08
270.188	76.8
270.403	1.02
270.619	54.27
270.835	29.7
271.051	115.71
271.267	3.07
271.483	56.32
271.698	72.7
271.914	111.61
272.13	39.94
272.346	1.02
272.562	91.13
272.777	54.27
272.993	87.04
273.209	19.46
273.425	1.02
273.64	37.89
273.856	80.89
274.072	56.32
274.287	-25.6
274.503	78.85
274.719	5.12
274.934	113.66
275.15	46.08
275.366	80.89
275.581	21.5
275.797	50.18
276.012	62.46
276.228	-1.02
276.444	54.27
276.659	185.34
276.875	7.17
277.09	29.7
277.306	-76.8
277.521	78.85
277.737	5.12
277.952	41.98
278.168	23.55
278.383	15.36
278.599	56.32
278.814	87.04
279.03	87.04
279.245	56.32
279.461	80.89
279.676	58.37
279.892	-25.6
280.107	-33.79
280.322	105.47
280.538	37.89
280.753	64.51
280.969	-33.79
281.184	5.12
281.399	82.94
281.615	48.13
281.83	54.27
282.045	-29.7
282.26	60.42
282.476	13.31
282.691	84.99
282.906	123.9
283.122	7.17
283.337	-11.26
283.552	62.46
283.767	27.65
283.983	128
284.198	50.18
284.413	78.85
284.628	-23.55
284.843	31.74
285.058	119.81
285.274	80.89
285.489	13.31
285.704	54.27
285.919	7.17
286.134	58.37
286.349	62.46
286.564	99.33
286.779	44.03
286.995	70.65
287.21	5.12
287.425	21.5
287.64	-27.65
287.855	74.75
288.07	37.89
288.285	78.85
288.5	107.52
288.715	15.36
288.93	54.27
289.145	33.79
289.36	82.94
289.575	58.37
289.79	37.89
290.004	46.08
290.219	37.89
290.434	13.31
290.649	41.98
290.864	-3.07
291.079	3.07
291.294	37.89
291.509	13.31
291.724	56.32
291.938	58.37
292.153	60.42
292.368	-60.42
292.583	111.61
292.798	78.85
293.012	187.39
293.227	70.65
293.442	80.89
293.657	-3.07
293.871	78.85
294.086	46.08
294.301	103.42
294.516	95.23
294.73	1.02
294.945	-11.26
295.16	46.08
295.374	76.8
295.589	70.65
295.804	29.7
296.018	66.56
296.233	152.57
296.447	39.94
296.662	-3.07
296.877	54.27
297.091	41.98
297.306	62.46
297.52	-1.02
297.735	70.65
297.949	-11.26
298.164	25.6
298.378	54.27
298.593	-39.94
298.807	-11.26
299.022	29.7
299.236	80.89
299.451	25.6
299.665	-17.41
299.88	99.33
300.094	82.94
300.309	37.89
300.523	70.65
300.737	70.65
300.952	156.67
301.166	21.5
301.381	-23.55
301.595	29.7
301.809	78.85
302.024	60.42
302.238	1.02
302.452	173.05
302.667	123.9
302.881	128
303.095	37.89
303.309	95.23
303.524	48.13
303.738	52.22
303.952	7.17
304.166	25.6
304.381	-31.74
304.595	48.13
304.809	46.08
305.023	95.23
305.237	33.79
305.452	48.13
305.666	68.61
305.88	123.9
306.094	152.57
306.308	50.18
306.522	87.04
306.736	74.75
306.95	89.09
307.164	39.94
307.379	-11.26
307.593	82.94
307.807	37.89
308.021	95.23
308.235	109.57
308.449	21.5
308.663	5.12
308.877	70.65
309.091	111.61
309.305	27.65
309.519	39.94
309.733	87.04
309.947	-9.22
310.161	89.09
310.374	93.18
310.588	64.51
310.802	46.08
311.016	-27.65
311.23	23.55
311.444	54.27
311.658	37.89
311.872	105.47
312.085	111.61
312.299	82.94
312.513	13.31
312.727	74.75
312.941	-3.07
313.154	58.37
313.368	82.94
313.582	5.12
313.796	107.52
314.009	103.42
314.223	-3.07
314.437	54.27
314.651	74.75
314.864	19.46
315.078	39.94
315.292	54.27
315.505	5.12
315.719	66.56
315.933	78.85
316.146	21.5
316.36	-13.31
316.573	87.04
316.787	17.41
317.001	5.12
317.214	31.74
317.428	46.08
317.641	-3.07
317.855	54.27
318.068	84.99
318.282	62.46
318.495	70.65
318.709	95.23
318.922	44.03
319.136	70.65
319.349	5.12
319.563	78.85
319.776	164.86
319.99	11.26
320.203	68.61
320.417	29.7
320.63	50.18
320.843	95.23
321.057	60.42
321.27	103.42
321.483	37.89
321.697	95.23
321.91	70.65
322.124	95.23
322.337	62.46
322.55	21.5
322.763	46.08
322.977	111.61
323.19	97.28
323.403	37.89
323.617	103.42
323.83	13.31
324.043	56.32
324.256	39.94
324.469	3.07
324.683	58.37
324.896	44.03
325.109	80.89
325.322	11.26
325.535	-11.26
325.748	78.85
325.962	87.04
326.175	70.65
326.388	5.12
326.601	37.89
326.814	78.85
327.027	109.57
327.24	78.85
327.453	-1.02
327.666	78.85
327.879	58.37
328.092	121.85
328.305	50.18
328.518	31.74
328.731	54.27
328.944	64.51
329.157	27.65
329.37	46.08
329.583	95.23
329.796	31.74
330.009	50.18
330.222	56.32
330.435	-19.46
330.648	87.04
330.861	66.56
331.073	87.04
331.286	54.27
331.499	99.33
331.712	-35.84
331.925	37.89
332.138	99.33
332.35	84.99
332.563	64.51
332.776	31.74
332.989	3.07
333.202	78.85
333.414	13.31
333.627	54.27
333.84	39.94
334.053	70.65
334.265	130.05
334.478	54.27
334.691	74.75
334.903	76.8
335.116	-3.07
335.329	78.85
335.541	17.41
335.754	140.29
335.966	21.5
336.179	-15.36
336.392	25.6
336.604	58.37
336.817	72.7
337.029	111.61
337.242	58.37
337.454	117.76
337.667	66.56
337.88	58.37
338.092	58.37
338.305	132.09
338.517	103.42
338.729	17.41
338.942	95.23
339.154	-11.26
339.367	9.22
339.579	13.31
339.792	25.6
340.004	-7.17
340.217	87.04
340.429	62.46
340.641	-39.94
340.854	17.41
341.066	37.89
341.278	17.41
341.491	74.75
341.703	48.13
341.915	37.89
342.128	97.28
342.34	68.61
342.552	68.61
342.764	68.61
342.977	44.03
343.189	35.84
343.401	58.37
343.613	-11.26
343.826	70.65
344.038	54.27
344.25	46.08
344.462	5.12
344.674	62.46
344.886	78.85
345.099	115.71
345.311	101.37
345.523	46.08
345.735	11.26
345.947	95.23
346.159	78.85
346.371	74.75
346.583	-5.12
346.795	70.65
347.007	97.28
347.219	80.89
347.431	31.74
347.643	95.23
347.855	17.41
348.067	134.14
348.279	-27.65
348.491	111.61
348.703	113.66
348.915	50.18
349.127	68.61
349.339	52.22
349.551	76.8
349.763	70.65
349.975	91.13
350.187	173.05
350.399	62.46
350.61	-3.07
350.822	29.7
351.034	29.7
351.246	99.33
351.458	128
351.669	46.08
351.881	128
352.093	70.65
352.305	107.52
352.517	39.94
352.728	76.8
352.94	87.04
353.152	130.05
353.363	76.8
353.575	29.7
353.787	95.23
353.999	74.75
354.21	50.18
354.422	-27.65
354.633	50.18
354.845	37.89
355.057	-1.02
355.268	72.7
355.48	95.23
355.692	-27.65
355.903	-19.46
356.115	60.42
356.326	39.94
356.538	64.51
356.749	97.28
356.961	89.09
357.172	66.56
357.384	78.85
357.595	136.19
357.807	78.85
358.018	-27.65
358.23	132.09
358.441	99.33
358.653	50.18
358.864	17.41
359.075	9.22
359.287	58.37
359.498	78.85
359.709	44.03
359.921	21.5
360.132	41.98
360.344	97.28
360.555	31.74
360.766	-19.46
360.977	78.85
361.189	91.13
361.4	7.17
361.611	72.7
361.823	113.66
362.034	33.79
362.245	-33.79
362.456	93.18
362.667	66.56
362.879	15.36
363.09	25.6
363.301	46.08
363.512	58.37
363.723	25.6
363.935	62.46
364.146	158.72
364.357	5.12
364.568	54.27
364.779	-7.17
364.99	62.46
365.201	44.03
365.412	33.79
365.623	74.75
365.834	123.9
366.045	5.12
366.256	23.55
366.467	50.18
366.678	37.89
366.889	25.6
367.1	21.5
367.311	78.85
367.522	62.46
367.733	80.89
367.944	44.03
368.155	41.98
368.366	95.23
368.577	46.08
368.788	113.66
368.999	21.5
369.209	21.5
369.42	103.42
369.631	117.76
369.842	21.5
370.053	132.09
370.264	105.47
370.474	119.81
370.685	54.27
370.896	-58.37
371.107	93.18
371.317	68.61
371.528	-29.7
371.739	111.61
371.95	89.09
372.16	78.85
372.371	-3.07
372.582	93.18
372.792	54.27
373.003	37.89
373.214	9.22
373.424	74.75
373.635	37.89
373.846	140.29
374.056	52.22
374.267	56.32
374.477	91.13
374.688	46.08
374.898	35.84
375.109	62.46
375.319	62.46
375.53	70.65
375.74	156.67
375.951	62.46
376.161	46.08
376.372	58.37
376.582	91.13
376.793	25.6
377.003	11.26
377.214	1.02
377.424	70.65
377.635	62.46
377.845	-7.17
378.055	89.09
378.266	19.46
378.476	39.94
378.686	41.98
378.897	23.55
379.107	7.17
379.317	113.66
379.528	17.41
379.738	119.81
379.948	87.04
380.158	82.94
380.369	46.08
380.579	136.19
380.789	37.89
380.999	95.23
381.21	103.42
381.42	87.04
381.63	46.08
381.84	64.51
382.05	84.99
382.261	48.13
382.471	-7.17
382.681	48.13
382.891	136.19
383.101	74.75
383.311	5.12
383.521	80.89
383.731	91.13
383.941	162.81
384.151	111.61
384.361	-17.41
384.571	89.09
384.781	50.18
384.991	130.05
385.201	119.81
385.411	103.42
385.621	101.37
385.831	46.08
386.041	80.89
386.251	41.98
386.461	160.77
386.671	58.37
386.881	140.29
387.091	87.04
387.301	111.61
387.511	91.13
387.72	87.04
387.93	117.76
388.14	17.41
388.35	74.75
388.56	195.58
388.769	95.23
388.979	70.65
389.189	31.74
389.399	64.51
389.609	48.13
389.818	138.24
390.028	121.85
390.238	97.28
390.447	64.51
390.657	74.75
390.867	64.51
391.076	33.79
391.286	68.61
391.496	29.7
391.705	62.46
391.915	89.09
392.125	68.61
392.334	9.22
392.544	109.57
392.753	93.18
392.963	54.27
393.172	44.03
393.382	89.09
393.591	87.04
393.801	13.31
394.01	95.23
394.22	64.51
394.429	48.13
394.639	144.38
394.848	99.33
395.058	56.32
395.267	62.46
395.477	66.56
395.686	119.81
395.895	148.48
396.105	191.49
396.314	119.81
396.524	84.99
396.733	123.9
396.942	140.29
397.152	91.13
397.361	80.89
397.57	152.57
397.78	80.89
397.989	175.1
398.198	152.57
398.407	66.56
398.617	119.81
398.826	113.66
399.035	103.42
399.244	164.86
399.453	56.32
399.663	70.65
399.872	121.85
400.081	95.23
400.29	189.44
400.499	132.09
400.708	134.14
400.917	152.57
401.127	152.57
401.336	211.96
401.545	107.52
401.754	209.92
401.963	130.05
402.172	177.15
402.381	130.05
402.59	78.85
402.799	185.34
403.008	128
403.217	179.2
403.426	205.82
403.635	111.61
403.844	160.77
404.053	119.81
404.262	193.53
404.471	222.2
404.68	171.01
404.888	144.38
405.097	168.96
405.306	195.58
405.515	152.57
405.724	199.68
405.933	263.16
406.142	271.36
406.35	187.39
406.559	189.44
406.768	214.01
406.977	295.93
407.185	218.11
407.394	277.5
407.603	152.57
407.812	287.74
408.02	291.84
408.229	244.73
408.438	234.49
408.646	201.72
408.855	271.36
409.064	269.31
409.272	316.41
409.481	295.93
409.69	316.41
409.898	277.5
410.107	332.79
410.315	386.04
410.524	375.8
410.733	375.8
410.941	381.95
411.15	402.43
411.358	422.91
411.567	504.82
411.775	437.24
411.984	496.63
412.192	564.22
412.401	480.25
412.609	547.83
412.818	599.03
413.026	592.89
413.234	648.18
413.443	662.52
413.651	629.75
413.86	609.27
414.068	680.95
414.276	756.72
414.485	654.33
414.693	781.3
414.901	869.36
415.11	771.06
415.318	760.82
415.526	922.61
415.734	938.99
415.943	963.57
416.151	979.95
416.359	971.76
416.567	1025.01
416.776	1176.56
416.984	1078.26
417.192	1102.83
417.4	1238
417.608	1106.93
417.817	1160.17
418.025	1238
418.233	1389.55
418.441	1301.48
418.649	1358.83
418.857	1594.34
419.065	1555.43
419.273	1496.04
419.481	1547.24
419.689	1670.12
419.897	1790.95
420.105	1692.65
420.313	1770.47
420.521	1840.1
420.729	1946.59
420.937	1952.74
421.145	1905.63
421.353	2005.99
421.561	2311.13
421.769	2274.27
421.977	2331.61
422.185	2315.23
422.393	2517.98
422.601	2733.01
422.809	2456.54
423.017	2554.84
423.224	2823.12
423.432	2835.41
423.64	2939.86
423.848	3218.38
424.056	3107.79
424.263	3257.29
424.471	3306.45
424.679	3169.23
424.887	3517.39
425.094	3496.91
425.302	3529.67
425.51	3713.99
425.718	3871.68
425.925	3978.18
426.133	4092.87
426.341	4297.66
426.548	4490.17
426.756	4479.93
426.964	4617.15
427.171	4721.59
427.379	5006.26
427.586	5084.08
427.794	5235.63
428.001	5342.13
428.209	5555.12
428.417	5612.46
428.624	5962.66
428.832	5952.42
429.039	5874.6
429.247	5940.13
429.454	6501.28
429.662	6957.97
429.869	6394.78
430.076	6962.07
430.284	6732.7
430.491	6878.1
430.699	7435.15
430.906	7324.56
431.114	7541.64
431.321	7902.09
431.528	8004.49
431.736	8319.87
431.943	8797.05
432.15	8287.11
432.358	8680.32
432.565	9114.48
432.772	9036.66
432.979	9556.85
433.187	9599.85
433.394	9712.49
433.601	10392.42
433.808	10296.16
434.016	10328.93
434.223	10664.8
434.43	11283.28
434.637	11264.85
434.844	11844.43
435.052	11971.4
435.259	11924.3
435.466	12131.14
435.673	11920.2
435.88	12849.98
436.087	13484.85
436.294	13478.71
436.501	13085.5
436.708	13120.31
436.915	13730.61
437.122	14416.68
437.329	14547.75
437.537	14883.61
437.743	15252.25
437.95	14908.19
438.157	15653.65
438.364	16030.48
438.571	16038.67
438.778	16438.02
438.985	17713.91
439.192	17140.47
439.399	17576.69
439.606	17134.33
439.813	18545.38
440.02	19505.88
440.227	18776.8
440.433	18834.14
440.64	19458.78
440.847	19129.05
441.054	19774.16
441.261	20859.59
441.467	20720.32
441.674	21232.32
441.881	21793.46
442.088	21689.01
442.294	21519.03
442.501	22291.12
442.708	22733.48
442.914	23360.16
443.121	24330.89
443.328	23763.61
443.534	25743.99
443.741	24926.85
443.948	24169.1
444.154	25997.94
444.361	26272.37
444.568	26542.7
444.774	26358.38
444.981	26624.62
445.187	27398.75
445.394	28623.44
445.6	28349.01
445.807	30652.97
446.013	29289.03
446.22	29956.66
446.426	31349.28
446.633	31388.19
446.839	32397.84
447.046	31156.77
447.252	32971.27
447.459	32801.29
447.665	32647.69
447.871	34429.43
448.078	35682.78
448.284	33905.15
448.491	34734.57
448.697	36270.55
448.903	36872.65
449.11	36731.34
449.316	36538.83
449.522	37472.71
449.728	38003.13
449.935	38504.88
450.141	38320.57
450.347	39213.48
450.553	37714.37
450.76	38162.87
450.966	39580.07
451.172	39061.93
451.378	40122.78
451.584	39006.64
451.791	40257.95
451.997	39969.18
452.203	40808.85
452.409	40561.05
452.615	40157.6
452.821	38652.34
453.027	38912.43
453.233	40622.48
453.44	38998.44
453.646	39164.33
453.852	39285.16
454.058	39911.84
454.264	38873.52
454.47	39489.96
454.676	38838.7
454.882	39741.86
455.088	36434.39
455.294	37128.65
455.5	37587.39
455.705	37921.21
455.911	36401.62
456.117	35615.2
456.323	35469.79
456.529	33438.21
456.735	34873.84
456.941	33921.53
457.147	33401.35
457.352	32055.83
457.558	31826.46
457.764	32299.54
457.97	31543.84
458.176	30757.42
458.381	30769.71
458.587	29313.6
458.793	29063.75
458.999	27652.7
459.204	29534.78
459.41	28664.39
459.616	27013.73
459.821	26888.81
460.027	26790.5
460.233	26280.56
460.438	25100.93
460.644	25172.61
460.85	24314.51
461.055	23458.46
461.261	23708.31
461.466	21891.76
461.672	21308.09
461.878	22778.53
462.083	21340.86
462.289	20898.5
462.494	20607.69
462.7	19532.5
462.905	19124.96
463.111	19686.1
463.316	19923.66
463.522	19477.21
463.727	19747.54
463.932	19675.86
464.138	19184.35
464.343	19157.72
464.549	18873.06
464.754	19309.27
464.959	19249.88
465.165	18983.65
465.37	18232.04
465.575	18004.72
465.781	18543.33
465.986	18477.8
466.191	18002.67
466.397	17701.62
466.602	16487.17
466.807	17527.54
467.012	17337.08
467.218	17341.18
467.423	17146.62
467.628	17134.33
467.833	17720.05
468.038	17017.6
468.244	16552.71
468.449	17160.95
468.654	16700.16
468.859	16376.58
469.064	16145.16
469.269	15907.6
469.474	16016.14
469.679	16098.06
469.885	15782.67
470.09	15897.36
470.295	15704.85
470.5	15434.52
470.705	15774.48
470.91	15188.76
471.115	15063.83
471.32	15323.93
471.525	15319.83
471.73	14725.92
471.935	14920.48
472.139	14258.98
472.344	14578.47
472.549	14355.24
472.754	14291.75
472.959	13959.98
473.164	13441.84
473.369	13431.6
473.574	13863.72
473.778	13738.8
473.983	13566.77
474.188	13296.44
474.393	12786.49
474.598	13191.99
474.802	12852.03
475.007	12731.2
475.212	12835.64
475.417	12381
475.621	12403.52
475.826	12239.69
476.031	12217.16
476.235	12006.22
476.44	12053.32
476.645	11883.34
476.849	11832.14
477.054	11608.91
477.259	11580.24
477.463	11639.63
477.668	11506.51
477.872	11420.5
478.077	11117.4
478.282	10740.57
478.486	10863.45
478.691	10808.16
478.895	10842.97
479.1	10697.56
479.304	10802.01
479.509	10449.76
479.713	10761.05
479.918	10488.67
480.122	10318.69
480.326	10150.76
480.531	10240.87
480.735	10333.03
480.94	10146.66
481.144	10359.65
481.348	9988.97
481.553	10099.56
481.757	9722.73
481.961	10148.71
482.166	10351.46
482.37	10113.89
482.574	9737.07
482.778	9861.99
482.983	10249.06
483.187	9945.96
483.391	10154.85
483.595	9905
483.8	9898.86
484.004	10054.5
484.208	10099.56
484.412	9745.26
484.616	10048.36
484.821	9886.57
485.025	9765.74
485.229	9884.52
485.433	9966.44
485.637	9968.49
485.841	9876.33
486.045	9874.28
486.249	9823.08
486.453	10019.69
486.657	9995.11
486.861	9968.49
487.065	9751.4
487.269	9788.27
487.473	9732.97
487.677	9778.03
487.881	9993.06
488.085	9573.23
488.289	9821.03
488.493	9737.07
488.697	9923.43
488.901	9933.67
489.105	9933.67
489.309	10089.32
489.512	9859.95
489.716	10031.97
489.92	9931.62
490.124	9679.72
490.328	9997.16
490.531	10031.97
490.735	10003.3
490.939	9823.08
491.143	9991.02
491.346	9900.9
491.55	10050.41
491.754	10111.85
491.958	10269.54
492.161	10183.52
492.365	10400.61
492.569	10126.18
492.772	10410.85
492.976	10220.39
493.18	10564.45
493.383	10650.46
493.587	10548.06
493.79	10822.49
493.994	10390.37
494.197	10691.42
494.401	10605.41
494.605	10716
494.808	10943.32
495.012	11064.15
495.215	11121.49
495.419	11031.38
495.622	10916.7
495.825	11092.82
496.029	11017.05
496.232	11369.3
496.436	11400.02
496.639	11854.67
496.843	11658.06
497.046	11821.9
497.249	11803.47
497.453	12000.07
497.656	12186.44
497.859	12030.79
498.063	12196.68
498.266	12297.03
498.469	12135.24
498.673	12563.26
498.876	12606.27
499.079	12702.53
499.282	12702.53
499.485	12983.1
499.689	13130.55
499.892	13216.57
500.095	13263.67
500.298	13548.34
500.501	13574.96
500.705	13865.77
500.908	13808.43
501.111	13810.48
501.314	14363.43
501.517	14281.51
501.72	14598.95
501.923	14603.04
502.126	14813.98
502.329	15051.55
502.532	15377.17
502.735	15180.57
502.938	15512.34
503.141	15297.3
503.344	15889.17
503.547	15651.6
503.75	16032.52
503.953	16093.96
504.156	16517.89
504.359	16423.69
504.562	16573.19
504.765	16970.49
504.968	17048.32
505.17	17289.98
505.373	17302.26
505.576	17462.01
505.779	17849.07
505.982	17756.91
506.185	17732.34
506.387	18125.55
506.59	18518.76
506.793	18424.55
506.996	18459.37
507.198	18983.65
507.401	19133.15
507.604	19430.1
507.807	19593.94
508.009	19665.62
508.212	19815.12
508.415	20132.56
508.617	20187.85
508.82	20329.16
509.022	20212.43
509.225	20771.52
509.428	21035.71
509.63	20941.5
509.833	21430.97
510.035	21807.8
510.238	21508.79
510.44	22172.33
510.643	21969.58
510.845	22663.85
511.048	22289.07
511.25	22444.71
511.453	22811.3
511.655	23483.03
511.858	23311
512.06	23478.94
512.262	23650.97
512.465	23745.17
512.667	24040.08
512.87	24228.49
513.072	24107.66
513.274	24945.28
513.477	25119.36
513.679	25162.37
513.881	25557.63
514.084	25762.42
514.286	25334.4
514.488	26028.66
514.69	26610.28
514.893	26544.75
515.095	26591.85
515.297	27015.78
515.499	26980.96
515.701	27124.32
515.904	27691.61
516.106	27560.54
516.308	27869.78
516.51	28224.08
516.712	28252.75
516.914	28498.51
517.116	28955.21
517.318	29016.65
517.52	29405.76
517.722	29274.69
517.925	29600.32
518.127	29856.31
518.329	30411.31
518.531	30448.18
518.733	30536.24
518.935	30462.51
519.136	30882.34
519.338	31308.32
519.54	31382.05
519.742	31709.72
519.944	31836.7
520.146	32051.73
520.348	32250.39
520.55	32203.28
520.752	32277.01
520.954	33153.54
521.155	32320.02
521.357	33124.87
521.559	33192.45
521.761	33526.27
521.963	33849.85
522.164	33712.64
522.366	33874.43
522.568	34193.91
522.77	34064.89
522.971	34677.23
523.173	34400.76
523.375	34308.6
523.576	34298.36
523.778	34744.81
523.98	35168.74
524.181	35138.02
524.383	35156.46
524.584	35944.92
524.786	35404.26
524.988	35252.71
525.189	35774.94
525.391	35813.85
525.592	36264.41
525.794	36006.36
525.995	36178.39
526.197	36194.78
526.398	36082.14
526.6	36485.59
526.801	36499.92
527.003	36467.16
527.204	36653.52
527.406	36714.96
527.607	36864.46
527.808	37104.07
528.01	36491.73
528.211	36489.68
528.412	37177.8
528.614	36690.38
528.815	36604.37
529.016	37341.64
529.218	36762.06
529.419	36825.55
529.62	36856.27
529.822	37253.58
530.023	36569.55
530.224	36858.32
530.425	37032.39
530.626	36753.87
530.828	36649.42
531.029	37415.37
531.23	36942.28
531.431	36782.54
531.632	36596.18
531.833	37038.54
532.035	36997.58
532.236	36854.22
532.437	37323.21
532.638	36706.77
532.839	37298.63
533.04	37179.85
533.241	36952.52
533.442	37235.14
533.643	36923.85
533.844	36792.78
534.045	36864.46
534.246	36409.81
534.447	36800.97
534.648	36831.69
534.849	36682.19
535.05	36436.44
535.251	36504.02
535.451	36293.08
535.652	36825.55
535.853	36475.35
536.054	36942.28
536.255	36608.47
536.456	36129.24
536.657	36970.96
536.857	36493.78
537.058	36233.69
537.259	36561.36
537.46	36336.09
537.66	36342.23
537.861	36239.83
538.062	36344.28
538.263	36137.43
538.463	36299.22
538.664	36030.94
538.865	36458.96
539.065	36667.86
539.266	35869.15
539.466	36329.94
539.667	35625.44
539.868	36358.61
540.068	36428.24
540.269	35955.16
540.469	36315.61
540.67	35729.89
540.87	35836.38
541.071	35881.44
541.271	36065.75
541.472	36119
541.672	35768.8
541.873	35985.88
542.073	35394.02
542.274	36403.67
542.474	36133.34
542.675	35774.94
542.875	36159.96
543.075	36035.03
543.276	35631.58
543.476	35944.92
543.676	35756.51
543.877	35809.76
544.077	35529.19
544.277	35701.22
544.478	35475.94
544.678	35815.9
544.878	35424.74
545.078	36135.38
545.279	35375.59
545.479	35228.13
545.679	35811.81
545.879	35725.79
546.079	35631.58
546.28	35119.59
546.48	35246.57
546.68	35434.98
546.88	35828.19
547.08	35650.02
547.28	35185.13
547.48	35236.33
547.68	35799.52
547.88	35402.21
548.081	35455.46
548.281	35559.91
548.481	35269.09
548.681	35615.2
548.881	36131.29
549.081	35498.47
549.28	35219.94
549.48	35607.01
549.68	35770.85
549.88	35766.75
550.08	35209.7
550.28	35439.08
550.48	35449.32
550.68	35725.79
550.88	35242.47
551.08	35363.3
551.279	35955.16
551.479	35539.43
551.679	35842.53
551.879	35400.16
552.079	35635.68
552.278	35166.7
552.478	35455.46
552.678	35535.33
552.878	35434.98
553.077	35520.99
553.277	35351.01
553.477	36030.94
553.676	35641.82
553.876	35553.76
554.076	35465.7
554.275	35430.88
554.475	35383.78
554.674	35699.17
554.874	35826.14
555.074	35697.12
555.273	35414.5
555.473	35871.2
555.672	35791.33
555.872	35326.44
556.071	35617.25
556.271	35623.39
556.47	35520.99
556.67	35316.2
556.869	35506.66
557.068	35459.55
557.268	35529.19
557.467	35621.34
557.667	35768.8
557.866	35437.03
558.065	35523.04
558.265	35807.71
558.464	35183.08
558.663	35789.28
558.863	35463.65
559.062	35764.7
559.261	35473.89
559.461	35709.41
559.66	35543.52
559.859	35547.62
560.058	35721.69
560.258	35504.61
560.457	35308.01
560.656	35543.52
560.855	35285.48
561.054	35275.24
561.253	35009
561.453	35348.96
561.652	35391.97
561.851	35453.41
562.05	35351.01
562.249	34972.14
562.448	35613.15
562.647	35387.88
562.846	35404.26
563.045	35217.89
563.244	34988.52
563.443	35592.67
563.642	34959.85
563.841	35248.61
564.04	34906.6
564.239	35305.96
564.438	35082.73
564.637	35281.38
564.836	35033.58
565.035	34638.32
565.234	34927.08
565.432	34724.33
565.631	34927.08
565.83	34957.8
566.029	34808.3
566.228	34843.12
566.427	34587.12
566.625	34656.75
566.824	34552.3
567.023	34574.83
567.222	33890.81
567.42	35103.21
567.619	34419.19
567.818	34482.67
568.016	34304.5
568.215	34288.12
568.414	34400.76
568.612	34124.28
568.811	33921.53
569.01	34218.49
569.208	33581.57
569.407	34339.32
569.605	33696.25
569.804	34093.56
570.002	33536.51
570.201	34181.62
570.4	33729.02
570.598	33548.8
570.797	33208.84
570.995	33700.35
571.193	33251.84
571.392	33774.08
571.59	33012.23
571.789	33008.14
571.987	33626.62
572.186	32981.51
572.384	32877.07
572.582	33083.91
572.781	33243.65
572.979	32586.25
573.177	33096.2
573.376	33378.82
573.574	32545.3
573.772	33122.82
573.971	32727.56
574.169	32680.46
574.367	32131.61
574.565	32854.54
574.763	32270.87
574.962	32422.42
575.16	32340.5
575.358	32203.28
575.556	32121.37
575.754	32455.18
575.952	31762.97
576.151	31937.05
576.349	31480.35
576.547	31590.94
576.745	31918.62
576.943	31527.45
577.141	31306.27
577.339	31685.15
577.537	31793.69
577.735	31646.24
577.933	31017.51
578.131	31390.24
578.329	30945.83
578.527	31115.81
578.725	31066.66
578.923	30884.39
579.121	30730.8
579.319	30607.92
579.516	31081
579.714	30978.6
579.912	30528.05
580.11	30667.31
580.308	30827.05
580.506	30378.54
580.704	30218.8
580.901	30556.72
581.099	30472.75
581.297	30138.93
581.495	29985.33
581.692	30511.66
581.89	29958.71
582.088	29649.47
582.285	29825.59
582.483	30087.73
582.681	29764.15
582.878	29618.75
583.076	29123.14
583.274	29538.88
583.471	29497.92
583.669	29252.16
583.866	29272.64
584.064	29276.74
584.262	28861
584.459	29172.29
584.657	28916.29
584.854	29065.8
585.052	28527.18
585.249	28940.87
585.447	28760.65
585.644	28381.77
585.841	28912.2
586.039	28785.22
586.236	28715.59
586.434	28271.18
586.631	28471.89
586.828	28617.29
587.026	28381.77
587.223	28113.49
587.42	28412.49
587.618	28162.64
587.815	27957.85
588.012	27730.52
588.21	27720.28
588.407	27941.46
588.604	27947.61
588.801	27488.86
588.999	27664.99
589.196	27464.28
589.393	27468.38
589.59	27544.16
589.787	27452
589.984	27210.34
590.182	27161.19
590.379	27507.29
590.576	27210.34
590.773	27277.92
590.97	27425.37
591.167	27325.02
591.364	26708.58
591.561	27079.27
591.758	26559.08
591.955	26884.71
592.152	26694.25
592.349	26671.72
592.546	26815.08
592.743	26946.15
592.94	26548.84
593.137	26473.07
593.334	26597.99
593.531	26391.15
593.727	26004.08
593.924	26255.98
594.121	26192.5
594.318	26088.05
594.515	26030.71
594.712	26249.84
594.908	26286.7
595.105	26161.78
595.302	25852.53
595.499	26026.61
595.696	25928.31
595.892	25868.92
596.089	26012.28
596.286	25604.73
596.482	25635.45
596.679	25588.35
596.876	25408.12
597.072	25328.25
597.269	25346.69
597.466	25426.56
597.662	25186.94
597.859	25277.05
598.055	25438.84
598.252	25432.7
598.448	25125.5
598.645	25385.6
598.841	25383.55
599.038	24826.5
599.234	25496.19
599.431	25211.52
599.627	25090.69
599.824	25236.09
600.02	25021.06
600.217	24984.19
600.413	25350.78
600.609	25100.93
600.806	24705.67
601.002	25209.47
601.198	24801.93
601.395	24896.13
601.591	24822.41
601.787	25045.63
601.984	24818.31
602.18	25047.68
602.376	24760.97
602.572	24916.61
602.769	24828.55
602.965	24705.67
603.161	24490.63
603.357	24818.31
603.553	24601.22
603.75	24844.93
603.946	25000.58
604.142	24871.56
604.338	24470.15
604.534	24566.41
604.73	24703.62
604.926	24902.28
605.122	25176.7
605.318	24879.75
605.514	24406.67
605.71	24750.73
605.906	24539.79
606.102	24797.83
606.298	24820.36
606.494	24773.25
606.69	24812.17
606.886	24810.12
607.082	24197.77
607.278	25107.07
607.474	24543.88
607.67	24818.31
607.866	24392.33
608.062	24908.42
608.257	24617.61
608.453	24572.55
608.649	24849.03
608.845	24492.68
609.041	24916.61
609.236	24736.39
609.432	24803.97
609.628	24533.64
609.824	24769.16
610.019	24507.02
610.215	24777.35
610.411	24976
610.606	24640.14
610.802	25041.54
610.998	24513.16
611.193	24887.94
611.389	24558.22
611.584	24560.27
611.78	24494.73
611.976	24683.14
612.171	24937.09
612.367	24838.79
612.562	24799.88
612.758	24697.48
612.953	24472.2
613.149	25301.63
613.344	24986.24
613.539	24965.76
613.735	25000.58
613.93	24941.19
614.126	24507.02
614.321	25348.73
614.517	25217.66
614.712	24889.99
614.907	24818.31
615.103	24953.48
615.298	24982.15
615.493	25031.3
615.688	24720.01
615.884	25348.73
616.079	24425.1
616.274	24959.62
616.47	24961.67
616.665	24707.72
616.86	24980.1
617.055	24801.93
617.25	24922.76
617.445	24777.35
617.641	24441.48
617.836	24763.01
618.031	24365.71
618.226	24601.22
618.421	24584.84
618.616	24674.95
618.811	24296.08
619.006	24615.56
619.201	24152.72
619.396	24224.4
619.591	24066.7
619.786	24218.25
619.981	23909.01
620.176	24244.88
620.371	24183.44
620.566	24185.49
620.761	24013.46
620.956	24187.53
621.151	23425.69
621.346	23585.43
621.541	23351.96
621.735	23712.41
621.93	23392.92
622.125	23249.57
622.32	22921.89
622.515	23149.21
622.709	23161.5
622.904	22796.96
623.099	23007.9
623.294	22766.24
623.488	22393.51
623.683	22805.16
623.878	22309.55
624.072	22475.43
624.267	22422.19
624.462	22133.42
624.656	21670.58
624.851	21910.19
625.046	21920.43
625.24	22010.54
625.435	21902
625.629	21858.99
625.824	21312.19
626.018	21451.45
626.213	20937.41
626.407	21555.9
626.602	20855.49
626.796	21252.8
626.991	21058.24
627.185	20484.81
627.38	20716.23
627.574	20421.32
627.768	20544.2
627.963	20427.46
628.157	20230.86
628.352	20521.67
628.546	19827.41
628.74	20241.1
628.935	20040.4
629.129	20060.88
629.323	19544.79
629.517	19743.44
629.712	19573.46
629.906	19516.12
630.1	19231.45
630.294	19444.44
630.489	19051.23
630.683	19030.75
630.877	18821.86
631.071	18993.89
631.265	18770.66
631.459	18766.56
631.653	18703.07
631.848	18776.8
632.042	18240.23
632.236	18596.58
632.43	18217.71
632.624	18354.92
632.818	18045.68
633.012	18125.55
633.206	17744.63
633.4	17765.1
633.594	17429.24
633.788	17941.23
633.982	17527.54
634.176	17511.16
634.369	17371.89
634.563	17314.55
634.757	17335.03
634.951	17345.27
635.145	17134.33
635.339	17048.32
635.533	16777.98
635.726	16890.62
635.92	16726.78
636.114	16675.59
636.308	16804.61
636.501	16503.56
636.695	16265.99
636.889	16278.28
637.083	16495.36
637.276	16018.19
637.47	15815.44
637.664	16014.09
637.857	15778.58
638.051	15776.53
638.244	15772.43
638.438	15508.24
638.632	15565.59
638.825	15399.7
639.019	15368.98
639.212	15430.42
639.406	15373.08
639.599	14988.06
639.793	14891.8
639.986	14992.16
640.18	14799.65
640.373	14902.04
640.567	14551.84
640.76	14639.9
640.954	14656.29
641.147	14353.19
641.34	14527.27
641.534	14422.82
641.727	14371.62
641.92	14089
642.114	14129.96
642.307	13925.16
642.5	14136.1
642.694	13931.31
642.887	13638.45
643.08	13906.73
643.273	13638.45
643.467	13607.73
643.66	13560.63
643.853	13396.79
644.046	13153.08
644.239	13282.1
644.432	13198.13
644.626	13089.59
644.819	13005.63
645.012	13042.49
645.205	12976.95
645.398	12833.6
645.591	12661.57
645.784	12653.37
645.977	12436.29
646.17	12577.6
646.363	12311.36
646.556	12419.91
646.749	12292.93
646.942	12464.96
647.135	11965.26
647.328	12276.55
647.521	11993.93
647.714	12008.26
647.907	11901.77
648.099	11918.15
648.292	11858.76
648.485	11768.65
648.678	11662.16
648.871	11541.33
649.064	11447.12
649.256	11461.46
649.449	11385.68
649.642	11459.41
649.835	11203.41
650.027	11121.49
650.22	11150.17
650.413	11027.29
650.605	11129.69
650.798	11146.07
650.991	10793.82
651.183	11129.69
651.376	10804.06
651.568	10922.84
651.761	10666.85
651.954	10525.54
652.146	10730.33
652.339	10593.12
652.531	10535.78
652.724	10535.78
652.916	10113.89
653.109	10167.14
653.301	10302.31
653.494	10179.43
653.686	10154.85
653.879	10249.06
654.071	10081.13
654.263	9835.37
654.456	9943.91
654.648	9827.18
654.84	9780.07
655.033	9778.03
655.225	9847.66
655.417	9476.98
655.61	9657.2
655.802	9495.41
655.994	9702.25
656.186	9474.93
656.379	9403.25
656.571	9343.86
656.763	9495.41
656.955	9245.55
657.148	9212.79
657.34	9173.88
657.532	9075.57
657.724	9198.45
657.916	9053.05
658.108	8958.84
658.3	8905.59
658.492	8975.22
658.684	8881.02
658.876	8743.8
659.068	8684.41
659.26	8659.84
659.452	8770.43
659.644	8762.23
659.836	8575.87
660.028	8510.33
660.22	8489.85
660.412	8248.19
660.604	8336.26
660.796	8475.52
660.988	8362.88
661.18	8078.21
661.372	8151.94
661.563	8156.04
661.755	8090.5
661.947	8000.39
662.139	8029.06
662.331	7865.22
662.522	7852.94
662.714	7701.39
662.906	7879.56
663.097	7789.45
663.289	7803.78
663.481	7529.36
663.673	7723.91
663.864	7721.87
664.056	7576.46
664.247	7484.3
664.439	7295.89
664.631	7564.17
664.822	7369.62
665.014	7426.96
665.205	7383.95
665.397	7226.26
665.588	7230.35
665.78	7306.13
665.971	7230.35
666.163	7226.26
666.354	7082.9
666.546	7033.75
666.737	6962.07
666.929	6968.21
667.12	6976.41
667.311	6867.86
667.503	6847.38
667.694	6966.17
667.885	6865.82
668.077	6804.38
668.268	6611.87
668.459	6777.75
668.651	6738.84
668.842	6648.73
669.033	6673.31
669.224	6587.29
669.416	6753.18
669.607	6605.72
669.798	6646.68
669.989	6599.58
670.18	6513.56
670.371	6312.86
670.563	6331.3
670.754	6423.45
670.945	6341.54
671.136	6509.47
671.327	6339.49
671.518	6329.25
671.709	6257.57
671.9	6398.88
672.091	6216.61
672.282	6157.22
672.473	6224.8
672.664	6239.14
672.855	6110.11
673.046	6042.53
673.237	6101.92
673.428	5956.52
673.619	6073.25
673.809	5981.09
674	5956.52
674.191	6134.69
674.382	5956.52
674.573	5888.93
674.764	6032.29
674.954	5927.85
675.145	5798.82
675.336	6011.81
675.527	5850.02
675.717	5897.13
675.908	5792.68
676.099	5792.68
676.289	5735.34
676.48	5600.17
676.671	5632.94
676.861	5784.49
677.052	5682.09
677.243	5680.04
677.433	5682.09
677.624	5731.24
677.814	5585.83
678.005	5585.83
678.195	5628.84
678.386	5612.46
678.576	5434.29
678.767	5501.87
678.957	5542.83
679.148	5604.27
679.338	5577.64
679.529	5462.96
679.719	5444.52
679.909	5465
680.1	5563.31
680.29	5426.09
680.481	5467.05
680.671	5452.72
680.861	5505.96
681.052	5456.81
681.242	5301.17
681.432	5458.86
681.622	5346.22
681.813	5272.5
682.003	5258.16
682.193	5206.96
682.383	5397.42
682.573	5411.76
682.764	5120.95
682.954	5145.52
683.144	5225.39
683.334	5256.11
683.524	5143.47
683.714	5270.45
683.904	5190.58
684.094	5258.16
684.284	5227.44
684.474	5239.73
684.664	5127.09
684.854	5168.05
685.044	4963.25
685.234	4936.63
685.424	5026.74
685.614	5118.9
685.804	5233.58
685.994	4993.97
686.184	5028.79
686.374	5043.12
686.564	4993.97
686.753	4928.44
686.943	4963.25
687.133	4969.4
687.323	4928.44
687.513	4903.86
687.702	4830.13
687.892	4955.06
688.082	4840.37
688.272	4854.71
688.461	4813.75
688.651	4922.29
688.841	4848.57
689.03	4881.33
689.22	4838.33
689.41	4780.98
689.599	4694.97
689.789	4760.5
689.979	4746.17
690.168	4658.1
690.358	4596.67
690.547	4619.19
690.737	4895.67
690.926	4576.19
691.116	4600.76
691.305	4627.39
691.495	4527.03
691.684	4455.36
691.874	4645.82
692.063	4555.71
692.252	4502.46
692.442	4535.23
692.631	4420.54
692.82	4289.47
693.01	4420.54
693.199	4361.15
693.388	4395.96
693.578	4285.37
693.767	4412.35
693.956	4352.96
694.146	4375.49
694.335	4350.91
694.524	4252.61
694.713	4314.05
694.902	4330.43
695.092	4176.83
695.281	4385.73
695.47	4352.96
695.659	4254.66
695.848	4215.74
696.037	4086.72
696.226	4307.9
696.415	4228.03
696.604	4185.02
696.793	4209.6
696.982	4176.83
697.171	4142.02
697.36	4215.74
697.549	4084.67
697.738	4043.71
697.927	4101.06
698.116	3937.22
698.305	4021.19
698.494	4125.63
698.683	4068.29
698.872	4051.91
699.061	3926.98
699.25	4056
699.438	3847.11
699.627	3937.22
699.816	3953.6
700.005	3945.41
700.193	3990.47
700.382	4039.62
700.571	3935.17
700.76	3910.6
700.948	3904.45
701.137	3838.92
701.326	3843.01
701.514	3888.07
701.703	3814.34
701.892	3855.3
702.08	3791.81
702.269	3767.24
702.457	3630.02
702.646	3797.96
702.834	3675.08
703.023	3658.7
703.212	3683.27
703.4	3761.09
703.589	3587.02
703.777	3613.64
703.965	3771.33
704.154	3589.07
704.342	3650.5
704.531	3693.51
704.719	3560.39
704.907	3660.74
705.096	3634.12
705.284	3652.55
705.472	3509.19
705.661	3509.19
705.849	3666.89
706.037	3503.05
706.226	3554.25
706.414	3468.24
706.602	3560.39
706.79	3509.19
706.979	3519.43
707.167	3480.52
707.355	3511.24
707.543	3298.25
707.731	3552.2
707.919	3367.88
708.107	3355.6
708.296	3462.09
708.484	3298.25
708.672	3263.44
708.86	3423.18
709.048	3376.08
709.236	3318.73
709.424	3206.1
709.612	3310.54
709.8	3228.62
709.988	3187.66
710.176	3261.39
710.364	3322.83
710.551	3214.29
710.739	3306.45
710.927	3300.3
711.115	3111.89
711.303	3265.49
711.491	3167.18
711.679	3003.35
711.866	3111.89
712.054	3062.74
712.242	3163.09
712.43	3240.91
712.617	3095.5
712.805	3015.63
712.993	3115.98
713.181	3052.5
713.368	3150.8
713.556	3032.02
713.744	3079.12
713.931	3115.98
714.119	2966.48
714.306	3023.83
714.494	2917.33
714.682	3027.92
714.869	2849.75
715.057	2960.34
715.244	2941.91
715.432	2956.24
715.619	2956.24
715.807	2878.42
715.994	2825.17
716.182	2937.81
716.369	2884.56
716.556	2921.43
716.744	2896.85
716.931	2694.1
717.119	2776.02
717.306	2956.24
717.493	2784.21
717.681	2872.28
717.868	2859.99
718.055	2827.22
718.242	2804.69
718.43	2741.21
718.617	2788.31
718.804	2769.88
718.991	2718.68
719.179	2778.07
719.366	2810.84
719.553	2798.55
719.74	2722.77
719.927	2786.26
720.114	2585.56
720.301	2706.39
720.488	2565.08
720.676	2737.11
720.863	2632.66
721.05	2659.29
721.237	2599.9
721.424	2618.33
721.611	2626.52
721.798	2503.64
721.985	2603.99
722.172	2618.33
722.358	2487.26
722.545	2642.9
722.732	2589.66
722.919	2724.82
723.106	2429.91
723.293	2563.03
723.48	2505.69
723.667	2415.58
723.853	2380.76
724.04	2487.26
724.227	2415.58
724.414	2384.86
724.6	2462.68
724.787	2444.25
724.974	2456.54
725.161	2448.35
725.347	2483.16
725.534	2380.76
725.72	2364.38
725.907	2438.11
726.094	2479.07
726.28	2446.3
726.467	2538.46
726.653	2317.28
726.84	2282.46
727.027	2409.44
727.213	2298.84
727.4	2407.39
727.586	2331.61
727.773	2327.52
727.959	2276.32
728.145	2354.14
728.332	2247.65
728.518	2292.7
728.705	2290.65
728.891	2243.55
729.077	2227.17
729.264	2257.89
729.45	2251.74
729.636	2251.74
729.823	2233.31
730.009	2249.69
730.195	2204.64
730.382	2208.73
730.568	2157.54
730.754	2261.98
730.94	2196.45
731.126	2163.68
731.313	2237.41
731.499	2202.59
731.685	2200.54
731.871	2089.95
732.057	2190.3
732.243	2128.86
732.429	2065.38
732.615	2147.3
732.801	2182.11
732.987	2135.01
733.173	2132.96
733.359	2094.05
733.545	2135.01
733.731	2044.9
733.917	2155.49
734.103	2167.77
734.289	2079.71
734.475	1883.11
734.661	2046.94
734.847	2044.9
735.033	2089.95
735.219	2026.47
735.404	2038.75
735.59	2184.16
735.776	2003.94
735.962	1946.59
736.148	2040.8
736.333	1946.59
736.519	2040.8
736.705	1942.5
736.89	1938.4
737.076	1960.93
737.262	1872.87
737.447	1948.64
737.633	1997.79
737.819	2024.42
738.004	1891.3
738.19	1854.44
738.375	1962.98
738.561	1903.59
738.747	1874.92
738.932	1827.81
739.118	1891.3
739.303	1801.19
739.489	1971.17
739.674	1770.47
739.859	1817.57
740.045	1922.02
740.23	1922.02
740.416	1774.56
740.601	1840.1
740.786	1749.99
740.972	1721.32
741.157	1709.03
741.342	1782.76
741.528	1838.05
741.713	1749.99
741.898	1682.41
742.084	1676.26
742.269	1661.93
742.454	1797.09
742.639	1692.65
742.824	1688.55
743.01	1737.7
743.195	1778.66
743.38	1672.17
743.565	1602.54
743.75	1651.69
743.935	1670.12
744.12	1739.75
744.305	1698.79
744.49	1692.65
744.675	1651.69
744.86	1522.66
745.045	1629.16
745.23	1580.01
745.415	1651.69
745.6	1655.78
745.785	1625.06
745.97	1557.48
746.155	1479.66
746.34	1623.02
746.525	1551.34
746.71	1643.49
746.895	1602.54
747.079	1541.1
747.264	1487.85
747.449	1446.89
747.634	1537
747.819	1537
748.003	1430.51
748.188	1489.9
748.373	1522.66
748.557	1586.15
748.742	1463.27
748.927	1473.51
749.111	1393.64
749.296	1428.46
749.481	1371.12
749.665	1399.79
749.85	1391.59
750.034	1367.02
750.219	1375.21
750.404	1401.83
750.588	1399.79
750.773	1467.37
750.957	1242.09
751.141	1231.85
751.326	1319.92
751.51	1360.88
751.695	1291.24
751.879	1168.37
752.064	1348.59
752.248	1291.24
752.432	1307.63
752.617	1248.24
752.801	1274.86
752.985	1127.41
753.17	1287.15
753.354	1154.03
753.538	1233.9
753.722	1299.44
753.907	1209.33
754.091	1233.9
754.275	1250.28
754.459	1246.19
754.643	1127.41
754.828	1238
755.012	1092.59
755.196	1160.17
755.38	1145.84
755.564	1014.77
755.748	1170.41
755.932	1098.74
756.116	1102.83
756.3	1063.92
756.484	1106.93
756.668	1039.34
756.852	1018.86
757.036	992.24
757.22	996.34
757.404	1029.1
757.588	1082.35
757.772	947.19
757.956	1047.54
758.14	965.62
758.323	977.91
758.507	984.05
758.691	906.23
758.875	988.14
759.059	990.19
759.242	1018.86
759.426	973.81
759.61	916.47
759.794	938.99
759.977	1055.73
760.161	984.05
760.345	998.38
760.528	938.99
760.712	951.28
760.895	895.99
761.079	930.8
761.263	842.74
761.446	934.9
761.63	947.19
761.813	838.64
761.997	848.88
762.18	938.99
762.364	893.94
762.547	803.83
762.731	875.51
762.914	861.17
763.098	867.31
763.281	809.97
763.464	891.89
763.648	900.08
763.831	803.83
764.015	928.75
764.198	852.98
764.381	887.79
764.564	828.4
764.748	816.12
764.931	873.46
765.114	760.82
765.297	916.47
765.481	791.54
765.664	764.92
765.847	824.31
766.03	836.6
766.213	783.35
766.397	734.2
766.58	781.3
766.763	898.03
766.946	820.21
767.129	717.81
767.312	689.14
767.495	793.59
767.678	650.23
767.861	785.4
768.044	754.68
768.227	736.24
768.41	865.27
768.593	783.35
768.776	775.16
768.959	826.36
769.142	801.78
769.324	676.85
769.507	750.58
769.69	742.39
769.873	726
770.056	773.11
770.239	687.09
770.421	789.49
770.604	734.2
770.787	730.1
770.97	730.1
771.152	668.66
771.335	742.39
771.518	766.96
771.7	777.2
771.883	734.2
772.066	678.9
772.248	738.29
772.431	668.66
772.613	670.71
772.796	678.9
772.978	676.85
773.161	742.39
773.343	705.53
773.526	680.95
773.708	707.57
773.891	603.13
774.073	695.29
774.256	701.43
774.438	625.65
774.621	672.76
774.803	605.17
774.985	676.85
775.168	617.46
775.35	582.65
775.532	566.26
775.715	607.22
775.897	703.48
776.079	617.46
776.261	580.6
776.444	623.61
776.626	646.13
776.808	545.78
776.99	562.17
777.173	689.14
777.355	588.79
777.537	644.09
777.719	517.11
777.901	564.22
778.083	578.55
778.265	537.59
778.447	570.36
778.629	539.64
778.811	560.12
778.993	572.41
779.175	627.7
779.357	541.69
779.539	517.11
779.721	594.93
779.903	533.5
780.085	521.21
780.267	490.49
780.449	496.63
780.631	517.11
780.812	457.72
780.994	545.78
781.176	496.63
781.358	502.78
781.54	402.43
781.721	474.1
781.903	422.91
782.085	504.82
782.267	431.1
782.448	373.75
782.63	449.53
782.812	476.15
782.993	484.34
783.175	496.63
783.357	371.71
783.538	406.52
783.72	390.14
783.901	392.19
784.083	433.15
784.264	480.25
784.446	361.47
784.627	418.81
784.809	406.52
784.99	386.04
785.172	472.06
785.353	455.67
785.535	431.1
785.716	400.38
785.897	377.85
786.079	457.72
786.26	474.1
786.441	392.19
786.623	316.41
786.804	322.56
786.985	414.71
787.167	357.37
787.348	375.8
787.529	367.61
787.71	478.2
787.891	377.85
788.073	381.95
788.254	324.6
788.435	361.47
788.616	412.67
788.797	353.27
788.978	390.14
789.159	316.41
789.34	353.27
789.522	353.27
789.703	406.52
789.884	357.37
790.065	388.09
790.246	375.8
790.427	310.27
790.607	345.08
790.788	340.99
790.969	349.18
791.15	308.22
791.331	295.93
791.512	398.33
791.693	214.01
791.874	318.46
792.054	383.99
792.235	347.13
792.416	308.22
792.597	267.26
792.778	250.88
792.958	320.51
793.139	277.5
793.32	361.47
793.5	291.84
793.681	308.22
793.862	283.64
794.042	273.4
794.223	265.21
794.404	310.27
794.584	263.16
794.765	283.64
794.945	293.88
795.126	316.41
795.306	287.74
795.487	377.85
795.667	254.97
795.848	261.12
796.028	226.3
796.209	218.11
796.389	320.51
796.57	195.58
796.75	259.07
796.93	234.49
797.111	263.16
797.291	175.1
797.471	242.68
797.652	265.21
797.832	144.38
798.012	189.44
798.192	295.93
798.373	193.53
798.553	179.2
798.733	293.88
798.913	230.4
799.093	267.26
799.274	254.97
799.454	283.64
799.634	226.3
799.814	242.68
799.994	236.54
800.174	261.12
800.354	177.15
800.534	226.3
800.714	209.92
800.894	214.01
801.074	189.44
801.254	218.11
801.434	197.63
801.614	179.2
801.794	191.49
801.974	920.56
802.154	162.81
802.334	209.92
802.514	195.58
802.693	185.34
802.873	175.1
803.053	250.88
803.233	187.39
803.413	238.59
803.592	140.29
803.772	207.87
803.952	209.92
804.131	175.1
804.311	246.78
804.491	283.64
804.67	125.95
804.85	201.72
805.03	179.2
805.209	211.96
805.389	197.63
805.568	195.58
805.748	171.01
805.928	177.15
806.107	193.53
806.287	199.68
806.466	168.96
806.646	209.92
806.825	179.2
807.004	195.58
807.184	189.44
807.363	207.87
807.543	201.72
807.722	152.57
807.901	187.39
808.081	162.81
808.26	91.13
808.439	134.14
808.619	97.28
808.798	156.67
808.977	189.44
809.156	185.34
809.336	191.49
809.515	193.53
809.694	187.39
809.873	171.01
810.052	123.9
810.231	117.76
810.411	177.15
810.59	189.44
810.769	138.24
810.948	152.57
811.127	107.52
811.306	152.57
811.485	136.19
811.664	291.84
811.843	136.19
812.022	46.08
812.201	160.77
812.38	72.7
812.559	171.01
812.737	144.38
812.916	152.57
813.095	152.57
813.274	99.33
813.453	168.96
813.632	150.53
813.811	218.11
813.989	152.57
814.168	162.81
814.347	162.81
814.526	95.23
814.704	72.7
814.883	160.77
815.062	62.46
815.24	95.23
815.419	123.9
815.598	109.57
815.776	87.04
815.955	185.34
816.133	74.75
816.312	128
816.49	123.9
816.669	185.34
816.847	136.19
817.026	95.23
817.204	111.61
817.383	140.29
817.561	103.42
817.74	203.77
817.918	130.05
818.097	160.77
818.275	111.61
818.453	107.52
818.632	168.96
818.81	107.52
818.988	142.33
819.167	146.43
819.345	107.52
819.523	78.85
819.701	111.61
819.879	201.72
820.058	109.57
820.236	48.13
820.414	146.43
820.592	107.52
820.77	138.24
820.948	91.13
821.127	54.27
821.305	82.94
821.483	211.96
821.661	173.05
821.839	123.9
822.017	80.89
822.195	109.57
822.373	148.48
822.551	64.51
822.729	46.08
822.907	107.52
823.085	29.7
823.262	93.18
823.44	205.82
823.618	134.14
823.796	89.09
823.974	123.9
824.152	138.24
824.329	78.85
824.507	164.86
824.685	195.58
824.863	56.32
825.04	119.81
825.218	109.57
825.396	87.04
825.574	91.13
825.751	101.37
825.929	97.28
826.107	72.7
826.284	80.89
826.462	87.04
826.639	87.04
826.817	70.65
826.994	121.85
827.172	70.65
827.349	175.1
827.527	128
827.704	37.89
827.882	125.95
828.059	103.42
828.237	62.46
828.414	111.61
828.591	19.46
828.769	89.09
828.946	58.37
829.124	72.7
829.301	154.62
829.478	76.8
829.655	168.96
829.833	107.52
830.01	29.7
830.187	76.8
830.364	15.36
830.542	46.08
830.719	140.29
830.896	95.23
831.073	31.74
831.25	93.18
831.427	78.85
831.604	17.41
831.782	15.36
831.959	80.89
832.136	56.32
832.313	50.18
832.49	46.08
832.667	72.7
832.844	74.75
833.021	78.85
833.198	66.56
833.374	87.04
833.551	87.04
833.728	52.22
833.905	140.29
834.082	5.12
834.259	82.94
834.436	89.09
834.612	25.6
834.789	41.98
834.966	50.18
835.143	78.85
835.319	82.94
835.496	117.76
835.673	142.33
835.85	62.46
836.026	13.31
836.203	91.13
836.38	19.46
836.556	87.04
836.733	41.98
836.909	87.04
837.086	-5.12
837.262	99.33
837.439	107.52
837.616	76.8
837.792	37.89
837.968	62.46
838.145	31.74
838.321	56.32
838.498	66.56
838.674	52.22
838.851	7.17
839.027	17.41
839.203	64.51
839.38	97.28
839.556	60.42
839.732	72.7
839.909	54.27
840.085	78.85
840.261	48.13
840.437	60.42
840.614	33.79
840.79	97.28
840.966	54.27
841.142	-3.07
841.318	70.65
841.494	82.94
841.671	107.52
841.847	87.04
842.023	29.7
842.199	68.61
842.375	54.27
842.551	25.6
842.727	5.12
842.903	78.85
843.079	54.27
843.255	95.23
843.431	-11.26
843.607	78.85
843.783	46.08
843.959	68.61
844.134	-1.02
844.31	93.18
844.486	-3.07
844.662	68.61
844.838	35.84
845.013	97.28
845.189	72.7
845.365	74.75
845.541	-39.94
845.716	111.61
845.892	13.31
846.068	56.32
846.244	19.46
846.419	31.74
846.595	7.17
846.77	5.12
846.946	82.94
847.122	66.56
847.297	37.89
847.473	203.77
847.648	41.98
847.824	103.42
847.999	-17.41
848.175	35.84
848.35	82.94
848.526	41.98
848.701	39.94
848.876	72.7
849.052	31.74
849.227	97.28
849.403	-23.55
849.578	74.75
849.753	60.42
849.929	72.7
850.104	103.42
850.279	76.8
850.454	66.56
850.63	74.75
850.805	132.09
850.98	13.31
851.155	82.94
851.33	-3.07
851.505	44.03
851.681	58.37
851.856	33.79
852.031	111.61
852.206	19.46
852.381	-1.02
852.556	58.37
852.731	70.65
852.906	15.36
853.081	60.42
853.256	46.08
853.431	70.65
853.606	9.22
853.781	15.36
853.956	-7.17
854.131	44.03
854.305	-66.56
854.48	41.98
854.655	21.5
854.83	31.74
855.005	44.03
855.18	64.51
855.354	95.23
855.529	17.41
855.704	56.32
855.879	78.85
856.053	-35.84
856.228	19.46
856.403	-68.61
856.577	56.32
856.752	-66.56
856.926	50.18
857.101	29.7
857.276	46.08
857.45	1.02
857.625	50.18
857.799	56.32
857.974	119.81
858.148	5.12
858.323	70.65
858.497	46.08
858.672	70.65
858.846	39.94
859.02	37.89
859.195	-11.26
859.369	17.41
859.543	21.5
859.718	7.17
859.892	-15.36
860.066	-3.07
860.241	-25.6
860.415	39.94
860.589	25.6
860.763	29.7
860.938	89.09
861.112	46.08
861.286	-11.26
861.46	37.89
861.634	3.07
861.808	123.9
861.982	21.5
862.157	-70.65
862.331	21.5
862.505	1.02
862.679	-68.61
862.853	13.31
863.027	29.7
863.201	160.77
863.375	56.32
863.549	17.41
863.722	89.09
863.896	58.37
864.07	-35.84
864.244	7.17
864.418	39.94
864.592	-7.17
864.766	5.12
864.939	-3.07
865.113	19.46
865.287	76.8
865.461	46.08
865.634	-3.07
865.808	44.03
865.982	41.98
866.156	31.74
866.329	-31.74
866.503	91.13
866.676	17.41
866.85	19.46
867.024	-9.22
867.197	13.31
867.371	70.65
867.544	37.89
867.718	17.41
867.891	76.8
868.065	29.7
868.238	54.27
868.412	89.09
868.585	-3.07
868.759	19.46
868.932	7.17
869.105	-125.95
869.279	-91.13
869.452	37.89
869.625	72.7
869.799	15.36
869.972	-31.74
870.145	15.36
870.319	5.12
870.492	46.08
870.665	119.81
870.838	33.79
871.011	-35.84
871.185	62.46
871.358	-35.84
871.531	66.56
871.704	-25.6
871.877	82.94
872.05	-11.26
872.223	-9.22
872.396	9.22
872.569	29.7
872.742	-3.07
872.915	-3.07
873.088	-33.79
873.261	89.09
873.434	13.31
873.607	29.7
873.78	44.03
873.953	-3.07
874.126	-19.46
874.299	-1.02
874.471	41.98
874.644	15.36
874.817	-31.74
874.99	160.77
875.163	7.17
875.335	29.7
875.508	3.07
875.681	62.46
875.853	5.12
876.026	17.41
876.199	1.02
876.371	-1.02
876.544	-9.22
876.717	-27.65
876.889	-1.02
877.062	-11.26
877.234	-105.47
877.407	11.26
877.579	115.71
877.752	-19.46
877.924	37.89
878.097	17.41
878.269	-3.07
878.442	1.02
878.614	25.6
878.786	119.81
878.959	44.03
879.131	41.98
879.303	-11.26
879.476	-35.84
879.648	103.42
879.82	66.56
879.993	-52.22
880.165	7.17
880.337	-68.61
880.509	33.79
880.681	13.31
880.854	1.02
881.026	72.7
881.198	-37.89
881.37	25.6
881.542	80.89
881.714	-25.6
881.886	62.46
882.058	-48.13
882.23	66.56
882.402	-11.26
882.574	33.79
882.746	9.22
882.918	-11.26
883.09	33.79
883.262	99.33
883.434	-37.89
883.606	-3.07
883.778	21.5
883.95	50.18
884.122	29.7
884.293	37.89
884.465	56.32
884.637	70.65
884.809	3.07
884.98	62.46
885.152	17.41
885.324	17.41
885.496	-23.55
885.667	-41.98
885.839	1.02
886.011	35.84
886.182	-3.07
886.354	-39.94
886.525	70.65
886.697	29.7
886.869	87.04
887.04	-125.95
887.212	91.13
887.383	91.13
887.555	-3.07
887.726	64.51
887.897	-35.84
888.069	9.22
888.24	21.5
888.412	-7.17
888.583	-3.07
888.754	105.47
888.926	-99.33
889.097	44.03
889.268	-19.46
889.44	-33.79
889.611	-3.07
889.782	5.12
889.953	-19.46
890.125	29.7
890.296	25.6
890.467	27.65
890.638	41.98
890.809	70.65
890.98	-48.13
891.151	33.79
891.323	13.31
891.494	15.36
891.665	-3.07
891.836	31.74
892.007	-3.07
892.178	-11.26
892.349	41.98
892.52	13.31
892.691	1.02
892.862	1.02
893.032	-3.07
893.203	64.51
893.374	29.7
893.545	48.13
893.716	21.5
893.887	80.89
894.057	3.07
894.228	70.65
894.399	5.12
894.57	54.27
894.74	9.22
894.911	37.89
895.082	-19.46
895.253	11.26
895.423	41.98
895.594	-11.26
895.764	13.31
895.935	-1.02
896.106	-66.56
896.276	-54.27
896.447	37.89
896.617	-27.65
896.788	-3.07
896.958	-44.03
897.129	-44.03
897.299	33.79
897.47	-1.02
897.64	23.55
897.81	17.41
897.981	-7.17
898.151	-25.6
898.322	72.7
898.492	31.74
898.662	-15.36
898.832	5.12
899.003	-29.7
899.173	25.6
899.343	17.41
899.513	-35.84
