Data from USB4F104151__91__14-30-42-620.txt Node

Date: Thu Mar 13 14:30:42 EDT 2025
User: louis
Spectrometer: USB4F10415
Trigger mode: 4
Integration Time (sec): 2.500000E-2
Scans to average: 1
Electric dark correction enabled: true
Nonlinearity correction enabled: false
Boxcar width: 0
XAxis mode: Wavelengths
Number of Pixels in Spectrum: 3648
>>>>>Begin Spectral Data<<<<<
178.204	-171.86
178.424	-171.86
178.644	-171.86
178.864	-196.43
179.084	-132.95
179.304	69.8
179.524	-5.97
179.744	-57.17
179.964	8.36
180.184	28.84
180.404	-83.8
180.624	0.17
180.844	14.51
181.064	22.7
181.283	-18.26
181.503	30.89
181.723	-10.07
181.943	-137.04
182.163	55.47
182.383	47.27
182.602	75.95
182.822	63.66
183.042	34.99
183.262	16.55
183.482	80.04
183.701	34.99
183.921	8.36
184.141	8.36
184.361	59.56
184.58	34.99
184.8	26.79
185.02	-30.55
185.239	57.51
185.459	22.7
185.679	47.27
185.898	-5.97
186.118	55.47
186.338	-8.02
186.557	41.13
186.777	26.79
186.997	2.22
187.216	30.89
187.436	90.28
187.655	43.18
187.875	-30.55
188.095	-18.26
188.314	-1.88
188.534	116.9
188.753	8.36
188.973	43.18
189.192	75.95
189.412	24.75
189.631	80.04
189.851	-18.26
190.07	8.36
190.29	6.31
190.509	75.95
190.729	75.95
190.948	96.43
191.168	161.96
191.387	71.85
191.607	92.33
191.826	-10.07
192.045	-67.41
192.265	65.71
192.484	75.95
192.704	65.71
192.923	45.23
193.142	145.58
193.362	65.71
193.581	53.42
193.8	104.62
194.02	-34.64
194.239	6.31
194.458	41.13
194.678	2.22
194.897	-8.02
195.116	30.89
195.335	22.7
195.555	28.84
195.774	67.75
195.993	41.13
196.212	6.31
196.432	-18.26
196.651	0.17
196.87	6.31
197.089	51.37
197.308	75.95
197.528	104.62
197.747	0.17
197.966	-57.17
198.185	55.47
198.404	75.95
198.623	51.37
198.842	6.31
199.062	43.18
199.281	98.47
199.5	47.27
199.719	63.66
199.938	57.51
200.157	-8.02
200.376	26.79
200.595	0.17
200.814	71.85
201.033	14.51
201.252	63.66
201.471	0.17
201.69	16.55
201.909	82.09
202.128	-24.4
202.347	98.47
202.566	-65.36
202.785	-10.07
203.004	6.31
203.223	100.52
203.442	88.23
203.661	-59.22
203.879	-10.07
204.098	92.33
204.317	6.31
204.536	30.89
204.755	57.51
204.974	18.6
205.193	26.79
205.411	116.9
205.63	39.08
205.849	-18.26
206.068	32.94
206.287	-40.79
206.505	61.61
206.724	90.28
206.943	22.7
207.162	14.51
207.381	28.84
207.599	-1.88
207.818	18.6
208.037	-28.5
208.255	-5.97
208.474	28.84
208.693	2.22
208.911	24.75
209.13	4.27
209.349	59.56
209.567	141.48
209.786	39.08
210.005	-8.02
210.223	82.09
210.442	-22.36
210.661	-16.21
210.879	-63.32
211.098	18.6
211.316	86.19
211.535	-1.88
211.753	8.36
211.972	88.23
212.191	14.51
212.409	137.38
212.628	51.37
212.846	-8.02
213.065	63.66
213.283	39.08
213.502	59.56
213.72	108.71
213.938	59.56
214.157	2.22
214.375	65.71
214.594	-28.5
214.812	-34.64
215.031	41.13
215.249	-38.74
215.467	0.17
215.686	34.99
215.904	41.13
216.122	63.66
216.341	59.56
216.559	71.85
216.778	55.47
216.996	55.47
217.214	18.6
217.432	-87.89
217.651	14.51
217.869	14.51
218.087	-14.17
218.306	-22.36
218.524	71.85
218.742	32.94
218.96	-34.64
219.179	-8.02
219.397	39.08
219.615	80.04
219.833	73.9
220.051	6.31
220.27	121
220.488	10.41
220.706	26.79
220.924	14.51
221.142	24.75
221.36	32.94
221.578	12.46
221.796	10.41
222.015	14.51
222.233	77.99
222.451	104.62
222.669	-44.88
222.887	47.27
223.105	-57.17
223.323	16.55
223.541	-38.74
223.759	125.1
223.977	20.65
224.195	71.85
224.413	123.05
224.631	-40.79
224.849	30.89
225.067	47.27
225.285	51.37
225.503	53.42
225.721	-26.45
225.939	77.99
226.157	6.31
226.375	114.86
226.592	-10.07
226.81	80.04
227.028	135.34
227.246	86.19
227.464	75.95
227.682	51.37
227.9	80.04
228.117	32.94
228.335	2.22
228.553	-1.88
228.771	112.81
228.989	6.31
229.206	41.13
229.424	-16.21
229.642	-1.88
229.86	8.36
230.077	88.23
230.295	80.04
230.513	39.08
230.731	45.23
230.948	12.46
231.166	141.48
231.384	98.47
231.601	24.75
231.819	6.31
232.037	39.08
232.254	14.51
232.472	63.66
232.689	2.22
232.907	133.29
233.125	16.55
233.342	43.18
233.56	-55.12
233.777	22.7
233.995	39.08
234.213	88.23
234.43	55.47
234.648	37.03
234.865	-38.74
235.083	41.13
235.3	24.75
235.518	80.04
235.735	96.43
235.953	71.85
236.17	88.23
236.388	28.84
236.605	49.32
236.822	47.27
237.04	63.66
237.257	43.18
237.475	-34.64
237.692	26.79
237.909	34.99
238.127	106.67
238.344	47.27
238.562	116.9
238.779	-14.17
238.996	39.08
239.214	30.89
239.431	39.08
239.648	12.46
239.865	55.47
240.083	55.47
240.3	30.89
240.517	82.09
240.735	98.47
240.952	86.19
241.169	-26.45
241.386	-26.45
241.603	-26.45
241.821	73.9
242.038	55.47
242.255	41.13
242.472	-3.93
242.689	84.14
242.907	153.77
243.124	34.99
243.341	-12.12
243.558	-5.97
243.775	92.33
243.992	18.6
244.209	14.51
244.426	55.47
244.643	96.43
244.86	6.31
245.078	114.86
245.295	80.04
245.512	90.28
245.729	18.6
245.946	22.7
246.163	84.14
246.38	59.56
246.597	10.41
246.814	10.41
247.031	32.94
247.248	43.18
247.464	0.17
247.681	18.6
247.898	65.71
248.115	14.51
248.332	6.31
248.549	39.08
248.766	53.42
248.983	18.6
249.2	63.66
249.417	82.09
249.633	-1.88
249.85	39.08
250.067	41.13
250.284	4.27
250.501	63.66
250.717	71.85
250.934	-24.4
251.151	-10.07
251.368	73.9
251.585	51.37
251.801	22.7
252.018	-5.97
252.235	14.51
252.451	-22.36
252.668	30.89
252.885	30.89
253.102	30.89
253.318	69.8
253.535	63.66
253.752	-16.21
253.968	80.04
254.185	-16.21
254.401	-16.21
254.618	80.04
254.835	-42.84
255.051	88.23
255.268	69.8
255.484	22.7
255.701	-59.22
255.917	49.32
256.134	-18.26
256.351	14.51
256.567	-5.97
256.784	73.9
257	37.03
257.217	59.56
257.433	-1.88
257.65	55.47
257.866	14.51
258.082	2.22
258.299	2.22
258.515	73.9
258.732	-34.64
258.948	-46.93
259.165	88.23
259.381	-3.93
259.597	-24.4
259.814	73.9
260.03	39.08
260.246	39.08
260.463	133.29
260.679	90.28
260.895	6.31
261.112	-16.21
261.328	-73.56
261.544	-1.88
261.761	96.43
261.977	-51.03
262.193	4.27
262.409	59.56
262.626	55.47
262.842	-51.03
263.058	53.42
263.274	43.18
263.49	28.84
263.707	30.89
263.923	71.85
264.139	-26.45
264.355	-10.07
264.571	59.56
264.787	18.6
265.004	24.75
265.22	47.27
265.436	6.31
265.652	49.32
265.868	22.7
266.084	18.6
266.3	100.52
266.516	22.7
266.732	43.18
266.948	-1.88
267.164	6.31
267.38	37.03
267.596	73.9
267.812	94.38
268.028	49.32
268.244	6.31
268.46	63.66
268.676	114.86
268.892	49.32
269.108	-10.07
269.324	22.7
269.54	28.84
269.756	67.75
269.972	-42.84
270.188	69.8
270.403	14.51
270.619	69.8
270.835	26.79
271.051	26.79
271.267	6.31
271.483	-14.17
271.698	18.6
271.914	84.14
272.13	65.71
272.346	47.27
272.562	112.81
272.777	55.47
272.993	80.04
273.209	80.04
273.425	6.31
273.64	43.18
273.856	110.76
274.072	22.7
274.287	8.36
274.503	104.62
274.719	51.37
274.934	71.85
275.15	-18.26
275.366	41.13
275.581	24.75
275.797	63.66
276.012	8.36
276.228	51.37
276.444	-22.36
276.659	88.23
276.875	55.47
277.09	-18.26
277.306	37.03
277.521	110.76
277.737	32.94
277.952	24.75
278.168	82.09
278.383	39.08
278.599	43.18
278.814	80.04
279.03	65.71
279.245	80.04
279.461	55.47
279.676	90.28
279.892	30.89
280.107	18.6
280.322	-38.74
280.538	71.85
280.753	2.22
280.969	59.56
281.184	57.51
281.399	65.71
281.615	55.47
281.83	39.08
282.045	-36.69
282.26	6.31
282.476	22.7
282.691	30.89
282.906	-1.88
283.122	39.08
283.337	2.22
283.552	47.27
283.767	-14.17
283.983	39.08
284.198	-1.88
284.413	32.94
284.628	39.08
284.843	108.71
285.058	67.75
285.274	14.51
285.489	8.36
285.704	110.76
285.919	8.36
286.134	41.13
286.349	-40.79
286.564	-8.02
286.779	71.85
286.995	47.27
287.21	-73.56
287.425	104.62
287.64	-1.88
287.855	63.66
288.07	-44.88
288.285	39.08
288.5	37.03
288.715	104.62
288.93	26.79
289.145	121
289.36	55.47
289.575	57.51
289.79	37.03
290.004	-10.07
290.219	90.28
290.434	16.55
290.649	-14.17
290.864	-12.12
291.079	-51.03
291.294	-5.97
291.509	-5.97
291.724	63.66
291.938	22.7
292.153	88.23
292.368	8.36
292.583	18.6
292.798	75.95
293.012	59.56
293.227	34.99
293.442	-12.12
293.657	88.23
293.871	88.23
294.086	67.75
294.301	30.89
294.516	92.33
294.73	16.55
294.945	18.6
295.16	67.75
295.374	80.04
295.589	75.95
295.804	-48.98
296.018	-3.93
296.233	24.75
296.447	-18.26
296.662	49.32
296.877	75.95
297.091	0.17
297.306	6.31
297.52	30.89
297.735	30.89
297.949	22.7
298.164	22.7
298.378	22.7
298.593	-12.12
298.807	41.13
299.022	51.37
299.236	6.31
299.451	-20.31
299.665	41.13
299.88	-16.21
300.094	37.03
300.309	121
300.523	39.08
300.737	49.32
300.952	-5.97
301.166	-42.84
301.381	6.31
301.595	63.66
301.809	-24.4
302.024	47.27
302.238	-22.36
302.452	80.04
302.667	14.51
302.881	30.89
303.095	59.56
303.309	98.47
303.524	-12.12
303.738	80.04
303.952	61.61
304.166	18.6
304.381	-28.5
304.595	98.47
304.809	8.36
305.023	112.81
305.237	-14.17
305.452	90.28
305.666	73.9
305.88	71.85
306.094	26.79
306.308	114.86
306.522	39.08
306.736	114.86
306.95	45.23
307.164	34.99
307.379	10.41
307.593	96.43
307.807	55.47
308.021	106.67
308.235	14.51
308.449	-8.02
308.663	75.95
308.877	75.95
309.091	84.14
309.305	24.75
309.519	14.51
309.733	129.19
309.947	71.85
310.161	118.95
310.374	59.56
310.588	127.14
310.802	63.66
311.016	6.31
311.23	71.85
311.444	-10.07
311.658	-14.17
311.872	73.9
312.085	80.04
312.299	96.43
312.513	112.81
312.727	71.85
312.941	63.66
313.154	55.47
313.368	55.47
313.582	12.46
313.796	57.51
314.009	75.95
314.223	41.13
314.437	71.85
314.651	63.66
314.864	22.7
315.078	6.31
315.292	6.31
315.505	55.47
315.719	-3.93
315.933	49.32
316.146	30.89
316.36	22.7
316.573	112.81
316.787	110.76
317.001	86.19
317.214	14.51
317.428	55.47
317.641	53.42
317.855	67.75
318.068	-8.02
318.282	63.66
318.495	102.57
318.709	75.95
318.922	98.47
319.136	153.77
319.349	63.66
319.563	47.27
319.776	34.99
319.99	24.75
320.203	55.47
320.417	77.99
320.63	30.89
320.843	141.48
321.057	47.27
321.27	-10.07
321.483	114.86
321.697	75.95
321.91	77.99
322.124	32.94
322.337	55.47
322.55	-1.88
322.763	71.85
322.977	55.47
323.19	32.94
323.403	59.56
323.617	47.27
323.83	104.62
324.043	-22.36
324.256	8.36
324.469	22.7
324.683	39.08
324.896	24.75
325.109	24.75
325.322	49.32
325.535	0.17
325.748	104.62
325.962	39.08
326.175	41.13
326.388	30.89
326.601	106.67
326.814	24.75
327.027	14.51
327.24	-16.21
327.453	28.84
327.666	123.05
327.879	121
328.092	6.31
328.305	67.75
328.518	63.66
328.731	80.04
328.944	34.99
329.157	108.71
329.37	39.08
329.583	135.34
329.796	96.43
330.009	26.79
330.222	71.85
330.435	73.9
330.648	26.79
330.861	-8.02
331.073	34.99
331.286	149.67
331.499	71.85
331.712	24.75
331.925	26.79
332.138	-18.26
332.35	94.38
332.563	-5.97
332.776	37.03
332.989	39.08
333.202	63.66
333.414	-28.5
333.627	39.08
333.84	88.23
334.053	80.04
334.265	37.03
334.478	55.47
334.691	30.89
334.903	18.6
335.116	80.04
335.329	32.94
335.541	123.05
335.754	112.81
335.966	63.66
336.179	10.41
336.392	51.37
336.604	55.47
336.817	-59.22
337.029	-22.36
337.242	-10.07
337.454	39.08
337.667	61.61
337.88	82.09
338.092	-32.6
338.305	106.67
338.517	24.75
338.729	67.75
338.942	20.65
339.154	-18.26
339.367	-30.55
339.579	30.89
339.792	59.56
340.004	80.04
340.217	88.23
340.429	57.51
340.641	20.65
340.854	12.46
341.066	14.51
341.278	65.71
341.491	145.58
341.703	39.08
341.915	26.79
342.128	47.27
342.34	69.8
342.552	65.71
342.764	37.03
342.977	47.27
343.189	34.99
343.401	71.85
343.613	24.75
343.826	69.8
344.038	49.32
344.25	30.89
344.462	-8.02
344.674	-5.97
344.886	67.75
345.099	82.09
345.311	-10.07
345.523	6.31
345.735	12.46
345.947	55.47
346.159	18.6
346.371	39.08
346.583	104.62
346.795	133.29
347.007	80.04
347.219	63.66
347.431	51.37
347.643	116.9
347.855	77.99
348.067	47.27
348.279	30.89
348.491	137.38
348.703	0.17
348.915	24.75
349.127	10.41
349.339	47.27
349.551	-18.26
349.763	104.62
349.975	65.71
350.187	196.78
350.399	82.09
350.61	88.23
350.822	26.79
351.034	-26.45
351.246	114.86
351.458	57.51
351.669	82.09
351.881	51.37
352.093	57.51
352.305	82.09
352.517	96.43
352.728	41.13
352.94	22.7
353.152	77.99
353.363	18.6
353.575	47.27
353.787	106.67
353.999	30.89
354.21	57.51
354.422	55.47
354.633	16.55
354.845	10.41
355.057	47.27
355.268	65.71
355.48	47.27
355.692	-30.55
355.903	22.7
356.115	47.27
356.326	-44.88
356.538	98.47
356.749	57.51
356.961	73.9
357.172	16.55
357.384	10.41
357.595	116.9
357.807	59.56
358.018	18.6
358.23	112.81
358.441	92.33
358.653	59.56
358.864	71.85
359.075	69.8
359.287	10.41
359.498	131.24
359.709	-26.45
359.921	34.99
360.132	75.95
360.344	71.85
360.555	57.51
360.766	67.75
360.977	-8.02
361.189	43.18
361.4	41.13
361.611	12.46
361.823	149.67
362.034	53.42
362.245	-40.79
362.456	47.27
362.667	-26.45
362.879	24.75
363.09	92.33
363.301	45.23
363.512	24.75
363.723	-34.64
363.935	28.84
364.146	131.24
364.357	39.08
364.568	110.76
364.779	-22.36
364.99	80.04
365.201	18.6
365.412	45.23
365.623	-1.88
365.834	30.89
366.045	51.37
366.256	49.32
366.467	104.62
366.678	88.23
366.889	-5.97
367.1	10.41
367.311	90.28
367.522	45.23
367.733	73.9
367.944	22.7
368.155	6.31
368.366	67.75
368.577	90.28
368.788	55.47
368.999	77.99
369.209	45.23
369.42	100.52
369.631	127.14
369.842	22.7
370.053	82.09
370.264	129.19
370.474	30.89
370.685	94.38
370.896	24.75
371.107	129.19
371.317	98.47
371.528	8.36
371.739	116.9
371.95	47.27
372.16	104.62
372.371	32.94
372.582	73.9
372.792	-3.93
373.003	49.32
373.214	106.67
373.424	61.61
373.635	129.19
373.846	182.44
374.056	106.67
374.267	139.43
374.477	102.57
374.688	39.08
374.898	26.79
375.109	41.13
375.319	-1.88
375.53	164.01
375.74	53.42
375.951	12.46
376.161	43.18
376.372	114.86
376.582	45.23
376.793	59.56
377.003	80.04
377.214	47.27
377.424	65.71
377.635	57.51
377.845	34.99
378.055	86.19
378.266	-10.07
378.476	10.41
378.686	53.42
378.897	116.9
379.107	106.67
379.317	90.28
379.528	67.75
379.738	90.28
379.948	47.27
380.158	80.04
380.369	94.38
380.579	86.19
380.789	77.99
380.999	57.51
381.21	98.47
381.42	90.28
381.63	108.71
381.84	186.54
382.05	92.33
382.261	39.08
382.471	129.19
382.681	55.47
382.891	75.95
383.101	63.66
383.311	20.65
383.521	49.32
383.731	24.75
383.941	141.48
384.151	88.23
384.361	67.75
384.571	41.13
384.781	63.66
384.991	96.43
385.201	102.57
385.411	22.7
385.621	104.62
385.831	80.04
386.041	-22.36
386.251	67.75
386.461	65.71
386.671	30.89
386.881	82.09
387.091	49.32
387.301	80.04
387.511	49.32
387.72	57.51
387.93	75.95
388.14	32.94
388.35	125.1
388.56	194.73
388.769	121
388.979	84.14
389.189	41.13
389.399	77.99
389.609	80.04
389.818	106.67
390.028	118.95
390.238	104.62
390.447	39.08
390.657	82.09
390.867	57.51
391.076	98.47
391.286	55.47
391.496	88.23
391.705	47.27
391.915	96.43
392.125	73.9
392.334	45.23
392.544	164.01
392.753	84.14
392.963	69.8
393.172	112.81
393.382	59.56
393.591	92.33
393.801	88.23
394.01	116.9
394.22	170.15
394.429	108.71
394.639	-18.26
394.848	96.43
395.058	100.52
395.267	100.52
395.477	63.66
395.686	116.9
395.895	170.15
396.105	145.58
396.314	141.48
396.524	168.1
396.733	77.99
396.942	90.28
397.152	188.58
397.361	172.2
397.57	102.57
397.78	96.43
397.989	151.72
398.198	215.21
398.407	129.19
398.617	55.47
398.826	131.24
399.035	141.48
399.244	137.38
399.453	82.09
399.663	129.19
399.872	133.29
400.081	84.14
400.29	90.28
400.499	161.96
400.708	143.53
400.917	125.1
401.127	100.52
401.336	110.76
401.545	161.96
401.754	118.95
401.963	204.97
402.172	135.34
402.381	106.67
402.59	170.15
402.799	170.15
403.008	161.96
403.217	112.81
403.426	153.77
403.635	170.15
403.844	180.39
404.053	227.5
404.262	141.48
404.471	237.74
404.68	104.62
404.888	207.02
405.097	143.53
405.306	250.02
405.515	186.54
405.724	272.55
405.933	174.25
406.142	258.21
406.35	200.87
406.559	264.36
406.768	221.35
406.977	307.37
407.185	280.74
407.394	362.66
407.603	217.26
407.812	311.46
408.02	262.31
408.229	313.51
408.438	303.27
408.646	315.56
408.855	303.27
409.064	317.61
409.272	430.24
409.481	391.33
409.69	338.09
409.898	321.7
410.107	383.14
410.315	473.25
410.524	420
410.733	409.76
410.941	477.35
411.15	518.31
411.358	438.44
411.567	559.27
411.775	538.79
411.984	555.17
412.192	628.9
412.401	563.36
412.609	546.98
412.818	647.33
413.026	743.58
413.234	686.24
413.443	653.47
413.651	755.87
413.86	719.01
414.068	778.4
414.276	811.17
414.485	733.34
414.693	821.41
414.901	915.61
415.11	942.24
415.318	886.94
415.526	952.48
415.734	1048.73
415.943	1046.68
416.151	1075.35
416.359	1171.61
416.567	1136.79
416.776	1134.75
416.984	1314.97
417.192	1304.73
417.4	1269.91
417.608	1317.01
417.817	1368.21
418.025	1517.72
418.233	1466.52
418.441	1505.43
418.649	1513.62
418.857	1697.94
419.065	1798.29
419.273	1644.69
419.481	1792.14
419.689	1865.87
419.897	2005.13
420.105	1972.36
420.313	2023.56
420.521	2175.11
420.729	2095.24
420.937	2265.22
421.145	2300.04
421.353	2429.06
421.561	2506.88
421.769	2709.63
421.977	2791.55
422.185	2701.44
422.393	2711.68
422.601	3104.89
422.809	2941.05
423.017	3010.68
423.224	3131.51
423.432	3283.06
423.64	3209.34
423.848	3537.01
424.056	3491.96
424.263	3735.67
424.471	3700.85
424.679	3807.34
424.887	4063.34
425.094	4202.6
425.302	4348.01
425.51	4388.97
425.718	4618.34
425.925	4587.62
426.133	4644.96
426.341	4823.14
426.548	5171.29
426.756	5257.31
426.964	5206.11
427.171	5666.9
427.379	5742.68
427.586	5693.52
427.794	5965.9
428.001	6168.65
428.209	6367.31
428.417	6420.55
428.624	6873.15
428.832	6676.55
429.039	6803.52
429.247	6860.87
429.454	7452.73
429.662	7841.84
429.869	7422.01
430.076	7823.41
430.284	7682.1
430.491	8052.78
430.699	8527.91
430.906	8478.76
431.114	8742.95
431.321	8898.59
431.528	9099.3
431.736	9910.29
431.943	10096.66
432.15	9734.17
432.358	9855
432.565	10692.62
432.772	10227.73
432.979	10989.57
433.187	10979.33
433.394	11167.74
433.601	11966.45
433.808	11991.03
434.016	11909.11
434.223	12679.15
434.43	13219.81
434.637	12945.38
434.844	13801.43
435.052	13946.84
435.259	13678.55
435.466	13846.49
435.673	13869.02
435.88	14788.55
436.087	15488.96
436.294	15480.77
436.501	15200.19
436.708	15325.12
436.915	16046.01
437.122	16834.47
437.329	16484.27
437.537	17063.85
437.743	17545.12
437.95	17188.77
438.157	18077.59
438.364	18716.56
438.571	18691.98
438.778	18755.47
438.985	20617.07
439.192	19906.43
439.399	20299.64
439.606	19947.39
439.813	20936.56
440.02	22171.48
440.227	21854.05
440.433	21520.23
440.64	22390.61
440.847	22210.39
441.054	22904.65
441.261	24229.69
441.467	23787.33
441.674	24342.33
441.881	25200.43
442.088	25544.48
442.294	25214.76
442.501	25653.03
442.708	26097.44
442.914	27041.55
443.121	28172.03
443.328	27440.9
443.534	29474.54
443.741	28495.61
443.948	28344.06
444.154	30516.95
444.361	30338.78
444.568	30207.71
444.774	30263
444.981	30783.19
445.187	31573.7
445.394	33040.05
445.6	32440
445.807	35806.86
446.013	33564.33
446.22	34580.12
446.426	36036.23
446.633	36038.28
446.839	37346.93
447.046	35872.39
447.252	37754.47
447.459	37840.49
447.665	37803.63
447.871	39298.64
448.078	41000.51
448.284	39349.84
448.491	40089.16
448.697	41979.43
448.903	42559.01
449.11	42472.99
449.316	41649.71
449.522	43120.15
449.728	43875.85
449.935	44275.21
450.141	44025.35
450.347	44705.28
450.553	43243.03
450.76	44107.27
450.966	45506.04
451.172	45291
451.378	45796.85
451.584	45149.69
451.791	46122.47
451.997	45884.91
452.203	47244.76
452.409	46853.6
452.615	46192.11
452.821	44926.46
453.027	44750.34
453.233	46757.35
453.44	44846.59
453.646	45393.4
453.852	45704.69
454.058	46550.5
454.264	44631.55
454.47	45868.53
454.676	45032.96
454.882	46325.22
455.088	42225.19
455.294	43030.04
455.5	43396.63
455.705	43961.87
455.911	42200.61
456.117	41287.22
456.323	40926.78
456.529	38850.14
456.735	40339.01
456.941	39396.95
457.147	38561.37
457.352	37629.55
457.558	37326.45
457.764	37338.74
457.97	36251.27
458.176	35704.46
458.381	35813
458.587	34299.55
458.793	34107.04
458.999	32265.92
459.204	34817.69
459.41	33517.23
459.616	31420.11
459.821	31248.08
460.027	31203.02
460.233	30463.71
460.438	29284.08
460.644	29513.45
460.85	28153.6
461.055	27651.84
461.261	27455.24
461.466	25808.67
461.672	24567.6
461.878	26730.26
462.083	24938.29
462.289	24196.92
462.494	23852.86
462.7	23158.6
462.905	22503.25
463.111	23125.83
463.316	23236.42
463.522	22441.81
463.727	22755.15
463.932	22751.06
464.138	22609.75
464.343	22458.2
464.549	21688.16
464.754	22589.27
464.959	22366.04
465.165	21966.68
465.37	21501.79
465.575	20924.27
465.781	21688.16
465.986	21790.56
466.191	20891.5
466.397	20424.56
466.602	19519.36
466.807	20191.09
467.012	20313.97
467.218	20211.57
467.423	20021.11
467.628	19988.35
467.833	20785.01
468.038	19971.96
468.244	19371.91
468.449	20047.74
468.654	19455.87
468.859	19111.82
469.064	19314.56
469.269	18771.85
469.474	18659.21
469.679	18866.06
469.885	18474.9
470.09	18616.21
470.295	18610.06
470.5	18161.56
470.705	18167.7
470.91	17858.46
471.115	17559.45
471.32	17934.23
471.525	17907.61
471.73	17336.23
471.935	17041.32
472.139	16422.83
472.344	16697.26
472.549	16775.08
472.754	16670.64
472.959	16179.12
473.164	15790.01
473.369	15595.45
473.574	16375.73
473.778	16316.34
473.983	15943.61
474.188	15974.33
474.393	15249.35
474.598	15183.81
474.802	15052.74
475.007	15071.17
475.212	15038.41
475.417	14278.61
475.621	14206.93
475.826	14600.14
476.031	13983.7
476.235	14071.76
476.44	14163.92
476.645	13690.84
476.849	13709.27
477.054	13715.42
477.259	13273.06
477.463	13729.75
477.668	13250.53
477.872	13320.16
478.077	12961.76
478.282	12728.3
478.486	12752.87
478.691	12697.58
478.895	12531.69
479.1	12586.99
479.304	12490.73
479.509	12206.06
479.713	12279.79
479.918	12238.83
480.122	11937.78
480.326	12081.14
480.531	12204.02
480.735	12197.87
480.94	11657.21
481.144	12292.08
481.348	11630.59
481.553	11790.33
481.757	11669.5
481.961	11812.85
482.166	11712.5
482.37	11876.34
482.574	11407.36
482.778	11528.19
482.983	12058.61
483.187	11804.66
483.391	11601.91
483.595	11499.52
483.8	11341.82
484.004	11476.99
484.208	11454.46
484.412	11401.21
484.616	11442.17
484.821	11421.69
485.025	11227.14
485.229	11583.48
485.433	11614.2
485.637	11526.14
485.841	11106.31
486.045	11528.19
486.249	11653.11
486.453	11382.78
486.657	11620.35
486.861	11593.72
487.065	11319.29
487.269	11438.08
487.473	11319.29
487.677	11405.31
487.881	11663.35
488.085	11290.62
488.289	11319.29
488.493	11730.94
488.697	11493.37
488.901	11278.33
489.105	11341.82
489.309	11491.32
489.512	11616.25
489.716	11694.07
489.92	11522.04
490.124	11655.16
490.328	11689.98
490.531	11630.59
490.735	11632.63
490.939	11696.12
491.143	11522.04
491.346	11741.18
491.55	11704.31
491.754	11814.9
491.958	11847.67
492.161	11827.19
492.365	12091.38
492.569	11782.13
492.772	11931.64
492.976	12064.75
493.18	12302.32
493.383	12269.55
493.587	12404.72
493.79	12470.25
493.994	12158.96
494.197	12460.01
494.401	12589.03
494.605	12617.71
494.808	12728.3
495.012	12742.63
495.215	12705.77
495.419	12842.98
495.622	12902.37
495.825	12830.69
496.029	13072.36
496.232	13375.45
496.436	13144.03
496.639	13549.53
496.843	13772.76
497.046	13629.4
497.249	14082
497.453	13879.25
497.656	14030.8
497.859	13924.31
498.063	14211.03
498.266	14438.35
498.469	14249.94
498.673	14426.06
498.876	14833.61
499.079	14886.86
499.282	14743.5
499.485	15284.16
499.689	15065.03
499.892	15626.17
500.095	15499.2
500.298	15865.78
500.501	15712.19
500.705	16322.48
500.908	16062.39
501.111	16672.68
501.314	16490.42
501.517	16738.22
501.72	17078.18
501.923	16953.26
502.126	17293.22
502.329	17762.2
502.532	17430.43
502.735	17422.24
502.938	17979.29
503.141	18087.83
503.344	18347.92
503.547	18309.01
503.75	18657.17
503.953	19261.32
504.156	19023.75
504.359	18970.51
504.562	19445.63
504.765	19689.34
504.968	19810.17
505.17	20252.53
505.373	19873.66
505.576	20356.98
505.779	20604.78
505.982	20711.28
506.185	21208.94
506.387	20991.85
506.59	21368.68
506.793	21759.84
506.996	21550.95
507.198	22421.33
507.401	22198.1
507.604	22558.55
507.807	23037.77
508.009	22908.75
508.212	22753.1
508.415	23537.48
508.617	23924.54
508.82	23912.25
509.022	23699.27
509.225	24342.33
509.428	24360.76
509.63	24710.96
509.833	24850.22
510.035	25458.47
510.238	25292.58
510.44	26040.09
510.643	26267.42
510.845	26136.35
511.048	26242.84
511.25	26844.95
511.453	26617.62
511.655	27498.25
511.858	27256.59
512.06	27657.99
512.262	28145.41
512.465	27537.16
512.667	28104.45
512.87	28716.79
513.072	28638.97
513.274	28935.92
513.477	29423.34
513.679	29660.9
513.881	30127.84
514.084	30189.28
514.286	30037.73
514.488	30512.86
514.69	31268.56
514.893	31332.04
515.095	31178.45
515.297	31758.02
515.499	31373
515.701	32161.47
515.904	32534.2
516.106	32624.31
516.308	33167.02
516.51	33414.83
516.712	33398.45
516.914	33914.53
517.116	34211.49
517.318	34315.94
517.52	34623.13
517.722	34889.37
517.925	35280.53
518.127	35530.38
518.329	35667.59
518.531	35143.31
518.733	36626.04
518.935	36681.34
519.136	36193.92
519.338	36834.94
519.54	36933.24
519.742	37652.08
519.944	37043.83
520.146	38299.23
520.348	38059.62
520.55	38647.39
520.752	38162.02
520.954	38975.06
521.155	38411.87
521.357	39409.23
521.559	39503.44
521.761	39857.74
521.963	39898.7
522.164	40310.34
522.366	40250.95
522.568	40408.64
522.77	40672.83
522.971	41018.94
523.173	40920.63
523.375	41397.81
523.576	41383.48
523.778	41508.4
523.98	41614.9
524.181	41995.82
524.383	42085.93
524.584	42069.54
524.786	42274.34
524.988	42159.66
525.189	42778.14
525.391	42272.29
525.592	43140.63
525.794	42874.4
525.995	42882.59
526.197	42888.73
526.398	42944.03
526.6	43240.98
526.801	43443.73
527.003	43331.09
527.204	43114.01
527.406	43331.09
527.607	43595.28
527.808	43949.58
528.01	42958.36
528.211	43355.67
528.412	44119.56
528.614	43843.09
528.815	43529.75
529.016	43798.03
529.218	43511.31
529.419	43798.03
529.62	43802.13
529.822	43785.74
530.023	43965.96
530.224	43683.34
530.425	43607.57
530.626	43310.61
530.828	43122.2
531.029	44201.48
531.23	43562.51
531.431	43902.48
531.632	43654.67
531.833	43982.35
532.035	43795.98
532.236	43601.43
532.437	44000.78
532.638	43171.35
532.839	43564.56
533.04	43998.73
533.241	43122.2
533.442	43632.14
533.643	43396.63
533.844	43283.99
534.045	43460.12
534.246	42995.23
534.447	43597.33
534.648	42974.75
534.849	43294.23
535.05	42640.93
535.251	43118.1
535.451	42720.8
535.652	42835.49
535.853	42948.12
536.054	42450.47
536.255	42858.01
536.456	42651.17
536.657	43312.66
536.857	42444.32
537.058	42466.85
537.259	42802.72
537.46	42622.5
537.66	42067.5
537.861	42040.87
538.062	42401.32
538.263	42401.32
538.463	42075.69
538.664	41995.82
538.865	42204.71
539.065	42370.6
539.266	41627.18
539.466	42151.46
539.667	41440.82
539.868	42118.7
540.068	42325.54
540.269	42214.95
540.469	42059.3
540.67	41954.86
540.87	42026.54
541.071	41969.19
541.271	41436.72
541.472	42012.2
541.672	41782.83
541.873	41465.39
542.073	40877.63
542.274	41881.13
542.474	41768.49
542.675	40986.17
542.875	41651.76
543.075	41725.49
543.276	41152.05
543.476	42020.39
543.676	41160.25
543.877	41170.49
544.077	41721.39
544.277	41662
544.478	41018.94
544.678	41512.5
544.878	41479.73
545.078	41336.37
545.279	40691.26
545.479	41246.26
545.679	41561.65
545.879	41291.32
546.079	40885.82
546.28	40994.36
546.48	40502.85
546.68	41616.94
546.88	41225.78
547.08	41291.32
547.28	40922.68
547.48	40609.34
547.68	41217.59
547.88	40767.04
548.081	41248.31
548.281	41664.05
548.481	41303.6
548.681	41379.38
548.881	41215.54
549.081	41434.67
549.28	41238.07
549.48	41381.43
549.68	41004.6
549.88	41010.74
550.08	40750.65
550.28	41164.34
550.48	41365.04
550.68	41246.26
550.88	41266.74
551.08	41467.44
551.279	41217.59
551.479	41166.39
551.679	41285.17
551.879	41551.41
552.079	41618.99
552.278	41145.91
552.478	41725.49
552.678	41338.42
552.878	41721.39
553.077	41225.78
553.277	40904.25
553.477	41659.95
553.676	41563.7
553.876	41381.43
554.076	41209.4
554.275	41244.21
554.475	40951.35
554.674	41440.82
554.874	41778.73
555.074	41291.32
555.273	41872.94
555.473	41862.7
555.672	41520.69
555.872	41481.78
556.071	41598.51
556.271	41999.91
556.47	41535.02
556.67	41375.28
556.869	41772.59
557.068	41633.33
557.268	41397.81
557.467	41618.99
557.667	41260.6
557.866	41750.06
558.065	41664.05
558.265	41436.72
558.464	41723.44
558.663	41887.28
558.863	40984.12
559.062	42067.5
559.261	41141.81
559.461	41885.23
559.66	41000.51
559.859	41633.33
560.058	41238.07
560.258	41776.69
560.457	41369.14
560.656	41633.33
560.855	41469.49
561.054	41692.72
561.253	41489.97
561.453	41719.34
561.652	41836.08
561.851	41690.67
562.05	41678.38
562.249	41260.6
562.448	41383.48
562.647	41494.07
562.846	41489.97
563.045	41381.43
563.244	41063.99
563.443	42032.68
563.642	41082.42
563.841	41469.49
564.04	41303.6
564.239	41793.07
564.438	41184.82
564.637	40996.41
564.836	40967.74
565.035	41082.42
565.234	41045.56
565.432	41133.62
565.631	40939.07
565.83	41086.52
566.029	40650.3
566.228	41053.75
566.427	40742.46
566.625	40504.9
566.824	39890.51
567.023	41094.71
567.222	40033.86
567.42	40746.56
567.619	40693.31
567.818	40420.93
568.016	40431.17
568.215	40443.46
568.414	39714.38
568.612	40760.89
568.811	40111.69
569.01	40126.02
569.208	40013.38
569.407	39982.66
569.605	39718.48
569.804	40277.57
570.002	39822.92
570.201	39767.63
570.4	39593.55
570.598	39274.07
570.797	38876.76
570.995	39511.63
571.193	38948.44
571.392	39644.75
571.59	39024.22
571.789	39063.13
571.987	38864.47
572.186	39155.29
572.384	38815.32
572.582	38936.15
572.781	38882.91
572.979	37946.98
573.177	38487.65
573.376	38461.02
573.574	38272.61
573.772	38121.06
573.971	37953.13
574.169	38080.1
574.367	37824.11
574.565	38067.81
574.763	37430.9
574.962	37463.66
575.16	36855.42
575.358	37312.11
575.556	37058.17
575.754	37564.01
575.952	37029.49
576.151	37269.11
576.349	36449.92
576.547	36871.8
576.745	36793.98
576.943	36996.73
577.141	36578.94
577.339	36828.79
577.537	36540.03
577.735	36740.73
577.933	36019.85
578.131	35903.11
578.329	36032.13
578.527	35702.41
578.725	35968.65
578.923	35935.88
579.121	35530.38
579.319	35600.01
579.516	35567.24
579.714	35612.3
579.912	35362.45
580.11	35313.3
580.308	35038.87
580.506	35034.77
580.704	34348.7
580.901	34739.86
581.099	34731.67
581.297	34383.52
581.495	34371.23
581.692	34582.17
581.89	34107.04
582.088	34487.96
582.285	34117.28
582.483	34209.44
582.681	34076.32
582.878	33994.4
583.076	33738.41
583.274	33949.35
583.471	33638.06
583.669	33775.27
583.866	33896.1
584.064	33521.32
584.262	33279.66
584.459	33566.38
584.657	33468.08
584.854	33287.85
585.052	33048.24
585.249	32888.5
585.447	33351.34
585.644	32566.97
585.841	32816.82
586.039	32931.51
586.236	32841.4
586.434	32833.21
586.631	32495.29
586.828	32485.05
587.026	32114.37
587.223	32501.43
587.42	31954.63
587.618	32321.21
587.815	31747.78
588.012	32005.83
588.21	31952.58
588.407	32106.18
588.604	31825.61
588.801	31680.2
588.999	31798.98
589.196	31293.13
589.393	31798.98
589.59	31430.35
589.787	31325.9
589.984	31311.56
590.182	31059.66
590.379	31463.11
590.576	31033.04
590.773	31151.82
590.97	30840.53
591.167	30715.61
591.364	30592.73
591.561	31194.83
591.758	30588.63
591.955	30510.81
592.152	30836.44
592.349	30414.55
592.546	30465.75
592.743	30346.97
592.94	30193.37
593.137	30285.53
593.334	30475.99
593.531	29990.63
593.727	30383.84
593.924	30353.12
594.121	29875.94
594.318	29923.04
594.515	29834.98
594.712	30422.75
594.908	30054.11
595.105	30107.36
595.302	29918.95
595.499	29906.66
595.696	29742.82
595.892	29558.5
596.089	29908.71
596.286	29724.39
596.482	29495.02
596.679	29644.52
596.876	29824.74
597.072	29576.94
597.269	29615.85
597.466	29331.18
597.662	29568.74
597.859	29419.24
598.055	29550.31
598.252	29337.32
598.448	29488.87
598.645	29703.91
598.841	29003.5
599.038	29298.41
599.234	29556.46
599.431	28968.69
599.627	29200.11
599.824	29593.32
600.02	29210.35
600.217	29443.82
600.413	29333.23
600.609	28903.15
600.806	28813.04
601.002	29169.39
601.198	29310.7
601.395	29036.27
601.591	29064.94
601.787	29214.44
601.984	29112.05
602.18	29236.97
602.376	29198.06
602.572	28677.88
602.769	29114.09
602.965	28940.02
603.161	29241.07
603.357	28638.97
603.553	29054.7
603.75	29202.16
603.946	28942.07
604.142	29142.77
604.338	29048.56
604.534	29128.43
604.73	28655.35
604.926	28770.04
605.122	28978.93
605.318	29007.6
605.514	28915.44
605.71	28880.63
605.906	29034.22
606.102	28509.94
606.298	29073.14
606.494	28929.78
606.69	28960.5
606.886	29277.93
607.082	28835.57
607.278	29128.43
607.474	28690.16
607.67	28999.41
607.866	28626.68
608.062	29269.74
608.257	29054.7
608.453	28839.67
608.649	29335.28
608.845	29019.89
609.041	28860.15
609.236	29085.42
609.432	29103.85
609.628	29028.08
609.824	29048.56
610.019	28968.69
610.215	28917.49
610.411	29212.4
610.606	29134.57
610.802	29361.9
610.998	29208.3
611.193	29214.44
611.389	28712.69
611.584	28901.11
611.78	29185.77
611.976	29257.45
612.171	29325.04
612.367	28888.82
612.562	29208.3
612.758	28739.32
612.953	28671.73
613.149	29411.05
613.344	28915.44
613.539	29437.67
613.735	29312.75
613.93	29294.32
614.126	29193.97
614.321	29171.44
614.517	29431.53
614.712	29087.47
614.907	29132.53
615.103	29380.33
615.298	29228.78
615.493	28989.17
615.688	28923.63
615.884	29693.67
616.079	28909.3
616.274	29101.81
616.47	28815.09
616.665	28983.02
616.86	29124.33
617.055	28933.87
617.25	28935.92
617.445	29318.89
617.641	28477.18
617.836	28897.01
618.031	28702.45
618.226	28952.3
618.421	28159.74
618.616	28757.75
618.811	28428.02
619.006	28790.52
619.201	28051.2
619.396	28446.46
619.591	27944.7
619.786	28399.35
619.981	27959.04
620.176	28522.23
620.371	27696.9
620.566	28133.12
620.761	28016.38
620.956	27920.13
621.151	27674.37
621.346	27887.36
621.541	27111.18
621.735	27397.9
621.93	27158.28
622.125	27180.81
622.32	26717.97
622.515	27096.85
622.709	26486.55
622.904	26593.04
623.099	26382.1
623.294	26660.63
623.488	26095.39
623.683	26627.86
623.878	26042.14
624.072	26269.47
624.267	25829.15
624.462	25798.43
624.656	25329.45
624.851	25939.74
625.046	25282.34
625.24	25188.14
625.435	25229.1
625.629	25069.36
625.824	25145.13
626.018	25034.54
626.213	24260.41
626.407	24504.12
626.602	24334.14
626.796	24366.9
626.991	24305.46
627.185	24069.95
627.38	24092.48
627.574	23942.97
627.768	23934.78
627.963	23373.64
628.157	23701.31
628.352	23590.72
628.546	23134.03
628.74	23500.61
628.935	22908.75
629.129	23099.21
629.323	22581.07
629.517	22617.94
629.712	22634.32
629.906	22771.54
630.1	22392.66
630.294	22009.69
630.489	22042.46
630.683	22257.5
630.877	21847.9
631.071	21929.82
631.265	21952.35
631.459	21755.74
631.653	21858.14
631.848	21487.46
632.042	21399.4
632.236	21403.49
632.43	20983.66
632.624	21204.84
632.818	21010.28
633.012	20629.36
633.206	20694.89
633.4	20920.17
633.594	20463.47
633.788	20467.57
633.982	20477.81
634.176	20397.94
634.369	20330.36
634.563	20094.84
634.757	19990.39
634.951	20191.09
635.145	19869.56
635.339	19746.69
635.533	19406.72
635.726	19554.18
635.92	19152.77
636.114	19361.67
636.308	19171.21
636.501	19101.58
636.695	18888.59
636.889	18790.28
637.083	18722.7
637.276	18708.37
637.47	18788.24
637.664	18567.06
637.857	18536.34
638.051	18761.61
638.244	18478.99
638.438	18106.26
638.632	17952.66
638.825	17794.97
639.019	17866.65
639.212	17749.92
639.406	17653.66
639.599	17442.72
639.793	17332.13
639.986	17213.35
640.18	17332.13
640.373	16998.31
640.567	17115.05
640.76	16943.02
640.954	16807.85
641.147	16633.77
641.34	16641.96
641.534	16527.28
641.727	16412.59
641.92	16220.08
642.114	16142.26
642.307	16252.85
642.5	16365.49
642.694	15800.25
642.887	15933.37
643.08	15783.87
643.273	15996.85
643.467	15636.41
643.66	15458.24
643.853	15683.52
644.046	15435.71
644.239	15642.56
644.432	14985.16
644.626	14923.72
644.819	15069.12
645.012	15007.69
645.205	14954.44
645.398	14757.83
645.591	14505.93
645.784	14559.18
645.977	14450.64
646.17	14530.51
646.363	14352.34
646.556	14172.11
646.749	14251.99
646.942	14180.31
647.135	13942.74
647.328	13891.54
647.521	13760.47
647.714	13680.6
647.907	13547.48
648.099	13658.07
648.292	13641.69
648.485	13334.5
648.678	13277.15
648.871	13205.47
649.064	13182.95
649.256	13234.14
649.449	13277.15
649.642	13217.76
649.835	13135.84
650.027	12945.38
650.22	12974.05
650.413	12646.38
650.605	12572.65
650.798	12550.12
650.991	12496.88
651.183	12474.35
651.376	12580.84
651.568	12513.26
651.761	12138.48
651.954	12263.41
652.146	12279.79
652.339	12167.15
652.531	12009.46
652.724	11806.71
652.916	11614.2
653.109	11833.33
653.301	11728.89
653.494	11730.94
653.686	11651.06
653.879	11659.26
654.071	11675.64
654.263	11499.52
654.456	11214.85
654.648	11403.26
654.84	11253.76
655.033	11239.42
655.225	11261.95
655.417	11012.1
655.61	11083.78
655.802	10846.21
655.994	11016.19
656.186	11020.29
656.379	10995.71
656.571	10799.11
656.763	10577.93
656.955	10618.89
657.148	10655.75
657.34	10729.48
657.532	10536.97
657.724	10383.37
657.916	10317.84
658.108	10272.78
658.3	10266.64
658.492	10248.21
658.684	10110.99
658.876	10070.03
659.068	9959.44
659.26	10024.98
659.452	10039.31
659.644	10043.41
659.836	9811.99
660.028	9783.32
660.22	9555.99
660.412	9506.84
660.604	9529.37
660.796	9463.83
660.988	9476.12
661.18	9371.68
661.372	9398.3
661.563	9295.9
661.755	9336.86
661.947	9277.47
662.139	9068.58
662.331	9115.68
662.522	8900.64
662.714	8910.88
662.906	8960.03
663.097	8790.05
663.289	8781.86
663.481	8775.72
663.673	8685.61
663.864	8527.91
664.056	8618.02
664.247	8706.09
664.439	8421.42
664.631	8486.95
664.822	8577.06
665.014	8534.06
665.205	8357.93
665.397	8237.1
665.588	8364.08
665.78	8190
665.971	8048.69
666.163	8173.61
666.354	8071.22
666.546	8065.07
666.737	7946.29
666.929	7847.99
667.12	7880.75
667.311	7917.62
667.503	7813.17
667.694	7860.27
667.885	7841.84
668.077	7598.13
668.268	7714.87
668.459	7569.46
668.651	7469.11
668.842	7469.11
669.033	7460.92
669.224	7508.02
669.416	7493.69
669.607	7405.63
669.798	7272.51
669.989	7653.43
670.18	7397.43
670.371	7419.96
670.563	7073.85
670.754	7235.64
670.945	7190.59
671.136	7184.45
671.327	7260.22
671.518	7135.29
671.709	7104.57
671.9	7075.9
672.091	7065.66
672.282	7045.18
672.473	6985.79
672.664	6969.41
672.855	6907.97
673.046	7008.32
673.237	6899.78
673.428	6912.07
673.619	6838.34
673.809	6867.01
674	6907.97
674.191	6832.19
674.382	6807.62
674.573	6686.79
674.764	6574.15
674.954	6830.15
675.145	6692.93
675.336	6584.39
675.527	6541.38
675.717	6592.58
675.908	6428.74
676.099	6635.59
676.289	6635.59
676.48	6547.53
676.671	6422.6
676.861	6551.62
677.052	6246.48
677.243	6328.39
677.433	6297.67
677.624	6381.64
677.814	6180.94
678.005	6277.19
678.195	6324.3
678.386	6287.43
678.576	6232.14
678.767	6160.46
678.957	6391.88
679.148	6166.6
679.338	6205.52
679.529	6123.6
679.719	6223.95
679.909	6058.06
680.1	6160.46
680.29	6078.54
680.481	6228.04
680.671	6047.82
680.861	6105.17
681.052	6101.07
681.242	5881.94
681.432	6271.05
681.622	6119.5
681.813	6086.73
682.003	6027.34
682.193	5879.89
682.383	5955.66
682.573	5972.05
682.764	5965.9
682.954	5994.58
683.144	6094.93
683.334	5853.27
683.524	5953.62
683.714	5974.1
683.904	5931.09
684.094	5931.09
684.284	5933.14
684.474	5892.18
684.664	5994.58
684.854	5892.18
685.044	5945.42
685.234	5976.14
685.424	5752.91
685.614	5759.06
685.804	5757.01
685.994	5890.13
686.184	5671
686.374	5851.22
686.564	5906.51
686.753	5718.1
686.943	5660.76
687.133	5699.67
687.323	5685.33
687.513	5638.23
687.702	5544.02
687.892	5589.08
688.082	5675.09
688.272	5695.57
688.461	5601.37
688.651	5660.76
688.841	5425.24
689.03	5544.02
689.22	5548.12
689.41	5412.95
689.599	5439.58
689.789	5517.4
689.979	5498.97
690.168	5458.01
690.358	5337.18
690.547	5335.13
690.737	5412.95
690.926	5429.34
691.116	5183.58
691.305	5376.09
691.495	5208.16
691.684	5240.92
691.874	5232.73
692.063	5267.55
692.252	5181.53
692.442	5193.82
692.631	5142.62
692.82	5175.39
693.01	5019.74
693.199	5040.22
693.388	5046.37
693.578	5032.03
693.767	5101.66
693.956	4989.02
694.146	4999.26
694.335	5068.89
694.524	4905.06
694.713	4913.25
694.902	4853.86
695.092	4913.25
695.281	4675.68
695.47	4847.71
695.659	4864.1
695.848	4702.31
696.037	4821.09
696.226	4917.34
696.415	4833.38
696.604	4714.59
696.793	4923.49
696.982	4753.51
697.171	4726.88
697.36	4647.01
697.549	4780.13
697.738	4630.63
697.927	4644.96
698.116	4579.43
698.305	4620.39
698.494	4685.92
698.683	4581.48
698.872	4751.46
699.061	4606.05
699.25	4460.65
699.438	4669.54
699.627	4620.39
699.816	4595.81
700.005	4503.65
700.193	4567.14
700.382	4634.72
700.571	4509.8
700.76	4438.12
700.948	4522.09
701.137	4454.5
701.326	4397.16
701.514	4442.21
701.703	4372.58
701.892	4315.24
702.08	4483.17
702.269	4393.06
702.457	4348.01
702.646	4194.41
702.834	4255.85
703.023	4372.58
703.212	4309.1
703.4	4245.61
703.589	4180.07
703.777	4241.51
703.965	4206.7
704.154	4190.31
704.342	4165.74
704.531	4233.32
704.719	4077.68
704.907	4388.97
705.096	4159.6
705.284	4092.01
705.472	4118.64
705.661	4106.35
705.849	4218.99
706.037	4022.38
706.226	4171.88
706.414	4032.62
706.602	4114.54
706.79	4096.11
706.979	4012.14
707.167	3997.81
707.355	3836.02
707.543	3852.4
707.731	3989.61
707.919	3866.74
708.107	4010.09
708.296	3938.41
708.484	3995.76
708.672	3872.88
708.86	3885.17
709.048	3868.78
709.236	3774.58
709.424	3946.61
709.612	3860.59
709.8	3807.34
709.988	3692.66
710.176	3868.78
710.364	3815.54
710.551	3729.52
710.739	3727.47
710.927	3750
711.115	3653.75
711.303	3692.66
711.491	3639.41
711.679	3688.56
711.866	3573.88
712.054	3586.16
712.242	3768.43
712.43	3575.92
712.617	3678.32
712.805	3596.4
712.993	3526.77
713.181	3573.88
713.368	3596.4
713.556	3512.44
713.744	3514.49
713.931	3545.2
714.119	3551.35
714.306	3557.49
714.494	3465.33
714.682	3504.25
714.869	3475.57
715.057	3356.79
715.244	3528.82
715.432	3463.29
715.619	3410.04
715.807	3414.13
715.994	3350.65
716.182	3332.22
716.369	3356.79
716.556	3377.27
716.744	3307.64
716.931	3336.31
717.119	3414.13
717.306	3356.79
717.493	3238.01
717.681	3326.07
717.868	3227.77
718.055	3266.68
718.242	3309.69
718.43	3264.63
718.617	3285.11
718.804	3176.57
718.991	3147.9
719.179	3178.62
719.366	3207.29
719.553	3180.67
719.74	3229.82
719.927	3188.86
720.114	3031.16
720.301	3055.74
720.488	2996.35
720.676	3164.28
720.863	3078.27
721.05	2988.16
721.237	3088.51
721.424	3004.54
721.611	3004.54
721.798	3022.97
721.985	2963.58
722.172	3033.21
722.358	2965.63
722.545	3084.41
722.732	3051.64
722.919	2963.58
723.106	2973.82
723.293	2889.85
723.48	2842.75
723.667	2898.05
723.853	2939.01
724.04	2971.77
724.227	2869.37
724.414	2902.14
724.6	2867.33
724.787	2979.97
724.974	2973.82
725.161	2789.5
725.347	2736.26
725.534	2865.28
725.72	2934.91
725.907	2889.85
726.094	2760.83
726.28	2848.9
726.467	2861.18
726.653	2676.87
726.84	2807.94
727.027	2826.37
727.213	2764.93
727.4	2742.4
727.586	2717.83
727.773	2687.11
727.959	2752.64
728.145	2801.79
728.332	2742.4
728.518	2701.44
728.705	2728.07
728.891	2637.95
729.077	2648.19
729.264	2685.06
729.45	2654.34
729.636	2728.07
729.823	2771.07
730.009	2576.52
730.195	2635.91
730.382	2660.48
730.568	2556.04
730.754	2680.96
730.94	2621.57
731.126	2687.11
731.313	2572.42
731.499	2603.14
731.685	2635.91
731.871	2457.73
732.057	2660.48
732.243	2697.35
732.429	2496.64
732.615	2545.8
732.801	2566.28
732.987	2463.88
733.173	2488.45
733.359	2455.69
733.545	2662.53
733.731	2408.58
733.917	2580.61
734.103	2582.66
734.289	2513.03
734.475	2467.97
734.661	2558.08
734.847	2455.69
735.033	2463.88
735.219	2515.08
735.404	2441.35
735.59	2449.54
735.776	2422.92
735.962	2545.8
736.148	2400.39
736.333	2343.05
736.519	2375.81
736.705	2480.26
736.89	2330.76
737.076	2332.81
737.262	2429.06
737.447	2316.42
737.633	2355.33
737.819	2377.86
738.004	2424.97
738.19	2414.73
738.375	2373.77
738.561	2283.66
738.747	2318.47
738.932	2242.7
739.118	2252.94
739.303	2267.27
739.489	2394.25
739.674	2324.62
739.859	2312.33
740.045	2334.86
740.23	2336.9
740.416	2179.21
740.601	2326.66
740.786	2234.5
740.972	2171.02
741.157	2248.84
741.342	2189.45
741.528	2144.39
741.713	2197.64
741.898	2062.48
742.084	2146.44
742.269	2152.59
742.454	2136.2
742.639	2203.79
742.824	2107.53
743.01	2216.07
743.195	2177.16
743.38	2125.96
743.565	1984.65
743.75	2091.15
743.935	1974.41
744.12	2082.95
744.305	2007.18
744.49	2046.09
744.675	1923.21
744.86	2033.8
745.045	2140.3
745.23	1958.03
745.415	1972.36
745.6	1923.21
745.785	1874.06
745.97	1949.84
746.155	1939.6
746.34	1964.17
746.525	1996.94
746.71	1925.26
746.895	1878.16
747.079	1779.86
747.264	1882.25
747.449	1894.54
747.634	1837.2
747.819	1867.92
748.003	1720.46
748.188	1890.45
748.373	1826.96
748.557	1808.53
748.742	1773.71
748.927	1648.79
749.111	1685.65
749.296	1644.69
749.481	1706.13
749.665	1644.69
749.85	1833.1
750.034	1763.47
750.219	1720.46
750.404	1685.65
750.588	1628.31
750.773	1562.77
750.957	1663.12
751.141	1589.39
751.326	1687.7
751.51	1509.52
751.695	1577.11
751.879	1523.86
752.064	1609.87
752.248	1554.58
752.432	1566.87
752.617	1566.87
752.801	1554.58
752.985	1521.81
753.17	1505.43
753.354	1427.6
753.538	1452.18
753.722	1482.9
753.907	1558.67
754.091	1433.75
754.275	1487
754.459	1419.41
754.643	1478.8
754.828	1417.37
755.012	1407.13
755.196	1339.54
755.38	1409.17
755.564	1325.21
755.748	1276.06
755.932	1450.13
756.116	1341.59
756.3	1427.6
756.484	1321.11
756.668	1317.01
756.852	1286.3
757.036	1292.44
757.22	1243.29
757.404	1321.11
757.588	1278.1
757.772	1214.62
757.956	1259.67
758.14	1278.1
758.323	1255.58
758.507	1247.38
758.691	1151.13
758.875	1210.52
759.059	1245.34
759.242	1177.75
759.426	1185.94
759.61	1220.76
759.794	1243.29
759.977	1212.57
760.161	1235.1
760.345	1116.31
760.528	1155.23
760.712	1255.58
760.895	1081.5
761.079	1114.27
761.263	1138.84
761.446	1147.03
761.63	1161.37
761.813	1157.27
761.997	1077.4
762.18	1048.73
762.364	1079.45
762.547	948.38
762.731	1050.78
762.914	1052.83
763.098	1034.39
763.281	1048.73
763.464	989.34
763.648	1075.35
763.831	997.53
764.015	1026.2
764.198	1058.97
764.381	1034.39
764.564	1007.77
764.748	999.58
764.931	987.29
765.114	954.52
765.297	1073.31
765.481	1001.63
765.664	1042.59
765.847	972.96
766.03	1011.87
766.213	907.42
766.397	972.96
766.58	850.08
766.763	1089.69
766.946	882.85
767.129	907.42
767.312	934.04
767.495	1052.83
767.678	934.04
767.861	1036.44
768.044	882.85
768.227	1022.11
768.41	749.73
768.593	876.7
768.776	940.19
768.959	886.94
769.142	929.95
769.324	932
769.507	923.8
769.69	925.85
769.873	927.9
770.056	938.14
770.239	919.71
770.421	899.23
770.604	850.08
770.787	886.94
770.97	888.99
771.152	784.54
771.335	919.71
771.518	848.03
771.7	860.32
771.883	837.79
772.066	796.83
772.248	860.32
772.431	848.03
772.613	903.32
772.796	770.21
772.978	841.89
773.161	770.21
773.343	848.03
773.526	809.12
773.708	829.6
773.891	778.4
774.073	891.04
774.256	768.16
774.438	856.22
774.621	796.83
774.803	780.45
774.985	719.01
775.168	805.02
775.35	850.08
775.532	811.17
775.715	678.05
775.897	737.44
776.079	753.82
776.261	747.68
776.444	719.01
776.626	688.29
776.808	721.06
776.99	727.2
777.173	706.72
777.355	653.47
777.537	653.47
777.719	702.62
777.901	657.57
778.083	622.75
778.265	616.61
778.447	735.39
778.629	735.39
778.811	612.51
778.993	776.35
779.175	743.58
779.357	612.51
779.539	589.99
779.721	628.9
779.903	653.47
780.085	665.76
780.267	620.71
780.449	608.42
780.631	551.07
780.812	641.18
780.994	598.18
781.176	630.95
781.358	612.51
781.54	477.35
781.721	538.79
781.903	645.28
782.085	581.79
782.267	589.99
782.448	544.93
782.63	518.31
782.812	540.83
782.993	551.07
783.175	565.41
783.357	510.11
783.538	573.6
783.72	551.07
783.901	538.79
784.083	561.31
784.264	518.31
784.446	424.1
784.627	532.64
784.809	411.81
784.99	493.73
785.172	463.01
785.353	514.21
785.535	532.64
785.716	442.53
785.897	508.07
786.079	395.43
786.26	530.59
786.441	522.4
786.623	512.16
786.804	444.58
786.985	458.92
787.167	420
787.348	450.72
787.529	526.5
787.71	452.77
787.891	411.81
788.073	413.86
788.254	442.53
788.435	465.06
788.616	368.81
788.797	395.43
788.978	424.1
789.159	409.76
789.34	420
789.522	377
789.703	428.2
789.884	393.38
790.065	377
790.246	399.52
790.427	368.81
790.607	407.72
790.788	329.89
790.969	440.48
791.15	366.76
791.331	338.09
791.512	432.29
791.693	286.89
791.874	311.46
792.054	420
792.235	301.22
792.416	360.61
792.597	465.06
792.778	352.42
792.958	329.89
793.139	284.84
793.32	270.5
793.5	295.08
793.681	436.39
793.862	340.13
794.042	309.41
794.223	266.41
794.404	309.41
794.584	344.23
794.765	268.45
794.945	409.76
795.126	333.99
795.306	377
795.487	247.97
795.667	260.26
795.848	383.14
796.028	229.54
796.209	333.99
796.389	311.46
796.57	278.69
796.75	233.64
796.93	270.5
797.111	219.3
797.291	323.75
797.471	284.84
797.652	366.76
797.832	186.54
798.012	235.69
798.192	239.78
798.373	149.67
798.553	301.22
798.733	317.61
798.913	207.02
799.093	237.74
799.274	346.28
799.454	278.69
799.634	293.03
799.814	319.65
799.994	325.8
800.174	252.07
800.354	227.5
800.534	245.93
800.714	247.97
800.894	272.55
801.074	149.67
801.254	254.12
801.434	247.97
801.614	286.89
801.794	213.16
801.974	860.32
802.154	231.59
802.334	250.02
802.514	223.4
802.693	256.17
802.873	172.2
803.053	211.11
803.233	243.88
803.413	301.22
803.592	247.97
803.772	247.97
803.952	215.21
804.131	221.35
804.311	264.36
804.491	243.88
804.67	229.54
804.85	227.5
805.03	182.44
805.209	227.5
805.389	213.16
805.568	200.87
805.748	221.35
805.928	168.1
806.107	223.4
806.287	211.11
806.466	174.25
806.646	166.06
806.825	202.92
807.004	241.83
807.184	252.07
807.363	145.58
807.543	233.64
807.722	213.16
807.901	211.11
808.081	211.11
808.26	127.14
808.439	141.48
808.619	139.43
808.798	153.77
808.977	219.3
809.156	327.85
809.336	178.34
809.515	245.93
809.694	145.58
809.873	211.11
810.052	196.78
810.231	223.4
810.411	186.54
810.59	286.89
810.769	211.11
810.948	207.02
811.127	153.77
811.306	59.56
811.485	116.9
811.664	194.73
811.843	145.58
812.022	100.52
812.201	151.72
812.38	213.16
812.559	133.29
812.737	202.92
812.916	116.9
813.095	166.06
813.274	202.92
813.453	112.81
813.632	170.15
813.811	192.68
813.989	112.81
814.168	147.62
814.347	104.62
814.526	229.54
814.704	143.53
814.883	161.96
815.062	82.09
815.24	88.23
815.419	123.05
815.598	155.82
815.776	155.82
815.955	211.11
816.133	90.28
816.312	139.43
816.49	141.48
816.669	98.47
816.847	118.95
817.026	153.77
817.204	90.28
817.383	131.24
817.561	41.13
817.74	241.83
817.918	86.19
818.097	215.21
818.275	104.62
818.453	121
818.632	161.96
818.81	168.1
818.988	133.29
819.167	108.71
819.345	92.33
819.523	166.06
819.701	231.59
819.879	100.52
820.058	106.67
820.236	137.38
820.414	149.67
820.592	151.72
820.77	94.38
820.948	129.19
821.127	112.81
821.305	96.43
821.483	116.9
821.661	104.62
821.839	116.9
822.017	121
822.195	118.95
822.373	88.23
822.551	133.29
822.729	104.62
822.907	164.01
823.085	149.67
823.262	114.86
823.44	106.67
823.618	112.81
823.796	131.24
823.974	121
824.152	121
824.329	139.43
824.507	75.95
824.685	139.43
824.863	96.43
825.04	137.38
825.218	145.58
825.396	92.33
825.574	161.96
825.751	88.23
825.929	104.62
826.107	139.43
826.284	88.23
826.462	92.33
826.639	90.28
826.817	57.51
826.994	110.76
827.172	51.37
827.349	180.39
827.527	127.14
827.704	75.95
827.882	123.05
828.059	80.04
828.237	0.17
828.414	39.08
828.591	65.71
828.769	71.85
828.946	88.23
829.124	67.75
829.301	143.53
829.478	-5.97
829.655	34.99
829.833	94.38
830.01	41.13
830.187	121
830.364	88.23
830.542	57.51
830.719	82.09
830.896	88.23
831.073	73.9
831.25	112.81
831.427	32.94
831.604	129.19
831.782	121
831.959	106.67
832.136	108.71
832.313	137.38
832.49	84.14
832.667	71.85
832.844	82.09
833.021	69.8
833.198	51.37
833.374	145.58
833.551	22.7
833.728	65.71
833.905	133.29
834.082	18.6
834.259	96.43
834.436	112.81
834.612	84.14
834.789	121
834.966	71.85
835.143	90.28
835.319	73.9
835.496	47.27
835.673	123.05
835.85	98.47
836.026	108.71
836.203	30.89
836.38	65.71
836.556	65.71
836.733	63.66
836.909	47.27
837.086	88.23
837.262	67.75
837.439	34.99
837.616	49.32
837.792	65.71
837.968	112.81
838.145	71.85
838.321	135.34
838.498	32.94
838.674	51.37
838.851	-12.12
839.027	-20.31
839.203	77.99
839.38	67.75
839.556	63.66
839.732	170.15
839.909	32.94
840.085	14.51
840.261	51.37
840.437	28.84
840.614	80.04
840.79	118.95
840.966	26.79
841.142	51.37
841.318	96.43
841.494	84.14
841.671	104.62
841.847	10.41
842.023	30.89
842.199	137.38
842.375	43.18
842.551	8.36
842.727	57.51
842.903	65.71
843.079	22.7
843.255	112.81
843.431	-30.55
843.607	145.58
843.783	-59.22
843.959	59.56
844.134	30.89
844.31	104.62
844.486	67.75
844.662	-38.74
844.838	34.99
845.013	116.9
845.189	145.58
845.365	106.67
845.541	2.22
845.716	2.22
845.892	30.89
846.068	34.99
846.244	-5.97
846.419	22.7
846.595	-1.88
846.77	82.09
846.946	-34.64
847.122	55.47
847.297	-14.17
847.473	153.77
847.648	-81.75
847.824	39.08
847.999	22.7
848.175	73.9
848.35	80.04
848.526	108.71
848.701	137.38
848.876	55.47
849.052	172.2
849.227	55.47
849.403	61.61
849.578	39.08
849.753	63.66
849.929	55.47
850.104	55.47
850.279	-67.41
850.454	39.08
850.63	118.95
850.805	51.37
850.98	-14.17
851.155	-30.55
851.33	34.99
851.505	39.08
851.681	80.04
851.856	34.99
852.031	24.75
852.206	6.31
852.381	0.17
852.556	22.7
852.731	-1.88
852.906	49.32
853.081	73.9
853.256	131.24
853.431	0.17
853.606	84.14
853.781	90.28
853.956	-18.26
854.131	73.9
854.305	8.36
854.48	55.47
854.655	47.27
854.83	18.6
855.005	65.71
855.18	51.37
855.354	18.6
855.529	2.22
855.704	32.94
855.879	75.95
856.053	0.17
856.228	39.08
856.403	-1.88
856.577	39.08
856.752	-26.45
856.926	-44.88
857.101	106.67
857.276	34.99
857.45	55.47
857.625	82.09
857.799	22.7
857.974	65.71
858.148	-24.4
858.323	100.52
858.497	-14.17
858.672	6.31
858.846	96.43
859.02	34.99
859.195	22.7
859.369	32.94
859.543	14.51
859.718	-30.55
859.892	92.33
860.066	24.75
860.241	-36.69
860.415	-48.98
860.589	84.14
860.763	30.89
860.938	-5.97
861.112	32.94
861.286	-1.88
861.46	22.7
861.634	32.94
861.808	20.65
861.982	43.18
862.157	-10.07
862.331	6.31
862.505	-8.02
862.679	-1.88
862.853	-26.45
863.027	-1.88
863.201	104.62
863.375	30.89
863.549	-5.97
863.722	34.99
863.896	57.51
864.07	6.31
864.244	2.22
864.418	51.37
864.592	63.66
864.766	55.47
864.939	32.94
865.113	-108.37
865.287	82.09
865.461	-26.45
865.634	-1.88
865.808	34.99
865.982	39.08
866.156	-12.12
866.329	-26.45
866.503	24.75
866.676	16.55
866.85	18.6
867.024	80.04
867.197	55.47
867.371	-10.07
867.544	-1.88
867.718	-22.36
867.891	22.7
868.065	-16.21
868.238	2.22
868.412	26.79
868.585	-14.17
868.759	-42.84
868.932	71.85
869.105	-40.79
869.279	-5.97
869.452	-10.07
869.625	30.89
869.799	-42.84
869.972	-59.22
870.145	65.71
870.319	-1.88
870.492	14.51
870.665	26.79
870.838	2.22
871.011	-65.36
871.185	18.6
871.358	-67.41
871.531	22.7
871.704	26.79
871.877	10.41
872.05	14.51
872.223	-16.21
872.396	63.66
872.569	14.51
872.742	-55.12
872.915	22.7
873.088	-48.98
873.261	-42.84
873.434	57.51
873.607	47.27
873.78	110.76
873.953	-79.7
874.126	-40.79
874.299	-10.07
874.471	-10.07
874.644	14.51
874.817	75.95
874.99	69.8
875.163	-91.99
875.335	30.89
875.508	-30.55
875.681	37.03
875.853	10.41
876.026	-5.97
876.199	39.08
876.371	24.75
876.544	-3.93
876.717	51.37
876.889	28.84
877.062	55.47
877.234	16.55
877.407	34.99
877.579	63.66
877.752	49.32
877.924	14.51
878.097	-10.07
878.269	-1.88
878.442	55.47
878.614	-1.88
878.786	2.22
878.959	-32.6
879.131	-75.6
879.303	-61.27
879.476	26.79
879.648	55.47
879.82	-8.02
879.993	-8.02
880.165	-26.45
880.337	-8.02
880.509	45.23
880.681	-51.03
880.854	-1.88
881.026	-8.02
881.198	92.33
881.37	30.89
881.542	65.71
881.714	-16.21
881.886	45.23
882.058	-44.88
882.23	-48.98
882.402	-1.88
882.574	18.6
882.746	47.27
882.918	43.18
883.09	-24.4
883.262	8.36
883.434	8.36
883.606	-100.18
883.778	30.89
883.95	8.36
884.122	16.55
884.293	65.71
884.465	34.99
884.637	125.1
884.809	-5.97
884.98	45.23
885.152	49.32
885.324	22.7
885.496	16.55
885.667	-26.45
885.839	-34.64
886.011	106.67
886.182	96.43
886.354	16.55
886.525	-34.64
886.697	63.66
886.869	-1.88
887.04	6.31
887.212	80.04
887.383	71.85
887.555	73.9
887.726	-42.84
887.897	41.13
888.069	41.13
888.24	77.99
888.412	-1.88
888.583	6.31
888.754	-16.21
888.926	-14.17
889.097	-24.4
889.268	-87.89
889.44	-81.75
889.611	-69.46
889.782	20.65
889.953	-26.45
890.125	26.79
890.296	45.23
890.467	-14.17
890.638	-18.26
890.809	6.31
890.98	14.51
891.151	77.99
891.323	47.27
891.494	77.99
891.665	0.17
891.836	41.13
892.007	-1.88
892.178	-40.79
892.349	47.27
892.52	47.27
892.691	14.51
892.862	2.22
893.032	6.31
893.203	26.79
893.374	2.22
893.545	57.51
893.716	18.6
893.887	59.56
894.057	32.94
894.228	-55.12
894.399	-8.02
894.57	32.94
894.74	14.51
894.911	47.27
895.082	14.51
895.253	6.31
895.423	41.13
895.594	8.36
895.764	-22.36
895.935	2.22
896.106	53.42
896.276	-18.26
896.447	34.99
896.617	2.22
896.788	-40.79
896.958	-28.5
897.129	24.75
897.299	-5.97
897.47	53.42
897.64	30.89
897.81	51.37
897.981	14.51
898.151	39.08
898.322	14.51
898.492	51.37
898.662	-38.74
898.832	-87.89
899.003	63.66
899.173	8.36
899.343	51.37
899.513	-67.41
