Data from USB4F104151__87__14-30-38-446.txt Node

Date: Thu Mar 13 14:30:38 EDT 2025
User: louis
Spectrometer: USB4F10415
Trigger mode: 4
Integration Time (sec): 2.500000E-2
Scans to average: 1
Electric dark correction enabled: true
Nonlinearity correction enabled: false
Boxcar width: 0
XAxis mode: Wavelengths
Number of Pixels in Spectrum: 3648
>>>>>Begin Spectral Data<<<<<
178.204	-135.17
178.424	-135.17
178.644	-135.17
178.864	-151.55
179.084	-79.87
179.304	4.1
179.524	16.38
179.744	-36.86
179.964	47.1
180.184	36.86
180.404	47.1
180.624	-20.48
180.844	6.14
181.064	-38.91
181.283	-28.67
181.503	-0
181.723	-32.77
181.943	-49.15
182.163	45.06
182.383	51.2
182.602	4.1
182.822	51.2
183.042	73.73
183.262	12.29
183.482	-34.82
183.701	16.38
183.921	24.58
184.141	-2.05
184.361	49.15
184.58	34.82
184.8	40.96
185.02	81.92
185.239	61.44
185.459	53.25
185.679	94.21
185.898	-51.2
186.118	28.67
186.338	-4.1
186.557	77.82
186.777	-18.43
186.997	-12.29
187.216	45.06
187.436	45.06
187.655	45.06
187.875	131.07
188.095	43.01
188.314	147.45
188.534	118.78
188.753	86.01
188.973	-16.38
189.192	36.86
189.412	43.01
189.631	4.1
189.851	-69.63
190.07	57.34
190.29	28.67
190.509	100.35
190.729	69.63
190.948	69.63
191.168	122.88
191.387	100.35
191.607	-4.1
191.826	69.63
192.045	47.1
192.265	51.2
192.484	10.24
192.704	86.01
192.923	-43.01
193.142	167.93
193.362	71.68
193.581	126.97
193.8	94.21
194.02	36.86
194.239	55.3
194.458	2.05
194.678	40.96
194.897	69.63
195.116	53.25
195.335	36.86
195.555	63.49
195.774	28.67
195.993	36.86
196.212	-20.48
196.432	-57.34
196.651	22.53
196.87	-6.14
197.089	94.21
197.308	53.25
197.528	96.25
197.747	-10.24
197.966	36.86
198.185	55.3
198.404	-51.2
198.623	-26.62
198.842	120.83
199.062	22.53
199.281	40.96
199.5	10.24
199.719	-24.58
199.938	81.92
200.157	79.87
200.376	36.86
200.595	55.3
200.814	32.77
201.033	73.73
201.252	110.59
201.471	67.58
201.69	53.25
201.909	71.68
202.128	61.44
202.347	61.44
202.566	-6.14
202.785	-10.24
203.004	-30.72
203.223	61.44
203.442	-2.05
203.661	22.53
203.879	47.1
204.098	71.68
204.317	10.24
204.536	94.21
204.755	-4.1
204.974	36.86
205.193	47.1
205.411	159.74
205.63	45.06
205.849	2.05
206.068	51.2
206.287	4.1
206.505	73.73
206.724	16.38
206.943	10.24
207.162	20.48
207.381	73.73
207.599	94.21
207.818	67.58
208.037	45.06
208.255	-0
208.474	8.19
208.693	18.43
208.911	-43.01
209.13	12.29
209.349	36.86
209.567	61.44
209.786	22.53
210.005	2.05
210.223	22.53
210.442	-8.19
210.661	61.44
210.879	28.67
211.098	-18.43
211.316	75.77
211.535	12.29
211.753	10.24
211.972	-12.29
212.191	61.44
212.409	77.82
212.628	4.1
212.846	57.34
213.065	-14.34
213.283	12.29
213.502	36.86
213.72	-4.1
213.938	24.58
214.157	6.14
214.375	10.24
214.594	45.06
214.812	38.91
215.031	36.86
215.249	67.58
215.467	53.25
215.686	-53.25
215.904	110.59
216.122	-45.06
216.341	79.87
216.559	57.34
216.778	145.41
216.996	-24.58
217.214	30.72
217.432	94.21
217.651	38.91
217.869	49.15
218.087	4.1
218.306	36.86
218.524	88.06
218.742	-16.38
218.96	55.3
219.179	26.62
219.397	6.14
219.615	69.63
219.833	12.29
220.051	22.53
220.27	81.92
220.488	8.19
220.706	71.68
220.924	22.53
221.142	-49.15
221.36	81.92
221.578	65.53
221.796	28.67
222.015	32.77
222.233	-59.39
222.451	81.92
222.669	14.34
222.887	16.38
223.105	-47.1
223.323	45.06
223.541	51.2
223.759	86.01
223.977	-12.29
224.195	49.15
224.413	8.19
224.631	-24.58
224.849	32.77
225.067	110.59
225.285	112.64
225.503	10.24
225.721	28.67
225.939	18.43
226.157	47.1
226.375	40.96
226.592	77.82
226.81	90.11
227.028	69.63
227.246	102.4
227.464	-12.29
227.682	55.3
227.9	73.73
228.117	16.38
228.335	28.67
228.553	102.4
228.771	20.48
228.989	86.01
229.206	118.78
229.424	-12.29
229.642	61.44
229.86	-67.58
230.077	14.34
230.295	8.19
230.513	53.25
230.731	49.15
230.948	47.1
231.166	69.63
231.384	-12.29
231.601	45.06
231.819	73.73
232.037	4.1
232.254	43.01
232.472	75.77
232.689	-4.1
232.907	28.67
233.125	12.29
233.342	28.67
233.56	12.29
233.777	71.68
233.995	-4.1
234.213	65.53
234.43	71.68
234.648	57.34
234.865	-26.62
235.083	65.53
235.3	-10.24
235.518	63.49
235.735	108.54
235.953	65.53
236.17	8.19
236.388	30.72
236.605	43.01
236.822	55.3
237.04	104.45
237.257	67.58
237.475	6.14
237.692	88.06
237.909	71.68
238.127	90.11
238.344	26.62
238.562	153.6
238.779	28.67
238.996	-4.1
239.214	36.86
239.431	90.11
239.648	26.62
239.865	96.25
240.083	16.38
240.3	6.14
240.517	8.19
240.735	61.44
240.952	30.72
241.169	20.48
241.386	108.54
241.603	28.67
241.821	73.73
242.038	30.72
242.255	83.97
242.472	-45.06
242.689	28.67
242.907	67.58
243.124	12.29
243.341	22.53
243.558	20.48
243.775	-20.48
243.992	-34.82
244.209	53.25
244.426	112.64
244.643	47.1
244.86	38.91
245.078	24.58
245.295	14.34
245.512	8.19
245.729	30.72
245.946	69.63
246.163	79.87
246.38	8.19
246.597	112.64
246.814	30.72
247.031	79.87
247.248	-53.25
247.464	-0
247.681	4.1
247.898	59.39
248.115	53.25
248.332	28.67
248.549	-4.1
248.766	77.82
248.983	120.83
249.2	12.29
249.417	65.53
249.633	8.19
249.85	49.15
250.067	36.86
250.284	4.1
250.501	49.15
250.717	96.25
250.934	28.67
251.151	18.43
251.368	18.43
251.585	94.21
251.801	28.67
252.018	-16.38
252.235	24.58
252.451	-40.96
252.668	-6.14
252.885	102.4
253.102	-20.48
253.318	-24.58
253.535	81.92
253.752	-8.19
253.968	-22.53
254.185	32.77
254.401	-0
254.618	57.34
254.835	83.97
255.051	81.92
255.268	59.39
255.484	110.59
255.701	12.29
255.917	94.21
256.134	10.24
256.351	122.88
256.567	24.58
256.784	79.87
257	-30.72
257.217	106.49
257.433	24.58
257.65	86.01
257.866	131.07
258.082	-0
258.299	16.38
258.515	49.15
258.732	-12.29
258.948	-2.05
259.165	104.45
259.381	-6.14
259.597	49.15
259.814	32.77
260.03	-61.44
260.246	28.67
260.463	45.06
260.679	24.58
260.895	4.1
261.112	36.86
261.328	-28.67
261.544	20.48
261.761	94.21
261.977	-12.29
262.193	28.67
262.409	73.73
262.626	47.1
262.842	92.16
263.058	-6.14
263.274	69.63
263.49	2.05
263.707	45.06
263.923	61.44
264.139	28.67
264.355	22.53
264.571	147.45
264.787	12.29
265.004	81.92
265.22	-8.19
265.436	-24.58
265.652	16.38
265.868	-18.43
266.084	-16.38
266.3	51.2
266.516	-16.38
266.732	45.06
266.948	47.1
267.164	69.63
267.38	38.91
267.596	53.25
267.812	118.78
268.028	28.67
268.244	28.67
268.46	2.05
268.676	36.86
268.892	61.44
269.108	36.86
269.324	36.86
269.54	4.1
269.756	86.01
269.972	61.44
270.188	69.63
270.403	-10.24
270.619	30.72
270.835	55.3
271.051	32.77
271.267	-22.53
271.483	-8.19
271.698	114.69
271.914	20.48
272.13	20.48
272.346	55.3
272.562	-45.06
272.777	28.67
272.993	38.91
273.209	-28.67
273.425	55.3
273.64	-53.25
273.856	61.44
274.072	69.63
274.287	-47.1
274.503	106.49
274.719	-2.05
274.934	81.92
275.15	20.48
275.366	-2.05
275.581	-12.29
275.797	69.63
276.012	88.06
276.228	47.1
276.444	20.48
276.659	59.39
276.875	-16.38
277.09	-8.19
277.306	36.86
277.521	106.49
277.737	-4.1
277.952	110.59
278.168	-20.48
278.383	65.53
278.599	49.15
278.814	53.25
279.03	47.1
279.245	61.44
279.461	12.29
279.676	12.29
279.892	20.48
280.107	28.67
280.322	-2.05
280.538	47.1
280.753	30.72
280.969	12.29
281.184	12.29
281.399	53.25
281.615	14.34
281.83	8.19
282.045	2.05
282.26	53.25
282.476	77.82
282.691	94.21
282.906	6.14
283.122	45.06
283.337	6.14
283.552	63.49
283.767	22.53
283.983	16.38
284.198	53.25
284.413	8.19
284.628	-4.1
284.843	43.01
285.058	-4.1
285.274	110.59
285.489	-45.06
285.704	94.21
285.919	-57.34
286.134	4.1
286.349	16.38
286.564	45.06
286.779	79.87
286.995	32.77
287.21	-28.67
287.425	88.06
287.64	49.15
287.855	108.54
288.07	-26.62
288.285	65.53
288.5	118.78
288.715	55.3
288.93	55.3
289.145	22.53
289.36	36.86
289.575	6.14
289.79	-10.24
290.004	79.87
290.219	69.63
290.434	4.1
290.649	73.73
290.864	61.44
291.079	45.06
291.294	34.82
291.509	22.53
291.724	53.25
291.938	-0
292.153	100.35
292.368	45.06
292.583	16.38
292.798	104.45
293.012	40.96
293.227	94.21
293.442	53.25
293.657	12.29
293.871	47.1
294.086	28.67
294.301	88.06
294.516	71.68
294.73	32.77
294.945	30.72
295.16	61.44
295.374	45.06
295.589	186.37
295.804	-10.24
296.018	79.87
296.233	88.06
296.447	86.01
296.662	147.45
296.877	94.21
297.091	69.63
297.306	61.44
297.52	61.44
297.735	102.4
297.949	81.92
298.164	79.87
298.378	10.24
298.593	49.15
298.807	49.15
299.022	30.72
299.236	59.39
299.451	71.68
299.665	63.49
299.88	40.96
300.094	32.77
300.309	90.11
300.523	77.82
300.737	73.73
300.952	53.25
301.166	28.67
301.381	-0
301.595	114.69
301.809	69.63
302.024	14.34
302.238	-2.05
302.452	71.68
302.667	69.63
302.881	141.31
303.095	114.69
303.309	8.19
303.524	28.67
303.738	12.29
303.952	8.19
304.166	124.93
304.381	36.86
304.595	53.25
304.809	90.11
305.023	118.78
305.237	4.1
305.452	32.77
305.666	102.4
305.88	22.53
306.094	79.87
306.308	104.45
306.522	4.1
306.736	69.63
306.95	30.72
307.164	88.06
307.379	20.48
307.593	178.17
307.807	129.02
308.021	24.58
308.235	38.91
308.449	-2.05
308.663	61.44
308.877	86.01
309.091	-18.43
309.305	47.1
309.519	28.67
309.733	114.69
309.947	32.77
310.161	61.44
310.374	86.01
310.588	28.67
310.802	12.29
311.016	36.86
311.23	88.06
311.444	61.44
311.658	47.1
311.872	104.45
312.085	28.67
312.299	20.48
312.513	51.2
312.727	65.53
312.941	-2.05
313.154	6.14
313.368	45.06
313.582	61.44
313.796	4.1
314.009	69.63
314.223	96.25
314.437	34.82
314.651	77.82
314.864	28.67
315.078	-0
315.292	20.48
315.505	-26.62
315.719	12.29
315.933	12.29
316.146	16.38
316.36	69.63
316.573	28.67
316.787	106.49
317.001	22.53
317.214	-10.24
317.428	69.63
317.641	-16.38
317.855	16.38
318.068	90.11
318.282	-20.48
318.495	32.77
318.709	26.62
318.922	8.19
319.136	96.25
319.349	45.06
319.563	16.38
319.776	45.06
319.99	-24.58
320.203	102.4
320.417	-61.44
320.63	102.4
320.843	30.72
321.057	59.39
321.27	16.38
321.483	-4.1
321.697	116.73
321.91	49.15
322.124	108.54
322.337	104.45
322.55	118.78
322.763	-24.58
322.977	83.97
323.19	-4.1
323.403	-12.29
323.617	49.15
323.83	94.21
324.043	102.4
324.256	53.25
324.469	-45.06
324.683	83.97
324.896	53.25
325.109	28.67
325.322	16.38
325.535	49.15
325.748	104.45
325.962	53.25
326.175	16.38
326.388	69.63
326.601	135.17
326.814	61.44
327.027	36.86
327.24	73.73
327.453	-20.48
327.666	71.68
327.879	151.55
328.092	79.87
328.305	28.67
328.518	108.54
328.731	-6.14
328.944	38.91
329.157	55.3
329.37	67.58
329.583	114.69
329.796	110.59
330.009	-0
330.222	71.68
330.435	75.77
330.648	53.25
330.861	12.29
331.073	49.15
331.286	110.59
331.499	-2.05
331.712	4.1
331.925	10.24
332.138	96.25
332.35	90.11
332.563	10.24
332.776	49.15
332.989	2.05
333.202	49.15
333.414	22.53
333.627	12.29
333.84	36.86
334.053	81.92
334.265	-12.29
334.478	61.44
334.691	88.06
334.903	88.06
335.116	53.25
335.329	90.11
335.541	-10.24
335.754	169.98
335.966	14.34
336.179	28.67
336.392	77.82
336.604	-8.19
336.817	98.3
337.029	96.25
337.242	59.39
337.454	32.77
337.667	106.49
337.88	88.06
338.092	81.92
338.305	81.92
338.517	-53.25
338.729	12.29
338.942	59.39
339.154	86.01
339.367	90.11
339.579	59.39
339.792	6.14
340.004	92.16
340.217	-20.48
340.429	79.87
340.641	88.06
340.854	86.01
341.066	22.53
341.278	110.59
341.491	110.59
341.703	51.2
341.915	-16.38
342.128	71.68
342.34	49.15
342.552	81.92
342.764	34.82
342.977	49.15
343.189	-2.05
343.401	110.59
343.613	18.43
343.826	45.06
344.038	40.96
344.25	28.67
344.462	-2.05
344.674	30.72
344.886	18.43
345.099	69.63
345.311	77.82
345.523	79.87
345.735	-20.48
345.947	86.01
346.159	86.01
346.371	79.87
346.583	28.67
346.795	137.21
347.007	18.43
347.219	57.34
347.431	45.06
347.643	69.63
347.855	-22.53
348.067	-0
348.279	-61.44
348.491	75.77
348.703	51.2
348.915	120.83
349.127	40.96
349.339	51.2
349.551	20.48
349.763	61.44
349.975	53.25
350.187	14.34
350.399	69.63
350.61	43.01
350.822	-10.24
351.034	38.91
351.246	4.1
351.458	45.06
351.669	83.97
351.881	159.74
352.093	45.06
352.305	145.41
352.517	45.06
352.728	100.35
352.94	36.86
353.152	-10.24
353.363	14.34
353.575	135.17
353.787	190.46
353.999	6.14
354.21	57.34
354.422	38.91
354.633	16.38
354.845	22.53
355.057	18.43
355.268	100.35
355.48	20.48
355.692	59.39
355.903	61.44
356.115	69.63
356.326	-63.49
356.538	86.01
356.749	43.01
356.961	47.1
357.172	94.21
357.384	55.3
357.595	12.29
357.807	32.77
358.018	-10.24
358.23	2.05
358.441	108.54
358.653	53.25
358.864	47.1
359.075	61.44
359.287	86.01
359.498	86.01
359.709	53.25
359.921	32.77
360.132	59.39
360.344	59.39
360.555	-36.86
360.766	73.73
360.977	110.59
361.189	20.48
361.4	61.44
361.611	118.78
361.823	16.38
362.034	26.62
362.245	4.1
362.456	61.44
362.667	102.4
362.879	73.73
363.09	126.97
363.301	38.91
363.512	79.87
363.723	49.15
363.935	28.67
364.146	94.21
364.357	55.3
364.568	24.58
364.779	110.59
364.99	20.48
365.201	-0
365.412	157.69
365.623	-2.05
365.834	73.73
366.045	-8.19
366.256	106.49
366.467	184.32
366.678	6.14
366.889	45.06
367.1	22.53
367.311	90.11
367.522	69.63
367.733	4.1
367.944	114.69
368.155	22.53
368.366	53.25
368.577	53.25
368.788	77.82
368.999	12.29
369.209	40.96
369.42	47.1
369.631	53.25
369.842	118.78
370.053	88.06
370.264	102.4
370.474	4.1
370.685	112.64
370.896	110.59
371.107	77.82
371.317	57.34
371.528	67.58
371.739	106.49
371.95	94.21
372.16	81.92
372.371	-26.62
372.582	69.63
372.792	94.21
373.003	94.21
373.214	106.49
373.424	65.53
373.635	-26.62
373.846	145.41
374.056	55.3
374.267	106.49
374.477	57.34
374.688	26.62
374.898	8.19
375.109	-0
375.319	38.91
375.53	104.45
375.74	67.58
375.951	102.4
376.161	153.6
376.372	141.31
376.582	81.92
376.793	104.45
377.003	12.29
377.214	65.53
377.424	73.73
377.635	118.78
377.845	4.1
378.055	110.59
378.266	53.25
378.476	53.25
378.686	61.44
378.897	75.77
379.107	28.67
379.317	86.01
379.528	94.21
379.738	6.14
379.948	45.06
380.158	116.73
380.369	106.49
380.579	104.45
380.789	16.38
380.999	96.25
381.21	71.68
381.42	159.74
381.63	67.58
381.84	94.21
382.05	131.07
382.261	145.41
382.471	61.44
382.681	12.29
382.891	124.93
383.101	124.93
383.311	12.29
383.521	102.4
383.731	108.54
383.941	63.49
384.151	28.67
384.361	24.58
384.571	57.34
384.781	26.62
384.991	61.44
385.201	229.37
385.411	104.45
385.621	67.58
385.831	106.49
386.041	112.64
386.251	92.16
386.461	71.68
386.671	45.06
386.881	47.1
387.091	69.63
387.301	77.82
387.511	96.25
387.72	69.63
387.93	120.83
388.14	77.82
388.35	81.92
388.56	106.49
388.769	36.86
388.979	86.01
389.189	51.2
389.399	159.74
389.609	86.01
389.818	73.73
390.028	104.45
390.238	112.64
390.447	79.87
390.657	81.92
390.867	71.68
391.076	53.25
391.286	102.4
391.496	38.91
391.705	45.06
391.915	182.27
392.125	129.02
392.334	12.29
392.544	182.27
392.753	81.92
392.963	73.73
393.172	24.58
393.382	22.53
393.591	155.65
393.801	40.96
394.01	114.69
394.22	126.97
394.429	96.25
394.639	86.01
394.848	114.69
395.058	159.74
395.267	131.07
395.477	96.25
395.686	86.01
395.895	86.01
396.105	131.07
396.314	151.55
396.524	153.6
396.733	77.82
396.942	151.55
397.152	182.27
397.361	196.6
397.57	61.44
397.78	86.01
397.989	118.78
398.198	169.98
398.407	200.7
398.617	131.07
398.826	143.36
399.035	81.92
399.244	86.01
399.453	174.08
399.663	120.83
399.872	192.51
400.081	65.53
400.29	167.93
400.499	163.84
400.708	135.17
400.917	77.82
401.127	120.83
401.336	137.21
401.545	180.22
401.754	100.35
401.963	194.56
402.172	167.93
402.381	139.26
402.59	182.27
402.799	186.37
403.008	159.74
403.217	192.51
403.426	202.75
403.635	167.93
403.844	159.74
404.053	159.74
404.262	184.32
404.471	282.62
404.68	155.65
404.888	217.08
405.097	131.07
405.306	274.43
405.515	204.8
405.724	227.32
405.933	329.72
406.142	268.28
406.35	309.24
406.559	282.62
406.768	264.19
406.977	307.2
407.185	258.04
407.394	299
407.603	249.85
407.812	299
408.02	309.24
408.229	360.44
408.438	327.67
408.646	217.08
408.855	393.21
409.064	315.39
409.272	337.91
409.481	438.27
409.69	364.54
409.898	294.91
410.107	380.92
410.315	395.26
410.524	407.55
410.733	475.13
410.941	503.8
411.15	618.49
411.358	595.96
411.567	579.58
411.775	575.48
411.984	618.49
412.192	620.53
412.401	638.97
412.609	710.65
412.818	716.79
413.026	706.55
413.234	733.17
413.443	706.55
413.651	770.04
413.86	839.67
414.068	907.25
414.276	827.38
414.485	858.1
414.693	954.35
414.901	1103.86
415.11	1093.62
415.318	1052.66
415.526	1112.05
415.734	1169.39
415.943	1128.43
416.151	1298.41
416.359	1345.52
416.567	1294.32
416.776	1320.94
416.984	1372.14
417.192	1380.33
417.4	1462.25
417.608	1374.19
417.817	1572.84
418.025	1675.24
418.233	1742.82
418.441	1712.1
418.649	1769.44
418.857	1800.16
419.065	1923.04
419.273	1941.47
419.481	1945.57
419.689	2068.45
419.897	2170.85
420.105	2195.42
420.313	2297.82
420.521	2392.03
420.729	2465.75
420.937	2535.39
421.145	2572.25
421.353	2723.8
421.561	2914.26
421.769	2852.82
421.977	3100.62
422.185	2965.46
422.393	3133.39
422.601	3395.53
422.809	3465.16
423.017	3461.07
423.224	3542.99
423.432	3674.06
423.64	3862.47
423.848	4132.8
424.056	3997.63
424.263	4179.9
424.471	4145.09
424.679	4247.49
424.887	4540.35
425.094	4870.07
425.302	4632.51
425.51	4956.08
425.718	5076.91
425.925	5087.15
426.133	5185.46
426.341	5640.11
426.548	5748.65
426.756	5629.87
426.964	5875.62
427.171	6049.7
427.379	6289.31
427.586	6520.73
427.794	6682.52
428.001	6997.91
428.209	7344.02
428.417	7049.11
428.624	7780.23
428.832	7643.02
429.039	7548.81
429.247	7769.99
429.454	8277.89
429.662	8843.13
429.869	8304.51
430.076	8925.05
430.284	8679.29
430.491	8882.04
430.699	9367.41
430.906	9658.22
431.114	9770.86
431.321	9924.46
431.528	10270.56
431.736	10784.6
431.943	11358.03
432.15	11052.89
432.358	11112.28
432.565	11714.38
432.772	11706.19
432.979	12488.51
433.187	12447.55
433.394	12416.83
433.601	13483.83
433.808	13508.4
434.016	13444.91
434.223	13954.86
434.43	14845.73
434.637	14636.83
434.844	15603.47
435.052	15619.86
435.259	15705.87
435.466	16047.88
435.673	15474.45
435.88	16551.68
436.087	17245.94
436.294	17383.16
436.501	17161.98
436.708	17239.8
436.915	17719.03
437.122	18652.9
437.329	18661.09
437.537	19058.4
437.743	19562.2
437.95	19396.31
438.157	20547.27
438.364	21001.92
438.571	21053.12
438.778	21194.43
438.985	23236.25
439.192	22345.39
439.399	23013.02
439.606	22720.17
439.813	23639.7
440.02	25144.96
440.227	24878.72
440.433	24512.14
440.64	24954.5
440.847	25290.37
441.054	25702.01
441.261	27379.29
441.467	26885.73
441.674	27448.93
441.881	28513.87
442.088	28337.74
442.294	28327.5
442.501	29105.73
442.708	29724.22
442.914	30830.12
443.121	31874.59
443.328	31176.23
443.534	33129.99
443.741	32290.32
443.948	31602.21
444.154	34182.65
444.361	34039.29
444.568	33992.19
444.774	34319.86
444.981	34610.67
445.187	35673.57
445.394	36851.15
445.6	36926.92
445.807	39544.23
446.013	38350.26
446.22	38921.65
446.426	40387.99
446.633	40347.03
446.839	42149.24
447.046	40689.04
447.252	42806.64
447.459	42493.3
447.665	42472.82
447.871	44098.91
448.078	46392.64
448.284	44350.81
448.491	45108.56
448.697	46712.12
448.903	47402.28
449.11	47699.24
449.316	47064.37
449.522	47936.8
449.728	48700.7
449.935	49741.06
450.141	49315.09
450.347	50351.36
450.553	48778.52
450.76	49382.67
450.966	51119.35
451.172	50242.82
451.378	51623.15
451.584	50795.77
451.791	52026.6
451.997	51602.67
452.203	52503.77
452.409	52505.82
452.615	51985.64
452.821	50609.4
453.027	49607.95
453.233	52237.54
453.44	50306.3
453.646	51170.55
453.852	50935.03
454.058	52102.37
454.264	49956.1
454.47	51725.55
454.676	50265.34
454.882	51950.82
455.088	47316.27
455.294	48383.26
455.5	48698.65
455.705	49515.79
455.911	47392.04
456.117	46794.04
456.323	45923.65
456.529	43832.68
456.735	45405.52
456.941	44639.57
457.147	43621.73
457.352	42259.84
457.558	41600.39
457.764	42106.24
457.97	41115.02
458.176	40101.28
458.381	40150.43
458.587	38249.91
458.793	38174.14
458.999	36160.98
459.204	38679.99
459.41	37803.46
459.616	35356.13
459.821	35483.11
460.027	35173.86
460.233	34059.77
460.438	32570.89
460.644	33154.57
460.85	31542.81
461.055	31157.8
461.261	31016.49
461.466	28806.73
461.672	27833.94
461.878	30103.09
462.083	28005.97
462.289	27514.46
462.494	27209.31
462.7	25814.65
462.905	25058.95
463.111	26138.23
463.316	26308.21
463.522	25673.34
463.727	25839.22
463.932	25810.55
464.138	25482.88
464.343	25597.56
464.549	24710.79
464.754	25446.01
464.959	25523.83
465.165	25183.87
465.37	23883.41
465.575	23666.33
465.781	24405.64
465.986	24415.88
466.191	23760.53
466.397	23099.04
466.602	21943.99
466.807	22816.42
467.012	22834.85
467.218	22693.54
467.423	22681.25
467.628	22460.07
467.833	23385.76
468.038	22388.39
468.244	21956.27
468.449	22617.77
468.654	22091.44
468.859	22005.42
469.064	21880.5
469.269	20950.72
469.474	21114.56
469.679	21636.79
469.885	20772.55
470.09	21096.13
470.295	21046.97
470.5	20524.74
470.705	20563.65
470.91	19918.54
471.115	20010.7
471.32	20303.56
471.525	20176.59
471.73	19662.55
471.935	19463.89
472.139	18910.94
472.344	19095.26
472.549	18974.43
472.754	18865.89
472.959	18181.87
473.164	17927.92
473.369	17698.55
473.574	18208.49
473.778	18163.43
473.983	17860.34
474.188	17950.45
474.393	17276.66
474.598	17157.88
474.802	17176.31
475.007	16924.41
475.212	16879.36
475.417	16412.42
475.621	16281.35
475.826	16248.58
476.031	16002.83
476.235	15828.75
476.44	15922.96
476.645	15564.56
476.849	15505.17
477.054	15519.51
477.259	15030.04
477.463	15286.04
477.668	14778.14
477.872	15019.8
478.077	14685.98
478.282	14278.44
478.486	14503.71
478.691	14173.99
478.895	14364.45
479.1	14133.03
479.304	14272.29
479.509	13864.75
479.713	13926.19
479.918	13545.27
480.122	13365.04
480.326	13655.86
480.531	13631.28
480.735	13516.59
480.94	13356.85
481.144	13524.79
481.348	13184.82
481.553	13375.28
481.757	13201.21
481.961	13295.41
482.166	13424.44
482.37	13197.11
482.574	13061.94
482.778	13168.44
482.983	13397.81
483.187	13514.55
483.391	13172.53
483.595	13141.82
483.8	12910.4
484.004	13000.51
484.208	13344.56
484.412	13025.08
484.616	13127.48
484.821	13107
485.025	12775.23
485.229	13356.85
485.433	12853.05
485.637	13119.29
485.841	12914.49
486.045	13070.14
486.249	13059.9
486.453	12842.81
486.657	13080.38
486.861	13127.48
487.065	12717.89
487.269	13000.51
487.473	12738.37
487.677	12924.73
487.881	13141.82
488.085	13043.51
488.289	13158.2
488.493	12928.83
488.697	13168.44
488.901	13231.93
489.105	12914.49
489.309	13158.2
489.512	13074.23
489.716	13035.32
489.92	13260.6
490.124	13262.65
490.328	13506.35
490.531	13070.14
490.735	13307.7
490.939	13397.81
491.143	12885.82
491.346	13221.69
491.55	13406
491.754	13446.96
491.958	13571.89
492.161	13432.63
492.365	13616.94
492.569	13528.88
492.772	13385.52
492.976	13467.44
493.18	13774.64
493.383	13856.56
493.587	13874.99
493.79	14262.05
493.994	13975.34
494.197	14044.97
494.401	14212.9
494.605	13862.7
494.808	14427.94
495.012	14407.46
495.215	14563.11
495.419	14571.3
495.622	14511.91
495.825	14757.66
496.029	14921.5
496.232	15419.16
496.436	15095.58
496.639	15523.6
496.843	15365.91
497.046	15873.81
497.249	15859.47
497.453	15951.63
497.656	16033.55
497.859	15863.57
498.063	15947.53
498.266	16588.55
498.469	16275.21
498.673	16625.41
498.876	17086.2
499.079	17055.48
499.282	17078.01
499.485	17442.55
499.689	17223.42
499.892	17807.09
500.095	17856.24
500.298	18296.55
500.501	17688.31
500.705	18380.52
500.908	18702.05
501.111	18630.37
501.314	18820.83
501.517	19302.11
501.72	19238.62
501.923	19302.11
502.126	19951.31
502.329	19906.26
502.532	20047.57
502.735	20313.8
502.938	20821.7
503.141	20602.57
503.344	21307.07
503.547	20930.24
503.75	21401.27
503.953	21702.32
504.156	21593.78
504.359	22224.56
504.562	22204.08
504.765	22392.49
504.968	22888.1
505.17	22836.9
505.373	23064.22
505.576	23264.92
505.779	23436.95
505.982	23651.99
506.185	24217.23
506.387	24352.4
506.59	24360.59
506.793	24561.29
506.996	24821.38
507.198	25577.08
507.401	25030.27
507.604	25728.63
507.807	26250.86
508.009	26336.88
508.212	26613.35
508.415	26644.07
508.617	26953.32
508.82	27256.42
509.022	27092.58
509.225	27864.66
509.428	27866.71
509.63	28104.28
509.833	28444.24
510.035	28978.76
510.238	29085.25
510.44	29519.42
510.643	29414.98
510.845	30219.83
511.048	30062.13
511.25	30199.35
511.453	30643.76
511.655	31356.45
511.858	31041.06
512.06	31352.35
512.262	31884.83
512.465	31708.7
512.667	32355.86
512.87	32538.13
513.072	32751.12
513.274	33267.2
513.477	33447.43
513.679	33379.84
513.881	33850.88
514.084	34358.77
514.286	34072.06
514.488	34538.99
514.69	35618.27
514.893	35493.35
515.095	35757.53
515.297	35888.6
515.499	36294.1
515.701	36525.52
515.904	36589.01
516.106	37021.13
516.308	37432.77
516.51	37860.8
516.712	38088.12
516.914	38587.83
517.116	38878.64
517.318	39052.72
517.52	39275.94
517.722	39572.9
517.925	39687.59
518.127	40355.22
518.329	40664.47
518.531	40207.77
518.733	40934.8
518.935	41627.01
519.136	41213.32
519.338	41813.38
519.54	42200.44
519.742	42204.54
519.944	42493.3
520.146	43085.17
520.348	42945.9
520.55	43115.89
520.752	43277.68
520.954	44162.4
521.155	43681.13
521.357	44055.9
521.559	44436.83
521.761	45129.04
521.963	44803.41
522.164	44965.2
522.366	45299.02
522.568	45178.19
522.77	45819.2
522.971	46390.59
523.173	46253.37
523.375	46382.4
523.576	46314.81
523.778	46650.68
523.98	47054.13
524.181	47043.89
524.383	47111.47
524.584	47494.44
524.786	47523.11
524.988	47373.61
525.189	47813.93
525.391	48188.7
525.592	48350.49
525.794	48379.17
525.995	48014.63
526.197	48260.38
526.398	48465.18
526.6	48817.43
526.801	48948.5
527.003	48954.64
527.204	48751.9
527.406	49110.29
527.607	49089.81
527.808	49497.36
528.01	48772.38
528.211	49063.19
528.412	49607.95
528.614	49693.96
528.815	49073.43
529.016	49792.26
529.218	49364.24
529.419	49356.05
529.62	49679.63
529.822	49210.64
530.023	49384.72
530.224	49427.73
530.425	49454.35
530.626	49192.21
530.828	48964.88
531.029	50078.98
531.23	49177.87
531.431	49036.56
531.632	49335.57
531.833	49571.08
532.035	49153.3
532.236	49253.65
532.437	49739.02
532.638	49120.53
532.839	49661.19
533.04	49431.82
533.241	48923.93
533.442	49638.67
533.643	49108.24
533.844	49304.85
534.045	48807.19
534.246	48975.12
534.447	48936.21
534.648	49030.42
534.849	49210.64
535.05	48737.56
535.251	49026.32
535.451	48805.14
535.652	48686.36
535.853	48604.44
536.054	48661.79
536.255	48631.07
536.456	48014.63
536.657	49003.8
536.857	48106.79
537.058	48155.94
537.259	48547.1
537.46	48672.03
537.66	48428.32
537.861	48504.09
538.062	48112.93
538.263	48110.88
538.463	47912.23
538.664	48096.55
538.865	48299.29
539.065	48211.23
539.266	47875.37
539.466	48125.22
539.667	47682.86
539.868	48399.65
540.068	47521.07
540.269	48026.92
540.469	47828.26
540.67	47682.86
540.87	47572.27
541.071	47504.68
541.271	47752.49
541.472	47873.32
541.672	47615.27
541.873	46998.83
542.073	46972.21
542.274	47877.41
542.474	47293.74
542.675	47484.2
542.875	48047.39
543.075	47179.06
543.276	46931.25
543.476	47748.39
543.676	47441.2
543.877	47166.77
544.077	47406.38
544.277	47316.27
544.478	47121.71
544.678	47826.21
544.878	47467.82
545.078	47316.27
545.279	46925.11
545.479	47140.14
545.679	47422.76
545.879	47033.65
546.079	47095.09
546.28	47383.85
546.48	46921.01
546.68	47820.07
546.88	47455.53
547.08	47303.98
547.28	46998.83
547.48	46703.93
547.68	46998.83
547.88	46662.97
548.081	47328.56
548.281	47174.96
548.481	47078.71
548.681	47547.69
548.881	46904.63
549.081	47328.56
549.28	46925.11
549.48	47281.45
549.68	47113.52
549.88	47752.49
550.08	47101.23
550.28	47207.73
550.48	46964.02
550.68	47545.64
550.88	47021.36
551.08	47256.88
551.279	47306.03
551.479	46853.43
551.679	47093.04
551.879	47084.85
552.079	47179.06
552.278	46939.44
552.478	46959.92
552.678	47250.73
552.878	47527.21
553.077	47172.91
553.277	46787.89
553.477	47461.68
553.676	47416.62
553.876	47369.52
554.076	47017.27
554.275	47594.79
554.475	46630.2
554.674	47146.29
554.874	46998.83
555.074	47093.04
555.273	47435.05
555.473	47654.18
555.672	47168.82
555.872	47328.56
556.071	47451.44
556.271	47836.45
556.47	47301.93
556.67	46734.65
556.869	46998.83
557.068	47650.09
557.268	46755.13
557.467	47510.83
557.667	47355.18
557.866	47631.66
558.065	47527.21
558.265	46955.83
558.464	47514.92
558.663	47611.18
558.863	46849.33
559.062	47750.44
559.261	47209.78
559.461	47723.82
559.66	46980.4
559.859	47408.43
560.058	46921.01
560.258	47187.25
560.457	47047.99
560.656	47453.48
560.855	47002.93
561.054	47293.74
561.253	46761.27
561.453	47252.78
561.652	47514.92
561.851	47088.95
562.05	46925.11
562.249	46644.54
562.448	47498.54
562.647	47281.45
562.846	46613.82
563.045	47177.01
563.244	46613.82
563.443	47506.73
563.642	46251.33
563.841	47250.73
564.04	46671.16
564.239	47113.52
564.438	46759.22
564.637	46753.08
564.836	47117.62
565.035	46310.72
565.234	46564.67
565.432	46314.81
565.631	46032.19
565.83	46812.47
566.029	46488.89
566.228	45860.16
566.427	46265.66
566.625	45987.14
566.824	45653.32
567.023	46525.75
567.222	45192.53
567.42	46335.29
567.619	45759.81
567.818	45673.8
568.016	45593.93
568.215	46142.78
568.414	46042.43
568.612	45688.13
568.811	45446.47
569.01	45630.79
569.208	44778.84
569.407	45528.39
569.605	45520.2
569.804	45618.5
570.002	44705.11
570.201	45155.66
570.4	45000.02
570.598	44426.59
570.797	44711.25
570.995	44764.5
571.193	44113.25
571.392	44954.96
571.59	44053.86
571.789	44252.51
571.987	44375.39
572.186	44137.82
572.384	43885.92
572.582	44207.45
572.781	44318.04
572.979	43525.48
573.177	43570.54
573.376	44014.94
573.574	43525.48
573.772	43539.82
573.971	42847.6
574.169	43074.93
574.367	42935.66
574.565	43083.12
574.763	43029.87
574.962	42945.9
575.16	42304.89
575.358	42878.32
575.556	42272.12
575.754	42433.91
575.952	42239.36
576.151	42210.68
576.349	41813.38
576.547	41778.56
576.745	41801.09
576.943	42126.72
577.141	41815.43
577.339	42050.94
577.537	41616.77
577.735	41618.82
577.933	41221.51
578.131	41485.7
578.329	41407.88
578.527	40973.71
578.725	41180.56
578.923	41186.7
579.121	40525.21
579.319	40791.44
579.516	40863.12
579.714	40697.23
579.912	40410.52
580.11	39970.21
580.308	40134.04
580.506	40146.33
580.704	39869.86
580.901	40048.03
581.099	40138.14
581.297	39703.97
581.495	39660.96
581.692	39644.58
581.89	39650.72
582.088	39695.78
582.285	38972.85
582.483	39224.75
582.681	39005.61
582.878	38860.21
583.076	38952.37
583.274	39126.44
583.471	38864.3
583.669	38503.86
583.866	38360.5
584.064	38514.1
584.262	38258.1
584.459	38292.92
584.657	38297.02
584.854	38309.3
585.052	37828.03
585.249	38192.57
585.447	38120.89
585.644	37496.26
585.841	37815.74
586.039	38247.86
586.236	37473.73
586.434	37287.37
586.631	37483.97
586.828	37309.89
587.026	37205.45
587.223	37047.75
587.42	36994.51
587.618	37103.05
587.815	36816.33
588.012	36472.28
588.21	36793.81
588.407	37096.91
588.604	36670.93
588.801	36527.57
588.999	36568.53
589.196	36128.22
589.393	36269.53
589.59	36208.09
589.787	36150.74
589.984	36439.51
590.182	35945.95
590.379	35687.9
590.576	35904.99
590.773	35978.71
590.97	35632.61
591.167	35538.4
591.364	35087.85
591.561	35341.8
591.758	35192.29
591.955	35046.89
592.152	35386.85
592.349	35186.15
592.546	35368.42
592.743	35192.29
592.94	34219.51
593.137	34498.03
593.334	34917.87
593.531	34356.72
593.727	34657.78
593.924	34610.67
594.121	34465.27
594.318	34743.79
594.515	34227.7
594.712	34610.67
594.908	34283
595.105	34682.35
595.302	33967.61
595.499	34422.26
595.696	34039.29
595.892	33623.55
596.089	34184.69
596.286	34174.45
596.482	33928.7
596.679	34283
596.876	33797.63
597.072	33963.51
597.269	34184.69
597.466	33480.19
597.662	33897.98
597.859	33414.66
598.055	33644.03
598.252	33531.39
598.448	33680.89
598.645	33238.53
598.841	33375.75
599.038	33467.91
599.234	33263.11
599.431	33117.7
599.627	33105.41
599.824	33250.82
600.02	33062.41
600.217	33476.1
600.413	33156.61
600.609	33078.79
600.806	33070.6
601.002	32980.49
601.198	33154.57
601.395	32882.19
601.591	32878.09
601.787	32837.13
601.984	32546.32
602.18	33132.04
602.376	33099.27
602.572	32894.47
602.769	32607.76
602.965	32673.29
603.161	32429.59
603.357	32894.47
603.553	32605.71
603.75	32648.72
603.946	32525.84
604.142	32529.94
604.338	32685.58
604.534	32642.57
604.73	32253.46
604.926	32101.91
605.122	32957.96
605.318	32478.74
605.514	32310.8
605.71	32427.54
605.906	32425.49
606.102	32538.13
606.298	32591.37
606.494	32593.42
606.69	32615.95
606.886	32390.67
607.082	31766.04
607.278	32826.89
607.474	32163.35
607.67	32906.76
607.866	32419.35
608.062	32175.64
608.257	32296.47
608.453	32357.91
608.649	32466.45
608.845	32456.21
609.041	32114.2
609.236	32327.19
609.432	32704.01
609.628	32613.9
609.824	32368.15
610.019	32042.52
610.215	32542.22
610.411	32736.78
610.606	32511.5
610.802	32781.84
610.998	32202.26
611.193	32517.65
611.389	32292.37
611.584	32478.74
611.78	31960.6
611.976	32437.78
612.171	32167.45
612.367	32204.31
612.562	32429.59
612.758	31983.13
612.953	31923.74
613.149	32560.66
613.344	32183.83
613.539	32644.62
613.735	32263.7
613.93	32304.66
614.126	32480.78
614.321	32615.95
614.517	32241.17
614.712	32445.97
614.907	32151.06
615.103	32204.31
615.298	32181.78
615.493	32601.61
615.688	32259.6
615.884	32736.78
616.079	31999.51
616.274	32466.45
616.47	32298.52
616.665	32349.71
616.86	32271.89
617.055	32337.43
617.25	32118.29
617.445	32095.77
617.641	31555.1
617.836	32103.96
618.031	31749.66
618.226	32212.5
618.421	31872.54
618.616	31702.56
618.811	31514.14
619.006	32239.12
619.201	31159.84
619.396	31655.45
619.591	31249.96
619.786	31172.13
619.981	30965.29
620.176	31182.37
620.371	30565.93
620.566	30789.16
620.761	30719.53
620.956	30785.07
621.151	30664.24
621.346	30778.92
621.541	30416.43
621.735	30416.43
621.93	29832.76
622.125	30404.14
622.32	29703.74
622.515	29683.26
622.709	29576.76
622.904	29761.08
623.099	29611.58
623.294	29140.55
623.488	29009.48
623.683	29193.79
623.878	28657.23
624.072	28972.61
624.267	28540.49
624.462	28776.01
624.656	28165.71
624.851	28403.28
625.046	28091.99
625.24	28317.26
625.435	27702.87
625.629	28032.6
625.824	27539.04
626.018	27723.35
626.213	26889.83
626.407	27719.26
626.602	26637.93
626.796	26836.58
626.991	27043.43
627.185	26666.6
627.38	26240.62
627.574	26484.33
627.768	26164.85
627.963	26515.05
628.157	26058.35
628.352	26140.27
628.546	25667.19
628.74	25996.92
628.935	25288.32
629.129	25497.21
629.323	24972.93
629.517	25175.68
629.712	24843.91
629.906	25009.79
630.1	24401.55
630.294	24686.22
630.489	24364.68
630.683	24553.1
630.877	24372.88
631.071	24135.31
631.265	24106.64
631.459	23879.32
631.653	24022.67
631.848	23586.46
632.042	23504.54
632.236	23692.95
632.43	23127.71
632.624	23281.31
632.818	23389.85
633.012	22857.38
633.206	22935.2
633.4	22924.96
633.594	22804.13
633.788	22429.35
633.982	22558.38
634.176	22451.88
634.369	22292.14
634.563	22363.82
634.757	21931.7
634.951	22247.08
635.145	21950.13
635.339	21812.92
635.533	21534.39
635.726	21524.15
635.92	21239.48
636.114	21411.51
636.308	21176
636.501	21194.43
636.695	21141.18
636.889	21026.5
637.083	20672.2
637.276	20534.98
637.47	20371.15
637.664	20422.34
637.857	20532.93
638.051	20033.23
638.244	20033.23
638.438	19941.07
638.632	20014.8
638.825	19863.25
639.019	19652.31
639.212	19543.77
639.406	19773.14
639.599	19224.28
639.793	19214.04
639.986	18915.04
640.18	19267.29
640.373	18894.56
640.567	18661.09
640.76	18857.7
640.954	18626.28
641.147	18450.15
641.34	18413.29
641.534	18396.9
641.727	18278.12
641.92	18102
642.114	17909.49
642.307	17872.62
642.5	18003.69
642.694	17510.13
642.887	17620.72
643.08	17571.57
643.273	17643.25
643.467	17239.8
643.66	17069.82
643.853	17239.8
644.046	16854.78
644.239	16924.41
644.432	16776.96
644.626	16690.95
644.819	16463.62
645.012	16529.16
645.205	16271.11
645.398	16426.76
645.591	16195.34
645.784	16142.09
645.977	16039.69
646.17	16217.86
646.363	15890.19
646.556	15714.06
646.749	15453.97
646.942	15822.61
647.135	15462.16
647.328	15413.01
647.521	15445.78
647.714	15175.45
647.907	15079.19
648.099	15101.72
648.292	15095.58
648.485	15089.43
648.678	14491.43
648.871	14812.96
649.064	14763.81
649.256	14880.54
649.449	14370.6
649.642	14364.45
649.835	14325.54
650.027	14227.24
650.22	14083.88
650.413	14069.55
650.605	14204.71
650.798	13940.52
650.991	13881.13
651.183	13819.69
651.376	13686.58
651.568	13844.27
651.761	13627.18
651.954	13498.16
652.146	13307.7
652.339	13594.42
652.531	13307.7
652.724	13317.94
652.916	12859.2
653.109	13156.15
653.301	13127.48
653.494	13176.63
653.686	12719.93
653.879	12914.49
654.071	12572.48
654.263	12535.62
654.456	12470.08
654.648	12656.45
654.84	12298.05
655.033	12234.57
655.225	12136.26
655.417	12209.99
655.61	12181.32
655.802	12259.14
655.994	12072.78
656.186	12263.24
656.379	12164.93
656.571	11802.44
656.763	11829.07
656.955	11636.56
657.148	11644.75
657.34	11775.82
657.532	11579.22
657.724	11470.67
657.916	11521.87
658.108	11548.5
658.3	11341.65
658.492	11323.22
658.684	11179.86
658.876	11138.9
659.068	10948.44
659.26	10784.6
659.452	11265.88
659.644	10841.95
659.836	10809.18
660.028	10616.67
660.22	10508.13
660.412	10637.15
660.604	10497.89
660.796	10434.4
660.988	10458.98
661.18	10432.35
661.372	10440.54
661.563	10467.17
661.755	10202.98
661.947	10135.4
662.139	10092.39
662.331	10030.95
662.522	10057.57
662.714	9877.35
662.906	9746.28
663.097	10043.24
663.289	9725.8
663.481	9670.51
663.673	9809.77
663.864	9613.17
664.056	9686.89
664.247	9607.02
664.439	9373.55
664.631	9678.7
664.822	9551.73
665.014	9344.88
665.205	9299.83
665.397	9148.28
665.588	9334.64
665.78	9033.59
665.971	9187.19
666.163	9029.49
666.354	9033.59
666.546	8974.2
666.737	8673.15
666.929	8867.7
667.12	8933.24
667.311	8863.61
667.503	8843.13
667.694	8810.36
667.885	8685.44
668.077	8521.6
668.268	8474.49
668.459	8406.91
668.651	8617.85
668.842	8341.38
669.033	8265.6
669.224	8425.34
669.416	8398.72
669.607	8415.1
669.798	8112
669.989	8247.17
670.18	8120.2
670.371	8085.38
670.563	8095.62
670.754	8163.2
670.945	7995.27
671.136	8144.77
671.327	7870.34
671.518	7909.26
671.709	7784.33
671.9	7880.58
672.091	7741.32
672.282	7683.98
672.473	7903.11
672.664	7903.11
672.855	7624.59
673.046	7593.87
673.237	7731.08
673.428	7481.23
673.619	7597.96
673.809	7475.09
674	7591.82
674.191	7329.68
674.382	7427.98
674.573	7524.24
674.764	7438.22
674.954	7339.92
675.145	7221.14
675.336	7264.15
675.527	7272.34
675.717	7395.22
675.908	7286.67
676.099	7069.59
676.289	7137.17
676.48	7180.18
676.671	7081.88
676.861	7040.92
677.052	6952.85
677.243	6801.3
677.433	7028.63
677.624	6840.22
677.814	6909.85
678.005	6915.99
678.195	6897.56
678.386	6860.7
678.576	6938.52
678.767	6750.1
678.957	6905.75
679.148	6889.37
679.338	6913.94
679.529	6821.78
679.719	6612.89
679.909	6823.83
680.1	6743.96
680.29	6629.27
680.481	6655.9
680.671	6559.64
680.861	6559.64
681.052	6584.22
681.242	6565.79
681.432	6813.59
681.622	6608.8
681.813	6510.49
682.003	6553.5
682.193	6698.91
682.383	6680.47
682.573	6696.86
682.764	6469.53
682.954	6606.75
683.144	6393.76
683.334	6240.16
683.524	6395.81
683.714	6328.22
683.904	6399.9
684.094	6598.56
684.284	6379.42
684.474	6412.19
684.664	6268.83
684.854	6293.41
685.044	6360.99
685.234	6311.84
685.424	6328.22
685.614	6176.67
685.804	6148
685.994	6371.23
686.184	6199.2
686.374	6332.32
686.564	6143.91
686.753	6236.06
686.943	5914.53
687.133	6021.03
687.323	6174.63
687.513	6033.32
687.702	6117.28
687.892	6184.87
688.082	6018.98
688.272	5910.44
688.461	5900.2
688.651	5975.97
688.841	5853.09
689.03	5803.94
689.22	5810.09
689.41	5965.73
689.599	5748.65
689.789	5762.98
689.979	5738.41
690.168	5658.54
690.358	5719.98
690.547	5826.47
690.737	5754.79
690.926	5877.67
691.116	5560.24
691.305	5593
691.495	5521.32
691.684	5660.59
691.874	5543.85
692.063	5597.1
692.252	5472.17
692.442	5535.66
692.631	5388.21
692.82	5476.27
693.01	5449.64
693.199	5322.67
693.388	5246.9
693.578	5451.69
693.767	5451.69
693.956	5377.97
694.146	5255.09
694.335	5214.13
694.524	5179.31
694.713	5220.27
694.902	5308.33
695.092	5435.31
695.281	4958.13
695.47	5121.97
695.659	5183.41
695.848	5027.76
696.037	5191.6
696.226	5197.74
696.415	5054.39
696.604	5205.94
696.793	5154.74
696.982	5156.79
697.171	4896.69
697.36	5064.63
697.549	4919.22
697.738	4923.32
697.927	4935.6
698.116	4882.36
698.305	4872.12
698.494	4888.5
698.683	4804.53
698.872	4902.84
699.061	4984.76
699.25	4820.92
699.438	4927.41
699.627	4853.69
699.816	5040.05
700.005	4757.43
700.193	4693.94
700.382	4741.05
700.571	4706.23
700.76	4609.98
700.948	4757.43
701.137	4661.18
701.326	4659.13
701.514	4538.3
701.703	4655.03
701.892	4546.49
702.08	4714.42
702.269	4554.68
702.457	4517.82
702.646	4501.44
702.834	4536.25
703.023	4640.7
703.212	4423.61
703.4	4593.59
703.589	4374.46
703.777	4489.15
703.965	4243.39
704.154	4247.49
704.342	4421.56
704.531	4362.17
704.719	4321.21
704.907	4460.48
705.096	4245.44
705.284	4304.83
705.472	4411.32
705.661	4374.46
705.849	4390.84
706.037	4403.13
706.226	4468.67
706.414	4229.06
706.602	4263.87
706.79	4261.82
706.979	4138.94
707.167	4181.95
707.355	4040.64
707.543	4157.38
707.731	4208.58
707.919	4104.13
708.107	4106.18
708.296	3952.58
708.484	3848.13
708.672	3930.05
708.86	3993.54
709.048	4143.04
709.236	3917.76
709.424	4143.04
709.612	3876.8
709.8	3878.85
709.988	3897.28
710.176	3878.85
710.364	3960.77
710.551	3938.24
710.739	3807.17
710.927	3780.55
711.115	3829.7
711.303	3778.5
711.491	3803.08
711.679	3868.61
711.866	3846.09
712.054	3815.37
712.242	3751.88
712.43	3817.41
712.617	3874.76
712.805	3719.11
712.993	3760.07
713.181	3672.01
713.368	3700.68
713.556	3637.19
713.744	3545.03
713.931	3741.64
714.119	3651.53
714.306	3741.64
714.494	3594.19
714.682	3491.79
714.869	3596.23
715.057	3569.61
715.244	3420.11
715.432	3624.9
715.619	3624.9
715.807	3473.35
715.994	3583.95
716.182	3411.92
716.369	3405.77
716.556	3444.68
716.744	3475.4
716.931	3452.88
717.119	3461.07
717.306	3461.07
717.493	3420.11
717.681	3280.85
717.868	3366.86
718.055	3323.85
718.242	3297.23
718.43	3284.94
718.617	3323.85
718.804	3409.87
718.991	3317.71
719.179	3289.04
719.366	3381.2
719.553	3147.73
719.74	3225.55
719.927	3301.33
720.114	3250.13
720.301	3207.12
720.488	3231.69
720.676	3229.65
720.863	3211.21
721.05	3293.13
721.237	3239.89
721.424	3076.05
721.611	3094.48
721.798	3137.49
721.985	3104.72
722.172	3160.02
722.358	3004.37
722.545	3108.82
722.732	3047.38
722.919	3198.93
723.106	3012.56
723.293	2990.03
723.48	3018.71
723.667	3033.04
723.853	2961.36
724.04	3100.62
724.227	3045.33
724.414	2867.16
724.6	2920.4
724.787	2949.07
724.974	2938.84
725.161	2928.6
725.347	2826.2
725.534	2899.92
725.72	2944.98
725.907	2760.66
726.094	3010.51
726.28	2830.29
726.467	2752.47
726.653	2813.91
726.84	2867.16
727.027	2865.11
727.213	2879.44
727.4	2867.16
727.586	2830.29
727.773	2760.66
727.959	2838.48
728.145	2744.28
728.332	2736.09
728.518	2871.25
728.705	2791.38
728.891	2768.85
729.077	2781.14
729.264	2650.07
729.45	2793.43
729.636	2801.62
729.823	2723.8
730.009	2731.99
730.195	2666.46
730.382	2744.28
730.568	2594.78
730.754	2596.82
730.94	2584.54
731.126	2674.65
731.313	2625.5
731.499	2658.26
731.685	2551.77
731.871	2727.89
732.057	2588.63
732.243	2691.03
732.429	2617.3
732.615	2609.11
732.801	2584.54
732.987	2557.91
733.173	2586.58
733.359	2543.58
733.545	2645.98
733.731	2584.54
733.917	2555.86
734.103	2656.22
734.289	2453.47
734.475	2418.65
734.661	2375.64
734.847	2496.47
735.033	2437.08
735.219	2478.04
735.404	2428.89
735.59	2457.56
735.776	2412.51
735.962	2488.28
736.148	2492.38
736.333	2396.12
736.519	2363.36
736.705	2310.11
736.89	2406.36
737.076	2373.6
737.262	2336.73
737.447	2410.46
737.633	2201.57
737.819	2326.49
738.004	2371.55
738.19	2271.2
738.375	2256.86
738.561	2297.82
738.747	2381.79
738.932	2215.9
739.118	2342.88
739.303	2355.16
739.489	2256.86
739.674	2203.61
739.859	2234.33
740.045	2289.63
740.23	2314.2
740.416	2199.52
740.601	2179.04
740.786	2179.04
740.972	2203.61
741.157	2246.62
741.342	2078.69
741.528	2203.61
741.713	2314.2
741.898	2047.97
742.084	2105.31
742.269	2072.54
742.454	2148.32
742.639	2133.98
742.824	2166.75
743.01	2154.46
743.195	2160.61
743.38	2125.79
743.565	2084.83
743.75	2117.6
743.935	2052.06
744.12	2011.11
744.305	2009.06
744.49	1988.58
744.675	1996.77
744.86	2021.35
745.045	2000.87
745.23	1859.56
745.415	1996.77
745.6	1912.8
745.785	1914.85
745.97	2084.83
746.155	1925.09
746.34	2039.78
746.525	1943.52
746.71	1970.15
746.895	1916.9
747.079	1920.99
747.264	1888.23
747.449	1841.12
747.634	1826.79
747.819	1759.21
748.003	1814.5
748.188	1671.14
748.373	1718.25
748.557	1708.01
748.742	1791.97
748.927	1671.14
749.111	1687.53
749.296	1683.43
749.481	1708.01
749.665	1718.25
749.85	1701.86
750.034	1701.86
750.219	1650.66
750.404	1685.48
750.588	1728.49
750.773	1585.13
750.957	1609.7
751.141	1535.98
751.326	1558.5
751.51	1716.2
751.695	1621.99
751.879	1632.23
752.064	1642.47
752.248	1576.94
752.432	1658.85
752.617	1519.59
752.801	1429.48
752.985	1509.35
753.17	1404.91
753.354	1488.87
753.538	1470.44
753.722	1415.15
753.907	1538.02
754.091	1275.88
754.275	1456.11
754.459	1431.53
754.643	1372.14
754.828	1474.54
755.012	1322.99
755.196	1368.04
755.38	1341.42
755.564	1298.41
755.748	1339.37
755.932	1312.75
756.116	1310.7
756.3	1398.76
756.484	1388.52
756.668	1318.89
756.852	1257.45
757.036	1316.84
757.22	1316.84
757.404	1273.84
757.588	1257.45
757.772	1220.59
757.956	1265.64
758.14	1208.3
758.323	1239.02
758.507	1150.96
758.691	1249.26
758.875	1351.66
759.059	1226.73
759.242	1261.55
759.426	1103.86
759.61	1173.49
759.794	1185.77
759.977	1224.69
760.161	1232.88
760.345	1257.45
760.528	1144.81
760.712	1200.11
760.895	1136.62
761.079	1087.47
761.263	1097.71
761.446	1110
761.63	1040.37
761.813	1159.15
761.997	1085.42
762.18	1134.57
762.364	1118.19
762.547	991.22
762.731	1138.67
762.914	1046.51
763.098	1036.27
763.281	1093.62
763.464	1077.23
763.648	1034.22
763.831	1052.66
764.015	1040.37
764.198	1019.89
764.381	905.2
764.564	997.36
764.748	964.59
764.931	1038.32
765.114	1099.76
765.297	1019.89
765.481	921.59
765.664	976.88
765.847	980.98
766.03	942.07
766.213	950.26
766.397	950.26
766.58	954.35
766.763	958.45
766.946	978.93
767.129	1064.94
767.312	905.2
767.495	964.59
767.678	948.21
767.861	958.45
768.044	913.39
768.227	921.59
768.41	923.63
768.593	960.5
768.776	970.74
768.959	872.43
769.142	935.92
769.324	962.55
769.507	876.53
769.69	978.93
769.873	884.72
770.056	970.74
770.239	997.36
770.421	962.55
770.604	935.92
770.787	882.67
770.97	983.02
771.152	823.28
771.335	894.96
771.518	888.82
771.7	839.67
771.883	880.63
772.066	788.47
772.248	868.34
772.431	856.05
772.613	792.56
772.796	829.43
772.978	782.32
773.161	843.76
773.343	827.38
773.526	776.18
773.708	792.56
773.891	839.67
774.073	778.23
774.256	681.97
774.438	882.67
774.621	696.31
774.803	774.13
774.985	749.56
775.168	823.28
775.35	802.8
775.532	784.37
775.715	645.11
775.897	751.6
776.079	618.49
776.261	716.79
776.444	733.17
776.626	694.26
776.808	739.32
776.99	698.36
777.173	757.75
777.355	700.41
777.537	722.93
777.719	753.65
777.901	684.02
778.083	727.03
778.265	684.02
778.447	733.17
778.629	651.25
778.811	624.63
778.993	643.06
779.175	686.07
779.357	667.64
779.539	581.62
779.721	604.15
779.903	667.64
780.085	720.88
780.267	651.25
780.449	733.17
780.631	622.58
780.812	710.65
780.994	653.3
781.176	585.72
781.358	575.48
781.54	622.58
781.721	593.91
781.903	595.96
782.085	569.34
782.267	634.87
782.448	493.56
782.63	610.29
782.812	647.16
782.993	497.66
783.175	544.76
783.357	626.68
783.538	511.99
783.72	483.32
783.901	577.53
784.083	626.68
784.264	524.28
784.446	434.17
784.627	489.46
784.809	540.66
784.99	522.23
785.172	577.53
785.353	524.28
785.535	471.03
785.716	522.23
785.897	473.08
786.079	489.46
786.26	413.69
786.441	442.36
786.623	460.79
786.804	532.47
786.985	458.74
787.167	495.61
787.348	466.94
787.529	380.92
787.71	487.42
787.891	456.7
788.073	315.39
788.254	421.88
788.435	565.24
788.616	407.55
788.797	454.65
788.978	423.93
789.159	471.03
789.34	409.59
789.522	438.27
789.703	389.11
789.884	393.21
790.065	446.46
790.246	471.03
790.427	425.98
790.607	462.84
790.788	360.44
790.969	389.11
791.15	374.78
791.331	344.06
791.512	325.63
791.693	339.96
791.874	389.11
792.054	382.97
792.235	360.44
792.416	282.62
792.597	315.39
792.778	430.07
792.958	380.92
793.139	301.05
793.32	364.54
793.5	296.96
793.681	409.59
793.862	344.06
794.042	319.48
794.223	299
794.404	348.15
794.584	301.05
794.765	331.77
794.945	315.39
795.126	307.2
795.306	290.81
795.487	331.77
795.667	382.97
795.848	348.15
796.028	270.33
796.209	313.34
796.389	268.28
796.57	301.05
796.75	229.37
796.93	325.63
797.111	223.23
797.291	217.08
797.471	309.24
797.652	276.48
797.832	358.39
798.012	299
798.192	217.08
798.373	249.85
798.553	294.91
798.733	272.38
798.913	266.24
799.093	249.85
799.274	344.06
799.454	249.85
799.634	294.91
799.814	288.76
799.994	282.62
800.174	282.62
800.354	299
800.534	290.81
800.714	299
800.894	274.43
801.074	233.47
801.254	194.56
801.434	241.66
801.614	221.18
801.794	241.66
801.974	897.01
802.154	270.33
802.334	233.47
802.514	245.76
802.693	258.04
802.873	249.85
803.053	301.05
803.233	217.08
803.413	368.63
803.592	284.67
803.772	225.28
803.952	200.7
804.131	241.66
804.311	235.52
804.491	194.56
804.67	208.89
804.85	241.66
805.03	202.75
805.209	294.91
805.389	188.41
805.568	296.96
805.748	217.08
805.928	241.66
806.107	274.43
806.287	180.22
806.466	198.65
806.646	178.17
806.825	204.8
807.004	215.04
807.184	217.08
807.363	245.76
807.543	167.93
807.722	210.94
807.901	184.32
808.081	235.52
808.26	184.32
808.439	251.9
808.619	188.41
808.798	266.24
808.977	184.32
809.156	204.8
809.336	161.79
809.515	167.93
809.694	151.55
809.873	100.35
810.052	190.46
810.231	176.13
810.411	172.03
810.59	167.93
810.769	186.37
810.948	233.47
811.127	102.4
811.306	163.84
811.485	184.32
811.664	229.37
811.843	200.7
812.022	208.89
812.201	241.66
812.38	126.97
812.559	163.84
812.737	180.22
812.916	98.3
813.095	180.22
813.274	196.6
813.453	272.38
813.632	137.21
813.811	227.32
813.989	178.17
814.168	135.17
814.347	110.59
814.526	180.22
814.704	208.89
814.883	208.89
815.062	73.73
815.24	196.6
815.419	147.45
815.598	206.84
815.776	114.69
815.955	145.41
816.133	178.17
816.312	200.7
816.49	176.13
816.669	137.21
816.847	86.01
817.026	88.06
817.204	159.74
817.383	163.84
817.561	129.02
817.74	129.02
817.918	145.41
818.097	180.22
818.275	69.63
818.453	227.32
818.632	167.93
818.81	133.12
818.988	114.69
819.167	65.53
819.345	167.93
819.523	126.97
819.701	118.78
819.879	194.56
820.058	114.69
820.236	206.84
820.414	63.49
820.592	90.11
820.77	141.31
820.948	172.03
821.127	71.68
821.305	208.89
821.483	67.58
821.661	184.32
821.839	122.88
822.017	75.77
822.195	118.78
822.373	178.17
822.551	86.01
822.729	176.13
822.907	90.11
823.085	184.32
823.262	118.78
823.44	145.41
823.618	178.17
823.796	79.87
823.974	102.4
824.152	143.36
824.329	163.84
824.507	65.53
824.685	139.26
824.863	67.58
825.04	112.64
825.218	163.84
825.396	110.59
825.574	178.17
825.751	124.93
825.929	135.17
826.107	96.25
826.284	104.45
826.462	36.86
826.639	69.63
826.817	114.69
826.994	157.69
827.172	20.48
827.349	172.03
827.527	116.73
827.704	206.84
827.882	65.53
828.059	122.88
828.237	32.77
828.414	172.03
828.591	63.49
828.769	137.21
828.946	81.92
829.124	100.35
829.301	133.12
829.478	153.6
829.655	69.63
829.833	57.34
830.01	10.24
830.187	108.54
830.364	86.01
830.542	88.06
830.719	88.06
830.896	153.6
831.073	45.06
831.25	106.49
831.427	77.82
831.604	114.69
831.782	86.01
831.959	88.06
832.136	61.44
832.313	-0
832.49	49.15
832.667	28.67
832.844	-2.05
833.021	192.51
833.198	63.49
833.374	122.88
833.551	96.25
833.728	57.34
833.905	118.78
834.082	2.05
834.259	73.73
834.436	59.39
834.612	114.69
834.789	45.06
834.966	86.01
835.143	77.82
835.319	36.86
835.496	118.78
835.673	55.3
835.85	86.01
836.026	104.45
836.203	88.06
836.38	77.82
836.556	47.1
836.733	28.67
836.909	110.59
837.086	-49.15
837.262	53.25
837.439	102.4
837.616	-12.29
837.792	14.34
837.968	57.34
838.145	10.24
838.321	110.59
838.498	20.48
838.674	139.26
838.851	-10.24
839.027	53.25
839.203	77.82
839.38	94.21
839.556	104.45
839.732	73.73
839.909	147.45
840.085	137.21
840.261	6.14
840.437	45.06
840.614	79.87
840.79	151.55
840.966	129.02
841.142	86.01
841.318	116.73
841.494	102.4
841.671	118.78
841.847	-12.29
842.023	20.48
842.199	49.15
842.375	88.06
842.551	40.96
842.727	73.73
842.903	69.63
843.079	-4.1
843.255	79.87
843.431	16.38
843.607	108.54
843.783	20.48
843.959	114.69
844.134	-4.1
844.31	102.4
844.486	47.1
844.662	36.86
844.838	49.15
845.013	16.38
845.189	-51.2
845.365	47.1
845.541	-32.77
845.716	12.29
845.892	106.49
846.068	22.53
846.244	55.3
846.419	77.82
846.595	2.05
846.77	63.49
846.946	110.59
847.122	73.73
847.297	-34.82
847.473	92.16
847.648	30.72
847.824	83.97
847.999	24.58
848.175	104.45
848.35	63.49
848.526	43.01
848.701	112.64
848.876	45.06
849.052	67.58
849.227	71.68
849.403	20.48
849.578	-4.1
849.753	22.53
849.929	40.96
850.104	-14.34
850.279	38.91
850.454	20.48
850.63	53.25
850.805	14.34
850.98	22.53
851.155	61.44
851.33	88.06
851.505	28.67
851.681	112.64
851.856	49.15
852.031	20.48
852.206	65.53
852.381	22.53
852.556	-18.43
852.731	47.1
852.906	71.68
853.081	59.39
853.256	73.73
853.431	45.06
853.606	61.44
853.781	-20.48
853.956	53.25
854.131	53.25
854.305	-49.15
854.48	22.53
854.655	-10.24
854.83	88.06
855.005	-12.29
855.18	83.97
855.354	34.82
855.529	14.34
855.704	-32.77
855.879	45.06
856.053	47.1
856.228	69.63
856.403	8.19
856.577	30.72
856.752	-26.62
856.926	126.97
857.101	8.19
857.276	61.44
857.45	-28.67
857.625	81.92
857.799	-18.43
857.974	2.05
858.148	-53.25
858.323	122.88
858.497	-4.1
858.672	-28.67
858.846	49.15
859.02	77.82
859.195	-28.67
859.369	-4.1
859.543	53.25
859.718	94.21
859.892	45.06
860.066	32.77
860.241	47.1
860.415	-43.01
860.589	57.34
860.763	-4.1
860.938	12.29
861.112	49.15
861.286	-26.62
861.46	-22.53
861.634	116.73
861.808	-14.34
861.982	-55.3
862.157	10.24
862.331	53.25
862.505	22.53
862.679	69.63
862.853	-36.86
863.027	10.24
863.201	45.06
863.375	4.1
863.549	26.62
863.722	-4.1
863.896	40.96
864.07	-0
864.244	77.82
864.418	-10.24
864.592	96.25
864.766	12.29
864.939	-10.24
865.113	-69.63
865.287	28.67
865.461	-12.29
865.634	40.96
865.808	90.11
865.982	-36.86
866.156	-16.38
866.329	20.48
866.503	-4.1
866.676	73.73
866.85	-26.62
867.024	-32.77
867.197	26.62
867.371	2.05
867.544	-20.48
867.718	36.86
867.891	40.96
868.065	36.86
868.238	-28.67
868.412	77.82
868.585	20.48
868.759	-83.97
868.932	51.2
869.105	-20.48
869.279	6.14
869.452	-45.06
869.625	30.72
869.799	6.14
869.972	22.53
870.145	-34.82
870.319	45.06
870.492	22.53
870.665	14.34
870.838	51.2
871.011	12.29
871.185	45.06
871.358	-45.06
871.531	53.25
871.704	32.77
871.877	8.19
872.05	28.67
872.223	24.58
872.396	61.44
872.569	45.06
872.742	2.05
872.915	4.1
873.088	10.24
873.261	-43.01
873.434	110.59
873.607	73.73
873.78	69.63
873.953	-36.86
874.126	30.72
874.299	-20.48
874.471	45.06
874.644	-32.77
874.817	69.63
874.99	55.3
875.163	10.24
875.335	71.68
875.508	32.77
875.681	36.86
875.853	71.68
876.026	30.72
876.199	69.63
876.371	14.34
876.544	-22.53
876.717	69.63
876.889	-30.72
877.062	53.25
877.234	-100.35
877.407	-24.58
877.579	-18.43
877.752	28.67
877.924	32.77
878.097	4.1
878.269	63.49
878.442	-32.77
878.614	4.1
878.786	-12.29
878.959	28.67
879.131	30.72
879.303	-45.06
879.476	-20.48
879.648	53.25
879.82	-24.58
879.993	8.19
880.165	4.1
880.337	-8.19
880.509	-10.24
880.681	-65.54
880.854	-0
881.026	53.25
881.198	65.53
881.37	6.14
881.542	59.39
881.714	73.73
881.886	-0
882.058	-10.24
882.23	-57.34
882.402	-6.14
882.574	20.48
882.746	36.86
882.918	51.2
883.09	24.58
883.262	-24.58
883.434	32.77
883.606	-43.01
883.778	34.82
883.95	69.63
884.122	-18.43
884.293	-34.82
884.465	53.25
884.637	94.21
884.809	-59.39
884.98	45.06
885.152	6.14
885.324	28.67
885.496	-53.25
885.667	28.67
885.839	2.05
886.011	-28.67
886.182	34.82
886.354	45.06
886.525	-94.21
886.697	75.77
886.869	18.43
887.04	-45.06
887.212	65.53
887.383	77.82
887.555	-6.14
887.726	-77.82
887.897	-14.34
888.069	-4.1
888.24	14.34
888.412	22.53
888.583	4.1
888.754	14.34
888.926	-75.77
889.097	-10.24
889.268	-24.58
889.44	-24.58
889.611	16.38
889.782	45.06
889.953	26.62
890.125	69.63
890.296	-49.15
890.467	-65.54
890.638	32.77
890.809	8.19
890.98	-32.77
891.151	4.1
891.323	12.29
891.494	47.1
891.665	-10.24
891.836	-0
892.007	-36.86
892.178	8.19
892.349	-20.48
892.52	53.25
892.691	12.29
892.862	-28.67
893.032	-6.14
893.203	4.1
893.374	-40.96
893.545	20.48
893.716	-40.96
893.887	-49.15
894.057	55.3
894.228	-45.06
894.399	-61.44
894.57	14.34
894.74	-12.29
894.911	18.43
895.082	-28.67
895.253	10.24
895.423	8.19
895.594	73.73
895.764	-69.63
895.935	4.1
896.106	32.77
896.276	43.01
896.447	-53.25
896.617	-53.25
896.788	-49.15
896.958	-40.96
897.129	55.3
897.299	-4.1
897.47	-45.06
897.64	-12.29
897.81	-81.92
897.981	-40.96
898.151	22.53
898.322	-43.01
898.492	49.15
898.662	-12.29
898.832	-0
899.003	49.15
899.173	-4.1
899.343	-40.96
899.513	-20.48
