Data from USB4F104151__303__14-34-59-721.txt Node

Date: Thu Mar 13 14:34:59 EDT 2025
User: louis
Spectrometer: USB4F10415
Trigger mode: 4
Integration Time (sec): 2.500000E-2
Scans to average: 1
Electric dark correction enabled: true
Nonlinearity correction enabled: false
Boxcar width: 0
XAxis mode: Wavelengths
Number of Pixels in Spectrum: 3648
>>>>>Begin Spectral Data<<<<<
178.204	-91.99
178.424	-91.99
178.644	-91.99
178.864	-132.95
179.084	-51.03
179.304	-34.64
179.524	-51.03
179.744	4.27
179.964	-1.88
180.184	-8.02
180.404	24.75
180.624	18.6
180.844	-20.31
181.064	6.31
181.283	147.62
181.503	-116.56
181.723	30.89
181.943	-1.88
182.163	98.47
182.383	14.51
182.602	59.56
182.822	51.37
183.042	18.6
183.262	88.23
183.482	51.37
183.701	6.31
183.921	0.17
184.141	-12.12
184.361	88.23
184.58	4.27
184.8	10.41
185.02	30.89
185.239	20.65
185.459	59.56
185.679	73.9
185.898	49.32
186.118	92.33
186.338	2.22
186.557	59.56
186.777	34.99
186.997	12.46
187.216	14.51
187.436	92.33
187.655	55.47
187.875	12.46
188.095	47.27
188.314	47.27
188.534	114.86
188.753	-40.79
188.973	94.38
189.192	198.82
189.412	90.28
189.631	63.66
189.851	32.94
190.07	61.61
190.29	30.89
190.509	18.6
190.729	63.66
190.948	49.32
191.168	170.15
191.387	82.09
191.607	-48.98
191.826	71.85
192.045	22.7
192.265	67.75
192.484	55.47
192.704	96.43
192.923	-22.36
193.142	153.77
193.362	71.85
193.581	51.37
193.8	30.89
194.02	88.23
194.239	47.27
194.458	121
194.678	-26.45
194.897	65.71
195.116	0.17
195.335	82.09
195.555	24.75
195.774	-24.4
195.993	26.79
196.212	75.95
196.432	41.13
196.651	67.75
196.87	26.79
197.089	151.72
197.308	73.9
197.528	57.51
197.747	18.6
197.966	26.79
198.185	106.67
198.404	18.6
198.623	39.08
198.842	16.55
199.062	80.04
199.281	106.67
199.5	6.31
199.719	14.51
199.938	67.75
200.157	49.32
200.376	125.1
200.595	108.71
200.814	98.47
201.033	-5.97
201.252	94.38
201.471	63.66
201.69	96.43
201.909	73.9
202.128	49.32
202.347	49.32
202.566	24.75
202.785	65.71
203.004	26.79
203.223	180.39
203.442	57.51
203.661	45.23
203.879	6.31
204.098	98.47
204.317	-51.03
204.536	137.38
204.755	2.22
204.974	71.85
205.193	49.32
205.411	80.04
205.63	18.6
205.849	104.62
206.068	49.32
206.287	67.75
206.505	67.75
206.724	26.79
206.943	39.08
207.162	51.37
207.381	22.7
207.599	6.31
207.818	77.99
208.037	30.89
208.255	45.23
208.474	80.04
208.693	2.22
208.911	43.18
209.13	26.79
209.349	112.81
209.567	30.89
209.786	49.32
210.005	6.31
210.223	59.56
210.442	-36.69
210.661	67.75
210.879	114.86
211.098	39.08
211.316	-59.22
211.535	106.67
211.753	67.75
211.972	88.23
212.191	30.89
212.409	63.66
212.628	106.67
212.846	41.13
213.065	30.89
213.283	-10.07
213.502	67.75
213.72	63.66
213.938	-10.07
214.157	-1.88
214.375	30.89
214.594	57.51
214.812	47.27
215.031	-16.21
215.249	-59.22
215.467	6.31
215.686	88.23
215.904	86.19
216.122	8.36
216.341	10.41
216.559	67.75
216.778	82.09
216.996	104.62
217.214	2.22
217.432	63.66
217.651	96.43
217.869	30.89
218.087	32.94
218.306	-22.36
218.524	45.23
218.742	0.17
218.96	43.18
219.179	88.23
219.397	37.03
219.615	61.61
219.833	104.62
220.051	-30.55
220.27	153.77
220.488	-18.26
220.706	73.9
220.924	16.55
221.142	32.94
221.36	55.47
221.578	104.62
221.796	-1.88
222.015	22.7
222.233	55.47
222.451	98.47
222.669	-18.26
222.887	116.9
223.105	16.55
223.323	14.51
223.541	26.79
223.759	55.47
223.977	14.51
224.195	57.51
224.413	71.85
224.631	-1.88
224.849	-5.97
225.067	118.95
225.285	-30.55
225.503	18.6
225.721	-48.98
225.939	14.51
226.157	-16.21
226.375	125.1
226.592	-10.07
226.81	123.05
227.028	88.23
227.246	116.9
227.464	39.08
227.682	49.32
227.9	88.23
228.117	88.23
228.335	53.42
228.553	131.24
228.771	32.94
228.989	73.9
229.206	18.6
229.424	108.71
229.642	45.23
229.86	-42.84
230.077	71.85
230.295	-26.45
230.513	82.09
230.731	82.09
230.948	34.99
231.166	82.09
231.384	-44.88
231.601	49.32
231.819	80.04
232.037	24.75
232.254	75.95
232.472	69.8
232.689	0.17
232.907	75.95
233.125	-18.26
233.342	43.18
233.56	55.47
233.777	75.95
233.995	51.37
234.213	51.37
234.43	53.42
234.648	65.71
234.865	-1.88
235.083	127.14
235.3	16.55
235.518	98.47
235.735	71.85
235.953	104.62
236.17	49.32
236.388	-26.45
236.605	30.89
236.822	73.9
237.04	69.8
237.257	71.85
237.475	0.17
237.692	30.89
237.909	8.36
238.127	37.03
238.344	108.71
238.562	53.42
238.779	14.51
238.996	75.95
239.214	47.27
239.431	47.27
239.648	6.31
239.865	34.99
240.083	114.86
240.3	57.51
240.517	108.71
240.735	65.71
240.952	108.71
241.169	53.42
241.386	6.31
241.603	47.27
241.821	6.31
242.038	39.08
242.255	-10.07
242.472	26.79
242.689	112.81
242.907	139.43
243.124	24.75
243.341	39.08
243.558	24.75
243.775	-32.6
243.992	14.51
244.209	30.89
244.426	157.86
244.643	73.9
244.86	-18.26
245.078	82.09
245.295	51.37
245.512	82.09
245.729	45.23
245.946	69.8
246.163	43.18
246.38	55.47
246.597	-3.93
246.814	24.75
247.031	108.71
247.248	47.27
247.464	116.9
247.681	73.9
247.898	69.8
248.115	112.81
248.332	-8.02
248.549	98.47
248.766	108.71
248.983	98.47
249.2	30.89
249.417	73.9
249.633	55.47
249.85	80.04
250.067	-3.93
250.284	57.51
250.501	108.71
250.717	41.13
250.934	55.47
251.151	34.99
251.368	-8.02
251.585	16.55
251.801	104.62
252.018	-16.21
252.235	82.09
252.451	-32.6
252.668	84.14
252.885	20.65
253.102	90.28
253.318	75.95
253.535	26.79
253.752	30.89
253.968	12.46
254.185	94.38
254.401	24.75
254.618	123.05
254.835	-55.12
255.051	104.62
255.268	96.43
255.484	96.43
255.701	-18.26
255.917	47.27
256.134	12.46
256.351	65.71
256.567	28.84
256.784	41.13
257	-51.03
257.217	-32.6
257.433	41.13
257.65	22.7
257.866	84.14
258.082	14.51
258.299	0.17
258.515	26.79
258.732	8.36
258.948	34.99
259.165	116.9
259.381	18.6
259.597	0.17
259.814	6.31
260.03	-18.26
260.246	6.31
260.463	75.95
260.679	65.71
260.895	22.7
261.112	61.61
261.328	41.13
261.544	30.89
261.761	49.32
261.977	-42.84
262.193	-44.88
262.409	39.08
262.626	63.66
262.842	6.31
263.058	22.7
263.274	39.08
263.49	80.04
263.707	110.76
263.923	49.32
264.139	-81.75
264.355	4.27
264.571	118.95
264.787	71.85
265.004	88.23
265.22	75.95
265.436	-3.93
265.652	80.04
265.868	49.32
266.084	-30.55
266.3	67.75
266.516	8.36
266.732	92.33
266.948	-10.07
267.164	-24.4
267.38	67.75
267.596	16.55
267.812	153.77
268.028	63.66
268.244	8.36
268.46	24.75
268.676	8.36
268.892	-5.97
269.108	30.89
269.324	6.31
269.54	-5.97
269.756	100.52
269.972	6.31
270.188	75.95
270.403	75.95
270.619	16.55
270.835	67.75
271.051	47.27
271.267	6.31
271.483	22.7
271.698	57.51
271.914	112.81
272.13	47.27
272.346	-51.03
272.562	63.66
272.777	88.23
272.993	-8.02
273.209	47.27
273.425	8.36
273.64	16.55
273.856	-16.21
274.072	2.22
274.287	-48.98
274.503	22.7
274.719	104.62
274.934	39.08
275.15	26.79
275.366	6.31
275.581	-18.26
275.797	92.33
276.012	77.99
276.228	63.66
276.444	69.8
276.659	39.08
276.875	49.32
277.09	39.08
277.306	57.51
277.521	47.27
277.737	30.89
277.952	112.81
278.168	2.22
278.383	51.37
278.599	49.32
278.814	39.08
279.03	65.71
279.245	84.14
279.461	75.95
279.676	116.9
279.892	47.27
280.107	8.36
280.322	47.27
280.538	47.27
280.753	18.6
280.969	18.6
281.184	30.89
281.399	92.33
281.615	-24.4
281.83	32.94
282.045	0.17
282.26	65.71
282.476	14.51
282.691	22.7
282.906	47.27
283.122	39.08
283.337	53.42
283.552	80.04
283.767	14.51
283.983	67.75
284.198	63.66
284.413	82.09
284.628	12.46
284.843	49.32
285.058	69.8
285.274	18.6
285.489	0.17
285.704	55.47
285.919	39.08
286.134	32.94
286.349	32.94
286.564	14.51
286.779	88.23
286.995	18.6
287.21	43.18
287.425	67.75
287.64	-10.07
287.855	82.09
288.07	43.18
288.285	28.84
288.5	129.19
288.715	41.13
288.93	2.22
289.145	47.27
289.36	73.9
289.575	73.9
289.79	127.14
290.004	-18.26
290.219	55.47
290.434	-55.12
290.649	-36.69
290.864	65.71
291.079	10.41
291.294	-1.88
291.509	49.32
291.724	47.27
291.938	73.9
292.153	80.04
292.368	47.27
292.583	92.33
292.798	116.9
293.012	63.66
293.227	-34.64
293.442	39.08
293.657	82.09
293.871	161.96
294.086	49.32
294.301	71.85
294.516	75.95
294.73	41.13
294.945	-22.36
295.16	14.51
295.374	65.71
295.589	67.75
295.804	39.08
296.018	75.95
296.233	90.28
296.447	28.84
296.662	22.7
296.877	59.56
297.091	47.27
297.306	-5.97
297.52	6.31
297.735	100.52
297.949	22.7
298.164	61.61
298.378	-18.26
298.593	-42.84
298.807	65.71
299.022	-5.97
299.236	53.42
299.451	22.7
299.665	22.7
299.88	-20.31
300.094	30.89
300.309	24.75
300.523	24.75
300.737	39.08
300.952	20.65
301.166	47.27
301.381	-34.64
301.595	71.85
301.809	32.94
302.024	-14.17
302.238	24.75
302.452	22.7
302.667	51.37
302.881	121
303.095	41.13
303.309	88.23
303.524	14.51
303.738	59.56
303.952	6.31
304.166	90.28
304.381	-32.6
304.595	55.47
304.809	30.89
305.023	80.04
305.237	6.31
305.452	-10.07
305.666	22.7
305.88	47.27
306.094	-5.97
306.308	8.36
306.522	55.47
306.736	112.81
306.95	90.28
307.164	6.31
307.379	37.03
307.593	63.66
307.807	137.38
308.021	53.42
308.235	59.56
308.449	24.75
308.663	20.65
308.877	96.43
309.091	55.47
309.305	73.9
309.519	-1.88
309.733	47.27
309.947	30.89
310.161	55.47
310.374	24.75
310.588	59.56
310.802	80.04
311.016	71.85
311.23	30.89
311.444	12.46
311.658	22.7
311.872	47.27
312.085	123.05
312.299	10.41
312.513	80.04
312.727	71.85
312.941	30.89
313.154	141.48
313.368	24.75
313.582	30.89
313.796	104.62
314.009	67.75
314.223	8.36
314.437	45.23
314.651	49.32
314.864	57.51
315.078	34.99
315.292	41.13
315.505	47.27
315.719	112.81
315.933	39.08
316.146	96.43
316.36	4.27
316.573	43.18
316.787	100.52
317.001	129.19
317.214	-42.84
317.428	88.23
317.641	88.23
317.855	73.9
318.068	104.62
318.282	100.52
318.495	47.27
318.709	69.8
318.922	51.37
319.136	41.13
319.349	178.34
319.563	94.38
319.776	102.57
319.99	-91.99
320.203	151.72
320.417	51.37
320.63	75.95
320.843	133.29
321.057	51.37
321.27	-1.88
321.483	73.9
321.697	55.47
321.91	47.27
322.124	77.99
322.337	55.47
322.55	26.79
322.763	-22.36
322.977	67.75
323.19	55.47
323.403	65.71
323.617	100.52
323.83	106.67
324.043	51.37
324.256	82.09
324.469	125.1
324.683	80.04
324.896	104.62
325.109	47.27
325.322	-30.55
325.535	73.9
325.748	34.99
325.962	24.75
326.175	71.85
326.388	73.9
326.601	24.75
326.814	18.6
327.027	8.36
327.24	153.77
327.453	-1.88
327.666	75.95
327.879	39.08
328.092	92.33
328.305	51.37
328.518	55.47
328.731	88.23
328.944	22.7
329.157	94.38
329.37	73.9
329.583	106.67
329.796	26.79
330.009	-24.4
330.222	77.99
330.435	39.08
330.648	121
330.861	-24.4
331.073	39.08
331.286	153.77
331.499	88.23
331.712	39.08
331.925	96.43
332.138	110.76
332.35	137.38
332.563	55.47
332.776	47.27
332.989	10.41
333.202	90.28
333.414	59.56
333.627	2.22
333.84	65.71
334.053	59.56
334.265	47.27
334.478	59.56
334.691	71.85
334.903	39.08
335.116	39.08
335.329	98.47
335.541	24.75
335.754	84.14
335.966	22.7
336.179	30.89
336.392	-30.55
336.604	30.89
336.817	49.32
337.029	90.28
337.242	8.36
337.454	65.71
337.667	-14.17
337.88	100.52
338.092	80.04
338.305	88.23
338.517	-51.03
338.729	100.52
338.942	71.85
339.154	24.75
339.367	8.36
339.579	86.19
339.792	96.43
340.004	-5.97
340.217	49.32
340.429	116.9
340.641	65.71
340.854	10.41
341.066	8.36
341.278	80.04
341.491	129.19
341.703	24.75
341.915	131.24
342.128	45.23
342.34	43.18
342.552	24.75
342.764	39.08
342.977	22.7
343.189	43.18
343.401	6.31
343.613	24.75
343.826	39.08
344.038	-5.97
344.25	63.66
344.462	14.51
344.674	84.14
344.886	73.9
345.099	90.28
345.311	32.94
345.523	18.6
345.735	24.75
345.947	65.71
346.159	-61.27
346.371	65.71
346.583	2.22
346.795	153.77
347.007	10.41
347.219	112.81
347.431	49.32
347.643	26.79
347.855	55.47
348.067	67.75
348.279	47.27
348.491	98.47
348.703	37.03
348.915	98.47
349.127	20.65
349.339	39.08
349.551	121
349.763	-24.4
349.975	41.13
350.187	16.55
350.399	32.94
350.61	114.86
350.822	26.79
351.034	63.66
351.246	112.81
351.458	41.13
351.669	65.71
351.881	80.04
352.093	82.09
352.305	67.75
352.517	67.75
352.728	116.9
352.94	57.51
353.152	26.79
353.363	75.95
353.575	98.47
353.787	90.28
353.999	88.23
354.21	133.29
354.422	57.51
354.633	104.62
354.845	96.43
355.057	12.46
355.268	71.85
355.48	63.66
355.692	112.81
355.903	149.67
356.115	73.9
356.326	14.51
356.538	92.33
356.749	84.14
356.961	71.85
357.172	84.14
357.384	10.41
357.595	121
357.807	71.85
358.018	-14.17
358.23	67.75
358.441	10.41
358.653	-10.07
358.864	61.61
359.075	-18.26
359.287	55.47
359.498	145.58
359.709	92.33
359.921	88.23
360.132	88.23
360.344	32.94
360.555	104.62
360.766	71.85
360.977	43.18
361.189	75.95
361.4	39.08
361.611	98.47
361.823	82.09
362.034	88.23
362.245	18.6
362.456	-34.64
362.667	98.47
362.879	-10.07
363.09	88.23
363.301	51.37
363.512	90.28
363.723	6.31
363.935	63.66
364.146	137.38
364.357	104.62
364.568	41.13
364.779	-3.93
364.99	80.04
365.201	8.36
365.412	129.19
365.623	-48.98
365.834	88.23
366.045	47.27
366.256	71.85
366.467	37.03
366.678	71.85
366.889	47.27
367.1	57.51
367.311	75.95
367.522	14.51
367.733	67.75
367.944	59.56
368.155	-26.45
368.366	112.81
368.577	110.76
368.788	110.76
368.999	51.37
369.209	59.56
369.42	104.62
369.631	186.54
369.842	98.47
370.053	77.99
370.264	104.62
370.474	57.51
370.685	30.89
370.896	-5.97
371.107	143.53
371.317	55.47
371.528	59.56
371.739	63.66
371.95	123.05
372.16	90.28
372.371	-10.07
372.582	55.47
372.792	112.81
373.003	41.13
373.214	24.75
373.424	63.66
373.635	69.8
373.846	30.89
374.056	133.29
374.267	88.23
374.477	43.18
374.688	73.9
374.898	55.47
375.109	71.85
375.319	22.7
375.53	71.85
375.74	80.04
375.951	82.09
376.161	32.94
376.372	157.86
376.582	43.18
376.793	86.19
377.003	100.52
377.214	37.03
377.424	24.75
377.635	67.75
377.845	100.52
378.055	116.9
378.266	32.94
378.476	39.08
378.686	96.43
378.897	65.71
379.107	127.14
379.317	63.66
379.528	73.9
379.738	77.99
379.948	69.8
380.158	57.51
380.369	-24.4
380.579	10.41
380.789	26.79
380.999	139.43
381.21	104.62
381.42	110.76
381.63	96.43
381.84	77.99
382.05	32.94
382.261	96.43
382.471	141.48
382.681	-1.88
382.891	112.81
383.101	135.34
383.311	112.81
383.521	0.17
383.731	80.04
383.941	129.19
384.151	51.37
384.361	14.51
384.571	104.62
384.781	80.04
384.991	104.62
385.201	59.56
385.411	96.43
385.621	108.71
385.831	84.14
386.041	30.89
386.251	55.47
386.461	80.04
386.671	41.13
386.881	39.08
387.091	57.51
387.301	82.09
387.511	22.7
387.72	41.13
387.93	123.05
388.14	65.71
388.35	16.55
388.56	39.08
388.769	141.48
388.979	71.85
389.189	80.04
389.399	88.23
389.609	104.62
389.818	47.27
390.028	100.52
390.238	63.66
390.447	63.66
390.657	116.9
390.867	96.43
391.076	14.51
391.286	114.86
391.496	24.75
391.705	65.71
391.915	108.71
392.125	129.19
392.334	73.9
392.544	194.73
392.753	82.09
392.963	116.9
393.172	73.9
393.382	106.67
393.591	77.99
393.801	88.23
394.01	96.43
394.22	168.1
394.429	39.08
394.639	22.7
394.848	82.09
395.058	131.24
395.267	43.18
395.477	114.86
395.686	45.23
395.895	90.28
396.105	145.58
396.314	32.94
396.524	106.67
396.733	96.43
396.942	194.73
397.152	112.81
397.361	139.43
397.57	106.67
397.78	106.67
397.989	161.96
398.198	104.62
398.407	123.05
398.617	55.47
398.826	51.37
399.035	153.77
399.244	174.25
399.453	98.47
399.663	194.73
399.872	164.01
400.081	108.71
400.29	137.38
400.499	96.43
400.708	94.38
400.917	166.06
401.127	186.54
401.336	141.48
401.545	186.54
401.754	164.01
401.963	153.77
402.172	114.86
402.381	129.19
402.59	116.9
402.799	211.11
403.008	241.83
403.217	153.77
403.426	137.38
403.635	141.48
403.844	121
404.053	108.71
404.262	176.3
404.471	202.92
404.68	219.3
404.888	198.82
405.097	174.25
405.306	227.5
405.515	209.06
405.724	186.54
405.933	186.54
406.142	219.3
406.35	215.21
406.559	254.12
406.768	166.06
406.977	309.41
407.185	225.45
407.394	309.41
407.603	209.06
407.812	288.93
408.02	290.98
408.229	250.02
408.438	325.8
408.646	219.3
408.855	280.74
409.064	295.08
409.272	323.75
409.481	336.04
409.69	321.7
409.898	262.31
410.107	336.04
410.315	391.33
410.524	336.04
410.733	467.11
410.941	438.44
411.15	442.53
411.358	424.1
411.567	510.11
411.775	362.66
411.984	415.91
412.192	485.54
412.401	571.55
412.609	551.07
412.818	632.99
413.026	620.71
413.234	612.51
413.443	596.13
413.651	655.52
413.86	714.91
414.068	723.1
414.276	712.86
414.485	706.72
414.693	794.78
414.901	870.56
415.11	809.12
415.318	893.09
415.526	866.46
415.734	909.47
415.943	911.52
416.151	1063.07
416.359	891.04
416.567	1063.07
416.776	993.44
416.984	1073.31
417.192	1218.71
417.4	1169.56
417.608	1179.8
417.817	1300.63
418.025	1261.72
418.233	1458.32
418.441	1259.67
418.649	1405.08
418.857	1466.52
419.065	1532.05
419.273	1497.24
419.481	1620.11
419.689	1654.93
419.897	1656.98
420.105	1865.87
420.313	1882.25
420.521	1861.77
420.729	1910.93
420.937	1890.45
421.145	1988.75
421.353	2005.13
421.561	2136.2
421.769	2326.66
421.977	2480.26
422.185	2257.03
422.393	2472.07
422.601	2752.64
422.809	2670.72
423.017	2672.77
423.224	2775.17
423.432	2855.04
423.64	2906.24
423.848	3188.86
424.056	3162.23
424.263	3364.98
424.471	3373.18
424.679	3375.22
424.887	3491.96
425.094	3743.86
425.302	3717.23
425.51	3750
425.718	3852.4
425.925	3965.04
426.133	4126.83
426.341	4282.47
426.548	4472.93
426.756	4569.19
426.964	4577.38
427.171	4923.49
427.379	4890.72
427.586	5167.2
427.794	5285.98
428.001	5458.01
428.209	5716.05
428.417	5656.66
428.624	6025.29
428.832	5974.1
429.039	5875.79
429.247	5992.53
429.454	6500.42
429.662	6991.94
429.869	6412.36
430.076	7002.18
430.284	6832.19
430.491	7071.81
430.699	7518.26
430.906	7395.39
431.114	7571.51
431.321	7794.74
431.528	7979.06
431.736	8507.43
431.943	8880.16
432.15	8452.14
432.358	8810.53
432.565	9084.96
432.772	8863.78
432.979	9717.78
433.187	9582.62
433.394	9719.83
433.601	10436.62
433.808	10543.11
434.016	10379.28
434.223	10739.72
434.43	11440.12
434.637	11190.27
434.844	12167.15
435.052	12060.66
435.259	11694.07
435.466	12085.23
435.673	11970.55
435.88	12787.69
436.087	13467.61
436.294	13606.88
436.501	13039.59
436.708	13316.06
436.915	13934.55
437.122	14489.55
437.329	14448.59
437.537	14768.07
437.743	15124.42
437.95	14915.53
438.157	16027.57
438.364	16408.5
438.571	16164.79
438.778	16332.72
438.985	17852.31
439.192	17000.36
439.399	17723.29
439.606	17323.94
439.813	18317.2
440.02	19459.97
440.227	19128.2
440.433	18882.44
440.64	19396.48
440.847	19537.79
441.054	19978.11
441.261	21086.06
441.467	20737.9
441.674	21210.98
441.881	21985.12
442.088	21788.51
442.294	21692.26
442.501	22077.27
442.708	23066.44
442.914	23756.61
443.121	24694.58
443.328	23912.25
443.534	25810.72
443.741	25038.64
443.948	24844.08
444.154	26402.58
444.361	26257.18
444.568	26595.09
444.774	26527.51
444.981	26787.6
445.187	26896.14
445.394	28657.4
445.6	28423.93
445.807	31256.27
446.013	29738.72
446.22	30093.02
446.426	31755.97
446.633	31930.05
446.839	32925.36
447.046	31366.86
447.252	33095.35
447.459	33140.4
447.665	32978.61
447.871	34238.11
448.078	35739.27
448.284	34059.94
448.491	34868.89
448.697	36630.14
448.903	37289.59
449.11	37156.47
449.316	36785.79
449.522	37244.53
449.728	38364.77
449.935	38676.06
450.141	38430.3
450.347	39165.53
450.553	38178.4
450.76	38573.66
450.966	39675.47
451.172	39362.13
451.378	40228.42
451.584	39724.62
451.791	40500.8
451.997	40441.41
452.203	40943.16
452.409	41231.93
452.615	41256.5
452.821	39452.24
453.027	38979.16
453.233	41135.67
453.44	39331.41
453.646	39847.5
453.852	39865.93
454.058	40701.5
454.264	39108.18
454.47	40248.9
454.676	39108.18
454.882	40773.18
455.088	37142.13
455.294	37504.62
455.5	38164.07
455.705	38514.27
455.911	37113.46
456.117	36318.85
456.323	36042.37
456.529	33922.73
456.735	35301.01
456.941	34582.17
457.147	33865.38
457.352	33064.63
457.558	32419.52
457.764	32755.38
457.97	31776.45
458.176	31213.26
458.381	31041.23
458.587	29992.67
458.793	29456.11
458.999	28446.46
459.204	29947.62
459.41	29198.06
459.616	27619.08
459.821	27289.35
460.027	27379.46
460.233	26742.55
460.438	25548.58
460.644	25528.1
460.85	24497.97
461.055	23951.17
461.261	24033.08
461.466	22515.54
461.672	21751.65
461.878	23187.27
462.083	21299.05
462.289	21292.9
462.494	21180.26
462.7	20080.5
462.905	19423.11
463.111	20170.61
463.316	20504.43
463.522	19769.21
463.727	19511.17
463.932	19709.82
464.138	19324.8
464.343	19568.51
464.549	19023.75
464.754	19732.35
464.959	19607.42
465.165	19431.3
465.37	18200.47
465.575	17872.79
465.781	18386.83
465.986	18589.58
466.191	18249.62
466.397	17678.24
466.602	16893.86
466.807	17518.5
467.012	17364.9
467.218	17528.74
467.423	17172.39
467.628	17395.62
467.833	18022.3
468.038	17217.44
468.244	16801.71
468.449	17168.29
468.654	16793.51
468.859	16455.6
469.064	16644.01
469.269	16056.25
469.474	16148.4
469.679	16371.63
469.885	15902.65
470.09	15947.7
470.295	15853.5
470.5	15368.13
470.705	15968.18
470.91	15079.36
471.115	15275.97
471.32	15382.46
471.525	15378.37
471.73	14952.39
471.935	14784.46
472.139	14387.15
472.344	14460.88
472.549	14143.44
472.754	14264.27
472.959	13860.82
473.164	13496.28
473.369	13465.57
473.574	13944.79
473.778	13707.23
473.983	13479.9
474.188	13565.92
474.393	13119.46
474.598	13223.9
474.802	13043.68
475.007	12990.44
475.212	12994.53
475.417	12333.04
475.621	12466.16
475.826	12521.45
476.031	12345.33
476.235	11859.96
476.44	12273.65
476.645	12072.95
476.849	12072.95
477.054	11808.76
477.259	11485.18
477.463	11638.78
477.668	11280.38
477.872	11665.4
478.077	11339.77
478.282	10965
478.486	10917.89
478.691	10883.08
478.895	10934.28
479.1	10725.38
479.304	10792.97
479.509	10418.19
479.713	10805.25
479.918	10565.64
480.122	10237.97
480.326	10362.89
480.531	10545.16
480.735	10229.77
480.94	10246.16
481.144	10430.48
481.348	9973.78
481.553	10133.52
481.757	9889.81
481.961	10119.18
482.166	10307.6
482.37	10164.24
482.574	9898
482.778	10059.79
482.983	10213.39
483.187	10061.84
483.391	10162.19
483.595	9928.72
483.8	9877.52
484.004	9820.18
484.208	10123.28
484.412	9852.95
484.616	9994.26
484.821	9834.52
485.025	9846.8
485.229	9953.3
485.433	10010.64
485.637	9998.35
485.841	9926.68
486.045	9771.03
486.249	9984.02
486.453	9771.03
486.657	9822.23
486.861	9951.25
487.065	9625.62
487.269	9746.45
487.473	9537.56
487.677	9834.52
487.881	10047.51
488.085	9951.25
488.289	9857.04
488.493	9773.08
488.697	9910.29
488.901	9756.69
489.105	9877.52
489.309	9988.11
489.512	9910.29
489.716	10012.69
489.92	9984.02
490.124	9875.48
490.328	10084.37
490.531	9879.57
490.735	10168.34
490.939	10070.03
491.143	9910.29
491.346	9996.31
491.55	10172.43
491.754	10053.65
491.958	10385.42
492.161	9955.35
492.365	10135.57
492.569	10031.12
492.772	10004.5
492.976	10088.46
493.18	10344.46
493.383	10436.62
493.587	10543.11
493.79	10731.53
493.994	10395.66
494.197	10387.47
494.401	10663.94
494.605	10604.55
494.808	10631.18
495.012	10766.34
495.215	10717.19
495.419	10825.73
495.622	10833.93
495.825	11223.04
496.029	10987.52
496.232	11220.99
496.436	11122.69
496.639	11440.12
496.843	11460.6
497.046	11757.56
497.249	11956.21
497.453	11790.33
497.656	11839.48
497.859	11982.84
498.063	12140.53
498.266	12406.77
498.469	12232.69
498.673	12441.58
498.876	12675.05
499.079	12732.39
499.282	12505.07
499.485	13154.27
499.689	13010.92
499.892	13045.73
500.095	12908.52
500.298	13395.93
500.501	13361.12
500.705	13578.2
500.908	13836.25
501.111	14254.03
501.314	14135.25
501.517	14198.74
501.72	14456.78
501.923	14133.2
502.126	14467.02
502.329	14782.41
502.532	14868.42
502.735	15140.8
502.938	15323.07
503.141	15419.33
503.344	15464.38
503.547	15468.48
503.75	15902.65
503.953	16258.99
504.156	16166.84
504.359	16449.46
504.562	16146.36
504.765	16918.44
504.968	16965.54
505.17	16957.35
505.373	17039.27
505.576	17371.04
505.779	17467.3
505.982	17442.72
506.185	17893.27
506.387	17889.18
506.59	18294.68
506.793	18251.67
506.996	18327.44
507.198	18919.31
507.401	18839.44
507.604	18984.84
507.807	19509.12
508.009	19566.46
508.212	19625.86
508.415	19920.76
508.617	19769.21
508.82	20123.51
509.022	20213.62
509.225	20438.9
509.428	20617.07
509.63	20920.17
509.833	20862.83
510.035	21282.66
510.238	21329.77
510.44	21686.11
510.643	21917.53
510.845	21935.96
511.048	22050.65
511.25	22140.76
511.453	22450
511.655	22980.43
511.858	23000.91
512.06	23164.75
512.262	23539.52
512.465	23525.19
512.667	24190.78
512.87	24241.98
513.072	24233.78
513.274	24559.41
513.477	24915.76
513.679	25028.4
513.881	25179.95
514.084	25487.14
514.286	25487.14
514.488	25882.4
514.69	26554.13
514.893	26324.76
515.095	26234.65
515.297	27002.64
515.499	26890
515.701	27457.29
515.904	27528.97
516.106	27686.66
516.308	27959.04
516.51	27971.33
516.712	28417.79
516.914	28434.17
517.116	28565.24
517.318	28903.15
517.52	29343.47
517.722	28985.07
517.925	29527.78
518.127	29656.81
518.329	30043.87
518.531	29896.42
518.733	30400.22
518.935	30641.88
519.136	30662.36
519.338	31006.42
519.54	31125.2
519.742	31489.74
519.944	31698.63
520.146	32011.97
520.348	32210.62
520.55	32095.94
520.752	32057.03
520.954	32882.36
521.155	32659.13
521.357	33074.87
521.559	33095.35
521.761	33705.64
521.963	33291.95
522.164	34018.98
522.366	33863.33
522.568	33875.62
522.77	33937.06
522.971	34299.55
523.173	34668.19
523.375	34545.31
523.576	34430.62
523.778	34408.09
523.98	34733.72
524.181	35311.25
524.383	35112.59
524.584	35258
524.786	35012.24
524.988	35286.67
525.189	35606.16
525.391	35495.57
525.592	35780.23
525.794	35923.59
525.995	35956.36
526.197	36005.51
526.398	36232.83
526.6	36032.13
526.801	36443.77
527.003	36454.01
527.204	36249.22
527.406	36650.62
527.607	36042.37
527.808	36640.38
528.01	35982.98
528.211	36603.52
528.412	37004.92
528.614	36695.67
528.815	36796.03
529.016	37201.52
529.218	36843.13
529.419	36802.17
529.62	36687.48
529.822	36849.27
530.023	36652.67
530.224	36519.55
530.425	36646.52
530.626	36382.34
530.828	36335.23
531.029	37035.64
531.23	36634.24
531.431	36466.3
531.632	36441.73
531.833	36730.49
532.035	36828.79
532.236	36353.66
532.437	36316.8
532.638	36279.94
532.839	36556.41
533.04	36611.71
533.241	36462.21
533.442	37107.32
533.643	36228.74
533.844	36490.88
534.045	36857.46
534.246	35853.96
534.447	36699.77
534.648	36144.77
534.849	36685.43
535.05	35853.96
535.251	36306.56
535.451	35878.54
535.652	35841.67
535.853	35702.41
536.054	36134.53
536.255	36101.76
536.456	35540.62
536.657	36169.35
536.857	35683.98
537.058	35524.24
537.259	35604.11
537.46	35884.68
537.66	35389.07
537.861	35534.48
538.062	35772.04
538.263	35677.83
538.463	35219.09
538.664	35538.57
538.865	35335.82
539.065	35720.84
539.266	35102.36
539.466	35876.49
539.667	35088.02
539.868	35483.28
540.068	35106.45
540.269	34963.09
540.469	35423.89
540.67	35198.61
540.87	35423.89
541.071	35032.72
541.271	35176.08
541.472	35206.8
541.672	34805.4
541.873	34793.11
542.073	34750.1
542.274	35159.7
542.474	34858.65
542.675	34401.95
542.875	35298.96
543.075	34772.63
543.276	34334.37
543.476	35204.75
543.676	34346.65
543.877	34940.57
544.077	34381.47
544.277	34897.56
544.478	35016.34
544.678	34944.66
544.878	34766.49
545.078	34655.9
545.279	34635.42
545.479	34715.29
545.679	34838.17
545.879	34680.47
546.079	34688.67
546.28	34506.4
546.48	34234.02
546.68	34614.94
546.88	34412.19
547.08	34465.44
547.28	34551.45
547.48	34354.85
547.68	34522.78
547.88	34234.02
548.081	34606.75
548.281	34221.73
548.481	34483.87
548.681	34895.51
548.881	34588.31
549.081	34600.6
549.28	34395.81
549.48	34715.29
549.68	34729.62
549.88	34969.24
550.08	34387.61
550.28	34680.47
550.48	34498.2
550.68	35233.43
550.88	34438.81
551.08	34627.23
551.279	35040.92
551.479	34684.57
551.679	34713.24
551.879	34666.14
552.079	35141.27
552.278	34653.85
552.478	35180.18
552.678	34721.43
552.878	35350.16
553.077	35227.28
553.277	34895.51
553.477	35329.68
553.676	35358.35
553.876	34639.51
554.076	34891.41
554.275	34891.41
554.475	34627.23
554.674	34973.33
554.874	35413.65
555.074	34795.16
555.273	34629.27
555.473	35163.79
555.672	35036.82
555.872	34907.8
556.071	35317.39
556.271	35190.42
556.47	35167.89
556.67	34938.52
556.869	34805.4
557.068	35049.11
557.268	34930.33
557.467	35186.32
557.667	35409.55
557.866	35079.83
558.065	35282.58
558.265	34823.83
558.464	34893.46
558.663	35165.84
558.863	35288.72
559.062	35772.04
559.261	35108.5
559.461	36017.8
559.66	34719.38
559.859	35147.41
560.058	35028.63
560.258	35524.24
560.457	35108.5
560.656	35485.33
560.855	35071.64
561.054	35659.4
561.253	35120.79
561.453	35292.82
561.652	35327.63
561.851	35018.39
562.05	35214.99
562.249	35038.87
562.448	35237.52
562.647	34903.7
562.846	34950.81
563.045	35094.16
563.244	34987.67
563.443	35307.15
563.642	34748.06
563.841	34748.06
564.04	34731.67
564.239	35364.5
564.438	34475.68
564.637	34846.36
564.836	34844.31
565.035	34637.47
565.234	34698.91
565.432	34764.44
565.631	34467.48
565.83	34948.76
566.029	34696.86
566.228	34242.21
566.427	34551.45
566.625	34109.09
566.824	33910.44
567.023	34539.16
567.222	33932.96
567.42	34453.15
567.619	34033.32
567.818	34059.94
568.016	33906.34
568.215	34262.69
568.414	33599.15
568.612	33920.68
568.811	33705.64
569.01	34080.42
569.208	33318.57
569.407	33953.44
569.605	33537.71
569.804	34098.85
570.002	33285.81
570.201	33457.84
570.4	33265.33
570.598	33210.03
570.797	32837.3
570.995	33185.46
571.193	32761.53
571.392	33425.07
571.59	33023.67
571.789	32882.36
571.987	32358.08
572.186	32818.87
572.384	32321.21
572.582	32796.34
572.781	32853.69
572.979	32192.19
573.177	32237.25
573.376	32487.1
573.574	31930.05
573.772	32052.93
573.971	31882.95
574.169	31669.96
574.367	31510.22
574.565	31899.33
574.763	31831.75
574.962	31438.54
575.16	30940.88
575.358	31549.13
575.556	31215.31
575.754	31309.52
575.952	30932.69
576.151	31536.84
576.349	30777.05
576.547	30746.33
576.745	30820.05
576.943	30922.45
577.141	30545.62
577.339	30342.88
577.537	30234.33
577.735	30342.88
577.933	30351.07
578.131	30189.28
578.329	30463.71
578.527	29964
578.725	29843.17
578.923	30136.03
579.121	29966.05
579.319	29916.9
579.516	29894.37
579.714	29667.05
579.912	29312.75
580.11	29531.88
580.308	29482.73
580.506	29488.87
580.704	28929.78
580.901	29427.43
581.099	29423.34
581.297	28737.27
581.495	29001.46
581.692	29103.85
581.89	28763.89
582.088	28940.02
582.285	28575.48
582.483	28729.08
582.681	28303.1
582.878	28370.68
583.076	28315.39
583.274	28481.27
583.471	28354.3
583.669	28202.75
583.866	28102.4
584.064	28249.85
584.262	27799.3
584.459	28012.29
584.657	27903.74
584.854	27795.2
585.052	27633.41
585.249	27836.16
585.447	27551.49
585.644	27330.31
585.841	27451.14
586.039	27672.32
586.236	27305.74
586.434	27172.62
586.631	27313.93
586.828	27139.85
587.026	26879.76
587.223	27137.8
587.42	27039.5
587.618	26996.49
587.815	26883.86
588.012	26797.84
588.21	26902.29
588.407	26902.29
588.604	26996.49
588.801	26451.74
588.999	26670.87
589.196	26488.6
589.393	26476.31
589.59	26418.97
589.787	26132.25
589.984	25913.12
590.182	26083.1
590.379	26457.88
590.576	26019.61
590.773	26253.08
590.97	25816.86
591.167	26017.57
591.364	25853.73
591.561	26005.28
591.758	25771.81
591.955	25716.51
592.152	25911.07
592.349	25104.17
592.546	25816.86
592.743	25687.84
592.94	25356.07
593.137	25687.84
593.334	25855.78
593.531	25216.81
593.727	25616.16
593.924	25460.52
594.121	25237.29
594.318	25593.64
594.515	24801.07
594.712	25339.69
594.908	25098.03
595.105	25335.59
595.302	24936.24
595.499	25108.27
595.696	25061.16
595.892	25030.44
596.089	25282.34
596.286	25126.7
596.482	24880.94
596.679	25046.83
596.876	25038.64
597.072	24950.57
597.269	24983.34
597.466	24971.05
597.662	24891.18
597.859	24805.17
598.055	25091.88
598.252	24776.5
598.448	24903.47
598.645	24622.9
598.841	24342.33
599.038	24794.93
599.234	24928.05
599.431	24850.22
599.627	24477.49
599.824	25138.99
600.02	24801.07
600.217	24792.88
600.413	24827.7
600.609	24753.97
600.806	24497.97
601.002	24737.59
601.198	24715.06
601.395	24391.48
601.591	24477.49
601.787	24842.03
601.984	24549.17
602.18	25032.49
602.376	24778.54
602.572	24629.04
602.769	24520.5
602.965	24391.48
603.161	24618.8
603.357	24612.66
603.553	24592.18
603.75	24809.26
603.946	24928.05
604.142	24780.59
604.338	24655.67
604.534	24631.09
604.73	24659.76
604.926	24594.23
605.122	24930.09
605.318	24635.19
605.514	24549.17
605.71	24805.17
605.906	24614.71
606.102	24960.81
606.298	25175.85
606.494	24778.54
606.69	25024.3
606.886	24926
607.082	24766.26
607.278	25337.64
607.474	24522.55
607.67	25114.41
607.866	24760.11
608.062	25296.68
608.257	25020.2
608.453	25085.74
608.649	25134.89
608.845	24756.02
609.041	24887.09
609.236	25233.19
609.432	25276.2
609.628	25364.26
609.824	25636.64
610.019	25130.8
610.215	25472.81
610.411	25550.63
610.606	25386.79
610.802	25335.59
610.998	25454.37
611.193	25456.42
611.389	25300.78
611.584	25726.75
611.78	25323.3
611.976	25442.09
612.171	25626.4
612.367	25513.77
612.562	25382.7
612.758	25032.49
612.953	25397.03
613.149	25509.67
613.344	25147.18
613.539	25986.85
613.735	25612.07
613.93	25771.81
614.126	25509.67
614.321	25780
614.517	25929.5
614.712	25638.69
614.907	25612.07
615.103	25755.43
615.298	25493.29
615.493	25892.64
615.688	25253.67
615.884	26042.14
616.079	25515.81
616.274	25691.94
616.47	25728.8
616.665	25872.16
616.86	25466.66
617.055	25767.71
617.25	25691.94
617.445	25526.05
617.641	25245.48
617.836	25771.81
618.031	25376.55
618.226	25622.31
618.421	25364.26
618.616	25329.45
618.811	25108.27
619.006	25673.51
619.201	24885.04
619.396	25351.98
619.591	24801.07
619.786	25249.58
619.981	24670
620.176	24930.09
620.371	24762.16
620.566	24852.27
620.761	24602.42
620.956	24645.43
621.151	24356.66
621.346	24749.87
621.541	24334.14
621.735	24350.52
621.93	23824.19
622.125	23961.41
622.32	23918.4
622.515	23977.79
622.709	23705.41
622.904	23631.68
623.099	23654.21
623.294	23873.34
623.488	23353.16
623.683	23531.33
623.878	23005
624.072	23418.69
624.267	23400.26
624.462	23211.85
624.656	22951.76
624.851	22699.86
625.046	22894.41
625.24	22681.42
625.435	22513.49
625.629	22550.35
625.824	22255.45
626.018	22202.2
626.213	21778.27
626.407	21933.92
626.602	21815.13
626.796	21927.77
626.991	21972.83
627.185	21579.62
627.38	21665.63
627.574	21432.16
627.768	21591.91
627.963	21221.22
628.157	21010.28
628.352	20983.66
628.546	20690.8
628.74	21045.1
628.935	20592.5
629.129	20721.52
629.323	20692.85
629.517	20264.82
629.712	20694.89
629.906	20350.84
630.1	20227.96
630.294	20189.05
630.489	19847.04
630.683	20096.89
630.877	19754.88
631.071	19447.68
631.265	19726.21
631.459	19613.57
631.653	19509.12
631.848	19521.41
632.042	19158.92
632.236	19210.12
632.43	18970.51
632.624	19175.3
632.818	18741.13
633.012	18794.38
633.206	18499.47
633.4	18767.76
633.594	18454.42
633.788	18247.57
633.982	18403.22
634.176	18223
634.369	18212.76
634.563	18055.06
634.757	18018.2
634.951	18040.73
635.145	17516.45
635.339	17780.64
635.533	17227.68
635.726	17438.62
635.92	17590.17
636.114	17479.58
636.308	17041.32
636.501	17297.31
636.695	17295.27
636.889	16852.91
637.083	16826.28
637.276	16629.68
637.47	16621.49
637.664	16740.27
637.857	16603.05
638.051	16410.54
638.244	16332.72
638.438	16109.49
638.632	16199.6
638.825	16064.44
639.019	15964.09
639.212	15751.1
639.406	15902.65
639.599	15546.3
639.793	15634.36
639.986	15323.07
640.18	15507.39
640.373	15452.09
640.567	15189.95
640.76	15423.42
640.954	15204.29
641.147	15062.98
641.34	14981.06
641.534	14882.76
641.727	14866.38
641.92	14690.25
642.114	14405.58
642.307	14563.28
642.5	14307.28
642.694	14338
642.887	14145.49
643.08	14241.75
643.273	14129.11
643.467	14055.38
643.66	13670.36
643.853	13918.17
644.046	13535.2
644.239	13770.71
644.432	13596.64
644.626	13496.28
644.819	13418.46
645.012	13271.01
645.205	13295.58
645.398	13166.56
645.591	13060.07
645.784	13105.12
645.977	12857.32
646.17	12724.2
646.363	12943.33
646.556	12607.47
646.749	12705.77
646.942	12484.59
647.135	12427.25
647.328	12441.58
647.521	12384.24
647.714	12136.43
647.907	12277.74
648.099	12220.4
648.292	12290.03
648.485	12060.66
648.678	11890.68
648.871	11761.66
649.064	11739.13
649.256	11943.92
649.449	11702.26
649.642	11618.3
649.835	11540.47
650.027	11368.45
650.22	11597.82
650.413	11429.88
650.605	11261.95
650.798	11347.97
650.991	11177.98
651.183	10932.23
651.376	10858.5
651.568	11051.01
651.761	10975.24
651.954	11008
652.146	11044.87
652.339	10676.23
652.531	10754.05
652.724	10557.45
652.916	10393.61
653.109	10514.44
653.301	10565.64
653.494	10313.74
653.686	10422.28
653.879	10504.2
654.071	10229.77
654.263	10213.39
654.456	10115.09
654.648	10108.94
654.84	9912.34
655.033	10031.12
655.225	9900.05
655.417	9723.93
655.61	9918.48
655.802	9900.05
655.994	9764.89
656.186	9811.99
656.379	9555.99
656.571	9611.29
656.763	9476.12
656.955	9492.51
657.148	9320.48
657.34	9519.13
657.532	9216.03
657.724	9275.42
657.916	9189.41
658.108	9232.41
658.3	9072.67
658.492	9127.97
658.684	8962.08
658.876	9000.99
659.068	8794.15
659.26	8824.87
659.452	8808.48
659.644	8845.35
659.836	8640.55
660.028	8910.88
660.22	8497.19
660.412	8665.13
660.604	8542.25
660.796	8431.66
660.988	8269.87
661.18	8292.4
661.372	8271.92
661.563	8298.54
661.755	8097.84
661.947	8181.81
662.139	8128.56
662.331	7983.15
662.522	7993.39
662.714	7985.2
662.906	7952.43
663.097	7798.84
663.289	7841.84
663.481	7837.75
663.673	7839.8
663.864	7708.73
664.056	7743.54
664.247	7575.61
664.439	7462.97
664.631	7551.03
664.822	7456.82
665.014	7462.97
665.205	7473.21
665.397	7346.23
665.588	7331.9
665.78	7362.62
665.971	7307.32
666.163	7323.71
666.354	7249.98
666.546	7272.51
666.737	7043.14
666.929	7198.78
667.12	7010.37
667.311	7071.81
667.503	6920.26
667.694	6889.54
667.885	7020.61
668.077	6869.06
668.268	6862.91
668.459	6821.95
668.651	6946.88
668.842	6627.4
669.033	6580.29
669.224	6602.82
669.416	6805.57
669.607	6629.45
669.798	6553.67
669.989	6584.39
670.18	6563.91
670.371	6502.47
670.563	6479.94
670.754	6494.28
670.945	6422.6
671.136	6371.4
671.327	6586.44
671.518	6383.69
671.709	6318.15
671.9	6477.9
672.091	6289.48
672.282	6119.5
672.473	6045.77
672.664	6244.43
672.855	6205.52
673.046	6158.41
673.237	6357.07
673.428	6119.5
673.619	6226
673.809	6043.73
674	6025.29
674.191	6152.27
674.382	6125.65
674.573	5970
674.764	6107.21
674.954	6123.6
675.145	5881.94
675.336	5947.47
675.527	5814.35
675.717	5797.97
675.908	5900.37
676.099	5933.14
676.289	5816.4
676.48	5871.7
676.671	5898.32
676.861	5830.74
677.052	5845.07
677.243	5656.66
677.433	5714
677.624	5691.48
677.814	5832.79
678.005	5808.21
678.195	5675.09
678.386	5738.58
678.576	5808.21
678.767	5726.29
678.957	5691.48
679.148	5806.16
679.338	5748.82
679.529	5759.06
679.719	5572.69
679.909	5683.28
680.1	5668.95
680.29	5638.23
680.481	5445.72
680.671	5466.2
680.861	5584.98
681.052	5423.19
681.242	5554.26
681.432	5605.46
681.622	5455.96
681.813	5521.49
682.003	5490.77
682.193	5503.06
682.383	5445.72
682.573	5300.31
682.764	5507.16
682.954	5404.76
683.144	5453.91
683.334	5472.34
683.524	5568.6
683.714	5501.01
683.904	5492.82
684.094	5511.25
684.284	5429.34
684.474	5597.27
684.664	5470.3
684.854	5472.34
685.044	5357.66
685.234	5255.26
685.424	5228.63
685.614	5310.55
685.804	5167.2
685.994	5300.31
686.184	5185.63
686.374	5382.23
686.564	5349.47
686.753	5257.31
686.943	5179.48
687.133	5163.1
687.323	5267.55
687.513	5224.54
687.702	5204.06
687.892	5136.48
688.082	5191.77
688.272	5087.33
688.461	5146.72
688.651	5138.52
688.841	5077.09
689.03	5101.66
689.22	5040.22
689.41	5079.13
689.599	4948.06
689.789	4993.12
689.979	4911.2
690.168	5136.48
690.358	5056.61
690.547	4878.43
690.737	4857.95
690.926	4792.42
691.116	4931.68
691.305	5001.31
691.495	4866.14
691.684	4892.77
691.874	4794.47
692.063	4833.38
692.252	4792.42
692.442	4921.44
692.631	4712.55
692.82	4724.83
693.01	4700.26
693.199	4696.16
693.388	4585.57
693.578	4575.33
693.767	4610.15
693.956	4626.53
694.146	4520.04
694.335	4667.49
694.524	4448.36
694.713	4726.88
694.902	4685.92
695.092	4716.64
695.281	4454.5
695.47	4554.85
695.659	4552.81
695.848	4524.13
696.037	4593.76
696.226	4503.65
696.415	4552.81
696.604	4591.72
696.793	4493.41
696.982	4348.01
697.171	4528.23
697.36	4425.83
697.549	4522.09
697.738	4468.84
697.927	4331.62
698.116	4587.62
698.305	4380.78
698.494	4505.7
698.683	4325.48
698.872	4380.78
699.061	4388.97
699.25	4388.97
699.438	4360.3
699.627	4266.09
699.816	4327.53
700.005	4241.51
700.193	4221.03
700.382	4241.51
700.571	4315.24
700.76	4298.86
700.948	4261.99
701.137	4235.37
701.326	4405.35
701.514	4159.6
701.703	4298.86
701.892	4169.84
702.08	4175.98
702.269	4192.36
702.457	4126.83
702.646	4184.17
702.834	3948.65
703.023	3971.18
703.212	4049
703.4	4173.93
703.589	4069.48
703.777	4053.1
703.965	4085.87
704.154	4020.33
704.342	3971.18
704.531	4112.49
704.719	3926.13
704.907	4053.1
705.096	3928.17
705.284	3971.18
705.472	4032.62
705.661	3825.78
705.849	4073.58
706.037	3934.32
706.226	4032.62
706.414	3909.74
706.602	3784.82
706.79	3971.18
706.979	3958.89
707.167	3823.73
707.355	3764.34
707.543	3979.37
707.731	3831.92
707.919	3907.7
708.107	3905.65
708.296	3926.13
708.484	3766.39
708.672	3741.81
708.86	3860.59
709.048	3684.47
709.236	3616.88
709.424	3668.08
709.612	3688.56
709.8	3534.96
709.988	3657.84
710.176	3672.18
710.364	3651.7
710.551	3659.89
710.739	3584.12
710.927	3704.95
711.115	3606.64
711.303	3563.64
711.491	3649.65
711.679	3463.29
711.866	3528.82
712.054	3571.83
712.242	3610.74
712.43	3555.44
712.617	3604.6
712.805	3410.04
712.993	3549.3
713.181	3405.94
713.368	3471.48
713.556	3448.95
713.744	3432.57
713.931	3512.44
714.119	3422.33
714.306	3586.16
714.494	3629.17
714.682	3393.65
714.869	3389.56
715.057	3444.85
715.244	3383.42
715.432	3348.6
715.619	3407.99
715.807	3350.65
715.994	3326.07
716.182	3305.59
716.369	3369.08
716.556	3246.2
716.744	3242.11
716.931	3205.24
717.119	3346.55
717.306	3272.82
717.493	3225.72
717.681	3254.39
717.868	3145.85
718.055	3242.11
718.242	3344.5
718.43	3268.73
718.617	3219.58
718.804	3195
718.991	3301.5
719.179	3172.47
719.366	3123.32
719.553	3178.62
719.74	3100.8
719.927	3176.57
720.114	3029.12
720.301	3055.74
720.488	3010.68
720.676	3135.61
720.863	3205.24
721.05	3065.98
721.237	3080.32
721.424	3162.23
721.611	3053.69
721.798	2922.62
721.985	2963.58
722.172	3035.26
722.358	2936.96
722.545	3055.74
722.732	3045.5
722.919	3010.68
723.106	2857.09
723.293	2979.97
723.48	2889.85
723.667	2898.05
723.853	2896
724.04	2930.81
724.227	3004.54
724.414	2840.7
724.6	2850.94
724.787	2889.85
724.974	2908.29
725.161	2777.22
725.347	2898.05
725.534	2982.01
725.72	2902.14
725.907	2906.24
726.094	2848.9
726.28	2838.66
726.467	2869.37
726.653	2871.42
726.84	2752.64
727.027	2844.8
727.213	2877.57
727.4	2797.7
727.586	2791.55
727.773	2826.37
727.959	2832.51
728.145	2846.85
728.332	2680.96
728.518	2863.23
728.705	2795.65
728.891	2865.28
729.077	2709.63
729.264	2752.64
729.45	2840.7
729.636	2809.98
729.823	2711.68
730.009	2508.93
730.195	2758.78
730.382	2758.78
730.568	2707.59
730.754	2650.24
730.94	2631.81
731.126	2506.88
731.313	2672.77
731.499	2631.81
731.685	2521.22
731.871	2627.71
732.057	2703.49
732.243	2777.22
732.429	2640
732.615	2558.08
732.801	2513.03
732.987	2594.95
733.173	2572.42
733.359	2422.92
733.545	2586.76
733.731	2513.03
733.917	2543.75
734.103	2592.9
734.289	2531.46
734.475	2537.6
734.661	2558.08
734.847	2537.6
735.033	2474.12
735.219	2558.08
735.404	2474.12
735.59	2510.98
735.776	2465.93
735.962	2492.55
736.148	2527.36
736.333	2486.4
736.519	2482.31
736.705	2449.54
736.89	2496.64
737.076	2439.3
737.262	2500.74
737.447	2390.15
737.633	2404.49
737.819	2390.15
738.004	2318.47
738.19	2332.81
738.375	2408.58
738.561	2482.31
738.747	2381.96
738.932	2316.42
739.118	2472.07
739.303	2359.43
739.489	2328.71
739.674	2324.62
739.859	2320.52
740.045	2259.08
740.23	2357.38
740.416	2185.35
740.601	2345.09
740.786	2177.16
740.972	2218.12
741.157	2287.75
741.342	2279.56
741.528	2271.37
741.713	2240.65
741.898	2259.08
742.084	2185.35
742.269	2128.01
742.454	2203.79
742.639	2228.36
742.824	2111.63
743.01	2209.93
743.195	2148.49
743.38	2130.06
743.565	2236.55
743.75	2103.43
743.935	2218.12
744.12	2201.74
744.305	2021.52
744.49	2064.52
744.675	1898.64
744.86	1992.84
745.045	2042
745.23	1982.6
745.415	2023.56
745.6	1984.65
745.785	2070.67
745.97	2095.24
746.155	2035.85
746.34	1976.46
746.525	2046.09
746.71	1949.84
746.895	1882.25
747.079	1865.87
747.264	1906.83
747.449	1900.69
747.634	1927.31
747.819	1976.46
748.003	1796.24
748.188	1992.84
748.373	1931.41
748.557	1810.58
748.742	1867.92
748.927	1867.92
749.111	1843.34
749.296	1835.15
749.481	1775.76
749.665	1833.1
749.85	1734.8
750.034	1824.91
750.219	1755.28
750.404	1693.84
750.588	1671.31
750.773	1699.98
750.957	1751.18
751.141	1628.31
751.326	1554.58
751.51	1681.55
751.695	1702.03
751.879	1624.21
752.064	1648.79
752.248	1523.86
752.432	1638.55
752.617	1556.63
752.801	1573.01
752.985	1566.87
753.17	1603.73
753.354	1538.2
753.538	1570.96
753.722	1441.94
753.907	1550.48
754.091	1491.09
754.275	1530
754.459	1435.8
754.643	1443.99
754.828	1530
755.012	1374.36
755.196	1456.28
755.38	1384.6
755.564	1462.42
755.748	1441.94
755.932	1501.33
756.116	1421.46
756.3	1456.28
756.484	1308.82
756.668	1470.61
756.852	1333.4
757.036	1286.3
757.22	1263.77
757.404	1226.9
757.588	1243.29
757.772	1329.3
757.956	1337.49
758.14	1407.13
758.323	1271.96
758.507	1249.43
758.691	1312.92
758.875	1231
759.059	1237.14
759.242	1142.94
759.426	1204.38
759.61	1218.71
759.794	1169.56
759.977	1202.33
760.161	1280.15
760.345	1278.1
760.528	1177.75
760.712	1153.18
760.895	1120.41
761.079	1142.94
761.263	1185.94
761.446	1177.75
761.63	1147.03
761.813	1263.77
761.997	1157.27
762.18	1147.03
762.364	1104.03
762.547	1067.16
762.731	1108.12
762.914	981.15
763.098	1067.16
763.281	1212.57
763.464	991.39
763.648	964.76
763.831	1144.99
764.015	1091.74
764.198	1099.93
764.381	1036.44
764.564	977.05
764.748	1079.45
764.931	1015.96
765.114	1048.73
765.297	1046.68
765.481	1028.25
765.664	993.44
765.847	1071.26
766.03	1075.35
766.213	1024.16
766.397	1067.16
766.58	927.9
766.763	874.65
766.946	1018.01
767.129	1038.49
767.312	979.1
767.495	1065.11
767.678	942.24
767.861	972.96
768.044	909.47
768.227	874.65
768.41	1040.54
768.593	1005.72
768.776	958.62
768.959	968.86
769.142	940.19
769.324	911.52
769.507	1013.92
769.69	866.46
769.873	993.44
770.056	1001.63
770.239	888.99
770.421	1009.82
770.604	901.28
770.787	907.42
770.97	972.96
771.152	884.89
771.335	907.42
771.518	796.83
771.7	876.7
771.883	915.61
772.066	805.02
772.248	895.13
772.431	854.17
772.613	932
772.796	792.73
772.978	827.55
773.161	1026.2
773.343	864.41
773.526	819.36
773.708	864.41
773.891	698.53
774.073	796.83
774.256	669.86
774.438	805.02
774.621	833.69
774.803	762.02
774.985	784.54
775.168	825.5
775.35	759.97
775.532	827.55
775.715	739.49
775.897	852.13
776.079	776.35
776.261	802.97
776.444	669.86
776.626	686.24
776.808	770.21
776.99	686.24
777.173	727.2
777.355	739.49
777.537	790.69
777.719	661.66
777.901	710.82
778.083	653.47
778.265	571.55
778.447	676
778.629	673.95
778.811	665.76
778.993	743.58
779.175	608.42
779.357	690.34
779.539	628.9
779.721	639.14
779.903	768.16
780.085	522.4
780.267	682.14
780.449	637.09
780.631	647.33
780.812	645.28
780.994	518.31
781.176	645.28
781.358	645.28
781.54	526.5
781.721	653.47
781.903	596.13
782.085	567.46
782.267	647.33
782.448	534.69
782.63	628.9
782.812	555.17
782.993	534.69
783.175	557.22
783.357	606.37
783.538	628.9
783.72	506.02
783.901	495.78
784.083	553.12
784.264	524.45
784.446	424.1
784.627	510.11
784.809	506.02
784.99	489.64
785.172	493.73
785.353	489.64
785.535	481.44
785.716	434.34
785.897	409.76
786.079	420
786.26	514.21
786.441	452.77
786.623	454.82
786.804	452.77
786.985	546.98
787.167	481.44
787.348	491.68
787.529	374.95
787.71	530.59
787.891	444.58
788.073	432.29
788.254	366.76
788.435	403.62
788.616	489.64
788.797	458.92
788.978	409.76
789.159	383.14
789.34	460.96
789.522	350.37
789.703	399.52
789.884	432.29
790.065	393.38
790.246	460.96
790.427	399.52
790.607	405.67
790.788	440.48
790.969	282.79
791.15	436.39
791.331	403.62
791.512	342.18
791.693	383.14
791.874	329.89
792.054	374.95
792.235	333.99
792.416	319.65
792.597	379.04
792.778	374.95
792.958	342.18
793.139	391.33
793.32	268.45
793.5	272.55
793.681	391.33
793.862	321.7
794.042	366.76
794.223	311.46
794.404	346.28
794.584	293.03
794.765	321.7
794.945	327.85
795.126	401.57
795.306	350.37
795.487	383.14
795.667	391.33
795.848	286.89
796.028	293.03
796.209	311.46
796.389	309.41
796.57	315.56
796.75	303.27
796.93	366.76
797.111	250.02
797.291	333.99
797.471	213.16
797.652	301.22
797.832	325.8
798.012	401.57
798.192	184.49
798.373	286.89
798.553	245.93
798.733	342.18
798.913	309.41
799.093	258.21
799.274	237.74
799.454	278.69
799.634	331.94
799.814	358.57
799.994	313.51
800.174	280.74
800.354	192.68
800.534	252.07
800.714	321.7
800.894	219.3
801.074	245.93
801.254	243.88
801.434	272.55
801.614	303.27
801.794	243.88
801.974	964.76
802.154	239.78
802.334	270.5
802.514	235.69
802.693	213.16
802.873	211.11
803.053	270.5
803.233	157.86
803.413	202.92
803.592	194.73
803.772	243.88
803.952	272.55
804.131	153.77
804.311	252.07
804.491	231.59
804.67	215.21
804.85	178.34
805.03	219.3
805.209	288.93
805.389	200.87
805.568	153.77
805.748	215.21
805.928	139.43
806.107	274.6
806.287	268.45
806.466	190.63
806.646	209.06
806.825	202.92
807.004	137.38
807.184	174.25
807.363	215.21
807.543	260.26
807.722	164.01
807.901	223.4
808.081	276.65
808.26	121
808.439	241.83
808.619	227.5
808.798	190.63
808.977	207.02
809.156	293.03
809.336	260.26
809.515	237.74
809.694	170.15
809.873	157.86
810.052	209.06
810.231	202.92
810.411	223.4
810.59	227.5
810.769	190.63
810.948	256.17
811.127	188.58
811.306	166.06
811.485	196.78
811.664	241.83
811.843	190.63
812.022	141.48
812.201	172.2
812.38	215.21
812.559	129.19
812.737	200.87
812.916	55.47
813.095	104.62
813.274	202.92
813.453	174.25
813.632	153.77
813.811	336.04
813.989	166.06
814.168	194.73
814.347	143.53
814.526	67.75
814.704	217.26
814.883	145.58
815.062	96.43
815.24	237.74
815.419	131.24
815.598	194.73
815.776	188.58
815.955	192.68
816.133	59.56
816.312	178.34
816.49	121
816.669	121
816.847	125.1
817.026	141.48
817.204	123.05
817.383	170.15
817.561	178.34
817.74	153.77
817.918	151.72
818.097	168.1
818.275	141.48
818.453	88.23
818.632	110.76
818.81	112.81
818.988	43.18
819.167	106.67
819.345	209.06
819.523	92.33
819.701	84.14
819.879	161.96
820.058	166.06
820.236	137.38
820.414	129.19
820.592	121
820.77	121
820.948	96.43
821.127	88.23
821.305	186.54
821.483	82.09
821.661	147.62
821.839	182.44
822.017	202.92
822.195	121
822.373	161.96
822.551	80.04
822.729	82.09
822.907	39.08
823.085	194.73
823.262	100.52
823.44	98.47
823.618	73.9
823.796	114.86
823.974	100.52
824.152	86.19
824.329	123.05
824.507	125.1
824.685	112.81
824.863	82.09
825.04	104.62
825.218	147.62
825.396	106.67
825.574	86.19
825.751	121
825.929	135.34
826.107	55.47
826.284	147.62
826.462	80.04
826.639	63.66
826.817	123.05
826.994	63.66
827.172	51.37
827.349	141.48
827.527	39.08
827.704	65.71
827.882	73.9
828.059	92.33
828.237	65.71
828.414	90.28
828.591	108.71
828.769	137.38
828.946	80.04
829.124	153.77
829.301	116.9
829.478	118.95
829.655	24.75
829.833	137.38
830.01	-38.74
830.187	141.48
830.364	100.52
830.542	114.86
830.719	131.24
830.896	153.77
831.073	116.9
831.25	80.04
831.427	110.76
831.604	37.03
831.782	77.99
831.959	147.62
832.136	88.23
832.313	75.95
832.49	22.7
832.667	80.04
832.844	55.47
833.021	166.06
833.198	129.19
833.374	112.81
833.551	43.18
833.728	86.19
833.905	145.58
834.082	37.03
834.259	94.38
834.436	121
834.612	16.55
834.789	125.1
834.966	106.67
835.143	55.47
835.319	-14.17
835.496	168.1
835.673	106.67
835.85	149.67
836.026	92.33
836.203	106.67
836.38	-5.97
836.556	116.9
836.733	88.23
836.909	121
837.086	-16.21
837.262	47.27
837.439	63.66
837.616	131.24
837.792	6.31
837.968	92.33
838.145	-3.93
838.321	104.62
838.498	127.14
838.674	147.62
838.851	188.58
839.027	73.9
839.203	59.56
839.38	92.33
839.556	0.17
839.732	123.05
839.909	96.43
840.085	145.58
840.261	34.99
840.437	10.41
840.614	88.23
840.79	129.19
840.966	59.56
841.142	133.29
841.318	75.95
841.494	104.62
841.671	80.04
841.847	55.47
842.023	63.66
842.199	92.33
842.375	98.47
842.551	2.22
842.727	98.47
842.903	92.33
843.079	57.51
843.255	80.04
843.431	73.9
843.607	104.62
843.783	37.03
843.959	51.37
844.134	80.04
844.31	75.95
844.486	43.18
844.662	6.31
844.838	-34.64
845.013	63.66
845.189	73.9
845.365	71.85
845.541	49.32
845.716	92.33
845.892	125.1
846.068	39.08
846.244	57.51
846.419	24.75
846.595	-1.88
846.77	47.27
846.946	92.33
847.122	22.7
847.297	39.08
847.473	159.91
847.648	-8.02
847.824	63.66
847.999	-32.6
848.175	129.19
848.35	75.95
848.526	22.7
848.701	84.14
848.876	161.96
849.052	88.23
849.227	121
849.403	34.99
849.578	88.23
849.753	53.42
849.929	47.27
850.104	-18.26
850.279	18.6
850.454	49.32
850.63	71.85
850.805	39.08
850.98	10.41
851.155	20.65
851.33	10.41
851.505	-1.88
851.681	55.47
851.856	16.55
852.031	100.52
852.206	51.37
852.381	30.89
852.556	22.7
852.731	24.75
852.906	10.41
853.081	39.08
853.256	53.42
853.431	30.89
853.606	-10.07
853.781	28.84
853.956	57.51
854.131	139.43
854.305	-5.97
854.48	82.09
854.655	24.75
854.83	-40.79
855.005	55.47
855.18	110.76
855.354	77.99
855.529	32.94
855.704	22.7
855.879	63.66
856.053	41.13
856.228	39.08
856.403	80.04
856.577	57.51
856.752	65.71
856.926	47.27
857.101	22.7
857.276	-18.26
857.45	30.89
857.625	67.75
857.799	116.9
857.974	75.95
858.148	-10.07
858.323	6.31
858.497	14.51
858.672	18.6
858.846	88.23
859.02	55.47
859.195	-26.45
859.369	45.23
859.543	-34.64
859.718	39.08
859.892	94.38
860.066	147.62
860.241	26.79
860.415	-18.26
860.589	26.79
860.763	71.85
860.938	41.13
861.112	39.08
861.286	-40.79
861.46	96.43
861.634	-85.84
861.808	55.47
861.982	-1.88
862.157	28.84
862.331	88.23
862.505	-26.45
862.679	-59.22
862.853	34.99
863.027	30.89
863.201	71.85
863.375	37.03
863.549	63.66
863.722	-18.26
863.896	41.13
864.07	26.79
864.244	55.47
864.418	6.31
864.592	14.51
864.766	-10.07
864.939	22.7
865.113	-38.74
865.287	108.71
865.461	20.65
865.634	57.51
865.808	24.75
865.982	-14.17
866.156	37.03
866.329	-8.02
866.503	-14.17
866.676	51.37
866.85	55.47
867.024	67.75
867.197	22.7
867.371	34.99
867.544	-42.84
867.718	2.22
867.891	43.18
868.065	-10.07
868.238	63.66
868.412	14.51
868.585	34.99
868.759	77.99
868.932	88.23
869.105	-18.26
869.279	14.51
869.452	14.51
869.625	59.56
869.799	37.03
869.972	18.6
870.145	-53.08
870.319	22.7
870.492	0.17
870.665	8.36
870.838	63.66
871.011	-57.17
871.185	14.51
871.358	-10.07
871.531	65.71
871.704	2.22
871.877	55.47
872.05	8.36
872.223	8.36
872.396	-55.12
872.569	34.99
872.742	-63.32
872.915	49.32
873.088	0.17
873.261	-1.88
873.434	121
873.607	34.99
873.78	88.23
873.953	-1.88
874.126	51.37
874.299	39.08
874.471	-1.88
874.644	-34.64
874.817	26.79
874.99	133.29
875.163	39.08
875.335	55.47
875.508	-8.02
875.681	22.7
875.853	49.32
876.026	-26.45
876.199	77.99
876.371	22.7
876.544	71.85
876.717	47.27
876.889	-22.36
877.062	24.75
877.234	-28.5
877.407	65.71
877.579	73.9
877.752	51.37
877.924	71.85
878.097	112.81
878.269	22.7
878.442	14.51
878.614	22.7
878.786	51.37
878.959	-51.03
879.131	53.42
879.303	-48.98
879.476	-1.88
879.648	14.51
879.82	24.75
879.993	-51.03
880.165	80.04
880.337	8.36
880.509	71.85
880.681	-1.88
880.854	18.6
881.026	69.8
881.198	82.09
881.37	-8.02
881.542	26.79
881.714	-1.88
881.886	-30.55
882.058	-28.5
882.23	-12.12
882.402	30.89
882.574	-1.88
882.746	10.41
882.918	84.14
883.09	45.23
883.262	32.94
883.434	0.17
883.606	-22.36
883.778	-55.12
883.95	55.47
884.122	14.51
884.293	82.09
884.465	59.56
884.637	14.51
884.809	24.75
884.98	26.79
885.152	45.23
885.324	34.99
885.496	-10.07
885.667	24.75
885.839	-75.6
886.011	47.27
886.182	37.03
886.354	-1.88
886.525	14.51
886.697	-26.45
886.869	2.22
887.04	-14.17
887.212	84.14
887.383	67.75
887.555	69.8
887.726	14.51
887.897	0.17
888.069	34.99
888.24	55.47
888.412	71.85
888.583	-40.79
888.754	55.47
888.926	16.55
889.097	16.55
889.268	24.75
889.44	47.27
889.611	16.55
889.782	24.75
889.953	-24.4
890.125	26.79
890.296	6.31
890.467	39.08
890.638	-5.97
890.809	8.36
890.98	-26.45
891.151	22.7
891.323	0.17
891.494	65.71
891.665	14.51
891.836	41.13
892.007	49.32
892.178	139.43
892.349	49.32
892.52	-75.6
892.691	6.31
892.862	-26.45
893.032	-40.79
893.203	88.23
893.374	12.46
893.545	55.47
893.716	-46.93
893.887	0.17
894.057	18.6
894.228	4.27
894.399	-32.6
894.57	104.62
894.74	106.67
894.911	-26.45
895.082	71.85
895.253	-22.36
895.423	34.99
895.594	63.66
895.764	-18.26
895.935	-1.88
896.106	53.42
896.276	-8.02
896.447	30.89
896.617	-46.93
896.788	18.6
896.958	53.42
897.129	6.31
897.299	-51.03
897.47	14.51
897.64	-1.88
897.81	55.47
897.981	88.23
898.151	6.31
898.322	-20.31
898.492	57.51
898.662	-1.88
898.832	49.32
899.003	84.14
899.173	43.18
899.343	-18.26
899.513	32.94
