Data from USB4F104151__292__14-34-53-274.txt Node

Date: Thu Mar 13 14:34:53 EDT 2025
User: louis
Spectrometer: USB4F10415
Trigger mode: 4
Integration Time (sec): 2.500000E-2
Scans to average: 1
Electric dark correction enabled: true
Nonlinearity correction enabled: false
Boxcar width: 0
XAxis mode: Wavelengths
Number of Pixels in Spectrum: 3648
>>>>>Begin Spectral Data<<<<<
178.204	-132.26
178.424	-132.26
178.644	-132.26
178.864	-126.12
179.084	-173.22
179.304	-66.73
179.524	4.95
179.744	-50.35
179.964	0.85
180.184	2.9
180.404	4.95
180.624	-7.34
180.844	0.85
181.064	-17.58
181.283	4.95
181.503	2.9
181.723	119.64
181.943	21.33
182.163	90.96
182.383	31.57
182.602	119.64
182.822	54.1
183.042	-5.29
183.262	47.96
183.482	37.72
183.701	13.14
183.921	15.19
184.141	-19.63
184.361	60.24
184.58	13.14
184.8	70.48
185.02	7
185.239	58.2
185.459	37.72
185.679	62.29
185.898	-19.63
186.118	66.39
186.338	7
186.557	37.72
186.777	0.85
186.997	-3.24
187.216	31.57
187.436	21.33
187.655	4.95
187.875	74.58
188.095	78.68
188.314	25.43
188.534	50
188.753	-3.24
188.973	45.91
189.192	54.1
189.412	23.38
189.631	-42.15
189.851	0.85
190.07	72.53
190.29	-9.39
190.509	13.14
190.729	62.29
190.948	99.16
191.168	131.92
191.387	95.06
191.607	39.76
191.826	86.87
192.045	66.39
192.265	70.48
192.484	54.1
192.704	-25.77
192.923	78.68
193.142	160.59
193.362	82.77
193.581	101.2
193.8	62.29
194.02	47.96
194.239	80.72
194.458	95.06
194.678	43.86
194.897	37.72
195.116	-48.3
195.335	56.15
195.555	-40.11
195.774	31.57
195.993	82.77
196.212	-23.72
196.432	4.95
196.651	-3.24
196.87	62.29
197.089	4.95
197.308	58.2
197.528	58.2
197.747	4.95
197.966	7
198.185	64.34
198.404	-31.91
198.623	45.91
198.842	86.87
199.062	86.87
199.281	78.68
199.5	80.72
199.719	25.43
199.938	11.09
200.157	64.34
200.376	62.29
200.595	111.44
200.814	123.73
201.033	23.38
201.252	35.67
201.471	15.19
201.69	45.91
201.909	78.68
202.128	45.91
202.347	86.87
202.566	45.91
202.785	37.72
203.004	29.52
203.223	111.44
203.442	56.15
203.661	62.29
203.879	62.29
204.098	7
204.317	54.1
204.536	78.68
204.755	70.48
204.974	56.15
205.193	103.25
205.411	144.21
205.63	37.72
205.849	-1.19
206.068	19.29
206.287	2.9
206.505	66.39
206.724	-27.82
206.943	-52.39
207.162	88.92
207.381	39.76
207.599	-60.59
207.818	70.48
208.037	86.87
208.255	70.48
208.474	45.91
208.693	47.96
208.911	95.06
209.13	-17.58
209.349	31.57
209.567	78.68
209.786	113.49
210.005	66.39
210.223	25.43
210.442	29.52
210.661	41.81
210.879	29.52
211.098	39.76
211.316	95.06
211.535	152.4
211.753	-9.39
211.972	82.77
212.191	-9.39
212.409	29.52
212.628	-19.63
212.846	15.19
213.065	50
213.283	-7.34
213.502	23.38
213.72	-11.43
213.938	64.34
214.157	41.81
214.375	17.24
214.594	15.19
214.812	56.15
215.031	72.53
215.249	25.43
215.467	21.33
215.686	95.06
215.904	66.39
216.122	25.43
216.341	90.96
216.559	123.73
216.778	37.72
216.996	-9.39
217.214	86.87
217.432	47.96
217.651	-66.73
217.869	35.67
218.087	-19.63
218.306	37.72
218.524	45.91
218.742	78.68
218.96	66.39
219.179	31.57
219.397	-7.34
219.615	90.96
219.833	54.1
220.051	15.19
220.27	78.68
220.488	76.63
220.706	13.14
220.924	-46.25
221.142	41.81
221.36	9.05
221.578	-3.24
221.796	62.29
222.015	62.29
222.233	78.68
222.451	0.85
222.669	21.33
222.887	80.72
223.105	-50.35
223.323	-11.43
223.541	15.19
223.759	13.14
223.977	4.95
224.195	140.12
224.413	82.77
224.631	54.1
224.849	19.29
225.067	111.44
225.285	25.43
225.503	43.86
225.721	45.91
225.939	29.52
226.157	-11.43
226.375	90.96
226.592	50
226.81	45.91
227.028	78.68
227.246	88.92
227.464	58.2
227.682	142.16
227.9	45.91
228.117	54.1
228.335	90.96
228.553	-9.39
228.771	25.43
228.989	13.14
229.206	-11.43
229.424	21.33
229.642	17.24
229.86	-7.34
230.077	78.68
230.295	-11.43
230.513	52.05
230.731	-3.24
230.948	95.06
231.166	17.24
231.384	2.9
231.601	41.81
231.819	86.87
232.037	-17.58
232.254	17.24
232.472	70.48
232.689	-9.39
232.907	78.68
233.125	45.91
233.342	25.43
233.56	-27.82
233.777	19.29
233.995	2.9
234.213	123.73
234.43	0.85
234.648	76.63
234.865	29.52
235.083	78.68
235.3	33.62
235.518	-15.53
235.735	95.06
235.953	74.58
236.17	76.63
236.388	37.72
236.605	39.76
236.822	33.62
237.04	43.86
237.257	29.52
237.475	-48.3
237.692	-11.43
237.909	88.92
238.127	-11.43
238.344	29.52
238.562	64.34
238.779	29.52
238.996	41.81
239.214	56.15
239.431	88.92
239.648	2.9
239.865	60.24
240.083	54.1
240.3	7
240.517	11.09
240.735	21.33
240.952	29.52
241.169	37.72
241.386	90.96
241.603	13.14
241.821	37.72
242.038	109.4
242.255	76.63
242.472	-19.63
242.689	31.57
242.907	88.92
243.124	13.14
243.341	-11.43
243.558	-23.72
243.775	-27.82
243.992	-3.24
244.209	152.4
244.426	76.63
244.643	64.34
244.86	60.24
245.078	66.39
245.295	72.53
245.512	68.44
245.729	-27.82
245.946	82.77
246.163	-9.39
246.38	7
246.597	33.62
246.814	15.19
247.031	64.34
247.248	95.06
247.464	41.81
247.681	29.52
247.898	86.87
248.115	144.21
248.332	-3.24
248.549	47.96
248.766	113.49
248.983	101.2
249.2	23.38
249.417	78.68
249.633	29.52
249.85	41.81
250.067	23.38
250.284	0.85
250.501	70.48
250.717	52.05
250.934	41.81
251.151	60.24
251.368	17.24
251.585	45.91
251.801	66.39
252.018	62.29
252.235	111.44
252.451	54.1
252.668	23.38
252.885	45.91
253.102	62.29
253.318	62.29
253.535	84.82
253.752	2.9
253.968	41.81
254.185	9.05
254.401	50
254.618	97.11
254.835	45.91
255.051	82.77
255.268	27.48
255.484	95.06
255.701	84.82
255.917	13.14
256.134	52.05
256.351	17.24
256.567	-50.35
256.784	31.57
257	41.81
257.217	54.1
257.433	70.48
257.65	-3.24
257.866	111.44
258.082	-21.67
258.299	41.81
258.515	78.68
258.732	15.19
258.948	78.68
259.165	25.43
259.381	4.95
259.597	131.92
259.814	64.34
260.03	58.2
260.246	21.33
260.463	74.58
260.679	86.87
260.895	133.97
261.112	-19.63
261.328	33.62
261.544	56.15
261.761	140.12
261.977	-44.2
262.193	25.43
262.409	45.91
262.626	64.34
262.842	103.25
263.058	-25.77
263.274	45.91
263.49	41.81
263.707	50
263.923	43.86
264.139	43.86
264.355	35.67
264.571	160.59
264.787	54.1
265.004	123.73
265.22	52.05
265.436	31.57
265.652	13.14
265.868	7
266.084	70.48
266.3	17.24
266.516	31.57
266.732	47.96
266.948	45.91
267.164	47.96
267.38	60.24
267.596	103.25
267.812	86.87
268.028	62.29
268.244	33.62
268.46	19.29
268.676	37.72
268.892	80.72
269.108	4.95
269.324	60.24
269.54	-21.67
269.756	136.02
269.972	-52.39
270.188	17.24
270.403	-3.24
270.619	31.57
270.835	2.9
271.051	52.05
271.267	107.35
271.483	97.11
271.698	111.44
271.914	50
272.13	37.72
272.346	29.52
272.562	-3.24
272.777	0.85
272.993	9.05
273.209	47.96
273.425	9.05
273.64	15.19
273.856	15.19
274.072	13.14
274.287	45.91
274.503	54.1
274.719	23.38
274.934	35.67
275.15	-17.58
275.366	70.48
275.581	15.19
275.797	54.1
276.012	-52.39
276.228	80.72
276.444	-11.43
276.659	154.45
276.875	41.81
277.09	23.38
277.306	-7.34
277.521	60.24
277.737	2.9
277.952	37.72
278.168	88.92
278.383	-9.39
278.599	123.73
278.814	41.81
279.03	88.92
279.245	103.25
279.461	80.72
279.676	86.87
279.892	72.53
280.107	31.57
280.322	47.96
280.538	72.53
280.753	-5.29
280.969	29.52
281.184	86.87
281.399	127.83
281.615	4.95
281.83	62.29
282.045	-15.53
282.26	-52.39
282.476	72.53
282.691	31.57
282.906	54.1
283.122	72.53
283.337	58.2
283.552	105.3
283.767	29.52
283.983	103.25
284.198	39.76
284.413	37.72
284.628	-81.07
284.843	50
285.058	13.14
285.274	99.16
285.489	86.87
285.704	70.48
285.919	78.68
286.134	99.16
286.349	-56.49
286.564	43.86
286.779	111.44
286.995	33.62
287.21	29.52
287.425	74.58
287.64	74.58
287.855	93.01
288.07	41.81
288.285	37.72
288.5	127.83
288.715	101.2
288.93	62.29
289.145	72.53
289.36	-17.58
289.575	80.72
289.79	86.87
290.004	15.19
290.219	47.96
290.434	-1.19
290.649	62.29
290.864	31.57
291.079	80.72
291.294	105.3
291.509	64.34
291.724	-38.06
291.938	13.14
292.153	113.49
292.368	23.38
292.583	45.91
292.798	64.34
293.012	39.76
293.227	74.58
293.442	23.38
293.657	29.52
293.871	95.06
294.086	45.91
294.301	103.25
294.516	15.19
294.73	43.86
294.945	37.72
295.16	15.19
295.374	117.59
295.589	62.29
295.804	15.19
296.018	39.76
296.233	138.07
296.447	62.29
296.662	-17.58
296.877	-5.29
297.091	70.48
297.306	70.48
297.52	45.91
297.735	78.68
297.949	4.95
298.164	-17.58
298.378	41.81
298.593	-15.53
298.807	31.57
299.022	115.54
299.236	21.33
299.451	70.48
299.665	-11.43
299.88	33.62
300.094	35.67
300.309	56.15
300.523	31.57
300.737	47.96
300.952	58.2
301.166	70.48
301.381	64.34
301.595	82.77
301.809	70.48
302.024	62.29
302.238	54.1
302.452	80.72
302.667	82.77
302.881	123.73
303.095	80.72
303.309	41.81
303.524	0.85
303.738	29.52
303.952	56.15
304.166	50
304.381	-23.72
304.595	93.01
304.809	78.68
305.023	21.33
305.237	43.86
305.452	84.82
305.666	80.72
305.88	31.57
306.094	111.44
306.308	39.76
306.522	90.96
306.736	35.67
306.95	56.15
307.164	62.29
307.379	103.25
307.593	54.1
307.807	58.2
308.021	119.64
308.235	50
308.449	9.05
308.663	23.38
308.877	105.3
309.091	47.96
309.305	37.72
309.519	4.95
309.733	74.58
309.947	-48.3
310.161	27.48
310.374	107.35
310.588	47.96
310.802	50
311.016	7
311.23	54.1
311.444	25.43
311.658	33.62
311.872	54.1
312.085	33.62
312.299	54.1
312.513	86.87
312.727	45.91
312.941	-9.39
313.154	29.52
313.368	107.35
313.582	56.15
313.796	62.29
314.009	76.63
314.223	123.73
314.437	54.1
314.651	62.29
314.864	-17.58
315.078	68.44
315.292	47.96
315.505	-23.72
315.719	9.05
315.933	23.38
316.146	62.29
316.36	45.91
316.573	-23.72
316.787	45.91
317.001	13.14
317.214	41.81
317.428	103.25
317.641	47.96
317.855	23.38
318.068	103.25
318.282	7
318.495	140.12
318.709	99.16
318.922	25.43
319.136	60.24
319.349	35.67
319.563	-3.24
319.776	78.68
319.99	-7.34
320.203	164.69
320.417	25.43
320.63	-3.24
320.843	162.64
321.057	37.72
321.27	31.57
321.483	90.96
321.697	109.4
321.91	37.72
322.124	13.14
322.337	-1.19
322.55	-54.44
322.763	129.88
322.977	4.95
323.19	72.53
323.403	119.64
323.617	29.52
323.83	60.24
324.043	90.96
324.256	4.95
324.469	88.92
324.683	41.81
324.896	29.52
325.109	31.57
325.322	-1.19
325.535	62.29
325.748	74.58
325.962	58.2
326.175	125.78
326.388	136.02
326.601	50
326.814	37.72
327.027	37.72
327.24	162.64
327.453	-5.29
327.666	50
327.879	64.34
328.092	111.44
328.305	62.29
328.518	78.68
328.731	29.52
328.944	127.83
329.157	54.1
329.37	19.29
329.583	74.58
329.796	41.81
330.009	33.62
330.222	41.81
330.435	58.2
330.648	54.1
330.861	33.62
331.073	-19.63
331.286	54.1
331.499	41.81
331.712	-29.87
331.925	88.92
332.138	25.43
332.35	29.52
332.563	-72.87
332.776	31.57
332.989	23.38
333.202	21.33
333.414	54.1
333.627	17.24
333.84	37.72
334.053	0.85
334.265	-1.19
334.478	15.19
334.691	140.12
334.903	121.68
335.116	17.24
335.329	29.52
335.541	50
335.754	62.29
335.966	13.14
336.179	50
336.392	56.15
336.604	119.64
336.817	45.91
337.029	56.15
337.242	86.87
337.454	35.67
337.667	41.81
337.88	33.62
338.092	90.96
338.305	33.62
338.517	47.96
338.729	31.57
338.942	136.02
339.154	29.52
339.367	56.15
339.579	86.87
339.792	21.33
340.004	76.63
340.217	-17.58
340.429	99.16
340.641	54.1
340.854	47.96
341.066	60.24
341.278	62.29
341.491	70.48
341.703	66.39
341.915	-36.01
342.128	80.72
342.34	29.52
342.552	33.62
342.764	47.96
342.977	-19.63
343.189	99.16
343.401	29.52
343.613	17.24
343.826	72.53
344.038	-87.21
344.25	93.01
344.462	64.34
344.674	105.3
344.886	99.16
345.099	99.16
345.311	70.48
345.523	37.72
345.735	7
345.947	33.62
346.159	88.92
346.371	47.96
346.583	62.29
346.795	107.35
347.007	41.81
347.219	4.95
347.431	45.91
347.643	86.87
347.855	-40.11
348.067	-25.77
348.279	37.72
348.491	-9.39
348.703	121.68
348.915	29.52
349.127	78.68
349.339	-7.34
349.551	33.62
349.763	33.62
349.975	82.77
350.187	54.1
350.399	39.76
350.61	99.16
350.822	-15.53
351.034	78.68
351.246	37.72
351.458	119.64
351.669	29.52
351.881	70.48
352.093	76.63
352.305	78.68
352.517	62.29
352.728	148.31
352.94	23.38
353.152	70.48
353.363	78.68
353.575	31.57
353.787	123.73
353.999	37.72
354.21	76.63
354.422	50
354.633	41.81
354.845	64.34
355.057	-31.91
355.268	86.87
355.48	76.63
355.692	29.52
355.903	17.24
356.115	90.96
356.326	2.9
356.538	29.52
356.749	58.2
356.961	133.97
357.172	-17.58
357.384	45.91
357.595	39.76
357.807	15.19
358.018	7
358.23	66.39
358.441	109.4
358.653	45.91
358.864	58.2
359.075	-3.24
359.287	66.39
359.498	21.33
359.709	64.34
359.921	47.96
360.132	133.97
360.344	99.16
360.555	39.76
360.766	47.96
360.977	45.91
361.189	78.68
361.4	66.39
361.611	107.35
361.823	54.1
362.034	111.44
362.245	45.91
362.456	29.52
362.667	88.92
362.879	78.68
363.09	58.2
363.301	50
363.512	103.25
363.723	33.62
363.935	-21.67
364.146	125.78
364.357	13.14
364.568	72.53
364.779	-17.58
364.99	152.4
365.201	66.39
365.412	50
365.623	50
365.834	90.96
366.045	13.14
366.256	66.39
366.467	54.1
366.678	45.91
366.889	45.91
367.1	47.96
367.311	168.79
367.522	103.25
367.733	136.02
367.944	70.48
368.155	80.72
368.366	107.35
368.577	60.24
368.788	105.3
368.999	-52.39
369.209	66.39
369.42	68.44
369.631	113.49
369.842	21.33
370.053	70.48
370.264	54.1
370.474	-19.63
370.685	107.35
370.896	47.96
371.107	121.68
371.317	35.67
371.528	121.68
371.739	136.02
371.95	45.91
372.16	62.29
372.371	78.68
372.582	58.2
372.792	-19.63
373.003	78.68
373.214	80.72
373.424	136.02
373.635	-33.96
373.846	78.68
374.056	86.87
374.267	121.68
374.477	86.87
374.688	80.72
374.898	13.14
375.109	4.95
375.319	136.02
375.53	60.24
375.74	95.06
375.951	54.1
376.161	33.62
376.372	121.68
376.582	111.44
376.793	70.48
377.003	86.87
377.214	21.33
377.424	70.48
377.635	45.91
377.845	60.24
378.055	146.26
378.266	127.83
378.476	56.15
378.686	45.91
378.897	39.76
379.107	45.91
379.317	27.48
379.528	80.72
379.738	17.24
379.948	31.57
380.158	84.82
380.369	29.52
380.579	121.68
380.789	-11.43
380.999	86.87
381.21	138.07
381.42	131.92
381.63	84.82
381.84	66.39
382.05	21.33
382.261	64.34
382.471	144.21
382.681	54.1
382.891	119.64
383.101	70.48
383.311	45.91
383.521	17.24
383.731	113.49
383.941	47.96
384.151	29.52
384.361	95.06
384.571	95.06
384.781	39.76
384.991	52.05
385.201	144.21
385.411	21.33
385.621	78.68
385.831	50
386.041	66.39
386.251	74.58
386.461	119.64
386.671	113.49
386.881	131.92
387.091	62.29
387.301	95.06
387.511	-7.34
387.72	93.01
387.93	74.58
388.14	15.19
388.35	7
388.56	127.83
388.769	131.92
388.979	-19.63
389.189	97.11
389.399	-1.19
389.609	78.68
389.818	29.52
390.028	97.11
390.238	119.64
390.447	54.1
390.657	39.76
390.867	47.96
391.076	45.91
391.286	113.49
391.496	58.2
391.705	80.72
391.915	66.39
392.125	70.48
392.334	37.72
392.544	185.17
392.753	119.64
392.963	21.33
393.172	144.21
393.382	62.29
393.591	133.97
393.801	41.81
394.01	115.54
394.22	119.64
394.429	121.68
394.639	74.58
394.848	95.06
395.058	201.55
395.267	105.3
395.477	72.53
395.686	86.87
395.895	179.03
396.105	144.21
396.314	127.83
396.524	127.83
396.733	95.06
396.942	90.96
397.152	119.64
397.361	148.31
397.57	154.45
397.78	103.25
397.989	140.12
398.198	160.59
398.407	146.26
398.617	127.83
398.826	97.11
399.035	119.64
399.244	140.12
399.453	148.31
399.663	191.31
399.872	162.64
400.081	95.06
400.29	144.21
400.499	78.68
400.708	195.41
400.917	127.83
401.127	97.11
401.336	144.21
401.545	226.13
401.754	121.68
401.963	185.17
402.172	62.29
402.381	129.88
402.59	160.59
402.799	160.59
403.008	152.4
403.217	129.88
403.426	176.98
403.635	115.54
403.844	113.49
404.053	203.6
404.262	113.49
404.471	197.46
404.68	78.68
404.888	213.84
405.097	138.07
405.306	254.8
405.515	226.13
405.724	205.65
405.933	217.94
406.142	187.22
406.35	219.99
406.559	283.47
406.768	285.52
406.977	269.14
407.185	217.94
407.394	254.8
407.603	293.71
407.812	277.33
408.02	308.05
408.229	299.86
408.438	232.27
408.646	295.76
408.855	312.14
409.064	316.24
409.272	332.62
409.481	394.06
409.69	367.44
409.898	318.29
410.107	422.73
410.315	336.72
410.524	418.64
410.733	516.94
410.941	453.45
411.15	488.27
411.358	502.61
411.567	545.61
411.775	543.57
411.984	529.23
412.192	566.09
412.401	566.09
412.609	680.78
412.818	533.33
413.026	611.15
413.234	623.44
413.443	633.68
413.651	750.41
413.86	701.26
414.068	785.23
414.276	881.48
414.485	815.94
414.693	906.06
414.901	891.72
415.11	873.29
415.318	865.1
415.526	899.91
415.734	973.64
415.943	967.49
416.151	1071.94
416.359	1049.41
416.567	1069.89
416.776	1174.34
416.984	1153.86
417.192	1260.35
417.4	1196.87
417.608	1250.11
417.817	1348.42
418.025	1342.27
418.233	1479.49
418.441	1442.62
418.649	1561.41
418.857	1581.89
419.065	1647.42
419.273	1598.27
419.481	1655.61
419.689	1803.07
419.897	1786.68
420.105	1927.99
420.313	1981.24
420.521	2106.17
420.729	2054.97
420.937	2054.97
421.145	2188.08
421.353	2233.14
421.561	2454.32
421.769	2433.84
421.977	2577.2
422.185	2454.32
422.393	2806.57
422.601	2786.09
422.809	2835.24
423.017	2896.68
423.224	2954.02
423.432	3152.68
423.64	3193.64
423.848	3416.87
424.056	3371.81
424.263	3592.99
424.471	3554.08
424.679	3560.22
424.887	3791.64
425.094	3797.79
425.302	3994.39
425.51	4117.27
425.718	4354.83
425.925	4223.76
426.133	4313.88
426.341	4678.41
426.548	4817.68
426.756	4772.62
426.964	5051.14
427.171	5141.25
427.379	5387.01
427.586	5454.59
427.794	5288.71
428.001	5735.17
428.209	6034.17
428.417	5993.21
428.624	6333.17
428.832	6378.23
429.039	6400.76
429.247	6320.88
429.454	7037.67
429.662	7422.69
429.869	6972.14
430.076	7430.88
430.284	7275.24
430.491	7635.68
430.699	7733.98
430.906	7961.31
431.114	8174.3
431.321	8319.7
431.528	8573.65
431.736	8964.81
431.943	9433.8
432.15	9026.25
432.358	9308.87
432.565	9769.66
432.772	9796.29
432.979	10369.72
433.187	10582.71
433.394	10386.1
433.601	11211.43
433.808	11377.32
434.016	11297.45
434.223	11547.3
434.43	12247.71
434.637	12001.95
434.844	12794.51
435.052	13083.28
435.259	12915.34
435.466	13101.71
435.673	12800.66
435.88	13775.49
436.087	14768.76
436.294	14533.24
436.501	14172.8
436.708	14213.76
436.915	14891.63
437.122	15686.25
437.329	15540.84
437.537	16056.93
437.743	16276.06
437.95	16179.81
438.157	17140.3
438.364	17648.2
438.571	17529.42
438.778	17623.62
438.985	19264.05
439.192	18346.56
439.399	19003.96
439.606	18448.96
439.813	19763.75
440.02	21197.33
440.227	20279.84
440.433	20324.9
440.64	21053.97
440.847	20673.05
441.054	21223.95
441.261	22839.8
441.467	22434.3
441.674	22780.41
441.881	23790.06
442.088	23726.57
442.294	23343.6
442.501	24117.73
442.708	24304.1
442.914	25403.86
443.121	26669.5
443.328	25512.4
443.534	27300.28
443.741	26927.55
443.948	26165.7
444.154	28230.05
444.361	28137.9
444.568	28522.91
444.774	28232.1
444.981	28705.18
445.187	29456.79
445.394	30663.04
445.6	30026.12
445.807	33448.28
446.013	31793.52
446.22	32299.37
446.426	33792.34
446.633	34195.79
446.839	35184.96
447.046	33573.21
447.252	35395.9
447.459	35285.31
447.665	35572.02
447.871	37134.62
448.078	38357.26
448.284	36790.56
448.491	38023.44
448.697	39401.72
448.903	39889.14
449.11	39796.98
449.316	38832.39
449.522	39815.41
449.728	41060.58
449.935	41093.35
450.141	41150.69
450.347	42203.35
450.553	40597.74
450.76	41742.55
450.966	43043.01
451.172	41926.87
451.378	43368.64
451.584	42205.39
451.791	43894.97
451.997	43337.92
452.203	44648.62
452.409	44034.23
452.615	43880.63
452.821	42180.82
453.027	41855.19
453.233	43942.07
453.44	41961.69
453.646	42500.3
453.852	42821.83
454.058	43557.05
454.264	42418.38
454.47	43393.22
454.676	41967.83
454.882	43894.97
455.088	39753.97
455.294	40298.73
455.5	41158.88
455.705	40929.51
455.911	39966.96
456.117	39180.54
456.323	38840.58
456.529	36686.12
456.735	38105.36
456.941	37224.73
457.147	36567.34
457.352	35488.06
457.558	35129.66
457.764	34961.73
457.97	34611.53
458.176	33710.42
458.381	33642.84
458.587	31936.88
458.793	31838.58
458.999	30226.82
459.204	32643.43
459.41	32239.98
459.616	29743.5
459.821	29641.11
460.027	29667.73
460.233	28940.7
460.438	27165.11
460.644	27593.14
460.85	26579.39
461.055	26186.18
461.261	26071.5
461.466	23949.8
461.672	23536.11
461.878	24811.99
462.083	23448.05
462.289	22948.34
462.494	22456.83
462.7	21809.67
462.905	21041.68
463.111	21692.94
463.316	21813.77
463.522	21318.16
463.727	21344.78
463.932	21015.06
464.138	20849.18
464.343	20994.58
464.549	20376.09
464.754	21031.44
464.959	20929.05
465.165	20746.78
465.37	19616.3
465.575	19345.97
465.781	19837.48
465.986	19941.93
466.191	19247.66
466.397	19333.68
466.602	18117.18
466.807	18928.18
467.012	19036.72
467.218	18543.16
467.423	18565.69
467.628	18524.73
467.833	19384.88
468.038	18676.28
468.244	17984.07
468.449	18557.5
468.654	18213.44
468.859	17668.68
469.064	17994.31
469.269	17085.01
469.474	17224.27
469.679	17857.09
469.885	17207.89
470.09	17316.43
470.295	17244.75
470.5	16546.39
470.705	17005.14
470.91	16298.59
471.115	16753.24
471.32	16558.68
471.525	16513.63
471.73	16034.4
471.935	15907.43
472.139	15477.35
472.344	15721.06
472.549	15368.81
472.754	15325.8
472.959	15188.59
473.164	14658.17
473.369	14643.83
473.574	14991.98
473.778	14967.41
473.983	14783.09
474.188	14719.6
474.393	14047.87
474.598	14103.17
474.802	13898.37
475.007	13924.99
475.212	13806.21
475.417	13488.78
475.621	13167.24
475.826	13402.76
476.031	13099.66
476.235	12907.15
476.44	13195.92
476.645	13025.93
476.849	12886.67
477.054	12933.78
477.259	12771.99
477.463	12540.57
477.668	12319.39
477.872	12329.63
478.077	12022.43
478.282	11940.51
478.486	11575.97
478.691	11694.75
478.895	11817.63
479.1	11817.63
479.304	11584.16
479.509	11379.37
479.713	11543.21
479.918	11272.87
480.122	11197.1
480.326	11158.19
480.531	11362.98
480.735	11147.95
480.94	11059.88
481.144	11317.93
481.348	10744.5
481.553	11094.7
481.757	10724.02
481.961	10787.5
482.166	10912.43
482.37	10883.76
482.574	10535.6
482.778	10818.22
482.983	10902.19
483.187	10885.81
483.391	10924.72
483.595	10707.63
483.8	10420.92
484.004	10818.22
484.208	10715.83
484.412	10785.46
484.616	10695.35
484.821	10814.13
485.025	10396.34
485.229	10791.6
485.433	10551.99
485.637	10676.91
485.841	10609.33
486.045	10650.29
486.249	10566.32
486.453	10449.59
486.657	10678.96
486.861	10697.39
487.065	10465.97
487.269	10697.39
487.473	10582.71
487.677	10681.01
487.881	10797.74
488.085	10357.43
488.289	10730.16
488.493	10558.13
488.697	10736.31
488.901	10709.68
489.105	10449.59
489.309	10640.05
489.512	10797.74
489.716	10842.8
489.92	10511.03
490.124	10623.67
490.328	10738.35
490.531	10848.94
490.735	10687.15
490.939	10842.8
491.143	10554.04
491.346	10691.25
491.55	10771.12
491.754	11043.5
491.958	11100.84
492.161	11033.26
492.365	10916.53
492.569	10785.46
492.772	11094.7
492.976	11096.75
493.18	11131.56
493.383	11254.44
493.587	11150
493.79	11420.33
493.994	11092.65
494.197	11522.73
494.401	11457.19
494.605	11549.35
494.808	11678.37
495.012	11846.3
495.215	11879.07
495.419	11915.94
495.622	11778.72
495.825	11885.22
496.029	11881.12
496.232	12294.81
496.436	11969.18
496.639	12472.98
496.843	12214.94
497.046	12776.08
497.249	12804.75
497.453	12898.96
497.656	12911.25
497.859	12833.43
498.063	13009.55
498.266	13210.25
498.469	13152.91
498.673	13312.65
498.876	13734.53
499.079	13580.93
499.282	13630.09
499.485	14144.13
499.689	14129.79
499.892	14301.82
500.095	14353.02
500.298	14502.52
500.501	14537.34
500.705	14666.36
500.908	15102.57
501.111	15274.6
501.314	15213.17
501.517	15411.82
501.72	15397.48
501.923	15579.75
502.126	16038.5
502.329	16142.94
502.532	15833.7
502.735	16233.05
502.938	16321.12
503.141	16570.97
503.344	16788.05
503.547	16843.35
503.75	17211.98
503.953	17150.54
504.156	17611.34
504.359	17660.49
504.562	17605.19
504.765	17945.16
504.968	18305.6
505.17	18055.75
505.373	18387.52
505.576	18735.67
505.779	18891.32
505.982	18985.52
506.185	19444.27
506.387	19196.46
506.59	19595.82
506.793	19857.96
506.996	20011.56
507.198	20488.73
507.401	20259.36
507.604	20410.91
507.807	20949.53
508.009	21156.37
508.212	21463.57
508.415	21438.99
508.617	21602.83
508.82	21670.41
509.022	21910.02
509.225	22186.5
509.428	22475.26
509.63	22663.68
509.833	22483.45
510.035	23276.02
510.238	23153.14
510.44	23431.66
510.643	23712.24
510.845	24041.96
511.048	23888.36
511.25	24406.5
511.453	24469.98
511.655	25246.16
511.858	24877.53
512.06	25235.92
512.262	25446.87
512.465	25387.47
512.667	26071.5
512.87	26169.8
513.072	26020.3
513.274	26677.69
513.477	26710.46
513.679	26614.21
513.881	27191.73
514.084	27748.78
514.286	27777.45
514.488	27879.85
514.69	28361.12
514.893	28594.59
515.095	28430.76
515.297	28803.49
515.499	28871.07
515.701	29338.01
515.904	29610.39
516.106	30181.77
516.308	29899.15
516.51	30345.61
516.712	30759.3
516.914	30388.61
517.116	31404.41
517.318	30892.41
517.52	31416.69
517.722	31668.59
517.925	32409.96
518.127	32317.8
518.329	32551.27
518.531	32127.34
518.733	32932.19
518.935	32805.22
519.136	33278.3
519.338	33280.35
519.54	33843.54
519.742	33825.11
519.944	33990.99
520.146	34642.24
520.348	34799.94
520.55	34806.08
520.752	34888
520.954	35486.01
521.155	34939.2
521.357	35598.65
521.559	35907.89
521.761	36270.38
521.963	36247.85
522.164	36096.3
522.366	36372.78
522.568	36567.34
522.77	36925.73
522.971	37429.53
523.173	36911.39
523.375	37560.6
523.576	37333.28
523.778	37593.37
523.98	37720.34
524.181	37660.95
524.383	37994.77
524.584	38037.78
524.786	38005.01
524.988	38168.85
525.189	38140.18
525.391	38725.89
525.592	38869.25
525.794	38713.61
525.995	38801.67
526.197	38580.49
526.398	38920.45
526.6	39072
526.801	39207.17
527.003	39082.24
527.204	39414.01
527.406	39538.94
527.607	38936.84
527.808	39319.81
528.01	39016.71
528.211	39405.82
528.412	39899.38
528.614	39952.63
528.815	39760.12
529.016	39846.13
529.218	39852.28
529.419	39676.15
529.62	39866.61
529.822	39504.12
530.023	39493.88
530.224	39995.64
530.425	39573.75
530.626	39418.11
530.828	39418.11
531.029	40225.01
531.23	39475.45
531.431	39592.19
531.632	39883
531.833	39926
532.035	39493.88
532.236	39555.32
532.437	39753.97
532.638	39282.94
532.839	39422.2
533.04	39803.13
533.241	39104.77
533.442	39702.78
533.643	39295.23
533.844	39399.68
534.045	39373.05
534.246	38861.06
534.447	39731.45
534.648	38895.88
534.849	39414.01
535.05	38594.82
535.251	39282.94
535.451	39078.15
535.652	39223.55
535.853	38734.09
536.054	39147.78
536.255	39182.59
536.456	38676.74
536.657	39282.94
536.857	38893.83
537.058	38799.62
537.259	39182.59
537.46	38912.26
537.66	38588.68
537.861	38353.16
538.062	38527.24
538.263	38799.62
538.463	38488.33
538.664	38537.48
538.865	38484.23
539.065	38414.6
539.266	37878.04
539.466	38736.13
539.667	38306.06
539.868	38537.48
540.068	38482.19
540.269	38244.62
540.469	38584.58
540.67	38127.89
540.87	38355.21
541.071	38230.29
541.271	38306.06
541.472	38324.49
541.672	37984.53
541.873	37855.51
542.073	37695.77
542.274	37904.66
542.474	37695.77
542.675	37540.12
542.875	38254.86
543.075	37941.52
543.276	37511.45
543.476	38009.11
543.676	37861.65
543.877	38146.32
544.077	37804.31
544.277	37374.24
544.478	37914.9
544.678	37812.5
544.878	38039.82
545.078	37724.44
545.279	37157.15
545.479	37366.04
545.679	37892.37
545.879	37679.38
546.079	37558.55
546.28	37372.19
546.48	37277.98
546.68	37753.11
546.88	37622.04
547.08	37974.29
547.28	37392.67
547.48	37429.53
547.68	37464.35
547.88	37536.02
548.081	37953.81
548.281	37691.67
548.481	37812.5
548.681	37845.27
548.881	37566.74
549.081	37480.73
549.28	37402.91
549.48	38064.4
549.68	37456.15
549.88	38234.38
550.08	37562.65
550.28	37808.4
550.48	37718.29
550.68	37816.6
550.88	37695.77
551.08	37611.8
551.279	37654.81
551.479	37546.26
551.679	37828.88
551.879	37716.25
552.079	37923.09
552.278	38068.5
552.478	37964.05
552.678	38349.07
552.878	38109.46
553.077	37796.12
553.277	37493.02
553.477	38265.1
553.676	38035.73
553.876	37923.09
554.076	37703.96
554.275	37681.43
554.475	37529.88
554.674	38093.07
554.874	37818.64
555.074	38037.78
555.273	38283.53
555.473	38191.37
555.672	37886.23
555.872	38029.59
556.071	37925.14
556.271	38052.11
556.47	38086.93
556.67	37777.68
556.869	37828.88
557.068	38127.89
557.268	38160.66
557.467	38142.22
557.667	38297.87
557.866	38037.78
558.065	38398.22
558.265	37884.18
558.464	38000.91
558.663	37873.94
558.863	37835.03
559.062	38416.65
559.261	37865.75
559.461	38365.45
559.66	37830.93
559.859	38019.35
560.058	37730.58
560.258	38457.61
560.457	37804.31
560.656	38164.75
560.855	37898.52
561.054	38648.07
561.253	37988.63
561.453	38283.53
561.652	38041.87
561.851	38007.06
562.05	37765.4
562.249	37669.14
562.448	38297.87
562.647	37767.45
562.846	37847.32
563.045	38295.82
563.244	37882.13
563.443	38344.97
563.642	37857.56
563.841	37906.71
564.04	37609.75
564.239	37962
564.438	37619.99
564.637	37783.83
564.836	37886.23
565.035	37507.35
565.234	37777.68
565.432	37370.14
565.631	37312.8
565.83	37505.31
566.029	37517.59
566.228	37210.4
566.427	37263.64
566.625	36989.22
566.824	37030.18
567.023	37320.99
567.222	36403.5
567.42	37159.2
567.619	37103.9
567.818	36856.1
568.016	36788.52
568.215	37411.1
568.414	36927.78
568.612	37368.09
568.811	36780.32
569.01	36518.18
569.208	36473.13
569.407	36503.85
569.605	36243.76
569.804	36788.52
570.002	36184.37
570.201	36366.63
570.4	36065.58
570.598	36145.45
570.797	35897.65
570.995	36331.82
571.193	35717.43
571.392	36038.96
571.59	35889.46
571.789	36102.45
571.987	35760.44
572.186	35449.14
572.384	35277.12
572.582	35555.64
572.781	35440.95
572.979	34935.1
573.177	35316.03
573.376	35451.19
573.574	34824.51
573.772	34998.59
573.971	34634.05
574.169	34797.89
574.367	34185.55
574.565	34660.68
574.763	34072.91
574.962	34195.79
575.16	34064.72
575.358	34394.44
575.556	33595.73
575.754	34302.28
575.952	33655.12
576.151	34085.2
576.349	33806.67
576.547	33429.85
576.745	33481.05
576.943	33392.98
577.141	33562.97
577.339	33188.19
577.537	33343.83
577.735	33100.12
577.933	32866.66
578.131	33057.12
578.329	32948.57
578.527	32784.74
578.725	32895.33
578.923	32625
579.121	32416.1
579.319	32639.33
579.516	32774.5
579.714	32123.24
579.912	32246.12
580.11	32309.61
580.308	32100.72
580.506	32022.89
580.704	31218.04
580.901	31943.02
581.099	31955.31
581.297	31471.99
581.495	31177.08
581.692	31488.37
581.89	31539.57
582.088	31633.78
582.285	31252.86
582.483	31437.17
582.681	31234.42
582.878	30945.66
583.076	31021.44
583.274	31252.86
583.471	30540.16
583.669	30810.5
583.866	30640.51
584.064	30773.63
584.262	30155.15
584.459	30966.14
584.657	30525.83
584.854	30777.73
585.052	30132.62
585.249	30056.84
585.447	30028.17
585.644	29899.15
585.841	30042.51
586.039	29981.07
586.236	29557.14
586.434	29876.62
586.631	29780.37
586.828	29514.13
587.026	29561.23
587.223	29739.41
587.42	29438.36
587.618	29303.19
587.815	29720.98
588.012	29098.39
588.21	29196.7
588.407	29364.63
588.604	29047.19
588.801	28975.52
588.999	29143.45
589.196	29006.23
589.393	28727.71
589.59	28873.12
589.787	28748.19
589.984	28725.66
590.182	28318.12
590.379	28643.74
590.576	28422.56
590.773	28365.22
590.97	28307.88
591.167	28238.25
591.364	28182.95
591.561	28105.13
591.758	27826.6
591.955	27939.24
592.152	28117.42
592.349	27840.94
592.546	27797.93
592.743	28266.92
592.94	27484.59
593.137	27894.19
593.334	27931.05
593.531	27523.51
593.727	27996.59
593.924	27636.14
594.121	27154.87
594.318	27574.7
594.515	27316.66
594.712	27648.43
594.908	27185.59
595.105	27210.17
595.302	27247.03
595.499	27402.68
595.696	27400.63
595.892	26929.59
596.089	27357.62
596.286	27443.63
596.482	27173.3
596.679	26905.02
596.876	27304.37
597.072	27081.14
597.269	27163.06
597.466	26671.55
597.662	26728.89
597.859	27046.33
598.055	27075
598.252	26991.03
598.448	27070.9
598.645	26798.52
598.841	26573.25
599.038	26886.59
599.234	27075
599.431	26831.29
599.627	26702.27
599.824	27111.86
600.02	26628.54
600.217	27070.9
600.413	26575.3
600.609	26593.73
600.806	27072.95
601.002	26442.18
601.198	26630.59
601.395	26530.24
601.591	26569.15
601.787	26710.46
601.984	26939.83
602.18	27062.71
602.376	26614.21
602.572	26759.61
602.769	26771.9
602.965	26489.28
603.161	26640.83
603.357	26646.97
603.553	26436.03
603.75	27025.85
603.946	26487.23
604.142	26931.64
604.338	26587.58
604.534	26649.02
604.73	26855.87
604.926	26882.49
605.122	26827.2
605.318	26831.29
605.514	26638.78
605.71	26593.73
605.906	26722.75
606.102	26907.07
606.298	27034.04
606.494	27277.75
606.69	26778.04
606.886	27025.85
607.082	26696.13
607.278	27171.25
607.474	26608.06
607.67	27089.34
607.866	26796.48
608.062	26958.27
608.257	27179.45
608.453	27283.89
608.649	27277.75
608.845	27314.61
609.041	27273.65
609.236	27234.74
609.432	27390.39
609.628	27240.89
609.824	27263.41
610.019	27124.15
610.215	27081.14
610.411	27204.02
610.606	27249.08
610.802	27271.61
610.998	27511.22
611.193	27412.92
611.389	27189.69
611.584	27531.7
611.78	27095.48
611.976	27271.61
612.171	27374
612.367	27752.88
612.562	27498.93
612.758	27171.25
612.953	27298.23
613.149	27818.41
613.344	27113.91
613.539	27824.56
613.735	27496.88
613.93	27822.51
614.126	27531.7
614.321	27376.05
614.517	27679.15
614.712	27720.11
614.907	27132.34
615.103	27482.55
615.298	27560.37
615.493	27687.34
615.688	27386.29
615.884	28133.8
616.079	27374
616.274	27449.78
616.47	27406.77
616.665	27789.74
616.86	27220.41
617.055	27414.96
617.25	27560.37
617.445	27965.87
617.641	27007.42
617.836	27742.64
618.031	27156.92
618.226	27736.49
618.421	27208.12
618.616	27666.86
618.811	26939.83
619.006	27509.17
619.201	26786.24
619.396	26952.12
619.591	26718.65
619.786	26761.66
619.981	26776
620.176	26857.92
620.371	26603.97
620.566	26726.85
620.761	26350.02
620.956	26706.37
621.151	26466.75
621.346	26304.96
621.541	26018.25
621.735	26479.04
621.93	25782.73
622.125	25999.82
622.32	25467.34
622.515	25729.48
622.709	25729.48
622.904	25405.91
623.099	25758.16
623.294	25180.63
623.488	25215.44
623.683	25481.68
623.878	24760.8
624.072	25020.89
624.267	24814.04
624.462	24580.57
624.656	24455.65
624.851	24527.33
625.046	24422.88
625.24	24490.46
625.435	24084.97
625.629	24109.54
625.824	24082.92
626.018	24218.08
626.213	23331.31
626.407	23779.82
626.602	23468.53
626.796	23855.59
626.991	23402.99
627.185	23222.77
627.38	22897.14
627.574	22786.55
627.768	22721.02
627.963	22639.1
628.157	22860.28
628.352	22743.55
628.546	22456.83
628.74	22612.48
628.935	22204.93
629.129	22178.31
629.323	22112.77
629.517	21993.99
629.712	21875.21
629.906	21748.23
630.1	21545.48
630.294	21647.88
630.489	21518.86
630.683	21441.04
630.877	21117.46
631.071	21127.7
631.265	21109.27
631.459	20886.04
631.653	20963.86
631.848	21031.44
632.042	20779.54
632.236	20415.01
632.43	20152.87
632.624	20591.13
632.818	20410.91
633.012	19909.16
633.206	20236.83
633.4	20159.01
633.594	19743.27
633.788	19593.77
633.982	19464.75
634.176	19630.63
634.369	19532.33
634.563	19348.01
634.757	19212.85
634.951	19315.25
635.145	19171.89
635.339	19184.18
635.533	18659.9
635.726	18948.66
635.92	18719.29
636.114	18743.86
636.308	18565.69
636.501	18627.13
636.695	18403.9
636.889	18106.95
637.083	18111.04
637.276	18012.74
637.47	17916.48
637.664	17748.55
637.857	17953.35
638.051	17347.15
638.244	17582.67
638.438	17365.58
638.632	17142.35
638.825	17283.66
639.019	17281.61
639.212	16757.33
639.406	17068.62
639.599	16839.25
639.793	16917.08
639.986	16398.94
640.18	16665.18
640.373	16476.76
640.567	16233.05
640.76	16343.64
640.954	16251.49
641.147	16282.2
641.34	16101.98
641.534	16183.9
641.727	15995.49
641.92	15862.37
642.114	15700.58
642.307	15567.46
642.5	15526.5
642.694	15303.28
642.887	15045.23
643.08	15544.94
643.273	15059.57
643.467	15106.67
643.66	14815.86
643.853	14981.74
644.046	14850.67
644.239	14662.26
644.432	14731.89
644.626	14606.97
644.819	14217.85
645.012	14543.48
645.205	14604.92
645.398	14320.25
645.591	14099.07
645.784	14269.05
645.977	13816.45
646.17	13884.03
646.363	13798.02
646.556	13712
646.749	13580.93
646.942	13669
647.135	13632.13
647.328	13388.43
647.521	13306.51
647.714	13085.33
647.907	13230.73
648.099	13161.1
648.292	13189.77
648.485	13077.13
648.678	12657.3
648.871	12796.56
649.064	12761.75
649.256	12702.36
649.449	12550.81
649.642	12499.61
649.835	12360.34
650.027	12370.58
650.22	12247.71
650.413	12280.47
650.605	12106.4
650.798	12096.16
650.991	12139.16
651.183	11942.56
651.376	11686.56
651.568	11948.7
651.761	11694.75
651.954	11823.78
652.146	11551.4
652.339	11641.51
652.531	11541.16
652.724	11512.49
652.916	11125.42
653.109	11360.94
653.301	11211.43
653.494	11383.46
653.686	11205.29
653.879	11186.86
654.071	11100.84
654.263	10824.37
654.456	11213.48
654.648	11199.15
654.84	10826.42
655.033	10791.6
655.225	10779.31
655.417	10461.88
655.61	10496.69
655.802	10443.45
655.994	10431.16
656.186	10457.78
656.379	10420.92
656.571	10291.9
656.763	10269.37
656.955	10152.63
657.148	10252.98
657.34	10166.97
657.532	9931.45
657.724	9896.64
657.916	9894.59
658.108	9978.56
658.3	9790.14
658.492	9687.75
658.684	9605.83
658.876	9779.9
659.068	9616.07
659.26	9616.07
659.452	9493.19
659.644	9417.41
659.836	9329.35
660.028	9401.03
660.22	9188.04
660.412	9251.53
660.604	9073.35
660.796	9235.14
660.988	9036.49
661.18	9114.31
661.372	8958.67
661.563	8852.17
661.755	8829.65
661.947	8925.9
662.139	8809.17
662.331	8692.43
662.522	8561.36
662.714	8542.93
662.906	8430.29
663.097	8569.55
663.289	8377.05
663.481	8348.37
663.673	8536.79
663.864	8305.37
664.056	8299.22
664.247	8235.74
664.439	8225.5
664.631	8221.4
664.822	7979.74
665.014	8180.44
665.205	7865.05
665.397	8045.27
665.588	7897.82
665.78	7820
665.971	7967.45
666.163	7754.46
666.354	7879.39
666.546	7697.12
666.737	7776.99
666.929	7688.93
667.12	7639.78
667.311	7729.89
667.503	7387.88
667.694	7463.65
667.885	7418.6
668.077	7412.45
668.268	7289.57
668.459	7391.97
668.651	7256.81
668.842	7172.84
669.033	7330.53
669.224	7205.61
669.416	7099.11
669.607	7234.28
669.798	7187.18
669.989	7004.91
670.18	6939.37
670.371	7107.3
670.563	7088.87
670.754	7058.15
670.945	6822.64
671.136	6984.43
671.327	6972.14
671.518	6847.21
671.709	6730.48
671.9	6826.73
672.091	6904.56
672.282	6658.8
672.473	6738.67
672.664	6699.76
672.855	6687.47
673.046	6652.66
673.237	6568.69
673.428	6476.53
673.619	6730.48
673.809	6662.9
674	6601.46
674.191	6431.48
674.382	6437.62
674.573	6574.83
674.764	6462.19
674.954	6486.77
675.145	6314.74
675.336	6386.42
675.527	6427.38
675.717	6343.41
675.908	6402.8
676.099	6312.69
676.289	6345.46
676.48	6288.12
676.671	6120.18
676.861	6421.24
677.052	6124.28
677.243	6152.95
677.433	6251.25
677.624	6241.01
677.814	6181.62
678.005	6378.23
678.195	6150.9
678.386	6032.12
678.576	6165.24
678.767	6054.65
678.957	6001.4
679.148	6138.62
679.338	6198.01
679.529	5999.35
679.719	5960.44
679.909	6099.7
680.1	6230.77
680.29	6030.07
680.481	5950.2
680.671	6091.51
680.861	5903.1
681.052	5929.72
681.242	6021.88
681.432	6089.46
681.622	6050.55
681.813	5960.44
682.003	5903.1
682.193	5837.56
682.383	5901.05
682.573	5978.87
682.764	5886.72
682.954	5933.82
683.144	5849.85
683.334	5894.91
683.524	5862.14
683.714	5821.18
683.904	5759.74
684.094	5812.99
684.284	5683.97
684.474	5763.84
684.664	5837.56
684.854	5767.93
685.044	5700.35
685.234	5657.34
685.424	5776.13
685.614	5597.95
685.804	5679.87
685.994	5780.22
686.184	5679.87
686.374	5718.78
686.564	5733.12
686.753	5645.06
686.943	5608.19
687.133	5513.99
687.323	5651.2
687.513	5638.91
687.702	5548.8
687.892	5503.75
688.082	5489.41
688.272	5460.74
688.461	5456.64
688.651	5458.69
688.841	5419.78
689.03	5374.72
689.22	5552.9
689.41	5526.27
689.599	5333.76
689.789	5477.12
689.979	5290.76
690.168	5307.14
690.358	5266.18
690.547	5337.86
690.737	5411.59
690.926	5077.77
691.116	5163.78
691.305	5260.04
691.495	5198.6
691.684	5145.35
691.874	5141.25
692.063	5092.1
692.252	5303.04
692.442	5161.73
692.631	5028.62
692.82	5077.77
693.01	5075.72
693.199	5120.78
693.388	5112.58
693.578	5067.53
693.767	5022.47
693.956	5026.57
694.146	4987.66
694.335	4829.96
694.524	5045
694.713	4879.11
694.902	4862.73
695.092	4952.84
695.281	5001.99
695.47	4823.82
695.659	4854.54
695.848	4789
696.037	4862.73
696.226	4842.25
696.415	4782.86
696.604	4793.1
696.793	4739.85
696.982	4707.09
697.171	4698.89
697.36	4768.52
697.549	4764.43
697.738	4750.09
697.927	4774.67
698.116	4727.57
698.305	4549.39
698.494	4838.16
698.683	4725.52
698.872	4776.72
699.061	4539.15
699.25	4598.54
699.438	4612.88
699.627	4576.02
699.816	4610.83
700.005	4723.47
700.193	4567.82
700.382	4526.86
700.571	4514.58
700.76	4553.49
700.948	4647.69
701.137	4608.78
701.326	4453.14
701.514	4502.29
701.703	4514.58
701.892	4383.51
702.08	4438.8
702.269	4444.95
702.457	4410.13
702.646	4430.61
702.834	4274.96
703.023	4373.27
703.212	4395.79
703.4	4371.22
703.589	4211.48
703.777	4256.53
703.965	4289.3
704.154	4299.54
704.342	4305.68
704.531	4213.53
704.719	4188.95
704.907	4254.48
705.096	4256.53
705.284	4139.8
705.472	4209.43
705.661	3982.1
705.849	4154.13
706.037	4143.89
706.226	4113.17
706.414	4086.55
706.602	4221.72
706.79	3996.44
706.979	4102.93
707.167	4021.02
707.355	3982.1
707.543	4068.12
707.731	3947.29
707.919	3955.48
708.107	3930.91
708.296	3920.67
708.484	3980.06
708.672	4027.16
708.86	3920.67
709.048	4000.54
709.236	3928.86
709.424	3908.38
709.612	3898.14
709.8	3885.85
709.988	3857.18
710.176	3834.65
710.364	3834.65
710.551	3877.66
710.739	3789.6
710.927	3846.94
711.115	3830.55
711.303	3689.25
711.491	3701.53
711.679	3740.44
711.866	3814.17
712.054	3742.49
712.242	3650.33
712.43	3781.4
712.617	3595.04
712.805	3633.95
712.993	3736.35
713.181	3535.65
713.368	3711.77
713.556	3621.66
713.744	3586.85
713.931	3687.2
714.119	3523.36
714.306	3715.87
714.494	3552.03
714.682	3654.43
714.869	3439.39
715.057	3611.42
715.244	3502.88
715.432	3504.93
715.619	3576.61
715.807	3511.07
715.994	3478.3
716.182	3406.63
716.369	3590.94
716.556	3486.5
716.744	3410.72
716.931	3429.15
717.119	3476.26
717.306	3474.21
717.493	3517.22
717.681	3463.97
717.868	3486.5
718.055	3386.15
718.242	3336.99
718.43	3390.24
718.617	3355.43
718.804	3414.82
718.991	3414.82
719.179	3412.77
719.366	3250.98
719.553	3334.95
719.74	3062.57
719.927	3308.32
720.114	3334.95
720.301	3259.17
720.488	3158.82
720.676	3273.51
720.863	3199.78
721.05	3259.17
721.237	3275.56
721.424	3189.54
721.611	3250.98
721.798	3162.92
721.985	3150.63
722.172	3289.89
722.358	3113.77
722.545	3101.48
722.732	3177.25
722.919	3072.81
723.106	3119.91
723.293	3158.82
723.48	3072.81
723.667	3109.67
723.853	3054.37
724.04	3023.66
724.227	3078.95
724.414	3150.63
724.6	3015.46
724.787	3119.91
724.974	2958.12
725.161	3031.85
725.347	2997.03
725.534	3062.57
725.72	3011.37
725.907	2954.02
726.094	2962.22
726.28	2999.08
726.467	2847.53
726.653	2921.26
726.84	2951.98
727.027	2978.6
727.213	2820.91
727.4	2868.01
727.586	2913.06
727.773	2841.39
727.959	2831.15
728.145	2872.11
728.332	2796.33
728.518	2892.59
728.705	2863.91
728.891	2773.8
729.077	2775.85
729.264	2675.5
729.45	2671.4
729.636	2761.52
729.823	2712.36
730.009	2937.64
730.195	2822.95
730.382	2710.32
730.568	2806.57
730.754	2767.66
730.94	2833.19
731.126	2675.5
731.313	2800.43
731.499	2562.86
731.685	2753.32
731.871	2626.35
732.057	2781.99
732.243	2745.13
732.429	2741.04
732.615	2702.12
732.801	2722.6
732.987	2741.04
733.173	2642.73
733.359	2736.94
733.545	2732.84
733.731	2659.12
733.917	2655.02
734.103	2700.08
734.289	2698.03
734.475	2599.73
734.661	2632.49
734.847	2632.49
735.033	2480.94
735.219	2620.21
735.404	2581.29
735.59	2540.33
735.776	2569.01
735.962	2528.05
736.148	2503.47
736.333	2589.49
736.519	2560.81
736.705	2517.81
736.89	2687.79
737.076	2495.28
737.262	2585.39
737.447	2503.47
737.633	2462.51
737.819	2474.8
738.004	2364.21
738.19	2605.87
738.375	2521.9
738.561	2491.18
738.747	2380.59
738.932	2429.74
739.118	2442.03
739.303	2413.36
739.489	2495.28
739.674	2429.74
739.859	2470.7
740.045	2511.66
740.23	2364.21
740.416	2306.87
740.601	2437.94
740.786	2339.63
740.972	2235.19
741.157	2331.44
741.342	2319.15
741.528	2341.68
741.713	2362.16
741.898	2376.5
742.084	2341.68
742.269	2276.15
742.454	2394.93
742.639	2257.71
742.824	2300.72
743.01	2308.91
743.195	2177.84
743.38	2196.28
743.565	2095.93
743.75	2130.74
743.935	2241.33
744.12	2274.1
744.305	2102.07
744.49	2208.56
744.675	2167.6
744.86	2024.25
745.045	2138.93
745.23	2063.16
745.415	2034.49
745.6	2028.34
745.785	2081.59
745.97	2147.12
746.155	2134.84
746.34	1946.42
746.525	2011.96
746.71	2007.86
746.895	1938.23
747.079	1923.9
747.264	1876.79
747.449	1891.13
747.634	1954.62
747.819	2044.73
748.003	1844.03
748.188	1876.79
748.373	1882.94
748.557	1893.18
748.742	1831.74
748.927	1905.46
749.111	1862.46
749.296	1776.44
749.481	1833.79
749.665	1831.74
749.85	1743.67
750.034	1901.37
750.219	1807.16
750.404	1778.49
750.588	1725.24
750.773	1725.24
750.957	1833.79
751.141	1710.91
751.326	1616.7
751.51	1692.48
751.695	1721.15
751.879	1717.05
752.064	1641.28
752.248	1651.52
752.432	1704.76
752.617	1622.84
752.801	1735.48
752.985	1520.45
753.17	1643.32
753.354	1651.52
753.538	1549.12
753.722	1528.64
753.907	1614.65
754.091	1475.39
754.275	1579.84
754.459	1553.21
754.643	1485.63
754.828	1467.2
755.012	1528.64
755.196	1504.06
755.38	1469.25
755.564	1379.14
755.748	1436.48
755.932	1446.72
756.116	1422.14
756.3	1268.55
756.484	1444.67
756.668	1360.7
756.852	1364.8
757.036	1207.11
757.22	1422.14
757.404	1307.46
757.588	1348.42
757.772	1282.88
757.956	1235.78
758.14	1289.03
758.323	1321.79
758.507	1299.27
758.691	1299.27
758.875	1295.17
759.059	1329.99
759.242	1250.11
759.426	1203.01
759.61	1266.5
759.794	1280.83
759.977	1213.25
760.161	1323.84
760.345	1297.22
760.528	1227.59
760.712	1209.15
760.895	1162.05
761.079	1266.5
761.263	1168.2
761.446	1151.81
761.63	1200.96
761.813	1166.15
761.997	1198.92
762.18	1160
762.364	1096.52
762.547	998.21
762.731	1080.13
762.914	1104.71
763.098	1080.13
763.281	1131.33
763.464	1045.32
763.648	1114.95
763.831	1117
764.015	1061.7
764.198	1129.28
764.381	1004.36
764.564	1135.43
764.748	1119.04
764.931	1086.28
765.114	1041.22
765.297	987.97
765.481	916.3
765.664	1065.8
765.847	1008.45
766.03	1057.61
766.213	1012.55
766.397	1041.22
766.58	1004.36
766.763	1037.13
766.946	1008.45
767.129	901.96
767.312	967.49
767.495	940.87
767.678	1086.28
767.861	1033.03
768.044	979.78
768.227	955.21
768.41	981.83
768.593	1045.32
768.776	981.83
768.959	979.78
769.142	924.49
769.324	955.21
769.507	1012.55
769.69	971.59
769.873	992.07
770.056	1049.41
770.239	936.78
770.421	971.59
770.604	1057.61
770.787	983.88
770.97	973.64
771.152	932.68
771.335	889.67
771.518	877.38
771.7	877.38
771.883	928.58
772.066	912.2
772.248	947.01
772.431	924.49
772.613	846.66
772.796	848.71
772.978	842.57
773.161	920.39
773.343	865.1
773.526	906.06
773.708	789.32
773.891	774.99
774.073	817.99
774.256	803.66
774.438	848.71
774.621	865.1
774.803	867.14
774.985	803.66
775.168	848.71
775.35	762.7
775.532	820.04
775.715	856.9
775.897	869.19
776.079	797.51
776.261	777.03
776.444	770.89
776.626	795.47
776.808	867.14
776.99	736.07
777.173	699.21
777.355	746.31
777.537	660.3
777.719	824.14
777.901	744.27
778.083	746.31
778.265	768.84
778.447	725.83
778.629	717.64
778.811	709.45
778.993	695.11
779.175	693.07
779.357	734.03
779.539	529.23
779.721	627.53
779.903	682.83
780.085	709.45
780.267	639.82
780.449	562
780.631	727.88
780.812	774.99
780.994	650.06
781.176	605
781.358	586.57
781.54	576.33
781.721	656.2
781.903	586.57
782.085	664.4
782.267	611.15
782.448	619.34
782.63	623.44
782.812	514.89
782.993	574.28
783.175	504.65
783.357	506.7
783.538	529.23
783.72	504.65
783.901	582.48
784.083	488.27
784.264	490.32
784.446	512.85
784.627	576.33
784.809	557.9
784.99	439.12
785.172	527.18
785.353	516.94
785.535	504.65
785.716	447.31
785.897	537.42
786.079	410.45
786.26	508.75
786.441	467.79
786.623	496.46
786.804	510.8
786.985	523.09
787.167	467.79
787.348	437.07
787.529	514.89
787.71	514.89
787.891	420.69
788.073	543.57
788.254	385.87
788.435	562
788.616	389.97
788.797	426.83
788.978	455.5
789.159	410.45
789.34	396.11
789.522	361.3
789.703	426.83
789.884	428.88
790.065	471.89
790.246	432.97
790.427	486.22
790.607	471.89
790.788	467.79
790.969	435.02
791.15	410.45
791.331	449.36
791.512	445.26
791.693	346.96
791.874	394.06
792.054	463.69
792.235	398.16
792.416	422.73
792.597	342.86
792.778	441.17
792.958	381.78
793.139	353.1
793.32	389.97
793.5	324.43
793.681	324.43
793.862	398.16
794.042	332.62
794.223	312.14
794.404	344.91
794.584	316.24
794.765	381.78
794.945	277.33
795.126	365.39
795.306	346.96
795.487	283.47
795.667	262.99
795.848	336.72
796.028	269.14
796.209	332.62
796.389	336.72
796.57	314.19
796.75	346.96
796.93	353.1
797.111	373.58
797.291	375.63
797.471	316.24
797.652	275.28
797.832	267.09
798.012	293.71
798.192	217.94
798.373	242.51
798.553	299.86
798.733	328.53
798.913	265.04
799.093	365.39
799.274	336.72
799.454	342.86
799.634	217.94
799.814	426.83
799.994	277.33
800.174	340.82
800.354	240.47
800.534	269.14
800.714	232.27
800.894	277.33
801.074	222.03
801.254	369.49
801.434	392.02
801.614	291.66
801.794	236.37
801.974	990.02
802.154	308.05
802.334	299.86
802.514	275.28
802.693	246.61
802.873	254.8
803.053	301.9
803.233	213.84
803.413	285.52
803.592	297.81
803.772	267.09
803.952	283.47
804.131	189.27
804.311	209.75
804.491	144.21
804.67	207.7
804.85	254.8
805.03	299.86
805.209	267.09
805.389	181.07
805.568	215.89
805.748	172.88
805.928	119.64
806.107	213.84
806.287	217.94
806.466	242.51
806.646	240.47
806.825	158.55
807.004	189.27
807.184	316.24
807.363	219.99
807.543	320.34
807.722	133.97
807.901	224.08
808.081	209.75
808.26	152.4
808.439	226.13
808.619	234.32
808.798	211.79
808.977	215.89
809.156	250.71
809.336	215.89
809.515	244.56
809.694	213.84
809.873	246.61
810.052	213.84
810.231	234.32
810.411	199.51
810.59	136.02
810.769	193.36
810.948	195.41
811.127	86.87
811.306	209.75
811.485	144.21
811.664	246.61
811.843	115.54
812.022	193.36
812.201	230.23
812.38	193.36
812.559	154.45
812.737	222.03
812.916	95.06
813.095	136.02
813.274	123.73
813.453	144.21
813.632	236.37
813.811	168.79
813.989	109.4
814.168	197.46
814.347	105.3
814.526	148.31
814.704	158.55
814.883	275.28
815.062	183.12
815.24	291.66
815.419	129.88
815.598	195.41
815.776	111.44
815.955	146.26
816.133	115.54
816.312	193.36
816.49	164.69
816.669	172.88
816.847	95.06
817.026	162.64
817.204	140.12
817.383	127.83
817.561	201.55
817.74	146.26
817.918	119.64
818.097	168.79
818.275	111.44
818.453	197.46
818.632	148.31
818.81	166.74
818.988	142.16
819.167	99.16
819.345	103.25
819.523	62.29
819.701	111.44
819.879	172.88
820.058	127.83
820.236	136.02
820.414	156.5
820.592	58.2
820.77	219.99
820.948	136.02
821.127	105.3
821.305	168.79
821.483	60.24
821.661	185.17
821.839	109.4
822.017	115.54
822.195	148.31
822.373	136.02
822.551	123.73
822.729	54.1
822.907	107.35
823.085	176.98
823.262	162.64
823.44	105.3
823.618	117.59
823.796	160.59
823.974	86.87
824.152	121.68
824.329	111.44
824.507	152.4
824.685	148.31
824.863	187.22
825.04	168.79
825.218	217.94
825.396	80.72
825.574	80.72
825.751	99.16
825.929	158.55
826.107	154.45
826.284	117.59
826.462	121.68
826.639	80.72
826.817	84.82
826.994	172.88
827.172	150.36
827.349	111.44
827.527	158.55
827.704	129.88
827.882	93.01
828.059	95.06
828.237	86.87
828.414	66.39
828.591	31.57
828.769	82.77
828.946	105.3
829.124	127.83
829.301	103.25
829.478	136.02
829.655	148.31
829.833	160.59
830.01	160.59
830.187	140.12
830.364	78.68
830.542	97.11
830.719	86.87
830.896	138.07
831.073	119.64
831.25	156.5
831.427	21.33
831.604	99.16
831.782	78.68
831.959	56.15
832.136	29.52
832.313	140.12
832.49	50
832.667	103.25
832.844	45.91
833.021	66.39
833.198	0.85
833.374	144.21
833.551	7
833.728	58.2
833.905	123.73
834.082	31.57
834.259	82.77
834.436	146.26
834.612	62.29
834.789	125.78
834.966	97.11
835.143	45.91
835.319	95.06
835.496	80.72
835.673	193.36
835.85	166.74
836.026	107.35
836.203	191.31
836.38	103.25
836.556	76.63
836.733	70.48
836.909	138.07
837.086	86.87
837.262	62.29
837.439	-27.82
837.616	80.72
837.792	7
837.968	62.29
838.145	4.95
838.321	95.06
838.498	45.91
838.674	111.44
838.851	131.92
839.027	7
839.203	21.33
839.38	129.88
839.556	19.29
839.732	140.12
839.909	115.54
840.085	95.06
840.261	72.53
840.437	93.01
840.614	54.1
840.79	86.87
840.966	58.2
841.142	99.16
841.318	90.96
841.494	78.68
841.671	97.11
841.847	47.96
842.023	54.1
842.199	109.4
842.375	113.49
842.551	41.81
842.727	-27.82
842.903	101.2
843.079	13.14
843.255	-11.43
843.431	72.53
843.607	111.44
843.783	29.52
843.959	-11.43
844.134	-44.2
844.31	146.26
844.486	-17.58
844.662	76.63
844.838	72.53
845.013	86.87
845.189	50
845.365	127.83
845.541	72.53
845.716	103.25
845.892	72.53
846.068	86.87
846.244	60.24
846.419	62.29
846.595	27.48
846.77	103.25
846.946	41.81
847.122	111.44
847.297	13.14
847.473	140.12
847.648	19.29
847.824	41.81
847.999	-17.58
848.175	66.39
848.35	101.2
848.526	64.34
848.701	15.19
848.876	66.39
849.052	66.39
849.227	45.91
849.403	13.14
849.578	121.68
849.753	88.92
849.929	111.44
850.104	47.96
850.279	29.52
850.454	7
850.63	23.38
850.805	47.96
850.98	62.29
851.155	123.73
851.33	27.48
851.505	52.05
851.681	119.64
851.856	70.48
852.031	31.57
852.206	86.87
852.381	31.57
852.556	99.16
852.731	45.91
852.906	23.38
853.081	-27.82
853.256	129.88
853.431	127.83
853.606	70.48
853.781	7
853.956	4.95
854.131	54.1
854.305	31.57
854.48	29.52
854.655	-44.2
854.83	37.72
855.005	29.52
855.18	105.3
855.354	25.43
855.529	-25.77
855.704	-1.19
855.879	107.35
856.053	-1.19
856.228	41.81
856.403	-52.39
856.577	60.24
856.752	37.72
856.926	-19.63
857.101	-3.24
857.276	52.05
857.45	25.43
857.625	29.52
857.799	4.95
857.974	-19.63
858.148	15.19
858.323	23.38
858.497	78.68
858.672	95.06
858.846	4.95
859.02	37.72
859.195	31.57
859.369	72.53
859.543	90.96
859.718	154.45
859.892	82.77
860.066	23.38
860.241	21.33
860.415	35.67
860.589	31.57
860.763	103.25
860.938	-19.63
861.112	54.1
861.286	-3.24
861.46	60.24
861.634	39.76
861.808	86.87
861.982	4.95
862.157	72.53
862.331	13.14
862.505	-11.43
862.679	-36.01
862.853	-44.2
863.027	-11.43
863.201	105.3
863.375	23.38
863.549	-9.39
863.722	-3.24
863.896	23.38
864.07	50
864.244	-11.43
864.418	56.15
864.592	13.14
864.766	13.14
864.939	45.91
865.113	-81.07
865.287	45.91
865.461	50
865.634	-52.39
865.808	4.95
865.982	56.15
866.156	-27.82
866.329	-25.77
866.503	41.81
866.676	45.91
866.85	111.44
867.024	31.57
867.197	41.81
867.371	54.1
867.544	41.81
867.718	-25.77
867.891	101.2
868.065	-76.97
868.238	45.91
868.412	37.72
868.585	4.95
868.759	52.05
868.932	-48.3
869.105	21.33
869.279	-7.34
869.452	13.14
869.625	64.34
869.799	25.43
869.972	-23.72
870.145	72.53
870.319	39.76
870.492	9.05
870.665	-60.59
870.838	-11.43
871.011	45.91
871.185	4.95
871.358	-19.63
871.531	-5.29
871.704	-36.01
871.877	15.19
872.05	86.87
872.223	-3.24
872.396	72.53
872.569	127.83
872.742	-19.63
872.915	56.15
873.088	47.96
873.261	-21.67
873.434	72.53
873.607	7
873.78	84.82
873.953	0.85
874.126	29.52
874.299	50
874.471	60.24
874.644	21.33
874.817	78.68
874.99	107.35
875.163	45.91
875.335	45.91
875.508	58.2
875.681	86.87
875.853	29.52
876.026	27.48
876.199	90.96
876.371	113.49
876.544	-15.53
876.717	68.44
876.889	31.57
877.062	37.72
877.234	-101.55
877.407	31.57
877.579	9.05
877.752	70.48
877.924	23.38
878.097	54.1
878.269	-36.01
878.442	86.87
878.614	37.72
878.786	97.11
878.959	-15.53
879.131	21.33
879.303	21.33
879.476	62.29
879.648	-21.67
879.82	21.33
879.993	-19.63
880.165	58.2
880.337	-33.96
880.509	13.14
880.681	4.95
880.854	-17.58
881.026	37.72
881.198	107.35
881.37	-7.34
881.542	0.85
881.714	-23.72
881.886	23.38
882.058	13.14
882.23	23.38
882.402	58.2
882.574	47.96
882.746	-17.58
882.918	78.68
883.09	54.1
883.262	-9.39
883.434	41.81
883.606	-21.67
883.778	21.33
883.95	80.72
884.122	13.14
884.293	62.29
884.465	-25.77
884.637	25.43
884.809	45.91
884.98	41.81
885.152	97.11
885.324	90.96
885.496	70.48
885.667	-42.15
885.839	-3.24
886.011	111.44
886.182	37.72
886.354	78.68
886.525	70.48
886.697	37.72
886.869	78.68
887.04	62.29
887.212	109.4
887.383	119.64
887.555	-99.5
887.726	0.85
887.897	7
888.069	-40.11
888.24	66.39
888.412	13.14
888.583	-5.29
888.754	41.81
888.926	-17.58
889.097	29.52
889.268	-11.43
889.44	15.19
889.611	-33.96
889.782	-89.26
889.953	-15.53
890.125	41.81
890.296	-9.39
890.467	-56.49
890.638	4.95
890.809	45.91
890.98	4.95
891.151	70.48
891.323	60.24
891.494	64.34
891.665	-17.58
891.836	-23.72
892.007	47.96
892.178	-27.82
892.349	39.76
892.52	23.38
892.691	99.16
892.862	-17.58
893.032	-38.06
893.203	52.05
893.374	-48.3
893.545	70.48
893.716	-58.54
893.887	-3.24
894.057	13.14
894.228	33.62
894.399	-19.63
894.57	56.15
894.74	-15.53
894.911	23.38
895.082	-17.58
895.253	-27.82
895.423	82.77
895.594	72.53
895.764	45.91
895.935	-11.43
896.106	25.43
896.276	-3.24
896.447	21.33
896.617	80.72
896.788	-50.35
896.958	-17.58
897.129	64.34
897.299	-9.39
897.47	15.19
897.64	-7.34
897.81	25.43
897.981	58.2
898.151	90.96
898.322	21.33
898.492	39.76
898.662	45.91
898.832	13.14
899.003	4.95
899.173	-17.58
899.343	37.72
899.513	45.91
