Data from USB4F104151__269__14-34-36-378.txt Node

Date: Thu Mar 13 14:34:36 EDT 2025
User: louis
Spectrometer: USB4F10415
Trigger mode: 4
Integration Time (sec): 2.500000E-2
Scans to average: 1
Electric dark correction enabled: true
Nonlinearity correction enabled: false
Boxcar width: 0
XAxis mode: Wavelengths
Number of Pixels in Spectrum: 3648
>>>>>Begin Spectral Data<<<<<
178.204	-124.41
178.424	-124.41
178.644	-124.41
178.864	-185.85
179.084	-140.8
179.304	23.04
179.524	-15.87
179.744	-7.68
179.964	-7.68
180.184	-30.21
180.404	-15.87
180.624	59.9
180.844	12.8
181.064	-87.55
181.283	64
181.503	31.23
181.723	-26.11
181.943	-120.32
182.163	14.85
182.383	-26.11
182.602	72.19
182.822	31.23
183.042	-22.02
183.262	-15.87
183.482	25.09
183.701	133.63
183.921	0.51
184.141	0.51
184.361	129.53
184.58	8.7
184.8	6.66
185.02	-1.54
185.239	4.61
185.459	14.85
185.679	14.85
185.898	-15.87
186.118	25.09
186.338	84.48
186.557	72.19
186.777	-50.69
186.997	-17.92
187.216	25.09
187.436	18.94
187.655	31.23
187.875	64
188.095	-56.83
188.314	12.8
188.534	27.14
188.753	-34.3
188.973	74.24
189.192	115.2
189.412	107.01
189.631	47.62
189.851	37.38
190.07	-13.82
190.29	-24.06
190.509	47.62
190.729	14.85
190.948	109.05
191.168	147.97
191.387	-9.73
191.607	-7.68
191.826	12.8
192.045	8.7
192.265	16.9
192.484	104.96
192.704	-32.26
192.923	-26.11
193.142	147.97
193.362	10.75
193.581	74.24
193.8	-46.59
194.02	25.09
194.239	6.66
194.458	70.14
194.678	-30.21
194.897	6.66
195.116	20.99
195.335	-54.78
195.555	66.05
195.774	43.52
195.993	88.57
196.212	-17.92
196.432	23.04
196.651	10.75
196.87	-15.87
197.089	47.62
197.308	-42.5
197.528	51.71
197.747	-5.63
197.966	-9.73
198.185	27.14
198.404	23.04
198.623	80.38
198.842	57.86
199.062	35.33
199.281	41.47
199.5	-50.69
199.719	-1.54
199.938	25.09
200.157	88.57
200.376	47.62
200.595	45.57
200.814	27.14
201.033	-5.63
201.252	-5.63
201.471	-26.11
201.69	47.62
201.909	-38.4
202.128	-30.21
202.347	6.66
202.566	6.66
202.785	-91.65
203.004	-65.02
203.223	109.05
203.442	78.33
203.661	0.51
203.879	-13.82
204.098	117.25
204.317	10.75
204.536	84.48
204.755	14.85
204.974	23.04
205.193	0.51
205.411	49.66
205.63	84.48
205.849	-13.82
206.068	66.05
206.287	-38.4
206.505	68.09
206.724	25.09
206.943	2.56
207.162	82.43
207.381	33.28
207.599	49.66
207.818	64
208.037	64
208.255	25.09
208.474	51.71
208.693	14.85
208.911	-5.63
209.13	-22.02
209.349	41.47
209.567	23.04
209.786	14.85
210.005	76.29
210.223	47.62
210.442	-36.35
210.661	72.19
210.879	16.9
211.098	6.66
211.316	64
211.535	104.96
211.753	2.56
211.972	-19.97
212.191	-46.59
212.409	-34.3
212.628	49.66
212.846	-17.92
213.065	74.24
213.283	86.53
213.502	6.66
213.72	8.7
213.938	14.85
214.157	59.9
214.375	47.62
214.594	8.7
214.812	43.52
215.031	-1.54
215.249	47.62
215.467	31.23
215.686	16.9
215.904	31.23
216.122	47.62
216.341	107.01
216.559	41.47
216.778	39.42
216.996	51.71
217.214	-56.83
217.432	39.42
217.651	35.33
217.869	-26.11
218.087	-7.68
218.306	12.8
218.524	66.05
218.742	23.04
218.96	55.81
219.179	45.57
219.397	-52.74
219.615	66.05
219.833	-40.45
220.051	6.66
220.27	27.14
220.488	74.24
220.706	33.28
220.924	47.62
221.142	33.28
221.36	12.8
221.578	-34.3
221.796	-71.17
222.015	-34.3
222.233	23.04
222.451	6.66
222.669	-46.59
222.887	-48.64
223.105	-22.02
223.323	-26.11
223.541	-24.06
223.759	33.28
223.977	-26.11
224.195	92.67
224.413	-7.68
224.631	14.85
224.849	-56.83
225.067	113.15
225.285	57.86
225.503	-7.68
225.721	-81.41
225.939	14.85
226.157	-17.92
226.375	121.34
226.592	2.56
226.81	14.85
227.028	-13.82
227.246	80.38
227.464	14.85
227.682	-13.82
227.9	6.66
228.117	35.33
228.335	39.42
228.553	-13.82
228.771	16.9
228.989	25.09
229.206	59.9
229.424	-1.54
229.642	-17.92
229.86	6.66
230.077	59.9
230.295	39.42
230.513	14.85
230.731	23.04
230.948	23.04
231.166	82.43
231.384	27.14
231.601	-34.3
231.819	76.29
232.037	-15.87
232.254	35.33
232.472	51.71
232.689	-30.21
232.907	8.7
233.125	39.42
233.342	-34.3
233.56	-32.26
233.777	6.66
233.995	-17.92
234.213	55.81
234.43	66.05
234.648	10.75
234.865	33.28
235.083	14.85
235.3	-5.63
235.518	53.76
235.735	76.29
235.953	53.76
236.17	18.94
236.388	6.66
236.605	4.61
236.822	39.42
237.04	92.67
237.257	-30.21
237.475	55.81
237.692	-15.87
237.909	47.62
238.127	-34.3
238.344	37.38
238.562	64
238.779	31.23
238.996	-54.78
239.214	59.9
239.431	100.86
239.648	18.94
239.865	66.05
240.083	55.81
240.3	6.66
240.517	0.51
240.735	14.85
240.952	68.09
241.169	55.81
241.386	43.52
241.603	-5.63
241.821	-28.16
242.038	109.05
242.255	-1.54
242.472	-9.73
242.689	80.38
242.907	57.86
243.124	-7.68
243.341	-40.45
243.558	-34.3
243.775	10.75
243.992	-1.54
244.209	31.23
244.426	-9.73
244.643	31.23
244.86	2.56
245.078	104.96
245.295	27.14
245.512	-15.87
245.729	-17.92
245.946	41.47
246.163	64
246.38	-7.68
246.597	-5.63
246.814	-15.87
247.031	25.09
247.248	18.94
247.464	72.19
247.681	-32.26
247.898	-15.87
248.115	72.19
248.332	-58.88
248.549	82.43
248.766	76.29
248.983	6.66
249.2	74.24
249.417	-40.45
249.633	-28.16
249.85	14.85
250.067	8.7
250.284	47.62
250.501	80.38
250.717	82.43
250.934	-42.5
251.151	25.09
251.368	-9.73
251.585	-3.58
251.801	64
252.018	49.66
252.235	-3.58
252.451	14.85
252.668	-22.02
252.885	78.33
253.102	2.56
253.318	39.42
253.535	-26.11
253.752	6.66
253.968	-24.06
254.185	-38.4
254.401	14.85
254.618	109.05
254.835	20.99
255.051	49.66
255.268	51.71
255.484	49.66
255.701	23.04
255.917	-9.73
256.134	6.66
256.351	10.75
256.567	-67.07
256.784	39.42
257	113.15
257.217	57.86
257.433	18.94
257.65	10.75
257.866	37.38
258.082	-46.59
258.299	6.66
258.515	64
258.732	-38.4
258.948	55.81
259.165	39.42
259.381	-48.64
259.597	45.57
259.814	8.7
260.03	-24.06
260.246	55.81
260.463	10.75
260.679	72.19
260.895	104.96
261.112	47.62
261.328	-24.06
261.544	18.94
261.761	66.05
261.977	10.75
262.193	-5.63
262.409	80.38
262.626	12.8
262.842	6.66
263.058	-56.83
263.274	-30.21
263.49	16.9
263.707	43.52
263.923	33.28
264.139	-17.92
264.355	43.52
264.571	47.62
264.787	39.42
265.004	115.2
265.22	59.9
265.436	31.23
265.652	-36.35
265.868	-83.45
266.084	-24.06
266.3	31.23
266.516	31.23
266.732	0.51
266.948	55.81
267.164	10.75
267.38	-24.06
267.596	61.95
267.812	82.43
268.028	-13.82
268.244	23.04
268.46	-1.54
268.676	49.66
268.892	64
269.108	8.7
269.324	-9.73
269.54	-1.54
269.756	35.33
269.972	-15.87
270.188	-40.45
270.403	0.51
270.619	-54.78
270.835	16.9
271.051	-13.82
271.267	-42.5
271.483	-42.5
271.698	37.38
271.914	37.38
272.13	64
272.346	-5.63
272.562	16.9
272.777	66.05
272.993	6.66
273.209	-40.45
273.425	-1.54
273.64	-24.06
273.856	-26.11
274.072	27.14
274.287	39.42
274.503	39.42
274.719	74.24
274.934	47.62
275.15	-22.02
275.366	33.28
275.581	-42.5
275.797	31.23
276.012	88.57
276.228	-24.06
276.444	6.66
276.659	47.62
276.875	-17.92
277.09	43.52
277.306	-17.92
277.521	-9.73
277.737	-9.73
277.952	14.85
278.168	47.62
278.383	-9.73
278.599	14.85
278.814	80.38
279.03	-9.73
279.245	10.75
279.461	41.47
279.676	-9.73
279.892	-1.54
280.107	10.75
280.322	10.75
280.538	31.23
280.753	-97.79
280.969	-5.63
281.184	57.86
281.399	23.04
281.615	8.7
281.83	-1.54
282.045	35.33
282.26	-17.92
282.476	-17.92
282.691	88.57
282.906	-1.54
283.122	55.81
283.337	47.62
283.552	-13.82
283.767	-5.63
283.983	72.19
284.198	23.04
284.413	33.28
284.628	-42.5
284.843	41.47
285.058	104.96
285.274	88.57
285.489	55.81
285.704	-1.54
285.919	59.9
286.134	27.14
286.349	-62.98
286.564	-17.92
286.779	51.71
286.995	39.42
287.21	-89.6
287.425	90.62
287.64	6.66
287.855	16.9
288.07	-62.98
288.285	76.29
288.5	49.66
288.715	33.28
288.93	27.14
289.145	-26.11
289.36	37.38
289.575	86.53
289.79	33.28
290.004	2.56
290.219	-24.06
290.434	-54.78
290.649	29.18
290.864	16.9
291.079	-62.98
291.294	-7.68
291.509	-19.97
291.724	-26.11
291.938	-11.78
292.153	31.23
292.368	-83.45
292.583	66.05
292.798	55.81
293.012	47.62
293.227	55.81
293.442	8.7
293.657	-26.11
293.871	88.57
294.086	-7.68
294.301	121.34
294.516	16.9
294.73	31.23
294.945	8.7
295.16	47.62
295.374	31.23
295.589	-3.58
295.804	-19.97
296.018	8.7
296.233	0.51
296.447	51.71
296.662	33.28
296.877	74.24
297.091	55.81
297.306	18.94
297.52	-22.02
297.735	80.38
297.949	25.09
298.164	-9.73
298.378	-7.68
298.593	-26.11
298.807	27.14
299.022	-7.68
299.236	88.57
299.451	-9.73
299.665	37.38
299.88	-1.54
300.094	-1.54
300.309	39.42
300.523	33.28
300.737	23.04
300.952	31.23
301.166	0.51
301.381	-42.5
301.595	14.85
301.809	39.42
302.024	-7.68
302.238	-15.87
302.452	113.15
302.667	12.8
302.881	16.9
303.095	-1.54
303.309	-9.73
303.524	-26.11
303.738	-22.02
303.952	-28.16
304.166	2.56
304.381	-56.83
304.595	129.53
304.809	-7.68
305.023	37.38
305.237	23.04
305.452	-1.54
305.666	96.77
305.88	51.71
306.094	31.23
306.308	49.66
306.522	129.53
306.736	-30.21
306.95	-7.68
307.164	14.85
307.379	-32.26
307.593	80.38
307.807	80.38
308.021	23.04
308.235	-17.92
308.449	-65.02
308.663	-9.73
308.877	100.86
309.091	64
309.305	104.96
309.519	-3.58
309.733	131.58
309.947	-38.4
310.161	102.91
310.374	49.66
310.588	53.76
310.802	57.86
311.016	31.23
311.23	16.9
311.444	-17.92
311.658	47.62
311.872	18.94
312.085	18.94
312.299	55.81
312.513	66.05
312.727	55.81
312.941	-120.32
313.154	55.81
313.368	90.62
313.582	31.23
313.796	27.14
314.009	27.14
314.223	76.29
314.437	-24.06
314.651	14.85
314.864	-56.83
315.078	-34.3
315.292	-30.21
315.505	-7.68
315.719	-32.26
315.933	-30.21
316.146	41.47
316.36	-38.4
316.573	-44.54
316.787	6.66
317.001	88.57
317.214	16.9
317.428	-34.3
317.641	-75.26
317.855	-17.92
318.068	31.23
318.282	80.38
318.495	80.38
318.709	18.94
318.922	35.33
319.136	31.23
319.349	2.56
319.563	47.62
319.776	-28.16
319.99	-58.88
320.203	8.7
320.417	-26.11
320.63	43.52
320.843	145.92
321.057	51.71
321.27	-26.11
321.483	-7.68
321.697	104.96
321.91	94.72
322.124	35.33
322.337	6.66
322.55	74.24
322.763	6.66
322.977	8.7
323.19	-17.92
323.403	47.62
323.617	49.66
323.83	47.62
324.043	-32.26
324.256	14.85
324.469	-15.87
324.683	16.9
324.896	41.47
325.109	37.38
325.322	14.85
325.535	6.66
325.748	6.66
325.962	18.94
326.175	-34.3
326.388	49.66
326.601	57.86
326.814	31.23
327.027	27.14
327.24	45.57
327.453	-71.17
327.666	12.8
327.879	80.38
328.092	-17.92
328.305	39.42
328.518	33.28
328.731	61.95
328.944	-26.11
329.157	8.7
329.37	-1.54
329.583	76.29
329.796	64
330.009	-32.26
330.222	6.66
330.435	39.42
330.648	57.86
330.861	45.57
331.073	-1.54
331.286	66.05
331.499	74.24
331.712	-19.97
331.925	39.42
332.138	0.51
332.35	4.61
332.563	6.66
332.776	74.24
332.989	-9.73
333.202	59.9
333.414	14.85
333.627	23.04
333.84	23.04
334.053	-17.92
334.265	72.19
334.478	98.81
334.691	88.57
334.903	14.85
335.116	-89.6
335.329	-15.87
335.541	-28.16
335.754	16.9
335.966	37.38
336.179	39.42
336.392	-9.73
336.604	51.71
336.817	121.34
337.029	33.28
337.242	-9.73
337.454	47.62
337.667	-26.11
337.88	64
338.092	64
338.305	-9.73
338.517	-30.21
338.729	25.09
338.942	41.47
339.154	27.14
339.367	-5.63
339.579	72.19
339.792	29.18
340.004	6.66
340.217	-24.06
340.429	45.57
340.641	37.38
340.854	72.19
341.066	-7.68
341.278	-9.73
341.491	59.9
341.703	-5.63
341.915	-9.73
342.128	8.7
342.34	39.42
342.552	66.05
342.764	125.44
342.977	80.38
343.189	16.9
343.401	57.86
343.613	8.7
343.826	66.05
344.038	10.75
344.25	49.66
344.462	-5.63
344.674	68.09
344.886	86.53
345.099	10.75
345.311	-1.54
345.523	-75.26
345.735	8.7
345.947	35.33
346.159	23.04
346.371	8.7
346.583	-5.63
346.795	70.14
347.007	6.66
347.219	39.42
347.431	37.38
347.643	66.05
347.855	35.33
348.067	121.34
348.279	-15.87
348.491	-5.63
348.703	8.7
348.915	51.71
349.127	31.23
349.339	86.53
349.551	39.42
349.763	129.53
349.975	127.49
350.187	88.57
350.399	-15.87
350.61	2.56
350.822	-7.68
351.034	27.14
351.246	14.85
351.458	-15.87
351.669	117.25
351.881	6.66
352.093	35.33
352.305	10.75
352.517	74.24
352.728	31.23
352.94	37.38
353.152	-42.5
353.363	-3.58
353.575	43.52
353.787	92.67
353.999	59.9
354.21	80.38
354.422	41.47
354.633	37.38
354.845	68.09
355.057	61.95
355.268	39.42
355.48	2.56
355.692	47.62
355.903	-44.54
356.115	88.57
356.326	-44.54
356.538	41.47
356.749	55.81
356.961	84.48
357.172	27.14
357.384	68.09
357.595	80.38
357.807	20.99
358.018	-32.26
358.23	10.75
358.441	84.48
358.653	25.09
358.864	4.61
359.075	0.51
359.287	18.94
359.498	8.7
359.709	51.71
359.921	10.75
360.132	-1.54
360.344	-9.73
360.555	68.09
360.766	8.7
360.977	-34.3
361.189	51.71
361.4	14.85
361.611	139.77
361.823	-9.73
362.034	-24.06
362.245	-1.54
362.456	-26.11
362.667	94.72
362.879	-1.54
363.09	45.57
363.301	6.66
363.512	6.66
363.723	-9.73
363.935	27.14
364.146	-5.63
364.357	25.09
364.568	51.71
364.779	-42.5
364.99	49.66
365.201	-30.21
365.412	66.05
365.623	-13.82
365.834	84.48
366.045	47.62
366.256	80.38
366.467	-26.11
366.678	33.28
366.889	49.66
367.1	68.09
367.311	49.66
367.522	14.85
367.733	57.86
367.944	37.38
368.155	35.33
368.366	4.61
368.577	109.05
368.788	43.52
368.999	12.8
369.209	18.94
369.42	162.3
369.631	127.49
369.842	18.94
370.053	41.47
370.264	6.66
370.474	-56.83
370.685	55.81
370.896	100.86
371.107	27.14
371.317	64
371.528	39.42
371.739	-32.26
371.95	27.14
372.16	90.62
372.371	6.66
372.582	6.66
372.792	29.18
373.003	84.48
373.214	31.23
373.424	68.09
373.635	23.04
373.846	57.86
374.056	-3.58
374.267	109.05
374.477	41.47
374.688	27.14
374.898	-9.73
375.109	55.81
375.319	51.71
375.53	55.81
375.74	70.14
375.951	84.48
376.161	92.67
376.372	121.34
376.582	-9.73
376.793	64
377.003	23.04
377.214	2.56
377.424	4.61
377.635	16.9
377.845	47.62
378.055	119.29
378.266	-1.54
378.476	47.62
378.686	64
378.897	59.9
379.107	-9.73
379.317	84.48
379.528	-11.78
379.738	96.77
379.948	41.47
380.158	64
380.369	59.9
380.579	31.23
380.789	23.04
380.999	10.75
381.21	-15.87
381.42	100.86
381.63	16.9
381.84	35.33
382.05	-1.54
382.261	53.76
382.471	8.7
382.681	-15.87
382.891	6.66
383.101	23.04
383.311	25.09
383.521	4.61
383.731	45.57
383.941	39.42
384.151	51.71
384.361	49.66
384.571	6.66
384.781	59.9
384.991	35.33
385.201	135.68
385.411	33.28
385.621	47.62
385.831	-1.54
386.041	8.7
386.251	72.19
386.461	72.19
386.671	2.56
386.881	59.9
387.091	45.57
387.301	-9.73
387.511	74.24
387.72	41.47
387.93	49.66
388.14	43.52
388.35	-5.63
388.56	37.38
388.769	23.04
388.979	33.28
389.189	2.56
389.399	72.19
389.609	64
389.818	23.04
390.028	4.61
390.238	137.73
390.447	16.9
390.657	74.24
390.867	-62.98
391.076	-65.02
391.286	18.94
391.496	88.57
391.705	16.9
391.915	84.48
392.125	70.14
392.334	86.53
392.544	82.43
392.753	53.76
392.963	27.14
393.172	16.9
393.382	39.42
393.591	102.91
393.801	-19.97
394.01	96.77
394.22	39.42
394.429	55.81
394.639	47.62
394.848	129.53
395.058	14.85
395.267	16.9
395.477	76.29
395.686	16.9
395.895	90.62
396.105	80.38
396.314	100.86
396.524	39.42
396.733	23.04
396.942	139.77
397.152	88.57
397.361	59.9
397.57	-3.58
397.78	45.57
397.989	80.38
398.198	141.82
398.407	23.04
398.617	72.19
398.826	115.2
399.035	82.43
399.244	162.3
399.453	129.53
399.663	72.19
399.872	92.67
400.081	78.33
400.29	92.67
400.499	59.9
400.708	166.4
400.917	2.56
401.127	64
401.336	-17.92
401.545	164.35
401.754	203.26
401.963	115.2
402.172	61.95
402.381	121.34
402.59	59.9
402.799	156.16
403.008	68.09
403.217	80.38
403.426	76.29
403.635	131.58
403.844	76.29
404.053	98.81
404.262	43.52
404.471	131.58
404.68	80.38
404.888	121.34
405.097	123.39
405.306	211.45
405.515	170.49
405.724	84.48
405.933	211.45
406.142	180.73
406.35	172.54
406.559	98.81
406.768	68.09
406.977	147.97
407.185	162.3
407.394	154.11
407.603	166.4
407.812	170.49
408.02	238.08
408.229	98.81
408.438	252.41
408.646	145.92
408.855	178.69
409.064	238.08
409.272	219.64
409.481	217.6
409.69	262.65
409.898	236.03
410.107	236.03
410.315	260.6
410.524	307.71
410.733	276.99
410.941	317.95
411.15	393.72
411.358	375.29
411.567	307.71
411.775	289.28
411.984	360.95
412.192	336.38
412.401	459.26
412.609	412.15
412.818	440.83
413.026	332.28
413.234	363
413.443	399.87
413.651	383.48
413.86	469.5
414.068	508.41
414.276	563.7
414.485	473.59
414.693	571.9
414.901	623.09
415.11	596.47
415.318	588.28
415.526	539.13
415.734	721.4
415.943	692.73
416.151	801.27
416.359	702.97
416.567	784.88
416.776	743.92
416.984	840.18
417.192	924.15
417.4	797.17
417.608	883.19
417.817	997.87
418.025	920.05
418.233	1057.26
418.441	1053.17
418.649	1028.59
418.857	1122.8
419.065	1139.18
419.273	1071.6
419.481	1204.72
419.689	1278.44
419.897	1231.34
420.105	1360.36
420.313	1333.74
420.521	1292.78
420.729	1452.52
420.937	1370.6
421.145	1432.04
421.353	1468.91
421.561	1735.14
421.769	1784.29
421.977	1788.39
422.185	1776.1
422.393	1898.98
422.601	2030.05
422.809	2101.73
423.017	1956.32
423.224	2056.67
423.432	2214.37
423.64	2165.21
423.848	2304.48
424.056	2300.38
424.263	2499.03
424.471	2523.61
424.679	2583
424.887	2703.83
425.094	2730.45
425.302	2712.02
425.51	2920.92
425.718	2877.91
425.925	2890.2
426.133	3123.66
426.341	3293.65
426.548	3232.21
426.756	3314.13
426.964	3422.67
427.171	3477.96
427.379	3672.52
427.586	3881.41
427.794	3961.28
428.001	4026.82
428.209	4286.91
428.417	4004.29
428.624	4524.47
428.832	4512.19
429.039	4577.72
429.247	4477.37
429.454	4882.87
429.662	5163.44
429.869	4759.99
430.076	5198.26
430.284	5013.94
430.491	5257.65
430.699	5407.15
430.906	5521.84
431.114	5527.98
431.321	5863.85
431.528	5755.3
431.736	6322.59
431.943	6465.95
432.15	6355.36
432.358	6390.17
432.565	6822.3
432.772	6887.83
432.979	7199.12
433.187	7215.51
433.394	7356.82
433.601	7709.07
433.808	7778.7
434.016	7750.03
434.223	7934.34
434.43	8550.78
434.637	8313.22
434.844	8989.05
435.052	9009.53
435.259	8958.33
435.466	8921.46
435.673	8960.38
435.88	9748.84
436.087	9996.65
436.294	9951.59
436.501	9898.34
436.708	9980.26
436.915	10309.99
437.122	10635.61
437.329	10615.13
437.537	11084.12
437.743	11180.37
437.95	11227.48
438.157	11821.39
438.364	12101.96
438.571	12104.01
438.778	12198.21
438.985	13103.42
439.192	13015.35
439.399	13072.7
439.606	12886.33
439.813	13654.32
440.02	14606.63
440.227	14080.3
440.433	14031.15
440.64	14541.09
440.847	14194.98
441.054	14563.62
441.261	15780.11
441.467	15532.31
441.674	15806.73
441.881	16406.79
442.088	16351.49
442.294	16163.08
442.501	16693.51
442.708	17219.83
442.914	17508.6
443.121	18147.56
443.328	17893.61
443.534	18893.02
443.741	18577.64
443.948	18151.66
444.154	19706.07
444.361	19577.05
444.568	19638.48
444.774	19708.12
444.981	19871.95
445.187	20455.62
445.394	21014.72
445.6	20979.9
445.807	22943.91
446.013	21811.38
446.22	22366.38
446.426	23378.08
446.633	23365.79
446.839	24371.34
447.046	22960.29
447.252	24674.44
447.459	24688.78
447.665	24451.21
447.871	25569.4
448.078	26695.78
448.284	25446.52
448.491	26255.47
448.697	27218.02
448.903	27394.14
449.11	27625.56
449.316	27304.03
449.522	27789.4
449.728	28541
449.935	28670.03
450.141	28803.14
450.347	29624.38
450.553	28317.78
450.76	28964.93
450.966	29710.39
451.172	29364.29
451.378	30390.32
451.584	29413.44
451.791	30212.15
451.997	30171.19
452.203	30978.09
452.409	30591.02
452.615	30513.2
452.821	29757.5
453.027	29009.99
453.233	30486.57
453.44	29513.79
453.646	29507.65
453.852	29651
454.058	30027.83
454.264	29632.57
454.47	30060.6
454.676	29134.92
454.882	29950.01
455.088	27742.3
455.294	28190.8
455.5	28643.4
455.705	29128.77
455.911	27600.99
456.117	26988.64
456.323	26679.4
456.529	25378.94
456.735	26306.67
456.941	25737.34
457.147	25071.75
457.352	24688.78
457.558	24051.86
457.764	24357
457.97	23787.67
458.176	23318.68
458.381	22982.82
458.587	22073.52
458.793	21809.33
458.999	20994.24
459.204	22245.55
459.41	21833.91
459.616	20111.57
459.821	20115.66
460.027	20107.47
460.233	19603.67
460.438	18899.17
460.644	19077.34
460.85	17963.25
461.055	17766.64
461.261	17406.2
461.466	16429.32
461.672	15599.89
461.878	17410.29
462.083	16032.01
462.289	15427.86
462.494	15425.81
462.7	14946.59
462.905	14430.5
463.111	14571.81
463.316	15065.37
463.522	14446.88
463.727	14465.32
463.932	14250.28
464.138	14438.69
464.343	14080.3
464.549	13908.27
464.754	14301.48
464.959	14227.75
465.165	14055.72
465.37	13232.44
465.575	13066.55
465.781	13482.29
465.986	13594.93
466.191	13146.42
466.397	12824.89
466.602	12271.94
466.807	12683.58
467.012	12540.22
467.218	12593.47
467.423	12345.67
467.628	12616
467.833	13007.16
468.038	12403.01
468.244	12114.25
468.449	12616
468.654	12222.79
468.859	11964.75
469.064	11999.56
469.269	11516.24
469.474	11602.25
469.679	11827.53
469.885	11315.54
470.09	11563.34
470.295	11538.77
470.5	11229.52
470.705	11307.35
470.91	10963.29
471.115	10920.28
471.32	11037.02
471.525	11051.35
471.73	10795.36
471.935	10869.08
472.139	10295.65
472.344	10486.11
472.549	10258.79
472.754	10027.37
472.959	10043.75
473.164	9822.57
473.369	9509.23
473.574	10279.27
473.778	9951.59
473.983	9816.43
474.188	9814.38
474.393	9435.5
474.598	9372.02
474.802	9310.58
475.007	9175.41
475.212	9132.4
475.417	8976.76
475.621	8903.03
475.826	8911.22
476.031	8698.24
476.235	8534.4
476.44	8792.44
476.645	8513.92
476.849	8511.87
477.054	8382.85
477.259	8448.38
477.463	8241.54
477.668	8212.87
477.872	8294.79
478.077	8042.89
478.282	7813.51
478.486	7821.7
478.691	7850.38
478.895	7657.87
479.1	7764.36
479.304	7692.68
479.509	7514.51
479.713	7686.54
479.918	7477.65
480.122	7217.55
480.326	7590.28
480.531	7473.55
480.735	7334.29
480.94	7418.25
481.144	7416.21
481.348	7117.2
481.553	7066
481.757	7076.24
481.961	7297.42
482.166	7094.68
482.37	7135.64
482.574	7149.97
482.778	7045.52
482.983	7319.95
483.187	7199.12
483.391	7295.38
483.595	7117.2
483.8	6873.5
484.004	7215.51
484.208	6988.18
484.412	7035.28
484.616	6986.13
484.821	7002.52
485.025	6945.17
485.229	7127.44
485.433	6912.41
485.637	6945.17
485.841	7006.61
486.045	6975.89
486.249	6932.89
486.453	6816.15
486.657	7068.05
486.861	6920.6
487.065	6824.34
487.269	6996.37
487.473	6728.09
487.677	6885.78
487.881	6957.46
488.085	6963.61
488.289	6953.37
488.493	6875.54
488.697	6879.64
488.901	7084.44
489.105	6941.08
489.309	6840.73
489.512	6717.85
489.716	6834.58
489.92	6994.33
490.124	6914.45
490.328	7324.05
490.531	7063.96
490.735	6990.23
490.939	7322
491.143	6984.09
491.346	6979.99
491.55	7002.52
491.754	7254.42
491.958	6992.28
492.161	6848.92
492.365	7127.44
492.569	7168.4
492.772	7045.52
492.976	7082.39
493.18	7182.74
493.383	7127.44
493.587	7266.71
493.79	7510.41
493.994	7281.04
494.197	7342.48
494.401	7586.19
494.605	7381.39
494.808	7518.61
495.012	7494.03
495.215	7614.86
495.419	7559.56
495.622	7610.76
495.825	7733.64
496.029	7786.89
496.232	7807.37
496.436	7887.24
496.639	7893.38
496.843	7967.11
497.046	8022.41
497.249	8108.42
497.453	8214.91
497.656	8108.42
497.859	8282.5
498.063	8266.11
498.266	8558.97
498.469	8444.29
498.673	8518.01
498.876	8583.55
499.079	8593.79
499.282	8696.19
499.485	9148.79
499.689	8814.97
499.892	9068.92
500.095	9156.98
500.298	9136.5
500.501	9058.68
500.705	9290.1
500.908	9517.42
501.111	9574.77
501.314	9617.77
501.517	9642.35
501.72	9742.7
501.923	10002.79
502.126	10094.95
502.329	9953.64
502.532	10203.49
502.735	10482.02
502.938	10453.34
503.141	10508.64
503.344	10574.17
503.547	10422.62
503.75	10611.04
503.953	10862.94
504.156	10959.19
504.359	11172.18
504.562	11147.61
504.765	11190.61
504.968	11639.12
505.17	11581.78
505.373	11551.06
505.576	11759.95
505.779	11872.59
505.982	12024.14
506.185	12110.15
506.387	12271.94
506.59	12335.43
506.793	12462.4
506.996	12564.8
507.198	12982.59
507.401	12884.28
507.604	12906.81
507.807	12968.25
508.009	13269.3
508.212	13470
508.415	13445.43
508.617	13621.55
508.82	13941.04
509.022	13619.5
509.225	13838.64
509.428	14197.03
509.63	14240.04
509.833	14324.01
510.035	14696.74
510.238	14326.05
510.44	14911.77
510.643	15118.62
510.845	15079.71
511.048	15118.62
511.25	15171.86
511.453	15421.72
511.655	15962.38
511.858	15530.26
512.06	15849.74
512.262	16007.44
512.465	16337.16
512.667	16523.52
512.87	16447.75
513.072	16808.19
513.274	16810.24
513.477	17088.76
513.679	17252.6
513.881	17465.59
514.084	17305.85
514.286	17422.58
514.488	17551.6
514.69	18227.43
514.893	18022.64
515.095	18303.21
515.297	18329.83
515.499	18401.51
515.701	18893.02
515.904	18839.78
516.106	19249.37
516.308	19431.64
516.51	19339.48
516.712	19167.45
516.914	19683.54
517.116	19701.97
517.318	20078.8
517.52	20029.65
517.722	20332.75
517.925	20486.34
518.127	20662.47
518.329	20824.26
518.531	20537.54
518.733	21254.33
518.935	21209.28
519.136	21420.22
519.338	21618.87
519.54	21401.79
519.742	21962.93
519.944	21575.86
520.146	22040.75
520.348	22419.63
520.55	22296.75
520.752	22376.62
520.954	22999.2
521.155	22780.07
521.357	22925.47
521.559	22923.43
521.761	23324.83
521.963	23330.97
522.164	23447.71
522.366	23079.07
522.568	23597.21
522.77	23316.64
522.971	23691.41
523.173	23609.5
523.375	23996.56
523.576	23965.84
523.778	23947.41
523.98	24144.02
524.181	24211.6
524.383	24357
524.584	24395.92
524.786	24483.98
524.988	24475.79
525.189	24729.73
525.391	24821.89
525.592	24844.42
525.794	24748.17
525.995	24844.42
526.197	24750.21
526.398	24780.93
526.6	25098.37
526.801	24844.42
527.003	24989.83
527.204	24821.89
527.406	24780.93
527.607	24991.87
527.808	25323.65
528.01	24793.22
528.211	24961.16
528.412	25254.01
528.614	25143.42
528.815	25059.46
529.016	25262.21
529.218	24957.06
529.419	24926.34
529.62	25129.09
529.822	24905.86
530.023	24901.76
530.224	24932.48
530.425	24774.79
530.626	24766.6
530.828	24424.59
531.029	25030.79
531.23	24651.91
531.431	24666.25
531.632	25002.11
531.833	24946.82
532.035	24588.42
532.236	24596.62
532.437	24645.77
532.638	24467.59
532.839	24518.79
533.04	24488.07
533.241	24076.43
533.442	24520.84
533.643	24154.26
533.844	24133.78
534.045	24305.81
534.246	23965.84
534.447	23976.08
534.648	24387.72
534.849	24078.48
535.05	24010.9
535.251	24111.25
535.451	23967.89
535.652	23900.31
535.853	23681.17
536.054	23885.97
536.255	23890.07
536.456	23292.06
536.657	24250.51
536.857	23595.16
537.058	23165.09
537.259	23662.74
537.46	23664.79
537.66	23339.16
537.861	23443.61
538.062	23412.89
538.263	23308.44
538.463	23388.32
538.664	22898.85
538.865	23193.76
539.065	23320.73
539.266	23191.71
539.466	23296.16
539.667	22778.02
539.868	23400.6
540.068	22927.52
540.269	23050.4
540.469	23034.02
540.67	22710.44
540.87	22939.81
541.071	22816.93
541.271	23107.74
541.472	23054.5
541.672	22954.15
541.873	22722.73
542.073	22698.15
542.274	22960.29
542.474	22626.47
542.675	22739.11
542.875	22870.18
543.075	22694.05
543.276	22517.93
543.476	22804.64
543.676	22796.45
543.877	22698.15
544.077	22739.11
544.277	22509.74
544.478	22550.7
544.678	22612.13
544.878	22393
545.078	22749.35
545.279	22296.75
545.479	22364.33
545.679	22665.38
545.879	22370.47
546.079	22814.88
546.28	22280.36
546.48	22206.64
546.68	22558.89
546.88	22741.16
547.08	22481.06
547.28	22466.73
547.48	22337.71
547.68	22917.28
547.88	22364.33
548.081	22726.82
548.281	22669.48
548.481	22536.36
548.681	22950.05
548.881	22448.3
549.081	22454.44
549.28	22638.76
549.48	22929.57
549.68	22536.36
549.88	23019.68
550.08	22433.96
550.28	22782.12
550.48	22655.14
550.68	22771.88
550.88	22741.16
551.08	22640.81
551.279	22685.86
551.479	22626.47
551.679	22710.44
551.879	22737.06
552.079	23007.39
552.278	22995.11
552.478	23261.34
552.678	23191.71
552.878	23023.78
553.077	22737.06
553.277	22788.26
553.477	23222.43
553.676	22931.62
553.876	23500.95
554.076	23128.22
554.275	23177.37
554.475	23208.09
554.674	23427.23
554.874	23439.51
555.074	23328.92
555.273	23500.95
555.473	23439.51
555.672	23249.05
555.872	23527.58
556.071	23629.98
556.271	23765.14
556.47	23345.31
556.67	23376.03
556.869	23552.15
557.068	23621.78
557.268	23529.62
557.467	23748.76
557.667	23761.05
557.866	23795.86
558.065	23808.15
558.265	23822.48
558.464	23609.5
558.663	24062.1
558.863	23879.83
559.062	23791.76
559.261	23724.18
559.461	24006.8
559.66	23773.33
559.859	23494.81
560.058	23451.8
560.258	23765.14
560.457	23595.16
560.656	24270.99
560.855	23605.4
561.054	23988.37
561.253	23511.19
561.453	23734.42
561.652	24047.76
561.851	23765.14
562.05	23881.88
562.249	23855.25
562.448	24035.47
562.647	23457.95
562.846	23498.91
563.045	23820.44
563.244	23787.67
563.443	24070.29
563.642	23611.54
563.841	23759
564.04	23646.36
564.239	23879.83
564.438	23433.37
564.637	23787.67
564.836	23713.94
565.035	23494.81
565.234	23640.22
565.432	23324.83
565.631	23494.81
565.83	23505.05
566.029	23498.91
566.228	23531.67
566.427	23441.56
566.625	23412.89
566.824	23107.74
567.023	23326.88
567.222	22876.32
567.42	23236.77
567.619	23027.87
567.818	23083.17
568.016	23148.7
568.215	22986.91
568.414	23171.23
568.612	22919.33
568.811	23052.45
569.01	22941.86
569.208	22735.01
569.407	22735.01
569.605	22634.66
569.804	22804.64
570.002	22464.68
570.201	22556.84
570.4	22429.87
570.598	22487.21
570.797	22362.28
570.995	22235.31
571.193	21891.25
571.392	22491.3
571.59	22122.67
571.789	22046.9
571.987	21754.04
572.186	21846.19
572.384	21792.95
572.582	22012.08
572.781	21754.04
572.979	21209.28
573.177	21534.9
573.376	21405.88
573.574	21153.98
573.772	21479.61
573.971	21362.87
574.169	21283
574.367	20908.22
574.565	21375.16
574.763	20863.17
574.962	20576.45
575.16	20713.67
575.358	20920.51
575.556	20451.53
575.754	20826.31
575.952	20461.77
576.151	20728
576.349	20203.72
576.547	20369.61
576.745	20351.18
576.943	20130
577.141	19818.71
577.339	19945.68
577.537	20013.26
577.735	20109.52
577.933	19609.81
578.131	19947.73
578.329	19476.69
578.527	19597.52
578.725	19671.25
578.923	19445.98
579.121	19245.27
579.319	19144.92
579.516	19341.53
579.714	19398.87
579.912	19235.03
580.11	18993.37
580.308	19298.52
580.506	18893.02
580.704	18673.89
580.901	19218.65
581.099	18854.11
581.297	18798.82
581.495	18546.92
581.692	18745.57
581.89	18495.72
582.088	18436.33
582.285	18501.86
582.483	18419.94
582.681	18493.67
582.878	18473.19
583.076	18378.98
583.274	18362.6
583.471	18206.95
583.669	18180.33
583.866	18098.41
584.064	18381.03
584.262	18231.53
584.459	18143.47
584.657	17651.95
584.854	18266.35
585.052	17707.25
585.249	17731.83
585.447	17930.48
585.644	17666.29
585.841	17651.95
586.039	17864.94
586.236	17391.86
586.434	17651.95
586.631	17502.45
586.828	17604.85
587.026	17461.49
587.223	17633.52
587.42	17424.63
587.618	17441.01
587.815	17266.94
588.012	17187.07
588.21	17137.91
588.407	17611
588.604	17217.79
588.801	17193.21
588.999	16992.51
589.196	17076.48
589.393	16998.65
589.59	16986.36
589.787	16896.25
589.984	17064.19
590.182	16949.5
590.379	17144.06
590.576	16949.5
590.773	17017.08
590.97	16988.41
591.167	16873.73
591.364	16808.19
591.561	16765.18
591.758	16892.16
591.955	16679.17
592.152	16605.44
592.349	16994.56
592.546	17017.08
592.743	16492.8
592.94	16736.51
593.137	16492.8
593.334	16531.72
593.531	16419.08
593.727	16818.43
593.924	16664.83
594.121	16574.72
594.318	17019.13
594.515	16615.68
594.712	16802.05
594.908	16480.52
595.105	16851.2
595.302	16648.45
595.499	16597.25
595.696	16617.73
595.892	16599.3
596.089	16720.13
596.286	16838.91
596.482	16787.71
596.679	16806.14
596.876	16777.47
597.072	16843.01
597.269	16857.34
597.466	16781.57
597.662	16832.77
597.859	16767.23
598.055	16916.73
598.252	16773.38
598.448	16912.64
598.645	16701.7
598.841	16527.62
599.038	16785.66
599.234	17127.67
599.431	16697.6
599.627	17062.14
599.824	17363.19
600.02	16908.54
600.217	17125.63
600.413	16949.5
600.609	17045.76
600.806	16984.32
601.002	17111.29
601.198	17207.55
601.395	17236.22
601.591	17316.09
601.787	17195.26
601.984	17285.37
602.18	17520.88
602.376	17426.68
602.572	17469.69
602.769	17475.83
602.965	17217.79
603.161	17656.05
603.357	17746.16
603.553	17686.77
603.75	17987.82
603.946	17938.67
604.142	17807.6
604.338	17885.42
604.534	18077.93
604.73	18028.78
604.926	17942.77
605.122	17965.29
605.318	18004.21
605.514	18131.18
605.71	17977.58
605.906	18209
606.102	18438.37
606.298	18346.22
606.494	18176.23
606.69	18637.03
606.886	18634.98
607.082	18520.29
607.278	18712.8
607.474	18487.53
607.67	18755.81
607.866	18546.92
608.062	18776.29
608.257	18602.21
608.453	18673.89
608.649	18755.81
608.845	18831.58
609.041	18915.55
609.236	19083.48
609.432	19101.92
609.628	18895.07
609.824	19073.24
610.019	19030.24
610.215	19454.17
610.411	19316.95
610.606	19093.72
610.802	19364.06
610.998	19454.17
611.193	19622.1
611.389	19558.61
611.584	19429.59
611.78	19304.67
611.976	19636.44
612.171	19603.67
612.367	19724.5
612.562	19818.71
612.758	19697.88
612.953	19423.45
613.149	19609.81
613.344	19792.08
613.539	19878.1
613.735	19615.96
613.93	19925.2
614.126	20005.07
614.321	20058.32
614.517	19906.77
614.712	19816.66
614.907	19546.33
615.103	19882.19
615.298	20078.8
615.493	20023.5
615.688	19810.51
615.884	20201.68
616.079	19618
616.274	20199.63
616.47	20144.33
616.665	20252.87
616.86	20043.98
617.055	20297.93
617.25	19921.1
617.445	20132.04
617.641	19716.31
617.836	19972.3
618.031	19904.72
618.226	20050.13
618.421	19892.43
618.616	20000.97
618.811	19716.31
619.006	19843.28
619.201	19519.7
619.396	19941.58
619.591	19562.71
619.786	19777.75
619.981	19603.67
620.176	19663.06
620.371	19493.08
620.566	19613.91
620.761	19226.84
620.956	19708.12
621.151	19347.67
621.346	19196.12
621.541	19294.43
621.735	19482.84
621.93	18880.74
622.125	18938.08
622.32	18860.26
622.515	18985.18
622.709	18786.53
622.904	19036.38
623.099	18884.83
623.294	18727.14
623.488	18645.22
623.683	18618.6
623.878	18383.08
624.072	18333.93
624.267	18616.55
624.462	18553.06
624.656	18079.98
624.851	18108.65
625.046	18016.49
625.24	17993.97
625.435	17826.03
625.629	17791.22
625.824	17572.08
626.018	17733.87
626.213	17279.22
626.407	17844.46
626.602	17391.86
626.796	17508.6
626.991	17242.36
627.185	17096.96
627.38	17154.3
627.574	16879.87
627.768	16691.46
627.963	16818.43
628.157	16775.42
628.352	16836.86
628.546	16439.56
628.74	16699.65
628.935	16337.16
629.129	16353.54
629.323	16257.29
629.517	16283.91
629.712	15976.72
629.906	16212.23
630.1	15974.67
630.294	15749.39
630.489	15909.13
630.683	15823.12
630.877	15474.96
631.071	15636.75
631.265	15638.8
631.459	15522.07
631.653	15425.81
631.848	15388.95
632.042	15347.99
632.236	15493.4
632.43	15223.06
632.624	15071.51
632.818	14874.91
633.012	14719.26
633.206	14768.41
633.4	14922.01
633.594	14528.8
633.788	14647.58
633.982	14903.58
634.176	14270.76
634.369	14493.99
634.563	14532.9
634.757	14149.93
634.951	14319.91
635.145	13920.56
635.339	14180.65
635.533	13865.26
635.726	13947.18
635.92	13756.72
636.114	13918.51
636.308	13508.91
636.501	13523.25
636.695	13523.25
636.889	13433.14
637.083	13240.63
637.276	13058.36
637.47	13383.99
637.664	12953.91
637.857	13123.9
638.051	13115.7
638.244	12900.67
638.438	12673.34
638.632	12726.59
638.825	12583.23
639.019	12681.53
639.212	12589.38
639.406	12486.98
639.599	12278.08
639.793	12370.24
639.986	12077.38
640.18	12110.15
640.373	12202.31
640.567	12144.97
640.76	12024.14
640.954	11848.01
641.147	11872.59
641.34	11731.28
641.534	11612.49
641.727	11516.24
641.92	11483.47
642.114	11387.22
642.307	11422.03
642.5	11084.12
642.694	11241.81
642.887	10963.29
643.08	11096.41
643.273	11106.65
643.467	11000.15
643.66	10676.57
643.853	10688.86
644.046	10652
644.239	10703.2
644.432	10611.04
644.626	10467.68
644.819	10309.99
645.012	10484.06
645.205	10320.23
645.398	10576.22
645.591	10133.86
645.784	10123.62
645.977	9918.82
646.17	10158.44
646.363	9931.11
646.556	9779.56
646.749	9931.11
646.942	9871.72
647.135	9656.68
647.328	9656.68
647.521	9709.93
647.714	9591.15
647.907	9576.81
648.099	9529.71
648.292	9331.06
648.485	9333.11
648.678	9103.73
648.871	9152.88
649.064	9081.21
649.256	9032.05
649.449	8956.28
649.642	9136.5
649.835	8716.67
650.027	8753.53
650.22	8632.7
650.413	8814.97
650.605	8829.31
650.798	8755.58
650.991	8618.36
651.183	8700.28
651.376	8747.39
651.568	8651.13
651.761	8479.1
651.954	8356.22
652.146	8448.38
652.339	8421.76
652.531	8264.07
652.724	8253.83
652.916	7969.16
653.109	8026.5
653.301	8051.08
653.494	8167.81
653.686	7858.57
653.879	8092.04
654.071	7711.11
654.263	7952.77
654.456	7944.58
654.648	7926.15
654.84	7653.77
655.033	7676.3
655.225	7629.2
655.417	7578
655.61	7580.04
655.802	7557.52
655.994	7504.27
656.186	7461.26
656.379	7485.84
656.571	7350.67
656.763	7184.79
656.955	7180.69
657.148	7289.23
657.34	7283.09
657.532	7035.28
657.724	7119.25
657.916	7092.63
658.108	7131.54
658.3	7002.52
658.492	7111.06
658.684	6797.72
658.876	6857.11
659.068	6871.45
659.26	6683.03
659.452	6664.6
659.644	6789.53
659.836	6599.07
660.028	6668.7
660.22	6570.4
660.412	6486.43
660.604	6463.9
660.796	6594.97
660.988	6539.68
661.18	6404.51
661.372	6244.77
661.563	6324.64
661.755	6209.95
661.947	6212
662.139	6154.66
662.331	6244.77
662.522	6209.95
662.714	6013.35
662.906	5945.77
663.097	6150.56
663.289	5945.77
663.481	5769.64
663.673	6003.11
663.864	5800.36
664.056	5800.36
664.247	5810.6
664.439	5822.89
664.631	5898.66
664.822	5888.42
665.014	5657
665.205	5710.25
665.397	5521.84
665.588	5712.3
665.78	5665.19
665.971	5616.04
666.163	5519.79
666.354	5515.69
666.546	5511.6
666.737	5439.92
666.929	5382.57
667.12	5505.45
667.311	5278.13
667.503	5343.66
667.694	5388.72
667.885	5251.5
668.077	5243.31
668.268	5163.44
668.459	5194.16
668.651	5224.88
668.842	5058.99
669.033	5171.63
669.224	5126.58
669.416	5163.44
669.607	4983.22
669.798	4889.01
669.989	4897.21
670.18	5110.19
670.371	4983.22
670.563	4970.93
670.754	5110.19
670.945	4809.14
671.136	4895.16
671.327	4956.6
671.518	4917.68
671.709	4960.69
671.9	4821.43
672.091	4794.81
672.282	4780.47
672.473	4829.62
672.664	4905.4
672.855	4811.19
673.046	4712.89
673.237	4725.18
673.428	4698.55
673.619	4835.77
673.809	4712.89
674	4663.74
674.191	4555.19
674.382	4626.87
674.573	4700.6
674.764	4659.64
674.954	4639.16
675.145	4716.98
675.336	4782.52
675.527	4610.49
675.717	4563.39
675.908	4581.82
676.099	4594.11
676.289	4463.04
676.48	4504
676.671	4606.39
676.861	4499.9
677.052	4458.94
677.243	4440.51
677.433	4565.43
677.624	4538.81
677.814	4489.66
678.005	4352.45
678.195	4694.46
678.386	4344.25
678.576	4291.01
678.767	4327.87
678.957	4463.04
679.148	4393.4
679.338	4442.56
679.529	4442.56
679.719	4397.5
679.909	4471.23
680.1	4299.2
680.29	4522.43
680.481	4374.97
680.671	4381.12
680.861	4430.27
681.052	4303.29
681.242	4424.12
681.432	4463.04
681.622	4299.2
681.813	4405.69
682.003	4444.6
682.193	4381.12
682.383	4311.49
682.573	4422.08
682.764	4180.42
682.954	4299.2
683.144	4514.24
683.334	4336.06
683.524	4481.47
683.714	4319.68
683.904	4331.97
684.094	4344.25
684.284	4291.01
684.474	4389.31
684.664	4399.55
684.854	4389.31
685.044	4430.27
685.234	4282.81
685.424	4331.97
685.614	4260.29
685.804	4319.68
685.994	4209.09
686.184	4338.11
686.374	4241.86
686.564	4243.9
686.753	4307.39
686.943	4155.84
687.133	4190.66
687.323	4331.97
687.513	4137.41
687.702	4221.38
687.892	4069.83
688.082	4166.08
688.272	4262.33
688.461	4024.77
688.651	4282.81
688.841	4176.32
689.03	4233.66
689.22	4182.46
689.41	4078.02
689.599	4004.29
689.789	4129.22
689.979	3924.42
690.168	4157.89
690.358	4104.64
690.547	4006.34
690.737	4012.48
690.926	4164.03
691.116	4069.83
691.305	3989.96
691.495	4049.35
691.684	3977.67
691.874	4073.92
692.063	4028.87
692.252	3971.52
692.442	3973.57
692.631	3877.32
692.82	3955.14
693.01	3895.75
693.199	3883.46
693.388	3936.71
693.578	4045.25
693.767	3973.57
693.956	3967.43
694.146	3912.13
694.335	3938.76
694.524	3887.56
694.713	3983.81
694.902	3957.19
695.092	3963.33
695.281	3965.38
695.47	3877.32
695.659	3875.27
695.848	3840.45
696.037	3697.1
696.226	3832.26
696.415	3879.36
696.604	3881.41
696.793	3875.27
696.982	3781.06
697.171	3840.45
697.36	3971.52
697.549	3840.45
697.738	3783.11
697.927	3721.67
698.116	3840.45
698.305	3793.35
698.494	3852.74
698.683	3705.29
698.872	3795.4
699.061	3668.42
699.25	3795.4
699.438	3662.28
699.627	3819.97
699.816	3795.4
700.005	3752.39
700.193	3654.09
700.382	3629.51
700.571	3717.58
700.76	3623.37
700.948	3645.9
701.137	3729.86
701.326	3656.14
701.514	3674.57
701.703	3643.85
701.892	3545.55
702.08	3611.08
702.269	3701.19
702.457	3574.22
702.646	3617.22
702.834	3660.23
703.023	3518.92
703.212	3578.31
703.4	3637.7
703.589	3496.39
703.777	3566.03
703.965	3459.53
704.154	3504.59
704.342	3590.6
704.531	3647.94
704.719	3498.44
704.907	3574.22
705.096	3447.24
705.284	3381.71
705.472	3504.59
705.661	3451.34
705.849	3477.96
706.037	3457.48
706.226	3391.95
706.414	3369.42
706.602	3310.03
706.79	3447.24
706.979	3424.72
707.167	3467.72
707.355	3406.28
707.543	3398.09
707.731	3523.02
707.919	3383.76
708.107	3316.17
708.296	3373.52
708.484	3330.51
708.672	3279.31
708.86	3293.65
709.048	3264.97
709.236	3295.69
709.424	3230.16
709.612	3277.26
709.8	3316.17
709.988	3209.68
710.176	3267.02
710.364	3187.15
710.551	3414.48
710.739	3140.05
710.927	3224.01
711.115	3090.9
711.303	3125.71
711.491	3160.53
711.679	3158.48
711.866	3119.57
712.054	3156.43
712.242	3123.66
712.43	3146.19
712.617	3080.66
712.805	3070.42
712.993	3156.43
713.181	2957.78
713.368	3062.23
713.556	2994.64
713.744	3041.75
713.931	3039.7
714.119	3146.19
714.306	2998.74
714.494	2853.33
714.682	3152.34
714.869	3027.41
715.057	3099.09
715.244	2920.92
715.432	3000.79
715.619	2957.78
715.807	3017.17
715.994	2980.31
716.182	2914.77
716.369	2859.48
716.556	2939.35
716.744	2947.54
716.931	2781.65
717.119	2888.15
717.306	2959.83
717.493	2922.96
717.681	2857.43
717.868	2849.24
718.055	2806.23
718.242	2779.61
718.43	2865.62
718.617	2767.32
718.804	2810.33
718.991	2859.48
719.179	2855.38
719.366	2712.02
719.553	2716.12
719.74	2742.74
719.927	2793.94
720.114	2736.6
720.301	2820.56
720.488	2763.22
720.676	2718.17
720.863	2648.54
721.05	2767.32
721.237	2626.01
721.424	2605.53
721.611	2712.02
721.798	2605.53
721.985	2503.13
722.172	2611.67
722.358	2578.9
722.545	2636.25
722.732	2644.44
722.919	2728.41
723.106	2628.06
723.293	2439.64
723.48	2632.15
723.667	2599.38
723.853	2597.34
724.04	2433.5
724.227	2613.72
724.414	2556.38
724.6	2458.07
724.787	2451.93
724.974	2666.97
725.161	2542.04
725.347	2425.31
725.534	2445.79
725.72	2529.75
725.907	2599.38
726.094	2511.32
726.28	2578.9
726.467	2429.4
726.653	2378.2
726.84	2523.61
727.027	2472.41
727.213	2363.87
727.4	2464.22
727.586	2501.08
727.773	2476.51
727.959	2451.93
728.145	2456.03
728.332	2392.54
728.518	2460.12
728.705	2386.4
728.891	2267.61
729.077	2341.34
729.264	2308.57
729.45	2406.88
729.636	2341.34
729.823	2359.77
730.009	2417.12
730.195	2339.29
730.382	2310.62
730.568	2310.62
730.754	2302.43
730.94	2238.94
731.126	2353.63
731.313	2308.57
731.499	2275.81
731.685	2384.35
731.871	2345.44
732.057	2324.96
732.243	2343.39
732.429	2284
732.615	2228.7
732.801	2357.72
732.987	2316.76
733.173	2251.23
733.359	2163.17
733.545	2218.46
733.731	2275.81
733.917	2253.28
734.103	2220.51
734.289	2251.23
734.475	2138.59
734.661	2230.75
734.847	2195.93
735.033	2218.46
735.219	2251.23
735.404	2144.74
735.59	2202.08
735.776	2165.21
735.962	2253.28
736.148	2238.94
736.333	2154.98
736.519	2034.14
736.705	2095.58
736.89	2087.39
737.076	2111.97
737.262	2107.87
737.447	1972.71
737.633	2068.96
737.819	2169.31
738.004	2064.86
738.19	2030.05
738.375	2034.14
738.561	2128.35
738.747	2009.57
738.932	2064.86
739.118	2089.44
739.303	1997.28
739.489	2095.58
739.674	2013.67
739.859	2128.35
740.045	2083.3
740.23	2030.05
740.416	1853.92
740.601	2089.44
740.786	1905.12
740.972	1989.09
741.157	1954.27
741.342	1976.8
741.528	1853.92
741.713	1890.79
741.898	1944.03
742.084	1853.92
742.269	1800.68
742.454	1868.26
742.639	1941.99
742.824	1989.09
743.01	1950.18
743.195	1923.55
743.38	1829.35
743.565	1751.53
743.75	1915.36
743.935	1800.68
744.12	2007.52
744.305	1788.39
744.49	1671.65
744.675	1782.24
744.86	1774.05
745.045	1819.11
745.23	1710.57
745.415	1747.43
745.6	1722.85
745.785	1743.33
745.97	1690.09
746.155	1743.33
746.34	1683.94
746.525	1587.69
746.71	1763.81
746.895	1616.36
747.079	1685.99
747.264	1526.25
747.449	1587.69
747.634	1614.31
747.819	1657.32
748.003	1583.59
748.188	1532.39
748.373	1513.96
748.557	1591.78
748.742	1454.57
748.927	1507.82
749.111	1546.73
749.296	1501.67
749.481	1540.58
749.665	1546.73
749.85	1487.34
750.034	1444.33
750.219	1481.19
750.404	1456.62
750.588	1464.81
750.773	1442.28
750.957	1442.28
751.141	1417.71
751.326	1454.57
751.51	1288.68
751.695	1423.85
751.879	1382.89
752.064	1452.52
752.248	1415.66
752.432	1401.32
752.617	1366.51
752.801	1466.86
752.985	1300.97
753.17	1407.47
753.354	1372.65
753.538	1292.78
753.722	1384.94
753.907	1333.74
754.091	1210.86
754.275	1317.36
754.459	1346.03
754.643	1190.38
754.828	1188.33
755.012	1296.88
755.196	1235.44
755.38	1223.15
755.564	1116.65
755.748	1169.9
755.932	1217.01
756.116	1210.86
756.3	1243.63
756.484	1178.09
756.668	1184.24
756.852	1104.37
757.036	1096.18
757.22	1085.94
757.404	1061.36
757.588	1118.7
757.772	1145.33
757.956	1071.6
758.14	1139.18
758.323	1032.69
758.507	1128.94
758.691	1008.11
758.875	1069.55
759.059	1137.13
759.242	1044.98
759.426	985.58
759.61	993.78
759.794	1059.31
759.977	1010.16
760.161	1133.04
760.345	1020.4
760.528	989.68
760.712	989.68
760.895	961.01
761.079	1077.74
761.263	1014.26
761.446	948.72
761.63	928.24
761.813	961.01
761.997	997.87
762.18	915.95
762.364	911.86
762.547	907.76
762.731	940.53
762.914	866.8
763.098	803.32
763.281	932.34
763.464	883.19
763.648	891.38
763.831	942.58
764.015	836.08
764.198	907.76
764.381	934.39
764.564	932.34
764.748	963.06
764.931	928.24
765.114	823.8
765.297	918
765.481	795.12
765.664	883.19
765.847	895.47
766.03	889.33
766.213	885.23
766.397	922.1
766.58	846.32
766.763	924.15
766.946	764.4
767.129	918
767.312	807.41
767.495	879.09
767.678	791.03
767.861	768.5
768.044	786.93
768.227	737.78
768.41	768.5
768.593	836.08
768.776	827.89
768.959	786.93
769.142	852.47
769.324	737.78
769.507	690.68
769.69	809.46
769.873	840.18
770.056	782.84
770.239	838.13
770.421	770.55
770.604	686.58
770.787	776.69
770.97	831.99
771.152	698.87
771.335	815.6
771.518	715.25
771.7	852.47
771.883	768.5
772.066	696.82
772.248	717.3
772.431	717.3
772.613	717.3
772.796	729.59
772.978	745.97
773.161	739.83
773.343	737.78
773.526	737.78
773.708	532.98
773.891	690.68
774.073	682.49
774.256	596.47
774.438	745.97
774.621	662.01
774.803	637.43
774.985	696.82
775.168	678.39
775.35	719.35
775.532	637.43
775.715	594.42
775.897	682.49
776.079	674.29
776.261	649.72
776.444	600.57
776.626	598.52
776.808	535.03
776.99	637.43
777.173	580.09
777.355	563.7
777.537	645.62
777.719	508.41
777.901	475.64
778.083	631.29
778.265	580.09
778.447	637.43
778.629	600.57
778.811	584.18
778.993	543.22
779.175	571.9
779.357	512.5
779.539	530.94
779.721	582.14
779.903	551.42
780.085	483.83
780.267	424.44
780.449	512.5
780.631	518.65
780.812	475.64
780.994	559.61
781.176	418.3
781.358	532.98
781.54	467.45
781.721	555.51
781.903	526.84
782.085	502.26
782.267	514.55
782.448	463.35
782.63	432.63
782.812	492.02
782.993	442.87
783.175	481.78
783.357	424.44
783.538	502.26
783.72	473.59
783.901	436.73
784.083	481.78
784.264	457.21
784.446	391.67
784.627	428.54
784.809	473.59
784.99	367.1
785.172	449.02
785.353	434.68
785.535	420.35
785.716	367.1
785.897	426.49
786.079	317.95
786.26	483.83
786.441	393.72
786.623	344.57
786.804	424.44
786.985	350.71
787.167	387.58
787.348	293.37
787.529	348.67
787.71	432.63
787.891	373.24
788.073	328.19
788.254	295.42
788.435	393.72
788.616	346.62
788.797	330.23
788.978	322.04
789.159	344.57
789.34	293.37
789.522	334.33
789.703	383.48
789.884	301.56
790.065	330.23
790.246	348.67
790.427	311.8
790.607	338.43
790.788	326.14
790.969	221.69
791.15	313.85
791.331	190.97
791.512	317.95
791.693	285.18
791.874	281.08
792.054	387.58
792.235	317.95
792.416	195.07
792.597	293.37
792.778	301.56
792.958	303.61
793.139	248.32
793.32	285.18
793.5	205.31
793.681	344.57
793.862	248.32
794.042	260.6
794.223	264.7
794.404	322.04
794.584	236.03
794.765	240.12
794.945	211.45
795.126	236.03
795.306	297.47
795.487	164.35
795.667	268.8
795.848	276.99
796.028	236.03
796.209	236.03
796.389	256.51
796.57	260.6
796.75	162.3
796.93	223.74
797.111	207.36
797.291	219.64
797.471	293.37
797.652	301.56
797.832	209.4
798.012	211.45
798.192	180.73
798.373	256.51
798.553	168.45
798.733	199.16
798.913	207.36
799.093	188.93
799.274	328.19
799.454	229.88
799.634	285.18
799.814	276.99
799.994	229.88
800.174	252.41
800.354	203.26
800.534	262.65
800.714	199.16
800.894	199.16
801.074	170.49
801.254	162.3
801.434	260.6
801.614	201.21
801.794	182.78
801.974	936.43
802.154	160.25
802.334	254.46
802.514	154.11
802.693	190.97
802.873	195.07
803.053	203.26
803.233	170.49
803.413	145.92
803.592	186.88
803.772	64
803.952	236.03
804.131	219.64
804.311	164.35
804.491	248.32
804.67	186.88
804.85	133.63
805.03	158.21
805.209	281.08
805.389	154.11
805.568	166.4
805.748	158.21
805.928	139.77
806.107	156.16
806.287	227.84
806.466	211.45
806.646	127.49
806.825	180.73
807.004	156.16
807.184	113.15
807.363	197.12
807.543	154.11
807.722	119.29
807.901	178.69
808.081	170.49
808.26	129.53
808.439	109.05
808.619	174.59
808.798	109.05
808.977	127.49
809.156	96.77
809.336	123.39
809.515	252.41
809.694	111.1
809.873	107.01
810.052	211.45
810.231	178.69
810.411	137.73
810.59	174.59
810.769	186.88
810.948	205.31
811.127	37.38
811.306	141.82
811.485	109.05
811.664	78.33
811.843	211.45
812.022	90.62
812.201	49.66
812.38	158.21
812.559	92.67
812.737	41.47
812.916	96.77
813.095	125.44
813.274	76.29
813.453	92.67
813.632	133.63
813.811	178.69
813.989	123.39
814.168	156.16
814.347	90.62
814.526	104.96
814.704	170.49
814.883	98.81
815.062	109.05
815.24	135.68
815.419	152.06
815.598	115.2
815.776	64
815.955	131.58
816.133	53.76
816.312	80.38
816.49	174.59
816.669	170.49
816.847	82.43
817.026	127.49
817.204	84.48
817.383	49.66
817.561	29.18
817.74	113.15
817.918	168.45
818.097	100.86
818.275	104.96
818.453	59.9
818.632	193.02
818.81	113.15
818.988	55.81
819.167	117.25
819.345	86.53
819.523	162.3
819.701	43.52
819.879	123.39
820.058	109.05
820.236	18.94
820.414	88.57
820.592	88.57
820.77	182.78
820.948	117.25
821.127	121.34
821.305	104.96
821.483	94.72
821.661	109.05
821.839	102.91
822.017	39.42
822.195	96.77
822.373	98.81
822.551	74.24
822.729	158.21
822.907	84.48
823.085	109.05
823.262	125.44
823.44	41.47
823.618	16.9
823.796	129.53
823.974	129.53
824.152	64
824.329	23.04
824.507	115.2
824.685	59.9
824.863	100.86
825.04	109.05
825.218	72.19
825.396	64
825.574	180.73
825.751	115.2
825.929	125.44
826.107	39.42
826.284	131.58
826.462	139.77
826.639	14.85
826.817	6.66
826.994	88.57
827.172	35.33
827.349	61.95
827.527	59.9
827.704	74.24
827.882	100.86
828.059	104.96
828.237	137.73
828.414	121.34
828.591	-17.92
828.769	31.23
828.946	39.42
829.124	109.05
829.301	115.2
829.478	96.77
829.655	84.48
829.833	55.81
830.01	47.62
830.187	72.19
830.364	57.86
830.542	51.71
830.719	74.24
830.896	88.57
831.073	104.96
831.25	76.29
831.427	47.62
831.604	64
831.782	64
831.959	41.47
832.136	74.24
832.313	51.71
832.49	31.23
832.667	104.96
832.844	23.04
833.021	104.96
833.198	14.85
833.374	64
833.551	94.72
833.728	84.48
833.905	123.39
834.082	47.62
834.259	109.05
834.436	74.24
834.612	23.04
834.789	86.53
834.966	98.81
835.143	61.95
835.319	-34.3
835.496	59.9
835.673	51.71
835.85	90.62
836.026	88.57
836.203	72.19
836.38	10.75
836.556	57.86
836.733	10.75
836.909	125.44
837.086	66.05
837.262	-50.69
837.439	-9.73
837.616	64
837.792	33.28
837.968	64
838.145	-38.4
838.321	88.57
838.498	125.44
838.674	109.05
838.851	55.81
839.027	49.66
839.203	55.81
839.38	100.86
839.556	31.23
839.732	90.62
839.909	27.14
840.085	47.62
840.261	-26.11
840.437	8.7
840.614	51.71
840.79	64
840.966	102.91
841.142	20.99
841.318	10.75
841.494	35.33
841.671	55.81
841.847	27.14
842.023	41.47
842.199	18.94
842.375	10.75
842.551	39.42
842.727	-24.06
842.903	35.33
843.079	23.04
843.255	80.38
843.431	33.28
843.607	0.51
843.783	10.75
843.959	14.85
844.134	-24.06
844.31	80.38
844.486	8.7
844.662	59.9
844.838	37.38
845.013	66.05
845.189	72.19
845.365	49.66
845.541	8.7
845.716	74.24
845.892	68.09
846.068	-1.54
846.244	8.7
846.419	45.57
846.595	-99.84
846.77	23.04
846.946	59.9
847.122	68.09
847.297	-1.54
847.473	64
847.648	45.57
847.824	80.38
847.999	-48.64
848.175	-15.87
848.35	31.23
848.526	82.43
848.701	2.56
848.876	27.14
849.052	45.57
849.227	18.94
849.403	82.43
849.578	18.94
849.753	6.66
849.929	18.94
850.104	-54.78
850.279	49.66
850.454	-22.02
850.63	45.57
850.805	27.14
850.98	14.85
851.155	-28.16
851.33	-34.3
851.505	0.51
851.681	90.62
851.856	-24.06
852.031	64
852.206	53.76
852.381	68.09
852.556	49.66
852.731	-22.02
852.906	-62.98
853.081	49.66
853.256	100.86
853.431	16.9
853.606	14.85
853.781	-67.07
853.956	-58.88
854.131	66.05
854.305	14.85
854.48	-42.5
854.655	57.86
854.83	23.04
855.005	10.75
855.18	80.38
855.354	23.04
855.529	27.14
855.704	-24.06
855.879	25.09
856.053	-34.3
856.228	72.19
856.403	-17.92
856.577	61.95
856.752	-22.02
856.926	31.23
857.101	-56.83
857.276	45.57
857.45	-32.26
857.625	70.14
857.799	39.42
857.974	-13.82
858.148	-13.82
858.323	39.42
858.497	-9.73
858.672	16.9
858.846	14.85
859.02	72.19
859.195	-32.26
859.369	6.66
859.543	51.71
859.718	-11.78
859.892	57.86
860.066	59.9
860.241	-38.4
860.415	-42.5
860.589	31.23
860.763	-17.92
860.938	23.04
861.112	23.04
861.286	-34.3
861.46	-15.87
861.634	-1.54
861.808	49.66
861.982	-9.73
862.157	47.62
862.331	-54.78
862.505	8.7
862.679	-26.11
862.853	-15.87
863.027	-56.83
863.201	84.48
863.375	-5.63
863.549	0.51
863.722	-46.59
863.896	82.43
864.07	4.61
864.244	6.66
864.418	80.38
864.592	51.71
864.766	-7.68
864.939	-105.98
865.113	-9.73
865.287	25.09
865.461	-9.73
865.634	25.09
865.808	-50.69
865.982	27.14
866.156	-11.78
866.329	-5.63
866.503	18.94
866.676	64
866.85	-42.5
867.024	-15.87
867.197	64
867.371	6.66
867.544	2.56
867.718	-42.5
867.891	43.52
868.065	-32.26
868.238	-50.69
868.412	6.66
868.585	14.85
868.759	0.51
868.932	-56.83
869.105	-36.35
869.279	-26.11
869.452	-17.92
869.625	72.19
869.799	-7.68
869.972	-42.5
870.145	37.38
870.319	4.61
870.492	33.28
870.665	-36.35
870.838	-24.06
871.011	-46.59
871.185	-26.11
871.358	80.38
871.531	35.33
871.704	-22.02
871.877	-48.64
872.05	-38.4
872.223	-9.73
872.396	-26.11
872.569	31.23
872.742	-91.65
872.915	14.85
873.088	18.94
873.261	6.66
873.434	-32.26
873.607	23.04
873.78	64
873.953	45.57
874.126	10.75
874.299	-9.73
874.471	20.99
874.644	55.81
874.817	27.14
874.99	16.9
875.163	-75.26
875.335	8.7
875.508	-26.11
875.681	6.66
875.853	-67.07
876.026	-1.54
876.199	14.85
876.371	31.23
876.544	14.85
876.717	-9.73
876.889	-46.59
877.062	-15.87
877.234	-22.02
877.407	-13.82
877.579	-13.82
877.752	16.9
877.924	104.96
878.097	27.14
878.269	-22.02
878.442	66.05
878.614	14.85
878.786	57.86
878.959	51.71
879.131	-5.63
879.303	-69.12
879.476	16.9
879.648	-40.45
879.82	8.7
879.993	-38.4
880.165	-1.54
880.337	-62.98
880.509	96.77
880.681	-75.26
880.854	8.7
881.026	43.52
881.198	133.63
881.37	-34.3
881.542	16.9
881.714	23.04
881.886	61.95
882.058	-58.88
882.23	47.62
882.402	39.42
882.574	-22.02
882.746	47.62
882.918	33.28
883.09	39.42
883.262	10.75
883.434	16.9
883.606	-67.07
883.778	23.04
883.95	-9.73
884.122	-9.73
884.293	55.81
884.465	-30.21
884.637	-1.54
884.809	-28.16
884.98	-28.16
885.152	-1.54
885.324	-22.02
885.496	-52.74
885.667	-50.69
885.839	-48.64
886.011	74.24
886.182	20.99
886.354	-24.06
886.525	64
886.697	-3.58
886.869	-17.92
887.04	-48.64
887.212	10.75
887.383	55.81
887.555	8.7
887.726	-9.73
887.897	-13.82
888.069	59.9
888.24	14.85
888.412	-30.21
888.583	-17.92
888.754	6.66
888.926	-71.17
889.097	-9.73
889.268	-48.64
889.44	6.66
889.611	-30.21
889.782	-114.17
889.953	-22.02
890.125	-83.45
890.296	12.8
890.467	-42.5
890.638	31.23
890.809	-15.87
890.98	-1.54
891.151	14.85
891.323	35.33
891.494	31.23
891.665	-32.26
891.836	-9.73
892.007	-69.12
892.178	-73.21
892.349	-73.21
892.52	10.75
892.691	-17.92
892.862	-60.93
893.032	-75.26
893.203	25.09
893.374	-26.11
893.545	23.04
893.716	23.04
893.887	-26.11
894.057	43.52
894.228	-77.31
894.399	-48.64
894.57	18.94
894.74	-128.51
894.911	88.57
895.082	-42.5
895.253	23.04
895.423	14.85
895.594	39.42
895.764	-5.63
895.935	-34.3
896.106	-62.98
896.276	-38.4
896.447	-34.3
896.617	-9.73
896.788	-32.26
896.958	-13.82
897.129	27.14
897.299	-89.6
897.47	-9.73
897.64	55.81
897.81	64
897.981	-30.21
898.151	-19.97
898.322	-7.68
898.492	23.04
898.662	-42.5
898.832	-1.54
899.003	43.52
899.173	-32.26
899.343	31.23
899.513	-32.26
