Data from USB4F104151__134__14-31-43-178.txt Node

Date: Thu Mar 13 14:31:43 EDT 2025
User: louis
Spectrometer: USB4F10415
Trigger mode: 4
Integration Time (sec): 2.500000E-2
Scans to average: 1
Electric dark correction enabled: true
Nonlinearity correction enabled: false
Boxcar width: 0
XAxis mode: Wavelengths
Number of Pixels in Spectrum: 3648
>>>>>Begin Spectral Data<<<<<
178.204	-86.01
178.424	-86.01
178.644	-86.01
178.864	-55.3
179.084	-90.11
179.304	4.1
179.524	-38.91
179.744	-30.72
179.964	43.01
180.184	-24.58
180.404	-40.96
180.624	-16.38
180.844	69.63
181.064	-40.96
181.283	20.48
181.503	2.05
181.723	53.25
181.943	-73.73
182.163	180.22
182.383	40.96
182.602	34.82
182.822	110.59
183.042	90.11
183.262	-57.34
183.482	57.34
183.701	98.3
183.921	49.15
184.141	28.67
184.361	106.49
184.58	-36.86
184.8	61.44
185.02	102.4
185.239	45.06
185.459	61.44
185.679	59.39
185.898	40.96
186.118	88.06
186.338	-6.14
186.557	53.25
186.777	2.05
186.997	0
187.216	65.54
187.436	118.78
187.655	98.3
187.875	49.15
188.095	77.82
188.314	75.77
188.534	110.59
188.753	28.67
188.973	75.77
189.192	81.92
189.412	75.77
189.631	-6.14
189.851	26.62
190.07	118.78
190.29	40.96
190.509	6.14
190.729	-53.25
190.948	53.25
191.168	215.04
191.387	112.64
191.607	8.19
191.826	-12.29
192.045	16.38
192.265	32.77
192.484	36.86
192.704	32.77
192.923	63.49
193.142	135.17
193.362	104.45
193.581	32.77
193.8	67.58
194.02	36.86
194.239	24.58
194.458	-36.86
194.678	100.35
194.897	22.53
195.116	36.86
195.335	75.77
195.555	79.87
195.774	69.63
195.993	32.77
196.212	57.34
196.432	32.77
196.651	34.82
196.87	26.62
197.089	98.3
197.308	40.96
197.528	26.62
197.747	-43.01
197.966	10.24
198.185	51.2
198.404	36.86
198.623	81.92
198.842	40.96
199.062	-2.05
199.281	83.97
199.5	-16.38
199.719	40.96
199.938	81.92
200.157	34.82
200.376	94.21
200.595	102.4
200.814	73.73
201.033	16.38
201.252	65.54
201.471	16.38
201.69	63.49
201.909	32.77
202.128	8.19
202.347	34.82
202.566	-14.34
202.785	16.38
203.004	-20.48
203.223	81.92
203.442	26.62
203.661	77.82
203.879	90.11
204.098	106.49
204.317	-2.05
204.536	118.78
204.755	51.2
204.974	-12.29
205.193	32.77
205.411	137.21
205.63	16.38
205.849	86.01
206.068	40.96
206.287	69.63
206.505	51.2
206.724	-4.1
206.943	16.38
207.162	34.82
207.381	24.58
207.599	36.86
207.818	53.25
208.037	-20.48
208.255	0
208.474	8.19
208.693	65.54
208.911	30.72
209.13	8.19
209.349	57.34
209.567	26.62
209.786	90.11
210.005	40.96
210.223	-8.19
210.442	40.96
210.661	49.15
210.879	94.21
211.098	0
211.316	36.86
211.535	122.88
211.753	-30.72
211.972	88.06
212.191	10.24
212.409	67.58
212.628	77.82
212.846	57.34
213.065	32.77
213.283	108.54
213.502	6.14
213.72	-16.38
213.938	32.77
214.157	69.63
214.375	57.34
214.594	-8.19
214.812	71.68
215.031	100.35
215.249	69.63
215.467	8.19
215.686	24.58
215.904	139.26
216.122	57.34
216.341	139.26
216.559	94.21
216.778	32.77
216.996	92.16
217.214	-6.14
217.432	53.25
217.651	32.77
217.869	71.68
218.087	124.93
218.306	-24.58
218.524	36.86
218.742	34.82
218.96	65.54
219.179	65.54
219.397	16.38
219.615	59.39
219.833	-8.19
220.051	67.58
220.27	67.58
220.488	194.56
220.706	139.26
220.924	-22.53
221.142	43.01
221.36	65.54
221.578	90.11
221.796	0
222.015	71.68
222.233	83.97
222.451	51.2
222.669	16.38
222.887	83.97
223.105	53.25
223.323	45.06
223.541	12.29
223.759	57.34
223.977	18.43
224.195	94.21
224.413	26.62
224.631	98.3
224.849	30.72
225.067	122.88
225.285	43.01
225.503	106.49
225.721	0
225.939	-16.38
226.157	4.1
226.375	67.58
226.592	36.86
226.81	20.48
227.028	36.86
227.246	83.97
227.464	4.1
227.682	26.62
227.9	34.82
228.117	24.58
228.335	-38.91
228.553	32.77
228.771	43.01
228.989	86.01
229.206	75.77
229.424	22.53
229.642	-28.67
229.86	83.97
230.077	90.11
230.295	45.06
230.513	63.49
230.731	16.38
230.948	92.16
231.166	92.16
231.384	43.01
231.601	20.48
231.819	124.93
232.037	61.44
232.254	32.77
232.472	26.62
232.689	57.34
232.907	81.92
233.125	102.4
233.342	-4.1
233.56	73.73
233.777	32.77
233.995	49.15
234.213	151.55
234.43	49.15
234.648	32.77
234.865	100.35
235.083	2.05
235.3	-57.34
235.518	34.82
235.735	92.16
235.953	57.34
236.17	6.14
236.388	-10.24
236.605	83.97
236.822	65.54
237.04	43.01
237.257	92.16
237.475	28.67
237.692	67.58
237.909	20.48
238.127	73.73
238.344	49.15
238.562	2.05
238.779	4.1
238.996	-40.96
239.214	57.34
239.431	157.69
239.648	0
239.865	90.11
240.083	100.35
240.3	83.97
240.517	51.2
240.735	102.4
240.952	49.15
241.169	16.38
241.386	75.77
241.603	40.96
241.821	24.58
242.038	57.34
242.255	-4.1
242.472	28.67
242.689	77.82
242.907	45.06
243.124	32.77
243.341	65.54
243.558	32.77
243.775	10.24
243.992	-14.34
244.209	104.45
244.426	92.16
244.643	38.91
244.86	-8.19
245.078	73.73
245.295	106.49
245.512	45.06
245.729	-38.91
245.946	40.96
246.163	10.24
246.38	83.97
246.597	20.48
246.814	24.58
247.031	24.58
247.248	8.19
247.464	18.43
247.681	-22.53
247.898	6.14
248.115	65.54
248.332	-26.62
248.549	71.68
248.766	94.21
248.983	67.58
249.2	57.34
249.417	40.96
249.633	-65.53
249.85	81.92
250.067	10.24
250.284	81.92
250.501	45.06
250.717	40.96
250.934	-18.43
251.151	61.44
251.368	-88.06
251.585	90.11
251.801	63.49
252.018	4.1
252.235	73.73
252.451	8.19
252.668	71.68
252.885	10.24
253.102	57.34
253.318	24.58
253.535	6.14
253.752	-38.91
253.968	28.67
254.185	32.77
254.401	26.62
254.618	67.58
254.835	65.54
255.051	51.2
255.268	20.48
255.484	90.11
255.701	20.48
255.917	8.19
256.134	40.96
256.351	79.87
256.567	-24.58
256.784	34.82
257	20.48
257.217	51.2
257.433	67.58
257.65	40.96
257.866	133.12
258.082	-8.19
258.299	18.43
258.515	61.44
258.732	65.54
258.948	-12.29
259.165	75.77
259.381	-43.01
259.597	18.43
259.814	-14.34
260.03	-14.34
260.246	43.01
260.463	34.82
260.679	94.21
260.895	-8.19
261.112	16.38
261.328	40.96
261.544	22.53
261.761	157.69
261.977	124.93
262.193	-6.14
262.409	57.34
262.626	59.39
262.842	-32.77
263.058	16.38
263.274	108.54
263.49	49.15
263.707	110.59
263.923	51.2
264.139	36.86
264.355	28.67
264.571	81.92
264.787	53.25
265.004	106.49
265.22	36.86
265.436	8.19
265.652	26.62
265.868	83.97
266.084	16.38
266.3	14.34
266.516	0
266.732	57.34
266.948	49.15
267.164	24.58
267.38	20.48
267.596	106.49
267.812	131.07
268.028	59.39
268.244	-51.2
268.46	116.73
268.676	45.06
268.892	-16.38
269.108	88.06
269.324	8.19
269.54	-14.34
269.756	90.11
269.972	-32.77
270.188	8.19
270.403	24.58
270.619	114.69
270.835	118.78
271.051	34.82
271.267	20.48
271.483	-6.14
271.698	32.77
271.914	77.82
272.13	-36.86
272.346	-8.19
272.562	53.25
272.777	73.73
272.993	63.49
273.209	67.58
273.425	38.91
273.64	77.82
273.856	83.97
274.072	24.58
274.287	16.38
274.503	100.35
274.719	53.25
274.934	24.58
275.15	75.77
275.366	45.06
275.581	10.24
275.797	73.73
276.012	8.19
276.228	-20.48
276.444	73.73
276.659	106.49
276.875	-10.24
277.09	-8.19
277.306	71.68
277.521	-14.34
277.737	-8.19
277.952	61.44
278.168	49.15
278.383	-8.19
278.599	110.59
278.814	57.34
279.03	-18.43
279.245	114.69
279.461	47.1
279.676	114.69
279.892	-22.53
280.107	-16.38
280.322	32.77
280.538	12.29
280.753	-12.29
280.969	120.83
281.184	92.16
281.399	73.73
281.615	94.21
281.83	83.97
282.045	55.3
282.26	49.15
282.476	-12.29
282.691	43.01
282.906	43.01
283.122	-20.48
283.337	-28.67
283.552	100.35
283.767	20.48
283.983	43.01
284.198	53.25
284.413	112.64
284.628	100.35
284.843	59.39
285.058	90.11
285.274	61.44
285.489	45.06
285.704	94.21
285.919	73.73
286.134	45.06
286.349	-20.48
286.564	43.01
286.779	14.34
286.995	26.62
287.21	36.86
287.425	88.06
287.64	-40.96
287.855	28.67
288.07	-36.86
288.285	71.68
288.5	81.92
288.715	26.62
288.93	47.1
289.145	0
289.36	67.58
289.575	51.2
289.79	18.43
290.004	-43.01
290.219	4.1
290.434	40.96
290.649	-20.48
290.864	75.77
291.079	34.82
291.294	49.15
291.509	0
291.724	116.73
291.938	98.3
292.153	59.39
292.368	43.01
292.583	79.87
292.798	65.54
293.012	40.96
293.227	51.2
293.442	-8.19
293.657	67.58
293.871	81.92
294.086	26.62
294.301	67.58
294.516	40.96
294.73	57.34
294.945	16.38
295.16	63.49
295.374	100.35
295.589	51.2
295.804	8.19
296.018	81.92
296.233	67.58
296.447	83.97
296.662	-24.58
296.877	69.63
297.091	49.15
297.306	106.49
297.52	30.72
297.735	49.15
297.949	24.58
298.164	75.77
298.378	75.77
298.593	4.1
298.807	2.05
299.022	-24.58
299.236	77.82
299.451	12.29
299.665	0
299.88	-40.96
300.094	-14.34
300.309	90.11
300.523	133.12
300.737	24.58
300.952	53.25
301.166	-14.34
301.381	75.77
301.595	-8.19
301.809	4.1
302.024	36.86
302.238	38.91
302.452	94.21
302.667	38.91
302.881	114.69
303.095	114.69
303.309	49.15
303.524	40.96
303.738	77.82
303.952	-6.14
304.166	71.68
304.381	49.15
304.595	4.1
304.809	79.87
305.023	34.82
305.237	43.01
305.452	-8.19
305.666	114.69
305.88	77.82
306.094	90.11
306.308	65.54
306.522	106.49
306.736	24.58
306.95	114.69
307.164	73.73
307.379	8.19
307.593	96.25
307.807	114.69
308.021	51.2
308.235	43.01
308.449	81.92
308.663	40.96
308.877	112.64
309.091	10.24
309.305	-22.53
309.519	-12.29
309.733	114.69
309.947	26.62
310.161	49.15
310.374	2.05
310.588	40.96
310.802	-36.86
311.016	45.06
311.23	22.53
311.444	151.55
311.658	63.49
311.872	98.3
312.085	26.62
312.299	81.92
312.513	65.54
312.727	36.86
312.941	14.34
313.154	73.73
313.368	73.73
313.582	2.05
313.796	57.34
314.009	49.15
314.223	108.54
314.437	47.1
314.651	151.55
314.864	22.53
315.078	92.16
315.292	6.14
315.505	28.67
315.719	118.78
315.933	-14.34
316.146	108.54
316.36	73.73
316.573	16.38
316.787	47.1
317.001	-30.72
317.214	24.58
317.428	32.77
317.641	2.05
317.855	-8.19
318.068	69.63
318.282	34.82
318.495	139.26
318.709	57.34
318.922	63.49
319.136	96.25
319.349	104.45
319.563	28.67
319.776	40.96
319.99	-40.96
320.203	133.12
320.417	77.82
320.63	57.34
320.843	34.82
321.057	53.25
321.27	81.92
321.483	63.49
321.697	77.82
321.91	100.35
322.124	45.06
322.337	77.82
322.55	83.97
322.763	65.54
322.977	65.54
323.19	4.1
323.403	40.96
323.617	65.54
323.83	-14.34
324.043	57.34
324.256	61.44
324.469	-4.1
324.683	45.06
324.896	65.54
325.109	65.54
325.322	-40.96
325.535	169.98
325.748	86.01
325.962	57.34
326.175	69.63
326.388	90.11
326.601	51.2
326.814	8.19
327.027	-30.72
327.24	110.59
327.453	8.19
327.666	139.26
327.879	118.78
328.092	32.77
328.305	45.06
328.518	28.67
328.731	114.69
328.944	49.15
329.157	90.11
329.37	40.96
329.583	90.11
329.796	28.67
330.009	26.62
330.222	100.35
330.435	69.63
330.648	114.69
330.861	18.43
331.073	43.01
331.286	43.01
331.499	40.96
331.712	53.25
331.925	-38.91
332.138	4.1
332.35	108.54
332.563	57.34
332.776	51.2
332.989	106.49
333.202	90.11
333.414	47.1
333.627	67.58
333.84	61.44
334.053	57.34
334.265	69.63
334.478	40.96
334.691	83.97
334.903	45.06
335.116	-6.14
335.329	16.38
335.541	20.48
335.754	141.31
335.966	24.58
336.179	38.91
336.392	32.77
336.604	57.34
336.817	24.58
337.029	57.34
337.242	10.24
337.454	67.58
337.667	57.34
337.88	65.54
338.092	77.82
338.305	141.31
338.517	2.05
338.729	110.59
338.942	116.73
339.154	8.19
339.367	57.34
339.579	73.73
339.792	75.77
340.004	83.97
340.217	-8.19
340.429	83.97
340.641	90.11
340.854	0
341.066	53.25
341.278	71.68
341.491	157.69
341.703	57.34
341.915	40.96
342.128	75.77
342.34	92.16
342.552	81.92
342.764	-6.14
342.977	-6.14
343.189	43.01
343.401	102.4
343.613	-40.96
343.826	149.5
344.038	90.11
344.25	22.53
344.462	2.05
344.674	-30.72
344.886	-67.58
345.099	75.77
345.311	40.96
345.523	45.06
345.735	18.43
345.947	77.82
346.159	30.72
346.371	75.77
346.583	-30.72
346.795	92.16
347.007	2.05
347.219	65.54
347.431	32.77
347.643	45.06
347.855	24.58
348.067	100.35
348.279	16.38
348.491	20.48
348.703	81.92
348.915	57.34
349.127	57.34
349.339	30.72
349.551	59.39
349.763	61.44
349.975	34.82
350.187	32.77
350.399	102.4
350.61	20.48
350.822	57.34
351.034	79.87
351.246	122.88
351.458	131.07
351.669	-16.38
351.881	139.26
352.093	4.1
352.305	8.19
352.517	57.34
352.728	122.88
352.94	73.73
353.152	69.63
353.363	-14.34
353.575	106.49
353.787	24.58
353.999	28.67
354.21	83.97
354.422	32.77
354.633	49.15
354.845	174.08
355.057	-8.19
355.268	135.17
355.48	61.44
355.692	0
355.903	114.69
356.115	73.73
356.326	8.19
356.538	86.01
356.749	24.58
356.961	75.77
357.172	26.62
357.384	55.3
357.595	149.5
357.807	90.11
358.018	81.92
358.23	40.96
358.441	106.49
358.653	-38.91
358.864	51.2
359.075	-38.91
359.287	43.01
359.498	67.58
359.709	-16.38
359.921	16.38
360.132	73.73
360.344	49.15
360.555	57.34
360.766	45.06
360.977	18.43
361.189	110.59
361.4	-4.1
361.611	83.97
361.823	61.44
362.034	38.91
362.245	77.82
362.456	155.65
362.667	81.92
362.879	53.25
363.09	73.73
363.301	34.82
363.512	0
363.723	8.19
363.935	100.35
364.146	106.49
364.357	61.44
364.568	34.82
364.779	-14.34
364.99	81.92
365.201	51.2
365.412	122.88
365.623	-12.29
365.834	45.06
366.045	59.39
366.256	122.88
366.467	43.01
366.678	43.01
366.889	49.15
367.1	18.43
367.311	106.49
367.522	-40.96
367.733	81.92
367.944	100.35
368.155	67.58
368.366	45.06
368.577	114.69
368.788	108.54
368.999	32.77
369.209	14.34
369.42	131.07
369.631	96.25
369.842	126.97
370.053	40.96
370.264	102.4
370.474	0
370.685	98.3
370.896	88.06
371.107	38.91
371.317	28.67
371.528	0
371.739	83.97
371.95	67.58
372.16	88.06
372.371	26.62
372.582	157.69
372.792	43.01
373.003	116.73
373.214	20.48
373.424	57.34
373.635	16.38
373.846	204.8
374.056	43.01
374.267	65.54
374.477	69.63
374.688	90.11
374.898	45.06
375.109	96.25
375.319	86.01
375.53	34.82
375.74	90.11
375.951	73.73
376.161	98.3
376.372	94.21
376.582	40.96
376.793	112.64
377.003	65.54
377.214	-6.14
377.424	38.91
377.635	34.82
377.845	63.49
378.055	77.82
378.266	49.15
378.476	8.19
378.686	67.58
378.897	69.63
379.107	73.73
379.317	114.69
379.528	90.11
379.738	118.78
379.948	-12.29
380.158	81.92
380.369	65.54
380.579	108.54
380.789	73.73
380.999	57.34
381.21	71.68
381.42	174.08
381.63	131.07
381.84	57.34
382.05	83.97
382.261	57.34
382.471	90.11
382.681	90.11
382.891	79.87
383.101	98.3
383.311	51.2
383.521	83.97
383.731	81.92
383.941	49.15
384.151	75.77
384.361	81.92
384.571	51.2
384.781	69.63
384.991	75.77
385.201	165.89
385.411	90.11
385.621	51.2
385.831	110.59
386.041	116.73
386.251	65.54
386.461	73.73
386.671	38.91
386.881	65.54
387.091	32.77
387.301	40.96
387.511	2.05
387.72	88.06
387.93	75.77
388.14	94.21
388.35	118.78
388.56	90.11
388.769	49.15
388.979	65.54
389.189	57.34
389.399	34.82
389.609	51.2
389.818	122.88
390.028	73.73
390.238	8.19
390.447	92.16
390.657	163.84
390.867	69.63
391.076	49.15
391.286	81.92
391.496	73.73
391.705	45.06
391.915	163.84
392.125	73.73
392.334	75.77
392.544	149.5
392.753	100.35
392.963	137.21
393.172	47.1
393.382	114.69
393.591	174.08
393.801	65.54
394.01	69.63
394.22	151.55
394.429	106.49
394.639	43.01
394.848	73.73
395.058	102.4
395.267	129.02
395.477	122.88
395.686	94.21
395.895	137.21
396.105	174.08
396.314	88.06
396.524	110.59
396.733	118.78
396.942	180.22
397.152	124.93
397.361	163.84
397.57	57.34
397.78	120.83
397.989	174.08
398.198	237.56
398.407	143.36
398.617	53.25
398.826	92.16
399.035	174.08
399.244	90.11
399.453	155.65
399.663	118.78
399.872	143.36
400.081	83.97
400.29	155.65
400.499	102.4
400.708	151.55
400.917	126.97
401.127	79.87
401.336	86.01
401.545	223.23
401.754	110.59
401.963	149.5
402.172	126.97
402.381	77.82
402.59	163.84
402.799	126.97
403.008	155.65
403.217	198.65
403.426	172.03
403.635	180.22
403.844	147.45
404.053	184.32
404.262	110.59
404.471	122.88
404.68	145.41
404.888	186.37
405.097	135.17
405.306	200.7
405.515	212.99
405.724	131.07
405.933	227.32
406.142	196.61
406.35	249.85
406.559	204.8
406.768	229.37
406.977	247.8
407.185	294.91
407.394	188.41
407.603	182.27
407.812	190.46
408.02	262.14
408.229	256
408.438	258.04
408.646	204.8
408.855	256
409.064	204.8
409.272	253.95
409.481	319.48
409.69	313.34
409.898	335.87
410.107	368.63
410.315	331.77
410.524	307.2
410.733	350.2
410.941	329.72
411.15	419.83
411.358	471.03
411.567	559.1
411.775	372.73
411.984	434.17
412.192	477.18
412.401	507.9
412.609	583.67
412.818	542.71
413.026	530.42
413.234	606.2
413.443	575.48
413.651	499.7
413.86	561.14
414.068	688.12
414.276	671.73
414.485	679.93
414.693	733.17
414.901	796.66
415.11	724.98
415.318	751.6
415.526	774.13
415.734	901.11
415.943	870.39
416.151	851.96
416.359	802.8
416.567	856.05
416.776	1007.6
416.984	1040.37
417.192	1015.79
417.4	1066.99
417.608	1120.24
417.817	1007.6
418.025	1255.4
418.233	1279.98
418.441	1191.92
418.649	1204.21
418.857	1378.28
419.065	1359.85
419.273	1355.76
419.481	1433.58
419.689	1560.55
419.897	1535.98
420.105	1687.53
420.313	1726.44
420.521	1837.03
420.729	1787.88
420.937	1810.4
421.145	1785.83
421.353	2015.2
421.561	2146.27
421.769	2146.27
421.977	2285.53
422.185	2220
422.393	2375.64
422.601	2312.16
422.809	2426.84
423.017	2490.33
423.224	2557.91
423.432	2707.41
423.64	2828.24
423.848	2869.2
424.056	2746.33
424.263	3010.51
424.471	3024.85
424.679	3192.78
424.887	3170.26
425.094	3274.7
425.302	3350.48
425.51	3481.55
425.718	3706.82
425.925	3753.93
426.133	3731.4
426.341	3964.87
426.548	4140.99
426.756	4147.14
426.964	4095.94
427.171	4399.04
427.379	4458.43
427.586	4681.66
427.794	4605.88
428.001	4966.32
428.209	5099.44
428.417	4900.79
428.624	5605.29
428.832	5476.27
429.039	5431.21
429.247	5416.88
429.454	5953.45
429.662	6399.9
429.869	6059.94
430.076	6418.33
430.284	6004.64
430.491	6459.29
430.699	6731.67
430.906	6676.38
431.114	6829.98
431.321	7151.51
431.528	7217.04
431.736	7751.56
431.943	8040.33
432.15	7718.79
432.358	7866.25
432.565	8253.31
432.772	8136.58
432.979	8679.29
433.187	8836.99
433.394	8638.33
433.601	9617.26
433.808	9416.56
434.016	9478
434.223	9879.4
434.43	10510.18
434.637	10379.11
434.844	11052.89
435.052	10956.63
435.259	11040.6
435.466	11081.56
435.673	10960.73
435.88	11657.04
436.087	12222.28
436.294	12175.17
436.501	11953.99
436.708	12285.76
436.915	12740.41
437.122	13217.59
437.329	13098.81
437.537	13696.81
437.743	13737.77
437.95	13559.6
438.157	14354.21
438.364	14774.05
438.571	14921.5
438.778	14997.28
438.985	16187.14
439.192	15589.14
439.399	16283.4
439.606	15744.78
439.813	16756.48
440.02	17467.13
440.227	17297.14
440.433	17264.38
440.64	17729.27
440.847	17491.7
441.054	18116.33
441.261	19185.37
441.467	18806.5
441.674	19416.79
441.881	20002.51
442.088	19746.51
442.294	20047.57
442.501	20246.22
442.708	20797.12
442.914	21399.23
443.121	22050.48
443.328	21620.41
443.534	23344.8
443.741	22894.24
443.948	22374.06
444.154	23846.55
444.361	23850.64
444.568	24231.57
444.774	23948.95
444.981	24176.27
445.187	24872.58
445.394	26095.22
445.6	25589.37
445.807	28048.98
446.013	26824.29
446.22	27412.06
446.426	28552.78
446.633	28597.84
446.839	29470.27
447.046	28276.3
447.252	30015.03
447.459	30021.17
447.665	29697.59
447.871	31434.27
448.078	32640.53
448.284	31225.38
448.491	31766.04
448.697	32988.68
448.903	33560.06
449.11	33791.48
449.316	33334.79
449.522	33682.94
449.728	34674.16
449.935	34706.93
450.141	34678.25
450.347	35712.48
450.553	34498.03
450.76	35059.18
450.966	36077.02
451.172	35941.85
451.378	36492.76
451.584	36050.39
451.791	36730.32
451.997	36703.7
452.203	37152.2
452.409	37373.38
452.615	36859.34
452.821	35788.25
453.027	35081.7
453.233	37367.24
453.44	35296.74
453.646	35972.57
453.852	35902.94
454.058	36615.63
454.264	35536.35
454.47	36171.22
454.676	35378.66
454.882	36679.12
455.088	33476.1
455.294	33887.74
455.5	34305.52
455.705	34665.97
455.911	33000.97
456.117	32722.44
456.323	31966.74
456.529	30586.41
456.735	31731.23
456.941	30721.58
457.147	30484.01
457.352	29304.38
457.558	29060.68
457.764	29226.56
457.97	28704.33
458.176	28323.41
458.381	28036.69
458.587	26719.85
458.793	26664.55
458.999	25190.02
459.204	26986.08
459.41	26300.01
459.616	24743.56
459.821	24620.68
460.027	24493.71
460.233	23547.54
460.438	22851.24
460.644	22855.33
460.85	21823.15
461.055	21384.89
461.261	21563.06
461.466	19896.02
461.672	19214.04
461.878	20543.17
462.083	19011.29
462.289	18628.32
462.494	18648.8
462.7	17755.89
462.905	17329.91
463.111	17735.41
463.316	17905.39
463.522	17700.59
463.727	17624.82
463.932	17596.15
464.138	17280.76
464.343	17344.25
464.549	16748.29
464.754	17587.96
464.959	17118.97
465.165	17168.12
465.37	16262.92
465.575	15763.22
465.781	16350.98
465.986	16549.64
466.191	15986.44
466.397	15640.34
466.602	14763.81
466.807	15582.99
467.012	15535.89
467.218	15357.72
467.423	15132.44
467.628	15228.7
467.833	15980.3
468.038	15075.1
468.244	14724.9
468.449	15435.54
468.654	14835.49
468.859	14845.73
469.064	14757.66
469.269	14061.35
469.474	14065.45
469.679	14475.04
469.885	14016.3
470.09	14423.84
470.295	14071.59
470.5	13741.87
470.705	13950.76
470.91	13498.16
471.115	13389.62
471.32	13422.39
471.525	13373.24
471.73	13053.75
471.935	13190.97
472.139	12539.71
472.344	12797.76
472.549	12711.74
472.754	12609.34
472.959	12410.69
473.164	11984.71
473.369	11992.9
473.574	11962.19
473.778	12388.16
473.983	11761.48
474.188	12095.3
474.393	11454.29
474.598	11464.53
474.802	11198.29
475.007	11265.88
475.212	11212.63
475.417	10749.79
475.621	10893.15
475.826	10968.92
476.031	10784.6
476.235	10471.26
476.44	10723.16
476.645	10393.44
476.849	10631.01
477.054	10272.61
477.259	10135.4
477.463	10252.13
477.668	10041.19
477.872	10065.77
478.077	9844.59
478.282	9768.81
478.486	9723.76
478.691	9265.01
478.895	9486.19
479.1	9338.74
479.304	9742.19
479.509	9064.31
479.713	9412.46
479.918	9086.84
480.122	8910.71
480.326	9027.45
480.531	9080.69
480.735	9037.69
480.94	8843.13
481.144	9328.5
481.348	8798.07
481.553	8810.36
481.757	8695.68
481.961	8763.26
482.166	8970.1
482.37	8900.47
482.574	8646.52
482.778	8621.95
482.983	8882.04
483.187	8587.13
483.391	8791.93
483.595	8732.54
483.8	8660.86
484.004	8667
484.208	8798.07
484.412	8490.88
484.616	8814.46
484.821	8734.59
485.025	8546.17
485.229	8730.49
485.433	8548.22
485.637	8601.47
485.841	8421.25
486.045	8486.78
486.249	8765.31
486.453	8462.21
486.657	8492.93
486.861	8667
487.065	8363.9
487.269	8576.89
487.473	8486.78
487.677	8703.87
487.881	8791.93
488.085	8298.37
488.289	8404.86
488.493	8415.1
488.697	8535.93
488.901	8617.85
489.105	8486.78
489.309	8443.78
489.512	8658.81
489.716	8701.82
489.92	8585.08
490.124	8585.08
490.328	8734.59
490.531	8566.65
490.735	8601.47
490.939	8669.05
491.143	8667
491.346	8603.52
491.55	8761.21
491.754	8750.97
491.958	8873.85
492.161	8593.28
492.365	8726.39
492.569	8800.12
492.772	8857.46
492.976	9037.69
493.18	8843.13
493.383	8908.66
493.587	8925.05
493.79	9154.42
493.994	9125.75
494.197	9142.13
494.401	9095.03
494.605	8912.76
494.808	9232.24
495.012	9181.04
495.215	9441.14
495.419	9422.7
495.622	9346.93
495.825	9619.31
496.029	9422.7
496.232	9852.78
496.436	9547.63
496.639	9805.67
496.843	9684.84
497.046	10127.21
497.249	10297.19
497.453	10198.88
497.656	10205.03
497.859	10366.82
498.063	10375.01
498.266	10338.15
498.469	10436.45
498.673	10430.3
498.876	10678.11
499.079	11063.13
499.282	10870.62
499.485	11097.94
499.689	11235.16
499.892	11149.14
500.095	11296.6
500.298	11386.71
500.501	11421.52
500.705	11566.93
500.908	11724.62
501.111	11919.18
501.314	11945.8
501.517	11935.56
501.72	12353.35
501.923	12265.28
502.126	12513.09
502.329	12777.28
502.532	12511.04
502.735	12789.56
502.938	12812.09
503.141	13082.42
503.344	13322.04
503.547	13352.76
503.75	13387.57
503.953	13426.48
504.156	13770.54
504.359	13688.62
504.562	13741.87
504.765	14270.25
504.968	14036.78
505.17	14425.89
505.373	14364.45
505.576	14692.13
505.779	14825.25
505.982	14941.98
506.185	15228.7
506.387	15259.42
506.59	15200.02
506.793	15378.2
506.996	15408.92
507.198	16123.66
507.401	15972.11
507.604	16113.42
507.807	16490.24
508.009	16236.3
508.212	16377.61
508.415	16652.03
508.617	17020.67
508.82	17153.79
509.022	16926.46
509.225	17309.43
509.428	17571.57
509.63	17768.18
509.833	17716.98
510.035	17893.1
510.238	18032.36
510.44	18392.81
510.643	18587.36
510.845	18755.3
511.048	18673.38
511.25	18863.84
511.453	19087.07
511.655	19705.56
511.858	19308.25
512.06	19539.67
512.262	20029.13
512.465	19754.71
512.667	20039.37
512.87	20211.4
513.072	20426.44
513.274	20647.62
513.477	20987.58
513.679	21053.12
513.881	21515.96
514.084	21761.72
514.286	21745.33
514.488	21687.99
514.69	22234.8
514.893	22337.2
515.095	22351.53
515.297	22591.14
515.499	22701.73
515.701	23109.28
515.904	23215.77
516.106	23289.5
516.308	23389.85
516.51	23717.53
516.712	23883.41
516.914	24223.37
517.116	24622.73
517.318	24489.61
517.52	24544.91
517.722	24546.95
517.925	25052.8
518.127	25355.9
518.329	25484.92
518.531	25106.05
518.733	25661.05
518.935	25652.86
519.136	25638.52
519.338	26248.82
519.54	26562.15
519.742	26285.68
519.944	26687.08
520.146	26840.68
520.348	27186.79
520.55	27180.64
520.752	27199.07
520.954	27932.25
521.155	27532.89
521.357	28130.9
521.559	28040.79
521.761	28223.06
521.963	28329.55
522.164	28563.02
522.366	28569.16
522.568	28405.33
522.77	28689.99
522.971	28767.82
523.173	28835.4
523.375	29267.52
523.576	29083.2
523.778	29052.48
523.98	29425.22
524.181	29365.82
524.383	29435.45
524.584	29795.9
524.786	30133.81
524.988	29527.61
525.189	29851.19
525.391	29947.45
525.592	30109.24
525.794	30285.36
525.995	30015.03
526.197	29857.34
526.398	30461.49
526.6	29980.21
526.801	30447.15
527.003	30541.36
527.204	30617.13
527.406	30404.14
527.607	30473.77
527.808	30836.27
528.01	30109.24
528.211	30641.71
528.412	30881.32
528.614	30457.39
528.815	30408.24
529.016	30639.66
529.218	30418.48
529.419	30959.14
529.62	30365.23
529.822	30572.08
530.023	30436.91
530.224	30459.44
530.425	30264.88
530.626	30213.68
530.828	30010.93
531.029	30641.71
531.23	30279.22
531.431	30441.01
531.632	30109.24
531.833	30486.06
532.035	30115.38
532.236	30135.86
532.437	30201.4
532.638	29728.31
532.839	30115.38
533.04	30092.85
533.241	29584.96
533.442	30426.67
533.643	30201.4
533.844	29810.23
534.045	29480.51
534.246	29783.61
534.447	29601.34
534.648	29525.57
534.849	29777.47
535.05	29269.57
535.251	29828.66
535.451	29320.77
535.652	29787.71
535.853	29550.14
536.054	29668.92
536.255	29570.62
536.456	29384.26
536.657	29392.45
536.857	29027.91
537.058	29480.51
537.259	29777.47
537.46	29234.75
537.66	29152.84
537.861	29251.14
538.062	29001.29
538.263	29296.19
538.463	28540.49
538.664	28886.6
538.865	29066.82
539.065	29044.29
539.266	28667.47
539.466	29283.91
539.667	28583.5
539.868	29361.73
540.068	28755.53
540.269	28702.28
540.469	28845.64
540.67	28503.63
540.87	28773.96
541.071	28747.34
541.271	28657.23
541.472	28657.23
541.672	28485.2
541.873	28282.45
542.073	28178
542.274	28687.95
542.474	28341.84
542.675	28470.86
542.875	28700.23
543.075	28368.46
543.276	28145.23
543.476	28489.29
543.676	28067.41
543.877	28591.69
544.077	28612.17
544.277	28325.46
544.478	28208.72
544.678	28563.02
544.878	28204.63
545.078	28483.15
545.279	28304.98
545.479	28110.42
545.679	28315.22
545.879	28446.29
546.079	28360.27
546.28	28466.77
546.48	27786.84
546.68	28032.6
546.88	27989.59
547.08	28165.71
547.28	28124.75
547.48	27856.47
547.68	28378.7
547.88	27932.25
548.081	28452.43
548.281	28180.05
548.481	28155.47
548.681	28077.65
548.881	28237.39
549.081	28102.23
549.28	28180.05
549.48	28360.27
549.68	28227.15
549.88	28798.54
550.08	28296.78
550.28	28520.01
550.48	28339.79
550.68	28384.85
550.88	28239.44
551.08	28325.46
551.279	28530.25
551.479	28065.36
551.679	28094.04
551.879	27987.54
552.079	28477.01
552.278	28178
552.478	28407.37
552.678	28573.26
552.878	28335.7
553.077	28345.94
553.277	28524.11
553.477	28933.7
553.676	28397.13
553.876	28765.77
554.076	28446.29
554.275	28657.23
554.475	28329.55
554.674	28847.69
554.874	28759.63
555.074	28530.25
555.273	28773.96
555.473	29021.77
555.672	28530.25
555.872	28636.75
556.071	28939.85
556.271	28733
556.47	28575.31
556.67	28573.26
556.869	28868.17
557.068	28798.54
557.268	28689.99
557.467	28458.57
557.667	28765.77
557.866	28810.82
558.065	28952.13
558.265	28761.67
558.464	28487.25
558.663	28896.84
558.863	28587.6
559.062	28913.22
559.261	28808.78
559.461	29310.53
559.66	28329.55
559.859	28921.41
560.058	28644.94
560.258	28874.31
560.457	28575.31
560.656	28984.9
560.855	28886.6
561.054	28853.83
561.253	29056.58
561.453	28689.99
561.652	28810.82
561.851	28958.28
562.05	29046.34
562.249	28456.53
562.448	28902.98
562.647	28722.76
562.846	28999.24
563.045	28900.94
563.244	28491.34
563.443	29302.34
563.642	28847.69
563.841	28270.16
564.04	28673.61
564.239	28915.27
564.438	28489.29
564.637	28751.43
564.836	28806.73
565.035	28552.78
565.234	28620.36
565.432	28532.3
565.631	28448.33
565.83	28573.26
566.029	28390.99
566.228	28601.93
566.427	28345.94
566.625	28528.2
566.824	28395.09
567.023	28374.61
567.222	28018.26
567.42	28366.42
567.619	28235.35
567.818	27940.44
568.016	27803.22
568.215	28327.5
568.414	27850.33
568.612	28282.45
568.811	27864.66
569.01	27991.64
569.208	27635.29
569.407	27850.33
569.605	27567.71
569.804	27629.15
570.002	27561.56
570.201	27645.53
570.4	26984.04
570.598	26943.08
570.797	27223.65
570.995	27194.98
571.193	26971.75
571.392	27057.76
571.59	26836.58
571.789	26908.26
571.987	26809.96
572.186	26887.78
572.384	26445.42
572.582	26717.8
572.781	26996.32
572.979	26482.28
573.177	26543.72
573.376	26981.99
573.574	26379.89
573.772	26478.19
573.971	26181.23
574.169	25945.72
574.367	25806.45
574.565	25988.72
574.763	25720.44
574.962	25757.3
575.16	25587.32
575.358	25757.3
575.556	25423.48
575.754	25788.02
575.952	25550.46
576.151	25773.69
576.349	25228.93
576.547	25118.34
576.745	25599.61
576.943	24974.98
577.141	25163.39
577.339	24931.97
577.537	25026.18
577.735	24917.64
577.933	24475.27
578.131	24903.3
578.329	24514.19
578.527	24608.39
578.725	24073.87
578.923	24495.75
579.121	24729.22
579.319	24485.51
579.516	24452.75
579.714	24102.54
579.912	24299.15
580.11	23838.36
580.308	24219.28
580.506	23946.9
580.704	23565.98
580.901	23795.35
581.099	23803.54
581.297	23752.34
581.495	23484.06
581.692	23580.31
581.89	23455.39
582.088	23899.8
582.285	23430.81
582.483	23697.05
582.681	23289.5
582.878	23391.9
583.076	22802.08
583.274	23416.47
583.471	22931.11
583.669	23289.5
583.866	22830.76
584.064	22982.31
584.262	22687.4
584.459	22841
584.657	22560.42
584.854	22908.58
585.052	22304.43
585.249	22589.1
585.447	22234.8
585.644	22386.35
585.841	22455.98
586.039	22636.2
586.236	22187.69
586.434	22369.96
586.631	22263.47
586.828	22195.89
587.026	22107.82
587.223	21978.8
587.42	21939.89
587.618	22101.68
587.815	21497.53
588.012	21884.59
588.21	21769.91
588.407	21888.69
588.604	21874.35
588.801	21976.75
588.999	21728.95
589.196	21774
589.393	21597.88
589.59	21624.5
589.787	21356.22
589.984	21268.16
590.182	21237.44
590.379	21327.55
590.576	21171.9
590.773	21288.64
590.97	21106.37
591.167	21251.77
591.364	21145.28
591.561	21190.33
591.758	20979.39
591.955	21141.18
592.152	21006.02
592.349	21180.09
592.546	20893.38
592.743	20815.55
592.94	20405.96
593.137	20960.96
593.334	21163.71
593.531	20618.95
593.727	20784.83
593.924	20817.6
594.121	20651.72
594.318	20858.56
594.515	20233.93
594.712	20661.96
594.908	20457.16
595.105	20725.44
595.302	20365
595.499	20674.24
595.696	20614.85
595.892	20510.41
596.089	20410.06
596.286	20610.76
596.482	20596.42
596.679	20807.36
596.876	20430.54
597.072	20399.82
597.269	20496.07
597.466	20500.17
597.662	20498.12
597.859	20604.61
598.055	20494.02
598.252	20158.16
598.448	20358.86
598.645	20733.64
598.841	20539.08
599.038	20621
599.234	20559.56
599.431	20715.2
599.627	20508.36
599.824	20584.13
600.02	20424.39
600.217	20571.85
600.413	20494.02
600.609	20778.69
600.806	20616.9
601.002	20735.68
601.198	20872.9
601.395	20416.2
601.591	20623.05
601.787	20813.51
601.984	20799.17
602.18	20856.51
602.376	20844.23
602.572	20682.44
602.769	21100.22
602.965	20831.94
603.161	20987.58
603.357	20897.47
603.553	20913.86
603.75	20745.92
603.946	21096.13
604.142	20690.63
604.338	20963.01
604.534	21227.2
604.73	21030.59
604.926	21081.79
605.122	21472.95
605.318	21014.21
605.514	21096.13
605.71	20936.38
605.906	21552.82
606.102	21554.87
606.298	21601.97
606.494	21415.61
606.69	21542.58
606.886	21413.56
607.082	21563.06
607.278	21868.21
607.474	21511.86
607.67	22001.33
607.866	21384.89
608.062	21894.83
608.257	22023.86
608.453	21890.74
608.649	21958.32
608.845	22107.82
609.041	22060.72
609.236	21878.45
609.432	22390.44
609.628	22300.33
609.824	22179.5
610.019	22163.12
610.215	22097.58
610.411	22744.74
610.606	22220.46
610.802	22150.83
610.998	22513.32
611.193	22378.15
611.389	22242.99
611.584	22560.42
611.78	22421.16
611.976	22453.93
612.171	22898.34
612.367	22865.57
612.562	22648.49
612.758	22861.48
612.953	22619.81
613.149	23010.98
613.344	22554.28
613.539	22927.01
613.735	23094.94
613.93	22920.87
614.126	22787.75
614.321	23250.59
614.517	22939.3
614.712	22865.57
614.907	22859.43
615.103	23135.9
615.298	22908.58
615.493	23549.59
615.688	23000.74
615.884	23346.84
616.079	23195.29
616.274	23312.03
616.47	22859.43
616.665	23215.77
616.86	23273.12
617.055	22982.31
617.25	23150.24
617.445	23322.27
617.641	22849.19
617.836	23051.94
618.031	22988.45
618.226	23316.12
618.421	23029.41
618.616	23135.9
618.811	22863.52
619.006	23400.09
619.201	22644.39
619.396	22681.25
619.591	22402.73
619.786	23164.57
619.981	22398.63
620.176	22605.48
620.371	22445.74
620.566	22775.46
620.761	22421.16
620.956	22679.21
621.151	22412.97
621.346	22269.61
621.541	22171.31
621.735	22251.18
621.93	21851.83
622.125	21943.99
622.32	21667.51
622.515	21993.14
622.709	21687.99
622.904	21716.66
623.099	21456.57
623.294	21663.41
623.488	21374.65
623.683	21436.09
623.878	20999.87
624.072	21294.78
624.267	21247.68
624.462	20899.52
624.656	21008.06
624.851	21051.07
625.046	21026.5
625.24	20809.41
625.435	20522.69
625.629	20459.21
625.824	20434.63
626.018	20272.84
626.213	19939.02
626.407	20201.16
626.602	19719.89
626.796	20084.43
626.991	20022.99
627.185	19775.19
627.38	19842.77
627.574	19707.6
627.768	19547.86
627.963	19496.66
628.157	19424.98
628.352	19025.63
628.546	19072.73
628.74	19195.61
628.935	18681.57
629.129	18886.37
629.323	18976.48
629.517	18831.07
629.712	18630.37
629.906	18415.33
630.1	18308.84
630.294	18579.17
630.489	18329.32
630.683	18407.14
630.877	17901.29
631.071	17960.69
631.265	18321.13
631.459	17972.97
631.653	17889.01
631.848	17698.55
632.042	17665.78
632.236	17712.88
632.43	17487.61
632.624	17645.3
632.818	17229.56
633.012	17153.79
633.206	17104.64
633.4	16926.46
633.594	16908.03
633.788	17149.69
633.982	17010.43
634.176	16940.8
634.369	16742.14
634.563	16383.75
634.757	16637.7
634.951	16367.37
635.145	16539.4
635.339	16197.38
635.533	16312.07
635.726	16103.18
635.92	15812.37
636.114	15974.16
636.308	15769.36
636.501	15959.82
636.695	15847.18
636.889	15806.22
637.083	15626
637.276	15296.28
637.47	15396.63
637.664	15159.06
637.857	15234.84
638.051	15253.27
638.244	14984.99
638.438	15130.39
638.632	14901.02
638.825	14692.13
639.019	14354.21
639.212	14534.43
639.406	14681.89
639.599	14405.41
639.793	14348.07
639.986	14204.71
640.18	14178.09
640.373	13940.52
640.567	13840.17
640.76	13770.54
640.954	13862.7
641.147	13895.47
641.34	13659.95
641.534	13862.7
641.727	13616.94
641.92	13623.09
642.114	13469.49
642.307	13436.72
642.5	13422.39
642.694	12820.28
642.887	13158.2
643.08	13078.33
643.273	12826.43
643.467	12678.97
643.66	12738.37
643.853	12625.73
644.046	12601.15
644.239	12764.99
644.432	12445.51
644.626	12195.65
644.819	12166.98
645.012	12228.42
645.205	12263.24
645.398	11956.04
645.591	11951.95
645.784	11802.44
645.977	11609.93
646.17	11650.89
646.363	11665.23
646.556	11415.38
646.749	11583.31
646.942	11575.12
647.135	11353.94
647.328	11487.06
647.521	11415.38
647.714	11026.26
647.907	11071.32
648.099	11114.33
648.292	11050.84
648.485	10970.97
648.678	10512.22
648.871	10657.63
649.064	10641.25
649.256	10573.66
649.449	10559.33
649.642	10528.61
649.835	10479.46
650.027	10635.1
650.22	10350.43
650.413	10243.94
650.605	10301.28
650.798	10248.04
650.991	10014.57
651.183	10176.36
651.376	10024.81
651.568	10051.43
651.761	9879.4
651.954	9924.46
652.146	9791.34
652.339	9715.56
652.531	9910.12
652.724	9555.82
652.916	9404.27
653.109	9586.54
653.301	9504.62
653.494	9478
653.686	9422.7
653.879	9334.64
654.071	9291.63
654.263	9146.23
654.456	9144.18
654.648	9367.41
654.84	8963.96
655.033	9056.12
655.225	9140.08
655.417	9056.12
655.61	8863.61
655.802	8918.9
655.994	8775.55
656.186	8771.45
656.379	8609.66
656.571	8601.47
656.763	8687.48
656.955	8474.49
657.148	8478.59
657.34	8454.01
657.532	8392.58
657.724	8363.9
657.916	8546.17
658.108	8392.58
658.3	8222.59
658.492	8136.58
658.684	8085.38
658.876	8112
659.068	8109.96
659.26	7815.05
659.452	7978.89
659.644	7901.06
659.836	7870.34
660.028	7925.64
660.22	7858.06
660.412	7802.76
660.604	7643.02
660.796	7647.12
660.988	7620.49
661.18	7546.76
661.372	7485.33
661.563	7544.72
661.755	7311.25
661.947	7309.2
662.139	7296.91
662.331	7217.04
662.522	7200.66
662.714	7292.82
662.906	7026.58
663.097	7120.79
663.289	7053.2
663.481	7012.24
663.673	7161.75
663.864	6905.75
664.056	7004.05
664.247	7004.05
664.439	6875.03
664.631	6764.44
664.822	6817.69
665.014	6844.31
665.205	6692.76
665.397	6684.57
665.588	6598.56
665.78	6539.16
665.971	6475.68
666.163	6692.76
666.354	6283.17
666.546	6459.29
666.737	6358.94
666.929	6209.44
667.12	6225.82
667.311	6465.44
667.503	6365.09
667.694	6225.82
667.885	6168.48
668.077	6262.69
668.268	6096.8
668.459	6000.55
668.651	5939.11
668.842	6107.04
669.033	6027.17
669.224	5816.23
669.416	5978.02
669.607	5992.36
669.798	5889.96
669.989	5939.11
670.18	6043.56
670.371	5879.72
670.563	5744.55
670.754	5853.09
670.945	5656.49
671.136	5746.6
671.327	5732.26
671.518	5537.71
671.709	5762.98
671.9	5699.5
672.091	5648.3
672.282	5533.61
672.473	5621.67
672.664	5511.08
672.855	5660.59
673.046	5574.57
673.237	5382.06
673.428	5418.93
673.619	5506.99
673.809	5330.86
674	5466.03
674.191	5443.5
674.382	5283.76
674.573	5427.12
674.764	5193.65
674.954	5326.77
675.145	5226.42
675.336	5222.32
675.527	5105.59
675.717	5291.95
675.908	5156.79
676.099	5136.31
676.289	5173.17
676.48	5187.5
676.671	5175.22
676.861	5328.81
677.052	4990.9
677.243	4997.04
677.433	5038
677.624	5009.33
677.814	5146.55
678.005	5081.01
678.195	5177.27
678.386	5128.11
678.576	4915.12
678.767	4788.15
678.957	5064.63
679.148	5054.39
679.338	5021.62
679.529	4894.65
679.719	4908.98
679.909	4988.85
680.1	5062.58
680.29	4833.21
680.481	4816.82
680.671	5007.28
680.861	4956.08
681.052	4782.01
681.242	4859.83
681.432	5021.62
681.622	4816.82
681.813	4812.73
682.003	4974.52
682.193	4908.98
682.383	4990.9
682.573	4884.41
682.764	4882.36
682.954	4695.99
683.144	4980.66
683.334	4908.98
683.524	4759.48
683.714	4976.56
683.904	4822.97
684.094	4747.19
684.284	4718.52
684.474	4759.48
684.664	4644.79
684.854	4804.53
685.044	4726.71
685.234	4896.69
685.424	4673.46
685.614	4810.68
685.804	4761.53
685.994	4726.71
686.184	4759.48
686.374	4726.71
686.564	4712.38
686.753	4841.4
686.943	4749.24
687.133	4739
687.323	4634.55
687.513	4775.86
687.702	4614.07
687.892	4648.89
688.082	4648.89
688.272	4614.07
688.461	4712.38
688.651	4655.03
688.841	4620.22
689.03	4515.77
689.22	4589.5
689.41	4526.01
689.599	4489.15
689.789	4612.03
689.979	4560.83
690.168	4456.38
690.358	4458.43
690.547	4415.42
690.737	4562.87
690.926	4454.33
691.116	4485.05
691.305	4575.16
691.495	4450.24
691.684	4476.86
691.874	4456.38
692.063	4509.63
692.252	4456.38
692.442	4427.71
692.631	4325.31
692.82	4272.06
693.01	4413.37
693.199	4341.69
693.388	4286.4
693.578	4376.51
693.767	4290.49
693.956	4233.15
694.146	4302.78
694.335	4327.36
694.524	4272.06
694.713	4286.4
694.902	4231.1
695.092	4212.67
695.281	4100.03
695.47	4224.96
695.659	4263.87
695.848	4161.47
696.037	4071.36
696.226	4196.29
696.415	4204.48
696.604	4157.38
696.793	4212.67
696.982	4032.45
697.171	4188.1
697.36	4227.01
697.549	4194.24
697.738	4040.64
697.927	4001.73
698.116	4138.94
698.305	4104.13
698.494	4120.51
698.683	4104.13
698.872	4194.24
699.061	4132.8
699.25	4065.22
699.438	3960.77
699.627	4081.6
699.816	3983.3
700.005	3930.05
700.193	3995.59
700.382	4067.27
700.571	3895.24
700.76	3936.2
700.948	3960.77
701.137	3981.25
701.326	3964.87
701.514	3848.13
701.703	3928
701.892	3940.29
702.08	3989.44
702.269	3821.51
702.457	3968.96
702.646	3895.24
702.834	3833.8
703.023	3723.21
703.212	3770.31
703.4	3733.45
703.589	3821.51
703.777	3946.44
703.965	3702.73
704.154	3751.88
704.342	3811.27
704.531	3805.13
704.719	3786.69
704.907	3684.3
705.096	3737.54
705.284	3762.12
705.472	3755.97
705.661	3678.15
705.849	3665.86
706.037	3674.06
706.226	3694.54
706.414	3549.13
706.602	3551.18
706.79	3641.29
706.979	3526.6
707.167	3481.55
707.355	3602.38
707.543	3510.22
707.731	3518.41
707.919	3596.23
708.107	3579.85
708.296	3528.65
708.484	3416.01
708.672	3465.16
708.86	3606.47
709.048	3432.4
709.236	3358.67
709.424	3399.63
709.612	3485.64
709.8	3334.09
709.988	3418.06
710.176	3387.34
710.364	3317.71
710.551	3409.87
710.739	3198.93
710.927	3313.61
711.115	3336.14
711.303	3293.13
711.491	3368.91
711.679	3303.37
711.866	3270.61
712.054	3233.74
712.242	3180.5
712.43	3170.26
712.617	3180.5
712.805	3182.54
712.993	3071.95
713.181	3117.01
713.368	3176.4
713.556	3108.82
713.744	3082.19
713.931	3213.26
714.119	3301.33
714.306	3047.38
714.494	3065.81
714.682	2932.69
714.869	3022.8
715.057	3057.62
715.244	3000.27
715.432	3104.72
715.619	2994.13
715.807	2904.02
715.994	2920.4
716.182	2871.25
716.369	3022.8
716.556	2901.97
716.744	2910.16
716.931	2977.75
717.119	3055.57
717.306	2916.31
717.493	2936.79
717.681	2877.4
717.868	2858.96
718.055	2818.01
718.242	2826.2
718.43	2744.28
718.617	2826.2
718.804	2768.85
718.991	2818.01
719.179	2826.2
719.366	2793.43
719.553	2830.29
719.74	2746.33
719.927	2883.54
720.114	2791.38
720.301	2654.17
720.488	2738.13
720.676	2682.84
720.863	2736.09
721.05	2744.28
721.237	2803.67
721.424	2684.89
721.611	2506.71
721.798	2613.21
721.985	2607.06
722.172	2678.74
722.358	2756.57
722.545	2602.97
722.732	2715.61
722.919	2656.22
723.106	2641.88
723.293	2654.17
723.48	2600.92
723.667	2420.7
723.853	2516.95
724.04	2547.67
724.227	2559.96
724.414	2512.86
724.6	2490.33
724.787	2531.29
724.974	2445.27
725.161	2473.95
725.347	2467.8
725.534	2455.51
725.72	2400.22
725.907	2492.38
726.094	2527.19
726.28	2473.95
726.467	2248.67
726.653	2484.19
726.84	2437.08
727.027	2510.81
727.213	2375.64
727.4	2457.56
727.586	2318.3
727.773	2437.08
727.959	2349.02
728.145	2342.88
728.332	2293.73
728.518	2326.49
728.705	2381.79
728.891	2297.82
729.077	2285.53
729.264	2301.92
729.45	2256.86
729.636	2359.26
729.823	2252.77
730.009	2220
730.195	2406.36
730.382	2140.13
730.568	2244.57
730.754	2285.53
730.94	2199.52
731.126	2197.47
731.313	2232.29
731.499	2066.4
731.685	2220
731.871	2211.81
732.057	2129.89
732.243	2146.27
732.429	2222.05
732.615	2232.29
732.801	2162.65
732.987	2113.5
733.173	2125.79
733.359	2162.65
733.545	2154.46
733.731	2107.36
733.917	2021.35
734.103	2199.52
734.289	2129.89
734.475	2056.16
734.661	2002.91
734.847	2074.59
735.033	2187.23
735.219	1966.05
735.404	2123.74
735.59	1994.72
735.776	2023.39
735.962	1929.19
736.148	2115.55
736.333	2015.2
736.519	1982.43
736.705	1918.95
736.89	2148.32
737.076	1933.28
737.262	1949.67
737.447	1910.75
737.633	1955.81
737.819	2035.68
738.004	1972.19
738.19	1853.41
738.375	1896.42
738.561	1880.04
738.747	1968.1
738.932	1929.19
739.118	1902.56
739.303	1941.47
739.489	1953.76
739.674	1763.3
739.859	1871.84
740.045	1908.71
740.23	1828.84
740.416	1761.25
740.601	1781.73
740.786	1757.16
740.972	1759.21
741.157	1761.25
741.342	1753.06
741.528	1841.12
741.713	1808.36
741.898	1740.77
742.084	1773.54
742.269	1753.06
742.454	1781.73
742.639	1787.88
742.824	1730.53
743.01	1744.87
743.195	1665
743.38	1654.76
743.565	1802.21
743.75	1624.04
743.935	1703.91
744.12	1753.06
744.305	1650.66
744.49	1552.36
744.675	1658.85
744.86	1601.51
745.045	1611.75
745.23	1621.99
745.415	1601.51
745.6	1665
745.785	1542.12
745.97	1615.85
746.155	1585.13
746.34	1644.52
746.525	1515.5
746.71	1503.21
746.895	1484.78
747.079	1445.87
747.264	1576.94
747.449	1576.94
747.634	1509.35
747.819	1492.97
748.003	1466.35
748.188	1458.15
748.373	1544.17
748.557	1495.02
748.742	1333.23
748.927	1337.32
749.111	1431.53
749.296	1380.33
749.481	1462.25
749.665	1411.05
749.85	1398.76
750.034	1376.23
750.219	1363.95
750.404	1327.08
750.588	1372.14
750.773	1304.56
750.957	1339.37
751.141	1294.32
751.326	1380.33
751.51	1392.62
751.695	1376.23
751.879	1290.22
752.064	1261.55
752.248	1191.92
752.432	1296.36
752.617	1208.3
752.801	1318.89
752.985	1271.79
753.17	1253.36
753.354	1196.01
753.538	1294.32
753.722	1116.14
753.907	1171.44
754.091	1183.73
754.275	1245.17
754.459	1222.64
754.643	1107.95
754.828	1191.92
755.012	1165.29
755.196	1189.87
755.38	1114.1
755.564	1097.71
755.748	1083.38
755.932	1114.1
756.116	1126.38
756.3	1019.89
756.484	1048.56
756.668	1150.96
756.852	1019.89
757.036	944.11
757.22	1187.82
757.404	1015.79
757.588	1073.14
757.772	1017.84
757.956	1116.14
758.14	1046.51
758.323	1040.37
758.507	978.93
758.691	980.98
758.875	1079.28
759.059	999.41
759.242	948.21
759.426	1017.84
759.61	974.83
759.794	929.78
759.977	905.2
760.161	1040.37
760.345	942.07
760.528	980.98
760.712	921.59
760.895	980.98
761.079	897.01
761.263	897.01
761.446	929.78
761.63	894.96
761.813	985.07
761.997	864.24
762.18	845.81
762.364	987.12
762.547	880.63
762.731	872.43
762.914	874.48
763.098	868.34
763.281	921.59
763.464	819.19
763.648	903.15
763.831	823.28
764.015	843.76
764.198	843.76
764.381	796.66
764.564	800.76
764.748	868.34
764.931	778.23
765.114	860.15
765.297	839.67
765.481	802.8
765.664	794.61
765.847	823.28
766.03	851.96
766.213	731.12
766.397	897.01
766.58	704.5
766.763	819.19
766.946	821.24
767.129	761.84
767.312	751.6
767.495	815.09
767.678	710.65
767.861	823.28
768.044	778.23
768.227	755.7
768.41	747.51
768.593	770.04
768.776	808.95
768.959	804.85
769.142	788.47
769.324	755.7
769.507	624.63
769.69	841.72
769.873	761.84
770.056	792.56
770.239	772.08
770.421	770.04
770.604	770.04
770.787	720.88
770.97	798.71
771.152	761.84
771.335	794.61
771.518	716.79
771.7	802.8
771.883	757.75
772.066	688.12
772.248	583.67
772.431	729.08
772.613	708.6
772.796	671.73
772.978	657.4
773.161	663.54
773.343	630.77
773.526	620.53
773.708	667.64
773.891	630.77
774.073	614.39
774.256	598.01
774.438	712.69
774.621	577.53
774.803	753.65
774.985	663.54
775.168	624.63
775.35	624.63
775.532	655.35
775.715	657.4
775.897	608.25
776.079	577.53
776.261	604.15
776.444	544.76
776.626	581.62
776.808	622.58
776.99	657.4
777.173	641.01
777.355	577.53
777.537	542.71
777.719	565.24
777.901	552.95
778.083	536.57
778.265	501.75
778.447	591.86
778.629	589.81
778.811	477.18
778.993	540.66
779.175	593.91
779.357	516.09
779.539	452.6
779.721	507.9
779.903	561.14
780.085	501.75
780.267	499.7
780.449	485.37
780.631	573.43
780.812	581.62
780.994	534.52
781.176	520.18
781.358	444.41
781.54	460.79
781.721	536.57
781.903	458.75
782.085	509.94
782.267	552.95
782.448	419.83
782.63	499.7
782.812	444.41
782.993	450.55
783.175	485.37
783.357	452.6
783.538	438.27
783.72	409.59
783.901	417.79
784.083	483.32
784.264	477.18
784.446	352.25
784.627	385.02
784.809	493.56
784.99	454.65
785.172	471.03
785.353	425.98
785.535	425.98
785.716	454.65
785.897	309.24
786.079	442.36
786.26	366.59
786.441	460.79
786.623	425.98
786.804	393.21
786.985	372.73
787.167	460.79
787.348	378.87
787.529	368.63
787.71	450.55
787.891	356.35
788.073	307.2
788.254	311.29
788.435	417.79
788.616	385.02
788.797	360.44
788.978	309.24
789.159	329.72
789.34	376.83
789.522	319.48
789.703	344.06
789.884	360.44
790.065	360.44
790.246	385.02
790.427	327.67
790.607	356.35
790.788	368.63
790.969	294.91
791.15	311.29
791.331	303.1
791.512	280.57
791.693	264.19
791.874	319.48
792.054	335.87
792.235	278.52
792.416	245.76
792.597	337.91
792.778	258.04
792.958	319.48
793.139	319.48
793.32	409.59
793.5	319.48
793.681	344.06
793.862	268.28
794.042	401.4
794.223	247.8
794.404	270.33
794.584	251.9
794.765	245.76
794.945	280.57
795.126	262.14
795.306	389.11
795.487	180.22
795.667	284.67
795.848	235.52
796.028	294.91
796.209	253.95
796.389	292.86
796.57	253.95
796.75	237.56
796.93	272.38
797.111	223.23
797.291	262.14
797.471	204.8
797.652	286.72
797.832	258.04
798.012	231.42
798.192	323.58
798.373	245.76
798.553	176.13
798.733	258.04
798.913	249.85
799.093	221.18
799.274	221.18
799.454	225.28
799.634	282.62
799.814	227.32
799.994	227.32
800.174	262.14
800.354	161.79
800.534	192.51
800.714	262.14
800.894	231.42
801.074	223.23
801.254	212.99
801.434	196.61
801.614	229.37
801.794	251.9
801.974	935.92
802.154	262.14
802.334	280.57
802.514	90.11
802.693	178.17
802.873	147.45
803.053	188.41
803.233	194.56
803.413	229.37
803.592	122.88
803.772	159.74
803.952	212.99
804.131	163.84
804.311	217.08
804.491	274.43
804.67	192.51
804.85	196.61
805.03	212.99
805.209	215.04
805.389	223.23
805.568	192.51
805.748	135.17
805.928	204.8
806.107	202.75
806.287	163.84
806.466	165.89
806.646	147.45
806.825	159.74
807.004	206.84
807.184	141.31
807.363	204.8
807.543	180.22
807.722	90.11
807.901	208.89
808.081	270.33
808.26	137.21
808.439	180.22
808.619	108.54
808.798	202.75
808.977	157.69
809.156	212.99
809.336	163.84
809.515	114.69
809.694	81.92
809.873	184.32
810.052	251.9
810.231	253.95
810.411	206.84
810.59	135.17
810.769	169.98
810.948	165.89
811.127	77.82
811.306	106.49
811.485	184.32
811.664	241.66
811.843	126.97
812.022	208.89
812.201	139.26
812.38	149.5
812.559	149.5
812.737	182.27
812.916	83.97
813.095	169.98
813.274	151.55
813.453	126.97
813.632	157.69
813.811	151.55
813.989	108.54
814.168	147.45
814.347	151.55
814.526	57.34
814.704	159.74
814.883	161.79
815.062	139.26
815.24	169.98
815.419	57.34
815.598	172.03
815.776	194.56
815.955	196.61
816.133	67.58
816.312	122.88
816.49	172.03
816.669	182.27
816.847	100.35
817.026	163.84
817.204	73.73
817.383	122.88
817.561	79.87
817.74	100.35
817.918	108.54
818.097	161.79
818.275	69.63
818.453	133.12
818.632	94.21
818.81	155.65
818.988	188.41
819.167	118.78
819.345	120.83
819.523	102.4
819.701	145.41
819.879	126.97
820.058	176.13
820.236	163.84
820.414	51.2
820.592	157.69
820.77	180.22
820.948	28.67
821.127	104.45
821.305	116.73
821.483	71.68
821.661	90.11
821.839	100.35
822.017	65.54
822.195	100.35
822.373	114.69
822.551	106.49
822.729	176.13
822.907	96.25
823.085	143.36
823.262	133.12
823.44	139.26
823.618	137.21
823.796	114.69
823.974	106.49
824.152	75.77
824.329	100.35
824.507	159.74
824.685	45.06
824.863	126.97
825.04	90.11
825.218	100.35
825.396	114.69
825.574	81.92
825.751	32.77
825.929	81.92
826.107	40.96
826.284	102.4
826.462	61.44
826.639	10.24
826.817	40.96
826.994	90.11
827.172	81.92
827.349	65.54
827.527	108.54
827.704	73.73
827.882	59.39
828.059	49.15
828.237	61.44
828.414	90.11
828.591	69.63
828.769	40.96
828.946	102.4
829.124	79.87
829.301	53.25
829.478	116.73
829.655	129.02
829.833	129.02
830.01	133.12
830.187	83.97
830.364	108.54
830.542	92.16
830.719	126.97
830.896	120.83
831.073	143.36
831.25	135.17
831.427	86.01
831.604	90.11
831.782	0
831.959	57.34
832.136	53.25
832.313	55.3
832.49	73.73
832.667	40.96
832.844	77.82
833.021	147.45
833.198	73.73
833.374	73.73
833.551	86.01
833.728	100.35
833.905	67.58
834.082	14.34
834.259	34.82
834.436	57.34
834.612	2.05
834.789	159.74
834.966	-75.77
835.143	83.97
835.319	59.39
835.496	163.84
835.673	104.45
835.85	116.73
836.026	75.77
836.203	120.83
836.38	32.77
836.556	98.3
836.733	-12.29
836.909	163.84
837.086	77.82
837.262	-8.19
837.439	57.34
837.616	51.2
837.792	49.15
837.968	61.44
838.145	8.19
838.321	102.4
838.498	63.49
838.674	47.1
838.851	49.15
839.027	98.3
839.203	86.01
839.38	57.34
839.556	71.68
839.732	49.15
839.909	18.43
840.085	81.92
840.261	92.16
840.437	49.15
840.614	81.92
840.79	57.34
840.966	4.1
841.142	61.44
841.318	-6.14
841.494	92.16
841.671	116.73
841.847	77.82
842.023	-10.24
842.199	73.73
842.375	92.16
842.551	24.58
842.727	59.39
842.903	100.35
843.079	51.2
843.255	122.88
843.431	65.54
843.607	75.77
843.783	-10.24
843.959	139.26
844.134	83.97
844.31	124.93
844.486	57.34
844.662	40.96
844.838	59.39
845.013	26.62
845.189	77.82
845.365	141.31
845.541	90.11
845.716	129.02
845.892	16.38
846.068	51.2
846.244	-73.73
846.419	106.49
846.595	-32.77
846.77	100.35
846.946	88.06
847.122	-2.05
847.297	36.86
847.473	73.73
847.648	-40.96
847.824	28.67
847.999	-36.86
848.175	24.58
848.35	53.25
848.526	122.88
848.701	98.3
848.876	90.11
849.052	45.06
849.227	81.92
849.403	-24.58
849.578	-30.72
849.753	24.58
849.929	102.4
850.104	-73.73
850.279	43.01
850.454	28.67
850.63	65.54
850.805	79.87
850.98	26.62
851.155	69.63
851.33	73.73
851.505	65.54
851.681	155.65
851.856	14.34
852.031	45.06
852.206	94.21
852.381	8.19
852.556	24.58
852.731	28.67
852.906	94.21
853.081	61.44
853.256	90.11
853.431	81.92
853.606	51.2
853.781	36.86
853.956	18.43
854.131	18.43
854.305	47.1
854.48	34.82
854.655	12.29
854.83	10.24
855.005	22.53
855.18	16.38
855.354	16.38
855.529	10.24
855.704	-24.58
855.879	114.69
856.053	-12.29
856.228	86.01
856.403	61.44
856.577	49.15
856.752	16.38
856.926	28.67
857.101	12.29
857.276	-36.86
857.45	69.63
857.625	92.16
857.799	14.34
857.974	22.53
858.148	-16.38
858.323	86.01
858.497	-51.2
858.672	59.39
858.846	43.01
859.02	28.67
859.195	28.67
859.369	-18.43
859.543	38.91
859.718	45.06
859.892	65.54
860.066	43.01
860.241	163.84
860.415	-36.86
860.589	34.82
860.763	90.11
860.938	4.1
861.112	16.38
861.286	-6.14
861.46	67.58
861.634	18.43
861.808	59.39
861.982	36.86
862.157	55.3
862.331	59.39
862.505	-63.49
862.679	-8.19
862.853	65.54
863.027	81.92
863.201	129.02
863.375	32.77
863.549	67.58
863.722	28.67
863.896	81.92
864.07	-8.19
864.244	51.2
864.418	73.73
864.592	12.29
864.766	67.58
864.939	51.2
865.113	28.67
865.287	57.34
865.461	26.62
865.634	81.92
865.808	-12.29
865.982	20.48
866.156	28.67
866.329	-22.53
866.503	40.96
866.676	137.21
866.85	73.73
867.024	32.77
867.197	16.38
867.371	65.54
867.544	12.29
867.718	32.77
867.891	98.3
868.065	98.3
868.238	8.19
868.412	83.97
868.585	71.68
868.759	45.06
868.932	16.38
869.105	28.67
869.279	51.2
869.452	86.01
869.625	90.11
869.799	45.06
869.972	55.3
870.145	-14.34
870.319	100.35
870.492	18.43
870.665	-14.34
870.838	18.43
871.011	-2.05
871.185	81.92
871.358	0
871.531	-40.96
871.704	34.82
871.877	32.77
872.05	43.01
872.223	67.58
872.396	32.77
872.569	4.1
872.742	24.58
872.915	32.77
873.088	-53.25
873.261	59.39
873.434	20.48
873.607	0
873.78	61.44
873.953	-12.29
874.126	24.58
874.299	10.24
874.471	-6.14
874.644	14.34
874.817	16.38
874.99	100.35
875.163	4.1
875.335	51.2
875.508	0
875.681	81.92
875.853	-24.58
876.026	49.15
876.199	65.54
876.371	-16.38
876.544	79.87
876.717	-6.14
876.889	-18.43
877.062	53.25
877.234	16.38
877.407	-36.86
877.579	67.58
877.752	88.06
877.924	71.68
878.097	12.29
878.269	4.1
878.442	2.05
878.614	38.91
878.786	51.2
878.959	-20.48
879.131	81.92
879.303	-20.48
879.476	53.25
879.648	8.19
879.82	26.62
879.993	-36.86
880.165	40.96
880.337	-49.15
880.509	34.82
880.681	-36.86
880.854	16.38
881.026	51.2
881.198	106.49
881.37	-6.14
881.542	106.49
881.714	49.15
881.886	10.24
882.058	-14.34
882.23	59.39
882.402	16.38
882.574	65.54
882.746	26.62
882.918	81.92
883.09	30.72
883.262	24.58
883.434	106.49
883.606	-45.06
883.778	63.49
883.95	65.54
884.122	-28.67
884.293	124.93
884.465	0
884.637	49.15
884.809	-47.1
884.98	53.25
885.152	49.15
885.324	-16.38
885.496	-12.29
885.667	8.19
885.839	38.91
886.011	26.62
886.182	16.38
886.354	51.2
886.525	61.44
886.697	-30.72
886.869	8.19
887.04	20.48
887.212	-6.14
887.383	20.48
887.555	-16.38
887.726	49.15
887.897	-45.06
888.069	38.91
888.24	2.05
888.412	-65.53
888.583	-2.05
888.754	88.06
888.926	-75.77
889.097	12.29
889.268	-26.62
889.44	-8.19
889.611	2.05
889.782	-4.1
889.953	24.58
890.125	61.44
890.296	-73.73
890.467	55.3
890.638	36.86
890.809	-34.82
890.98	0
891.151	20.48
891.323	153.6
891.494	16.38
891.665	10.24
891.836	8.19
892.007	32.77
892.178	73.73
892.349	24.58
892.52	-14.34
892.691	-38.91
892.862	6.14
893.032	-12.29
893.203	6.14
893.374	8.19
893.545	73.73
893.716	28.67
893.887	65.54
894.057	-43.01
894.228	30.72
894.399	-24.58
894.57	-4.1
894.74	32.77
894.911	34.82
895.082	43.01
895.253	59.39
895.423	-8.19
895.594	-4.1
895.764	51.2
895.935	-79.87
896.106	12.29
896.276	34.82
896.447	-28.67
896.617	-14.34
896.788	-4.1
896.958	53.25
897.129	81.92
897.299	10.24
897.47	94.21
897.64	4.1
897.81	0
897.981	28.67
898.151	-53.25
898.322	6.14
898.492	73.73
898.662	8.19
898.832	12.29
899.003	-4.1
899.173	16.38
899.343	-102.4
899.513	0
