Data from USB4F104151__53__14-30-01-806.txt Node

Date: Thu Mar 13 14:30:01 EDT 2025
User: louis
Spectrometer: USB4F10415
Trigger mode: 4
Integration Time (sec): 2.500000E-2
Scans to average: 1
Electric dark correction enabled: true
Nonlinearity correction enabled: false
Boxcar width: 0
XAxis mode: Wavelengths
Number of Pixels in Spectrum: 3648
>>>>>Begin Spectral Data<<<<<
178.204	-114.86
178.424	-114.86
178.644	-114.86
178.864	-112.81
179.084	-94.38
179.304	14.17
179.524	-28.84
179.744	-10.41
179.964	-0.17
180.184	-53.42
180.404	-63.66
180.624	61.27
180.844	-4.27
181.064	32.6
181.283	36.69
181.503	-16.55
181.723	32.6
181.943	-133.29
182.163	87.89
182.383	-16.55
182.602	98.13
182.822	81.75
183.042	8.02
183.262	14.17
183.482	65.36
183.701	10.07
183.921	16.21
184.141	32.6
184.361	61.27
184.58	-30.89
184.8	55.12
185.02	18.26
185.239	89.94
185.459	-4.27
185.679	48.98
185.898	-53.42
186.118	-22.7
186.338	122.71
186.557	30.55
186.777	-12.46
186.997	-20.65
187.216	3.93
187.436	69.46
187.655	-22.7
187.875	65.36
188.095	-4.27
188.314	130.9
188.534	-4.27
188.753	8.02
188.973	-0.17
189.192	106.32
189.412	-16.55
189.631	-26.79
189.851	57.17
190.07	85.84
190.29	22.36
190.509	-8.36
190.729	-16.55
190.948	48.98
191.168	145.24
191.387	132.95
191.607	5.97
191.826	61.27
192.045	3.93
192.265	48.98
192.484	-39.08
192.704	10.07
192.923	-18.6
193.142	100.18
193.362	8.02
193.581	130.9
193.8	53.08
194.02	51.03
194.239	14.17
194.458	-0.17
194.678	26.45
194.897	24.4
195.116	89.94
195.335	20.31
195.555	24.4
195.774	44.88
195.993	32.6
196.212	28.5
196.432	34.64
196.651	24.4
196.87	12.12
197.089	139.09
197.308	-28.84
197.528	61.27
197.747	8.02
197.966	69.46
198.185	104.28
198.404	-10.41
198.623	51.03
198.842	32.6
199.062	145.24
199.281	48.98
199.5	53.08
199.719	42.84
199.938	34.64
200.157	16.21
200.376	94.04
200.595	75.6
200.814	77.65
201.033	-22.7
201.252	32.6
201.471	59.22
201.69	42.84
201.909	40.79
202.128	1.88
202.347	-6.31
202.566	32.6
202.785	34.64
203.004	10.07
203.223	89.94
203.442	69.46
203.661	38.74
203.879	48.98
204.098	59.22
204.317	34.64
204.536	48.98
204.755	89.94
204.974	3.93
205.193	40.79
205.411	24.4
205.63	3.93
205.849	-24.75
206.068	75.6
206.287	-8.36
206.505	51.03
206.724	36.69
206.943	24.4
207.162	57.17
207.381	-0.17
207.599	96.08
207.818	18.26
208.037	67.41
208.255	40.79
208.474	-0.17
208.693	26.45
208.911	5.97
209.13	12.12
209.349	34.64
209.567	51.03
209.786	8.02
210.005	-8.36
210.223	-22.7
210.442	-16.55
210.661	130.9
210.879	-4.27
211.098	75.6
211.316	91.99
211.535	16.21
211.753	16.21
211.972	1.88
212.191	75.6
212.409	137.04
212.628	69.46
212.846	61.27
213.065	63.32
213.283	65.36
213.502	-2.22
213.72	34.64
213.938	-16.55
214.157	24.4
214.375	44.88
214.594	44.88
214.812	63.32
215.031	67.41
215.249	55.12
215.467	44.88
215.686	36.69
215.904	118.61
216.122	-8.36
216.341	98.13
216.559	42.84
216.778	122.71
216.996	122.71
217.214	73.56
217.432	16.21
217.651	-47.27
217.869	42.84
218.087	-0.17
218.306	63.32
218.524	-4.27
218.742	53.08
218.96	-2.22
219.179	-30.89
219.397	3.93
219.615	40.79
219.833	40.79
220.051	32.6
220.27	59.22
220.488	48.98
220.706	24.4
220.924	44.88
221.142	59.22
221.36	59.22
221.578	61.27
221.796	57.17
222.015	-14.51
222.233	48.98
222.451	65.36
222.669	32.6
222.887	55.12
223.105	8.02
223.323	-14.51
223.541	48.98
223.759	8.02
223.977	-16.55
224.195	114.52
224.413	-14.51
224.631	8.02
224.849	57.17
225.067	75.6
225.285	-24.75
225.503	-8.36
225.721	-30.89
225.939	89.94
226.157	48.98
226.375	89.94
226.592	-8.36
226.81	91.99
227.028	91.99
227.246	67.41
227.464	20.31
227.682	53.08
227.9	85.84
228.117	26.45
228.335	18.26
228.553	75.6
228.771	75.6
228.989	10.07
229.206	1.88
229.424	16.21
229.642	67.41
229.86	32.6
230.077	73.56
230.295	114.52
230.513	63.32
230.731	67.41
230.948	114.52
231.166	48.98
231.384	14.17
231.601	-20.65
231.819	51.03
232.037	-12.46
232.254	-69.8
232.472	-8.36
232.689	-12.46
232.907	48.98
233.125	108.37
233.342	40.79
233.56	12.12
233.777	-8.36
233.995	108.37
234.213	65.36
234.43	75.6
234.648	24.4
234.865	51.03
235.083	-12.46
235.3	46.93
235.518	26.45
235.735	147.28
235.953	48.98
236.17	1.88
236.388	32.6
236.605	14.17
236.822	59.22
237.04	28.5
237.257	73.56
237.475	26.45
237.692	30.55
237.909	-51.37
238.127	122.71
238.344	59.22
238.562	-6.31
238.779	-10.41
238.996	40.79
239.214	67.41
239.431	114.52
239.648	-37.03
239.865	89.94
240.083	34.64
240.3	55.12
240.517	14.17
240.735	83.8
240.952	89.94
241.169	114.52
241.386	42.84
241.603	98.13
241.821	1.88
242.038	63.32
242.255	32.6
242.472	18.26
242.689	65.36
242.907	40.79
243.124	16.21
243.341	36.69
243.558	32.6
243.775	-0.17
243.992	1.88
244.209	40.79
244.426	149.33
244.643	63.32
244.86	24.4
245.078	67.41
245.295	28.5
245.512	28.5
245.729	-0.17
245.946	116.56
246.163	153.43
246.38	57.17
246.597	-47.27
246.814	18.26
247.031	65.36
247.248	57.17
247.464	114.52
247.681	89.94
247.898	32.6
248.115	8.02
248.332	-8.36
248.549	8.02
248.766	81.75
248.983	94.04
249.2	28.5
249.417	98.13
249.633	20.31
249.85	73.56
250.067	-0.17
250.284	-0.17
250.501	73.56
250.717	28.5
250.934	40.79
251.151	48.98
251.368	34.64
251.585	91.99
251.801	71.51
252.018	57.17
252.235	65.36
252.451	-30.89
252.668	57.17
252.885	75.6
253.102	3.93
253.318	-6.31
253.535	-45.23
253.752	32.6
253.968	28.5
254.185	10.07
254.401	48.98
254.618	83.8
254.835	-6.31
255.051	63.32
255.268	63.32
255.484	91.99
255.701	61.27
255.917	53.08
256.134	42.84
256.351	18.26
256.567	-0.17
256.784	63.32
257	-20.65
257.217	110.42
257.433	57.17
257.65	-8.36
257.866	69.46
258.082	1.88
258.299	-32.94
258.515	24.4
258.732	-0.17
258.948	57.17
259.165	53.08
259.381	42.84
259.597	-4.27
259.814	-37.03
260.03	87.89
260.246	42.84
260.463	118.61
260.679	126.8
260.895	57.17
261.112	8.02
261.328	28.5
261.544	-22.7
261.761	122.71
261.977	1.88
262.193	-73.9
262.409	61.27
262.626	89.94
262.842	26.45
263.058	1.88
263.274	-8.36
263.49	32.6
263.707	48.98
263.923	42.84
264.139	40.79
264.355	-34.99
264.571	69.46
264.787	73.56
265.004	57.17
265.22	85.84
265.436	10.07
265.652	57.17
265.868	20.31
266.084	48.98
266.3	32.6
266.516	-10.41
266.732	98.13
266.948	120.66
267.164	46.93
267.38	79.7
267.596	108.37
267.812	155.47
268.028	122.71
268.244	20.31
268.46	8.02
268.676	24.4
268.892	26.45
269.108	-6.31
269.324	-63.66
269.54	26.45
269.756	87.89
269.972	16.21
270.188	40.79
270.403	51.03
270.619	48.98
270.835	34.64
271.051	46.93
271.267	73.56
271.483	-18.6
271.698	44.88
271.914	53.08
272.13	-96.43
272.346	-37.03
272.562	73.56
272.777	89.94
272.993	40.79
273.209	34.64
273.425	-43.18
273.64	1.88
273.856	38.74
274.072	46.93
274.287	-6.31
274.503	75.6
274.719	-0.17
274.934	40.79
275.15	-24.75
275.366	126.8
275.581	67.41
275.797	48.98
276.012	40.79
276.228	-4.27
276.444	32.6
276.659	122.71
276.875	20.31
277.09	32.6
277.306	57.17
277.521	63.32
277.737	63.32
277.952	87.89
278.168	12.12
278.383	81.75
278.599	26.45
278.814	5.97
279.03	79.7
279.245	81.75
279.461	89.94
279.676	40.79
279.892	-8.36
280.107	-6.31
280.322	1.88
280.538	57.17
280.753	77.65
280.969	32.6
281.184	12.12
281.399	98.13
281.615	108.37
281.83	73.56
282.045	42.84
282.26	12.12
282.476	10.07
282.691	36.69
282.906	38.74
283.122	57.17
283.337	51.03
283.552	42.84
283.767	-30.89
283.983	32.6
284.198	67.41
284.413	130.9
284.628	-16.55
284.843	65.36
285.058	89.94
285.274	94.04
285.489	67.41
285.704	114.52
285.919	10.07
286.134	40.79
286.349	-47.27
286.564	10.07
286.779	91.99
286.995	8.02
287.21	12.12
287.425	89.94
287.64	-45.23
287.855	57.17
288.07	8.02
288.285	24.4
288.5	98.13
288.715	53.08
288.93	-12.46
289.145	42.84
289.36	89.94
289.575	36.69
289.79	130.9
290.004	1.88
290.219	51.03
290.434	-18.6
290.649	-6.31
290.864	26.45
291.079	73.56
291.294	44.88
291.509	8.02
291.724	-16.55
291.938	-0.17
292.153	100.18
292.368	32.6
292.583	-49.32
292.798	65.36
293.012	48.98
293.227	24.4
293.442	122.71
293.657	1.88
293.871	26.45
294.086	30.55
294.301	77.65
294.516	91.99
294.73	112.47
294.945	-18.6
295.16	79.7
295.374	57.17
295.589	106.32
295.804	28.5
296.018	18.26
296.233	149.33
296.447	73.56
296.662	42.84
296.877	85.84
297.091	48.98
297.306	-4.27
297.52	40.79
297.735	42.84
297.949	44.88
298.164	12.12
298.378	20.31
298.593	28.5
298.807	12.12
299.022	-0.17
299.236	48.98
299.451	40.79
299.665	69.46
299.88	-24.75
300.094	32.6
300.309	65.36
300.523	81.75
300.737	73.56
300.952	73.56
301.166	53.08
301.381	8.02
301.595	120.66
301.809	48.98
302.024	-10.41
302.238	-41.13
302.452	51.03
302.667	53.08
302.881	40.79
303.095	65.36
303.309	42.84
303.524	61.27
303.738	59.22
303.952	24.4
304.166	44.88
304.381	16.21
304.595	106.32
304.809	30.55
305.023	48.98
305.237	48.98
305.452	51.03
305.666	-14.51
305.88	98.13
306.094	98.13
306.308	71.51
306.522	28.5
306.736	44.88
306.95	20.31
307.164	10.07
307.379	16.21
307.593	98.13
307.807	48.98
308.021	10.07
308.235	100.18
308.449	26.45
308.663	-4.27
308.877	81.75
309.091	63.32
309.305	51.03
309.519	67.41
309.733	57.17
309.947	12.12
310.161	65.36
310.374	18.26
310.588	73.56
310.802	32.6
311.016	-0.17
311.23	112.47
311.444	8.02
311.658	32.6
311.872	91.99
312.085	36.69
312.299	98.13
312.513	53.08
312.727	57.17
312.941	91.99
313.154	28.5
313.368	61.27
313.582	57.17
313.796	75.6
314.009	-0.17
314.223	130.9
314.437	69.46
314.651	67.41
314.864	-22.7
315.078	137.04
315.292	81.75
315.505	30.55
315.719	51.03
315.933	73.56
316.146	18.26
316.36	-4.27
316.573	59.22
316.787	53.08
317.001	83.8
317.214	-39.08
317.428	-22.7
317.641	12.12
317.855	73.56
318.068	24.4
318.282	26.45
318.495	116.56
318.709	67.41
318.922	-14.51
319.136	106.32
319.349	135
319.563	89.94
319.776	32.6
319.99	32.6
320.203	32.6
320.417	89.94
320.63	57.17
320.843	81.75
321.057	65.36
321.27	81.75
321.483	81.75
321.697	98.13
321.91	94.04
322.124	57.17
322.337	46.93
322.55	5.97
322.763	34.64
322.977	28.5
323.19	-0.17
323.403	51.03
323.617	48.98
323.83	40.79
324.043	67.41
324.256	110.42
324.469	-8.36
324.683	77.65
324.896	89.94
325.109	98.13
325.322	22.36
325.535	48.98
325.748	114.52
325.962	73.56
326.175	73.56
326.388	48.98
326.601	73.56
326.814	61.27
327.027	-32.94
327.24	65.36
327.453	-14.51
327.666	110.42
327.879	40.79
328.092	81.75
328.305	89.94
328.518	63.32
328.731	-4.27
328.944	122.71
329.157	-20.65
329.37	20.31
329.583	73.56
329.796	44.88
330.009	28.5
330.222	65.36
330.435	48.98
330.648	10.07
330.861	-32.94
331.073	53.08
331.286	122.71
331.499	91.99
331.712	-16.55
331.925	69.46
332.138	24.4
332.35	89.94
332.563	73.56
332.776	48.98
332.989	89.94
333.202	40.79
333.414	14.17
333.627	83.8
333.84	18.26
334.053	114.52
334.265	48.98
334.478	63.32
334.691	28.5
334.903	102.23
335.116	98.13
335.329	-16.55
335.541	149.33
335.754	3.93
335.966	12.12
336.179	-32.94
336.392	16.21
336.604	75.6
336.817	51.03
337.029	20.31
337.242	28.5
337.454	16.21
337.667	67.41
337.88	89.94
338.092	83.8
338.305	83.8
338.517	28.5
338.729	63.32
338.942	89.94
339.154	81.75
339.367	-96.43
339.579	69.46
339.792	-10.41
340.004	51.03
340.217	42.84
340.429	75.6
340.641	28.5
340.854	57.17
341.066	-0.17
341.278	145.24
341.491	98.13
341.703	65.36
341.915	89.94
342.128	18.26
342.34	53.08
342.552	51.03
342.764	26.45
342.977	57.17
343.189	44.88
343.401	44.88
343.613	-22.7
343.826	51.03
344.038	18.26
344.25	57.17
344.462	-14.51
344.674	48.98
344.886	-6.31
345.099	20.31
345.311	26.45
345.523	-41.13
345.735	-32.94
345.947	79.7
346.159	42.84
346.371	48.98
346.583	98.13
346.795	71.51
347.007	32.6
347.219	59.22
347.431	22.36
347.643	69.46
347.855	69.46
348.067	46.93
348.279	1.88
348.491	48.98
348.703	128.85
348.915	89.94
349.127	10.07
349.339	81.75
349.551	44.88
349.763	75.6
349.975	3.93
350.187	102.23
350.399	51.03
350.61	83.8
350.822	-14.51
351.034	8.02
351.246	71.51
351.458	73.56
351.669	61.27
351.881	73.56
352.093	122.71
352.305	116.56
352.517	96.08
352.728	122.71
352.94	48.98
353.152	67.41
353.363	61.27
353.575	42.84
353.787	116.56
353.999	81.75
354.21	75.6
354.422	81.75
354.633	16.21
354.845	51.03
355.057	22.36
355.268	36.69
355.48	77.65
355.692	65.36
355.903	28.5
356.115	69.46
356.326	18.26
356.538	42.84
356.749	59.22
356.961	73.56
357.172	1.88
357.384	34.64
357.595	124.76
357.807	44.88
358.018	44.88
358.23	53.08
358.441	108.37
358.653	40.79
358.864	44.88
359.075	20.31
359.287	94.04
359.498	126.8
359.709	-34.99
359.921	30.55
360.132	122.71
360.344	38.74
360.555	48.98
360.766	26.45
360.977	8.02
361.189	20.31
361.4	-41.13
361.611	79.7
361.823	71.51
362.034	59.22
362.245	-14.51
362.456	24.4
362.667	83.8
362.879	81.75
363.09	5.97
363.301	122.71
363.512	-2.22
363.723	59.22
363.935	-8.36
364.146	51.03
364.357	83.8
364.568	91.99
364.779	32.6
364.99	100.18
365.201	-4.27
365.412	122.71
365.623	-16.55
365.834	38.74
366.045	48.98
366.256	75.6
366.467	32.6
366.678	48.98
366.889	28.5
367.1	81.75
367.311	48.98
367.522	34.64
367.733	85.84
367.944	139.09
368.155	104.28
368.366	102.23
368.577	83.8
368.788	114.52
368.999	-30.89
369.209	89.94
369.42	180.05
369.631	91.99
369.842	81.75
370.053	65.36
370.264	-0.17
370.474	-14.51
370.685	65.36
370.896	114.52
371.107	159.57
371.317	73.56
371.528	1.88
371.739	75.6
371.95	51.03
372.16	114.52
372.371	42.84
372.582	81.75
372.792	81.75
373.003	51.03
373.214	57.17
373.424	61.27
373.635	16.21
373.846	89.94
374.056	18.26
374.267	81.75
374.477	112.47
374.688	-6.31
374.898	16.21
375.109	40.79
375.319	85.84
375.53	61.27
375.74	-30.89
375.951	75.6
376.161	73.56
376.372	81.75
376.582	28.5
376.793	98.13
377.003	85.84
377.214	73.56
377.424	102.23
377.635	51.03
377.845	30.55
378.055	85.84
378.266	73.56
378.476	85.84
378.686	40.79
378.897	83.8
379.107	194.39
379.317	79.7
379.528	42.84
379.738	139.09
379.948	73.56
380.158	89.94
380.369	73.56
380.579	24.4
380.789	75.6
380.999	151.38
381.21	106.32
381.42	143.19
381.63	69.46
381.84	135
382.05	112.47
382.261	77.65
382.471	110.42
382.681	32.6
382.891	51.03
383.101	59.22
383.311	18.26
383.521	20.31
383.731	8.02
383.941	137.04
384.151	91.99
384.361	44.88
384.571	61.27
384.781	26.45
384.991	147.28
385.201	175.95
385.411	79.7
385.621	65.36
385.831	190.29
386.041	73.56
386.251	96.08
386.461	16.21
386.671	40.79
386.881	48.98
387.091	26.45
387.301	102.23
387.511	26.45
387.72	100.18
387.93	42.84
388.14	57.17
388.35	71.51
388.56	104.28
388.769	126.8
388.979	51.03
389.189	12.12
389.399	57.17
389.609	106.32
389.818	132.95
390.028	24.4
390.238	83.8
390.447	100.18
390.657	98.13
390.867	65.36
391.076	3.93
391.286	-4.27
391.496	48.98
391.705	20.31
391.915	147.28
392.125	89.94
392.334	61.27
392.544	135
392.753	122.71
392.963	8.02
393.172	89.94
393.382	75.6
393.591	173.91
393.801	130.9
394.01	143.19
394.22	18.26
394.429	81.75
394.639	118.61
394.848	83.8
395.058	32.6
395.267	200.53
395.477	-2.22
395.686	155.47
395.895	112.47
396.105	135
396.314	106.32
396.524	48.98
396.733	53.08
396.942	186.19
397.152	77.65
397.361	67.41
397.57	81.75
397.78	104.28
397.989	91.99
398.198	110.42
398.407	40.79
398.617	163.67
398.826	110.42
399.035	130.9
399.244	132.95
399.453	73.56
399.663	126.8
399.872	73.56
400.081	100.18
400.29	167.76
400.499	128.85
400.708	155.47
400.917	130.9
401.127	163.67
401.336	151.38
401.545	165.71
401.754	124.76
401.963	126.8
402.172	89.94
402.381	87.89
402.59	151.38
402.799	118.61
403.008	81.75
403.217	171.86
403.426	153.43
403.635	108.37
403.844	151.38
404.053	114.52
404.262	188.24
404.471	270.16
404.68	182.1
404.888	192.34
405.097	135
405.306	180.05
405.515	186.19
405.724	135
405.933	198.48
406.142	206.67
406.35	264.02
406.559	192.34
406.768	206.67
406.977	298.83
407.185	253.78
407.394	221.01
407.603	192.34
407.812	247.63
408.02	300.88
408.229	266.07
408.438	292.69
408.646	233.3
408.855	358.22
409.064	282.45
409.272	264.02
409.481	329.55
409.69	366.42
409.898	356.18
410.107	417.61
410.315	399.18
410.524	399.18
410.733	403.28
410.941	368.46
411.15	446.29
411.358	442.19
411.567	474.96
411.775	458.57
411.984	474.96
412.192	587.6
412.401	511.82
412.609	573.26
412.818	548.68
413.026	616.27
413.234	585.55
413.443	622.41
413.651	548.68
413.86	653.13
414.068	753.48
414.276	771.91
414.485	749.39
414.693	827.21
414.901	941.89
415.11	864.07
415.318	864.07
415.526	962.37
415.734	978.76
415.943	960.33
416.151	1083.2
416.359	935.75
416.567	1044.29
416.776	1044.29
416.984	1085.25
417.192	1126.21
417.4	1075.01
417.608	1179.46
417.817	1224.51
418.025	1247.04
418.233	1460.03
418.441	1306.43
418.649	1482.56
418.857	1447.74
419.065	1605.44
419.273	1494.85
419.481	1599.29
419.689	1703.74
419.897	1777.47
420.105	1724.22
420.313	1941.3
420.521	1945.4
420.729	1867.58
420.937	2023.22
421.145	2182.96
421.353	2209.59
421.561	2228.02
421.769	2316.08
421.977	2379.57
422.185	2441.01
422.393	2516.78
422.601	2797.35
422.809	2645.8
423.017	2866.99
423.224	2785.07
423.432	2924.33
423.64	3034.92
423.848	3231.52
424.056	3120.93
424.263	3284.77
424.471	3383.07
424.679	3491.62
424.887	3600.16
425.094	3784.48
425.302	3727.13
425.51	3813.15
425.718	4073.24
425.925	4058.9
426.133	4378.39
426.341	4460.31
426.548	4742.92
426.756	4591.38
426.964	4699.92
427.171	5013.26
427.379	5187.33
427.586	5218.05
427.794	5412.61
428.001	5650.18
428.209	5836.54
428.417	5601.02
428.624	6131.45
428.832	6072.06
429.039	6016.76
429.247	6039.29
429.454	6733.55
429.662	7077.61
429.869	6536.95
430.076	7040.75
430.284	6885.1
430.491	7143.14
430.699	7583.46
430.906	7485.16
431.114	7622.37
431.321	7974.62
431.528	8126.17
431.736	8814.29
431.943	8881.87
432.15	8814.29
432.358	8740.56
432.565	9420.49
432.772	9213.64
432.979	9762.5
433.187	9789.12
433.394	9797.31
433.601	10602.16
433.808	10569.4
434.016	10458.81
434.223	10890.93
434.43	11607.72
434.637	11366.06
434.844	12289.69
435.052	12123.8
435.259	12279.45
435.466	12426.9
435.673	12263.07
435.88	13194.89
436.087	13647.49
436.294	13674.12
436.501	13434.5
436.708	13608.58
436.915	13975.17
437.122	14657.14
437.329	14732.92
437.537	15214.19
437.743	15298.16
437.95	15357.55
438.157	16090.72
438.364	16596.57
438.571	16545.37
438.778	16739.93
438.985	18261.57
439.192	17487.43
439.399	17956.42
439.606	17624.65
439.813	18798.13
440.02	19693.1
440.227	19379.76
440.433	19025.46
440.64	19766.82
440.847	19379.76
441.054	20313.63
441.261	21446.16
441.467	21161.49
441.674	21765.64
441.881	22347.26
442.088	22052.36
442.294	21962.25
442.501	22685.18
442.708	23299.57
442.914	24243.68
443.121	24958.42
443.328	24333.79
443.534	26267.08
443.741	25175.51
443.948	24880.6
444.154	26797.5
444.361	26551.74
444.568	26676.67
444.774	26772.92
444.981	27127.22
445.187	27874.73
445.394	29068.7
445.6	28681.63
445.807	31522.16
446.013	29990.28
446.22	30616.96
446.426	31907.18
446.633	32034.16
446.839	33312.09
447.046	31554.93
447.252	33537.37
447.459	33465.69
447.665	33594.71
447.871	34571.59
448.078	36404.52
448.284	34655.56
448.491	35726.64
448.697	36871.46
448.903	37704.98
449.11	37592.34
449.316	37057.82
449.522	37602.58
449.728	38407.44
449.935	38970.63
450.141	38788.36
450.347	40226.03
450.553	38589.7
450.76	39085.31
450.966	40449.26
451.172	39920.88
451.378	40664.3
451.584	40439.02
451.791	41022.69
451.997	41045.22
452.203	41706.71
452.409	41510.11
452.615	41489.63
452.821	39730.42
453.027	39079.17
453.233	41460.96
453.44	40049.91
453.646	40641.77
453.852	40547.56
454.058	40635.63
454.264	39939.32
454.47	40500.46
454.676	39521.53
454.882	40848.61
455.088	37403.93
455.294	38053.14
455.5	38231.31
455.705	38860.04
455.911	37303.58
456.117	36570.41
456.323	36418.86
456.529	34088.27
456.735	35640.63
456.941	34297.16
457.147	34501.96
457.352	33097.05
457.558	32820.58
457.764	32671.07
457.97	32159.08
458.176	31196.54
458.381	31217.02
458.587	30033.29
458.793	29992.33
458.999	28448.16
459.204	30172.55
459.41	29783.44
459.616	27309.49
459.821	27940.27
460.027	27573.68
460.233	26838.46
460.438	25697.74
460.644	25990.6
460.85	24731.1
461.055	24241.64
461.261	24430.05
461.466	22087.17
461.672	21704.2
461.878	23309.81
462.083	21960.2
462.289	21298.7
462.494	21112.34
462.7	20037.16
462.905	19602.99
463.111	20108.83
463.316	20342.3
463.522	19596.84
463.727	19822.12
463.932	19885.61
464.138	19566.12
464.343	19611.18
464.549	18966.07
464.754	19695.14
464.959	19473.96
465.165	19318.32
465.37	18574.91
465.575	17970.76
465.781	18701.88
465.986	18847.29
466.191	18384.44
466.397	17614.41
466.602	16918.1
466.807	17448.52
467.012	17178.19
467.218	17284.69
467.423	17149.52
467.628	17172.05
467.833	17737.29
468.038	17081.94
468.244	16819.8
468.449	17448.52
468.654	16799.32
468.859	16696.92
469.064	16670.29
469.269	16060
469.474	16328.28
469.679	16461.4
469.885	16084.58
470.09	16096.86
470.295	15973.99
470.5	15740.52
470.705	15693.41
470.91	15359.59
471.115	15236.72
471.32	15429.23
471.525	15113.84
471.73	15036.02
471.935	14964.34
472.139	14388.86
472.344	14583.41
472.549	14544.5
472.754	14395
472.959	14001.79
473.164	13627.01
473.369	13629.06
473.574	14272.12
473.778	13868.67
473.983	13880.96
474.188	13749.89
474.393	13201.04
474.598	13229.71
474.802	12992.14
475.007	12877.46
475.212	12859.03
475.417	12265.11
475.621	12435.1
475.826	12527.25
476.031	12199.58
476.235	11968.16
476.44	12086.94
476.645	11919.01
476.849	11921.06
477.054	11785.89
477.259	11646.63
477.463	11853.47
477.668	11269.8
477.872	11574.95
478.077	11372.2
478.282	11032.24
478.486	11091.63
478.691	11007.66
478.895	10923.69
479.1	10667.7
479.304	10839.73
479.509	10428.09
479.713	10534.58
479.918	10348.22
480.122	10243.77
480.326	10149.56
480.531	10301.11
480.735	10174.14
480.94	10280.63
481.144	10432.18
481.348	10127.03
481.553	10038.97
481.757	9993.92
481.961	10092.22
482.166	10331.83
482.37	9879.23
482.574	9772.74
482.778	9897.66
482.983	10059.45
483.187	9912
483.391	9871.04
483.595	9805.5
483.8	9709.25
484.004	9774.78
484.208	9866.94
484.412	9813.7
484.616	9864.89
484.821	9733.82
485.025	9690.82
485.229	9797.31
485.433	9715.39
485.637	9830.08
485.841	9707.2
486.045	9797.31
486.249	9854.65
486.453	9660.1
486.657	9750.21
486.861	9850.56
487.065	9436.87
487.269	9731.78
487.473	9492.16
487.677	9742.02
487.881	9641.67
488.085	9651.91
488.289	9950.91
488.493	9787.07
488.697	9866.94
488.901	9828.03
489.105	9879.23
489.309	9744.06
489.512	9785.02
489.716	9952.96
489.92	9844.42
490.124	9998.01
490.328	9893.57
490.531	9903.81
490.735	10020.54
490.939	10176.19
491.143	9752.26
491.346	9985.72
491.55	10034.88
491.754	10006.2
491.958	10256.06
492.161	10077.88
492.365	10063.55
492.569	9983.68
492.772	10329.78
492.976	10288.82
493.18	10374.84
493.383	10350.26
493.587	10528.44
493.79	10571.44
493.994	10303.16
494.197	10305.21
494.401	10489.53
494.605	10616.5
494.808	10559.16
495.012	10737.33
495.215	10718.9
495.419	10852.02
495.622	10663.6
495.825	11046.57
496.029	10907.31
496.232	11124.4
496.436	11204.27
496.639	11292.33
496.843	11400.87
497.046	11611.81
497.249	11570.85
497.453	11673.25
497.656	11884.19
497.859	11771.55
498.063	11994.78
498.266	12134.04
498.469	12115.61
498.673	12297.88
498.876	12431
499.079	12535.45
499.282	12371.61
499.485	12844.69
499.689	12746.39
499.892	12959.38
500.095	12967.57
500.298	13262.47
500.501	13127.31
500.705	13438.6
500.908	13737.6
501.111	13737.6
501.314	14085.76
501.517	14073.47
501.72	14298.75
501.923	14169.73
502.126	14374.52
502.329	14603.89
502.532	14454.39
502.735	14890.61
502.938	15195.76
503.141	15269.48
503.344	15189.61
503.547	15285.87
503.75	15554.15
503.953	15814.24
504.156	16002.66
504.359	15818.34
504.562	16320.09
504.765	16186.97
504.968	16541.27
505.17	16776.79
505.373	16762.45
505.576	17217.1
505.779	17436.24
505.982	17374.8
506.185	17569.35
506.387	17493.58
506.59	17866.31
506.793	17794.63
506.996	18173.5
507.198	18757.18
507.401	18253.37
507.604	18722.36
507.807	19097.14
508.009	19082.8
508.212	19324.46
508.415	19465.77
508.617	19602.99
508.82	19910.18
509.022	19625.51
509.225	20327.97
509.428	20297.25
509.63	20432.41
509.833	20850.2
510.035	21069.33
510.238	21085.72
510.44	21407.25
510.643	21777.93
510.845	21857.8
511.048	21863.94
511.25	22136.32
511.453	22300.16
511.655	22799.87
511.858	22793.72
512.06	22828.54
512.262	23580.14
512.465	23324.15
512.667	24028.65
512.87	24036.84
513.072	23922.15
513.274	24337.89
513.477	24514.02
513.679	24479.2
513.881	24917.47
514.084	25404.88
514.286	24962.52
514.488	25314.77
514.69	26031.56
514.893	26162.63
515.095	25976.26
515.297	26320.32
515.499	26408.39
515.701	26949.05
515.904	27260.34
516.106	27514.29
516.308	27604.4
516.51	27989.42
516.712	27772.33
516.914	28269.99
517.116	28491.17
517.318	28573.09
517.52	28968.35
517.722	28544.42
517.925	29320.6
518.127	29521.3
518.329	29752.72
518.531	29517.2
518.733	30131.59
518.935	30188.94
519.136	30109.07
519.338	30594.43
519.54	30881.15
519.742	31182.2
519.944	31112.57
520.146	31397.24
520.348	31581.56
520.55	31745.39
520.752	32040.3
520.954	32195.95
521.155	32279.91
521.357	32662.88
521.559	32879.97
521.761	33162.59
521.963	33072.48
522.164	33285.47
522.366	33447.25
522.568	33451.35
522.77	33561.94
522.971	34024.78
523.173	33600.85
523.375	34121.04
523.576	33774.93
523.778	34032.97
523.98	34610.5
524.181	34450.76
524.383	34506.05
524.584	34964.8
524.786	34977.09
524.988	34880.83
525.189	34993.47
525.391	35462.46
525.592	35394.87
525.794	35476.79
525.995	35429.69
526.197	35325.24
526.398	35226.94
526.6	35505.46
526.801	35269.95
527.003	35681.59
527.204	35861.81
527.406	36437.29
527.607	35956.02
527.808	36248.88
528.01	35419.45
528.211	35759.41
528.412	36404.52
528.614	36214.06
528.815	36074.8
529.016	36672.81
529.218	36035.89
529.419	36142.38
529.62	36197.68
529.822	36183.34
530.023	36263.21
530.224	36279.6
530.425	36009.26
530.626	36082.99
530.828	35845.43
531.029	36304.17
531.23	35818.8
531.431	35632.44
531.632	35898.67
531.833	36154.67
532.035	35935.54
532.236	35939.63
532.437	36105.52
532.638	36042.03
532.839	35872.05
533.04	36310.32
533.241	35415.35
533.442	36420.91
533.643	35777.84
533.844	35771.7
534.045	35577.14
534.246	35679.54
534.447	35458.36
534.648	35689.78
534.849	35597.62
535.05	35245.37
535.251	35349.82
535.451	35478.84
535.652	35552.57
535.853	35638.58
536.054	35415.35
536.255	35515.7
536.456	34958.66
536.657	35523.9
536.857	35237.18
537.058	34964.8
537.259	35507.51
537.46	35142.97
537.66	34686.28
537.861	35192.12
538.062	34919.74
538.263	35425.59
538.463	34909.5
538.664	34618.69
538.865	34899.26
539.065	35358.01
539.266	34331.98
539.466	35194.17
539.667	34270.54
539.868	34995.52
540.068	34770.24
540.269	34686.28
540.469	35126.59
540.67	34518.34
540.87	34555.21
541.071	34401.61
541.271	34815.3
541.472	34616.65
541.672	34516.29
541.873	34387.27
542.073	34243.91
542.274	34567.49
542.474	34188.62
542.675	34055.5
542.875	34538.82
543.075	34260.3
543.276	33953.1
543.476	34401.61
543.676	34346.31
543.877	34301.26
544.077	34196.81
544.277	34217.29
544.478	34180.43
544.678	34202.96
544.878	34245.96
545.078	34114.89
545.279	34100.56
545.479	34362.7
545.679	34293.07
545.879	34286.92
546.079	34680.13
546.28	34198.86
546.48	33840.46
546.68	34176.33
546.88	34458.95
547.08	33938.77
547.28	34282.83
547.48	33891.66
547.68	33805.65
547.88	34032.97
548.081	33881.42
548.281	33903.95
548.481	33981.77
548.681	34129.23
548.881	34278.73
549.081	33844.56
549.28	33951.06
549.48	34184.52
549.68	33883.47
549.88	34035.02
550.08	33846.61
550.28	33996.11
550.48	33895.76
550.68	34397.51
550.88	33899.86
551.08	34182.48
551.279	34481.48
551.479	33389.91
551.679	34094.41
551.879	33856.85
552.079	34338.12
552.278	34317.64
552.478	33869.14
552.678	33783.12
552.878	34399.56
553.077	33996.11
553.277	33813.84
553.477	34544.97
553.676	34114.89
553.876	34327.88
554.076	34133.32
554.275	34209.1
554.475	33989.97
554.674	34581.83
554.874	34196.81
555.074	34069.84
555.273	34231.63
555.473	34569.54
555.672	34393.42
555.872	34301.26
556.071	34266.44
556.271	34397.51
556.47	34108.75
556.67	34270.54
556.869	34256.2
557.068	34553.16
557.268	33946.96
557.467	34340.17
557.667	34231.63
557.866	34389.32
558.065	34176.33
558.265	34116.94
558.464	33959.25
558.663	34266.44
558.863	34010.45
559.062	34848.07
559.261	34133.32
559.461	34501.96
559.66	33895.76
559.859	34336.07
560.058	34340.17
560.258	34489.67
560.457	33938.77
560.656	34356.55
560.855	34012.49
561.054	34528.58
561.253	33887.57
561.453	34268.49
561.652	34745.67
561.851	34702.66
562.05	33895.76
562.249	33770.83
562.448	34518.34
562.647	34321.74
562.846	33989.97
563.045	34143.56
563.244	33805.65
563.443	34434.38
563.642	33650
563.841	34006.35
564.04	34059.6
564.239	34401.61
564.438	33588.56
564.637	33824.08
564.836	34010.45
565.035	33688.92
565.234	33752.4
565.432	33883.47
565.631	33750.35
565.83	33856.85
566.029	33719.63
566.228	33738.07
566.427	33981.77
566.625	33396.06
566.824	33559.89
567.023	33662.29
567.222	33115.48
567.42	33494.36
567.619	33351
567.818	33467.73
568.016	33117.53
568.215	33332.57
568.414	33178.97
568.612	33486.17
568.811	33211.74
569.01	32990.56
569.208	32632.16
569.407	33185.11
569.605	32707.94
569.804	32580.96
570.002	32486.76
570.201	32650.6
570.4	32656.74
570.598	32527.72
570.797	32327.02
570.995	32550.24
571.193	32148.84
571.392	32447.85
571.59	32175.47
571.789	32165.23
571.987	32122.22
572.186	32251.24
572.384	31645.04
572.582	31905.13
572.781	31878.51
572.979	31282.55
573.177	31636.85
573.376	31944.05
573.574	31520.12
573.772	31495.54
573.971	31585.65
574.169	31239.54
574.367	30973.31
574.565	31083.9
574.763	30483.84
574.962	30637.44
575.16	30602.63
575.358	30846.33
575.556	30733.7
575.754	31038.84
575.952	30594.43
576.151	30576
576.349	30231.94
576.547	30526.85
576.745	30467.46
576.943	30197.13
577.141	30338.44
577.339	30115.21
577.537	29992.33
577.735	29695.38
577.933	29392.28
578.131	29967.76
578.329	29857.17
578.527	29635.99
578.725	29576.59
578.923	29607.31
579.121	29212.06
579.319	29359.51
579.516	29488.53
579.714	29392.28
579.912	29330.84
580.11	28786.08
580.308	29117.85
580.506	28863.9
580.704	28523.94
580.901	28804.51
581.099	29142.42
581.297	28669.34
581.495	28687.78
581.692	28470.69
581.89	28466.59
582.088	28374.44
582.285	28376.48
582.483	28171.69
582.681	28423.59
582.878	28300.71
583.076	28030.38
583.274	28206.5
583.471	27909.55
583.669	27841.96
583.866	27784.62
584.064	27829.68
584.262	27631.02
584.459	27801.01
584.657	27553.2
584.854	27901.36
585.052	27475.38
585.249	27483.57
585.447	27440.56
585.644	27327.92
585.841	27225.53
586.039	27696.56
586.236	27145.66
586.434	27039.16
586.631	26992.06
586.828	26858.94
587.026	26881.47
587.223	26817.98
587.42	26572.22
587.618	27026.87
587.815	26336.71
588.012	26260.93
588.21	26389.95
588.407	26684.86
588.604	26269.12
588.801	26205.64
588.999	26283.46
589.196	26449.35
589.393	25951.69
589.59	25939.4
589.787	25955.79
589.984	25611.73
590.182	25863.63
590.379	25869.77
590.576	25787.85
590.773	25847.24
590.97	25908.68
591.167	25826.76
591.364	25492.94
591.561	25871.82
591.758	24952.28
591.955	25325.01
592.152	25746.89
592.349	25193.94
592.546	25468.37
592.743	25427.41
592.94	24954.33
593.137	25380.31
593.334	25456.08
593.531	25079.25
593.727	25241.04
593.924	25124.31
594.121	24794.59
594.318	24896.99
594.515	24614.37
594.712	24741.34
594.908	24856.03
595.105	24839.64
595.302	24632.8
595.499	24538.59
595.696	24794.59
595.892	24696.28
596.089	24880.6
596.286	24677.85
596.482	24405.47
596.679	24659.42
596.876	24653.28
597.072	24581.6
597.269	24526.3
597.466	24264.16
597.662	24522.21
597.859	24231.4
598.055	24384.99
598.252	24221.16
598.448	24303.07
598.645	24315.36
598.841	23660.01
599.038	24432.1
599.234	24454.62
599.431	24376.8
599.627	24262.12
599.824	24323.55
600.02	24202.72
600.217	24159.72
600.413	24028.65
600.609	24120.81
600.806	24219.11
601.002	24331.75
601.198	23848.43
601.395	24008.17
601.591	24268.26
601.787	24266.21
601.984	24139.24
602.18	24253.92
602.376	24188.39
602.572	24397.28
602.769	23717.36
602.965	24135.14
603.161	24071.65
603.357	24198.63
603.553	24131.05
603.75	24530.4
603.946	24364.51
604.142	24491.49
604.338	24104.42
604.534	24810.97
604.73	24065.51
604.926	24262.12
605.122	24440.29
605.318	24358.37
605.514	24229.35
605.71	24479.2
605.906	24266.21
606.102	24677.85
606.298	24526.3
606.494	24368.61
606.69	24389.09
606.886	24341.99
607.082	24442.34
607.278	24694.24
607.474	24444.38
607.67	24636.89
607.866	24405.47
608.062	24823.26
608.257	24972.76
608.453	25026.01
608.649	24993.24
608.845	24716.76
609.041	24690.14
609.236	24937.94
609.432	24931.8
609.628	24905.18
609.824	25056.73
610.019	24743.39
610.215	25118.17
610.411	25202.13
610.606	25099.73
610.802	25204.18
610.998	25050.58
611.193	25509.33
611.389	24931.8
611.584	25206.23
611.78	24972.76
611.976	25378.26
612.171	25212.37
612.367	25128.41
612.562	25419.22
612.758	24960.47
612.953	25159.13
613.149	25402.83
613.344	25058.77
613.539	25730.51
613.735	25398.74
613.93	25703.89
614.126	25175.51
614.321	25685.45
614.517	25798.09
614.712	25357.78
614.907	25720.27
615.103	25671.12
615.298	25296.34
615.493	25677.26
615.688	25327.06
615.884	26133.96
616.079	25566.67
616.274	25611.73
616.47	25667.02
616.665	25748.94
616.86	25544.14
617.055	25626.06
617.25	25630.16
617.445	26021.32
617.641	25169.37
617.836	25556.43
618.031	25507.28
618.226	25474.51
618.421	25413.07
618.616	25423.31
618.811	25165.27
619.006	25513.42
619.201	25325.01
619.396	25398.74
619.591	24798.68
619.786	25087.45
619.981	24929.75
620.176	25052.63
620.371	24876.51
620.566	24892.89
620.761	24927.7
620.956	24993.24
621.151	24471.01
621.346	24628.7
621.541	24333.79
621.735	24618.46
621.93	24149.48
622.125	24231.4
622.32	23938.54
622.515	24137.19
622.709	24012.26
622.904	23797.23
623.099	23735.79
623.294	23829.99
623.488	23600.62
623.683	23541.23
623.878	23320.05
624.072	23602.67
624.267	23209.46
624.462	23213.56
624.656	23174.64
624.851	23053.81
625.046	22906.36
625.24	22746.62
625.435	22767.1
625.629	22685.18
625.824	22543.87
626.018	22273.54
626.213	22105.6
626.407	22234.63
626.602	21782.02
626.796	21859.85
626.991	21974.53
627.185	21886.47
627.38	21636.62
627.574	21620.24
627.768	21536.27
627.963	21558.8
628.157	21265.94
628.352	21136.91
628.546	20739.61
628.74	21175.83
628.935	20749.85
629.129	20741.66
629.323	20516.38
629.517	20837.91
629.712	20635.16
629.906	20559.39
630.1	20387.36
630.294	20551.2
630.489	20078.11
630.683	20200.99
630.877	19707.43
631.071	19762.73
631.265	19768.87
631.459	19795.5
631.653	19531.31
631.848	19711.53
632.042	19469.87
632.236	19301.93
632.43	18996.79
632.624	19160.62
632.818	19060.27
633.012	18875.96
633.206	18927.16
633.4	19084.85
633.594	18513.47
633.788	18798.13
633.982	18146.88
634.176	18404.92
634.369	18280
634.563	18204.22
634.757	18044.48
634.951	18173.5
635.145	18026.05
635.339	18005.57
635.533	17892.93
635.726	17845.83
635.92	17454.67
636.114	17460.81
636.308	17075.79
636.501	17464.91
636.695	17329.74
636.889	17057.36
637.083	16813.65
637.276	16989.78
637.47	16866.9
637.664	16936.53
637.857	16883.28
638.051	16410.2
638.244	16492.12
638.438	16451.16
638.632	16330.33
638.825	16262.75
639.019	15867.49
639.212	16066.14
639.406	16090.72
639.599	15967.84
639.793	15924.83
639.986	15543.91
640.18	15867.49
640.373	15580.78
640.567	15095.41
640.76	15246.96
640.954	15197.81
641.147	15044.21
641.34	15042.16
641.534	14911.09
641.727	14986.86
641.92	14724.72
642.114	14931.57
642.307	14906.99
642.5	14499.45
642.694	14112.38
642.887	14286.46
643.08	14464.63
643.273	14241.4
643.467	14077.57
643.66	13788.8
643.853	14190.2
644.046	13805.19
644.239	13663.88
644.432	13598.34
644.626	13682.31
644.819	13448.84
645.012	13500.04
645.205	13401.74
645.398	13371.02
645.591	13229.71
645.784	13313.67
645.977	13076.11
646.17	13063.82
646.363	12893.84
646.556	12691.09
646.749	12715.67
646.942	12840.59
647.135	12551.83
647.328	12793.49
647.521	12605.08
647.714	12197.53
647.907	12277.4
648.099	12482.2
648.292	12414.62
648.485	12107.42
648.678	12058.27
648.871	11857.57
649.064	11955.87
649.256	12013.21
649.449	11931.3
649.642	11787.94
649.835	11599.52
650.027	11724.45
650.22	11439.78
650.413	11314.86
650.605	11310.76
650.798	11447.97
650.991	11255.47
651.183	11218.6
651.376	11159.21
651.568	11198.12
651.761	11022
651.954	11001.52
652.146	10970.8
652.339	10700.47
652.531	11001.52
652.724	10757.81
652.916	10591.92
653.109	10710.71
653.301	10550.96
653.494	10581.68
653.686	10411.7
653.879	10651.31
654.071	10305.21
654.263	10194.62
654.456	10202.81
654.648	10278.58
654.84	10133.18
655.033	10112.7
655.225	9989.82
655.417	10010.3
655.61	9985.72
655.802	9903.81
655.994	9803.46
656.186	9701.06
656.379	9766.59
656.571	9709.25
656.763	9649.86
656.955	9488.07
657.148	9813.7
657.34	9514.69
657.532	9424.58
657.724	9340.61
657.916	9289.42
658.108	9262.79
658.3	9199.3
658.492	9144.01
658.684	9164.49
658.876	9062.09
659.068	9103.05
659.26	8943.31
659.452	8834.77
659.644	8906.45
659.836	8713.94
660.028	8558.29
660.22	8629.97
660.412	8699.6
660.604	8556.24
660.796	8761.04
660.988	8505.04
661.18	8373.97
661.372	8373.97
661.563	8341.21
661.755	8283.86
661.947	8382.17
662.139	8216.28
662.331	8330.97
662.522	8171.22
662.714	8054.49
662.906	8077.02
663.097	8126.17
663.289	7831.26
663.481	7972.57
663.673	7810.78
663.864	7814.88
664.056	7741.15
664.247	7794.4
664.439	7732.96
664.631	7603.94
664.822	7757.53
665.014	7534.31
665.205	7519.97
665.397	7497.44
665.588	7374.56
665.78	7440.1
665.971	7220.97
666.163	7397.09
666.354	7341.8
666.546	7339.75
666.737	7061.23
666.929	7171.82
667.12	7280.36
667.311	7110.38
667.503	7014.12
667.694	7036.65
667.885	6960.88
668.077	7034.6
668.268	7104.23
668.459	6985.45
668.651	6899.44
668.842	6737.65
669.033	6784.75
669.224	6825.71
669.416	7003.88
669.607	6686.45
669.798	6635.25
669.989	6893.29
670.18	6684.4
670.371	6538.99
670.563	6686.45
670.754	6612.72
670.945	6543.09
671.136	6637.3
671.327	6582
671.518	6323.96
671.709	6446.83
671.9	6424.31
672.091	6313.72
672.282	6412.02
672.473	6364.92
672.664	6287.09
672.855	6168.31
673.046	6287.09
673.237	6326
673.428	6305.53
673.619	6203.13
673.809	6145.78
674	6145.78
674.191	6217.46
674.382	6186.74
674.573	6096.63
674.764	6055.67
674.954	6031.1
675.145	5990.14
675.336	5897.98
675.527	6041.34
675.717	5988.09
675.908	6090.49
676.099	5932.79
676.289	5994.23
676.48	5943.03
676.671	5742.33
676.861	5852.92
677.052	5836.54
677.243	5754.62
677.433	5949.18
677.624	5861.12
677.814	5773.05
678.005	5914.36
678.195	5881.6
678.386	5758.72
678.576	5811.96
678.767	5687.04
678.957	5777.15
679.148	5773.05
679.338	5803.77
679.529	5857.02
679.719	5691.13
679.909	5785.34
680.1	5684.99
680.29	5641.98
680.481	5607.17
680.671	5740.29
680.861	5555.97
681.052	5582.59
681.242	5752.57
681.432	5697.28
681.622	5529.34
681.813	5605.12
682.003	5496.58
682.193	5533.44
682.383	5578.5
682.573	5650.18
682.764	5449.47
682.954	5666.56
683.144	5547.78
683.334	5529.34
683.524	5443.33
683.714	5515.01
683.904	5482.24
684.094	5455.62
684.284	5426.95
684.474	5408.51
684.664	5480.19
684.854	5496.58
685.044	5336.84
685.234	5433.09
685.424	5492.48
685.614	5213.96
685.804	5474.05
685.994	5539.58
686.184	5349.12
686.374	5357.32
686.564	5394.18
686.753	5340.93
686.943	5271.3
687.133	5371.65
687.323	5269.25
687.513	5283.59
687.702	5261.06
687.892	5365.51
688.082	5150.47
688.272	5232.39
688.461	5242.63
688.651	5095.18
688.841	5113.61
689.03	5140.23
689.22	4941.58
689.41	5111.56
689.599	5103.37
689.789	5097.22
689.979	5050.12
690.168	5015.3
690.358	5054.22
690.547	4910.86
690.737	5013.26
690.926	5043.98
691.116	4869.9
691.305	4914.95
691.495	4884.23
691.684	4898.57
691.874	4921.1
692.063	4882.19
692.252	4837.13
692.442	4974.35
692.631	4845.32
692.82	4738.83
693.01	4710.16
693.199	4876.04
693.388	4857.61
693.578	4622.09
693.767	4822.8
693.956	4783.88
694.146	4677.39
694.335	4796.17
694.524	4706.06
694.713	4869.9
694.902	4742.92
695.092	4579.09
695.281	4613.9
695.47	4693.77
695.659	4620.05
695.848	4661.01
696.037	4654.86
696.226	4519.7
696.415	4644.62
696.604	4710.16
696.793	4501.26
696.982	4572.94
697.171	4595.47
697.36	4536.08
697.549	4531.98
697.738	4460.31
697.927	4425.49
698.116	4355.86
698.305	4394.77
698.494	4529.94
698.683	4374.29
698.872	4458.26
699.061	4480.78
699.25	4312.85
699.438	4425.49
699.627	4345.62
699.816	4366.1
700.005	4290.32
700.193	4251.41
700.382	4480.78
700.571	4341.52
700.76	4374.29
700.948	4359.95
701.137	4222.74
701.326	4325.14
701.514	4271.89
701.703	4226.84
701.892	4165.4
702.08	4271.89
702.269	4245.27
702.457	4120.34
702.646	4265.75
702.834	4144.92
703.023	4132.63
703.212	4165.4
703.4	3991.32
703.589	4063
703.777	4144.92
703.965	4063
704.154	4138.77
704.342	4011.8
704.531	3960.6
704.719	3858.2
704.907	4163.35
705.096	3960.6
705.284	4013.85
705.472	3882.78
705.661	3981.08
705.849	4042.52
706.037	3997.46
706.226	3970.84
706.414	3868.44
706.602	3786.52
706.79	3841.82
706.979	3872.54
707.167	3870.49
707.355	3854.11
707.543	3776.28
707.731	3890.97
707.919	3725.08
708.107	3927.83
708.296	3694.36
708.484	3718.94
708.672	3639.07
708.86	3661.6
709.048	3749.66
709.236	3651.36
709.424	3741.47
709.612	3643.17
709.8	3727.13
709.988	3624.73
710.176	3776.28
710.364	3737.37
710.551	3669.79
710.739	3696.41
710.927	3626.78
711.115	3616.54
711.303	3710.75
711.491	3557.15
711.679	3639.07
711.866	3577.63
712.054	3591.97
712.242	3499.81
712.43	3579.68
712.617	3555.1
712.805	3606.3
712.993	3503.9
713.181	3387.17
713.368	3417.89
713.556	3516.19
713.744	3358.5
713.931	3596.06
714.119	3395.36
714.306	3469.09
714.494	3368.74
714.682	3335.97
714.869	3405.6
715.057	3456.8
715.244	3387.17
715.432	3352.35
715.619	3309.35
715.807	3219.24
715.994	3399.46
716.182	3301.15
716.369	3335.97
716.556	3352.35
716.744	3340.07
716.931	3301.15
717.119	3217.19
717.306	3276.58
717.493	3311.39
717.681	3374.88
717.868	3266.34
718.055	3258.15
718.242	3196.71
718.43	3260.2
718.617	3153.7
718.804	3223.33
718.991	3282.72
719.179	3108.65
719.366	3116.84
719.553	3239.72
719.74	3137.32
719.927	3114.79
720.114	3073.83
720.301	3059.49
720.488	3082.02
720.676	2993.96
720.863	3217.19
721.05	3092.26
721.237	3006.25
721.424	3061.54
721.611	2989.86
721.798	2987.82
721.985	2967.34
722.172	3022.63
722.358	3008.3
722.545	3047.21
722.732	2869.03
722.919	2907.94
723.106	2873.13
723.293	3016.49
723.48	2834.22
723.667	2883.37
723.853	2948.9
724.04	2983.72
724.227	2942.76
724.414	2969.38
724.6	3010.34
724.787	2832.17
724.974	2869.03
725.161	2862.89
725.347	2760.49
725.534	2772.78
725.72	2869.03
725.907	2932.52
726.094	2758.44
726.28	2729.77
726.467	2803.5
726.653	2770.73
726.84	2715.44
727.027	2770.73
727.213	2602.8
727.4	2713.39
727.586	2746.16
727.773	2723.63
727.959	2670.38
728.145	2795.31
728.332	2582.32
728.518	2785.07
728.705	2740.01
728.891	2623.28
729.077	2610.99
729.264	2533.17
729.45	2637.61
729.636	2680.62
729.823	2555.69
730.009	2582.32
730.195	2631.47
730.382	2674.48
730.568	2539.31
730.754	2619.18
730.94	2580.27
731.126	2631.47
731.313	2531.12
731.499	2621.23
731.685	2617.13
731.871	2565.93
732.057	2563.89
732.243	2578.22
732.429	2506.54
732.615	2613.04
732.801	2602.8
732.987	2563.89
733.173	2496.3
733.359	2613.04
733.545	2486.06
733.731	2498.35
733.917	2420.53
734.103	2516.78
734.289	2428.72
734.475	2359.09
734.661	2522.93
734.847	2451.25
735.033	2514.73
735.219	2352.95
735.404	2314.03
735.59	2461.49
735.776	2498.35
735.962	2441.01
736.148	2422.58
736.333	2291.51
736.519	2301.75
736.705	2418.48
736.89	2277.17
737.076	2383.66
737.262	2262.83
737.447	2287.41
737.633	2350.9
737.819	2414.38
738.004	2303.79
738.19	2256.69
738.375	2268.98
738.561	2463.54
738.747	2322.23
738.932	2182.96
739.118	2340.66
739.303	2426.67
739.489	2199.35
739.674	2039.61
739.859	2166.58
740.045	2309.94
740.23	2346.8
740.416	2291.51
740.601	2260.79
740.786	2252.59
740.972	2219.83
741.157	2107.19
741.342	2125.62
741.528	2195.25
741.713	2129.72
741.898	2170.68
742.084	2125.62
742.269	2123.57
742.454	2185.01
742.639	2187.06
742.824	1961.78
743.01	2072.37
743.195	2033.46
743.38	2000.69
743.565	2058.04
743.75	2043.7
743.935	1974.07
744.12	1986.36
744.305	1982.26
744.49	1982.26
744.675	2058.04
744.86	1953.59
745.045	1908.54
745.23	1916.73
745.415	1967.93
745.6	2060.09
745.785	1888.06
745.97	1863.48
746.155	2055.99
746.34	1861.43
746.525	1945.4
746.71	1953.59
746.895	1896.25
747.079	1814.33
747.264	1836.86
747.449	1879.86
747.634	1826.62
747.819	1888.06
748.003	1804.09
748.188	1783.61
748.373	1687.36
748.557	1773.37
748.742	1703.74
748.927	1736.51
749.111	1740.6
749.296	1689.4
749.481	1785.66
749.665	1617.72
749.85	1599.29
750.034	1615.68
750.219	1599.29
750.404	1605.44
750.588	1634.11
750.773	1605.44
750.957	1640.25
751.141	1591.1
751.326	1548.09
751.51	1580.86
751.695	1580.86
751.879	1605.44
752.064	1572.67
752.248	1539.9
752.432	1613.63
752.617	1453.89
752.801	1591.1
752.985	1457.98
753.17	1576.77
753.354	1525.57
753.538	1552.19
753.722	1478.46
753.907	1408.83
754.091	1441.6
754.275	1443.65
754.459	1443.65
754.643	1351.49
754.828	1376.06
755.012	1335.1
755.196	1396.54
755.38	1318.72
755.564	1294.15
755.748	1304.39
755.932	1351.49
756.116	1333.06
756.3	1376.06
756.484	1326.91
756.668	1290.05
756.852	1361.73
757.036	1302.34
757.22	1269.57
757.404	1220.42
757.588	1302.34
757.772	1134.4
757.956	1273.67
758.14	1212.23
758.323	1261.38
758.507	1312.58
758.691	1138.5
758.875	1154.88
759.059	1113.92
759.242	1099.59
759.426	1185.6
759.61	1238.85
759.794	1103.68
759.977	1191.75
760.161	1253.19
760.345	1165.12
760.528	1187.65
760.712	1150.79
760.895	1191.75
761.079	1075.01
761.263	1077.06
761.446	1089.35
761.63	1066.82
761.813	1081.16
761.997	1120.07
762.18	1085.25
762.364	1101.64
762.547	970.57
762.731	1095.49
762.914	1150.79
763.098	991.05
763.281	1032.01
763.464	999.24
763.648	937.8
763.831	966.47
764.015	952.13
764.198	1124.16
764.381	1017.67
764.564	1017.67
764.748	974.66
764.931	1023.81
765.114	1023.81
765.297	952.13
765.481	925.51
765.664	902.98
765.847	933.7
766.03	1007.43
766.213	939.85
766.397	968.52
766.58	970.57
766.763	997.19
766.946	974.66
767.129	892.74
767.312	941.89
767.495	945.99
767.678	884.55
767.861	982.85
768.044	982.85
768.227	941.89
768.41	909.13
768.593	892.74
768.776	958.28
768.959	943.94
769.142	878.41
769.324	907.08
769.507	890.7
769.69	843.59
769.873	943.94
770.056	954.18
770.239	900.94
770.421	960.33
770.604	843.59
770.787	843.59
770.97	851.78
771.152	784.2
771.335	802.63
771.518	814.92
771.7	966.47
771.883	816.97
772.066	812.87
772.248	814.92
772.431	915.27
772.613	900.94
772.796	745.29
772.978	827.21
773.161	855.88
773.343	911.18
773.526	720.71
773.708	755.53
773.891	737.1
774.073	837.45
774.256	823.11
774.438	853.83
774.621	876.36
774.803	696.14
774.985	747.34
775.168	747.34
775.35	671.56
775.532	868.17
775.715	722.76
775.897	687.95
776.079	755.53
776.261	694.09
776.444	687.95
776.626	714.57
776.808	712.52
776.99	696.14
777.173	716.62
777.355	663.37
777.537	702.28
777.719	646.99
777.901	653.13
778.083	573.26
778.265	581.45
778.447	655.18
778.629	644.94
778.811	655.18
778.993	712.52
779.175	700.23
779.357	687.95
779.539	661.32
779.721	593.74
779.903	657.23
780.085	655.18
780.267	640.84
780.449	538.45
780.631	651.08
780.812	591.69
780.994	624.46
781.176	552.78
781.358	628.56
781.54	534.35
781.721	517.97
781.903	575.31
782.085	593.74
782.267	597.84
782.448	503.63
782.63	556.88
782.812	573.26
782.993	575.31
783.175	548.68
783.357	515.92
783.538	540.49
783.72	485.2
783.901	524.11
784.083	520.01
784.264	517.97
784.446	419.66
784.627	444.24
784.809	560.97
784.99	528.21
785.172	544.59
785.353	474.96
785.535	483.15
785.716	515.92
785.897	458.57
786.079	452.43
786.26	493.39
786.441	438.09
786.623	409.42
786.804	458.57
786.985	384.85
787.167	474.96
787.348	501.58
787.529	450.38
787.71	515.92
787.891	462.67
788.073	474.96
788.254	407.38
788.435	413.52
788.616	417.61
788.797	386.9
788.978	438.09
789.159	331.6
789.34	345.94
789.522	491.34
789.703	368.46
789.884	331.6
790.065	425.81
790.246	495.44
790.427	407.38
790.607	409.42
790.788	352.08
790.969	341.84
791.15	409.42
791.331	352.08
791.512	417.61
791.693	354.13
791.874	376.66
792.054	444.24
792.235	417.61
792.416	343.89
792.597	255.83
792.778	386.9
792.958	302.93
793.139	354.13
793.32	356.18
793.5	409.42
793.681	413.52
793.862	378.7
794.042	343.89
794.223	247.63
794.404	282.45
794.584	360.27
794.765	327.5
794.945	276.31
795.126	280.4
795.306	313.17
795.487	319.31
795.667	368.46
795.848	302.93
796.028	323.41
796.209	270.16
796.389	317.26
796.57	206.67
796.75	253.78
796.93	311.12
797.111	253.78
797.291	313.17
797.471	288.59
797.652	327.5
797.832	315.22
798.012	257.87
798.192	237.39
798.373	278.35
798.553	245.59
798.733	311.12
798.913	225.11
799.093	255.83
799.274	245.59
799.454	266.07
799.634	296.78
799.814	192.34
799.994	280.4
800.174	245.59
800.354	319.31
800.534	223.06
800.714	288.59
800.894	251.73
801.074	202.58
801.254	171.86
801.434	200.53
801.614	243.54
801.794	270.16
801.974	704.33
802.154	153.43
802.334	184.15
802.514	206.67
802.693	253.78
802.873	188.24
803.053	343.89
803.233	235.35
803.413	196.43
803.592	286.54
803.772	216.91
803.952	280.4
804.131	266.07
804.311	302.93
804.491	214.87
804.67	235.35
804.85	204.63
805.03	223.06
805.209	261.97
805.389	204.63
805.568	257.87
805.748	192.34
805.928	218.96
806.107	288.59
806.287	196.43
806.466	264.02
806.646	167.76
806.825	212.82
807.004	239.44
807.184	171.86
807.363	182.1
807.543	239.44
807.722	137.04
807.901	206.67
808.081	173.91
808.26	231.25
808.439	192.34
808.619	188.24
808.798	231.25
808.977	167.76
809.156	290.64
809.336	188.24
809.515	147.28
809.694	139.09
809.873	188.24
810.052	196.43
810.231	210.77
810.411	106.32
810.59	212.82
810.769	225.11
810.948	188.24
811.127	173.91
811.306	171.86
811.485	180.05
811.664	259.92
811.843	141.14
812.022	194.39
812.201	130.9
812.38	167.76
812.559	135
812.737	229.2
812.916	155.47
813.095	155.47
813.274	204.63
813.453	204.63
813.632	143.19
813.811	141.14
813.989	165.71
814.168	141.14
814.347	180.05
814.526	124.76
814.704	122.71
814.883	200.53
815.062	124.76
815.24	253.78
815.419	122.71
815.598	225.11
815.776	116.56
815.955	165.71
816.133	104.28
816.312	130.9
816.49	89.94
816.669	124.76
816.847	116.56
817.026	151.38
817.204	100.18
817.383	100.18
817.561	100.18
817.74	147.28
817.918	188.24
818.097	89.94
818.275	122.71
818.453	171.86
818.632	180.05
818.81	130.9
818.988	159.57
819.167	85.84
819.345	85.84
819.523	194.39
819.701	206.67
819.879	94.04
820.058	163.67
820.236	130.9
820.414	130.9
820.592	135
820.77	135
820.948	196.43
821.127	77.65
821.305	81.75
821.483	81.75
821.661	89.94
821.839	57.17
822.017	114.52
822.195	159.57
822.373	128.85
822.551	208.72
822.729	137.04
822.907	169.81
823.085	165.71
823.262	135
823.44	122.71
823.618	98.13
823.796	118.61
823.974	91.99
824.152	65.36
824.329	65.36
824.507	188.24
824.685	75.6
824.863	126.8
825.04	91.99
825.218	120.66
825.396	73.56
825.574	44.88
825.751	122.71
825.929	114.52
826.107	59.22
826.284	100.18
826.462	83.8
826.639	67.41
826.817	155.47
826.994	100.18
827.172	24.4
827.349	106.32
827.527	87.89
827.704	122.71
827.882	135
828.059	77.65
828.237	55.12
828.414	81.75
828.591	12.12
828.769	73.56
828.946	40.79
829.124	167.76
829.301	135
829.478	32.6
829.655	57.17
829.833	48.98
830.01	57.17
830.187	139.09
830.364	73.56
830.542	141.14
830.719	91.99
830.896	48.98
831.073	98.13
831.25	67.41
831.427	116.56
831.604	42.84
831.782	94.04
831.959	-16.55
832.136	83.8
832.313	40.79
832.49	3.93
832.667	44.88
832.844	65.36
833.021	173.91
833.198	94.04
833.374	48.98
833.551	139.09
833.728	40.79
833.905	96.08
834.082	16.21
834.259	77.65
834.436	110.42
834.612	48.98
834.789	69.46
834.966	106.32
835.143	147.28
835.319	42.84
835.496	32.6
835.673	34.64
835.85	180.05
836.026	94.04
836.203	116.56
836.38	28.5
836.556	149.33
836.733	48.98
836.909	67.41
837.086	28.5
837.262	98.13
837.439	132.95
837.616	73.56
837.792	69.46
837.968	96.08
838.145	114.52
838.321	16.21
838.498	75.6
838.674	102.23
838.851	75.6
839.027	24.4
839.203	106.32
839.38	59.22
839.556	98.13
839.732	81.75
839.909	24.4
840.085	42.84
840.261	57.17
840.437	106.32
840.614	-0.17
840.79	106.32
840.966	91.99
841.142	-16.55
841.318	108.37
841.494	118.61
841.671	53.08
841.847	3.93
842.023	51.03
842.199	67.41
842.375	65.36
842.551	10.07
842.727	36.69
842.903	100.18
843.079	-34.99
843.255	106.32
843.431	24.4
843.607	106.32
843.783	-0.17
843.959	79.7
844.134	100.18
844.31	3.93
844.486	71.51
844.662	40.79
844.838	40.79
845.013	67.41
845.189	67.41
845.365	48.98
845.541	73.56
845.716	57.17
845.892	73.56
846.068	32.6
846.244	34.64
846.419	69.46
846.595	34.64
846.77	116.56
846.946	83.8
847.122	42.84
847.297	-22.7
847.473	81.75
847.648	-82.09
847.824	77.65
847.999	5.97
848.175	40.79
848.35	12.12
848.526	122.71
848.701	32.6
848.876	40.79
849.052	42.84
849.227	32.6
849.403	61.27
849.578	26.45
849.753	61.27
849.929	167.76
850.104	-24.75
850.279	28.5
850.454	51.03
850.63	55.12
850.805	53.08
850.98	57.17
851.155	44.88
851.33	120.66
851.505	24.4
851.681	57.17
851.856	5.97
852.031	36.69
852.206	57.17
852.381	-0.17
852.556	-0.17
852.731	8.02
852.906	34.64
853.081	34.64
853.256	61.27
853.431	10.07
853.606	1.88
853.781	34.64
853.956	-16.55
854.131	10.07
854.305	28.5
854.48	53.08
854.655	40.79
854.83	53.08
855.005	-8.36
855.18	40.79
855.354	-16.55
855.529	61.27
855.704	75.6
855.879	73.56
856.053	-39.08
856.228	73.56
856.403	-22.7
856.577	83.8
856.752	24.4
856.926	26.45
857.101	40.79
857.276	-32.94
857.45	-20.65
857.625	51.03
857.799	98.13
857.974	-8.36
858.148	28.5
858.323	-20.65
858.497	16.21
858.672	1.88
858.846	-37.03
859.02	94.04
859.195	-45.23
859.369	83.8
859.543	22.36
859.718	63.32
859.892	26.45
860.066	61.27
860.241	18.26
860.415	-14.51
860.589	-49.32
860.763	51.03
860.938	67.41
861.112	112.47
861.286	34.64
861.46	-4.27
861.634	-26.79
861.808	71.51
861.982	-16.55
862.157	-45.23
862.331	-16.55
862.505	-14.51
862.679	-37.03
862.853	8.02
863.027	65.36
863.201	28.5
863.375	-57.51
863.549	46.93
863.722	28.5
863.896	34.64
864.07	28.5
864.244	116.56
864.418	-24.75
864.592	59.22
864.766	24.4
864.939	-82.09
865.113	24.4
865.287	8.02
865.461	-41.13
865.634	22.36
865.808	34.64
865.982	36.69
866.156	-55.47
866.329	59.22
866.503	98.13
866.676	73.56
866.85	102.23
867.024	48.98
867.197	10.07
867.371	98.13
867.544	42.84
867.718	16.21
867.891	38.74
868.065	8.02
868.238	34.64
868.412	77.65
868.585	44.88
868.759	-24.75
868.932	81.75
869.105	1.88
869.279	36.69
869.452	44.88
869.625	-8.36
869.799	10.07
869.972	24.4
870.145	-24.75
870.319	36.69
870.492	3.93
870.665	-4.27
870.838	51.03
871.011	8.02
871.185	1.88
871.358	-4.27
871.531	40.79
871.704	24.4
871.877	65.36
872.05	-4.27
872.223	-14.51
872.396	-12.46
872.569	12.12
872.742	-59.56
872.915	18.26
873.088	-16.55
873.261	-28.84
873.434	73.56
873.607	28.5
873.78	53.08
873.953	18.26
874.126	55.12
874.299	65.36
874.471	-2.22
874.644	-47.27
874.817	-0.17
874.99	10.07
875.163	16.21
875.335	-24.75
875.508	-6.31
875.681	89.94
875.853	28.5
876.026	-14.51
876.199	34.64
876.371	46.93
876.544	-14.51
876.717	10.07
876.889	18.26
877.062	38.74
877.234	-6.31
877.407	-6.31
877.579	-8.36
877.752	85.84
877.924	44.88
878.097	-24.75
878.269	65.36
878.442	-20.65
878.614	34.64
878.786	8.02
878.959	40.79
879.131	-22.7
879.303	57.17
879.476	57.17
879.648	-37.03
879.82	8.02
879.993	40.79
880.165	28.5
880.337	14.17
880.509	-20.65
880.681	-12.46
880.854	24.4
881.026	73.56
881.198	24.4
881.37	-8.36
881.542	8.02
881.714	67.41
881.886	24.4
882.058	-32.94
882.23	53.08
882.402	26.45
882.574	51.03
882.746	89.94
882.918	26.45
883.09	63.32
883.262	34.64
883.434	-22.7
883.606	-16.55
883.778	8.02
883.95	94.04
884.122	10.07
884.293	53.08
884.465	-2.22
884.637	-49.32
884.809	-69.8
884.98	40.79
885.152	89.94
885.324	-0.17
885.496	26.45
885.667	-6.31
885.839	-16.55
886.011	171.86
886.182	59.22
886.354	81.75
886.525	8.02
886.697	59.22
886.869	-10.41
887.04	-28.84
887.212	-24.75
887.383	32.6
887.555	106.32
887.726	1.88
887.897	-16.55
888.069	12.12
888.24	-22.7
888.412	102.23
888.583	-4.27
888.754	1.88
888.926	3.93
889.097	24.4
889.268	-49.32
889.44	18.26
889.611	30.55
889.782	-16.55
889.953	-63.66
890.125	94.04
890.296	-0.17
890.467	-22.7
890.638	3.93
890.809	8.02
890.98	-32.94
891.151	3.93
891.323	34.64
891.494	-8.36
891.665	-0.17
891.836	-4.27
892.007	16.21
892.178	73.56
892.349	-47.27
892.52	-4.27
892.691	42.84
892.862	18.26
893.032	-8.36
893.203	-8.36
893.374	48.98
893.545	20.31
893.716	-8.36
893.887	-10.41
894.057	-20.65
894.228	61.27
894.399	1.88
894.57	32.6
894.74	32.6
894.911	-16.55
895.082	22.36
895.253	34.64
895.423	-26.79
895.594	65.36
895.764	34.64
895.935	-14.51
896.106	59.22
896.276	-49.32
896.447	26.45
896.617	-49.32
896.788	-47.27
896.958	42.84
897.129	3.93
897.299	-0.17
897.47	98.13
897.64	102.23
897.81	53.08
897.981	16.21
898.151	-24.75
898.322	-24.75
898.492	79.7
898.662	42.84
898.832	40.79
899.003	24.4
899.173	100.18
899.343	-49.32
899.513	-34.99
