Data from USB4F104151__238__14-34-06-462.txt Node

Date: Thu Mar 13 14:34:06 EDT 2025
User: louis
Spectrometer: USB4F10415
Trigger mode: 4
Integration Time (sec): 2.500000E-2
Scans to average: 1
Electric dark correction enabled: true
Nonlinearity correction enabled: false
Boxcar width: 0
XAxis mode: Wavelengths
Number of Pixels in Spectrum: 3648
>>>>>Begin Spectral Data<<<<<
178.204	-133.97
178.424	-133.97
178.644	-133.97
178.864	-82.77
179.084	-136.02
179.304	-9.05
179.524	-15.19
179.744	21.67
179.964	25.77
180.184	-21.33
180.404	15.53
180.624	7.34
180.844	-29.52
181.064	-35.67
181.283	54.44
181.503	-27.48
181.723	13.48
181.943	-11.09
182.163	89.26
182.383	-45.91
182.602	103.59
182.822	38.06
183.042	70.83
183.262	33.96
183.482	-19.29
183.701	-2.9
183.921	5.29
184.141	42.15
184.361	62.63
184.58	48.3
184.8	-0.85
185.02	99.5
185.239	111.78
185.459	52.39
185.679	-27.48
185.898	25.77
186.118	79.02
186.338	-27.48
186.557	1.19
186.777	-52.05
186.997	46.25
187.216	46.25
187.436	48.3
187.655	91.31
187.875	126.12
188.095	9.39
188.314	83.11
188.534	40.11
188.753	17.58
188.973	87.21
189.192	103.59
189.412	50.35
189.631	70.83
189.851	126.12
190.07	160.94
190.29	-11.09
190.509	-2.9
190.729	64.68
190.948	11.43
191.168	158.89
191.387	54.44
191.607	-19.29
191.826	23.72
192.045	-7
192.265	7.34
192.484	33.96
192.704	44.2
192.923	17.58
193.142	46.25
193.362	-11.09
193.581	79.02
193.8	25.77
194.02	66.73
194.239	13.48
194.458	36.01
194.678	97.45
194.897	38.06
195.116	62.63
195.335	46.25
195.555	15.53
195.774	79.02
195.993	54.44
196.212	-47.96
196.432	-19.29
196.651	-0.85
196.87	13.48
197.089	83.11
197.308	62.63
197.528	58.54
197.747	5.29
197.966	-27.48
198.185	113.83
198.404	11.43
198.623	-4.95
198.842	101.55
199.062	13.48
199.281	25.77
199.5	-9.05
199.719	29.87
199.938	50.35
200.157	44.2
200.376	21.67
200.595	38.06
200.814	74.92
201.033	66.73
201.252	111.78
201.471	23.72
201.69	103.59
201.909	87.21
202.128	58.54
202.347	50.35
202.566	54.44
202.785	-11.09
203.004	60.59
203.223	138.41
203.442	13.48
203.661	-9.05
203.879	70.83
204.098	70.83
204.317	56.49
204.536	42.15
204.755	21.67
204.974	103.59
205.193	62.63
205.411	79.02
205.63	48.3
205.849	46.25
206.068	-11.09
206.287	38.06
206.505	9.39
206.724	38.06
206.943	27.82
207.162	54.44
207.381	54.44
207.599	7.34
207.818	40.11
208.037	13.48
208.255	46.25
208.474	1.19
208.693	58.54
208.911	46.25
209.13	62.63
209.349	79.02
209.567	76.97
209.786	44.2
210.005	-52.05
210.223	21.67
210.442	-68.44
210.661	-25.43
210.879	13.48
211.098	-13.14
211.316	-21.33
211.535	103.59
211.753	66.73
211.972	17.58
212.191	5.29
212.409	79.02
212.628	46.25
212.846	62.63
213.065	13.48
213.283	-35.67
213.502	9.39
213.72	27.82
213.938	-99.16
214.157	-11.09
214.375	23.72
214.594	56.49
214.812	17.58
215.031	54.44
215.249	21.67
215.467	66.73
215.686	-2.9
215.904	42.15
216.122	46.25
216.341	95.4
216.559	33.96
216.778	124.07
216.996	-31.57
217.214	70.83
217.432	-23.38
217.651	-9.05
217.869	74.92
218.087	29.87
218.306	-0.85
218.524	109.74
218.742	1.19
218.96	-7
219.179	46.25
219.397	7.34
219.615	97.45
219.833	29.87
220.051	-76.63
220.27	40.11
220.488	46.25
220.706	13.48
220.924	-0.85
221.142	13.48
221.36	13.48
221.578	15.53
221.796	33.96
222.015	-56.15
222.233	58.54
222.451	111.78
222.669	-11.09
222.887	74.92
223.105	38.06
223.323	38.06
223.541	-15.19
223.759	29.87
223.977	-0.85
224.195	58.54
224.413	48.3
224.631	-11.09
224.849	11.43
225.067	103.59
225.285	-52.05
225.503	46.25
225.721	-68.44
225.939	-9.05
226.157	5.29
226.375	111.78
226.592	-82.77
226.81	70.83
227.028	56.49
227.246	74.92
227.464	97.45
227.682	79.02
227.9	13.48
228.117	21.67
228.335	-0.85
228.553	13.48
228.771	52.39
228.989	9.39
229.206	76.97
229.424	62.63
229.642	25.77
229.86	-27.48
230.077	46.25
230.295	-78.68
230.513	152.74
230.731	48.3
230.948	99.5
231.166	56.49
231.384	15.53
231.601	1.19
231.819	103.59
232.037	-33.62
232.254	-25.43
232.472	-11.09
232.689	60.59
232.907	46.25
233.125	54.44
233.342	46.25
233.56	21.67
233.777	5.29
233.995	13.48
234.213	97.45
234.43	87.21
234.648	103.59
234.865	46.25
235.083	52.39
235.3	-9.05
235.518	83.11
235.735	76.97
235.953	64.68
236.17	-13.14
236.388	89.26
236.605	54.44
236.822	23.72
237.04	74.92
237.257	42.15
237.475	-19.29
237.692	21.67
237.909	40.11
238.127	-19.29
238.344	89.26
238.562	119.98
238.779	-19.29
238.996	-2.9
239.214	-9.05
239.431	33.96
239.648	33.96
239.865	40.11
240.083	81.07
240.3	56.49
240.517	15.53
240.735	15.53
240.952	62.63
241.169	50.35
241.386	74.92
241.603	-33.62
241.821	-39.76
242.038	54.44
242.255	19.63
242.472	5.29
242.689	70.83
242.907	5.29
243.124	81.07
243.341	-43.86
243.558	-43.86
243.775	7.34
243.992	-11.09
244.209	23.72
244.426	21.67
244.643	95.4
244.86	-35.67
245.078	-15.19
245.295	72.87
245.512	48.3
245.729	29.87
245.946	15.53
246.163	5.29
246.38	56.49
246.597	62.63
246.814	-7
247.031	23.72
247.248	105.64
247.464	9.39
247.681	9.39
247.898	113.83
248.115	33.96
248.332	17.58
248.549	21.67
248.766	52.39
248.983	19.63
249.2	46.25
249.417	85.16
249.633	48.3
249.85	38.06
250.067	60.59
250.284	79.02
250.501	74.92
250.717	95.4
250.934	5.29
251.151	5.29
251.368	11.43
251.585	-27.48
251.801	66.73
252.018	-11.09
252.235	130.22
252.451	13.48
252.668	13.48
252.885	95.4
253.102	33.96
253.318	64.68
253.535	-23.38
253.752	36.01
253.968	38.06
254.185	54.44
254.401	5.29
254.618	101.55
254.835	38.06
255.051	99.5
255.268	70.83
255.484	66.73
255.701	56.49
255.917	111.78
256.134	-27.48
256.351	-41.81
256.567	25.77
256.784	-15.19
257	-11.09
257.217	111.78
257.433	21.67
257.65	81.07
257.866	79.02
258.082	87.21
258.299	-25.43
258.515	89.26
258.732	25.77
258.948	-27.48
259.165	-31.57
259.381	74.92
259.597	15.53
259.814	38.06
260.03	76.97
260.246	-41.81
260.463	38.06
260.679	11.43
260.895	17.58
261.112	68.78
261.328	-2.9
261.544	31.91
261.761	83.11
261.977	64.68
262.193	-41.81
262.409	66.73
262.626	62.63
262.842	1.19
263.058	-54.1
263.274	38.06
263.49	46.25
263.707	46.25
263.923	7.34
264.139	21.67
264.355	29.87
264.571	56.49
264.787	40.11
265.004	54.44
265.22	23.72
265.436	7.34
265.652	-9.05
265.868	38.06
266.084	27.82
266.3	144.55
266.516	31.91
266.732	70.83
266.948	42.15
267.164	66.73
267.38	89.26
267.596	62.63
267.812	13.48
268.028	31.91
268.244	-13.14
268.46	-4.95
268.676	-15.19
268.892	52.39
269.108	21.67
269.324	70.83
269.54	-11.09
269.756	128.17
269.972	-35.67
270.188	36.01
270.403	25.77
270.619	-13.14
270.835	40.11
271.051	31.91
271.267	15.53
271.483	81.07
271.698	17.58
271.914	54.44
272.13	62.63
272.346	-27.48
272.562	13.48
272.777	58.54
272.993	11.43
273.209	46.25
273.425	42.15
273.64	-39.76
273.856	111.78
274.072	29.87
274.287	15.53
274.503	83.11
274.719	-2.9
274.934	-0.85
275.15	-0.85
275.366	11.43
275.581	40.11
275.797	70.83
276.012	85.16
276.228	17.58
276.444	29.87
276.659	48.3
276.875	111.78
277.09	38.06
277.306	21.67
277.521	70.83
277.737	83.11
277.952	48.3
278.168	46.25
278.383	38.06
278.599	87.21
278.814	177.32
279.03	38.06
279.245	105.64
279.461	-9.05
279.676	99.5
279.892	-33.62
280.107	85.16
280.322	-23.38
280.538	7.34
280.753	-47.96
280.969	70.83
281.184	70.83
281.399	66.73
281.615	25.77
281.83	23.72
282.045	27.82
282.26	13.48
282.476	40.11
282.691	17.58
282.906	-11.09
283.122	62.63
283.337	5.29
283.552	21.67
283.767	-29.52
283.983	83.11
284.198	21.67
284.413	150.7
284.628	52.39
284.843	40.11
285.058	91.31
285.274	1.19
285.489	46.25
285.704	54.44
285.919	9.39
286.134	46.25
286.349	17.58
286.564	-35.67
286.779	95.4
286.995	-4.95
287.21	38.06
287.425	9.39
287.64	29.87
287.855	13.48
288.07	-2.9
288.285	-11.09
288.5	-23.38
288.715	56.49
288.93	99.5
289.145	-25.43
289.36	58.54
289.575	7.34
289.79	23.72
290.004	29.87
290.219	81.07
290.434	50.35
290.649	70.83
290.864	103.59
291.079	58.54
291.294	1.19
291.509	46.25
291.724	25.77
291.938	29.87
292.153	17.58
292.368	-0.85
292.583	42.15
292.798	111.78
293.012	87.21
293.227	38.06
293.442	50.35
293.657	7.34
293.871	66.73
294.086	29.87
294.301	74.92
294.516	81.07
294.73	79.02
294.945	-15.19
295.16	56.49
295.374	122.02
295.589	62.63
295.804	15.53
296.018	64.68
296.233	136.36
296.447	79.02
296.662	79.02
296.877	33.96
297.091	85.16
297.306	81.07
297.52	-0.85
297.735	21.67
297.949	52.39
298.164	83.11
298.378	97.45
298.593	5.29
298.807	19.63
299.022	15.53
299.236	-0.85
299.451	13.48
299.665	46.25
299.88	64.68
300.094	33.96
300.309	-35.67
300.523	64.68
300.737	40.11
300.952	56.49
301.166	46.25
301.381	25.77
301.595	79.02
301.809	-70.48
302.024	56.49
302.238	5.29
302.452	54.44
302.667	76.97
302.881	44.2
303.095	66.73
303.309	46.25
303.524	13.48
303.738	56.49
303.952	-7
304.166	79.02
304.381	23.72
304.595	95.4
304.809	62.63
305.023	21.67
305.237	29.87
305.452	74.92
305.666	52.39
305.88	81.07
306.094	62.63
306.308	21.67
306.522	76.97
306.736	21.67
306.95	62.63
307.164	46.25
307.379	-2.9
307.593	40.11
307.807	29.87
308.021	58.54
308.235	81.07
308.449	-35.67
308.663	46.25
308.877	40.11
309.091	25.77
309.305	74.92
309.519	-60.24
309.733	-31.57
309.947	-11.09
310.161	134.31
310.374	62.63
310.588	99.5
310.802	-9.05
311.016	13.48
311.23	64.68
311.444	33.96
311.658	74.92
311.872	81.07
312.085	97.45
312.299	97.45
312.513	115.88
312.727	-23.38
312.941	40.11
313.154	42.15
313.368	66.73
313.582	-27.48
313.796	76.97
314.009	21.67
314.223	48.3
314.437	64.68
314.651	95.4
314.864	93.35
315.078	62.63
315.292	-68.44
315.505	40.11
315.719	54.44
315.933	25.77
316.146	79.02
316.36	46.25
316.573	107.69
316.787	1.19
317.001	50.35
317.214	-11.09
317.428	36.01
317.641	15.53
317.855	60.59
318.068	1.19
318.282	29.87
318.495	97.45
318.709	25.77
318.922	-29.52
319.136	124.07
319.349	113.83
319.563	103.59
319.776	15.53
319.99	13.48
320.203	-2.9
320.417	56.49
320.63	79.02
320.843	119.98
321.057	89.26
321.27	38.06
321.483	38.06
321.697	42.15
321.91	42.15
322.124	54.44
322.337	89.26
322.55	-11.09
322.763	56.49
322.977	21.67
323.19	54.44
323.403	87.21
323.617	72.87
323.83	60.59
324.043	42.15
324.256	62.63
324.469	7.34
324.683	50.35
324.896	-2.9
325.109	111.78
325.322	1.19
325.535	89.26
325.748	54.44
325.962	79.02
326.175	46.25
326.388	-11.09
326.601	103.59
326.814	95.4
327.027	29.87
327.24	111.78
327.453	9.39
327.666	79.02
327.879	95.4
328.092	27.82
328.305	79.02
328.518	87.21
328.731	-15.19
328.944	56.49
329.157	62.63
329.37	33.96
329.583	93.35
329.796	62.63
330.009	5.29
330.222	195.75
330.435	36.01
330.648	13.48
330.861	-11.09
331.073	40.11
331.286	81.07
331.499	81.07
331.712	29.87
331.925	44.2
332.138	119.98
332.35	105.64
332.563	3.24
332.776	62.63
332.989	-52.05
333.202	72.87
333.414	70.83
333.627	70.83
333.84	50.35
334.053	62.63
334.265	29.87
334.478	103.59
334.691	91.31
334.903	72.87
335.116	-35.67
335.329	19.63
335.541	29.87
335.754	48.3
335.966	79.02
336.179	111.78
336.392	111.78
336.604	50.35
336.817	31.91
337.029	79.02
337.242	25.77
337.454	13.48
337.667	46.25
337.88	87.21
338.092	105.64
338.305	60.59
338.517	21.67
338.729	19.63
338.942	-29.52
339.154	97.45
339.367	62.63
339.579	-7
339.792	-11.09
340.004	91.31
340.217	-11.09
340.429	111.78
340.641	-2.9
340.854	29.87
341.066	9.39
341.278	64.68
341.491	97.45
341.703	99.5
341.915	40.11
342.128	70.83
342.34	31.91
342.552	48.3
342.764	25.77
342.977	87.21
343.189	27.82
343.401	7.34
343.613	54.44
343.826	62.63
344.038	62.63
344.25	81.07
344.462	38.06
344.674	58.54
344.886	83.11
345.099	46.25
345.311	66.73
345.523	17.58
345.735	3.24
345.947	56.49
346.159	105.64
346.371	40.11
346.583	5.29
346.795	115.88
347.007	15.53
347.219	107.69
347.431	50.35
347.643	36.01
347.855	25.77
348.067	17.58
348.279	-39.76
348.491	40.11
348.703	42.15
348.915	5.29
349.127	38.06
349.339	111.78
349.551	-11.09
349.763	74.92
349.975	79.02
350.187	113.83
350.399	74.92
350.61	72.87
350.822	52.39
351.034	31.91
351.246	128.17
351.458	29.87
351.669	64.68
351.881	122.02
352.093	58.54
352.305	33.96
352.517	124.07
352.728	56.49
352.94	46.25
353.152	17.58
353.363	15.53
353.575	89.26
353.787	46.25
353.999	79.02
354.21	111.78
354.422	46.25
354.633	31.91
354.845	-19.29
355.057	21.67
355.268	66.73
355.48	56.49
355.692	38.06
355.903	23.72
356.115	-11.09
356.326	50.35
356.538	87.21
356.749	44.2
356.961	156.84
357.172	46.25
357.384	97.45
357.595	107.69
357.807	33.96
358.018	58.54
358.23	38.06
358.441	203.94
358.653	111.78
358.864	70.83
359.075	81.07
359.287	52.39
359.498	111.78
359.709	48.3
359.921	87.21
360.132	103.59
360.344	-7
360.555	29.87
360.766	-2.9
360.977	79.02
361.189	119.98
361.4	54.44
361.611	66.73
361.823	107.69
362.034	95.4
362.245	25.77
362.456	25.77
362.667	79.02
362.879	5.29
363.09	-25.43
363.301	81.07
363.512	21.67
363.723	62.63
363.935	-17.24
364.146	103.59
364.357	79.02
364.568	169.13
364.779	-31.57
364.99	113.83
365.201	42.15
365.412	54.44
365.623	23.72
365.834	15.53
366.045	95.4
366.256	40.11
366.467	27.82
366.678	38.06
366.889	105.64
367.1	50.35
367.311	103.59
367.522	40.11
367.733	56.49
367.944	113.83
368.155	38.06
368.366	44.2
368.577	72.87
368.788	31.91
368.999	46.25
369.209	23.72
369.42	111.78
369.631	173.22
369.842	99.5
370.053	-35.67
370.264	64.68
370.474	5.29
370.685	70.83
370.896	21.67
371.107	23.72
371.317	113.83
371.528	29.87
371.739	128.17
371.95	44.2
372.16	50.35
372.371	50.35
372.582	42.15
372.792	60.59
373.003	70.83
373.214	15.53
373.424	103.59
373.635	1.19
373.846	70.83
374.056	19.63
374.267	95.4
374.477	91.31
374.688	-13.14
374.898	64.68
375.109	7.34
375.319	74.92
375.53	97.45
375.74	54.44
375.951	25.77
376.161	152.74
376.372	152.74
376.582	64.68
376.793	54.44
377.003	40.11
377.214	109.74
377.424	40.11
377.635	19.63
377.845	46.25
378.055	144.55
378.266	29.87
378.476	128.17
378.686	128.17
378.897	150.7
379.107	-4.95
379.317	95.4
379.528	70.83
379.738	40.11
379.948	66.73
380.158	70.83
380.369	13.48
380.579	76.97
380.789	42.15
380.999	66.73
381.21	95.4
381.42	138.41
381.63	23.72
381.84	138.41
382.05	115.88
382.261	103.59
382.471	99.5
382.681	38.06
382.891	103.59
383.101	148.65
383.311	31.91
383.521	140.46
383.731	113.83
383.941	111.78
384.151	111.78
384.361	70.83
384.571	103.59
384.781	17.58
384.991	91.31
385.201	175.27
385.411	111.78
385.621	79.02
385.831	74.92
386.041	81.07
386.251	52.39
386.461	95.4
386.671	33.96
386.881	76.97
387.091	81.07
387.301	93.35
387.511	68.78
387.72	48.3
387.93	99.5
388.14	42.15
388.35	124.07
388.56	144.55
388.769	111.78
388.979	119.98
389.189	79.02
389.399	-17.24
389.609	76.97
389.818	128.17
390.028	146.6
390.238	109.74
390.447	31.91
390.657	124.07
390.867	27.82
391.076	-19.29
391.286	74.92
391.496	113.83
391.705	13.48
391.915	171.18
392.125	148.65
392.334	58.54
392.544	95.4
392.753	64.68
392.963	111.78
393.172	64.68
393.382	50.35
393.591	177.32
393.801	54.44
394.01	138.41
394.22	89.26
394.429	138.41
394.639	109.74
394.848	156.84
395.058	160.94
395.267	144.55
395.477	54.44
395.686	115.88
395.895	95.4
396.105	177.32
396.314	195.75
396.524	162.98
396.733	132.26
396.942	214.18
397.152	119.98
397.361	87.21
397.57	97.45
397.78	124.07
397.989	136.36
398.198	124.07
398.407	54.44
398.617	119.98
398.826	46.25
399.035	46.25
399.244	107.69
399.453	95.4
399.663	144.55
399.872	162.98
400.081	99.5
400.29	185.51
400.499	228.52
400.708	175.27
400.917	156.84
401.127	122.02
401.336	105.64
401.545	300.2
401.754	142.5
401.963	208.04
402.172	152.74
402.381	169.13
402.59	169.13
402.799	169.13
403.008	146.6
403.217	271.53
403.426	193.7
403.635	148.65
403.844	160.94
404.053	210.09
404.262	263.33
404.471	232.62
404.68	208.04
404.888	177.32
405.097	185.51
405.306	218.28
405.515	226.47
405.724	283.81
405.933	257.19
406.142	244.9
406.35	242.85
406.559	263.33
406.768	304.29
406.977	296.1
407.185	251.05
407.394	246.95
407.603	306.34
407.812	328.87
408.02	373.92
408.229	337.06
408.438	316.58
408.646	349.35
408.855	300.2
409.064	382.12
409.272	369.83
409.481	390.31
409.69	378.02
409.898	337.06
410.107	459.94
410.315	484.52
410.524	431.27
410.733	423.08
410.941	588.96
411.15	488.61
411.358	535.71
411.567	597.15
411.775	603.3
411.984	529.57
412.192	685.22
412.401	629.92
412.609	693.41
412.818	744.61
413.026	808.09
413.234	701.6
413.443	775.33
413.651	758.94
413.86	742.56
414.068	799.9
414.276	988.32
414.485	955.55
414.693	963.74
414.901	1062.04
415.11	1113.24
415.318	1086.62
415.526	1135.77
415.734	1191.06
415.943	1225.88
416.151	1105.05
416.359	1285.27
416.567	1189.02
416.776	1385.62
416.984	1381.53
417.192	1442.96
417.4	1488.02
417.608	1504.4
417.817	1547.41
418.025	1645.71
418.233	1801.36
418.441	1694.86
418.649	1825.93
418.857	1954.96
419.065	2043.02
419.273	1924.24
419.481	2004.11
419.689	2225.29
419.897	2266.25
420.105	2167.95
420.313	2309.26
420.521	2378.89
420.729	2421.89
420.937	2501.76
421.145	2696.32
421.353	2669.7
421.561	2989.18
421.769	2894.97
421.977	3101.82
422.185	2937.98
422.393	3249.27
422.601	3415.16
422.809	3411.06
423.017	3552.37
423.224	3519.6
423.432	3751.03
423.64	3644.53
423.848	4093.04
424.056	4015.21
424.263	4301.93
424.471	4260.97
424.679	4449.38
424.887	4559.97
425.094	4813.92
425.302	4734.05
425.51	4813.92
425.718	5078.11
425.925	5190.75
426.133	5176.41
426.341	5588.05
426.548	5895.25
426.756	5782.61
426.964	5882.96
427.171	6276.17
427.379	6476.87
427.586	6714.44
427.794	6739.01
428.001	7117.89
428.209	7267.39
428.417	7191.61
428.624	7887.92
428.832	7797.81
429.039	7771.19
429.247	7674.93
429.454	8623.14
429.662	8868.9
429.869	8412.2
430.076	9135.14
430.284	8746.02
430.491	9008.16
430.699	9706.52
430.906	9657.37
431.114	9905.17
431.321	10169.36
431.528	10392.59
431.736	10966.02
431.943	11500.54
432.15	11281.41
432.358	11265.02
432.565	11844.6
432.772	11799.54
432.979	12387.31
433.187	12760.04
433.394	12719.08
433.601	13571.04
433.808	13349.85
434.016	13698.01
434.223	13972.44
434.43	14875.59
434.637	14851.02
434.844	15780.79
435.052	15602.62
435.259	15610.81
435.466	15758.27
435.673	15840.18
435.88	16843.69
436.087	17703.84
436.294	17836.95
436.501	17271.72
436.708	17640.35
436.915	18416.53
437.122	18981.77
437.329	18908.04
437.537	19190.66
437.743	19528.58
437.95	19614.59
438.157	20738.93
438.364	21150.57
438.571	21316.45
438.778	21527.39
438.985	23296.84
439.192	22543.19
439.399	23169.87
439.606	22555.47
439.813	24148.79
440.02	25371.43
440.227	25017.13
440.433	24982.32
440.64	25258.79
440.847	25205.55
441.054	26008.35
441.261	27828.99
441.467	27198.22
441.674	27788.03
441.881	28840.69
442.088	28500.73
442.294	28371.71
442.501	29115.12
442.708	29618.92
442.914	31247.05
443.121	31955.65
443.328	31550.15
443.534	33473.2
443.741	32379.58
443.948	32195.26
444.154	34255.52
444.361	34232.99
444.568	34405.02
444.774	34513.56
444.981	34749.08
445.187	35900.04
445.394	37415.54
445.6	36856.44
445.807	40135.24
446.013	38691.42
446.22	39129.69
446.426	40753.72
446.633	41237.05
446.839	42813.98
447.046	40782.4
447.252	42943
447.459	42854.94
447.665	43067.93
447.871	44571.14
448.078	46377.45
448.284	44415.49
448.491	45595.12
448.697	47184.35
448.903	47944.14
449.11	47849.94
449.316	47589.84
449.522	48515.53
449.728	49641.91
449.935	50168.24
450.141	50151.85
450.347	50831.78
450.553	49265.08
450.76	50194.86
450.966	51253.66
451.172	50903.46
451.378	52300.17
451.584	51063.2
451.791	52523.4
451.997	52349.32
452.203	52830.6
452.409	52902.28
452.615	52945.28
452.821	51130.78
453.027	50727.33
453.233	52875.65
453.44	51003.81
453.646	51323.29
453.852	51390.87
454.058	52294.03
454.264	50784.68
454.47	52128.14
454.676	50956.71
454.882	52355.47
455.088	48595.4
455.294	48720.32
455.5	49441.21
455.705	49906.1
455.911	47946.19
456.117	47376.86
456.323	46649.83
456.529	44446.21
456.735	46082.54
456.941	44499.46
457.147	44276.23
457.352	42572.32
457.558	42676.77
457.764	42768.93
457.97	41534
458.176	40581.7
458.381	40589.89
458.587	38693.47
458.793	38830.68
458.999	36930.17
459.204	39307.86
459.41	38302.31
459.616	35863.18
459.821	35807.88
460.027	35723.91
460.233	35138.19
460.438	33405.61
460.644	33782.44
460.85	31871.68
461.055	31580.87
461.261	31984.32
461.466	29266.67
461.672	28140.29
461.878	29887.2
462.083	28295.93
462.289	27599.62
462.494	27611.91
462.7	26356.5
462.905	25527.08
463.111	26479.38
463.316	26516.25
463.522	26024.73
463.727	25961.25
463.932	25758.5
464.138	25764.64
464.343	25746.21
464.549	24982.32
464.754	25600.8
464.959	25684.77
465.165	25174.83
465.37	24095.55
465.575	23735.1
465.781	24490.8
465.986	24474.42
466.191	23794.5
466.397	23606.08
466.602	22188.89
466.807	22752.08
467.012	22889.29
467.218	23012.17
467.423	22672.21
467.628	22590.29
467.833	23644.99
468.038	22676.3
468.244	22115.16
468.449	22813.52
468.654	22121.31
468.859	21767.01
469.064	22025.05
469.269	21138.28
469.474	21076.84
469.679	21801.82
469.885	20796.27
470.09	21154.66
470.295	20874.09
470.5	20710.25
470.705	20757.36
470.91	20345.72
471.115	20145.02
471.32	20241.27
471.525	20429.68
471.73	19721.09
471.935	19647.36
472.139	19135.37
472.344	19293.06
472.549	18934.67
472.754	18756.49
472.959	18561.94
473.164	17961.88
473.369	18051.99
473.574	18523.02
473.778	18113.43
473.983	17886.11
474.188	18342.8
474.393	17284
474.598	17632.16
474.802	16896.94
475.007	17144.74
475.212	17064.87
475.417	16042.93
475.621	16571.31
475.826	16268.21
476.031	16257.97
476.235	15721.4
476.44	16425.9
476.645	15733.69
476.849	15705.02
477.054	15733.69
477.259	15387.58
477.463	15576
477.668	15190.98
477.872	15199.17
478.077	14709.71
478.282	14623.69
478.486	14549.96
478.691	14355.41
478.895	14242.77
479.1	14394.32
479.304	14298.06
479.509	13802.46
479.713	14113.75
479.918	13992.92
480.122	13636.57
480.326	13808.6
480.531	13722.59
480.735	13949.91
480.94	13298.66
481.144	13908.95
481.348	13261.79
481.553	13433.82
481.757	13382.62
481.961	13321.18
482.166	13743.06
482.37	13587.42
482.574	13102.05
482.778	13417.44
482.983	13603.8
483.187	13351.9
483.391	13470.69
483.595	13145.06
483.8	13032.42
484.004	13216.74
484.208	13390.81
484.412	13280.22
484.616	13136.87
484.821	13081.57
485.025	13245.41
485.229	13077.48
485.433	13153.25
485.637	13321.18
485.841	13050.85
486.045	13024.23
486.249	13165.54
486.453	12923.88
486.657	13038.56
486.861	13091.81
487.065	12907.49
487.269	13179.87
487.473	12704.74
487.677	13382.62
487.881	13212.64
488.085	13091.81
488.289	13145.06
488.493	13202.4
488.697	13272.03
488.901	13220.83
489.105	12977.12
489.309	13110.24
489.512	13321.18
489.716	13362.14
489.92	13210.59
490.124	13376.48
490.328	13411.29
490.531	13378.53
490.735	13423.58
490.939	13571.04
491.143	13323.23
491.346	13345.76
491.55	13292.51
491.754	13476.83
491.958	13728.73
492.161	13616.09
492.365	13534.17
492.569	13583.32
492.772	13642.71
492.976	13661.15
493.18	13972.44
493.383	13964.25
493.587	14166.99
493.79	14406.61
493.994	13964.25
494.197	14029.78
494.401	14427.09
494.605	14277.58
494.808	14488.53
495.012	14734.28
495.215	14762.95
495.419	14961.61
495.622	14488.53
495.825	14783.43
496.029	14844.87
496.232	15471.55
496.436	15139.78
496.639	15709.11
496.843	15651.77
497.046	15889.34
497.249	15813.56
497.453	15725.5
497.656	16229.3
497.859	16262.07
498.063	16032.69
498.266	16518.06
498.469	16393.14
498.673	16520.11
498.876	16901.03
499.079	17122.21
499.282	17087.4
499.485	17537.95
499.689	17415.07
499.892	17777.56
500.095	17787.8
500.298	18254.74
500.501	17996.7
500.705	18609.04
500.908	18523.02
501.111	18805.64
501.314	19110.79
501.517	19205
501.72	19465.09
501.923	19501.95
502.126	19708.8
502.329	20032.38
502.532	19874.68
502.735	20247.41
502.938	20564.85
503.141	20388.72
503.344	21091.18
503.547	20970.35
503.75	21291.88
503.953	21728.1
504.156	21834.59
504.359	21902.17
504.562	22217.56
504.765	22838.09
504.968	22651.73
505.17	23069.51
505.373	23153.48
505.576	23321.41
505.779	23688
505.982	23757.63
506.185	24726.32
506.387	24310.58
506.59	24337.21
506.793	24978.22
506.996	24800.05
507.198	25467.69
507.401	25283.37
507.604	25824.03
507.807	26264.35
508.009	26153.76
508.212	26639.12
508.415	26712.85
508.617	27249.42
508.82	27374.34
509.022	27130.64
509.225	27562.76
509.428	27853.57
509.63	28179.2
509.833	28381.95
510.035	28713.72
510.238	28709.62
510.44	29080.3
510.643	29567.72
510.845	29498.09
511.048	29637.35
511.25	30581.46
511.453	30098.14
511.655	31634.12
511.858	30915.28
512.06	31322.83
512.262	31511.24
512.465	31701.7
512.667	32459.45
512.87	32658.1
513.072	32283.33
513.274	33108.66
513.477	33295.02
513.679	33639.08
513.881	34310.82
514.084	34294.43
514.286	33809.06
514.488	34325.15
514.69	35181.2
514.893	35383.95
515.095	35693.19
515.297	35664.52
515.499	35984.01
515.701	36303.49
515.904	36670.08
516.106	37382.77
516.308	37304.95
516.51	37962.34
516.712	37818.99
516.914	37814.89
517.116	38609.5
517.318	38636.13
517.52	38984.28
517.722	39316.05
517.925	39359.06
518.127	39916.11
518.329	40340.04
518.531	39805.52
518.733	40632.89
518.935	41044.54
519.136	41355.83
519.338	41521.71
519.54	41620.02
519.742	42156.58
519.944	42078.76
520.146	42687.01
520.348	42756.64
520.55	42695.2
520.752	42908.19
520.954	43772.43
521.155	43581.97
521.357	44370.44
521.559	44419.59
521.761	44972.54
521.963	45097.47
522.164	44724.74
522.366	44880.38
522.568	45517.3
522.77	45402.61
522.971	45853.17
523.173	45752.82
523.375	46119.4
523.576	46555.62
523.778	46088.68
523.98	46391.78
524.181	46647.78
524.383	46852.58
524.584	47716.82
524.786	47061.47
524.988	47129.05
525.189	47915.47
525.391	48015.82
525.592	47899.09
525.794	48071.12
525.995	48124.36
526.197	48019.92
526.398	48308.68
526.6	48286.15
526.801	48658.88
527.003	48560.58
527.204	48519.62
527.406	49177.02
527.607	49007.04
527.808	49129.92
528.01	48216.52
528.211	48832.96
528.412	49641.91
528.614	49297.85
528.815	49648.05
529.016	49727.92
529.218	48847.3
529.419	49158.59
529.62	49476.02
529.822	49129.92
530.023	49039.81
530.224	49750.45
530.425	49314.23
530.626	48826.82
530.828	48992.7
531.029	49932.72
531.23	49506.74
531.431	49383.87
531.632	49500.6
531.833	49713.59
532.035	49310.14
532.236	49441.21
532.437	49621.43
532.638	48787.91
532.839	49465.78
533.04	49748.4
533.241	48959.94
533.442	49789.36
533.643	49326.52
533.844	49697.2
534.045	49285.56
534.246	48654.79
534.447	49406.39
534.648	49078.72
534.849	48972.22
535.05	48853.44
535.251	49131.96
535.451	48849.35
535.652	49293.75
535.853	49115.58
536.054	49088.96
536.255	48916.93
536.456	48660.93
536.657	49240.51
536.857	48748.99
537.058	48536.01
537.259	48789.95
537.46	48624.07
537.66	48652.74
537.861	48679.36
538.062	48558.53
538.263	48966.08
538.463	48847.3
538.664	48542.15
538.865	48546.25
539.065	48843.2
539.266	47843.79
539.466	48447.94
539.667	47899.09
539.868	48464.33
540.068	48466.38
540.269	47645.14
540.469	48490.95
540.67	48146.89
540.87	48208.33
541.071	48040.4
541.271	48210.38
541.472	48470.47
541.672	47811.03
541.873	47929.81
542.073	47475.16
542.274	48284.11
542.474	47890.9
542.675	47768.02
542.875	48087.5
543.075	47931.86
543.276	47315.42
543.476	48062.93
543.676	47526.36
543.877	48097.74
544.077	48103.88
544.277	47575.51
544.478	47720.91
544.678	48073.17
544.878	47933.9
545.078	48079.31
545.279	47505.88
545.479	47626.71
545.679	47931.86
545.879	47636.95
546.079	47675.86
546.28	47663.57
546.48	47202.78
546.68	47725.01
546.88	47704.53
547.08	47339.99
547.28	47172.06
547.48	47270.36
547.68	47786.45
547.88	47141.34
548.081	47538.65
548.281	47944.14
548.481	47565.27
548.681	47704.53
548.881	47712.72
549.081	47765.97
549.28	47663.57
549.48	47960.53
549.68	47303.13
549.88	48218.57
550.08	47489.49
550.28	47649.24
550.48	47184.35
550.68	47743.44
550.88	47532.5
551.08	47581.65
551.279	47534.55
551.479	47301.08
551.679	47659.48
551.879	47546.84
552.079	47538.65
552.278	47219.16
552.478	47630.8
552.678	47794.64
552.878	48085.45
553.077	47743.44
553.277	47426.01
553.477	48349.64
553.676	47430.1
553.876	48017.87
554.076	47509.97
554.275	47256.03
554.475	47319.51
554.674	47413.72
554.874	47561.17
555.074	47749.59
555.273	47761.87
555.473	47712.72
555.672	47327.7
555.872	47671.76
556.071	48040.4
556.271	47628.76
556.47	47512.02
556.67	47432.15
556.869	47614.42
557.068	47727.06
557.268	47698.39
557.467	47565.27
557.667	47491.54
557.866	47548.89
558.065	47475.16
558.265	47612.37
558.464	47100.38
558.663	47860.18
558.863	47284.7
559.062	47882.7
559.261	47165.91
559.461	48032.21
559.66	47174.11
559.859	47407.58
560.058	47176.15
560.258	47368.66
560.457	47055.32
560.656	47698.39
560.855	47555.03
561.054	47655.38
561.253	47409.62
561.453	47436.25
561.652	47479.25
561.851	47571.41
562.05	47079.9
562.249	47333.85
562.448	47378.9
562.647	47229.4
562.846	47436.25
563.045	47266.27
563.244	46946.78
563.443	47434.2
563.642	46854.62
563.841	46942.69
564.04	47088.09
564.239	47456.73
564.438	46885.34
564.637	47124.96
564.836	47247.83
565.035	46653.92
565.234	47040.99
565.432	46692.83
565.631	46983.65
565.83	46926.3
566.029	46756.32
566.228	46227.95
566.427	46158.31
566.625	46387.69
566.824	46047.72
567.023	46438.89
567.222	45664.75
567.42	46623.2
567.619	46490.09
567.818	46369.26
568.016	46223.85
568.215	46189.03
568.414	45812.21
568.612	46311.91
568.811	46107.12
569.01	46232.04
569.208	45548.02
569.407	46186.99
569.605	45754.86
569.804	45703.67
570.002	44982.78
570.201	45687.28
570.4	45439.48
570.598	45187.58
570.797	44974.59
570.995	45468.15
571.193	44435.97
571.392	45249.02
571.59	44724.74
571.789	44964.35
571.987	44810.75
572.186	44585.47
572.384	44388.87
572.582	44577.28
572.781	44804.61
572.979	43739.66
573.177	44274.18
573.376	44296.71
573.574	43592.21
573.772	43934.22
573.971	43782.67
574.169	43483.67
574.367	43938.32
574.565	43657.74
574.763	43733.52
574.962	43524.63
575.16	43242.01
575.358	43383.32
575.556	42981.91
575.754	43495.95
575.952	42703.39
576.151	43059.74
576.349	42318.37
576.547	42385.96
576.745	42813.98
576.943	42758.69
577.141	42707.49
577.339	42494.5
577.537	42215.97
577.735	42275.37
577.933	42117.67
578.131	41959.98
578.329	41927.21
578.527	41687.6
578.725	41765.42
578.923	41726.51
579.121	41681.45
579.319	41650.74
579.516	41679.41
579.714	41570.86
579.912	41290.29
580.11	41028.15
580.308	41273.91
580.506	41040.44
580.704	40362.56
580.901	40942.14
581.099	41189.94
581.297	40331.84
581.495	40327.75
581.692	40602.18
581.89	40067.66
582.088	40340.04
582.285	39965.26
582.483	40561.22
582.681	39815.76
582.878	40106.57
583.076	39254.61
583.274	40145.48
583.471	39369.3
583.669	39387.73
583.866	39580.24
584.064	39797.32
584.262	38756.96
584.459	39357.01
584.657	38879.83
584.854	39475.79
585.052	38609.5
585.249	39215.7
585.447	38832.73
585.644	38195.81
585.841	38709.85
586.039	39070.29
586.236	38261.35
586.434	38275.68
586.631	38345.31
586.828	38244.96
587.026	38251.11
587.223	37943.91
587.42	38077.03
587.618	38044.26
587.815	37692.01
588.012	37526.13
588.21	38249.06
588.407	37841.51
588.604	37296.75
588.801	37302.9
588.999	37225.07
589.196	37184.12
589.393	36989.56
589.59	36805.24
589.787	36694.65
589.984	36678.27
590.182	36651.64
590.379	36946.55
590.576	36655.74
590.773	36848.25
590.97	36127.36
591.167	36555.39
591.364	36061.83
591.561	36471.42
591.758	36233.86
591.955	36387.46
592.152	36471.42
592.349	35816.07
592.546	36233.86
592.743	35920.52
592.94	35152.53
593.137	35658.38
593.334	35871.37
593.531	35279.5
593.727	36029.06
593.924	35396.24
594.121	35297.94
594.318	35668.62
594.515	34802.33
594.712	35746.44
594.908	35048.08
595.105	35205.78
595.302	34984.6
595.499	35084.95
595.696	34562.72
595.892	34697.88
596.089	35539.6
596.286	34941.59
596.482	34556.57
596.679	34513.56
596.876	34751.13
597.072	34480.8
597.269	34591.39
597.466	34329.25
597.662	34282.14
597.859	34607.77
598.055	34263.71
598.252	34505.37
598.448	34282.14
598.645	33845.93
598.841	33575.59
599.038	33993.38
599.234	34251.42
599.431	33847.97
599.627	33839.78
599.824	33966.76
600.02	33499.82
600.217	33983.14
600.413	34103.97
600.609	33598.12
600.806	33370.8
601.002	33671.85
601.198	33487.53
601.395	33505.96
601.591	33807.01
601.787	33643.18
601.984	33477.29
602.18	33821.35
602.376	33475.24
602.572	33229.49
602.769	33436.33
602.965	33413.8
603.161	33596.07
603.357	33383.09
603.553	33376.94
603.75	33241.78
603.946	33276.59
604.142	33448.62
604.338	33071.79
604.534	33090.23
604.73	33079.99
604.926	33059.51
605.122	33073.84
605.318	33221.3
605.514	32991.92
605.71	33217.2
605.906	33538.73
606.102	33387.18
606.298	33624.75
606.494	33200.82
606.69	33301.17
606.886	33168.05
607.082	32828.09
607.278	33311.41
607.474	32821.94
607.67	33575.59
607.866	32426.68
608.062	33866.41
608.257	33340.08
608.453	33481.39
608.649	33612.46
608.845	33043.12
609.041	33338.03
609.236	33483.44
609.432	33215.15
609.628	33680.04
609.824	33073.84
610.019	32748.21
610.215	33149.62
610.411	33551.02
610.606	33346.22
610.802	33378.99
610.998	33274.54
611.193	33315.5
611.389	33008.31
611.584	33249.97
611.78	33393.33
611.976	33321.65
612.171	33647.27
612.367	33327.79
612.562	33393.33
612.758	32746.17
612.953	33213.1
613.149	33553.07
613.344	32770.74
613.539	33497.77
613.735	33135.28
613.93	33317.55
614.126	33198.77
614.321	33540.78
614.517	33090.23
614.712	33393.33
614.907	32938.68
615.103	33211.06
615.298	33047.22
615.493	33411.76
615.688	32846.52
615.884	33833.64
616.079	32893.62
616.274	33088.18
616.47	33032.88
616.665	33004.21
616.86	32910
617.055	33049.27
617.25	33100.47
617.445	33288.88
617.641	32692.92
617.836	32862.9
618.031	33016.5
618.226	32842.42
618.421	32682.68
618.616	32877.24
618.811	32516.79
619.006	32924.34
619.201	32228.03
619.396	32494.27
619.591	32051.91
619.786	32524.99
619.981	31771.33
620.176	32158.4
620.371	32076.48
620.566	32125.63
620.761	31910.6
620.956	31886.02
621.151	31666.89
621.346	31744.71
621.541	31150.8
621.735	31482.57
621.93	31089.36
622.125	31011.54
622.32	30597.85
622.515	30671.57
622.709	30573.27
622.904	30560.98
623.099	30462.68
623.294	30671.57
623.488	30182.11
623.683	30198.49
623.878	29670.12
624.072	29848.29
624.267	29879.01
624.462	29551.34
624.656	29145.84
624.851	29270.76
625.046	29283.05
625.24	29348.59
625.435	28902.13
625.629	28699.38
625.824	28799.73
626.018	28355.32
626.213	27982.59
626.407	28152.57
626.602	28105.47
626.796	28209.92
626.991	28259.07
627.185	27661.06
627.38	27521.8
627.574	27773.7
627.768	27384.58
627.963	27165.45
628.157	26983.18
628.352	27104.01
628.546	26432.28
628.74	26970.9
628.935	26571.54
629.129	26768.15
629.323	26174.24
629.517	26286.87
629.712	26028.83
629.906	26049.31
630.1	25396.01
630.294	25951.01
630.489	25846.56
630.683	25604.9
630.877	25119.53
631.071	24953.65
631.265	24892.21
631.459	25008.94
631.653	24892.21
631.848	24744.75
632.042	24310.58
632.236	24853.3
632.43	24738.61
632.624	24472.37
632.818	24046.4
633.012	23780.16
633.206	23864.13
633.4	23655.23
633.594	23778.11
633.788	23694.15
633.982	23454.53
634.176	23212.87
634.369	23294.79
634.563	23118.67
634.757	23337.8
634.951	23124.81
635.145	22958.92
635.339	22909.77
635.533	22549.33
635.726	22596.43
635.92	22293.33
636.114	22172.5
636.308	22035.29
636.501	22020.95
636.695	22023
636.889	21865.31
637.083	21658.46
637.276	21545.83
637.47	21615.46
637.664	21472.1
637.857	21412.71
638.051	21289.83
638.244	20880.24
638.438	20976.49
638.632	20745.07
638.825	20908.91
639.019	20329.33
639.212	20296.56
639.406	20466.55
639.599	20448.11
639.793	20607.86
639.986	20040.57
640.18	20046.71
640.373	19985.27
640.567	19676.03
640.76	19788.67
640.954	19379.07
641.147	19235.72
641.34	19217.29
641.534	19483.52
641.727	19391.36
641.92	19055.5
642.114	18834.32
642.307	18731.92
642.5	18674.57
642.694	18305.94
642.887	18312.08
643.08	18494.35
643.273	18342.8
643.467	18305.94
643.66	18187.16
643.853	17992.6
644.046	17920.92
644.239	17623.97
644.432	17763.23
644.626	17494.94
644.819	17632.16
645.012	17400.74
645.205	17118.12
645.398	17105.83
645.591	16978.86
645.784	16997.29
645.977	16913.32
646.17	16892.84
646.363	16692.14
646.556	16552.88
646.749	16581.55
646.942	16522.16
647.135	16292.79
647.328	16257.97
647.521	16227.25
647.714	16112.56
647.907	16079.8
648.099	16016.31
648.292	15991.73
648.485	15823.8
648.678	15567.81
648.871	15666.11
649.064	15471.55
649.256	15387.58
649.449	15209.41
649.642	15137.73
649.835	15119.3
650.027	14920.65
650.22	15117.25
650.413	14961.61
650.605	14793.67
650.798	14726.09
650.991	14400.46
651.183	14705.61
651.376	14578.64
651.568	14476.24
651.761	14332.88
651.954	14535.63
652.146	14207.95
652.339	14244.82
652.531	14160.85
652.724	14001.11
652.916	13867.99
653.109	13915.09
653.301	13769.69
653.494	13798.36
653.686	13614.04
653.879	13568.99
654.071	13589.47
654.263	13267.94
654.456	13415.39
654.648	13419.49
654.84	13032.42
655.033	13181.92
655.225	13038.56
655.417	12993.51
655.61	13013.99
655.802	12751.85
655.994	12821.48
656.186	12850.15
656.379	12876.77
656.571	12626.92
656.763	12434.41
656.955	12225.52
657.148	12508.14
657.34	12366.83
657.532	12346.35
657.724	12295.15
657.916	12174.32
658.108	12149.75
658.3	11774.97
658.492	11899.89
658.684	11922.42
658.876	11817.97
659.068	11922.42
659.26	11709.43
659.452	11582.46
659.644	11691
659.836	11531.26
660.028	11484.16
660.22	11252.73
660.412	11301.89
660.604	11197.44
660.796	11156.48
660.988	11205.63
661.18	10990.59
661.372	11006.98
661.563	10968.07
661.755	10845.19
661.947	10982.4
662.139	10839.05
662.331	10976.26
662.522	10595.34
662.714	10462.22
662.906	10693.64
663.097	10458.12
663.289	10333.2
663.481	10384.4
663.673	10503.18
663.864	10140.69
664.056	9987.09
664.247	10138.64
664.439	9868.31
664.631	10146.83
664.822	10044.43
665.014	10040.34
665.205	9901.08
665.397	9862.16
665.588	9880.6
665.78	9602.07
665.971	9675.8
666.163	9636.89
666.354	9632.79
666.546	9518.11
666.737	9311.26
666.929	9475.1
667.12	9374.75
667.311	9335.84
667.503	9298.97
667.694	9370.65
667.885	9200.67
668.077	9049.12
668.268	9153.57
668.459	9090.08
668.651	8928.29
668.842	8967.2
669.033	8803.36
669.224	8758.31
669.416	9034.78
669.607	8672.29
669.798	8551.46
669.989	8797.22
670.18	8811.56
670.371	8635.43
670.563	8557.61
670.754	8664.1
670.945	8440.87
671.136	8496.17
671.327	8352.81
671.518	8361
671.709	8215.6
671.9	8315.95
672.091	8264.75
672.282	8164.4
672.473	8041.52
672.664	8272.94
672.855	8203.31
673.046	8111.15
673.237	8184.88
673.428	8098.86
673.619	8070.19
673.809	8016.94
674	7836.72
674.191	7871.54
674.382	7855.15
674.573	8043.57
674.764	7828.53
674.954	7935.03
675.145	7781.43
675.336	7771.19
675.527	7408.7
675.717	7625.78
675.908	7414.84
676.099	7672.89
676.289	7629.88
676.48	7584.82
676.671	7533.62
676.861	7459.9
677.052	7353.4
677.243	7377.98
677.433	7316.54
677.624	7324.73
677.814	7189.56
678.005	7435.32
678.195	7214.14
678.386	7410.75
678.576	7050.3
678.767	7294.01
678.957	7185.47
679.148	7380.03
679.338	7132.22
679.529	7130.17
679.719	7074.88
679.909	7171.13
680.1	7126.08
680.29	7062.59
680.481	7093.31
680.671	7107.65
680.861	6812.74
681.052	7027.78
681.242	7091.26
681.432	7040.06
681.622	6931.52
681.813	6782.02
682.003	6761.54
682.193	6771.78
682.383	6853.7
682.573	6757.44
682.764	6659.14
682.954	6820.93
683.144	6929.47
683.334	6825.03
683.524	6851.65
683.714	6927.42
683.904	6577.22
684.094	6755.4
684.284	6739.01
684.474	6820.93
684.664	6597.7
684.854	6444.1
685.044	6550.6
685.234	6585.41
685.424	6485.06
685.614	6456.39
685.804	6640.71
685.994	6478.92
686.184	6421.58
686.374	6575.17
686.564	6452.3
686.753	6358.09
686.943	6337.61
687.133	6292.55
687.323	6353.99
687.513	6263.88
687.702	6235.21
687.892	6265.93
688.082	6054.99
688.272	6141
688.461	6124.62
688.651	6165.58
688.841	6106.19
689.03	6063.18
689.22	6059.09
689.41	5944.4
689.599	6093.9
689.789	5995.6
689.979	5981.26
690.168	5919.82
690.358	5923.92
690.547	5889.1
690.737	5827.67
690.926	5936.21
691.116	5747.79
691.305	5854.29
691.495	5780.56
691.684	5731.41
691.874	5760.08
692.063	5780.56
692.252	5887.06
692.442	5719.12
692.631	5649.49
692.82	5641.3
693.01	5725.27
693.199	5526.61
693.388	5747.79
693.578	5715.03
693.767	5561.43
693.956	5518.42
694.146	5526.61
694.335	5559.38
694.524	5385.3
694.713	5586.01
694.902	5235.8
695.092	5436.5
695.281	5461.08
695.47	5301.34
695.659	5405.78
695.848	5278.81
696.037	5256.28
696.226	5485.65
696.415	5270.62
696.604	5381.21
696.793	5289.05
696.982	5334.11
697.171	5248.09
697.36	5313.63
697.549	5137.5
697.738	5168.22
697.927	5176.41
698.116	5151.84
698.305	5008.48
698.494	4967.52
698.683	5069.92
698.872	5053.53
699.061	4883.55
699.25	5108.83
699.438	5018.72
699.627	5162.08
699.816	4949.09
700.005	5035.1
700.193	4881.5
700.382	4881.5
700.571	4920.42
700.76	4824.16
700.948	4977.76
701.137	5022.81
701.326	5035.1
701.514	5078.11
701.703	4867.17
701.892	4867.17
702.08	4971.61
702.269	4732
702.457	4766.82
702.646	4686.95
702.834	4645.99
703.023	4781.15
703.212	4760.67
703.4	4729.95
703.589	4617.32
703.777	4643.94
703.965	4699.23
704.154	4633.7
704.342	4615.27
704.531	4486.25
704.719	4625.51
704.907	4559.97
705.096	4482.15
705.284	4357.22
705.472	4498.53
705.661	4306.02
705.849	4562.02
706.037	4490.34
706.226	4613.22
706.414	4258.92
706.602	4400.23
706.79	4346.98
706.979	4326.5
707.167	4373.61
707.355	4297.83
707.543	4361.32
707.731	4543.59
707.919	4248.68
708.107	4256.87
708.296	4193.39
708.484	4183.15
708.672	4291.69
708.86	4152.43
709.048	4387.94
709.236	4177
709.424	4217.96
709.612	4095.08
709.8	3976.3
709.988	4060.27
710.176	4099.18
710.364	4047.98
710.551	4060.27
710.739	4064.36
710.927	4088.94
711.115	3955.82
711.303	4115.56
711.491	4050.03
711.679	3976.3
711.866	4019.31
712.054	4099.18
712.242	3949.68
712.43	3970.16
712.617	3904.62
712.805	3966.06
712.993	3849.33
713.181	3755.12
713.368	3886.19
713.556	3908.72
713.744	3757.17
713.931	3955.82
714.119	3744.88
714.306	3898.48
714.494	3859.57
714.682	3660.91
714.869	3724.4
715.057	3773.55
715.244	3601.52
715.432	3853.42
715.619	3609.72
715.807	3613.81
715.994	3601.52
716.182	3617.91
716.369	3716.21
716.556	3718.26
716.744	3595.38
716.931	3589.24
717.119	3576.95
717.306	3488.89
717.493	3431.54
717.681	3552.37
717.868	3552.37
718.055	3372.15
718.242	3503.22
718.43	3351.67
718.617	3499.13
718.804	3415.16
718.991	3472.5
719.179	3355.77
719.366	3439.73
719.553	3409.01
719.74	3470.45
719.927	3333.24
720.114	3370.1
720.301	3345.53
720.488	3355.77
720.676	3298.42
720.863	3210.36
721.05	3314.81
721.237	3257.46
721.424	3298.42
721.611	3222.65
721.798	3228.79
721.985	3298.42
722.172	3245.18
722.358	3177.59
722.545	3259.51
722.732	3142.78
722.919	3261.56
723.106	3128.44
723.293	3230.84
723.48	3054.72
723.667	3040.38
723.853	3110.01
724.04	3101.82
724.227	3075.2
724.414	3079.29
724.6	3028.09
724.787	3142.78
724.974	3075.2
725.161	3040.38
725.347	2980.99
725.534	2987.13
725.72	3179.64
725.907	3019.9
726.094	2921.6
726.28	3097.72
726.467	3011.71
726.653	3048.57
726.84	2989.18
727.027	3028.09
727.213	2911.36
727.4	2905.21
727.586	2802.82
727.773	2940.03
727.959	2987.13
728.145	2874.49
728.332	2909.31
728.518	2892.93
728.705	2798.72
728.891	2915.45
729.077	2917.5
729.264	2856.06
729.45	2708.61
729.636	2907.26
729.823	2872.45
730.009	2937.98
730.195	2735.23
730.382	2917.5
730.568	2831.49
730.754	2808.96
730.94	2796.67
731.126	2880.64
731.313	2755.71
731.499	2673.79
731.685	2737.28
731.871	2798.72
732.057	2671.75
732.243	2604.16
732.429	2643.07
732.615	2690.18
732.801	2583.68
732.987	2768
733.173	2669.7
733.359	2675.84
733.545	2563.2
733.731	2530.44
733.917	2638.98
734.103	2647.17
734.289	2577.54
734.475	2700.42
734.661	2628.74
734.847	2710.66
735.033	2532.48
735.219	2526.34
735.404	2606.21
735.59	2606.21
735.776	2542.72
735.962	2647.17
736.148	2425.99
736.333	2622.59
736.519	2567.3
736.705	2491.52
736.89	2489.48
737.076	2432.13
737.262	2432.13
737.447	2397.32
737.633	2425.99
737.819	2499.72
738.004	2380.93
738.19	2448.52
738.375	2569.35
738.561	2487.43
738.747	2309.26
738.932	2428.04
739.118	2391.17
739.303	2446.47
739.489	2454.66
739.674	2428.04
739.859	2235.53
740.045	2272.39
740.23	2337.93
740.416	2256.01
740.601	2333.83
740.786	2342.02
740.972	2213
741.157	2296.97
741.342	2274.44
741.528	2262.15
741.713	2307.21
741.898	2184.33
742.084	2219.14
742.269	2258.06
742.454	2190.47
742.639	2192.52
742.824	2315.4
743.01	2161.8
743.195	2262.15
743.38	2153.61
743.565	2126.99
743.75	2145.42
743.935	2213
744.12	2129.03
744.305	2172.04
744.49	2081.93
744.675	2053.26
744.86	2081.93
745.045	2137.23
745.23	1942.67
745.415	2045.07
745.6	2081.93
745.785	2045.07
745.97	1940.62
746.155	2079.88
746.34	2012.3
746.525	1934.48
746.71	2104.46
746.895	1991.82
747.079	1952.91
747.264	1881.23
747.449	1873.04
747.634	1938.57
747.819	1848.46
748.003	1852.56
748.188	1840.27
748.373	1825.93
748.557	1864.85
748.742	1795.22
748.927	1838.22
749.111	1825.93
749.296	1754.26
749.481	1760.4
749.665	1776.78
749.85	1709.2
750.034	1778.83
750.219	1668.24
750.404	1655.95
750.588	1752.21
750.773	1621.14
750.957	1707.15
751.141	1606.8
751.326	1727.63
751.51	1653.91
751.695	1705.1
751.879	1666.19
752.064	1733.78
752.248	1623.19
752.432	1684.62
752.617	1539.22
752.801	1549.46
752.985	1528.98
753.17	1578.13
753.354	1555.6
753.538	1596.56
753.722	1567.89
753.907	1410.2
754.091	1467.54
754.275	1520.79
754.459	1463.44
754.643	1383.57
754.828	1528.98
755.012	1479.83
755.196	1410.2
755.38	1440.92
755.564	1361.05
755.748	1293.46
755.932	1512.6
756.116	1393.81
756.3	1416.34
756.484	1467.54
756.668	1369.24
756.852	1381.53
757.036	1389.72
757.22	1389.72
757.404	1291.41
757.588	1258.65
757.772	1389.72
757.956	1406.1
758.14	1356.95
758.323	1287.32
758.507	1365.14
758.691	1283.22
758.875	1209.5
759.059	1332.37
759.242	1176.73
759.426	1168.54
759.61	1234.07
759.794	1229.98
759.977	1309.85
760.161	1201.3
760.345	1354.9
760.528	1242.26
760.712	1209.5
760.895	1164.44
761.079	1176.73
761.263	1045.66
761.446	1168.54
761.63	1180.82
761.813	1176.73
761.997	1209.5
762.18	1105.05
762.364	1217.69
762.547	1023.13
762.731	1086.62
762.914	1127.58
763.098	1170.58
763.281	1129.63
763.464	1094.81
763.648	1055.9
763.831	1074.33
764.015	1086.62
764.198	1172.63
764.381	1135.77
764.564	1066.14
764.748	1074.33
764.931	1096.86
765.114	1037.47
765.297	1012.89
765.481	1057.95
765.664	1006.75
765.847	1113.24
766.03	1012.89
766.213	1100.95
766.397	990.36
766.58	976.03
766.763	1010.84
766.946	935.07
767.129	967.84
767.312	885.92
767.495	1029.27
767.678	1045.66
767.861	1000.6
768.044	902.3
768.227	965.79
768.41	949.4
768.593	969.88
768.776	978.08
768.959	928.92
769.142	973.98
769.324	994.46
769.507	980.12
769.69	865.44
769.873	816.29
770.056	982.17
770.239	1000.6
770.421	955.55
770.604	935.07
770.787	1012.89
770.97	826.53
771.152	871.58
771.335	955.55
771.518	834.72
771.7	1016.99
771.883	955.55
772.066	883.87
772.248	849.05
772.431	863.39
772.613	920.73
772.796	883.87
772.978	908.44
773.161	902.3
773.343	933.02
773.526	857.25
773.708	783.52
773.891	793.76
774.073	877.73
774.256	808.09
774.438	914.59
774.621	847.01
774.803	816.29
774.985	750.75
775.168	820.38
775.35	881.82
775.532	840.86
775.715	736.42
775.897	734.37
776.079	867.49
776.261	822.43
776.444	797.85
776.626	736.42
776.808	758.94
776.99	720.03
777.173	763.04
777.355	767.13
777.537	654.5
777.719	754.85
777.901	746.66
778.083	668.83
778.265	642.21
778.447	652.45
778.629	760.99
778.811	711.84
778.993	703.65
779.175	717.98
779.357	705.7
779.539	640.16
779.721	636.06
779.903	728.22
780.085	621.73
780.267	683.17
780.449	742.56
780.631	656.54
780.812	613.54
780.994	613.54
781.176	656.54
781.358	636.06
781.54	666.78
781.721	672.93
781.903	646.3
782.085	562.34
782.267	621.73
782.448	543.91
782.63	562.34
782.812	541.86
782.993	541.86
783.175	568.48
783.357	562.34
783.538	607.39
783.72	640.16
783.901	554.15
784.083	566.43
784.264	576.67
784.446	496.8
784.627	525.47
784.809	504.99
784.99	488.61
785.172	619.68
785.353	566.43
785.535	482.47
785.716	509.09
785.897	558.24
786.079	507.04
786.26	591.01
786.441	603.3
786.623	545.95
786.804	502.95
786.985	490.66
787.167	548
787.348	468.13
787.529	564.39
787.71	539.81
787.891	488.61
788.073	445.6
788.254	394.4
788.435	466.08
788.616	521.38
788.797	472.23
788.978	433.32
789.159	468.13
789.34	388.26
789.522	437.41
789.703	423.08
789.884	425.12
790.065	459.94
790.246	527.52
790.427	476.32
790.607	466.08
790.788	388.26
790.969	441.51
791.15	357.54
791.331	349.35
791.512	423.08
791.693	326.82
791.874	443.56
792.054	390.31
792.235	414.88
792.416	312.49
792.597	402.6
792.778	365.73
792.958	425.12
793.139	394.4
793.32	373.92
793.5	390.31
793.681	322.73
793.862	314.53
794.042	414.88
794.223	390.31
794.404	302.25
794.584	275.62
794.765	359.59
794.945	351.4
795.126	359.59
795.306	453.8
795.487	300.2
795.667	353.45
795.848	382.12
796.028	349.35
796.209	365.73
796.389	277.67
796.57	269.48
796.75	255.14
796.93	292.01
797.111	328.87
797.291	300.2
797.471	380.07
797.652	335.01
797.832	238.76
798.012	388.26
798.192	316.58
798.373	238.76
798.553	244.9
798.733	312.49
798.913	255.14
799.093	263.33
799.274	304.29
799.454	394.4
799.634	320.68
799.814	332.97
799.994	218.28
800.174	244.9
800.354	251.05
800.534	185.51
800.714	259.24
800.894	238.76
801.074	203.94
801.254	228.52
801.434	222.38
801.614	312.49
801.794	210.09
801.974	971.93
802.154	181.42
802.334	253.09
802.514	251.05
802.693	246.95
802.873	216.23
803.053	203.94
803.233	228.52
803.413	242.85
803.592	269.48
803.772	224.42
803.952	183.46
804.131	185.51
804.311	263.33
804.491	283.81
804.67	179.37
804.85	210.09
805.03	240.81
805.209	193.7
805.389	230.57
805.568	203.94
805.748	230.57
805.928	251.05
806.107	281.77
806.287	341.16
806.466	203.94
806.646	236.71
806.825	201.9
807.004	218.28
807.184	281.77
807.363	283.81
807.543	220.33
807.722	210.09
807.901	165.03
808.081	222.38
808.26	158.89
808.439	230.57
808.619	257.19
808.798	195.75
808.977	234.66
809.156	234.66
809.336	158.89
809.515	326.82
809.694	124.07
809.873	148.65
810.052	251.05
810.231	210.09
810.411	193.7
810.59	224.42
810.769	177.32
810.948	195.75
811.127	91.31
811.306	195.75
811.485	173.22
811.664	234.66
811.843	152.74
812.022	218.28
812.201	210.09
812.38	230.57
812.559	177.32
812.737	150.7
812.916	146.6
813.095	152.74
813.274	193.7
813.453	189.61
813.632	220.33
813.811	218.28
813.989	105.64
814.168	208.04
814.347	103.59
814.526	232.62
814.704	128.17
814.883	160.94
815.062	156.84
815.24	152.74
815.419	165.03
815.598	238.76
815.776	158.89
815.955	119.98
816.133	105.64
816.312	201.9
816.49	111.78
816.669	122.02
816.847	169.13
817.026	138.41
817.204	165.03
817.383	169.13
817.561	81.07
817.74	171.18
817.918	185.51
818.097	173.22
818.275	146.6
818.453	128.17
818.632	140.46
818.81	119.98
818.988	122.02
819.167	111.78
819.345	97.45
819.523	115.88
819.701	165.03
819.879	146.6
820.058	113.83
820.236	136.36
820.414	103.59
820.592	144.55
820.77	154.79
820.948	173.22
821.127	101.55
821.305	122.02
821.483	58.54
821.661	103.59
821.839	81.07
822.017	130.22
822.195	111.78
822.373	87.21
822.551	195.75
822.729	152.74
822.907	97.45
823.085	148.65
823.262	103.59
823.44	101.55
823.618	113.83
823.796	95.4
823.974	136.36
824.152	126.12
824.329	105.64
824.507	79.02
824.685	93.35
824.863	169.13
825.04	119.98
825.218	136.36
825.396	72.87
825.574	128.17
825.751	97.45
825.929	111.78
826.107	58.54
826.284	128.17
826.462	107.69
826.639	46.25
826.817	81.07
826.994	99.5
827.172	79.02
827.349	201.9
827.527	117.93
827.704	173.22
827.882	171.18
828.059	97.45
828.237	21.67
828.414	48.3
828.591	38.06
828.769	144.55
828.946	7.34
829.124	85.16
829.301	99.5
829.478	89.26
829.655	177.32
829.833	195.75
830.01	15.53
830.187	97.45
830.364	111.78
830.542	128.17
830.719	66.73
830.896	40.11
831.073	117.93
831.25	79.02
831.427	138.41
831.604	117.93
831.782	58.54
831.959	-0.85
832.136	107.69
832.313	58.54
832.49	89.26
832.667	83.11
832.844	66.73
833.021	115.88
833.198	134.31
833.374	113.83
833.551	93.35
833.728	83.11
833.905	64.68
834.082	95.4
834.259	97.45
834.436	40.11
834.612	-9.05
834.789	111.78
834.966	66.73
835.143	70.83
835.319	109.74
835.496	101.55
835.673	31.91
835.85	128.17
836.026	48.3
836.203	23.72
836.38	122.02
836.556	68.78
836.733	66.73
836.909	124.07
837.086	58.54
837.262	5.29
837.439	79.02
837.616	54.44
837.792	25.77
837.968	44.2
838.145	-23.38
838.321	29.87
838.498	87.21
838.674	-27.48
838.851	95.4
839.027	44.2
839.203	42.15
839.38	97.45
839.556	62.63
839.732	113.83
839.909	38.06
840.085	72.87
840.261	46.25
840.437	40.11
840.614	62.63
840.79	46.25
840.966	79.02
841.142	62.63
841.318	15.53
841.494	79.02
841.671	130.22
841.847	79.02
842.023	70.83
842.199	111.78
842.375	72.87
842.551	89.26
842.727	54.44
842.903	115.88
843.079	5.29
843.255	1.19
843.431	62.63
843.607	64.68
843.783	1.19
843.959	93.35
844.134	70.83
844.31	25.77
844.486	5.29
844.662	-0.85
844.838	21.67
845.013	122.02
845.189	40.11
845.365	72.87
845.541	21.67
845.716	83.11
845.892	33.96
846.068	89.26
846.244	-11.09
846.419	115.88
846.595	-23.38
846.77	70.83
846.946	87.21
847.122	5.29
847.297	99.5
847.473	-41.81
847.648	-0.85
847.824	54.44
847.999	-2.9
848.175	25.77
848.35	70.83
848.526	97.45
848.701	72.87
848.876	154.79
849.052	54.44
849.227	-50
849.403	48.3
849.578	95.4
849.753	83.11
849.929	87.21
850.104	-41.81
850.279	40.11
850.454	50.35
850.63	11.43
850.805	38.06
850.98	60.59
851.155	36.01
851.33	113.83
851.505	13.48
851.681	42.15
851.856	40.11
852.031	99.5
852.206	87.21
852.381	5.29
852.556	-41.81
852.731	46.25
852.906	66.73
853.081	111.78
853.256	46.25
853.431	-27.48
853.606	-17.24
853.781	-11.09
853.956	-9.05
854.131	40.11
854.305	9.39
854.48	33.96
854.655	17.58
854.83	7.34
855.005	29.87
855.18	-15.19
855.354	52.39
855.529	-4.95
855.704	42.15
855.879	72.87
856.053	-52.05
856.228	38.06
856.403	25.77
856.577	-27.48
856.752	-0.85
856.926	42.15
857.101	1.19
857.276	7.34
857.45	19.63
857.625	50.35
857.799	42.15
857.974	23.72
858.148	-19.29
858.323	40.11
858.497	-43.86
858.672	-41.81
858.846	-52.05
859.02	54.44
859.195	25.77
859.369	21.67
859.543	7.34
859.718	-29.52
859.892	46.25
860.066	-76.63
860.241	38.06
860.415	38.06
860.589	-17.24
860.763	7.34
860.938	-17.24
861.112	13.48
861.286	70.83
861.46	76.97
861.634	42.15
861.808	62.63
861.982	46.25
862.157	66.73
862.331	54.44
862.505	-60.24
862.679	29.87
862.853	44.2
863.027	54.44
863.201	-0.85
863.375	-4.95
863.549	44.2
863.722	21.67
863.896	83.11
864.07	62.63
864.244	89.26
864.418	122.02
864.592	25.77
864.766	3.24
864.939	66.73
865.113	-17.24
865.287	56.49
865.461	-31.57
865.634	-27.48
865.808	40.11
865.982	-21.33
866.156	-23.38
866.329	9.39
866.503	38.06
866.676	54.44
866.85	17.58
867.024	70.83
867.197	40.11
867.371	72.87
867.544	-27.48
867.718	-2.9
867.891	9.39
868.065	-9.05
868.238	-15.19
868.412	64.68
868.585	46.25
868.759	-52.05
868.932	27.82
869.105	70.83
869.279	38.06
869.452	-33.62
869.625	42.15
869.799	-17.24
869.972	-35.67
870.145	15.53
870.319	58.54
870.492	9.39
870.665	13.48
870.838	105.64
871.011	89.26
871.185	38.06
871.358	-35.67
871.531	132.26
871.704	-41.81
871.877	9.39
872.05	-11.09
872.223	-68.44
872.396	115.88
872.569	21.67
872.742	17.58
872.915	91.31
873.088	-37.72
873.261	7.34
873.434	52.39
873.607	-54.1
873.78	38.06
873.953	13.48
874.126	13.48
874.299	-27.48
874.471	-66.39
874.644	-15.19
874.817	27.82
874.99	122.02
875.163	7.34
875.335	25.77
875.508	36.01
875.681	62.63
875.853	62.63
876.026	62.63
876.199	-15.19
876.371	46.25
876.544	54.44
876.717	-31.57
876.889	-21.33
877.062	-17.24
877.234	3.24
877.407	-50
877.579	46.25
877.752	13.48
877.924	-2.9
878.097	-27.48
878.269	23.72
878.442	54.44
878.614	7.34
878.786	38.06
878.959	-43.86
879.131	21.67
879.303	-80.72
879.476	38.06
879.648	46.25
879.82	29.87
879.993	-27.48
880.165	-2.9
880.337	-90.96
880.509	17.58
880.681	48.3
880.854	15.53
881.026	113.83
881.198	46.25
881.37	-2.9
881.542	52.39
881.714	42.15
881.886	52.39
882.058	-35.67
882.23	5.29
882.402	-35.67
882.574	56.49
882.746	40.11
882.918	54.44
883.09	72.87
883.262	-9.05
883.434	-41.81
883.606	-11.09
883.778	-21.33
883.95	7.34
884.122	-31.57
884.293	70.83
884.465	-35.67
884.637	87.21
884.809	1.19
884.98	54.44
885.152	42.15
885.324	23.72
885.496	-35.67
885.667	-133.97
885.839	-37.72
886.011	-17.24
886.182	138.41
886.354	-0.85
886.525	-17.24
886.697	117.93
886.869	-99.16
887.04	-31.57
887.212	-9.05
887.383	40.11
887.555	-7
887.726	-43.86
887.897	9.39
888.069	54.44
888.24	29.87
888.412	-21.33
888.583	38.06
888.754	11.43
888.926	-19.29
889.097	-84.82
889.268	-25.43
889.44	-37.72
889.611	-35.67
889.782	-82.77
889.953	-82.77
890.125	3.24
890.296	-80.72
890.467	7.34
890.638	-43.86
890.809	-11.09
890.98	29.87
891.151	21.67
891.323	-19.29
891.494	-11.09
891.665	56.49
891.836	25.77
892.007	-7
892.178	66.73
892.349	74.92
892.52	-9.05
892.691	33.96
892.862	13.48
893.032	50.35
893.203	9.39
893.374	13.48
893.545	-33.62
893.716	-19.29
893.887	-2.9
894.057	-52.05
894.228	33.96
894.399	-95.06
894.57	-9.05
894.74	29.87
894.911	36.01
895.082	56.49
895.253	-0.85
895.423	15.53
895.594	13.48
895.764	-33.62
895.935	-23.38
896.106	11.43
896.276	68.78
896.447	5.29
896.617	13.48
896.788	-25.43
896.958	-35.67
897.129	-25.43
897.299	-62.29
897.47	85.16
897.64	15.53
897.81	46.25
897.981	21.67
898.151	-33.62
898.322	-17.24
898.492	-4.95
898.662	-43.86
898.832	-17.24
899.003	-43.86
899.173	-9.05
899.343	40.11
899.513	-66.39
