Data from USB4F104151__60__14-30-07-280.txt Node

Date: Thu Mar 13 14:30:07 EDT 2025
User: louis
Spectrometer: USB4F10415
Trigger mode: 4
Integration Time (sec): 2.500000E-2
Scans to average: 1
Electric dark correction enabled: true
Nonlinearity correction enabled: false
Boxcar width: 0
XAxis mode: Wavelengths
Number of Pixels in Spectrum: 3648
>>>>>Begin Spectral Data<<<<<
178.204	-92.5
178.424	-92.5
178.644	-92.5
178.864	-112.98
179.084	-170.32
179.304	36.52
179.524	-35.16
179.744	73.39
179.964	11.95
180.184	-10.58
180.404	-16.73
180.624	-20.82
180.844	9.9
181.064	-18.77
181.283	50.86
181.503	-69.97
181.723	-10.58
181.943	-14.68
182.163	61.1
182.383	50.86
182.602	3.75
182.822	50.86
183.042	54.95
183.262	-53.59
183.482	42.67
183.701	3.75
183.921	26.28
184.141	22.19
184.361	83.63
184.58	38.57
184.8	102.06
185.02	-4.44
185.239	157.35
185.459	81.58
185.679	42.67
185.898	50.86
186.118	52.91
186.338	59.05
186.557	93.87
186.777	20.14
186.997	75.43
187.216	44.71
187.436	83.63
187.655	104.11
187.875	-14.68
188.095	36.52
188.314	134.82
188.534	48.81
188.753	42.67
188.973	134.82
189.192	71.34
189.412	57
189.631	-22.87
189.851	85.67
190.07	100.01
190.29	34.47
190.509	40.62
190.729	44.71
190.948	79.53
191.168	145.06
191.387	75.43
191.607	38.57
191.826	89.77
192.045	44.71
192.265	38.57
192.484	40.62
192.704	75.43
192.923	16.04
193.142	91.82
193.362	91.82
193.581	44.71
193.8	48.81
194.02	9.9
194.239	-47.44
194.458	24.23
194.678	20.14
194.897	54.95
195.116	59.05
195.335	3.75
195.555	69.29
195.774	38.57
195.993	63.15
196.212	104.11
196.432	38.57
196.651	54.95
196.87	54.95
197.089	116.39
197.308	18.09
197.528	44.71
197.747	18.09
197.966	50.86
198.185	83.63
198.404	-26.96
198.623	85.67
198.842	18.09
199.062	50.86
199.281	85.67
199.5	1.71
199.719	42.67
199.938	54.95
200.157	67.24
200.376	89.77
200.595	30.38
200.814	24.23
201.033	110.25
201.252	28.33
201.471	-14.68
201.69	143.02
201.909	34.47
202.128	83.63
202.347	104.11
202.566	42.67
202.785	9.9
203.004	18.09
203.223	93.87
203.442	104.11
203.661	34.47
203.879	136.87
204.098	73.39
204.317	40.62
204.536	42.67
204.755	50.86
204.974	116.39
205.193	63.15
205.411	147.11
205.63	140.97
205.849	11.95
206.068	93.87
206.287	75.43
206.505	71.34
206.724	91.82
206.943	-4.44
207.162	1.71
207.381	36.52
207.599	22.19
207.818	54.95
208.037	30.38
208.255	-4.44
208.474	63.15
208.693	63.15
208.911	50.86
209.13	75.43
209.349	61.1
209.567	18.09
209.786	63.15
210.005	26.28
210.223	44.71
210.442	81.58
210.661	-6.49
210.879	95.91
211.098	18.09
211.316	85.67
211.535	30.38
211.753	79.53
211.972	100.01
212.191	91.82
212.409	18.09
212.628	28.33
212.846	-14.68
213.065	34.47
213.283	132.78
213.502	20.14
213.72	9.9
213.938	-22.87
214.157	13.99
214.375	102.06
214.594	50.86
214.812	102.06
215.031	28.33
215.249	59.05
215.467	20.14
215.686	67.24
215.904	59.05
216.122	-2.39
216.341	44.71
216.559	65.19
216.778	18.09
216.996	100.01
217.214	18.09
217.432	87.72
217.651	93.87
217.869	44.71
218.087	61.1
218.306	9.9
218.524	61.1
218.742	85.67
218.96	71.34
219.179	-2.39
219.397	38.57
219.615	93.87
219.833	-10.58
220.051	20.14
220.27	91.82
220.488	67.24
220.706	1.71
220.924	67.24
221.142	50.86
221.36	42.67
221.578	11.95
221.796	-12.63
222.015	52.91
222.233	91.82
222.451	132.78
222.669	-74.07
222.887	36.52
223.105	59.05
223.323	9.9
223.541	1.71
223.759	36.52
223.977	38.57
224.195	87.72
224.413	54.95
224.631	91.82
224.849	69.29
225.067	145.06
225.285	3.75
225.503	54.95
225.721	-26.96
225.939	16.04
226.157	83.63
226.375	100.01
226.592	1.71
226.81	50.86
227.028	104.11
227.246	157.35
227.464	-18.77
227.682	22.19
227.9	65.19
228.117	5.8
228.335	48.81
228.553	77.48
228.771	-20.82
228.989	48.81
229.206	44.71
229.424	30.38
229.642	30.38
229.86	46.76
230.077	54.95
230.295	44.71
230.513	91.82
230.731	120.49
230.948	46.76
231.166	38.57
231.384	30.38
231.601	24.23
231.819	95.91
232.037	9.9
232.254	26.28
232.472	18.09
232.689	44.71
232.907	59.05
233.125	83.63
233.342	71.34
233.56	11.95
233.777	9.9
233.995	44.71
234.213	85.67
234.43	42.67
234.648	110.25
234.865	97.96
235.083	36.52
235.3	30.38
235.518	50.86
235.735	106.15
235.953	59.05
236.17	59.05
236.388	18.09
236.605	87.72
236.822	165.54
237.04	87.72
237.257	42.67
237.475	18.09
237.692	3.75
237.909	122.54
238.127	46.76
238.344	87.72
238.562	93.87
238.779	-76.12
238.996	-2.39
239.214	100.01
239.431	32.43
239.648	11.95
239.865	42.67
240.083	87.72
240.3	26.28
240.517	38.57
240.735	28.33
240.952	20.14
241.169	124.58
241.386	-10.58
241.603	67.24
241.821	18.09
242.038	151.21
242.255	73.39
242.472	50.86
242.689	46.76
242.907	26.28
243.124	18.09
243.341	95.91
243.558	52.91
243.775	40.62
243.992	-14.68
244.209	75.43
244.426	120.49
244.643	28.33
244.86	22.19
245.078	102.06
245.295	77.48
245.512	147.11
245.729	18.09
245.946	18.09
246.163	32.43
246.38	89.77
246.597	59.05
246.814	77.48
247.031	61.1
247.248	59.05
247.464	34.47
247.681	83.63
247.898	95.91
248.115	100.01
248.332	104.11
248.549	75.43
248.766	140.97
248.983	132.78
249.2	11.95
249.417	116.39
249.633	-2.39
249.85	75.43
250.067	54.95
250.284	-6.49
250.501	93.87
250.717	73.39
250.934	20.14
251.151	42.67
251.368	59.05
251.585	69.29
251.801	11.95
252.018	34.47
252.235	-4.44
252.451	18.09
252.668	9.9
252.885	50.86
253.102	40.62
253.318	-6.49
253.535	61.1
253.752	67.24
253.968	42.67
254.185	28.33
254.401	7.85
254.618	34.47
254.835	116.39
255.051	42.67
255.268	79.53
255.484	95.91
255.701	18.09
255.917	97.96
256.134	-39.25
256.351	67.24
256.567	20.14
256.784	140.97
257	-33.11
257.217	134.82
257.433	81.58
257.65	50.86
257.866	114.34
258.082	24.23
258.299	-39.25
258.515	91.82
258.732	77.48
258.948	34.47
259.165	77.48
259.381	26.28
259.597	59.05
259.814	77.48
260.03	9.9
260.246	83.63
260.463	100.01
260.679	132.78
260.895	104.11
261.112	46.76
261.328	-14.68
261.544	-47.44
261.761	79.53
261.977	22.19
262.193	-4.44
262.409	118.44
262.626	67.24
262.842	63.15
263.058	22.19
263.274	91.82
263.49	-20.82
263.707	9.9
263.923	102.06
264.139	-35.16
264.355	77.48
264.571	71.34
264.787	93.87
265.004	100.01
265.22	59.05
265.436	-4.44
265.652	-4.44
265.868	59.05
266.084	61.1
266.3	75.43
266.516	34.47
266.732	50.86
266.948	75.43
267.164	-39.25
267.38	42.67
267.596	-22.87
267.812	75.43
268.028	110.25
268.244	-20.82
268.46	20.14
268.676	36.52
268.892	67.24
269.108	67.24
269.324	26.28
269.54	7.85
269.756	30.38
269.972	-16.73
270.188	11.95
270.403	26.28
270.619	50.86
270.835	46.76
271.051	30.38
271.267	-33.11
271.483	-4.44
271.698	-26.96
271.914	54.95
272.13	50.86
272.346	61.1
272.562	18.09
272.777	108.2
272.993	71.34
273.209	34.47
273.425	91.82
273.64	3.75
273.856	169.64
274.072	1.71
274.287	59.05
274.503	50.86
274.719	-4.44
274.934	91.82
275.15	34.47
275.366	87.72
275.581	42.67
275.797	77.48
276.012	-47.44
276.228	59.05
276.444	63.15
276.659	22.19
276.875	44.71
277.09	26.28
277.306	46.76
277.521	42.67
277.737	63.15
277.952	75.43
278.168	61.1
278.383	44.71
278.599	5.8
278.814	132.78
279.03	46.76
279.245	93.87
279.461	18.09
279.676	67.24
279.892	24.23
280.107	-2.39
280.322	83.63
280.538	124.58
280.753	63.15
280.969	30.38
281.184	24.23
281.399	67.24
281.615	40.62
281.83	34.47
282.045	3.75
282.26	1.71
282.476	28.33
282.691	9.9
282.906	59.05
283.122	108.2
283.337	38.57
283.552	69.29
283.767	16.04
283.983	136.87
284.198	65.19
284.413	104.11
284.628	22.19
284.843	69.29
285.058	42.67
285.274	28.33
285.489	28.33
285.704	52.91
285.919	1.71
286.134	100.01
286.349	18.09
286.564	122.54
286.779	63.15
286.995	11.95
287.21	-2.39
287.425	36.52
287.64	-2.39
287.855	63.15
288.07	-63.83
288.285	26.28
288.5	132.78
288.715	124.58
288.93	81.58
289.145	59.05
289.36	112.3
289.575	132.78
289.79	26.28
290.004	50.86
290.219	9.9
290.434	52.91
290.649	42.67
290.864	116.39
291.079	11.95
291.294	-10.58
291.509	169.64
291.724	28.33
291.938	24.23
292.153	77.48
292.368	75.43
292.583	91.82
292.798	54.95
293.012	87.72
293.227	34.47
293.442	22.19
293.657	132.78
293.871	59.05
294.086	59.05
294.301	77.48
294.516	116.39
294.73	34.47
294.945	59.05
295.16	44.71
295.374	112.3
295.589	87.72
295.804	42.67
296.018	26.28
296.233	93.87
296.447	50.86
296.662	26.28
296.877	42.67
297.091	26.28
297.306	126.63
297.52	59.05
297.735	95.91
297.949	48.81
298.164	50.86
298.378	34.47
298.593	20.14
298.807	18.09
299.022	110.25
299.236	52.91
299.451	108.2
299.665	87.72
299.88	112.3
300.094	100.01
300.309	102.06
300.523	22.19
300.737	1.71
300.952	75.43
301.166	50.86
301.381	26.28
301.595	57
301.809	-12.63
302.024	13.99
302.238	48.81
302.452	124.58
302.667	46.76
302.881	61.1
303.095	75.43
303.309	11.95
303.524	54.95
303.738	77.48
303.952	44.71
304.166	75.43
304.381	32.43
304.595	83.63
304.809	30.38
305.023	116.39
305.237	54.95
305.452	42.67
305.666	46.76
305.88	67.24
306.094	95.91
306.308	95.91
306.522	75.43
306.736	30.38
306.95	18.09
307.164	52.91
307.379	1.71
307.593	173.74
307.807	77.48
308.021	85.67
308.235	75.43
308.449	83.63
308.663	44.71
308.877	87.72
309.091	65.19
309.305	67.24
309.519	30.38
309.733	116.39
309.947	20.14
310.161	61.1
310.374	36.52
310.588	95.91
310.802	36.52
311.016	18.09
311.23	165.54
311.444	30.38
311.658	63.15
311.872	149.16
312.085	1.71
312.299	50.86
312.513	110.25
312.727	61.1
312.941	50.86
313.154	71.34
313.368	97.96
313.582	69.29
313.796	63.15
314.009	-6.49
314.223	20.14
314.437	118.44
314.651	83.63
314.864	42.67
315.078	71.34
315.292	42.67
315.505	1.71
315.719	100.01
315.933	28.33
316.146	-39.25
316.36	-84.31
316.573	151.21
316.787	73.39
317.001	26.28
317.214	63.15
317.428	112.3
317.641	1.71
317.855	126.63
318.068	73.39
318.282	116.39
318.495	100.01
318.709	128.68
318.922	22.19
319.136	186.02
319.349	50.86
319.563	11.95
319.776	34.47
319.99	11.95
320.203	116.39
320.417	93.87
320.63	67.24
320.843	46.76
321.057	46.76
321.27	91.82
321.483	46.76
321.697	77.48
321.91	71.34
322.124	120.49
322.337	95.91
322.55	93.87
322.763	67.24
322.977	42.67
323.19	85.67
323.403	1.71
323.617	126.63
323.83	71.34
324.043	69.29
324.256	59.05
324.469	52.91
324.683	138.92
324.896	34.47
325.109	116.39
325.322	67.24
325.535	61.1
325.748	126.63
325.962	34.47
326.175	118.44
326.388	104.11
326.601	126.63
326.814	46.76
327.027	38.57
327.24	102.06
327.453	-22.87
327.666	126.63
327.879	108.2
328.092	36.52
328.305	124.58
328.518	67.24
328.731	59.05
328.944	67.24
329.157	77.48
329.37	69.29
329.583	126.63
329.796	198.31
330.009	3.75
330.222	100.01
330.435	89.77
330.648	34.47
330.861	32.43
331.073	112.3
331.286	116.39
331.499	38.57
331.712	36.52
331.925	36.52
332.138	50.86
332.35	42.67
332.563	-12.63
332.776	75.43
332.989	100.01
333.202	48.81
333.414	59.05
333.627	124.58
333.84	34.47
334.053	91.82
334.265	67.24
334.478	1.71
334.691	85.67
334.903	81.58
335.116	75.43
335.329	11.95
335.541	89.77
335.754	108.2
335.966	57
336.179	91.82
336.392	28.33
336.604	67.24
336.817	116.39
337.029	73.39
337.242	100.01
337.454	32.43
337.667	26.28
337.88	7.85
338.092	93.87
338.305	100.01
338.517	57
338.729	16.04
338.942	52.91
339.154	-14.68
339.367	46.76
339.579	161.45
339.792	3.75
340.004	59.05
340.217	28.33
340.429	54.95
340.641	18.09
340.854	26.28
341.066	18.09
341.278	67.24
341.491	118.44
341.703	59.05
341.915	52.91
342.128	102.06
342.34	85.67
342.552	34.47
342.764	50.86
342.977	52.91
343.189	38.57
343.401	91.82
343.613	34.47
343.826	30.38
344.038	-29.01
344.25	9.9
344.462	34.47
344.674	67.24
344.886	120.49
345.099	149.16
345.311	54.95
345.523	24.23
345.735	52.91
345.947	73.39
346.159	63.15
346.371	67.24
346.583	36.52
346.795	91.82
347.007	5.8
347.219	83.63
347.431	128.68
347.643	89.77
347.855	-6.49
348.067	42.67
348.279	-37.2
348.491	134.82
348.703	34.47
348.915	59.05
349.127	32.43
349.339	63.15
349.551	26.28
349.763	61.1
349.975	52.91
350.187	91.82
350.399	50.86
350.61	93.87
350.822	100.01
351.034	42.67
351.246	3.75
351.458	54.95
351.669	77.48
351.881	75.43
352.093	67.24
352.305	93.87
352.517	116.39
352.728	116.39
352.94	67.24
353.152	118.44
353.363	50.86
353.575	116.39
353.787	91.82
353.999	77.48
354.21	102.06
354.422	-47.44
354.633	77.48
354.845	108.2
355.057	59.05
355.268	79.53
355.48	95.91
355.692	26.28
355.903	128.68
356.115	9.9
356.326	-10.58
356.538	110.25
356.749	112.3
356.961	136.87
357.172	61.1
357.384	91.82
357.595	116.39
357.807	67.24
358.018	59.05
358.23	38.57
358.441	59.05
358.653	112.3
358.864	71.34
359.075	110.25
359.287	118.44
359.498	143.02
359.709	73.39
359.921	87.72
360.132	75.43
360.344	59.05
360.555	69.29
360.766	13.99
360.977	110.25
361.189	124.58
361.4	18.09
361.611	75.43
361.823	165.54
362.034	54.95
362.245	3.75
362.456	54.95
362.667	28.33
362.879	61.1
363.09	85.67
363.301	147.11
363.512	102.06
363.723	13.99
363.935	34.47
364.146	42.67
364.357	34.47
364.568	36.52
364.779	32.43
364.99	143.02
365.201	91.82
365.412	83.63
365.623	-33.11
365.834	79.53
366.045	134.82
366.256	124.58
366.467	22.19
366.678	104.11
366.889	116.39
367.1	63.15
367.311	97.96
367.522	50.86
367.733	77.48
367.944	110.25
368.155	-4.44
368.366	50.86
368.577	42.67
368.788	67.24
368.999	20.14
369.209	91.82
369.42	108.2
369.631	91.82
369.842	75.43
370.053	91.82
370.264	128.68
370.474	20.14
370.685	116.39
370.896	63.15
371.107	108.2
371.317	93.87
371.528	38.57
371.739	108.2
371.95	124.58
372.16	126.63
372.371	54.95
372.582	63.15
372.792	46.76
373.003	44.71
373.214	50.86
373.424	108.2
373.635	54.95
373.846	59.05
374.056	61.1
374.267	34.47
374.477	87.72
374.688	75.43
374.898	71.34
375.109	87.72
375.319	28.33
375.53	159.4
375.74	65.19
375.951	22.19
376.161	104.11
376.372	128.68
376.582	24.23
376.793	28.33
377.003	71.34
377.214	126.63
377.424	69.29
377.635	52.91
377.845	44.71
378.055	77.48
378.266	100.01
378.476	97.96
378.686	91.82
378.897	126.63
379.107	120.49
379.317	87.72
379.528	38.57
379.738	77.48
379.948	75.43
380.158	42.67
380.369	36.52
380.579	83.63
380.789	38.57
380.999	132.78
381.21	116.39
381.42	183.98
381.63	83.63
381.84	132.78
382.05	112.3
382.261	181.93
382.471	30.38
382.681	50.86
382.891	108.2
383.101	110.25
383.311	54.95
383.521	52.91
383.731	89.77
383.941	126.63
384.151	-4.44
384.361	91.82
384.571	54.95
384.781	112.3
384.991	104.11
385.201	104.11
385.411	91.82
385.621	100.01
385.831	71.34
386.041	126.63
386.251	38.57
386.461	161.45
386.671	116.39
386.881	116.39
387.091	-2.39
387.301	140.97
387.511	67.24
387.72	140.97
387.93	67.24
388.14	52.91
388.35	22.19
388.56	157.35
388.769	79.53
388.979	102.06
389.189	71.34
389.399	52.91
389.609	89.77
389.818	75.43
390.028	116.39
390.238	67.24
390.447	59.05
390.657	120.49
390.867	22.19
391.076	50.86
391.286	75.43
391.496	79.53
391.705	67.24
391.915	85.67
392.125	161.45
392.334	120.49
392.544	163.5
392.753	18.09
392.963	63.15
393.172	116.39
393.382	118.44
393.591	155.3
393.801	126.63
394.01	165.54
394.22	149.16
394.429	77.48
394.639	71.34
394.848	128.68
395.058	128.68
395.267	183.98
395.477	85.67
395.686	206.5
395.895	118.44
396.105	161.45
396.314	77.48
396.524	136.87
396.733	128.68
396.942	93.87
397.152	116.39
397.361	145.06
397.57	138.92
397.78	100.01
397.989	124.58
398.198	169.64
398.407	106.15
398.617	165.54
398.826	145.06
399.035	183.98
399.244	134.82
399.453	159.4
399.663	61.1
399.872	128.68
400.081	210.6
400.29	159.4
400.499	67.24
400.708	265.89
400.917	173.74
401.127	165.54
401.336	183.98
401.545	290.47
401.754	206.5
401.963	171.69
402.172	159.4
402.381	93.87
402.59	112.3
402.799	181.93
403.008	269.99
403.217	216.74
403.426	112.3
403.635	194.22
403.844	173.74
404.053	175.78
404.262	179.88
404.471	276.13
404.68	157.35
404.888	272.04
405.097	175.78
405.306	140.97
405.515	214.7
405.724	198.31
405.933	181.93
406.142	239.27
406.35	253.61
406.559	198.31
406.768	300.71
406.977	231.08
407.185	224.94
407.394	241.32
407.603	239.27
407.812	364.2
408.02	325.29
408.229	306.85
408.438	237.22
408.646	169.64
408.855	317.09
409.064	378.53
409.272	341.67
409.481	345.77
409.69	351.91
409.898	378.53
410.107	411.3
410.315	411.3
410.524	390.82
410.733	444.07
410.941	388.77
411.15	444.07
411.358	491.17
411.567	503.46
411.775	476.84
411.984	495.27
412.192	634.53
412.401	460.45
412.609	552.61
412.818	634.53
413.026	583.33
413.234	558.75
413.443	675.49
413.651	646.82
413.86	640.67
414.068	722.59
414.276	835.23
414.485	745.12
414.693	816.8
414.901	911
415.11	863.9
415.318	880.29
415.526	1031.83
415.734	994.97
415.943	931.48
416.151	956.06
416.359	1044.12
416.567	1037.98
416.776	1115.8
416.984	1181.34
417.192	1105.56
417.4	1277.59
417.608	1123.99
417.817	1310.36
418.025	1304.21
418.233	1404.57
418.441	1322.65
418.649	1470.1
418.857	1519.25
419.065	1638.03
419.273	1511.06
419.481	1615.51
419.689	1689.23
419.897	1859.21
420.105	1881.74
420.313	1894.03
420.521	2049.68
420.729	2057.87
420.937	2090.63
421.145	2207.37
421.353	2221.7
421.561	2397.83
421.769	2305.67
421.977	2516.61
422.185	2442.89
422.393	2481.8
422.601	2766.46
422.809	2768.51
423.017	2694.79
423.224	2907.77
423.432	2991.74
423.64	3081.85
423.848	3294.84
424.056	3231.35
424.263	3473.01
424.471	3401.33
424.679	3542.64
424.887	3665.52
425.094	3833.46
425.302	3884.66
425.51	3894.9
425.718	4157.04
425.925	4154.99
426.133	4298.35
426.341	4474.47
426.548	4867.68
426.756	4744.8
426.964	4802.15
427.171	5203.55
427.379	5359.19
427.586	5178.97
427.794	5574.23
428.001	5791.31
428.209	5875.28
428.417	5813.84
428.624	6227.53
428.832	6309.45
429.039	6186.57
429.247	6301.26
429.454	6757.96
429.662	7179.84
429.869	6639.17
430.076	7294.52
430.284	7114.3
430.491	7278.14
430.699	7740.98
430.906	7972.4
431.114	7884.34
431.321	8234.54
431.528	8498.73
431.736	8726.05
431.943	9197.09
432.15	8857.12
432.358	9121.31
432.565	9627.16
432.772	9491.99
432.979	10028.56
433.187	9977.36
433.394	10180.11
433.601	10714.63
433.808	11032.07
434.016	10737.16
434.223	11367.93
434.43	12068.34
434.637	11668.98
434.844	12549.61
435.052	12629.48
435.259	12598.76
435.466	12832.23
435.673	12621.29
435.88	13428.19
436.087	14165.46
436.294	14104.02
436.501	13835.74
436.708	13899.22
436.915	14573
437.122	15492.54
437.329	14941.64
437.537	15750.59
437.743	15885.75
437.95	15685.05
438.157	16469.42
438.364	17116.58
438.571	17022.37
438.778	17386.91
438.985	18972.04
439.192	17968.54
439.399	18494.86
439.606	17974.68
439.813	18951.56
440.02	20358.52
440.227	19932.54
440.433	19891.58
440.64	20473.2
440.847	20213.11
441.054	20628.85
441.261	22308.18
441.467	21908.83
441.674	22232.41
441.881	23074.12
442.088	22996.3
442.294	22652.24
442.501	23197
442.708	23999.8
442.914	24532.28
443.121	25859.36
443.328	25216.3
443.534	26756.37
443.741	26068.25
443.948	25617.7
444.154	27895.04
444.361	27331.85
444.568	27761.92
444.774	27878.66
444.981	27921.66
445.187	28607.73
445.394	29637.86
445.6	29570.28
445.807	32113.86
446.013	30936.27
446.22	31626.44
446.426	32545.98
446.633	33297.58
446.839	34084
447.046	32781.49
447.252	34333.85
447.459	34481.31
447.665	34184.35
447.871	36373.63
448.078	37565.55
448.284	35402.89
448.491	36476.03
448.697	37686.38
448.903	38343.78
449.11	38798.43
449.316	38136.93
449.522	38898.78
449.728	39791.69
449.935	39879.75
450.141	39853.13
450.347	40916.03
450.553	39670.86
450.76	40223.81
450.966	41516.08
451.172	40885.31
451.378	42109.99
451.584	41172.02
451.791	42060.84
451.997	42296.36
452.203	42722.33
452.409	42787.87
452.615	42513.44
452.821	40838.2
453.027	40365.12
453.233	42904.6
453.44	40905.79
453.646	41407.54
453.852	41401.39
454.058	42386.47
454.264	40721.47
454.47	41825.32
454.676	40520.77
454.882	42409
455.088	38534.24
455.294	39158.87
455.5	39631.95
455.705	40201.29
455.911	38407.26
456.117	37852.27
456.323	37231.73
456.529	35382.41
456.735	36834.42
456.941	35980.42
457.147	35683.47
457.352	34403.49
457.558	34006.18
457.764	33821.86
457.97	33025.2
458.176	32650.42
458.381	32898.23
458.587	30684.37
458.793	30905.56
458.999	29428.97
459.204	31421.64
459.41	30553.3
459.616	28441.85
459.821	28740.85
460.027	28423.42
460.233	27942.14
460.438	26557.72
460.644	26656.02
460.85	25703.71
461.055	24991.02
461.261	24773.94
461.466	23219.53
461.672	22623.57
461.878	24022.33
462.083	22476.12
462.289	22281.56
462.494	21697.89
462.7	20815.21
462.905	20272.5
463.111	21187.94
463.316	21120.36
463.522	20686.19
463.727	20458.87
463.932	20428.15
464.138	20528.5
464.343	20462.96
464.549	19578.24
464.754	20475.25
464.959	20159.86
465.165	20026.75
465.37	19326.34
465.575	18738.57
465.781	19541.38
465.986	19658.11
466.191	18556.3
466.397	18138.52
466.602	17481.12
466.807	18304.4
467.012	18025.88
467.218	18232.72
467.423	17837.47
467.628	17702.3
467.833	18630.03
468.038	17888.67
468.244	17505.7
468.449	18126.23
468.654	17438.11
468.859	17290.66
469.064	17272.23
469.269	16778.67
469.474	16879.02
469.679	17192.36
469.885	16336.31
470.09	16676.27
470.295	16561.58
470.5	16350.64
470.705	16375.22
470.91	15936.95
471.115	15742.39
471.32	15908.28
471.525	15863.22
471.73	15533.5
471.935	15566.27
472.139	14925.25
472.344	15189.44
472.549	14804.42
472.754	14785.99
472.959	14437.84
473.164	14054.87
473.369	14280.14
473.574	14415.31
473.778	14384.59
473.983	14118.36
474.188	14132.69
474.393	13485.53
474.598	13594.08
474.802	13485.53
475.007	13395.42
475.212	13399.52
475.417	12838.37
475.621	12762.6
475.826	12891.62
476.031	12733.93
476.235	12459.5
476.44	12578.28
476.645	12150.26
476.849	12264.94
477.054	12279.28
477.259	12178.93
477.463	12428.78
477.668	11685.37
477.872	11967.99
478.077	11462.14
478.282	11503.1
478.486	11310.59
478.691	11253.25
478.895	11478.52
479.1	11240.96
479.304	11118.08
479.509	10833.41
479.713	11134.46
479.918	10843.65
480.122	10608.14
480.326	10868.23
480.531	10884.61
480.735	10634.76
480.94	10470.92
481.144	11062.79
481.348	10317.33
481.553	10589.71
481.757	10085.9
481.961	10507.79
482.166	10436.11
482.37	10458.64
482.574	10372.62
482.778	10405.39
482.983	10585.61
483.187	10272.27
483.391	10532.36
483.595	10249.74
483.8	10118.67
484.004	10329.61
484.208	10548.75
484.412	10317.33
484.616	10417.68
484.821	10259.98
485.025	10176.02
485.229	10356.24
485.433	10206.73
485.637	10366.48
485.841	10085.9
486.045	10122.77
486.249	10280.46
486.453	10135.06
486.657	9924.12
486.861	10362.38
487.065	10016.27
487.269	10143.25
487.473	10059.28
487.677	10384.91
487.881	10149.39
488.085	10012.18
488.289	10212.88
488.493	9971.22
488.697	10397.2
488.901	10167.82
489.105	10219.02
489.309	10147.34
489.512	10245.65
489.716	10274.32
489.92	10221.07
490.124	10284.56
490.328	10356.24
490.531	10069.52
490.735	10376.72
490.939	10284.56
491.143	10311.18
491.346	10145.3
491.55	10370.57
491.754	10503.69
491.958	10491.4
492.161	10538.51
492.365	10606.09
492.569	10466.83
492.772	10479.11
492.976	10626.57
493.18	10575.37
493.383	10645
493.587	10939.91
493.79	10751.49
493.994	10585.61
494.197	10829.32
494.401	11087.36
494.605	11113.99
494.808	11087.36
495.012	11218.43
495.215	11183.62
495.419	11339.26
495.622	11320.83
495.825	11478.52
496.029	11460.09
496.232	11707.9
496.436	11544.06
496.639	11986.42
496.843	11838.97
497.046	11986.42
497.249	12353.01
497.453	12097.01
497.656	12461.55
497.859	12217.84
498.063	12617.19
498.266	12621.29
498.469	12533.23
498.673	12559.85
498.876	12873.19
499.079	13129.19
499.282	13004.26
499.485	13454.81
499.689	13551.07
499.892	13469.15
500.095	13620.7
500.298	13848.02
500.501	13653.47
500.705	14190.03
500.908	14304.72
501.111	14290.38
501.314	14495.18
501.517	14845.38
501.72	14845.38
501.923	14761.42
502.126	15109.57
502.329	15388.1
502.532	15414.72
502.735	15640
502.938	15914.42
503.141	15842.74
503.344	16090.55
503.547	16010.68
503.75	16274.87
503.953	16565.68
504.156	16897.45
504.359	16747.95
504.562	16805.29
504.765	17116.58
504.968	17386.91
505.17	17427.87
505.373	17431.97
505.576	18052.5
505.779	18089.37
505.982	18165.14
506.185	18617.74
506.387	18447.76
506.59	18785.68
506.793	19228.04
506.996	18982.28
507.198	19699.07
507.401	19395.97
507.604	19707.26
507.807	19813.76
508.009	19928.44
508.212	19803.52
508.415	20180.34
508.617	20776.3
508.82	21067.11
509.022	20845.93
509.225	21255.53
509.428	21738.85
509.63	21579.11
509.833	21851.49
510.035	22113.63
510.238	22226.26
510.44	22445.4
510.643	22224.22
510.845	22709.58
511.048	22809.93
511.25	22922.57
511.453	23205.19
511.655	23917.89
511.858	23815.49
512.06	24257.85
512.262	24415.54
512.465	24048.96
512.667	24892.72
512.87	25017.64
513.072	25052.46
513.274	25576.74
513.477	25529.64
513.679	25769.25
513.881	26117.4
514.084	26324.25
514.286	26170.65
514.488	26301.72
514.69	27274.51
514.893	27346.19
515.095	27211.02
515.297	27555.08
515.499	27815.17
515.701	27983.1
515.904	28077.31
516.106	28642.55
516.308	28835.06
516.51	29379.82
516.712	28955.89
516.914	29093.1
517.116	29699.3
517.318	29809.89
517.52	29715.69
517.722	29936.87
517.925	30534.87
518.127	30917.84
518.329	31143.12
518.531	30776.53
518.733	31403.21
518.935	31673.54
519.136	31370.44
519.338	32134.34
519.54	32228.54
519.742	32441.53
519.944	32593.08
520.146	33115.31
520.348	32703.67
520.55	33240.24
520.752	33186.99
520.954	33821.86
521.155	33395.89
521.357	33957.03
521.559	34303.14
521.761	34706.59
521.963	34202.78
522.164	34751.64
522.366	34763.93
522.568	35443.85
522.77	35419.28
522.971	35736.71
523.173	35333.26
523.375	35789.96
523.576	35630.22
523.778	35859.59
523.98	36318.34
524.181	36123.78
524.383	36304
524.584	36213.89
524.786	36564.09
524.988	36215.94
525.189	36838.52
525.391	36953.21
525.592	36686.97
525.794	37327.99
525.995	36869.24
526.197	37088.37
526.398	37409.9
526.6	37260.4
526.801	37309.55
527.003	37614.7
527.204	37391.47
527.406	37710.96
527.607	37438.58
527.808	37956.71
528.01	37149.81
528.211	37514.35
528.412	38122.6
528.614	37856.36
528.815	37837.93
529.016	38650.97
529.218	37659.76
529.419	38151.27
529.62	37790.83
529.822	37680.24
530.023	37622.89
530.224	38073.45
530.425	37870.7
530.626	37772.39
530.828	37360.75
531.029	38370.4
531.23	37758.06
531.431	37538.93
531.632	38026.34
531.833	37966.95
532.035	38171.75
532.236	37815.4
532.437	37907.56
532.638	37534.83
532.839	37923.94
533.04	37983.34
533.241	37452.91
533.442	37930.09
533.643	37649.52
533.844	37602.41
534.045	37280.88
534.246	37133.43
534.447	37657.71
534.648	37149.81
534.849	37317.75
535.05	37106.8
535.251	37278.83
535.451	37237.87
535.652	37291.12
535.853	36842.62
536.054	37293.17
536.255	37434.48
536.456	36740.22
536.657	37239.92
536.857	37020.79
537.058	36531.33
537.259	37252.21
537.46	36865.14
537.66	36934.78
537.861	36914.3
538.062	36441.21
538.263	36789.37
538.463	36793.47
538.664	36476.03
538.865	36578.43
539.065	36703.35
539.266	36177.03
539.466	36715.64
539.667	36328.58
539.868	36863.1
540.068	36273.28
540.269	36177.03
540.469	36562.04
540.67	36304
540.87	36103.3
541.071	36437.12
541.271	36461.69
541.472	36299.9
541.672	36031.62
541.873	36091.01
542.073	35744.91
542.274	36498.56
542.474	35935.37
542.675	35902.6
542.875	36318.34
543.075	36015.24
543.276	35613.84
543.476	36183.17
543.676	35869.83
543.877	36250.75
544.077	35921.03
544.277	35816.58
544.478	35691.66
544.678	36174.98
544.878	35998.85
545.078	35599.5
545.279	35824.78
545.479	35511.44
545.679	36103.3
545.879	35499.15
546.079	35581.07
546.28	35871.88
546.48	35628.17
546.68	35888.26
546.88	35941.51
547.08	35439.76
547.28	35992.71
547.48	35658.89
547.68	35908.74
547.88	35730.57
548.081	35568.78
548.281	35560.59
548.481	35595.4
548.681	35990.66
548.881	35923.08
549.081	35619.98
549.28	35450
549.48	35994.76
549.68	35646.6
549.88	36271.23
550.08	35808.39
550.28	35769.48
550.48	35642.51
550.68	35878.02
550.88	35826.82
551.08	35726.47
551.279	35714.19
551.479	35497.1
551.679	35746.95
551.879	35749
552.079	35650.7
552.278	35660.94
552.478	35849.35
552.678	35902.6
552.878	36154.5
553.077	35726.47
553.277	35730.57
553.477	35994.76
553.676	35628.17
553.876	35921.03
554.076	35828.87
554.275	35769.48
554.475	35658.89
554.674	35880.07
554.874	36301.95
555.074	35914.89
555.273	36344.96
555.473	36160.64
555.672	35714.19
555.872	36054.15
556.071	35951.75
556.271	36011.14
556.47	36129.92
556.67	35484.81
556.869	35564.68
557.068	35886.22
557.268	35949.7
557.467	36109.44
557.667	35929.22
557.866	35875.98
558.065	36156.55
558.265	35665.03
558.464	35615.88
558.663	36134.02
558.863	35961.99
559.062	36404.35
559.261	35806.34
559.461	36142.21
559.66	35687.56
559.859	35892.36
560.058	35626.12
560.258	36000.9
560.457	35712.14
560.656	36097.16
560.855	35765.38
561.054	36277.38
561.253	35708.04
561.453	35843.21
561.652	36084.87
561.851	36138.12
562.05	35785.86
562.249	35267.73
562.448	36383.87
562.647	35923.08
562.846	35677.32
563.045	36082.82
563.244	35382.41
563.443	35583.12
563.642	35568.78
563.841	35617.93
564.04	35374.22
564.239	36158.59
564.438	35294.35
564.637	35714.19
564.836	35693.71
565.035	34860.18
565.234	35658.89
565.432	35265.68
565.631	35019.92
565.83	35443.85
566.029	35198.1
566.228	35054.74
566.427	35118.23
566.625	34641.05
566.824	34544.8
567.023	34913.43
567.222	34434.21
567.42	35234.96
567.619	34776.22
567.818	34641.05
568.016	34755.74
568.215	34997.4
568.414	34843.8
568.612	35150.99
568.811	34919.57
569.01	34288.8
569.208	34206.88
569.407	34409.63
569.605	33930.4
569.804	34161.83
570.002	33987.75
570.201	34319.52
570.4	34014.37
570.598	33979.56
570.797	33971.36
570.995	34149.54
571.193	33455.28
571.392	34006.18
571.59	33555.63
571.789	33494.19
571.987	33365.17
572.186	33352.88
572.384	33510.57
572.582	32939.19
572.781	33709.22
572.979	32928.95
573.177	33143.98
573.376	32978.1
573.574	32711.86
573.772	33012.91
573.971	32797.88
574.169	32574.65
574.367	32457.92
574.565	32685.24
574.763	32683.19
574.962	32421.05
575.16	31929.54
575.358	32083.14
575.556	31759.56
575.754	32507.07
575.952	31769.8
576.151	32271.55
576.349	31651.02
576.547	31655.11
576.745	31978.69
576.943	31575.24
577.141	31542.47
577.339	31382.73
577.537	31347.92
577.735	31605.96
577.933	31200.46
578.131	31116.5
578.329	30821.59
578.527	30747.86
578.725	30665.94
578.923	30850.26
579.121	30491.87
579.319	30612.7
579.516	30606.55
579.714	31169.74
579.912	30340.32
580.11	30479.58
580.308	30319.84
580.506	30317.79
580.704	29727.97
580.901	30199.01
581.099	30250.21
581.297	30086.37
581.495	30059.74
581.692	30026.98
581.89	29582.57
582.088	29508.84
582.285	29447.4
582.483	29699.3
582.681	29603.05
582.878	29416.68
583.076	29306.09
583.274	29527.27
583.471	28790
583.669	29150.45
583.866	29015.28
584.064	29103.34
584.262	28699.89
584.459	29035.76
584.657	28771.57
584.854	28837.11
585.052	28318.97
585.249	28466.42
585.447	28509.43
585.644	28138.75
585.841	28714.23
586.039	28599.54
586.236	28034.3
586.434	28105.98
586.631	28290.3
586.828	28282.11
587.026	28300.54
587.223	28075.26
587.42	27868.42
587.618	28105.98
587.815	27743.49
588.012	27319.56
588.21	27860.23
588.407	27757.83
588.604	27505.93
588.801	27376.9
588.999	27354.38
589.196	27518.21
589.393	27526.41
589.59	27276.55
589.787	27145.48
589.984	27104.53
590.182	26758.42
590.379	27161.87
590.576	26893.58
590.773	26725.65
590.97	26891.54
591.167	26866.96
591.364	26520.85
591.561	26907.92
591.758	26483.99
591.955	26567.96
592.152	26604.82
592.349	26676.5
592.546	26400.02
592.743	26371.35
592.94	26242.33
593.137	26377.5
593.334	26225.95
593.531	25871.65
593.727	26385.69
593.924	26215.71
594.121	25984.29
594.318	25969.95
594.515	25730.34
594.712	26150.17
594.908	25615.65
595.105	25939.23
595.302	25840.93
595.499	25853.22
595.696	25640.23
595.892	25720.1
596.089	25902.37
596.286	25857.31
596.482	25427.24
596.679	25601.32
596.876	25793.83
597.072	25541.92
597.269	25566.5
597.466	25126.19
597.662	25396.52
597.859	25263.4
598.055	25419.05
598.252	25398.57
598.448	25496.87
598.645	25468.2
598.841	25027.88
599.038	25558.31
599.234	25285.93
599.431	25136.43
599.627	25070.89
599.824	25429.29
600.02	25093.42
600.217	25156.91
600.413	25019.69
600.609	25011.5
600.806	25244.97
601.002	25261.35
601.198	24849.71
601.395	24919.34
601.591	24900.91
601.787	25300.26
601.984	25179.43
602.18	25455.91
602.376	25128.24
602.572	24759.6
602.769	25267.5
602.965	24945.97
603.161	25052.46
603.357	25265.45
603.553	25193.77
603.75	25228.59
603.946	24976.69
604.142	25099.56
604.338	24755.5
604.534	25349.42
604.73	24874.29
604.926	24876.34
605.122	25339.18
605.318	25025.84
605.514	25019.69
605.71	24960.3
605.906	24802.61
606.102	25128.24
606.298	25249.07
606.494	25140.52
606.69	25341.22
606.886	25265.45
607.082	25044.27
607.278	25457.96
607.474	24927.53
607.67	25195.82
607.866	25013.55
608.062	25449.77
608.257	25457.96
608.453	25259.31
608.649	25523.49
608.845	25242.92
609.041	25283.88
609.236	25564.45
609.432	25672.99
609.628	25300.26
609.824	25419.05
610.019	25404.71
610.215	25498.92
610.411	25668.9
610.606	25290.02
610.802	25808.16
610.998	25826.59
611.193	25672.99
611.389	25836.83
611.584	25750.82
611.78	25625.89
611.976	25916.7
612.171	26135.84
612.367	25830.69
612.562	25560.36
612.758	25656.61
612.953	25533.73
613.149	25775.39
613.344	25494.82
613.539	26209.56
613.735	25902.37
613.93	26039.58
614.126	25691.43
614.321	26021.15
614.517	26027.29
614.712	25859.36
614.907	25763.11
615.103	25978.14
615.298	26015.01
615.493	26264.86
615.688	25670.95
615.884	26410.26
616.079	25728.29
616.274	25902.37
616.47	25965.85
616.665	26035.49
616.86	25992.48
617.055	25916.7
617.25	25806.11
617.445	25974.05
617.641	25648.42
617.836	25857.31
618.031	25578.79
618.226	25914.66
618.421	25720.1
618.616	25799.97
618.811	25578.79
619.006	25629.99
619.201	25212.2
619.396	25552.16
619.591	25062.7
619.786	25740.58
619.981	24984.88
620.176	25496.87
620.371	24925.49
620.566	25066.8
620.761	24978.73
620.956	25304.36
621.151	24642.87
621.346	24761.65
621.541	24468.79
621.735	25038.12
621.93	24651.06
622.125	24765.74
622.32	24171.83
622.515	24077.63
622.709	24046.91
622.904	24169.79
623.099	23883.07
623.294	24040.76
623.488	23708.99
623.683	23661.89
623.878	23496
624.072	23643.46
624.267	23422.28
624.462	23287.11
624.656	22979.92
624.851	23180.62
625.046	22914.38
625.24	22797.65
625.435	22555.99
625.629	22713.68
625.824	22437.2
626.018	22568.27
626.213	21923.16
626.407	22238.55
626.602	21896.54
626.796	21974.36
626.991	21896.54
627.185	21687.65
627.38	21734.75
627.574	21658.98
627.768	21656.93
627.963	21216.61
628.157	21245.29
628.352	21470.56
628.546	20974.95
628.74	21099.88
628.935	20780.4
629.129	21103.98
629.323	20413.81
629.517	20591.98
629.712	20385.14
629.906	20407.67
630.1	20172.15
630.294	20239.73
630.489	20335.99
630.683	20182.39
630.877	19656.06
631.071	19750.27
631.265	20092.28
631.459	19565.95
631.653	19508.61
631.848	19656.06
632.042	19322.24
632.236	19326.34
632.43	19269
632.624	19352.96
632.818	18992.52
633.012	18644.37
633.206	18853.26
633.4	18978.19
633.594	18640.27
633.788	18480.53
633.982	18595.21
634.176	18480.53
634.369	18324.88
634.563	18369.94
634.757	17849.75
634.951	18115.99
635.145	18202
635.339	17821.08
635.533	17622.43
635.726	17868.19
635.92	17436.06
636.114	17358.24
636.308	17352.1
636.501	17423.78
636.695	17266.08
636.889	17128.87
637.083	17122.73
637.276	16934.31
637.47	16502.19
637.664	16922.02
637.857	16899.5
638.051	16498.09
638.244	16379.31
638.438	16377.26
638.632	16309.68
638.825	16336.31
639.019	16192.95
639.212	15859.13
639.406	15715.77
639.599	15945.14
639.793	15979.96
639.986	15416.77
640.18	15859.13
640.373	15607.23
640.567	15451.58
640.76	15488.45
640.954	15207.87
641.147	15140.29
641.34	14878.15
641.534	15228.35
641.727	14927.3
641.92	15027.65
642.114	14697.93
642.307	14534.09
642.5	14579.15
642.694	14486.99
642.887	14345.68
643.08	14280.14
643.273	14329.3
643.467	14228.95
643.66	14026.2
643.853	13970.9
644.046	13931.99
644.239	13862.36
644.432	13700.57
644.626	13569.5
644.819	13487.58
645.012	13616.6
645.205	13409.76
645.398	13215.2
645.591	13192.67
645.784	13125.09
645.977	12971.49
646.17	13086.18
646.363	12948.97
646.556	12830.18
646.749	12637.67
646.942	12852.71
647.135	12666.35
647.328	12684.78
647.521	12541.42
647.714	12244.46
647.907	12297.71
648.099	12506.6
648.292	12273.14
648.485	12099.06
648.678	11881.97
648.871	11800.05
649.064	11824.63
649.256	12191.22
649.449	12035.57
649.642	11687.42
649.835	11591.16
650.027	11535.87
650.22	11595.26
650.413	11574.78
650.605	11390.46
650.798	11570.68
650.991	11265.53
651.183	11437.56
651.376	11025.92
651.568	11040.26
651.761	10882.56
651.954	10950.15
652.146	10917.38
652.339	10847.75
652.531	11054.59
652.724	10833.41
652.916	10552.84
653.109	10702.34
653.301	10319.37
653.494	10589.71
653.686	10249.74
653.879	10667.53
654.071	10331.66
654.263	10204.69
654.456	10182.16
654.648	10444.3
654.84	10032.66
655.033	9977.36
655.225	10028.56
655.417	9973.27
655.61	9956.88
655.802	10010.13
655.994	9788.95
656.186	9911.83
656.379	9717.27
656.571	9672.22
656.763	9516.57
656.955	9561.62
657.148	9606.68
657.34	9627.16
657.532	9420.31
657.724	9266.72
657.916	9350.68
658.108	9291.29
658.3	9186.85
658.492	9145.89
658.684	8908.32
658.876	8920.61
659.068	9119.26
659.26	8947.23
659.452	8775.2
659.644	8889.89
659.836	8824.36
660.028	8842.79
660.22	8605.22
660.412	8853.03
660.604	8607.27
660.796	8644.13
660.988	8357.42
661.18	8480.3
661.372	8275.5
661.563	8445.48
661.755	8328.75
661.947	8261.16
662.139	8179.25
662.331	8150.57
662.522	8228.4
662.714	8146.48
662.906	8005.17
663.097	8062.51
663.289	7898.67
663.481	7984.69
663.673	7736.88
663.864	8013.36
664.056	7804.47
664.247	7900.72
664.439	7601.72
664.631	7693.88
664.822	7712.31
665.014	7616.05
665.205	7624.25
665.397	7634.49
665.588	7636.53
665.78	7319.1
665.971	7441.98
666.163	7413.31
666.354	7272
666.546	7394.87
666.737	7259.71
666.929	7286.33
667.12	7222.84
667.311	7116.35
667.503	7063.1
667.694	7153.21
667.885	6999.62
668.077	7120.45
668.268	6891.07
668.459	6870.59
668.651	6989.38
668.842	6696.52
669.033	6874.69
669.224	6682.18
669.416	6735.43
669.607	6768.2
669.798	6694.47
669.989	6725.19
670.18	6678.08
670.371	6782.53
670.563	6633.03
670.754	6694.47
670.945	6669.89
671.136	6538.82
671.327	6374.99
671.518	6538.82
671.709	6493.77
671.9	6432.33
672.091	6350.41
672.282	6231.63
672.473	6268.49
672.664	6391.37
672.855	6276.68
673.046	6278.73
673.237	6424.14
673.428	6153.8
673.619	6268.49
673.809	6172.24
674	6211.15
674.191	6039.12
674.382	6139.47
674.573	5959.25
674.764	5998.16
674.954	6344.27
675.145	6018.64
675.336	5885.52
675.527	5957.2
675.717	5875.28
675.908	5891.66
676.099	5930.58
676.289	5926.48
676.48	6039.12
676.671	5856.85
676.861	5957.2
677.052	5731.92
677.243	5885.52
677.433	5842.51
677.624	5781.07
677.814	5688.92
678.005	5828.18
678.195	5705.3
678.386	5707.35
678.576	5801.55
678.767	5664.34
678.957	5842.51
679.148	5664.34
679.338	5707.35
679.529	5789.27
679.719	5645.91
679.909	5707.35
680.1	5580.37
680.29	5613.14
680.481	5604.95
680.671	5684.82
680.861	5662.29
681.052	5490.26
681.242	5506.65
681.432	5695.06
681.622	5576.28
681.813	5520.98
682.003	5475.93
682.193	5574.23
682.383	5545.56
682.573	5414.49
682.764	5342.81
682.954	5588.57
683.144	5584.47
683.334	5363.29
683.524	5379.67
683.714	5336.67
683.904	5418.58
684.094	5367.38
684.284	5367.38
684.474	5445.21
684.664	5295.71
684.854	5260.89
685.044	5402.2
685.234	5199.45
685.424	5183.07
685.614	5353.05
685.804	5330.52
685.994	5408.34
686.184	5416.54
686.374	5201.5
686.564	5236.31
686.753	5295.71
686.943	5119.58
687.133	5219.93
687.323	5076.57
687.513	5107.29
687.702	5119.58
687.892	5041.76
688.082	5221.98
688.272	4986.46
688.461	5082.72
688.651	5154.4
688.841	5006.94
689.03	5195.36
689.22	5035.61
689.41	4984.41
689.599	4986.46
689.789	4968.03
689.979	5008.99
690.168	4976.22
690.358	5015.13
690.547	5000.8
690.737	4974.17
690.926	4965.98
691.116	4744.8
691.305	4781.67
691.495	4937.31
691.684	4843.1
691.874	4929.12
692.063	4908.64
692.252	4820.58
692.442	4871.78
692.631	4709.99
692.82	4818.53
693.01	4759.14
693.199	4599.4
693.388	4679.27
693.578	4646.5
693.767	4607.59
693.956	4650.6
694.146	4752.99
694.335	4640.36
694.524	4599.4
694.713	4675.17
694.902	4621.92
695.092	4546.15
695.281	4488.81
695.47	4503.14
695.659	4486.76
695.848	4425.32
696.037	4404.84
696.226	4472.42
696.415	4419.18
696.604	4615.78
696.793	4499.05
696.982	4351.59
697.171	4359.78
697.36	4443.75
697.549	4406.89
697.738	4453.99
697.927	4363.88
698.116	4363.88
698.305	4437.61
698.494	4384.36
698.683	4304.49
698.872	4329.06
699.061	4327.02
699.25	4327.02
699.438	4298.35
699.627	4234.86
699.816	4367.98
700.005	4310.63
700.193	4124.27
700.382	4445.8
700.571	4202.09
700.76	4286.06
700.948	4177.51
701.137	4208.23
701.326	4259.43
701.514	4185.71
701.703	4183.66
701.892	4163.18
702.08	4101.74
702.269	4081.26
702.457	4058.73
702.646	4034.16
702.834	4138.6
703.023	4073.07
703.212	4189.8
703.4	4064.88
703.589	4048.49
703.777	4007.53
703.965	3864.18
704.154	4044.4
704.342	4042.35
704.531	3985.01
704.719	3806.83
704.907	4050.54
705.096	4028.01
705.284	4062.83
705.472	3925.61
705.661	3855.98
705.849	3864.18
706.037	3843.7
706.226	3974.77
706.414	3862.13
706.602	3800.69
706.79	4046.44
706.979	3942
707.167	3831.41
707.355	3913.33
707.543	3802.74
707.731	3853.94
707.919	3821.17
708.107	3634.8
708.296	3718.77
708.484	3690.1
708.672	3729.01
708.86	3763.83
709.048	3655.28
709.236	3696.24
709.424	3708.53
709.612	3647.09
709.8	3587.7
709.988	3589.75
710.176	3638.9
710.364	3698.29
710.551	3524.21
710.739	3720.82
710.927	3614.32
711.115	3581.56
711.303	3581.56
711.491	3534.45
711.679	3554.93
711.866	3630.71
712.054	3614.32
712.242	3460.73
712.43	3542.64
712.617	3452.53
712.805	3378.81
712.993	3411.57
713.181	3477.11
713.368	3393.14
713.556	3470.97
713.744	3331.7
713.931	3403.38
714.119	3417.72
714.306	3325.56
714.494	3354.23
714.682	3188.35
714.869	3419.77
715.057	3356.28
715.244	3311.22
715.432	3335.8
715.619	3253.88
715.807	3487.35
715.994	3204.73
716.182	3221.11
716.369	3208.83
716.556	3266.17
716.744	3163.77
716.931	3155.58
717.119	3210.87
717.306	3182.2
717.493	3350.14
717.681	3151.48
717.868	3122.81
718.055	3264.12
718.242	3200.63
718.43	3122.81
718.617	3176.06
718.804	3016.32
718.991	3083.9
719.179	3147.39
719.366	3067.52
719.553	3186.3
719.74	3081.85
719.927	3106.43
720.114	3116.67
720.301	3094.14
720.488	3069.56
720.676	3067.52
720.863	3044.99
721.05	3083.9
721.237	2965.12
721.424	3018.36
721.611	2940.54
721.798	2983.55
721.985	2999.93
722.172	3006.08
722.358	2950.78
722.545	2950.78
722.732	2987.65
722.919	3061.37
723.106	2911.87
723.293	2885.25
723.48	2901.63
723.667	2913.92
723.853	2938.49
724.04	2877.05
724.227	2711.17
724.414	2799.23
724.6	2786.94
724.787	2770.56
724.974	2961.02
725.161	2754.18
725.347	2754.18
725.534	2786.94
725.72	2770.56
725.907	2893.44
726.094	2823.81
726.28	2735.74
726.467	2737.79
726.653	2745.98
726.84	2819.71
727.027	2821.76
727.213	2641.54
727.4	2803.33
727.586	2664.07
727.773	2770.56
727.959	2727.55
728.145	2690.69
728.332	2627.2
728.518	2666.11
728.705	2614.91
728.891	2629.25
729.077	2633.35
729.264	2578.05
729.45	2608.77
729.636	2676.35
729.823	2539.14
730.009	2674.31
730.195	2551.43
730.382	2598.53
730.568	2680.45
730.754	2561.67
730.94	2516.61
731.126	2635.39
731.313	2594.44
731.499	2631.3
731.685	2655.87
731.871	2485.89
732.057	2606.72
732.243	2557.57
732.429	2594.44
732.615	2565.76
732.801	2498.18
732.987	2539.14
733.173	2377.35
733.359	2625.15
733.545	2492.04
733.731	2477.7
733.917	2500.23
734.103	2371.21
734.289	2305.67
734.475	2475.65
734.661	2535.04
734.847	2461.32
735.033	2444.93
735.219	2520.71
735.404	2311.82
735.59	2330.25
735.776	2418.31
735.962	2369.16
736.148	2463.37
736.333	2518.66
736.519	2385.54
736.705	2459.27
736.89	2369.16
737.076	2320.01
737.262	2320.01
737.447	2332.3
737.633	2356.87
737.819	2346.63
738.004	2354.82
738.19	2363.01
738.375	2287.24
738.561	2346.63
738.747	2268.81
738.932	2328.2
739.118	2360.97
739.303	2205.32
739.489	2201.23
739.674	2215.56
739.859	2182.79
740.045	2307.72
740.23	2317.96
740.416	2098.83
740.601	2219.66
740.786	2180.75
740.972	2301.58
741.157	2143.88
741.342	2135.69
741.528	2082.44
741.713	2166.41
741.898	2082.44
742.084	1986.19
742.269	2072.2
742.454	2119.31
742.639	2186.89
742.824	2027.15
743.01	2188.94
743.195	2172.55
743.38	2090.63
743.565	2150.03
743.75	1990.28
743.935	2055.82
744.12	2139.79
744.305	1871.5
744.49	2033.29
744.675	1951.37
744.86	1953.42
745.045	1873.55
745.23	2000.52
745.415	1906.32
745.6	2002.57
745.785	1902.22
745.97	2000.52
746.155	1951.37
746.34	1943.18
746.525	1797.78
746.71	2002.57
746.895	1857.17
747.079	1939.09
747.264	1771.15
747.449	1840.78
747.634	1855.12
747.819	1869.45
748.003	1832.59
748.188	1722
748.373	1797.78
748.557	1885.84
748.742	1732.24
748.927	1765.01
749.111	1635.99
749.296	1791.63
749.481	1746.58
749.665	1601.17
749.85	1631.89
750.034	1611.41
750.219	1666.71
750.404	1631.89
750.588	1765.01
750.773	1709.71
750.957	1607.31
751.141	1576.59
751.326	1658.51
751.51	1488.53
751.695	1535.64
751.879	1476.24
752.064	1681.04
752.248	1545.88
752.432	1549.97
752.617	1595.03
752.801	1502.87
752.985	1545.88
753.17	1519.25
753.354	1484.44
753.538	1509.01
753.722	1480.34
753.907	1461.91
754.091	1345.17
754.275	1420.95
754.459	1349.27
754.643	1394.33
754.828	1310.36
755.012	1521.3
755.196	1328.79
755.38	1373.85
755.564	1265.3
755.748	1259.16
755.932	1351.32
756.116	1283.74
756.3	1396.37
756.484	1316.5
756.668	1279.64
756.852	1224.34
757.036	1322.65
757.22	1287.83
757.404	1216.15
757.588	1222.3
757.772	1296.02
757.956	1246.87
758.14	1238.68
758.323	1128.09
758.507	1250.97
758.691	1189.53
758.875	1214.1
759.059	1185.43
759.242	1232.54
759.426	1164.95
759.61	1189.53
759.794	1130.14
759.977	1195.67
760.161	1191.58
760.345	1214.1
760.528	1181.34
760.712	1142.43
760.895	1140.38
761.079	1123.99
761.263	1044.12
761.446	1074.84
761.63	1080.99
761.813	1240.73
761.997	1087.13
762.18	1035.93
762.364	988.83
762.547	919.2
762.731	1109.66
762.914	1025.69
763.098	988.83
763.281	1064.6
763.464	1099.42
763.648	1015.45
763.831	982.68
764.015	1056.41
764.198	1132.19
764.381	1083.03
764.564	1033.88
764.748	1040.03
764.931	1003.16
765.114	919.2
765.297	954.01
765.481	968.35
765.664	1013.4
765.847	1074.84
766.03	1087.13
766.213	941.72
766.397	992.92
766.58	904.86
766.763	956.06
766.946	947.87
767.129	1023.64
767.312	945.82
767.495	1015.45
767.678	980.64
767.861	984.73
768.044	900.76
768.227	900.76
768.41	951.96
768.593	904.86
768.776	874.14
768.959	878.24
769.142	1017.5
769.324	904.86
769.507	929.44
769.69	913.05
769.873	890.53
770.056	976.54
770.239	870.05
770.421	827.04
770.604	880.29
770.787	874.14
770.97	865.95
771.152	820.89
771.335	829.09
771.518	841.37
771.7	870.05
771.883	773.79
772.066	831.13
772.248	855.71
772.431	814.75
772.613	810.65
772.796	822.94
772.978	790.17
773.161	861.85
773.343	818.85
773.526	808.61
773.708	767.65
773.891	878.24
774.073	837.28
774.256	767.65
774.438	847.52
774.621	734.88
774.803	831.13
774.985	704.16
775.168	808.61
775.35	765.6
775.532	788.13
775.715	808.61
775.897	732.83
776.079	741.02
776.261	644.77
776.444	734.88
776.626	771.74
776.808	642.72
776.99	640.67
777.173	775.84
777.355	749.22
777.537	695.97
777.719	767.65
777.901	687.78
778.083	722.59
778.265	665.25
778.447	808.61
778.629	603.81
778.811	609.95
778.993	689.82
779.175	630.43
779.357	669.34
779.539	618.15
779.721	607.91
779.903	669.34
780.085	528.03
780.267	716.45
780.449	691.87
780.631	562.85
780.812	632.48
780.994	568.99
781.176	669.34
781.358	513.7
781.54	591.52
781.721	650.91
781.903	616.1
782.085	575.14
782.267	538.27
782.448	562.85
782.63	439.97
782.812	515.75
782.993	624.29
783.175	595.62
783.357	448.16
783.538	525.99
783.72	505.51
783.901	542.37
784.083	575.14
784.264	601.76
784.446	521.89
784.627	429.73
784.809	597.67
784.99	468.64
785.172	534.18
785.353	534.18
785.535	415.4
785.716	431.78
785.897	376.48
786.079	519.84
786.26	394.92
786.441	519.84
786.623	403.11
786.804	452.26
786.985	464.55
787.167	448.16
787.348	394.92
787.529	403.11
787.71	444.07
787.891	497.32
788.073	501.41
788.254	364.2
788.435	491.17
788.616	419.49
788.797	386.72
788.978	362.15
789.159	399.01
789.34	460.45
789.522	390.82
789.703	505.51
789.884	458.4
790.065	374.44
790.246	370.34
790.427	345.77
790.607	427.68
790.788	421.54
790.969	333.48
791.15	413.35
791.331	282.28
791.512	374.44
791.693	411.3
791.874	349.86
792.054	480.93
792.235	405.16
792.416	282.28
792.597	315.05
792.778	253.61
792.958	321.19
793.139	329.38
793.32	382.63
793.5	304.81
793.681	353.96
793.862	360.1
794.042	382.63
794.223	290.47
794.404	327.33
794.584	245.41
794.765	296.61
794.945	339.62
795.126	411.3
795.306	370.34
795.487	274.09
795.667	317.09
795.848	325.29
796.028	376.48
796.209	353.96
796.389	331.43
796.57	278.18
796.75	263.85
796.93	284.33
797.111	265.89
797.291	284.33
797.471	372.39
797.652	304.81
797.832	249.51
798.012	296.61
798.192	255.65
798.373	257.7
798.553	265.89
798.733	288.42
798.913	349.86
799.093	247.46
799.274	341.67
799.454	372.39
799.634	323.24
799.814	335.53
799.994	255.65
800.174	308.9
800.354	243.37
800.534	267.94
800.714	353.96
800.894	255.65
801.074	202.41
801.254	290.47
801.434	313
801.614	247.46
801.794	200.36
801.974	796.32
802.154	267.94
802.334	249.51
802.514	179.88
802.693	241.32
802.873	253.61
803.053	272.04
803.233	265.89
803.413	263.85
803.592	212.65
803.772	247.46
803.952	353.96
804.131	173.74
804.311	188.07
804.491	269.99
804.67	239.27
804.85	200.36
805.03	202.41
805.209	274.09
805.389	206.5
805.568	175.78
805.748	243.37
805.928	241.32
806.107	272.04
806.287	259.75
806.466	229.03
806.646	247.46
806.825	167.59
807.004	278.18
807.184	333.48
807.363	175.78
807.543	222.89
807.722	231.08
807.901	198.31
808.081	284.33
808.26	134.82
808.439	243.37
808.619	202.41
808.798	222.89
808.977	231.08
809.156	149.16
809.336	218.79
809.515	196.26
809.694	194.22
809.873	140.97
810.052	165.54
810.231	216.74
810.411	169.64
810.59	200.36
810.769	173.74
810.948	247.46
811.127	124.58
811.306	140.97
811.485	245.41
811.664	251.56
811.843	196.26
812.022	159.4
812.201	159.4
812.38	151.21
812.559	161.45
812.737	284.33
812.916	83.63
813.095	143.02
813.274	257.7
813.453	222.89
813.632	194.22
813.811	165.54
813.989	122.54
814.168	155.3
814.347	132.78
814.526	202.41
814.704	151.21
814.883	198.31
815.062	102.06
815.24	210.6
815.419	124.58
815.598	149.16
815.776	192.17
815.955	192.17
816.133	134.82
816.312	247.46
816.49	91.82
816.669	208.55
816.847	194.22
817.026	140.97
817.204	165.54
817.383	140.97
817.561	159.4
817.74	167.59
817.918	128.68
818.097	198.31
818.275	165.54
818.453	130.73
818.632	175.78
818.81	110.25
818.988	165.54
819.167	198.31
819.345	194.22
819.523	157.35
819.701	132.78
819.879	128.68
820.058	165.54
820.236	116.39
820.414	134.82
820.592	161.45
820.77	132.78
820.948	71.34
821.127	79.53
821.305	112.3
821.483	128.68
821.661	226.98
821.839	79.53
822.017	124.58
822.195	143.02
822.373	120.49
822.551	171.69
822.729	173.74
822.907	91.82
823.085	42.67
823.262	110.25
823.44	83.63
823.618	128.68
823.796	126.63
823.974	128.68
824.152	100.01
824.329	83.63
824.507	118.44
824.685	169.64
824.863	208.55
825.04	132.78
825.218	138.92
825.396	91.82
825.574	118.44
825.751	54.95
825.929	93.87
826.107	54.95
826.284	77.48
826.462	124.58
826.639	149.16
826.817	83.63
826.994	81.58
827.172	85.67
827.349	173.74
827.527	75.43
827.704	116.39
827.882	173.74
828.059	50.86
828.237	112.3
828.414	108.2
828.591	73.39
828.769	143.02
828.946	79.53
829.124	134.82
829.301	122.54
829.478	145.06
829.655	102.06
829.833	104.11
830.01	44.71
830.187	108.2
830.364	67.24
830.542	67.24
830.719	143.02
830.896	116.39
831.073	85.67
831.25	61.1
831.427	157.35
831.604	132.78
831.782	81.58
831.959	116.39
832.136	106.15
832.313	67.24
832.49	52.91
832.667	75.43
832.844	67.24
833.021	138.92
833.198	179.88
833.374	145.06
833.551	67.24
833.728	122.54
833.905	114.34
834.082	42.67
834.259	114.34
834.436	106.15
834.612	118.44
834.789	145.06
834.966	102.06
835.143	122.54
835.319	67.24
835.496	157.35
835.673	106.15
835.85	140.97
836.026	83.63
836.203	143.02
836.38	65.19
836.556	40.62
836.733	48.81
836.909	186.02
837.086	18.09
837.262	93.87
837.439	83.63
837.616	71.34
837.792	87.72
837.968	118.44
838.145	77.48
838.321	151.21
838.498	140.97
838.674	89.77
838.851	46.76
839.027	38.57
839.203	134.82
839.38	93.87
839.556	69.29
839.732	108.2
839.909	28.33
840.085	104.11
840.261	77.48
840.437	28.33
840.614	46.76
840.79	61.1
840.966	83.63
841.142	69.29
841.318	85.67
841.494	79.53
841.671	130.73
841.847	57
842.023	42.67
842.199	38.57
842.375	138.92
842.551	-80.21
842.727	63.15
842.903	116.39
843.079	16.04
843.255	65.19
843.431	50.86
843.607	36.52
843.783	-6.49
843.959	91.82
844.134	100.01
844.31	110.25
844.486	50.86
844.662	85.67
844.838	83.63
845.013	75.43
845.189	57
845.365	-22.87
845.541	87.72
845.716	134.82
845.892	83.63
846.068	1.71
846.244	50.86
846.419	106.15
846.595	46.76
846.77	91.82
846.946	71.34
847.122	136.87
847.297	-10.58
847.473	118.44
847.648	7.85
847.824	-24.92
847.999	22.19
848.175	69.29
848.35	50.86
848.526	161.45
848.701	-0.34
848.876	26.28
849.052	77.48
849.227	79.53
849.403	75.43
849.578	87.72
849.753	24.23
849.929	85.67
850.104	18.09
850.279	9.9
850.454	91.82
850.63	77.48
850.805	54.95
850.98	75.43
851.155	77.48
851.33	42.67
851.505	79.53
851.681	194.22
851.856	67.24
852.031	79.53
852.206	32.43
852.381	44.71
852.556	132.78
852.731	34.47
852.906	-2.39
853.081	50.86
853.256	67.24
853.431	83.63
853.606	28.33
853.781	26.28
853.956	50.86
854.131	97.96
854.305	13.99
854.48	-10.58
854.655	20.14
854.83	50.86
855.005	34.47
855.18	-0.34
855.354	59.05
855.529	38.57
855.704	67.24
855.879	26.28
856.053	67.24
856.228	71.34
856.403	-31.06
856.577	100.01
856.752	5.8
856.926	46.76
857.101	20.14
857.276	114.34
857.45	34.47
857.625	83.63
857.799	7.85
857.974	30.38
858.148	-51.54
858.323	30.38
858.497	61.1
858.672	34.47
858.846	44.71
859.02	108.2
859.195	30.38
859.369	83.63
859.543	42.67
859.718	67.24
859.892	26.28
860.066	42.67
860.241	120.49
860.415	13.99
860.589	124.58
860.763	48.81
860.938	1.71
861.112	79.53
861.286	71.34
861.46	97.96
861.634	67.24
861.808	36.52
861.982	-18.77
862.157	-59.73
862.331	7.85
862.505	59.05
862.679	-22.87
862.853	-18.77
863.027	46.76
863.201	91.82
863.375	59.05
863.549	69.29
863.722	-72.02
863.896	93.87
864.07	1.71
864.244	81.58
864.418	71.34
864.592	42.67
864.766	-39.25
864.939	63.15
865.113	28.33
865.287	110.25
865.461	11.95
865.634	28.33
865.808	-26.96
865.982	18.09
866.156	67.24
866.329	-33.11
866.503	65.19
866.676	75.43
866.85	9.9
867.024	32.43
867.197	59.05
867.371	59.05
867.544	71.34
867.718	-67.92
867.891	108.2
868.065	22.19
868.238	18.09
868.412	110.25
868.585	28.33
868.759	83.63
868.932	-33.11
869.105	5.8
869.279	34.47
869.452	28.33
869.625	93.87
869.799	13.99
869.972	3.75
870.145	89.77
870.319	38.57
870.492	-39.25
870.665	-12.63
870.838	-18.77
871.011	-72.02
871.185	-24.92
871.358	13.99
871.531	38.57
871.704	-43.35
871.877	124.58
872.05	65.19
872.223	-12.63
872.396	89.77
872.569	5.8
872.742	-35.16
872.915	65.19
873.088	7.85
873.261	-69.97
873.434	20.14
873.607	22.19
873.78	77.48
873.953	26.28
874.126	-57.68
874.299	91.82
874.471	-22.87
874.644	-47.44
874.817	140.97
874.99	69.29
875.163	26.28
875.335	42.67
875.508	36.52
875.681	54.95
875.853	36.52
876.026	91.82
876.199	-22.87
876.371	7.85
876.544	75.43
876.717	-35.16
876.889	9.9
877.062	69.29
877.234	36.52
877.407	11.95
877.579	-2.39
877.752	18.09
877.924	7.85
878.097	57
878.269	36.52
878.442	89.77
878.614	36.52
878.786	1.71
878.959	22.19
879.131	-20.82
879.303	-63.83
879.476	16.04
879.648	28.33
879.82	153.26
879.993	77.48
880.165	26.28
880.337	-47.44
880.509	44.71
880.681	-35.16
880.854	11.95
881.026	36.52
881.198	116.39
881.37	-6.49
881.542	-26.96
881.714	-12.63
881.886	38.57
882.058	-45.4
882.23	1.71
882.402	97.96
882.574	44.71
882.746	5.8
882.918	1.71
883.09	22.19
883.262	30.38
883.434	-24.92
883.606	11.95
883.778	48.81
883.95	100.01
884.122	-14.68
884.293	30.38
884.465	-29.01
884.637	18.09
884.809	89.77
884.98	30.38
885.152	93.87
885.324	38.57
885.496	-20.82
885.667	18.09
885.839	-53.59
886.011	-6.49
886.182	18.09
886.354	54.95
886.525	32.43
886.697	100.01
886.869	18.09
887.04	36.52
887.212	75.43
887.383	69.29
887.555	34.47
887.726	1.71
887.897	36.52
888.069	85.67
888.24	26.28
888.412	28.33
888.583	-35.16
888.754	36.52
888.926	-84.31
889.097	-6.49
889.268	5.8
889.44	18.09
889.611	-61.78
889.782	30.38
889.953	-14.68
890.125	26.28
890.296	-55.64
890.467	-72.02
890.638	18.09
890.809	34.47
890.98	1.71
891.151	36.52
891.323	61.1
891.494	1.71
891.665	5.8
891.836	22.19
892.007	11.95
892.178	36.52
892.349	28.33
892.52	1.71
892.691	-2.39
892.862	-84.31
893.032	13.99
893.203	54.95
893.374	34.47
893.545	42.67
893.716	11.95
893.887	38.57
894.057	30.38
894.228	22.19
894.399	52.91
894.57	36.52
894.74	26.28
894.911	-4.44
895.082	-14.68
895.253	11.95
895.423	67.24
895.594	34.47
895.764	100.01
895.935	3.75
896.106	34.47
896.276	1.71
896.447	-14.68
896.617	34.47
896.788	5.8
896.958	75.43
897.129	28.33
897.299	-0.34
897.47	63.15
897.64	52.91
897.81	-47.44
897.981	138.92
898.151	-31.06
898.322	75.43
898.492	34.47
898.662	22.19
898.832	13.99
899.003	-31.06
899.173	34.47
899.343	-18.77
899.513	22.19
