Data from USB4F104151__45__14-29-53-134.txt Node

Date: Thu Mar 13 14:29:53 EDT 2025
User: louis
Spectrometer: USB4F10415
Trigger mode: 4
Integration Time (sec): 2.500000E-2
Scans to average: 1
Electric dark correction enabled: true
Nonlinearity correction enabled: false
Boxcar width: 0
XAxis mode: Wavelengths
Number of Pixels in Spectrum: 3648
>>>>>Begin Spectral Data<<<<<
178.204	-131.24
178.424	-131.24
178.644	-131.24
178.864	-118.95
179.084	-137.38
179.304	-28.84
179.524	-71.85
179.744	55.12
179.964	32.6
180.184	16.21
180.404	22.36
180.624	-6.31
180.844	48.98
181.064	-90.28
181.283	32.6
181.503	63.32
181.723	-73.9
181.943	-57.51
182.163	53.08
182.383	-0.17
182.602	61.27
182.822	65.36
183.042	73.56
183.262	-65.71
183.482	130.9
183.701	44.88
183.921	-20.65
184.141	-16.55
184.361	14.17
184.58	16.21
184.8	40.79
185.02	34.64
185.239	48.98
185.459	44.88
185.679	65.36
185.898	-75.95
186.118	57.17
186.338	32.6
186.557	34.64
186.777	-30.89
186.997	-55.47
187.216	-6.31
187.436	81.75
187.655	61.27
187.875	87.89
188.095	22.36
188.314	28.5
188.534	108.37
188.753	73.56
188.973	16.21
189.192	59.22
189.412	98.13
189.631	-2.22
189.851	-37.03
190.07	94.04
190.29	-16.55
190.509	-8.36
190.729	-12.46
190.948	81.75
191.168	186.19
191.387	-20.65
191.607	-39.08
191.826	67.41
192.045	-20.65
192.265	67.41
192.484	81.75
192.704	-4.27
192.923	-4.27
193.142	24.4
193.362	48.98
193.581	85.84
193.8	83.8
194.02	91.99
194.239	59.22
194.458	-14.51
194.678	40.79
194.897	51.03
195.116	1.88
195.335	91.99
195.555	16.21
195.774	-14.51
195.993	73.56
196.212	10.07
196.432	-16.55
196.651	-2.22
196.87	-12.46
197.089	32.6
197.308	85.84
197.528	77.65
197.747	18.26
197.966	-20.65
198.185	83.8
198.404	-14.51
198.623	8.02
198.842	40.79
199.062	128.85
199.281	77.65
199.5	-37.03
199.719	46.93
199.938	36.69
200.157	53.08
200.376	36.69
200.595	122.71
200.814	22.36
201.033	-8.36
201.252	67.41
201.471	71.51
201.69	71.51
201.909	91.99
202.128	22.36
202.347	48.98
202.566	94.04
202.785	-16.55
203.004	-37.03
203.223	81.75
203.442	-16.55
203.661	16.21
203.879	24.4
204.098	16.21
204.317	3.93
204.536	79.7
204.755	51.03
204.974	3.93
205.193	24.4
205.411	34.64
205.63	14.17
205.849	61.27
206.068	24.4
206.287	48.98
206.505	61.27
206.724	83.8
206.943	-24.75
207.162	20.31
207.381	14.17
207.599	8.02
207.818	-2.22
208.037	-10.41
208.255	40.79
208.474	-0.17
208.693	-14.51
208.911	32.6
209.13	-8.36
209.349	98.13
209.567	-8.36
209.786	98.13
210.005	20.31
210.223	1.88
210.442	-47.27
210.661	20.31
210.879	28.5
211.098	16.21
211.316	46.93
211.535	98.13
211.753	26.45
211.972	48.98
212.191	98.13
212.409	26.45
212.628	5.97
212.846	-24.75
213.065	51.03
213.283	73.56
213.502	48.98
213.72	-0.17
213.938	36.69
214.157	24.4
214.375	8.02
214.594	38.74
214.812	-4.27
215.031	28.5
215.249	57.17
215.467	48.98
215.686	34.64
215.904	16.21
216.122	77.65
216.341	159.57
216.559	-22.7
216.778	75.6
216.996	12.12
217.214	53.08
217.432	18.26
217.651	-24.75
217.869	61.27
218.087	8.02
218.306	34.64
218.524	77.65
218.742	32.6
218.96	-6.31
219.179	-14.51
219.397	-51.37
219.615	75.6
219.833	57.17
220.051	30.55
220.27	69.46
220.488	124.76
220.706	51.03
220.924	40.79
221.142	34.64
221.36	-0.17
221.578	10.07
221.796	139.09
222.015	51.03
222.233	18.26
222.451	5.97
222.669	-12.46
222.887	40.79
223.105	28.5
223.323	98.13
223.541	-4.27
223.759	61.27
223.977	24.4
224.195	100.18
224.413	65.36
224.631	108.37
224.849	57.17
225.067	122.71
225.285	-32.94
225.503	26.45
225.721	-8.36
225.939	98.13
226.157	16.21
226.375	83.8
226.592	-20.65
226.81	-4.27
227.028	34.64
227.246	81.75
227.464	20.31
227.682	57.17
227.9	55.12
228.117	57.17
228.335	-43.18
228.553	59.22
228.771	36.69
228.989	32.6
229.206	53.08
229.424	-2.22
229.642	34.64
229.86	-37.03
230.077	61.27
230.295	-4.27
230.513	40.79
230.731	36.69
230.948	98.13
231.166	38.74
231.384	-49.32
231.601	30.55
231.819	135
232.037	24.4
232.254	-37.03
232.472	48.98
232.689	-26.79
232.907	98.13
233.125	-10.41
233.342	69.46
233.56	-84.14
233.777	32.6
233.995	51.03
234.213	102.23
234.43	-16.55
234.648	-0.17
234.865	36.69
235.083	94.04
235.3	-4.27
235.518	20.31
235.735	122.71
235.953	8.02
236.17	51.03
236.388	-90.28
236.605	79.7
236.822	20.31
237.04	85.84
237.257	32.6
237.475	-73.9
237.692	18.26
237.909	8.02
238.127	-14.51
238.344	61.27
238.562	57.17
238.779	14.17
238.996	-30.89
239.214	48.98
239.431	67.41
239.648	8.02
239.865	8.02
240.083	57.17
240.3	-28.84
240.517	10.07
240.735	-32.94
240.952	85.84
241.169	61.27
241.386	1.88
241.603	8.02
241.821	-6.31
242.038	16.21
242.255	3.93
242.472	5.97
242.689	126.8
242.907	28.5
243.124	91.99
243.341	-37.03
243.558	28.5
243.775	-82.09
243.992	8.02
244.209	59.22
244.426	61.27
244.643	83.8
244.86	26.45
245.078	14.17
245.295	130.9
245.512	40.79
245.729	26.45
245.946	59.22
246.163	106.32
246.38	16.21
246.597	-4.27
246.814	65.36
247.031	10.07
247.248	69.46
247.464	24.4
247.681	8.02
247.898	89.94
248.115	89.94
248.332	-16.55
248.549	100.18
248.766	32.6
248.983	34.64
249.2	32.6
249.417	67.41
249.633	28.5
249.85	65.36
250.067	42.84
250.284	61.27
250.501	51.03
250.717	57.17
250.934	-41.13
251.151	114.52
251.368	-20.65
251.585	36.69
251.801	48.98
252.018	-47.27
252.235	44.88
252.451	73.56
252.668	-32.94
252.885	57.17
253.102	100.18
253.318	8.02
253.535	14.17
253.752	20.31
253.968	10.07
254.185	16.21
254.401	34.64
254.618	44.88
254.835	26.45
255.051	98.13
255.268	28.5
255.484	28.5
255.701	34.64
255.917	89.94
256.134	-4.27
256.351	3.93
256.567	10.07
256.784	18.26
257	-30.89
257.217	139.09
257.433	61.27
257.65	16.21
257.866	67.41
258.082	24.4
258.299	48.98
258.515	-0.17
258.732	53.08
258.948	48.98
259.165	18.26
259.381	16.21
259.597	20.31
259.814	24.4
260.03	65.36
260.246	34.64
260.463	28.5
260.679	1.88
260.895	26.45
261.112	12.12
261.328	8.02
261.544	32.6
261.761	63.32
261.977	-16.55
262.193	1.88
262.409	12.12
262.626	36.69
262.842	89.94
263.058	-20.65
263.274	61.27
263.49	16.21
263.707	26.45
263.923	77.65
264.139	36.69
264.355	-57.51
264.571	59.22
264.787	83.8
265.004	116.56
265.22	24.4
265.436	36.69
265.652	-16.55
265.868	20.31
266.084	1.88
266.3	55.12
266.516	-0.17
266.732	-6.31
266.948	-0.17
267.164	-0.17
267.38	-12.46
267.596	48.98
267.812	18.26
268.028	79.7
268.244	51.03
268.46	34.64
268.676	12.12
268.892	-26.79
269.108	-0.17
269.324	18.26
269.54	12.12
269.756	91.99
269.972	-12.46
270.188	16.21
270.403	-16.55
270.619	20.31
270.835	20.31
271.051	79.7
271.267	106.32
271.483	3.93
271.698	-4.27
271.914	28.5
272.13	57.17
272.346	20.31
272.562	69.46
272.777	106.32
272.993	8.02
273.209	36.69
273.425	57.17
273.64	-16.55
273.856	1.88
274.072	42.84
274.287	16.21
274.503	24.4
274.719	-47.27
274.934	36.69
275.15	18.26
275.366	48.98
275.581	40.79
275.797	40.79
276.012	63.32
276.228	36.69
276.444	67.41
276.659	83.8
276.875	-32.94
277.09	-0.17
277.306	10.07
277.521	40.79
277.737	3.93
277.952	44.88
278.168	18.26
278.383	75.6
278.599	-32.94
278.814	32.6
279.03	10.07
279.245	65.36
279.461	77.65
279.676	114.52
279.892	73.56
280.107	48.98
280.322	40.79
280.538	40.79
280.753	-51.37
280.969	48.98
281.184	44.88
281.399	67.41
281.615	-10.41
281.83	42.84
282.045	-8.36
282.26	102.23
282.476	1.88
282.691	110.42
282.906	73.56
283.122	26.45
283.337	61.27
283.552	55.12
283.767	28.5
283.983	42.84
284.198	-14.51
284.413	26.45
284.628	-8.36
284.843	34.64
285.058	12.12
285.274	8.02
285.489	8.02
285.704	44.88
285.919	48.98
286.134	5.97
286.349	55.12
286.564	-32.94
286.779	73.56
286.995	-20.65
287.21	-41.13
287.425	81.75
287.64	-4.27
287.855	-0.17
288.07	-32.94
288.285	26.45
288.5	128.85
288.715	73.56
288.93	-32.94
289.145	40.79
289.36	69.46
289.575	32.6
289.79	-4.27
290.004	12.12
290.219	77.65
290.434	40.79
290.649	75.6
290.864	-22.7
291.079	-67.75
291.294	83.8
291.509	10.07
291.724	85.84
291.938	8.02
292.153	96.08
292.368	3.93
292.583	-0.17
292.798	106.32
293.012	48.98
293.227	57.17
293.442	51.03
293.657	63.32
293.871	44.88
294.086	-14.51
294.301	149.33
294.516	8.02
294.73	73.56
294.945	53.08
295.16	3.93
295.374	73.56
295.589	73.56
295.804	-37.03
296.018	28.5
296.233	67.41
296.447	18.26
296.662	59.22
296.877	-8.36
297.091	83.8
297.306	8.02
297.52	34.64
297.735	114.52
297.949	22.36
298.164	12.12
298.378	36.69
298.593	1.88
298.807	-123.05
299.022	73.56
299.236	63.32
299.451	89.94
299.665	-43.18
299.88	1.88
300.094	81.75
300.309	83.8
300.523	48.98
300.737	32.6
300.952	32.6
301.166	94.04
301.381	-6.31
301.595	69.46
301.809	24.4
302.024	40.79
302.238	3.93
302.452	10.07
302.667	16.21
302.881	18.26
303.095	57.17
303.309	57.17
303.524	48.98
303.738	-28.84
303.952	16.21
304.166	48.98
304.381	8.02
304.595	114.52
304.809	-2.22
305.023	51.03
305.237	32.6
305.452	57.17
305.666	53.08
305.88	124.76
306.094	12.12
306.308	87.89
306.522	57.17
306.736	24.4
306.95	-0.17
307.164	16.21
307.379	57.17
307.593	53.08
307.807	91.99
308.021	73.56
308.235	34.64
308.449	67.41
308.663	71.51
308.877	106.32
309.091	20.31
309.305	67.41
309.519	-41.13
309.733	36.69
309.947	-6.31
310.161	73.56
310.374	28.5
310.588	87.89
310.802	-24.75
311.016	24.4
311.23	32.6
311.444	30.55
311.658	40.79
311.872	32.6
312.085	83.8
312.299	81.75
312.513	12.12
312.727	46.93
312.941	-96.43
313.154	18.26
313.368	75.6
313.582	87.89
313.796	-2.22
314.009	51.03
314.223	89.94
314.437	77.65
314.651	40.79
314.864	12.12
315.078	28.5
315.292	-41.13
315.505	55.12
315.719	53.08
315.933	-8.36
316.146	40.79
316.36	-20.65
316.573	44.88
316.787	94.04
317.001	10.07
317.214	-0.17
317.428	20.31
317.641	-12.46
317.855	65.36
318.068	-0.17
318.282	98.13
318.495	63.32
318.709	36.69
318.922	-30.89
319.136	16.21
319.349	106.32
319.563	22.36
319.776	51.03
319.99	-53.42
320.203	126.8
320.417	-67.75
320.63	38.74
320.843	73.56
321.057	42.84
321.27	-14.51
321.483	22.36
321.697	46.93
321.91	36.69
322.124	18.26
322.337	83.8
322.55	42.84
322.763	42.84
322.977	51.03
323.19	61.27
323.403	89.94
323.617	59.22
323.83	163.67
324.043	26.45
324.256	100.18
324.469	-20.65
324.683	28.5
324.896	26.45
325.109	57.17
325.322	20.31
325.535	28.5
325.748	-20.65
325.962	42.84
326.175	42.84
326.388	40.79
326.601	18.26
326.814	89.94
327.027	69.46
327.24	59.22
327.453	-2.22
327.666	108.37
327.879	-14.51
328.092	53.08
328.305	8.02
328.518	-18.6
328.731	-30.89
328.944	10.07
329.157	63.32
329.37	48.98
329.583	114.52
329.796	89.94
330.009	-37.03
330.222	114.52
330.435	108.37
330.648	55.12
330.861	12.12
331.073	81.75
331.286	91.99
331.499	81.75
331.712	34.64
331.925	3.93
332.138	110.42
332.35	73.56
332.563	36.69
332.776	57.17
332.989	53.08
333.202	65.36
333.414	-8.36
333.627	91.99
333.84	81.75
334.053	100.18
334.265	24.4
334.478	42.84
334.691	59.22
334.903	-0.17
335.116	28.5
335.329	51.03
335.541	77.65
335.754	171.86
335.966	-2.22
336.179	28.5
336.392	-10.41
336.604	-65.71
336.817	94.04
337.029	18.26
337.242	24.4
337.454	106.32
337.667	-0.17
337.88	126.8
338.092	44.88
338.305	53.08
338.517	22.36
338.729	1.88
338.942	48.98
339.154	67.41
339.367	-43.18
339.579	-4.27
339.792	65.36
340.004	26.45
340.217	51.03
340.429	59.22
340.641	40.79
340.854	75.6
341.066	48.98
341.278	73.56
341.491	57.17
341.703	75.6
341.915	26.45
342.128	20.31
342.34	36.69
342.552	-12.46
342.764	59.22
342.977	-61.61
343.189	20.31
343.401	16.21
343.613	-47.27
343.826	79.7
344.038	40.79
344.25	73.56
344.462	-16.55
344.674	-20.65
344.886	-12.46
345.099	73.56
345.311	32.6
345.523	116.56
345.735	3.93
345.947	102.23
346.159	22.36
346.371	14.17
346.583	36.69
346.795	116.56
347.007	24.4
347.219	83.8
347.431	34.64
347.643	83.8
347.855	36.69
348.067	122.71
348.279	-8.36
348.491	16.21
348.703	1.88
348.915	3.93
349.127	12.12
349.339	44.88
349.551	-12.46
349.763	69.46
349.975	-14.51
350.187	77.65
350.399	48.98
350.61	-16.55
350.822	20.31
351.034	57.17
351.246	24.4
351.458	53.08
351.669	94.04
351.881	67.41
352.093	71.51
352.305	79.7
352.517	18.26
352.728	130.9
352.94	163.67
353.152	98.13
353.363	36.69
353.575	98.13
353.787	83.8
353.999	30.55
354.21	32.6
354.422	-32.94
354.633	57.17
354.845	18.26
355.057	1.88
355.268	98.13
355.48	20.31
355.692	48.98
355.903	-16.55
356.115	96.08
356.326	51.03
356.538	96.08
356.749	34.64
356.961	149.33
357.172	51.03
357.384	-2.22
357.595	110.42
357.807	-4.27
358.018	28.5
358.23	24.4
358.441	55.12
358.653	91.99
358.864	65.36
359.075	16.21
359.287	73.56
359.498	26.45
359.709	73.56
359.921	67.41
360.132	65.36
360.344	44.88
360.555	-14.51
360.766	114.52
360.977	36.69
361.189	-0.17
361.4	71.51
361.611	67.41
361.823	69.46
362.034	32.6
362.245	42.84
362.456	26.45
362.667	32.6
362.879	67.41
363.09	91.99
363.301	98.13
363.512	75.6
363.723	69.46
363.935	-12.46
364.146	85.84
364.357	57.17
364.568	65.36
364.779	8.02
364.99	75.6
365.201	-8.36
365.412	100.18
365.623	53.08
365.834	89.94
366.045	1.88
366.256	48.98
366.467	85.84
366.678	32.6
366.889	8.02
367.1	36.69
367.311	34.64
367.522	-14.51
367.733	135
367.944	87.89
368.155	48.98
368.366	85.84
368.577	44.88
368.788	124.76
368.999	106.32
369.209	40.79
369.42	141.14
369.631	75.6
369.842	65.36
370.053	28.5
370.264	81.75
370.474	-24.75
370.685	32.6
370.896	-8.36
371.107	89.94
371.317	16.21
371.528	122.71
371.739	53.08
371.95	190.29
372.16	65.36
372.371	36.69
372.582	34.64
372.792	130.9
373.003	46.93
373.214	10.07
373.424	65.36
373.635	61.27
373.846	110.42
374.056	24.4
374.267	53.08
374.477	65.36
374.688	65.36
374.898	28.5
375.109	73.56
375.319	42.84
375.53	57.17
375.74	91.99
375.951	71.51
376.161	85.84
376.372	8.02
376.582	16.21
376.793	40.79
377.003	36.69
377.214	14.17
377.424	61.27
377.635	44.88
377.845	-4.27
378.055	91.99
378.266	83.8
378.476	137.04
378.686	32.6
378.897	116.56
379.107	75.6
379.317	20.31
379.528	48.98
379.738	106.32
379.948	-41.13
380.158	106.32
380.369	24.4
380.579	89.94
380.789	32.6
380.999	51.03
381.21	81.75
381.42	89.94
381.63	-28.84
381.84	65.36
382.05	59.22
382.261	53.08
382.471	53.08
382.681	65.36
382.891	91.99
383.101	98.13
383.311	-16.55
383.521	69.46
383.731	36.69
383.941	100.18
384.151	67.41
384.361	67.41
384.571	-4.27
384.781	75.6
384.991	69.46
385.201	167.76
385.411	122.71
385.621	44.88
385.831	48.98
386.041	-8.36
386.251	83.8
386.461	46.93
386.671	-41.13
386.881	124.76
387.091	-14.51
387.301	34.64
387.511	65.36
387.72	94.04
387.93	75.6
388.14	81.75
388.35	87.89
388.56	98.13
388.769	106.32
388.979	81.75
389.189	81.75
389.399	85.84
389.609	63.32
389.818	94.04
390.028	1.88
390.238	114.52
390.447	53.08
390.657	139.09
390.867	63.32
391.076	10.07
391.286	65.36
391.496	53.08
391.705	53.08
391.915	81.75
392.125	85.84
392.334	-0.17
392.544	139.09
392.753	73.56
392.963	98.13
393.172	96.08
393.382	3.93
393.591	81.75
393.801	106.32
394.01	145.24
394.22	24.4
394.429	48.98
394.639	106.32
394.848	141.14
395.058	102.23
395.267	63.32
395.477	130.9
395.686	141.14
395.895	98.13
396.105	186.19
396.314	81.75
396.524	124.76
396.733	118.61
396.942	130.9
397.152	153.43
397.361	61.27
397.57	143.19
397.78	122.71
397.989	122.71
398.198	159.57
398.407	65.36
398.617	75.6
398.826	110.42
399.035	71.51
399.244	106.32
399.453	141.14
399.663	85.84
399.872	91.99
400.081	81.75
400.29	135
400.499	112.47
400.708	130.9
400.917	130.9
401.127	116.56
401.336	20.31
401.545	233.3
401.754	137.04
401.963	143.19
402.172	114.52
402.381	53.08
402.59	89.94
402.799	149.33
403.008	147.28
403.217	122.71
403.426	214.87
403.635	55.12
403.844	141.14
404.053	130.9
404.262	130.9
404.471	135
404.68	159.57
404.888	173.91
405.097	141.14
405.306	194.39
405.515	163.67
405.724	194.39
405.933	139.09
406.142	151.38
406.35	229.2
406.559	139.09
406.768	180.05
406.977	249.68
407.185	227.15
407.394	188.24
407.603	204.63
407.812	157.52
408.02	221.01
408.229	223.06
408.438	200.53
408.646	188.24
408.855	288.59
409.064	247.63
409.272	272.21
409.481	327.5
409.69	266.07
409.898	339.79
410.107	319.31
410.315	307.02
410.524	360.27
410.733	368.46
410.941	323.41
411.15	345.94
411.358	288.59
411.567	450.38
411.775	343.89
411.984	368.46
412.192	442.19
412.401	376.66
412.609	548.68
412.818	474.96
413.026	507.73
413.234	470.86
413.443	532.3
413.651	517.97
413.86	599.88
414.068	608.08
414.276	669.52
414.485	558.92
414.693	663.37
414.901	771.91
415.11	720.71
415.318	769.87
415.526	704.33
415.734	798.54
415.943	829.26
416.151	868.17
416.359	909.13
416.567	819.02
416.776	874.31
416.984	933.7
417.192	1011.53
417.4	1027.91
417.608	1017.67
417.817	991.05
418.025	1107.78
418.233	1238.85
418.441	1263.43
418.649	1140.55
418.857	1345.34
419.065	1304.39
419.273	1343.3
419.481	1470.27
419.689	1496.89
419.897	1500.99
420.105	1597.24
420.313	1584.96
420.521	1728.31
420.729	1646.4
420.937	1834.81
421.145	1795.9
421.353	1886.01
421.561	1869.62
421.769	2010.93
421.977	2105.14
422.185	2125.62
422.393	2246.45
422.601	2359.09
422.809	2393.9
423.017	2379.57
423.224	2449.2
423.432	2598.7
423.64	2475.82
423.848	2854.7
424.056	2711.34
424.263	2979.62
424.471	2998.06
424.679	2998.06
424.887	3153.7
425.094	3227.43
425.302	3147.56
425.51	3448.61
425.718	3505.95
425.925	3530.53
426.133	3628.83
426.341	3931.93
426.548	4065.05
426.756	3958.55
426.964	4239.12
427.171	4304.66
427.379	4427.54
427.586	4480.78
427.794	4718.35
428.001	4943.63
428.209	5009.16
428.417	4927.24
428.624	5304.07
428.832	5222.15
429.039	5207.81
429.247	5205.77
429.454	5744.38
429.662	6244.09
429.869	5801.72
430.076	6184.69
430.284	5754.62
430.491	6381.3
430.699	6586.1
430.906	6565.62
431.114	6653.68
431.321	6901.48
431.528	6942.44
431.736	7366.37
431.943	7481.06
432.15	7587.55
432.358	7657.18
432.565	7974.62
432.772	7958.24
432.979	8419.03
433.187	8580.82
433.394	8707.79
433.601	8935.12
433.808	9014.99
434.016	9193.16
434.223	9674.43
434.43	10194.62
434.637	9772.74
434.844	10602.16
435.052	10661.55
435.259	10747.57
435.466	10550.96
435.673	10763.95
435.88	11275.95
436.087	12009.12
436.294	11996.83
436.501	11740.83
436.708	11730.59
436.915	12322.46
437.122	12549.78
437.329	13000.33
437.537	13174.41
437.743	13385.35
437.95	13280.91
438.157	13934.21
438.364	14472.82
438.571	14130.81
438.778	14286.46
438.985	15883.87
439.192	15040.11
439.399	15644.26
439.606	15201.9
439.813	16027.23
440.02	17118.8
440.227	16963.15
440.433	16477.79
440.64	17239.63
440.847	16805.46
441.054	17612.36
441.261	18323.01
441.467	18464.32
441.674	18726.46
441.881	19250.74
442.088	19291.69
442.294	19193.39
442.501	19549.74
442.708	19869.22
442.914	20663.83
443.121	21399.05
443.328	21059.09
443.534	22719.99
443.741	21995.01
443.948	21833.22
444.154	23176.69
444.361	23070.2
444.568	23166.45
444.774	23264.75
444.981	23203.32
445.187	23969.26
445.394	24837.59
445.6	24993.24
445.807	27450.8
446.013	25779.66
446.22	26426.82
446.426	27438.51
446.633	27692.46
446.839	28786.08
447.046	27575.73
447.252	29056.41
447.459	29379.99
447.665	28781.98
447.871	30365.06
448.078	31614.32
448.284	29912.46
448.491	30639.49
448.697	31858.03
448.903	32386.41
449.11	32458.09
449.316	32396.65
449.522	32933.21
449.728	33652.05
449.935	33645.91
450.141	33598.8
450.347	34614.6
450.553	33361.24
450.76	33582.42
450.966	34903.36
451.172	34374.98
451.378	35554.61
451.584	34755.91
451.791	35046.72
451.997	35499.32
452.203	36193.58
452.409	36001.07
452.615	35786.04
452.821	34229.58
453.027	33738.07
453.233	35949.87
453.44	34288.97
453.646	34551.11
453.852	34987.33
454.058	35231.04
454.264	34149.71
454.47	34889.02
454.676	33891.66
454.882	35315
455.088	32626.02
455.294	32542.05
455.5	32951.65
455.705	33408.34
455.911	32099.69
456.117	31722.87
456.323	30975.36
456.529	29578.64
456.735	30778.75
456.941	30289.29
457.147	29341.08
457.352	28437.92
457.558	28159.4
457.764	28026.28
457.97	27393.46
458.176	26836.41
458.381	27092.41
458.587	25906.63
458.793	25959.88
458.999	24237.54
459.204	26142.15
459.41	25247.19
459.616	23414.26
459.821	23705.07
460.027	23510.51
460.233	23191.03
460.438	21728.78
460.644	22238.72
460.85	20954.65
461.055	20942.36
461.261	20684.31
461.466	19248.69
461.672	18552.38
461.878	20002.34
462.083	18280
462.289	18015.81
462.494	18148.93
462.7	17102.42
462.905	16752.21
463.111	17362.51
463.316	17346.12
463.522	16959.06
463.727	17032.79
463.932	16821.84
464.138	16574.04
464.343	16918.1
464.549	16197.21
464.754	16784.98
464.959	16668.25
465.165	16236.13
465.37	15699.56
465.575	15275.63
465.781	15771.24
465.986	16135.78
466.191	15435.37
466.397	15206
466.602	14419.58
466.807	15187.57
467.012	14863.99
467.218	14909.04
467.423	14646.9
467.628	14538.36
467.833	15439.47
468.038	14741.11
468.244	14030.46
468.449	14835.31
468.654	14356.09
468.859	14255.74
469.064	13981.31
469.269	13602.44
469.474	13528.71
469.679	14016.13
469.885	13549.19
470.09	13829.76
470.295	13588.1
470.5	13565.57
470.705	13123.21
470.91	13033.1
471.115	12795.54
471.32	13135.5
471.525	13196.94
471.73	12848.79
471.935	12537.49
472.139	12191.39
472.344	12535.45
472.549	12291.74
472.754	11966.11
472.959	11589.28
473.164	11681.44
473.369	11593.38
473.574	12099.23
473.778	11841.18
473.983	11591.33
474.188	11540.13
474.393	11101.87
474.598	11095.72
474.802	11308.71
475.007	10772.14
475.212	10995.37
475.417	10518.2
475.621	10616.5
475.826	10553.01
476.031	10204.86
476.235	9967.29
476.44	10153.66
476.645	9891.52
476.849	10108.6
477.054	9782.98
477.259	9764.54
477.463	9737.92
477.668	9598.66
477.872	9664.19
478.077	9526.98
478.282	9213.64
478.486	9193.16
478.691	9017.04
478.895	9094.86
479.1	8961.74
479.304	9043.66
479.509	8812.24
479.713	9088.71
479.918	8629.97
480.122	8568.53
480.326	8810.19
480.531	8855.25
480.735	8728.27
480.94	8603.35
481.144	8904.4
481.348	8642.26
481.553	8632.02
481.757	8308.44
481.961	8283.86
482.166	8681.17
482.37	8455.89
482.574	8371.93
482.778	8361.69
482.983	8576.72
483.187	8488.66
483.391	8324.82
483.595	8312.53
483.8	8324.82
484.004	8251.1
484.208	8421.08
484.412	8292.05
484.616	8353.49
484.821	8251.1
485.025	8328.92
485.229	8398.55
485.433	8308.44
485.637	8369.88
485.841	8249.05
486.045	8191.7
486.249	8378.07
486.453	8099.55
486.657	8187.61
486.861	8253.14
487.065	8158.94
487.269	8216.28
487.473	7921.37
487.677	8079.07
487.881	8376.02
488.085	8130.27
488.289	8261.34
488.493	8175.32
488.697	8199.9
488.901	8339.16
489.105	8275.67
489.309	8232.66
489.512	8214.23
489.716	8160.98
489.92	8187.61
490.124	8226.52
490.328	8378.07
490.531	8365.78
490.735	8359.64
490.939	8599.25
491.143	8382.17
491.346	8292.05
491.55	8601.3
491.754	8457.94
491.958	8539.86
492.161	8425.17
492.365	8658.64
492.569	8488.66
492.772	8629.97
492.976	8543.95
493.18	8597.2
493.383	8638.16
493.587	8623.83
493.79	8775.38
493.994	8707.79
494.197	8697.55
494.401	8816.33
494.605	8863.44
494.808	9137.87
495.012	9027.28
495.215	9121.48
495.419	9043.66
495.622	9101
495.825	8920.78
496.029	9174.73
496.232	9420.49
496.436	9451.21
496.639	9469.64
496.843	9455.3
497.046	9629.38
497.249	9512.64
497.453	9748.16
497.656	9873.09
497.859	9868.99
498.063	10131.13
498.266	10116.79
498.469	10243.77
498.673	10202.81
498.876	10256.06
499.079	10518.2
499.282	10432.18
499.485	10782.38
499.689	10821.3
499.892	11026.09
500.095	10809.01
500.298	11126.44
500.501	11173.55
500.705	11386.54
500.908	11259.56
501.111	11364.01
501.314	11654.82
501.517	11620
501.72	11888.29
501.923	11757.22
502.126	11906.72
502.329	12199.58
502.532	12132
502.735	12467.86
502.938	12822.16
503.141	12672.66
503.344	12877.46
503.547	12822.16
503.75	12889.74
503.953	13006.48
504.156	13311.63
504.359	13315.72
504.562	13360.78
504.765	13690.5
504.968	13958.78
505.17	13772.42
505.373	14016.13
505.576	14249.6
505.779	14288.51
505.982	14395
506.185	14534.26
506.387	14530.17
506.59	14708.34
506.793	14906.99
506.996	15113.84
507.198	15310.44
507.401	15386.22
507.604	15535.72
507.807	15679.08
508.009	15650.41
508.212	15982.18
508.415	16070.24
508.617	16342.62
508.82	16350.81
509.022	16428.63
509.225	16733.78
509.428	16989.78
509.63	17151.57
509.833	17258.06
510.035	17815.11
510.238	17706.57
510.44	17741.38
510.643	17753.67
510.845	18153.02
511.048	18247.23
511.25	18251.33
511.453	18210.37
511.655	18994.74
511.858	18851.38
512.06	18957.88
512.262	19023.41
512.465	19195.44
512.667	19480.11
512.87	19680.81
513.072	19666.47
513.274	20215.33
513.477	20266.53
513.679	20319.78
513.881	20620.83
514.084	20954.65
514.286	20755.99
514.488	21126.67
514.69	21571.08
514.893	21730.83
515.095	21693.96
515.297	21849.61
515.499	22085.12
515.701	22230.53
515.904	22662.65
516.106	22732.28
516.308	22701.56
516.51	23131.64
516.712	23133.68
516.914	23291.38
517.116	23795.18
517.318	23449.07
517.52	23887.34
517.722	23866.86
517.925	24382.95
518.127	24419.81
518.329	24632.8
518.531	24466.91
518.733	25308.63
518.935	25083.35
519.136	25105.88
519.338	25425.36
519.54	25660.88
519.742	25750.99
519.944	25966.03
520.146	25992.65
520.348	26312.13
520.55	26215.88
520.752	26506.69
520.954	26592.7
521.155	26547.65
521.357	27026.87
521.559	27465.14
521.761	27137.46
521.963	27143.61
522.164	27536.82
522.366	27477.43
522.568	27583.92
522.77	27563.44
522.971	28112.3
523.173	27798.96
523.375	28151.21
523.576	28370.34
523.778	27874.73
523.98	28429.73
524.181	28339.62
524.383	28425.64
524.584	28757.41
524.786	28956.06
524.988	28374.44
525.189	29054.36
525.391	29148.57
525.592	28857.76
525.794	29050.27
525.995	29580.69
526.197	29234.58
526.398	29011.35
526.6	29695.38
526.801	29445.52
527.003	29201.82
527.204	29574.55
527.406	29744.53
527.607	29722
527.808	29418.9
528.01	29259.16
528.211	29726.1
528.412	30070.15
528.614	29523.35
528.815	29793.68
529.016	29875.6
529.218	29416.85
529.419	29722
529.62	29654.42
529.822	29293.97
530.023	29535.63
530.224	29441.43
530.425	29425.04
530.626	29269.4
530.828	29205.91
531.029	30377.35
531.23	29607.31
531.431	29392.28
531.632	29599.12
531.833	29322.65
532.035	29242.78
532.236	29250.97
532.437	29285.78
532.638	29539.73
532.839	29312.41
533.04	29373.85
533.241	29095.32
533.442	29511.06
533.643	29248.92
533.844	28986.78
534.045	29291.93
534.246	28771.74
534.447	29099.42
534.648	28781.98
534.849	28994.97
535.05	28614.05
535.251	28962.2
535.451	28890.52
535.652	29015.45
535.853	28607.9
536.054	28442.02
536.255	28714.4
536.456	28251.56
536.657	28970.4
536.857	28444.07
537.058	28370.34
537.259	28771.74
537.46	28763.55
537.66	28343.72
537.861	28687.78
538.062	28229.03
538.263	28214.69
538.463	28231.08
538.664	28106.15
538.865	28288.42
539.065	28358.05
539.266	27844.01
539.466	28374.44
539.667	27723.18
539.868	28249.51
540.068	28313
540.269	27966.89
540.469	28192.17
540.67	27981.23
540.87	28116.39
541.071	28016.04
541.271	28034.47
541.472	28030.38
541.672	28020.14
541.873	27661.74
542.073	27207.09
542.274	28048.81
542.474	27893.16
542.675	27571.63
542.875	27958.7
543.075	28194.22
543.276	27381.17
543.476	27770.29
543.676	27688.37
543.877	27874.73
544.077	27776.43
544.277	27725.23
544.478	27598.26
544.678	27923.88
544.878	27356.6
545.078	27753.9
545.279	27577.78
545.479	27434.42
545.679	27831.72
545.879	27571.63
546.079	27819.44
546.28	27862.44
546.48	27356.6
546.68	27639.22
546.88	27848.11
547.08	27790.77
547.28	27729.33
547.48	27272.63
547.68	27751.85
547.88	27037.11
548.081	27778.48
548.281	27446.71
548.481	27465.14
548.681	27696.56
548.881	27528.63
549.081	27700.65
549.28	27338.16
549.48	27243.96
549.68	27510.19
549.88	27719.09
550.08	27577.78
550.28	27557.3
550.48	27372.98
550.68	27565.49
550.88	27647.41
551.08	27555.25
551.279	27551.15
551.479	27536.82
551.679	27575.73
551.879	27583.92
552.079	28042.67
552.278	27450.8
552.478	27807.15
552.678	27901.36
552.878	27979.18
553.077	27995.56
553.277	27258.29
553.477	27962.79
553.676	27717.04
553.876	27960.75
554.076	27712.94
554.275	27962.79
554.475	27219.38
554.674	27637.17
554.874	27985.32
555.074	27790.77
555.273	28124.58
555.473	28143.02
555.672	27805.1
555.872	27647.41
556.071	27991.47
556.271	28210.6
556.47	27866.54
556.67	27907.5
556.869	27948.46
557.068	28054.95
557.268	27702.7
557.467	27846.06
557.667	27848.11
557.866	28087.72
558.065	28208.55
558.265	28026.28
558.464	27463.09
558.663	28439.97
558.863	27794.86
559.062	28261.8
559.261	27622.83
559.461	28343.72
559.66	27674.03
559.859	27796.91
560.058	27733.42
560.258	27917.74
560.457	27874.73
560.656	27932.08
560.855	28183.98
561.054	28292.52
561.253	27917.74
561.453	28040.62
561.652	27844.01
561.851	28079.53
562.05	27921.84
562.249	27776.43
562.448	28081.58
562.647	27848.11
562.846	28040.62
563.045	27989.42
563.244	27674.03
563.443	28233.13
563.642	27628.98
563.841	27862.44
564.04	27747.76
564.239	28108.2
564.438	27821.48
564.637	28063.15
564.836	27846.06
565.035	27332.02
565.234	27575.73
565.432	27401.65
565.631	27262.39
565.83	27555.25
566.029	27332.02
566.228	27334.07
566.427	27180.47
566.625	27260.34
566.824	27426.23
567.023	27573.68
567.222	26893.75
567.42	27342.26
567.619	27155.89
567.818	27067.83
568.016	26795.45
568.215	27180.47
568.414	26557.89
568.612	27207.09
568.811	26805.69
569.01	27116.98
569.208	26473.92
569.407	26858.94
569.605	26246.6
569.804	26981.82
570.002	26312.13
570.201	26623.42
570.4	26185.16
570.598	26111.43
570.797	26217.93
570.995	26357.19
571.193	25959.88
571.392	26498.5
571.59	25931.21
571.789	25808.33
571.987	25775.56
572.186	25853.39
572.384	25705.93
572.582	25968.07
572.781	25959.88
572.979	25363.92
573.177	25507.28
573.376	25687.5
573.574	25382.35
573.772	25460.18
573.971	25224.66
574.169	25322.96
574.367	25136.6
574.565	25279.96
574.763	25054.68
574.962	25316.82
575.16	24796.63
575.358	25021.91
575.556	24880.6
575.754	25011.67
575.952	24894.94
576.151	24987.1
576.349	24208.87
576.547	24471.01
576.745	24198.63
576.943	24268.26
577.141	24258.02
577.339	24108.52
577.537	24047.08
577.735	24153.57
577.933	24004.07
578.131	24131.05
578.329	23842.28
578.527	23715.31
578.725	23680.49
578.923	23879.14
579.121	23643.63
579.319	23670.25
579.516	23555.57
579.714	23590.38
579.912	23748.07
580.11	23186.93
580.308	23274.99
580.506	23139.83
580.704	23014.9
580.901	23447.02
581.099	23072.25
581.297	22867.45
581.495	22932.98
581.692	23195.12
581.89	22986.23
582.088	22928.89
582.285	22834.68
582.483	22652.41
582.681	22674.94
582.878	22539.77
583.076	22140.42
583.274	22652.41
583.471	22171.14
583.669	22566.4
583.866	22277.63
584.064	22310.4
584.262	22117.89
584.459	22349.31
584.657	21825.03
584.854	21896.71
585.052	21751.31
585.249	21847.56
585.447	21896.71
585.644	21896.71
585.841	21710.35
586.039	21974.53
586.236	21632.52
586.434	21499.41
586.631	21747.21
586.828	21650.95
587.026	21505.55
587.223	21372.43
587.42	20930.07
587.618	21267.98
587.815	21224.98
588.012	21052.95
588.21	21204.5
588.407	21360.14
588.604	21122.58
588.801	20971.03
588.999	21093.91
589.196	21091.86
589.393	20827.67
589.59	20835.86
589.787	20807.19
589.984	20835.86
590.182	20762.14
590.379	20921.88
590.576	20618.78
590.773	20682.27
590.97	20729.37
591.167	20473.37
591.364	20672.03
591.561	20649.5
591.758	20289.06
591.955	20258.34
592.152	20561.44
592.349	20456.99
592.546	20233.76
592.743	20385.31
592.94	19918.37
593.137	20436.51
593.334	20487.71
593.531	20133.41
593.727	20287.01
593.924	20028.96
594.121	20071.97
594.318	20114.98
594.515	20074.02
594.712	20151.84
594.908	20012.58
595.105	20061.73
595.302	19889.7
595.499	19721.77
595.696	19791.4
595.892	19416.62
596.089	19975.72
596.286	20020.77
596.482	19799.59
596.679	19979.81
596.876	19748.39
597.072	19555.88
597.269	19885.61
597.466	19775.02
597.662	19936.81
597.859	20026.92
598.055	19906.09
598.252	19408.43
598.448	19549.74
598.645	19727.91
598.841	19678.76
599.038	19824.17
599.234	20006.44
599.431	19777.06
599.627	19711.53
599.824	19967.52
600.02	19881.51
600.217	19762.73
600.413	19793.45
600.609	19709.48
600.806	19713.58
601.002	19973.67
601.198	19875.37
601.395	19725.86
601.591	19813.93
601.787	19918.37
601.984	19697.19
602.18	20162.08
602.376	20182.56
602.572	19854.89
602.769	20137.51
602.965	19945
603.161	20203.04
603.357	19885.61
603.553	20098.59
603.75	20391.45
603.946	20231.71
604.142	20010.53
604.338	20061.73
604.534	20317.73
604.73	20217.38
604.926	20395.55
605.122	20149.79
605.318	20262.43
605.514	20119.07
605.71	20508.19
605.906	20454.94
606.102	20305.44
606.298	20569.63
606.494	20622.87
606.69	20794.9
606.886	20506.14
607.082	20309.54
607.278	20874.77
607.474	20448.8
607.67	20925.97
607.866	20657.69
608.062	21204.5
608.257	20715.03
608.453	20962.84
608.649	21286.42
608.845	20874.77
609.041	21200.4
609.236	21063.19
609.432	21116.44
609.628	21153.3
609.824	21032.47
610.019	21290.51
610.215	21319.18
610.411	21401.1
610.606	21356.05
610.802	21315.09
610.998	21515.79
611.193	21538.32
611.389	21335.57
611.584	21382.67
611.78	21239.31
611.976	21341.71
612.171	21489.17
612.367	21730.83
612.562	21587.47
612.758	21345.81
612.953	21452.3
613.149	21618.19
613.344	21581.32
613.539	21992.97
613.735	22048.26
613.93	21902.86
614.126	21495.31
614.321	21943.81
614.517	21960.2
614.712	21693.96
614.907	21759.5
615.103	22210.05
615.298	21607.95
615.493	21986.82
615.688	21849.61
615.884	22275.59
616.079	21827.08
616.274	22214.15
616.47	21818.89
616.665	21798.41
616.86	21833.22
617.055	22015.49
617.25	21919.24
617.445	22064.64
617.641	21501.45
617.836	22025.73
618.031	21753.35
618.226	21892.62
618.421	21698.06
618.616	22351.36
618.811	21857.8
619.006	22115.84
619.201	21622.28
619.396	21726.73
619.591	21472.78
619.786	21949.96
619.981	21495.31
620.176	21708.3
620.371	21337.62
620.566	21581.32
620.761	21136.91
620.956	21466.64
621.151	21132.82
621.346	21362.19
621.541	21081.62
621.735	21222.93
621.93	20866.58
622.125	20977.17
622.32	20807.19
622.515	20868.63
622.709	20715.03
622.904	20880.92
623.099	20645.4
623.294	20596.25
623.488	20332.06
623.683	20284.96
623.878	20178.47
624.072	20176.42
624.267	20190.75
624.462	19871.27
624.656	19818.02
624.851	19600.94
625.046	19578.41
625.24	19744.3
625.435	19660.33
625.629	19742.25
625.824	19607.08
626.018	19467.82
626.213	19086.9
626.407	19349.04
626.602	18900.53
626.796	18830.9
626.991	19103.28
627.185	18380.35
627.38	18486.84
627.574	18703.93
627.768	18626.11
627.963	18531.9
628.157	18378.3
628.352	18402.88
628.546	18304.57
628.74	18261.57
628.935	18155.07
629.129	17837.64
629.323	17825.35
629.517	17626.7
629.712	17880.64
629.906	17667.66
630.1	17399.37
630.294	17550.92
630.489	17284.69
630.683	17196.62
630.877	17225.29
631.071	16938.58
631.265	17305.17
631.459	17032.79
631.653	17090.13
631.848	16799.32
632.042	16907.86
632.236	16666.2
632.43	16606.81
632.624	16508.51
632.818	16383.58
633.012	16039.52
633.206	16334.43
633.4	16225.89
633.594	16150.11
633.788	16008.8
633.982	16146.01
634.176	15941.22
634.369	15705.7
634.563	15865.44
634.757	15566.44
634.951	15662.69
635.145	15494.76
635.339	15455.85
635.533	15230.57
635.726	15380.07
635.92	15228.52
636.114	15146.61
636.308	15142.51
636.501	14802.55
636.695	14659.19
636.889	14823.03
637.083	14732.92
637.276	14642.81
637.47	14548.6
637.664	14747.25
637.857	14485.11
638.051	14239.36
638.244	14206.59
638.438	14302.84
638.632	13969.02
638.825	13905.54
639.019	13827.71
639.212	13758.08
639.406	13876.87
639.599	13901.44
639.793	13692.55
639.986	13356.68
640.18	13469.32
640.373	13424.26
640.567	13016.72
640.76	12990.1
640.954	13147.79
641.147	12986
641.34	12945.04
641.534	13024.91
641.727	12818.07
641.92	12932.75
642.114	12578.45
642.307	12689.04
642.5	12762.77
642.694	12383.9
642.887	12330.65
643.08	12414.62
643.273	12263.07
643.467	12093.08
643.66	12007.07
643.853	12011.17
644.046	11783.84
644.239	11648.68
644.432	11943.58
644.626	11486.89
644.819	11437.73
645.012	11663.01
645.205	11456.17
645.398	11474.6
645.591	11349.67
645.784	11202.22
645.977	11239.08
646.17	11308.71
646.363	11067.05
646.556	10972.85
646.749	11009.71
646.942	11079.34
647.135	10641.07
647.328	10817.2
647.521	10512.05
647.714	10518.2
647.907	10421.94
648.099	10452.66
648.292	10305.21
648.485	10462.9
648.678	10229.43
648.871	10299.06
649.064	10012.35
649.256	10268.34
649.449	10086.08
649.642	9930.43
649.835	9922.24
650.027	9780.93
650.22	9889.47
650.413	9787.07
650.605	9733.82
650.798	9578.18
650.991	9543.36
651.183	9588.42
651.376	9234.12
651.568	9588.42
651.761	9348.81
651.954	9404.1
652.146	9379.53
652.339	9133.77
652.531	9270.98
652.724	9101
652.916	8986.32
653.109	8969.93
653.301	8847.05
653.494	9080.52
653.686	8842.96
653.879	8906.45
654.071	8892.11
654.263	8687.31
654.456	8869.58
654.648	8715.98
654.84	8496.85
655.033	8484.56
655.225	8613.59
655.417	8472.28
655.61	8580.82
655.802	8433.36
655.994	8459.99
656.186	8314.58
656.379	8285.91
656.571	8359.64
656.763	8150.74
656.955	8154.84
657.148	8165.08
657.34	8099.55
657.532	8081.11
657.724	7894.75
657.916	8036.06
658.108	7896.8
658.3	7984.86
658.492	7757.53
658.684	7671.52
658.876	7651.04
659.068	7755.49
659.26	7319.27
659.452	7479.01
659.644	7581.41
659.836	7710.43
660.028	7489.25
660.22	7368.42
660.412	7339.75
660.604	7227.11
660.796	7290.6
660.988	7331.56
661.18	7001.83
661.372	7274.21
661.563	7245.54
661.755	6979.31
661.947	7145.19
662.139	7042.79
662.331	6889.2
662.522	6770.41
662.714	6878.96
662.906	6774.51
663.097	6717.17
663.289	6754.03
663.481	6708.97
663.673	6723.31
663.864	6369.01
664.056	6506.23
664.247	6612.72
664.439	6545.14
664.631	6522.61
664.822	6387.44
665.014	6547.19
665.205	6213.37
665.397	6262.52
665.588	6264.57
665.78	6201.08
665.971	6180.6
666.163	6180.6
666.354	6088.44
666.546	6067.96
666.737	6104.82
666.929	5957.37
667.12	6156.02
667.311	6078.2
667.503	5900.03
667.694	5863.16
667.885	5799.68
668.077	5967.61
668.268	5768.96
668.459	5859.07
668.651	5654.27
668.842	5592.83
669.033	5807.87
669.224	5648.13
669.416	5684.99
669.607	5660.41
669.798	5426.95
669.989	5568.26
670.18	5709.57
670.371	5684.99
670.563	5500.67
670.754	5607.17
670.945	5377.8
671.136	5328.64
671.327	5549.82
671.518	5367.56
671.709	5349.12
671.9	5576.45
672.091	5365.51
672.282	5299.97
672.473	5277.44
672.664	5283.59
672.855	5115.66
673.046	5261.06
673.237	5216.01
673.428	4988.68
673.619	5271.3
673.809	5070.6
674	5046.02
674.191	5050.12
674.382	5050.12
674.573	4998.92
674.764	5082.89
674.954	4941.58
675.145	4873.99
675.336	5097.22
675.527	5021.45
675.717	4880.14
675.908	4894.47
676.099	4804.36
676.289	4964.11
676.48	4769.55
676.671	4769.55
676.861	4771.6
677.052	4677.39
677.243	4693.77
677.433	4759.31
677.624	4753.16
677.814	4751.12
678.005	4771.6
678.195	4695.82
678.386	4734.73
678.576	4779.79
678.767	4742.92
678.957	4648.72
679.148	4753.16
679.338	4622.09
679.529	4716.3
679.719	4632.33
679.909	4546.32
680.1	4511.5
680.29	4646.67
680.481	4558.61
680.671	4689.68
680.861	4591.38
681.052	4587.28
681.242	4445.97
681.432	4513.55
681.622	4423.44
681.813	4546.32
682.003	4466.45
682.193	4347.67
682.383	4513.55
682.573	4480.78
682.764	4618
682.954	4480.78
683.144	4382.48
683.334	4620.05
683.524	4423.44
683.714	4505.36
683.904	4398.87
684.094	4433.68
684.284	4382.48
684.474	4470.55
684.664	4433.68
684.854	4337.43
685.044	4351.76
685.234	4359.95
685.424	4237.08
685.614	4335.38
685.804	4224.79
685.994	4235.03
686.184	4321.04
686.374	4296.47
686.564	4306.71
686.753	4243.22
686.943	4296.47
687.133	4202.26
687.323	4249.36
687.513	4136.73
687.702	4316.95
687.892	4130.58
688.082	4165.4
688.272	4200.21
688.461	4130.58
688.651	4216.6
688.841	4171.54
689.03	4146.97
689.22	4384.53
689.41	4194.07
689.599	4040.47
689.789	4124.44
689.979	4226.84
690.168	4089.62
690.358	4232.98
690.547	4058.9
690.737	4122.39
690.926	4124.44
691.116	3985.18
691.305	3997.46
691.495	4194.07
691.684	4024.09
691.874	3952.41
692.063	4108.05
692.252	4177.69
692.442	4050.71
692.631	4011.8
692.82	3884.83
693.01	3989.27
693.199	3776.28
693.388	3850.01
693.578	3956.5
693.767	3948.31
693.956	3909.4
694.146	3804.96
694.335	3919.64
694.524	3868.44
694.713	3710.75
694.902	3884.83
695.092	3850.01
695.281	3931.93
695.47	3829.53
695.659	3743.52
695.848	3708.7
696.037	3845.91
696.226	3802.91
696.415	3997.46
696.604	3850.01
696.793	3944.22
696.982	3966.74
697.171	3911.45
697.36	3897.11
697.549	3751.71
697.738	3751.71
697.927	3727.13
698.116	3899.16
698.305	3755.8
698.494	3817.24
698.683	3690.27
698.872	3782.43
699.061	3694.36
699.25	3673.89
699.438	3620.64
699.627	3667.74
699.816	3720.99
700.005	3651.36
700.193	3735.32
700.382	3761.95
700.571	3694.36
700.76	3497.76
700.948	3694.36
701.137	3583.77
701.326	3680.03
701.514	3524.38
701.703	3677.98
701.892	3673.89
702.08	3626.78
702.269	3585.82
702.457	3510.05
702.646	3501.86
702.834	3489.57
703.023	3346.21
703.212	3546.91
703.4	3596.06
703.589	3503.9
703.777	3602.21
703.965	3456.8
704.154	3473.18
704.342	3546.91
704.531	3340.07
704.719	3493.66
704.907	3440.42
705.096	3424.03
705.284	3419.94
705.472	3450.66
705.661	3385.12
705.849	3419.94
706.037	3546.91
706.226	3415.84
706.414	3432.22
706.602	3325.73
706.79	3448.61
706.979	3391.27
707.167	3370.79
707.355	3335.97
707.543	3378.98
707.731	3438.37
707.919	3239.72
708.107	3276.58
708.296	3243.81
708.484	3129.13
708.672	3221.28
708.86	3282.72
709.048	3258.15
709.236	3170.08
709.424	3125.03
709.612	3114.79
709.8	3196.71
709.988	3204.9
710.176	3196.71
710.364	3178.28
710.551	3213.09
710.739	3231.52
710.927	3141.41
711.115	3096.36
711.303	3143.46
711.491	3198.76
711.679	3071.78
711.866	3075.88
712.054	3153.7
712.242	2948.9
712.43	3131.17
712.617	3057.45
712.805	3034.92
712.993	2877.23
713.181	2975.53
713.368	3043.11
713.556	3018.54
713.744	2809.64
713.931	3049.25
714.119	2932.52
714.306	3165.99
714.494	2957.1
714.682	2903.85
714.869	2836.27
715.057	2889.51
715.244	2766.64
715.432	2922.28
715.619	2920.23
715.807	2905.9
715.994	2852.65
716.182	2858.79
716.369	2916.14
716.556	2918.18
716.744	2838.31
716.931	2809.64
717.119	2967.34
717.306	2830.12
717.493	2752.3
717.681	2785.07
717.868	2826.03
718.055	2764.59
718.242	2737.96
718.43	2703.15
718.617	2686.76
718.804	2721.58
718.991	2770.73
719.179	2692.91
719.366	2615.09
719.553	2666.28
719.74	2613.04
719.927	2772.78
720.114	2670.38
720.301	2666.28
720.488	2719.53
720.676	2631.47
720.863	2457.39
721.05	2588.46
721.237	2553.65
721.424	2527.02
721.611	2549.55
721.798	2563.89
721.985	2531.12
722.172	2453.3
722.358	2590.51
722.545	2522.93
722.732	2426.67
722.919	2555.69
723.106	2453.3
723.293	2565.93
723.48	2598.7
723.667	2457.39
723.853	2383.66
724.04	2383.66
724.227	2408.24
724.414	2524.97
724.6	2385.71
724.787	2473.78
724.974	2424.62
725.161	2457.39
725.347	2254.64
725.534	2412.34
725.72	2416.43
725.907	2400.05
726.094	2367.28
726.28	2395.95
726.467	2352.95
726.653	2264.88
726.84	2383.66
727.027	2371.38
727.213	2182.96
727.4	2244.4
727.586	2367.28
727.773	2279.22
727.959	2232.12
728.145	2291.51
728.332	2240.31
728.518	2162.48
728.705	2311.99
728.891	2166.58
729.077	2260.79
729.264	2252.59
729.45	2268.98
729.636	2311.99
729.823	2228.02
730.009	2178.87
730.195	2148.15
730.382	2225.97
730.568	2148.15
730.754	2166.58
730.94	2142
731.126	2187.06
731.313	2172.72
731.499	2205.49
731.685	2131.76
731.871	2072.37
732.057	2275.12
732.243	2189.11
732.429	2023.22
732.615	2170.68
732.801	2109.24
732.987	2027.32
733.173	2115.38
733.359	2162.48
733.545	2064.18
733.731	1949.5
733.917	2090.81
734.103	2180.92
734.289	2187.06
734.475	2033.46
734.661	2146.1
734.847	2066.23
735.033	2047.8
735.219	1998.65
735.404	1926.97
735.59	2107.19
735.776	1969.98
735.962	2008.89
736.148	1941.3
736.333	1959.74
736.519	1875.77
736.705	1951.54
736.89	1886.01
737.076	1978.17
737.262	1818.43
737.447	1900.34
737.633	1941.3
737.819	1957.69
738.004	1969.98
738.19	1941.3
738.375	1861.43
738.561	1992.5
738.747	1916.73
738.932	1867.58
739.118	1810.23
739.303	1879.86
739.489	1912.63
739.674	1836.86
739.859	1679.16
740.045	1863.48
740.23	1916.73
740.416	1679.16
740.601	1799.99
740.786	1799.99
740.972	1763.13
741.157	1722.17
741.342	1793.85
741.528	1681.21
741.713	1863.48
741.898	1787.71
742.084	1697.6
742.269	1752.89
742.454	1752.89
742.639	1761.08
742.824	1713.98
743.01	1687.36
743.195	1779.51
743.38	1607.48
743.565	1560.38
743.75	1640.25
743.935	1613.63
744.12	1724.22
744.305	1556.29
744.49	1605.44
744.675	1564.48
744.86	1597.24
745.045	1617.72
745.23	1601.34
745.415	1500.99
745.6	1705.79
745.785	1556.29
745.97	1621.82
746.155	1576.77
746.34	1640.25
746.525	1468.22
746.71	1597.24
746.895	1429.31
747.079	1484.61
747.264	1535.81
747.449	1433.41
747.634	1447.74
747.819	1457.98
748.003	1490.75
748.188	1337.15
748.373	1445.7
748.557	1433.41
748.742	1374.02
748.927	1316.67
749.111	1460.03
749.296	1384.26
749.481	1355.58
749.665	1335.1
749.85	1322.82
750.034	1367.87
750.219	1326.91
750.404	1351.49
750.588	1318.72
750.773	1269.57
750.957	1335.1
751.141	1302.34
751.326	1310.53
751.51	1310.53
751.695	1187.65
751.879	1259.33
752.064	1302.34
752.248	1253.19
752.432	1234.75
752.617	1242.95
752.801	1294.15
752.985	1134.4
753.17	1173.32
753.354	1269.57
753.538	1292.1
753.722	1173.32
753.907	1263.43
754.091	1099.59
754.275	1204.03
754.459	1077.06
754.643	1146.69
754.828	1167.17
755.012	1126.21
755.196	1075.01
755.38	1097.54
755.564	1062.73
755.748	1091.4
755.932	1171.27
756.116	1058.63
756.3	1097.54
756.484	1023.81
756.668	1099.59
756.852	1017.67
757.036	1001.29
757.22	1009.48
757.404	1077.06
757.588	968.52
757.772	1032.01
757.956	986.95
758.14	1034.05
758.323	982.85
758.507	1007.43
758.691	970.57
758.875	993.09
759.059	1032.01
759.242	907.08
759.426	892.74
759.61	1007.43
759.794	925.51
759.977	1023.81
760.161	1032.01
760.345	937.8
760.528	960.33
760.712	884.55
760.895	945.99
761.079	874.31
761.263	937.8
761.446	982.85
761.63	950.09
761.813	814.92
761.997	872.26
762.18	945.99
762.364	945.99
762.547	829.26
762.731	933.7
762.914	819.02
763.098	843.59
763.281	851.78
763.464	884.55
763.648	966.47
763.831	876.36
764.015	851.78
764.198	866.12
764.381	780.11
764.564	890.7
764.748	823.11
764.931	868.17
765.114	761.67
765.297	827.21
765.481	790.35
765.664	784.2
765.847	753.48
766.03	806.73
766.213	769.87
766.397	876.36
766.58	702.28
766.763	794.44
766.946	747.34
767.129	855.88
767.312	671.56
767.495	778.06
767.678	681.8
767.861	761.67
768.044	804.68
768.227	794.44
768.41	788.3
768.593	798.54
768.776	833.35
768.959	773.96
769.142	804.68
769.324	761.67
769.507	696.14
769.69	737.1
769.873	810.82
770.056	821.06
770.239	737.1
770.421	806.73
770.604	700.23
770.787	724.81
770.97	634.7
771.152	642.89
771.335	776.01
771.518	687.95
771.7	749.39
771.883	763.72
772.066	737.1
772.248	706.38
772.431	689.99
772.613	661.32
772.796	646.99
772.978	720.71
773.161	683.85
773.343	679.75
773.526	675.66
773.708	651.08
773.891	495.44
774.073	614.22
774.256	657.23
774.438	730.95
774.621	669.52
774.803	550.73
774.985	677.71
775.168	612.17
775.35	593.74
775.532	663.37
775.715	583.5
775.897	614.22
776.079	554.83
776.261	618.32
776.444	667.47
776.626	630.6
776.808	544.59
776.99	552.78
777.173	591.69
777.355	624.46
777.537	649.04
777.719	608.08
777.901	556.88
778.083	532.3
778.265	524.11
778.447	515.92
778.629	526.16
778.811	589.64
778.993	614.22
779.175	632.65
779.357	573.26
779.539	515.92
779.721	583.5
779.903	528.21
780.085	565.07
780.267	458.57
780.449	503.63
780.631	444.24
780.812	474.96
780.994	515.92
781.176	597.84
781.358	524.11
781.54	491.34
781.721	524.11
781.903	548.68
782.085	548.68
782.267	569.16
782.448	458.57
782.63	425.81
782.812	501.58
782.993	470.86
783.175	403.28
783.357	503.63
783.538	395.09
783.72	454.48
783.901	438.09
784.083	483.15
784.264	436.05
784.446	421.71
784.627	450.38
784.809	442.19
784.99	403.28
785.172	421.71
785.353	347.98
785.535	388.94
785.716	388.94
785.897	503.63
786.079	370.51
786.26	487.25
786.441	368.46
786.623	304.98
786.804	358.22
786.985	499.53
787.167	421.71
787.348	339.79
787.529	337.74
787.71	483.15
787.891	382.8
788.073	323.41
788.254	360.27
788.435	407.38
788.616	339.79
788.797	364.37
788.978	311.12
789.159	261.97
789.34	386.9
789.522	356.18
789.703	360.27
789.884	345.94
790.065	341.84
790.246	327.5
790.427	290.64
790.607	372.56
790.788	317.26
790.969	280.4
791.15	376.66
791.331	294.74
791.512	325.46
791.693	300.88
791.874	290.64
792.054	429.9
792.235	358.22
792.416	249.68
792.597	323.41
792.778	368.46
792.958	354.13
793.139	253.78
793.32	343.89
793.5	311.12
793.681	345.94
793.862	268.11
794.042	257.87
794.223	218.96
794.404	200.53
794.584	233.3
794.765	302.93
794.945	237.39
795.126	300.88
795.306	321.36
795.487	323.41
795.667	294.74
795.848	231.25
796.028	200.53
796.209	290.64
796.389	331.6
796.57	245.59
796.75	221.01
796.93	296.78
797.111	253.78
797.291	190.29
797.471	257.87
797.652	253.78
797.832	223.06
798.012	212.82
798.192	200.53
798.373	272.21
798.553	239.44
798.733	261.97
798.913	147.28
799.093	261.97
799.274	223.06
799.454	274.26
799.634	178
799.814	165.71
799.994	290.64
800.174	282.45
800.354	249.68
800.534	175.95
800.714	253.78
800.894	249.68
801.074	167.76
801.254	247.63
801.434	264.02
801.614	173.91
801.794	178
801.974	876.36
802.154	192.34
802.334	259.92
802.514	227.15
802.693	196.43
802.873	182.1
803.053	231.25
803.233	175.95
803.413	233.3
803.592	126.8
803.772	165.71
803.952	206.67
804.131	210.77
804.311	196.43
804.491	210.77
804.67	212.82
804.85	163.67
805.03	175.95
805.209	216.91
805.389	210.77
805.568	221.01
805.748	196.43
805.928	233.3
806.107	196.43
806.287	130.9
806.466	206.67
806.646	182.1
806.825	214.87
807.004	204.63
807.184	184.15
807.363	184.15
807.543	116.56
807.722	126.8
807.901	216.91
808.081	165.71
808.26	55.12
808.439	202.58
808.619	48.98
808.798	180.05
808.977	180.05
809.156	212.82
809.336	81.75
809.515	102.23
809.694	114.52
809.873	130.9
810.052	190.29
810.231	214.87
810.411	221.01
810.59	182.1
810.769	122.71
810.948	132.95
811.127	145.24
811.306	163.67
811.485	161.62
811.664	198.48
811.843	85.84
812.022	120.66
812.201	120.66
812.38	184.15
812.559	112.47
812.737	192.34
812.916	40.79
813.095	67.41
813.274	106.32
813.453	102.23
813.632	184.15
813.811	200.53
813.989	108.37
814.168	145.24
814.347	165.71
814.526	135
814.704	155.47
814.883	186.19
815.062	126.8
815.24	171.86
815.419	100.18
815.598	100.18
815.776	128.85
815.955	132.95
816.133	81.75
816.312	149.33
816.49	32.6
816.669	126.8
816.847	147.28
817.026	114.52
817.204	122.71
817.383	180.05
817.561	135
817.74	198.48
817.918	167.76
818.097	159.57
818.275	81.75
818.453	132.95
818.632	132.95
818.81	94.04
818.988	126.8
819.167	83.8
819.345	94.04
819.523	112.47
819.701	102.23
819.879	126.8
820.058	51.03
820.236	130.9
820.414	32.6
820.592	190.29
820.77	106.32
820.948	48.98
821.127	139.09
821.305	190.29
821.483	20.31
821.661	178
821.839	114.52
822.017	38.74
822.195	120.66
822.373	57.17
822.551	73.56
822.729	124.76
822.907	69.46
823.085	116.56
823.262	145.24
823.44	65.36
823.618	130.9
823.796	94.04
823.974	42.84
824.152	5.97
824.329	139.09
824.507	155.47
824.685	106.32
824.863	108.37
825.04	53.08
825.218	81.75
825.396	36.69
825.574	81.75
825.751	153.43
825.929	83.8
826.107	1.88
826.284	3.93
826.462	65.36
826.639	53.08
826.817	42.84
826.994	73.56
827.172	126.8
827.349	151.38
827.527	114.52
827.704	135
827.882	98.13
828.059	18.26
828.237	48.98
828.414	61.27
828.591	24.4
828.769	114.52
828.946	81.75
829.124	165.71
829.301	81.75
829.478	112.47
829.655	94.04
829.833	32.6
830.01	-22.7
830.187	18.26
830.364	-4.27
830.542	139.09
830.719	188.24
830.896	135
831.073	73.56
831.25	124.76
831.427	14.17
831.604	114.52
831.782	-0.17
831.959	98.13
832.136	61.27
832.313	75.6
832.49	65.36
832.667	81.75
832.844	26.45
833.021	96.08
833.198	122.71
833.374	91.99
833.551	65.36
833.728	141.14
833.905	100.18
834.082	42.84
834.259	42.84
834.436	67.41
834.612	94.04
834.789	75.6
834.966	24.4
835.143	91.99
835.319	42.84
835.496	65.36
835.673	-30.89
835.85	75.6
836.026	112.47
836.203	96.08
836.38	-16.55
836.556	32.6
836.733	-10.41
836.909	141.14
837.086	73.56
837.262	-65.71
837.439	96.08
837.616	24.4
837.792	61.27
837.968	-32.94
838.145	40.79
838.321	32.6
838.498	46.93
838.674	57.17
838.851	75.6
839.027	114.52
839.203	65.36
839.38	34.64
839.556	69.46
839.732	57.17
839.909	65.36
840.085	94.04
840.261	51.03
840.437	1.88
840.614	40.79
840.79	73.56
840.966	53.08
841.142	67.41
841.318	24.4
841.494	114.52
841.671	51.03
841.847	20.31
842.023	67.41
842.199	14.17
842.375	57.17
842.551	77.65
842.727	8.02
842.903	106.32
843.079	24.4
843.255	77.65
843.431	53.08
843.607	94.04
843.783	24.4
843.959	75.6
844.134	3.93
844.31	102.23
844.486	34.64
844.662	-0.17
844.838	69.46
845.013	24.4
845.189	34.64
845.365	81.75
845.541	26.45
845.716	96.08
845.892	14.17
846.068	83.8
846.244	26.45
846.419	26.45
846.595	12.12
846.77	-55.47
846.946	135
847.122	65.36
847.297	32.6
847.473	63.32
847.648	53.08
847.824	32.6
847.999	-8.36
848.175	94.04
848.35	44.88
848.526	22.36
848.701	32.6
848.876	122.71
849.052	98.13
849.227	59.22
849.403	69.46
849.578	51.03
849.753	96.08
849.929	28.5
850.104	8.02
850.279	-4.27
850.454	69.46
850.63	48.98
850.805	-6.31
850.98	28.5
851.155	-20.65
851.33	100.18
851.505	-57.51
851.681	139.09
851.856	-63.66
852.031	75.6
852.206	32.6
852.381	3.93
852.556	28.5
852.731	20.31
852.906	71.51
853.081	40.79
853.256	94.04
853.431	8.02
853.606	8.02
853.781	77.65
853.956	-14.51
854.131	44.88
854.305	51.03
854.48	32.6
854.655	57.17
854.83	44.88
855.005	5.97
855.18	36.69
855.354	-12.46
855.529	38.74
855.704	20.31
855.879	73.56
856.053	53.08
856.228	71.51
856.403	-20.65
856.577	46.93
856.752	18.26
856.926	24.4
857.101	-14.51
857.276	-34.99
857.45	28.5
857.625	73.56
857.799	40.79
857.974	24.4
858.148	-14.51
858.323	-16.55
858.497	44.88
858.672	32.6
858.846	-8.36
859.02	16.21
859.195	26.45
859.369	-22.7
859.543	5.97
859.718	-0.17
859.892	-43.18
860.066	34.64
860.241	-28.84
860.415	-22.7
860.589	38.74
860.763	1.88
860.938	-6.31
861.112	116.56
861.286	-4.27
861.46	65.36
861.634	-34.99
861.808	61.27
861.982	-34.99
862.157	18.26
862.331	5.97
862.505	34.64
862.679	-24.75
862.853	24.4
863.027	48.98
863.201	73.56
863.375	-2.22
863.549	34.64
863.722	44.88
863.896	44.88
864.07	-28.84
864.244	-10.41
864.418	-6.31
864.592	26.45
864.766	55.12
864.939	77.65
865.113	42.84
865.287	-20.65
865.461	8.02
865.634	42.84
865.808	-16.55
865.982	-14.51
866.156	12.12
866.329	-41.13
866.503	-4.27
866.676	57.17
866.85	-10.41
867.024	-37.03
867.197	-8.36
867.371	126.8
867.544	57.17
867.718	-2.22
867.891	55.12
868.065	-6.31
868.238	-4.27
868.412	40.79
868.585	-14.51
868.759	-24.75
868.932	10.07
869.105	-24.75
869.279	24.4
869.452	36.69
869.625	48.98
869.799	-8.36
869.972	57.17
870.145	8.02
870.319	30.55
870.492	-12.46
870.665	-49.32
870.838	-12.46
871.011	-6.31
871.185	77.65
871.358	100.18
871.531	24.4
871.704	40.79
871.877	28.5
872.05	-20.65
872.223	-20.65
872.396	1.88
872.569	73.56
872.742	34.64
872.915	-22.7
873.088	-32.94
873.261	36.69
873.434	16.21
873.607	-8.36
873.78	-69.8
873.953	24.4
874.126	-14.51
874.299	65.36
874.471	-8.36
874.644	14.17
874.817	73.56
874.99	118.61
875.163	44.88
875.335	106.32
875.508	100.18
875.681	18.26
875.853	48.98
876.026	59.22
876.199	18.26
876.371	32.6
876.544	1.88
876.717	16.21
876.889	-63.66
877.062	-12.46
877.234	-53.42
877.407	-6.31
877.579	-0.17
877.752	40.79
877.924	53.08
878.097	-45.23
878.269	124.76
878.442	-0.17
878.614	8.02
878.786	81.75
878.959	51.03
879.131	40.79
879.303	32.6
879.476	40.79
879.648	67.41
879.82	-16.55
879.993	48.98
880.165	-22.7
880.337	18.26
880.509	36.69
880.681	-22.7
880.854	-32.94
881.026	-22.7
881.198	30.55
881.37	83.8
881.542	44.88
881.714	24.4
881.886	16.21
882.058	-14.51
882.23	20.31
882.402	34.64
882.574	-0.17
882.746	57.17
882.918	-18.6
883.09	51.03
883.262	8.02
883.434	57.17
883.606	-2.22
883.778	51.03
883.95	114.52
884.122	14.17
884.293	3.93
884.465	44.88
884.637	1.88
884.809	28.5
884.98	32.6
885.152	12.12
885.324	-20.65
885.496	-16.55
885.667	-0.17
885.839	-49.32
886.011	89.94
886.182	36.69
886.354	51.03
886.525	-14.51
886.697	16.21
886.869	-37.03
887.04	-8.36
887.212	57.17
887.383	73.56
887.555	42.84
887.726	-49.32
887.897	46.93
888.069	65.36
888.24	28.5
888.412	53.08
888.583	28.5
888.754	34.64
888.926	-65.71
889.097	40.79
889.268	-86.19
889.44	1.88
889.611	10.07
889.782	-49.32
889.953	-18.6
890.125	32.6
890.296	-22.7
890.467	-39.08
890.638	44.88
890.809	18.26
890.98	-16.55
891.151	-0.17
891.323	16.21
891.494	42.84
891.665	61.27
891.836	14.17
892.007	-45.23
892.178	-20.65
892.349	18.26
892.52	-26.79
892.691	32.6
892.862	-22.7
893.032	-37.03
893.203	-28.84
893.374	18.26
893.545	34.64
893.716	40.79
893.887	48.98
894.057	12.12
894.228	10.07
894.399	-32.94
894.57	77.65
894.74	-28.84
894.911	26.45
895.082	36.69
895.253	40.79
895.423	3.93
895.594	8.02
895.764	14.17
895.935	-24.75
896.106	-45.23
896.276	-57.51
896.447	16.21
896.617	-69.8
896.788	-34.99
896.958	12.12
897.129	-26.79
897.299	32.6
897.47	48.98
897.64	32.6
897.81	-24.75
897.981	-24.75
898.151	-41.13
898.322	18.26
898.492	28.5
898.662	-47.27
898.832	-41.13
899.003	-24.75
899.173	10.07
899.343	-71.85
899.513	-10.41
