Data from USB4F104151__113__14-31-09-337.txt Node

Date: Thu Mar 13 14:31:09 EDT 2025
User: louis
Spectrometer: USB4F10415
Trigger mode: 4
Integration Time (sec): 2.500000E-2
Scans to average: 1
Electric dark correction enabled: true
Nonlinearity correction enabled: false
Boxcar width: 0
XAxis mode: Wavelengths
Number of Pixels in Spectrum: 3648
>>>>>Begin Spectral Data<<<<<
178.204	-79.87
178.424	-79.87
178.644	-79.87
178.864	-165.89
179.084	-169.98
179.304	26.62
179.524	-2.05
179.744	-26.62
179.964	20.48
180.184	51.2
180.404	-4.1
180.624	-34.82
180.844	-14.34
181.064	-10.24
181.283	10.24
181.503	-36.86
181.723	20.48
181.943	-49.15
182.163	36.86
182.383	2.05
182.602	110.59
182.822	55.3
183.042	2.05
183.262	10.24
183.482	14.34
183.701	4.1
183.921	-10.24
184.141	40.96
184.361	157.69
184.58	38.91
184.8	30.72
185.02	-14.34
185.239	108.54
185.459	-10.24
185.679	43.01
185.898	-14.34
186.118	63.49
186.338	-6.14
186.557	26.62
186.777	-98.3
186.997	59.39
187.216	28.67
187.436	45.06
187.655	43.01
187.875	83.97
188.095	-20.48
188.314	63.49
188.534	116.73
188.753	36.86
188.973	79.87
189.192	102.4
189.412	45.06
189.631	92.16
189.851	18.43
190.07	51.2
190.29	-77.82
190.509	43.01
190.729	4.1
190.948	67.58
191.168	141.31
191.387	43.01
191.607	-26.62
191.826	20.48
192.045	2.05
192.265	73.73
192.484	8.19
192.704	38.91
192.923	16.38
193.142	71.68
193.362	18.43
193.581	2.05
193.8	61.44
194.02	116.73
194.239	59.39
194.458	75.77
194.678	73.73
194.897	-28.67
195.116	24.58
195.335	-2.05
195.555	-14.34
195.774	32.77
195.993	81.92
196.212	51.2
196.432	36.86
196.651	-30.72
196.87	63.49
197.089	129.02
197.308	18.43
197.528	86.01
197.747	-22.53
197.966	-30.72
198.185	69.63
198.404	57.34
198.623	116.73
198.842	-55.3
199.062	51.2
199.281	77.82
199.5	-6.14
199.719	67.58
199.938	-12.29
200.157	63.49
200.376	12.29
200.595	108.54
200.814	108.54
201.033	65.53
201.252	30.72
201.471	36.86
201.69	55.3
201.909	10.24
202.128	53.25
202.347	-4.1
202.566	2.05
202.785	-38.91
203.004	-12.29
203.223	53.25
203.442	-30.72
203.661	43.01
203.879	112.64
204.098	79.87
204.317	71.68
204.536	100.35
204.755	-6.14
204.974	32.77
205.193	124.93
205.411	51.2
205.63	-22.53
205.849	-20.48
206.068	-26.62
206.287	-14.34
206.505	-10.24
206.724	20.48
206.943	34.82
207.162	30.72
207.381	34.82
207.599	-77.82
207.818	-22.53
208.037	-38.91
208.255	-22.53
208.474	110.59
208.693	59.39
208.911	4.1
209.13	86.01
209.349	22.53
209.567	-12.29
209.786	43.01
210.005	26.62
210.223	34.82
210.442	-30.72
210.661	4.1
210.879	-2.05
211.098	45.06
211.316	26.62
211.535	61.44
211.753	36.86
211.972	51.2
212.191	10.24
212.409	22.53
212.628	51.2
212.846	10.24
213.065	53.25
213.283	14.34
213.502	34.82
213.72	18.43
213.938	-6.14
214.157	-6.14
214.375	16.38
214.594	26.62
214.812	-14.34
215.031	16.38
215.249	-4.1
215.467	-20.48
215.686	-36.86
215.904	61.44
216.122	53.25
216.341	71.68
216.559	43.01
216.778	59.39
216.996	71.68
217.214	71.68
217.432	-45.06
217.651	22.53
217.869	43.01
218.087	-22.53
218.306	18.43
218.524	-32.77
218.742	61.44
218.96	34.82
219.179	24.58
219.397	18.43
219.615	120.83
219.833	32.77
220.051	63.49
220.27	-45.06
220.488	69.63
220.706	10.24
220.924	-43.01
221.142	10.24
221.36	-81.92
221.578	-12.29
221.796	-14.34
222.015	45.06
222.233	4.1
222.451	112.64
222.669	-34.82
222.887	49.15
223.105	-38.91
223.323	92.16
223.541	22.53
223.759	69.63
223.977	22.53
224.195	59.39
224.413	69.63
224.631	34.82
224.849	63.49
225.067	108.54
225.285	-14.34
225.503	-14.34
225.721	-49.15
225.939	2.05
226.157	16.38
226.375	129.02
226.592	40.96
226.81	-55.3
227.028	34.82
227.246	161.79
227.464	40.96
227.682	47.1
227.9	36.86
228.117	79.87
228.335	65.53
228.553	83.97
228.771	59.39
228.989	67.58
229.206	47.1
229.424	36.86
229.642	-32.77
229.86	18.43
230.077	79.87
230.295	10.24
230.513	10.24
230.731	83.97
230.948	92.16
231.166	92.16
231.384	45.06
231.601	32.77
231.819	75.77
232.037	73.73
232.254	8.19
232.472	45.06
232.689	-32.77
232.907	83.97
233.125	2.05
233.342	10.24
233.56	75.77
233.777	12.29
233.995	30.72
234.213	28.67
234.43	-14.34
234.648	18.43
234.865	-4.1
235.083	141.31
235.3	100.35
235.518	77.82
235.735	71.68
235.953	75.77
236.17	-6.14
236.388	-4.1
236.605	6.14
236.822	47.1
237.04	63.49
237.257	6.14
237.475	43.01
237.692	18.43
237.909	59.39
238.127	-45.06
238.344	30.72
238.562	59.39
238.779	-24.58
238.996	-22.53
239.214	57.34
239.431	104.45
239.648	38.91
239.865	51.2
240.083	92.16
240.3	43.01
240.517	53.25
240.735	4.1
240.952	79.87
241.169	10.24
241.386	104.45
241.603	59.39
241.821	-61.44
242.038	55.3
242.255	34.82
242.472	-6.14
242.689	75.77
242.907	30.72
243.124	53.25
243.341	59.39
243.558	-12.29
243.775	-28.67
243.992	-18.43
244.209	71.68
244.426	86.01
244.643	49.15
244.86	-22.53
245.078	47.1
245.295	-12.29
245.512	75.77
245.729	-6.14
245.946	-26.62
246.163	79.87
246.38	53.25
246.597	12.29
246.814	88.06
247.031	30.72
247.248	75.77
247.464	83.97
247.681	63.49
247.898	6.14
248.115	30.72
248.332	-6.14
248.549	18.43
248.766	75.77
248.983	-12.29
249.2	22.53
249.417	104.45
249.633	2.05
249.85	30.72
250.067	14.34
250.284	71.68
250.501	63.49
250.717	51.2
250.934	-2.05
251.151	36.86
251.368	38.91
251.585	45.06
251.801	57.34
252.018	47.1
252.235	65.53
252.451	18.43
252.668	-22.53
252.885	75.77
253.102	102.4
253.318	6.14
253.535	28.67
253.752	-32.77
253.968	28.67
254.185	12.29
254.401	30.72
254.618	43.01
254.835	-2.05
255.051	30.72
255.268	83.97
255.484	28.67
255.701	104.45
255.917	92.16
256.134	-36.86
256.351	51.2
256.567	-4.1
256.784	32.77
257	-71.68
257.217	75.77
257.433	6.14
257.65	18.43
257.866	47.1
258.082	12.29
258.299	38.91
258.515	53.25
258.732	38.91
258.948	-28.67
259.165	53.25
259.381	63.49
259.597	45.06
259.814	-2.05
260.03	-47.1
260.246	47.1
260.463	53.25
260.679	-14.34
260.895	92.16
261.112	26.62
261.328	-36.86
261.544	71.68
261.761	153.6
261.977	22.53
262.193	8.19
262.409	38.91
262.626	12.29
262.842	63.49
263.058	-0
263.274	145.41
263.49	94.21
263.707	63.49
263.923	34.82
264.139	-12.29
264.355	20.48
264.571	43.01
264.787	20.48
265.004	104.45
265.22	8.19
265.436	26.62
265.652	-14.34
265.868	36.86
266.084	-59.39
266.3	86.01
266.516	2.05
266.732	26.62
266.948	26.62
267.164	61.44
267.38	55.3
267.596	77.82
267.812	53.25
268.028	77.82
268.244	-38.91
268.46	43.01
268.676	81.92
268.892	34.82
269.108	20.48
269.324	-28.67
269.54	-59.39
269.756	30.72
269.972	-51.2
270.188	51.2
270.403	-51.2
270.619	26.62
270.835	2.05
271.051	106.49
271.267	36.86
271.483	34.82
271.698	-2.05
271.914	34.82
272.13	40.96
272.346	-14.34
272.562	28.67
272.777	92.16
272.993	12.29
273.209	34.82
273.425	38.91
273.64	38.91
273.856	79.87
274.072	22.53
274.287	10.24
274.503	36.86
274.719	108.54
274.934	63.49
275.15	-28.67
275.366	22.53
275.581	36.86
275.797	28.67
276.012	-20.48
276.228	34.82
276.444	18.43
276.659	65.53
276.875	61.44
277.09	20.48
277.306	104.45
277.521	-6.14
277.737	53.25
277.952	77.82
278.168	65.53
278.383	69.63
278.599	69.63
278.814	133.12
279.03	-43.01
279.245	96.25
279.461	6.14
279.676	61.44
279.892	32.77
280.107	28.67
280.322	10.24
280.538	63.49
280.753	120.83
280.969	124.93
281.184	34.82
281.399	30.72
281.615	34.82
281.83	51.2
282.045	-28.67
282.26	20.48
282.476	-6.14
282.691	51.2
282.906	75.77
283.122	75.77
283.337	-12.29
283.552	77.82
283.767	2.05
283.983	118.78
284.198	38.91
284.413	18.43
284.628	4.1
284.843	51.2
285.058	22.53
285.274	30.72
285.489	75.77
285.704	26.62
285.919	20.48
286.134	92.16
286.349	30.72
286.564	63.49
286.779	79.87
286.995	10.24
287.21	49.15
287.425	12.29
287.64	-4.1
287.855	43.01
288.07	-14.34
288.285	51.2
288.5	81.92
288.715	28.67
288.93	14.34
289.145	55.3
289.36	26.62
289.575	18.43
289.79	90.11
290.004	51.2
290.219	79.87
290.434	83.97
290.649	22.53
290.864	34.82
291.079	-6.14
291.294	71.68
291.509	36.86
291.724	94.21
291.938	-4.1
292.153	32.77
292.368	51.2
292.583	43.01
292.798	100.35
293.012	131.07
293.227	-2.05
293.442	49.15
293.657	59.39
293.871	22.53
294.086	47.1
294.301	75.77
294.516	67.58
294.73	71.68
294.945	18.43
295.16	83.97
295.374	118.78
295.589	28.67
295.804	4.1
296.018	18.43
296.233	86.01
296.447	26.62
296.662	86.01
296.877	114.69
297.091	43.01
297.306	90.11
297.52	43.01
297.735	47.1
297.949	79.87
298.164	40.96
298.378	-6.14
298.593	63.49
298.807	49.15
299.022	6.14
299.236	67.58
299.451	18.43
299.665	59.39
299.88	96.25
300.094	124.93
300.309	26.62
300.523	51.2
300.737	102.4
300.952	59.39
301.166	59.39
301.381	34.82
301.595	45.06
301.809	45.06
302.024	12.29
302.238	28.67
302.452	100.35
302.667	28.67
302.881	63.49
303.095	63.49
303.309	67.58
303.524	47.1
303.738	-10.24
303.952	-12.29
304.166	81.92
304.381	-47.1
304.595	98.3
304.809	51.2
305.023	26.62
305.237	75.77
305.452	20.48
305.666	63.49
305.88	45.06
306.094	-22.53
306.308	120.83
306.522	61.44
306.736	92.16
306.95	57.34
307.164	20.48
307.379	100.35
307.593	108.54
307.807	104.45
308.021	75.77
308.235	34.82
308.449	-26.62
308.663	-10.24
308.877	94.21
309.091	-4.1
309.305	-18.43
309.519	-28.67
309.733	-10.24
309.947	-6.14
310.161	63.49
310.374	-30.72
310.588	59.39
310.802	26.62
311.016	-2.05
311.23	47.1
311.444	-30.72
311.658	59.39
311.872	126.97
312.085	69.63
312.299	129.02
312.513	26.62
312.727	86.01
312.941	18.43
313.154	43.01
313.368	43.01
313.582	-12.29
313.796	-43.01
314.009	4.1
314.223	90.11
314.437	12.29
314.651	47.1
314.864	-4.1
315.078	53.25
315.292	6.14
315.505	16.38
315.719	6.14
315.933	-2.05
316.146	51.2
316.36	16.38
316.573	65.53
316.787	67.58
317.001	10.24
317.214	71.68
317.428	51.2
317.641	61.44
317.855	12.29
318.068	28.67
318.282	83.97
318.495	94.21
318.709	67.58
318.922	49.15
319.136	67.58
319.349	47.1
319.563	6.14
319.776	40.96
319.99	45.06
320.203	-30.72
320.417	10.24
320.63	83.97
320.843	122.88
321.057	47.1
321.27	36.86
321.483	49.15
321.697	34.82
321.91	26.62
322.124	26.62
322.337	45.06
322.55	88.06
322.763	2.05
322.977	-18.43
323.19	43.01
323.403	26.62
323.617	47.1
323.83	53.25
324.043	36.86
324.256	-2.05
324.469	18.43
324.683	-12.29
324.896	67.58
325.109	71.68
325.322	12.29
325.535	43.01
325.748	65.53
325.962	-8.19
326.175	102.4
326.388	18.43
326.601	57.34
326.814	-47.1
327.027	-6.14
327.24	100.35
327.453	18.43
327.666	43.01
327.879	75.77
328.092	51.2
328.305	-26.62
328.518	28.67
328.731	34.82
328.944	43.01
329.157	67.58
329.37	53.25
329.583	88.06
329.796	16.38
330.009	-10.24
330.222	75.77
330.435	81.92
330.648	53.25
330.861	49.15
331.073	73.73
331.286	26.62
331.499	34.82
331.712	-26.62
331.925	100.35
332.138	61.44
332.35	43.01
332.563	-2.05
332.776	67.58
332.989	75.77
333.202	63.49
333.414	43.01
333.627	-6.14
333.84	71.68
334.053	110.59
334.265	67.58
334.478	49.15
334.691	43.01
334.903	47.1
335.116	-71.68
335.329	20.48
335.541	104.45
335.754	110.59
335.966	22.53
336.179	2.05
336.392	67.58
336.604	49.15
336.817	118.78
337.029	106.49
337.242	14.34
337.454	-30.72
337.667	55.3
337.88	69.63
338.092	86.01
338.305	-2.05
338.517	-14.34
338.729	159.74
338.942	92.16
339.154	-16.38
339.367	51.2
339.579	141.31
339.792	40.96
340.004	83.97
340.217	20.48
340.429	51.2
340.641	-47.1
340.854	-16.38
341.066	-59.39
341.278	59.39
341.491	67.58
341.703	38.91
341.915	43.01
342.128	116.73
342.34	20.48
342.552	2.05
342.764	36.86
342.977	63.49
343.189	28.67
343.401	20.48
343.613	34.82
343.826	53.25
344.038	4.1
344.25	43.01
344.462	40.96
344.674	77.82
344.886	22.53
345.099	20.48
345.311	75.77
345.523	10.24
345.735	2.05
345.947	110.59
346.159	-4.1
346.371	79.87
346.583	79.87
346.795	83.97
347.007	22.53
347.219	71.68
347.431	69.63
347.643	108.54
347.855	26.62
348.067	36.86
348.279	53.25
348.491	4.1
348.703	28.67
348.915	10.24
349.127	22.53
349.339	59.39
349.551	2.05
349.763	59.39
349.975	53.25
350.187	47.1
350.399	86.01
350.61	83.97
350.822	65.53
351.034	49.15
351.246	-88.06
351.458	83.97
351.669	100.35
351.881	26.62
352.093	116.73
352.305	18.43
352.517	34.82
352.728	43.01
352.94	67.58
353.152	75.77
353.363	53.25
353.575	108.54
353.787	71.68
353.999	47.1
354.21	55.3
354.422	133.12
354.633	-2.05
354.845	20.48
355.057	53.25
355.268	67.58
355.48	57.34
355.692	2.05
355.903	28.67
356.115	88.06
356.326	-43.01
356.538	153.6
356.749	92.16
356.961	65.53
357.172	55.3
357.384	61.44
357.595	110.59
357.807	10.24
358.018	14.34
358.23	73.73
358.441	151.55
358.653	124.93
358.864	-14.34
359.075	-4.1
359.287	8.19
359.498	43.01
359.709	83.97
359.921	-2.05
360.132	67.58
360.344	94.21
360.555	49.15
360.766	45.06
360.977	-38.91
361.189	143.36
361.4	34.82
361.611	83.97
361.823	108.54
362.034	20.48
362.245	-30.72
362.456	18.43
362.667	147.45
362.879	18.43
363.09	22.53
363.301	116.73
363.512	79.87
363.723	118.78
363.935	61.44
364.146	59.39
364.357	26.62
364.568	-4.1
364.779	61.44
364.99	120.83
365.201	47.1
365.412	69.63
365.623	43.01
365.834	53.25
366.045	79.87
366.256	28.67
366.467	28.67
366.678	-28.67
366.889	55.3
367.1	59.39
367.311	2.05
367.522	53.25
367.733	36.86
367.944	92.16
368.155	120.83
368.366	100.35
368.577	83.97
368.788	106.49
368.999	10.24
369.209	36.86
369.42	102.4
369.631	94.21
369.842	18.43
370.053	53.25
370.264	49.15
370.474	20.48
370.685	71.68
370.896	55.3
371.107	63.49
371.317	79.87
371.528	114.69
371.739	129.02
371.95	59.39
372.16	77.82
372.371	28.67
372.582	53.25
372.792	110.59
373.003	34.82
373.214	43.01
373.424	47.1
373.635	47.1
373.846	133.12
374.056	43.01
374.267	45.06
374.477	112.64
374.688	-18.43
374.898	20.48
375.109	59.39
375.319	22.53
375.53	98.3
375.74	108.54
375.951	26.62
376.161	137.21
376.372	67.58
376.582	36.86
376.793	55.3
377.003	47.1
377.214	43.01
377.424	77.82
377.635	45.06
377.845	-2.05
378.055	161.79
378.266	34.82
378.476	36.86
378.686	100.35
378.897	34.82
379.107	67.58
379.317	67.58
379.528	6.14
379.738	100.35
379.948	10.24
380.158	157.69
380.369	36.86
380.579	77.82
380.789	36.86
380.999	73.73
381.21	53.25
381.42	157.69
381.63	55.3
381.84	4.1
382.05	18.43
382.261	108.54
382.471	94.21
382.681	49.15
382.891	79.87
383.101	88.06
383.311	10.24
383.521	43.01
383.731	51.2
383.941	53.25
384.151	69.63
384.361	92.16
384.571	124.93
384.781	43.01
384.991	75.77
385.201	157.69
385.411	86.01
385.621	59.39
385.831	98.3
386.041	28.67
386.251	-12.29
386.461	96.25
386.671	59.39
386.881	4.1
387.091	102.4
387.301	40.96
387.511	10.24
387.72	2.05
387.93	34.82
388.14	-63.49
388.35	26.62
388.56	133.12
388.769	83.97
388.979	102.4
389.189	75.77
389.399	92.16
389.609	92.16
389.818	94.21
390.028	79.87
390.238	67.58
390.447	92.16
390.657	169.98
390.867	124.93
391.076	45.06
391.286	79.87
391.496	100.35
391.705	10.24
391.915	108.54
392.125	75.77
392.334	67.58
392.544	163.84
392.753	108.54
392.963	34.82
393.172	43.01
393.382	-8.19
393.591	165.89
393.801	129.02
394.01	129.02
394.22	77.82
394.429	151.55
394.639	61.44
394.848	88.06
395.058	129.02
395.267	129.02
395.477	157.69
395.686	141.31
395.895	149.5
396.105	75.77
396.314	110.59
396.524	116.73
396.733	165.89
396.942	131.07
397.152	133.12
397.361	169.98
397.57	137.21
397.78	108.54
397.989	161.79
398.198	247.8
398.407	124.93
398.617	96.25
398.826	108.54
399.035	51.2
399.244	104.45
399.453	161.79
399.663	114.69
399.872	161.79
400.081	139.26
400.29	90.11
400.499	79.87
400.708	153.6
400.917	198.65
401.127	49.15
401.336	108.54
401.545	198.65
401.754	229.37
401.963	235.52
402.172	190.46
402.381	79.87
402.59	247.8
402.799	153.6
403.008	102.4
403.217	116.73
403.426	182.27
403.635	194.56
403.844	239.61
404.053	100.35
404.262	176.13
404.471	284.67
404.68	284.67
404.888	153.6
405.097	200.7
405.306	198.65
405.515	149.5
405.724	251.9
405.933	178.17
406.142	239.61
406.35	317.44
406.559	233.47
406.768	266.24
406.977	331.77
407.185	215.04
407.394	313.34
407.603	305.15
407.812	280.57
408.02	299
408.229	272.38
408.438	247.8
408.646	215.04
408.855	321.53
409.064	387.07
409.272	272.38
409.481	423.93
409.69	348.15
409.898	305.15
410.107	497.66
410.315	382.97
410.524	407.55
410.733	466.94
410.941	419.83
411.15	428.03
411.358	421.88
411.567	555
411.775	534.52
411.984	567.29
412.192	571.38
412.401	608.25
412.609	663.54
412.818	686.07
413.026	612.34
413.234	686.07
413.443	690.17
413.651	634.87
413.86	780.28
414.068	741.36
414.276	778.23
414.485	847.86
414.693	796.66
414.901	952.31
415.11	909.3
415.318	870.39
415.526	929.78
415.734	1083.38
415.943	1042.42
416.151	1112.05
416.359	1095.66
416.567	1134.57
416.776	1167.34
416.984	1185.77
417.192	1292.27
417.4	1279.98
417.608	1279.98
417.817	1415.15
418.025	1353.71
418.233	1585.13
418.441	1488.87
418.649	1574.89
418.857	1632.23
419.065	1689.57
419.273	1673.19
419.481	1779.68
419.689	1771.49
419.897	1988.58
420.105	1996.77
420.313	2080.74
420.521	1984.48
420.729	2142.18
420.937	2193.37
421.145	2306.01
421.353	2365.4
421.561	2519
421.769	2484.19
421.977	2697.17
422.185	2592.73
422.393	2727.89
422.601	2938.84
422.809	2924.5
423.017	2850.77
423.224	3180.5
423.432	3229.65
423.64	3323.85
423.848	3565.51
424.056	3395.53
424.263	3749.83
424.471	3688.39
424.679	3866.56
424.887	4149.18
425.094	4179.9
425.302	4122.56
425.51	4403.13
425.718	4259.77
425.925	4444.09
426.133	4700.09
426.341	4892.6
426.548	5218.22
426.756	5052.34
426.964	5187.5
427.171	5506.99
427.379	5670.83
427.586	5679.02
427.794	5857.19
428.001	6057.89
428.209	6518.68
428.417	6301.6
428.624	6727.58
428.832	6868.89
429.039	6784.92
429.247	6793.11
429.454	7425.93
429.662	7954.31
429.869	7315.34
430.076	7788.43
430.284	7718.79
430.491	8009.61
430.699	8267.65
430.906	8339.33
431.114	8433.54
431.321	8703.87
431.528	9037.69
431.736	9381.74
431.943	10067.81
432.15	9914.22
432.358	9848.68
432.565	10428.26
432.772	10403.68
432.979	10897.24
433.187	11104.09
433.394	11030.36
433.601	11810.64
433.808	11777.87
434.016	11757.39
434.223	12136.26
434.43	12830.52
434.637	12676.93
434.844	13412.15
435.052	13776.69
435.259	13848.36
435.466	13625.14
435.673	13645.62
435.88	14673.7
436.087	15327
436.294	15410.96
436.501	15230.74
436.708	15195.93
436.915	15900.43
437.122	16449.28
437.329	16447.24
437.537	17028.86
437.743	17006.33
437.95	16928.51
438.157	17983.21
438.364	18482.92
438.571	18507.49
438.778	18659.04
438.985	20238.03
439.192	19324.63
439.399	20160.2
439.606	19693.27
439.813	21067.45
440.02	22189.74
440.227	21753.52
440.433	21253.82
440.64	22242.99
440.847	22075.06
441.054	22410.92
441.261	23854.74
441.467	23594.65
441.674	24379.02
441.881	25210.5
442.088	24862.34
442.294	24811.14
442.501	25513.59
442.708	25972.34
442.914	26893.93
443.121	27971.16
443.328	27289.18
443.534	28849.74
443.741	28597.84
443.948	27958.87
444.154	29978.17
444.361	29978.17
444.568	30209.59
444.774	30078.52
444.981	30142
445.187	31090.21
445.394	32634.38
445.6	32140.82
445.807	35005.93
446.013	33404.42
446.22	34276.85
446.426	35745.25
446.633	36275.67
446.839	36969.93
447.046	35749.34
447.252	37815.74
447.459	37486.02
447.665	37277.13
447.871	38550.96
448.078	40494.49
448.284	38477.24
448.491	39982.49
448.697	41137.55
448.903	41913.73
449.11	42327.42
449.316	40992.14
449.522	42423.67
449.728	43308.4
449.935	43646.31
450.141	43611.49
450.347	44541.27
450.553	42999.15
450.76	43824.48
450.966	44875.09
451.172	44571.99
451.378	45866.31
451.584	45110.61
451.791	45849.92
451.997	45595.98
452.203	46646.58
452.409	46708.02
452.615	46523.71
452.821	44442.97
453.027	44182.88
453.233	46531.9
453.44	44686.68
453.646	44950.87
453.852	45020.5
454.058	45915.46
454.264	44387.67
454.47	45436.23
454.676	44305.76
454.882	45776.2
455.088	41692.55
455.294	42454.39
455.5	43576.68
455.705	43535.72
455.911	41942.4
456.117	41272.71
456.323	40684.95
456.529	38503.86
456.735	40140.19
456.941	38940.08
457.147	38409.65
457.352	37393.86
457.558	37156.3
457.764	36795.85
457.97	36283.86
458.176	35286.5
458.381	35253.73
458.587	33459.71
458.793	33668.61
458.999	31956.5
459.204	34078.2
459.41	33281.54
459.616	31219.24
459.821	31034.92
460.027	30998.06
460.233	30438.96
460.438	29148.74
460.644	29314.62
460.85	27840.09
461.055	27381.34
461.261	27551.32
461.466	25548.41
461.672	24671.88
461.878	26709.61
462.083	24477.32
462.289	24325.77
462.494	24075.92
462.7	22752.93
462.905	22206.13
463.111	22965.92
463.316	23178.91
463.522	22458.03
463.727	22787.75
463.932	22537.9
464.138	22218.41
464.343	22449.83
464.549	21591.73
464.754	22386.35
464.959	22116.01
465.165	22021.81
465.37	20924.1
465.575	20659.91
465.781	21345.98
465.986	21319.35
466.191	20618.95
466.397	20260.55
466.602	19265.24
466.807	20344.52
467.012	20098.77
467.218	20199.12
467.423	19822.29
467.628	19910.35
467.833	20522.69
468.038	19889.87
468.244	19293.91
468.449	20016.85
468.654	19281.63
468.859	19261.15
469.064	19056.35
469.269	18343.66
469.474	18478.82
469.679	18927.33
469.885	18378.47
470.09	18620.13
470.295	18370.28
470.5	17739.51
470.705	18306.79
470.91	17815.28
471.115	17592.05
471.32	18034.41
471.525	17899.25
471.73	17065.72
471.935	17035
472.139	16828.16
472.344	16830.21
472.549	16598.79
472.754	16537.35
472.959	16297.74
473.164	15963.92
473.369	15636.24
473.574	16043.79
473.778	15779.6
473.983	15697.68
474.188	16047.88
474.393	15099.67
474.598	15118.11
474.802	14880.54
475.007	15040.28
475.212	14905.12
475.417	14460.71
475.621	14665.5
475.826	14427.94
476.031	14237.48
476.235	14092.07
476.44	14192.42
476.645	13762.35
476.849	14145.32
477.054	13635.38
477.259	13492.02
477.463	13756.21
477.668	13084.47
477.872	13313.84
478.077	12916.54
478.282	12539.71
478.486	12738.37
478.691	12715.84
478.895	12468.03
479.1	12494.66
479.304	12537.66
479.509	12232.52
479.713	12416.83
479.918	12076.87
480.122	11935.56
480.326	12171.08
480.531	12166.98
480.735	12003.14
480.94	11700.05
481.144	12257.09
481.348	11757.39
481.553	11820.88
481.757	11652.94
481.961	11695.95
482.166	11736.91
482.37	11855.69
482.574	11818.83
482.778	11769.68
482.983	11937.61
483.187	11581.26
483.391	11831.12
483.595	11669.33
483.8	11685.71
484.004	11487.06
484.208	11784.01
484.412	11616.08
484.616	11599.69
484.821	11771.72
485.025	11308.88
485.229	11591.5
485.433	11540.3
485.637	11605.84
485.841	11460.43
486.045	11360.08
486.249	11589.46
486.453	11454.29
486.657	11683.66
486.861	11599.69
487.065	11202.39
487.269	11515.73
487.473	11321.17
487.677	11890.51
487.881	11618.13
488.085	11681.61
488.289	11552.59
488.493	11607.89
488.697	11681.61
488.901	11716.43
489.105	11544.4
489.309	11767.63
489.512	11816.78
489.716	11515.73
489.92	11759.44
490.124	11718.48
490.328	11816.78
490.531	11634.51
490.735	11726.67
490.939	11888.46
491.143	11827.02
491.346	11704.14
491.55	11978.57
491.754	11851.6
491.958	11880.27
492.161	11945.8
492.365	11839.31
492.569	12027.72
492.772	12095.3
492.976	12240.71
493.18	12207.94
493.383	12345.16
493.587	12463.94
493.79	12764.99
493.994	12457.79
494.197	12640.06
494.401	12674.88
494.605	12652.35
494.808	12896.06
495.012	12728.13
495.215	12928.83
495.419	13272.89
495.622	13125.43
495.825	13295.41
496.029	13068.09
496.232	13524.79
496.436	13319.99
496.639	13889.32
496.843	13479.73
497.046	14036.78
497.249	14100.26
497.453	14081.83
497.656	14288.68
497.859	14286.63
498.063	14425.89
498.266	14516
498.469	14450.47
498.673	14780.19
498.876	14968.6
499.079	15267.61
499.282	15236.89
499.485	15386.39
499.689	15564.56
499.892	15824.65
500.095	15871.76
500.298	16275.21
500.501	16127.75
500.705	16226.06
500.908	16760.58
501.111	16660.23
501.314	16871.17
501.517	17370.87
501.72	17186.55
501.923	17137.4
502.126	17657.59
502.329	17753.84
502.532	17573.62
502.735	18089.71
502.938	18013.93
503.141	18357.99
503.344	18540.26
503.547	18771.68
503.75	18900.7
503.953	19115.74
504.156	19500.76
504.359	19594.97
504.562	19400.41
504.765	20205.26
504.968	20186.83
505.17	20637.38
505.373	20385.48
505.576	21106.37
505.779	21302.97
505.982	21196.48
506.185	21528.25
506.387	21604.02
506.59	21886.64
506.793	22017.71
506.996	21903.03
507.198	22750.88
507.401	22675.11
507.604	22886.05
507.807	23443.1
508.009	23318.17
508.212	23453.34
508.415	23842.45
508.617	24110.74
508.82	24274.57
509.022	24401.55
509.225	24880.77
509.428	25230.97
509.63	25159.3
509.833	25579.13
510.035	25839.22
510.238	25849.46
510.44	25933.43
510.643	26238.58
510.845	26664.55
511.048	26543.72
511.25	26916.45
511.453	27045.48
511.655	28167.76
511.858	27551.32
512.06	27758.17
512.262	28345.94
512.465	28225.11
512.667	28829.26
512.87	29032.01
513.072	29075.01
513.274	29470.27
513.477	29728.31
513.679	30062.13
513.881	30467.63
514.084	30848.55
514.286	30367.28
514.488	31020.58
514.69	31776.28
514.893	31260.19
515.095	31671.84
515.297	32228.88
515.499	32304.66
515.701	32513.55
515.904	33019.4
516.106	33334.79
516.308	33435.14
516.51	33848.83
516.712	33711.61
516.914	34127.35
517.116	35028.46
517.318	34502.13
517.52	34844.14
517.722	35104.23
517.925	35446.24
518.127	35780.06
518.329	36273.62
518.531	35747.29
518.733	36597.2
518.935	36869.58
519.136	36568.53
519.338	37254.6
519.54	37418.44
519.742	37903.81
519.944	37639.62
520.146	37987.77
520.348	38557.11
520.55	38854.06
520.752	38858.16
520.954	39374.25
521.155	39019.95
521.357	39521.7
521.559	39839.14
521.761	40181.15
521.963	40508.82
522.164	39984.54
522.366	40420.76
522.568	40623.51
522.77	40529.3
522.971	41586.05
523.173	41172.36
523.375	41706.88
523.576	40957.33
523.778	41358.73
523.98	41778.56
524.181	41934.21
524.383	42315.13
524.584	42657.14
524.786	42483.06
524.988	41942.4
525.189	42806.64
525.391	42941.81
525.592	43234.67
525.794	43093.36
525.995	43158.89
526.197	43359.59
526.398	43201.9
526.6	44160.35
526.801	43736.42
527.003	43795.81
527.204	43349.35
527.406	44023.14
527.607	44219.74
527.808	44397.91
528.01	43380.07
528.211	44096.86
528.412	44418.39
528.614	44111.2
528.815	44490.07
529.016	44709.21
529.218	44146.01
529.419	44440.92
529.62	44438.87
529.822	44338.52
530.023	44557.66
530.224	44160.35
530.425	44293.47
530.626	44066.14
530.828	44023.14
531.029	44492.12
531.23	44070.24
531.431	44221.79
531.632	44610.9
531.833	44428.63
532.035	44184.93
532.236	44223.84
532.437	44701.01
532.638	44272.99
532.839	44602.71
533.04	44533.08
533.241	44057.95
533.442	44668.25
533.643	44152.16
533.844	44037.47
534.045	44236.12
534.246	43873.63
534.447	44064.1
534.648	43851.11
534.849	44254.56
535.05	43824.48
535.251	44240.22
535.451	43783.52
535.652	44119.39
535.853	43986.27
536.054	44287.32
536.255	44076.38
536.456	43564.39
536.657	44735.83
536.857	43969.89
537.058	44027.23
537.259	44291.42
537.46	43986.27
537.66	43668.84
537.861	44096.86
538.062	43496.81
538.263	43945.31
538.463	43765.09
538.664	43437.42
538.865	43879.78
539.065	43851.11
539.266	43269.48
539.466	43873.63
539.667	43636.07
539.868	43650.41
540.068	43457.9
540.269	43249
540.469	43761
540.67	43523.43
540.87	43640.17
541.071	43433.32
541.271	43539.82
541.472	43529.58
541.672	43545.96
541.873	43257.2
542.073	42919.28
542.274	43668.84
542.474	42777.97
542.675	42712.44
542.875	44156.25
543.075	43156.85
543.276	42689.91
543.476	43750.76
543.676	42925.42
543.877	43607.4
544.077	43269.48
544.277	43394.41
544.478	43171.18
544.678	43433.32
544.878	43193.71
545.078	43341.16
545.279	42782.07
545.479	42640.76
545.679	43363.69
545.879	42642.81
546.079	43095.41
546.28	42929.52
546.48	42589.56
546.68	43717.99
546.88	43312.49
547.08	43179.37
547.28	42835.31
547.48	43181.42
547.68	43140.46
547.88	42823.03
548.081	43072.88
548.281	42853.75
548.481	42943.86
548.681	43535.72
548.881	42753.4
549.081	43072.88
549.28	42866.03
549.48	42691.96
549.68	43036.02
549.88	43222.38
550.08	43048.3
550.28	42737.01
550.48	43038.06
550.68	43167.09
550.88	42845.55
551.08	42843.51
551.279	42993.01
551.479	42782.07
551.679	43101.55
551.879	42851.7
552.079	43345.26
552.278	43294.06
552.478	43040.11
552.678	42685.81
552.878	43142.51
553.077	43144.56
553.277	42702.2
553.477	43472.23
553.676	43054.45
553.876	43054.45
554.076	42888.56
554.275	42900.85
554.475	42988.91
554.674	43083.12
554.874	43150.7
555.074	42847.6
555.273	43109.74
555.473	43523.43
555.672	42984.82
555.872	43011.44
556.071	42868.08
556.271	43556.2
556.47	42792.31
556.67	42683.76
556.869	42843.51
557.068	43494.76
557.268	42759.54
557.467	43085.17
557.667	43130.22
557.866	43324.78
558.065	43013.49
558.265	43038.06
558.464	43263.34
558.663	43451.75
558.863	42372.47
559.062	43335.02
559.261	43345.26
559.461	43851.11
559.66	42863.99
559.859	43130.22
560.058	42669.43
560.258	43038.06
560.457	43119.98
560.656	43292.01
560.855	42863.99
561.054	43099.5
561.253	42724.72
561.453	42988.91
561.652	43158.89
561.851	42597.75
562.05	43154.8
562.249	42917.23
562.448	43468.14
562.647	42999.15
562.846	43191.66
563.045	43097.45
563.244	42446.2
563.443	43214.19
563.642	42313.08
563.841	42550.65
564.04	42511.74
564.239	43103.6
564.438	42683.76
564.637	42497.4
564.836	42417.53
565.035	42098.05
565.234	42677.62
565.432	42179.96
565.631	42241.4
565.83	42417.53
566.029	42390.91
566.228	42612.09
566.427	41989.5
566.625	41915.78
566.824	41770.37
567.023	41686.4
567.222	41768.32
567.42	42202.49
567.619	42184.06
567.818	41901.44
568.016	41569.67
568.215	42188.16
568.414	41475.46
568.612	41917.82
568.811	41502.09
569.01	42063.23
569.208	41139.6
569.407	41596.29
569.605	41037.2
569.804	41563.53
570.002	41262.47
570.201	41581.96
570.4	40994.19
570.598	40746.39
570.797	40510.87
570.995	40983.95
571.193	40301.98
571.392	40816.02
571.59	40768.91
571.789	40574.36
571.987	40441.24
572.186	40451.48
572.384	40650.13
572.582	40869.26
572.781	40344.98
572.979	39921.05
573.177	40492.44
573.376	40095.13
573.574	39835.04
573.772	40256.92
573.971	39728.55
574.169	39716.26
574.367	39251.37
574.565	39968.16
574.763	39507.37
574.962	39777.7
575.16	38854.06
575.358	39144.87
575.556	38849.97
575.754	39419.3
575.952	38706.61
576.151	39337.38
576.349	38712.75
576.547	38378.93
576.745	38864.3
576.943	38817.2
577.141	38534.58
577.339	38213.05
577.537	38464.95
577.735	38010.3
577.933	38010.3
578.131	38061.5
578.329	38024.64
578.527	37928.38
578.725	37998.01
578.923	38151.61
579.121	37748.16
579.319	37459.4
579.516	37971.39
579.714	37801.41
579.912	37346.76
580.11	37062.09
580.308	37260.74
580.506	37125.58
580.704	36996.56
580.901	36804.05
581.099	37256.65
581.297	36597.2
581.495	36668.88
581.692	37313.99
581.89	36429.27
582.088	37113.29
582.285	36347.35
582.483	36865.49
582.681	36500.95
582.878	36244.95
583.076	35782.11
583.274	36437.46
583.471	35909.08
583.669	36097.5
583.866	35792.35
584.064	35991
584.262	35599.84
584.459	35927.52
584.657	35397.09
584.854	35528.16
585.052	35104.23
585.249	35315.17
585.447	35374.56
585.644	35524.07
585.841	35249.64
586.039	35472.87
586.236	34743.79
586.434	34872.81
586.631	34790.89
586.828	34731.5
587.026	34573.81
587.223	34905.58
587.42	34635.25
587.618	34598.38
587.815	34653.68
588.012	34008.57
588.21	34426.35
588.407	34616.82
588.604	34117.11
588.801	33605.12
588.999	33992.19
589.196	33603.07
589.393	33836.54
589.59	33775.1
589.787	33754.62
589.984	33474.05
590.182	33209.86
590.379	33553.92
590.576	33318.4
590.773	33582.59
590.97	33242.63
591.167	33070.6
591.364	32863.75
591.561	32873.99
591.758	32835.08
591.955	32855.56
592.152	32886.28
592.349	32661.01
592.546	32704.01
592.743	32626.19
592.94	32034.33
593.137	32540.18
593.334	32523.79
593.531	32073.24
593.727	32470.54
593.924	32157.21
594.121	31858.2
594.318	32388.63
594.515	31821.34
594.712	32204.31
594.908	31626.78
595.105	31751.71
595.302	31802.91
595.499	31837.72
595.696	31759.9
595.892	31591.97
596.089	31987.22
596.286	31546.91
596.482	31874.59
596.679	31309.35
596.876	31505.95
597.072	31323.68
597.269	31677.98
597.466	31421.98
597.662	31010.34
597.859	31036.97
598.055	31360.55
598.252	30578.22
598.448	31053.35
598.645	30651.95
598.841	30461.49
599.038	30742.06
599.234	30891.56
599.431	30563.89
599.627	30705.2
599.824	31000.1
600.02	30516.78
600.217	30512.69
600.413	30471.73
600.609	30610.99
600.806	30694.96
601.002	30484.01
601.198	30393.9
601.395	30410.29
601.591	30619.18
601.787	30422.58
601.984	30248.5
602.18	30441.01
602.376	30264.88
602.572	30510.64
602.769	30498.35
602.965	30035.51
603.161	30297.65
603.357	30213.68
603.553	30234.16
603.75	29969.97
603.946	29851.19
604.142	30271.03
604.338	29810.23
604.534	30078.52
604.73	29625.92
604.926	29716.03
605.122	30029.37
605.318	30008.89
605.514	29816.38
605.71	29890.1
605.906	29990.45
606.102	29806.14
606.298	30340.66
606.494	29730.36
606.69	29910.58
606.886	29980.21
607.082	29685.31
607.278	30303.79
607.474	29691.45
607.67	30041.65
607.866	29337.15
608.062	29877.82
608.257	29552.19
608.453	29713.98
608.649	29894.2
608.845	29466.17
609.041	29759.03
609.236	30144.05
609.432	29799.99
609.628	29941.3
609.824	29744.7
610.019	29701.69
610.215	29834.81
610.411	30213.68
610.606	29888.06
610.802	29847.1
610.998	30021.17
611.193	29836.86
611.389	29486.65
611.584	29914.68
611.78	29713.98
611.976	29548.09
612.171	29922.87
612.367	29584.96
612.562	29513.28
612.758	29443.65
612.953	29670.97
613.149	29972.02
613.344	29716.03
613.539	29599.29
613.735	29943.35
613.93	29832.76
614.126	29654.59
614.321	29951.54
614.517	29845.05
614.712	29525.57
614.907	29480.51
615.103	29666.88
615.298	29939.26
615.493	30232.11
615.688	29609.53
615.884	30125.62
616.079	29253.19
616.274	29713.98
616.47	29494.85
616.665	29617.72
616.86	29642.3
617.055	29787.71
617.25	29521.47
617.445	29552.19
617.641	29521.47
617.836	29476.41
618.031	28960.33
618.226	29425.22
618.421	29597.24
618.616	29574.72
618.811	28843.59
619.006	29603.39
619.201	28681.8
619.396	29208.13
619.591	28440.14
619.786	28982.85
619.981	28616.27
620.176	28821.06
620.371	28730.95
620.566	28425.81
620.761	28405.33
620.956	28733
621.151	28126.8
621.346	28110.42
621.541	27960.92
621.735	28178
621.93	27526.75
622.125	27717.21
622.32	27205.22
622.515	27625.05
622.709	27276.9
622.904	27197.03
623.099	26988.13
623.294	27047.52
623.488	26910.31
623.683	26777.19
623.878	26672.74
624.072	26857.06
624.267	26183.28
624.462	26336.88
624.656	26349.17
624.851	26297.97
625.046	25968.24
625.24	25945.72
625.435	25906.8
625.629	25777.78
625.824	25880.18
626.018	25542.27
626.213	24936.07
626.407	25364.09
626.602	25017.99
626.796	24839.81
626.991	24884.87
627.185	24858.24
627.38	24639.11
627.574	24426.12
627.768	24190.61
627.963	24155.79
628.157	23938.71
628.352	24299.15
628.546	23742.1
628.74	24202.89
628.935	23496.35
629.129	23668.37
629.323	23084.7
629.517	23436.95
629.712	23129.76
629.906	23185.05
630.1	22785.7
630.294	23099.04
630.489	22652.58
630.683	22681.25
630.877	22073.01
631.071	22447.79
631.265	22339.24
631.459	22146.73
631.653	22144.69
631.848	22109.87
632.042	22116.01
632.236	21808.82
632.43	21706.42
632.624	21614.26
632.818	21538.49
633.012	21044.93
633.206	20926.14
633.4	21581.49
633.594	20924.1
633.788	20897.47
633.982	20917.95
634.176	20803.27
634.369	20571.85
634.563	20623.05
634.757	20377.29
634.951	20330.19
635.145	20504.26
635.339	20260.55
635.533	20285.13
635.726	20240.08
635.92	19822.29
636.114	20111.05
636.308	19685.08
636.501	19676.88
636.695	19482.33
636.889	19490.52
637.083	19160.8
637.276	19269.34
637.47	19257.05
637.664	18765.54
637.857	18999.01
638.051	18736.87
638.244	18695.91
638.438	18534.12
638.632	18544.36
638.825	18601.7
639.019	18212.59
639.212	18134.76
639.406	18194.15
639.599	17835.76
639.793	18116.33
639.986	17637.11
640.18	17753.84
640.373	18005.74
640.567	17336.06
640.76	17407.73
640.954	17366.78
641.147	17323.77
641.34	17340.15
641.534	17295.1
641.727	16895.74
641.92	16926.46
642.114	16895.74
642.307	16742.14
642.5	16877.31
642.694	16402.18
642.887	16217.86
643.08	16666.37
643.273	16297.74
643.467	16248.58
643.66	15879.95
643.853	16031.5
644.046	15597.33
644.239	15697.68
644.432	15795.98
644.626	15638.29
644.819	15406.87
645.012	15349.53
645.205	15501.08
645.398	15306.52
645.591	15159.06
645.784	15224.6
645.977	15116.06
646.17	15005.47
646.363	14638.88
646.556	14544.67
646.749	15009.56
646.942	14640.93
647.135	14300.97
647.328	14440.23
647.521	14503.71
647.714	14247.72
647.907	14110.5
648.099	14167.85
648.292	14247.72
648.485	14190.38
648.678	13788.97
648.871	13893.42
649.064	13743.92
649.256	13834.03
649.449	13672.24
649.642	13418.29
649.835	13451.06
650.027	13469.49
650.22	13256.5
650.413	13266.74
650.605	13338.42
650.798	13309.75
650.991	12863.29
651.183	13041.46
651.376	13084.47
651.568	12949.31
651.761	12750.65
651.954	12787.52
652.146	12619.58
652.339	12650.3
652.531	12392.26
652.724	12306.24
652.916	12349.25
653.109	12312.39
653.301	12302.15
653.494	12263.24
653.686	12119.88
653.879	12277.57
654.071	12019.53
654.263	11814.73
654.456	11904.84
654.648	11937.61
654.84	11874.12
655.033	11732.81
655.225	11681.61
655.417	11577.17
655.61	11556.69
655.802	11552.59
655.994	11556.69
656.186	11478.86
656.379	11288.4
656.571	11372.37
656.763	11040.6
656.955	11253.59
657.148	11065.18
657.34	11087.7
657.532	10938.2
657.724	10907.48
657.916	10880.86
658.108	10794.84
658.3	10725.21
658.492	10663.77
658.684	10372.96
658.876	10399.59
659.068	10528.61
659.26	10456.93
659.452	10682.2
659.644	10430.3
659.836	10202.98
660.028	10387.3
660.22	10073.96
660.412	10377.06
660.604	9985.9
660.796	10137.45
660.988	9959.27
661.18	9686.89
661.372	9588.59
661.563	9957.22
661.755	9748.33
661.947	9637.74
662.139	9631.6
662.331	9652.08
662.522	9465.71
662.714	9465.71
662.906	9461.62
663.097	9488.24
663.289	9269.11
663.481	9324.4
663.673	9369.46
663.864	8894.33
664.056	9058.17
664.247	9174.9
664.439	8939.38
664.631	8906.62
664.822	8918.9
665.014	8818.55
665.205	8843.13
665.397	8710.01
665.588	9029.49
665.78	8621.95
665.971	8781.69
666.163	8816.51
666.354	8482.69
666.546	8523.65
666.737	8531.84
666.929	8509.31
667.12	8331.14
667.311	8370.05
667.503	8322.94
667.694	8343.42
667.885	8038.28
668.077	8083.33
668.268	8144.77
668.459	8189.83
668.651	8146.82
668.842	8220.55
669.033	7853.96
669.224	8054.66
669.416	8138.63
669.607	7899.02
669.798	7976.84
669.989	7688.07
670.18	7913.35
670.371	7741.32
670.563	7634.83
670.754	7579.53
670.945	7823.24
671.136	7739.27
671.327	7714.7
671.518	7534.48
671.709	7344.02
671.9	7638.92
672.091	7503.76
672.282	7448.46
672.473	7524.24
672.664	7393.17
672.855	7546.76
673.046	7423.89
673.237	7366.54
673.428	7106.45
673.619	7165.84
673.809	7290.77
674	7196.56
674.191	7284.62
674.382	7124.88
674.573	7145.36
674.764	7145.36
674.954	7188.37
675.145	6977.43
675.336	7030.68
675.527	6887.32
675.717	7063.44
675.908	6977.43
676.099	6924.18
676.289	6760.34
676.48	7040.92
676.671	6801.3
676.861	6932.37
677.052	6668.19
677.243	6721.43
677.433	6696.86
677.624	6711.19
677.814	6711.19
678.005	6784.92
678.195	6709.15
678.386	6698.91
678.576	6674.33
678.767	6649.75
678.957	6647.71
679.148	6506.4
679.338	6567.84
679.529	6555.55
679.719	6565.79
679.909	6629.27
680.1	6600.6
680.29	6514.59
680.481	6481.82
680.671	6535.07
680.861	6356.89
681.052	6588.32
681.242	6494.11
681.432	6647.71
681.622	6352.8
681.813	6475.68
682.003	6410.14
682.193	6195.11
682.383	6379.42
682.573	6291.36
682.764	6219.68
682.954	6508.44
683.144	6297.5
683.334	6330.27
683.524	6023.08
683.714	6408.09
683.904	6180.77
684.094	6152.1
684.284	6084.52
684.474	6025.12
684.664	6164.39
684.854	6004.64
685.044	6045.6
685.234	6035.36
685.424	6104.99
685.614	5900.2
685.804	6084.52
685.994	5877.67
686.184	6088.61
686.374	6012.84
686.564	5889.96
686.753	5994.4
686.943	5844.9
687.133	6043.56
687.323	5871.53
687.513	5820.33
687.702	5748.65
687.892	5777.32
688.082	5799.85
688.272	5836.71
688.461	5777.32
688.651	5795.75
688.841	5621.67
689.03	5572.52
689.22	5550
689.41	5570.47
689.599	5599.15
689.789	5547.95
689.979	5547.95
690.168	5498.8
690.358	5556.14
690.547	5547.95
690.737	5525.42
690.926	5525.42
691.116	5281.71
691.305	5523.37
691.495	5400.49
691.684	5355.44
691.874	5416.88
692.063	5394.35
692.252	5263.28
692.442	5238.7
692.631	5187.5
692.82	5162.93
693.01	5119.92
693.199	5212.08
693.388	5025.72
693.578	5119.92
693.767	5269.42
693.956	5164.98
694.146	4960.18
694.335	5121.97
694.524	5091.25
694.713	5027.76
694.902	5035.96
695.092	5136.31
695.281	4992.95
695.47	4933.56
695.659	4972.47
695.848	4894.65
696.037	4900.79
696.226	4999.09
696.415	4951.99
696.604	4966.32
696.793	4722.62
696.982	4777.91
697.171	4790.2
697.36	4773.82
697.549	4739
697.738	4800.44
697.927	4741.05
698.116	4825.01
698.305	4761.53
698.494	4585.4
698.683	4663.22
698.872	4763.58
699.061	4542.39
699.25	4558.78
699.438	4659.13
699.627	4566.97
699.816	4638.65
700.005	4376.51
700.193	4462.52
700.382	4601.79
700.571	4601.79
700.76	4618.17
700.948	4523.96
701.137	4558.78
701.326	4521.91
701.514	4552.63
701.703	4577.21
701.892	4483
702.08	4415.42
702.269	4368.32
702.457	4392.89
702.646	4343.74
702.834	4329.41
703.023	4450.24
703.212	4409.28
703.4	4343.74
703.589	4274.11
703.777	4345.79
703.965	4216.77
704.154	4360.13
704.342	4143.04
704.531	4302.78
704.719	4122.56
704.907	4243.39
705.096	4208.58
705.284	4134.85
705.472	4067.27
705.661	4130.75
705.849	4136.9
706.037	4081.6
706.226	3909.57
706.414	4149.18
706.602	4081.6
706.79	3991.49
706.979	3942.34
707.167	3917.76
707.355	3993.54
707.543	4073.41
707.731	3897.28
707.919	3876.8
708.107	4001.73
708.296	4011.97
708.484	3848.13
708.672	3798.98
708.86	3901.38
709.048	3893.19
709.236	3971.01
709.424	3975.11
709.612	3968.96
709.8	3614.66
709.988	3860.42
710.176	3864.52
710.364	3715.02
710.551	3813.32
710.739	3737.54
710.927	3690.44
711.115	3622.86
711.303	3792.84
711.491	3774.41
711.679	3758.02
711.866	3776.45
712.054	3655.62
712.242	3706.82
712.43	3696.58
712.617	3518.41
712.805	3704.78
712.993	3549.13
713.181	3512.27
713.368	3585.99
713.556	3614.66
713.744	3518.41
713.931	3639.24
714.119	3483.59
714.306	3516.36
714.494	3532.75
714.682	3459.02
714.869	3475.4
715.057	3434.44
715.244	3377.1
715.432	3428.3
715.619	3350.48
715.807	3393.48
715.994	3516.36
716.182	3487.69
716.369	3311.57
716.556	3434.44
716.744	3393.48
716.931	3278.8
717.119	3282.89
717.306	3217.36
717.493	3174.35
717.681	3166.16
717.868	3139.54
718.055	3336.14
718.242	3223.5
718.43	3262.41
718.617	3278.8
718.804	3241.93
718.991	3151.82
719.179	3160.02
719.366	3090.38
719.553	3188.69
719.74	3082.19
719.927	3117.01
720.114	3180.5
720.301	3147.73
720.488	3176.4
720.676	2920.4
720.863	3039.19
721.05	3074
721.237	3114.96
721.424	2967.51
721.611	3018.71
721.798	2983.89
721.985	3057.62
722.172	3016.66
722.358	2901.97
722.545	2930.64
722.732	2904.02
722.919	3061.71
723.106	2959.31
723.293	2979.79
723.48	2910.16
723.667	2781.14
723.853	3000.27
724.04	2922.45
724.227	2947.03
724.414	2893.78
724.6	2858.96
724.787	3024.85
724.974	2820.05
725.161	2805.72
725.347	2908.12
725.534	2838.48
725.72	2873.3
725.907	2809.81
726.094	2758.61
726.28	2779.09
726.467	2893.78
726.653	2725.85
726.84	2807.77
727.027	2781.14
727.213	2729.94
727.4	2725.85
727.586	2686.93
727.773	2688.98
727.959	2775
728.145	2836.44
728.332	2758.61
728.518	2643.93
728.705	2836.44
728.891	2656.22
729.077	2645.98
729.264	2709.46
729.45	2543.58
729.636	2809.81
729.823	2543.58
730.009	2652.12
730.195	2766.81
730.382	2627.54
730.568	2549.72
730.754	2648.02
730.94	2549.72
731.126	2629.59
731.313	2664.41
731.499	2582.49
731.685	2566.1
731.871	2613.21
732.057	2500.57
732.243	2574.3
732.429	2590.68
732.615	2541.53
732.801	2514.91
732.987	2500.57
733.173	2545.63
733.359	2508.76
733.545	2383.84
733.731	2445.27
733.917	2484.19
734.103	2568.15
734.289	2541.53
734.475	2467.8
734.661	2377.69
734.847	2465.75
735.033	2478.04
735.219	2377.69
735.404	2410.46
735.59	2432.99
735.776	2340.83
735.962	2279.39
736.148	2303.96
736.333	2453.47
736.519	2349.02
736.705	2340.83
736.89	2287.58
737.076	2389.98
737.262	2209.76
737.447	2475.99
737.633	2340.83
737.819	2330.59
738.004	2283.49
738.19	2254.81
738.375	2228.19
738.561	2406.36
738.747	2164.7
738.932	2320.35
739.118	2234.33
739.303	2238.43
739.489	2320.35
739.674	2222.05
739.859	2234.33
740.045	2140.13
740.23	2101.22
740.416	2021.35
740.601	2052.06
740.786	2164.7
740.972	2148.32
741.157	2123.74
741.342	2150.37
741.528	2191.33
741.713	2133.98
741.898	2033.63
742.084	2154.46
742.269	2168.8
742.454	2138.08
742.639	2105.31
742.824	1959.91
743.01	2105.31
743.195	2058.21
743.38	1986.53
743.565	2021.35
743.75	1937.38
743.935	1986.53
744.12	2029.54
744.305	1882.08
744.49	1947.62
744.675	1968.1
744.86	1996.77
745.045	1855.46
745.23	1904.61
745.415	1880.04
745.6	1992.67
745.785	1880.04
745.97	1816.55
746.155	1832.93
746.34	1869.8
746.525	1918.95
746.71	1877.99
746.895	1695.72
747.079	1787.88
747.264	1824.74
747.449	1824.74
747.634	1857.51
747.819	1851.36
748.003	1746.92
748.188	1701.86
748.373	1740.77
748.557	1644.52
748.742	1806.31
748.927	1699.81
749.111	1775.59
749.296	1695.72
749.481	1667.05
749.665	1632.23
749.85	1691.62
750.034	1619.94
750.219	1615.85
750.404	1603.56
750.588	1497.07
750.773	1652.71
750.957	1624.04
751.141	1576.94
751.326	1501.16
751.51	1482.73
751.695	1544.17
751.879	1546.22
752.064	1628.14
752.248	1443.82
752.432	1427.43
752.617	1495.02
752.801	1509.35
752.985	1533.93
753.17	1466.35
753.354	1443.82
753.538	1396.71
753.722	1417.19
753.907	1544.17
754.091	1392.62
754.275	1478.63
754.459	1382.38
754.643	1402.86
754.828	1394.67
755.012	1363.95
755.196	1345.52
755.38	1335.28
755.564	1413.1
755.748	1337.32
755.932	1378.28
756.116	1271.79
756.3	1353.71
756.484	1185.77
756.668	1380.33
756.852	1189.87
757.036	1079.28
757.22	1337.32
757.404	1132.53
757.588	1232.88
757.772	1239.02
757.956	1251.31
758.14	1261.55
758.323	1146.86
758.507	1234.93
758.691	1187.82
758.875	1107.95
759.059	1150.96
759.242	1191.92
759.426	1165.29
759.61	1144.81
759.794	1050.61
759.977	1122.29
760.161	1216.49
760.345	1183.73
760.528	1110
760.712	1132.53
760.895	1124.33
761.079	1095.66
761.263	1083.38
761.446	1060.85
761.63	1036.27
761.813	1134.57
761.997	1136.62
762.18	1062.9
762.364	1013.74
762.547	1007.6
762.731	1069.04
762.914	1011.7
763.098	1050.61
763.281	948.21
763.464	1083.38
763.648	1140.72
763.831	1054.7
764.015	989.17
764.198	983.02
764.381	1011.7
764.564	1026.03
764.748	974.83
764.931	968.69
765.114	1005.55
765.297	960.5
765.481	993.26
765.664	968.69
765.847	952.31
766.03	976.88
766.213	890.87
766.397	978.93
766.58	890.87
766.763	1005.55
766.946	886.77
767.129	837.62
767.312	942.07
767.495	976.88
767.678	917.49
767.861	972.79
768.044	995.31
768.227	958.45
768.41	931.83
768.593	880.63
768.776	905.2
768.959	815.09
769.142	1021.94
769.324	927.73
769.507	950.26
769.69	911.35
769.873	927.73
770.056	993.26
770.239	903.15
770.421	987.12
770.604	880.63
770.787	927.73
770.97	854
771.152	903.15
771.335	948.21
771.518	727.03
771.7	890.87
771.883	858.1
772.066	825.33
772.248	888.82
772.431	894.96
772.613	878.58
772.796	829.43
772.978	808.95
773.161	806.9
773.343	841.72
773.526	696.31
773.708	788.47
773.891	796.66
774.073	778.23
774.256	823.28
774.438	837.62
774.621	841.72
774.803	749.56
774.985	731.12
775.168	776.18
775.35	763.89
775.532	780.28
775.715	665.59
775.897	792.56
776.079	700.41
776.261	755.7
776.444	706.55
776.626	716.79
776.808	681.97
776.99	653.3
777.173	720.88
777.355	747.51
777.537	704.5
777.719	659.45
777.901	677.88
778.083	710.65
778.265	673.78
778.447	638.97
778.629	669.69
778.811	595.96
778.993	624.63
779.175	638.97
779.357	636.92
779.539	643.06
779.721	641.01
779.903	634.87
780.085	600.05
780.267	600.05
780.449	600.05
780.631	657.4
780.812	630.77
780.994	598.01
781.176	620.53
781.358	520.18
781.54	585.72
781.721	548.86
781.903	550.9
782.085	581.62
782.267	675.83
782.448	567.29
782.63	550.9
782.812	602.1
782.993	528.38
783.175	542.71
783.357	555
783.538	569.34
783.72	477.18
783.901	520.18
784.083	565.24
784.264	460.79
784.446	532.47
784.627	501.75
784.809	516.09
784.99	395.26
785.172	555
785.353	460.79
785.535	567.29
785.716	438.27
785.897	454.65
786.079	493.56
786.26	393.21
786.441	511.99
786.623	374.78
786.804	462.84
786.985	462.84
787.167	468.98
787.348	403.45
787.529	450.55
787.71	411.64
787.891	501.75
788.073	495.61
788.254	436.22
788.435	438.27
788.616	454.65
788.797	344.06
788.978	444.41
789.159	403.45
789.34	485.37
789.522	370.68
789.703	395.26
789.884	425.98
790.065	380.92
790.246	485.37
790.427	395.26
790.607	366.59
790.788	411.64
790.969	421.88
791.15	403.45
791.331	385.02
791.512	378.87
791.693	354.3
791.874	339.96
792.054	489.46
792.235	403.45
792.416	315.39
792.597	364.54
792.778	317.44
792.958	329.72
793.139	317.44
793.32	290.81
793.5	290.81
793.681	348.15
793.862	337.91
794.042	333.82
794.223	309.24
794.404	342.01
794.584	268.28
794.765	288.76
794.945	354.3
795.126	311.29
795.306	356.35
795.487	354.3
795.667	342.01
795.848	307.2
796.028	266.24
796.209	280.57
796.389	313.34
796.57	299
796.75	321.53
796.93	348.15
797.111	292.86
797.291	264.19
797.471	354.3
797.652	272.38
797.832	184.32
798.012	346.11
798.192	274.43
798.373	217.08
798.553	305.15
798.733	313.34
798.913	198.65
799.093	305.15
799.274	260.09
799.454	284.67
799.634	296.96
799.814	229.37
799.994	292.86
800.174	272.38
800.354	331.77
800.534	176.13
800.714	296.96
800.894	215.04
801.074	268.28
801.254	241.66
801.434	282.62
801.614	241.66
801.794	245.76
801.974	790.52
802.154	215.04
802.334	288.76
802.514	223.23
802.693	258.04
802.873	241.66
803.053	233.47
803.233	186.37
803.413	247.8
803.592	200.7
803.772	223.23
803.952	157.69
804.131	217.08
804.311	215.04
804.491	241.66
804.67	122.88
804.85	112.64
805.03	210.94
805.209	237.56
805.389	169.98
805.568	161.79
805.748	143.36
805.928	135.17
806.107	290.81
806.287	149.5
806.466	247.8
806.646	241.66
806.825	163.84
807.004	178.17
807.184	202.75
807.363	159.74
807.543	188.41
807.722	167.93
807.901	176.13
808.081	159.74
808.26	157.69
808.439	223.23
808.619	190.46
808.798	231.42
808.977	260.09
809.156	219.13
809.336	251.9
809.515	139.26
809.694	190.46
809.873	135.17
810.052	190.46
810.231	260.09
810.411	243.71
810.59	202.75
810.769	180.22
810.948	182.27
811.127	180.22
811.306	135.17
811.485	141.31
811.664	212.99
811.843	178.17
812.022	161.79
812.201	141.31
812.38	149.5
812.559	124.93
812.737	180.22
812.916	165.89
813.095	139.26
813.274	116.73
813.453	116.73
813.632	198.65
813.811	174.08
813.989	157.69
814.168	190.46
814.347	141.31
814.526	94.21
814.704	169.98
814.883	210.94
815.062	167.93
815.24	92.16
815.419	69.63
815.598	118.78
815.776	55.3
815.955	137.21
816.133	165.89
816.312	161.79
816.49	141.31
816.669	215.04
816.847	198.65
817.026	145.41
817.204	126.97
817.383	165.89
817.561	86.01
817.74	174.08
817.918	190.46
818.097	143.36
818.275	92.16
818.453	73.73
818.632	186.37
818.81	159.74
818.988	65.53
819.167	30.72
819.345	159.74
819.523	63.49
819.701	100.35
819.879	141.31
820.058	120.83
820.236	143.36
820.414	129.02
820.592	149.5
820.77	114.69
820.948	141.31
821.127	63.49
821.305	116.73
821.483	75.77
821.661	100.35
821.839	59.39
822.017	108.54
822.195	67.58
822.373	141.31
822.551	32.77
822.729	159.74
822.907	100.35
823.085	75.77
823.262	133.12
823.44	75.77
823.618	135.17
823.796	114.69
823.974	149.5
824.152	145.41
824.329	51.2
824.507	73.73
824.685	145.41
824.863	71.68
825.04	92.16
825.218	116.73
825.396	73.73
825.574	124.93
825.751	75.77
825.929	100.35
826.107	63.49
826.284	108.54
826.462	178.17
826.639	51.2
826.817	149.5
826.994	182.27
827.172	83.97
827.349	108.54
827.527	161.79
827.704	69.63
827.882	61.44
828.059	96.25
828.237	59.39
828.414	75.77
828.591	110.59
828.769	122.88
828.946	20.48
829.124	79.87
829.301	77.82
829.478	116.73
829.655	67.58
829.833	53.25
830.01	20.48
830.187	100.35
830.364	83.97
830.542	79.87
830.719	120.83
830.896	83.97
831.073	67.58
831.25	67.58
831.427	45.06
831.604	69.63
831.782	26.62
831.959	118.78
832.136	116.73
832.313	116.73
832.49	43.01
832.667	75.77
832.844	63.49
833.021	86.01
833.198	18.43
833.374	86.01
833.551	75.77
833.728	75.77
833.905	108.54
834.082	18.43
834.259	51.2
834.436	63.49
834.612	43.01
834.789	75.77
834.966	51.2
835.143	51.2
835.319	2.05
835.496	92.16
835.673	100.35
835.85	67.58
836.026	116.73
836.203	83.97
836.38	20.48
836.556	71.68
836.733	43.01
836.909	92.16
837.086	61.44
837.262	79.87
837.439	77.82
837.616	43.01
837.792	10.24
837.968	51.2
838.145	98.3
838.321	18.43
838.498	92.16
838.674	45.06
838.851	79.87
839.027	36.86
839.203	-43.01
839.38	-2.05
839.556	92.16
839.732	98.3
839.909	40.96
840.085	73.73
840.261	26.62
840.437	38.91
840.614	18.43
840.79	122.88
840.966	165.89
841.142	116.73
841.318	8.19
841.494	94.21
841.671	143.36
841.847	8.19
842.023	55.3
842.199	100.35
842.375	22.53
842.551	59.39
842.727	-22.53
842.903	137.21
843.079	-12.29
843.255	75.77
843.431	59.39
843.607	57.34
843.783	28.67
843.959	43.01
844.134	96.25
844.31	108.54
844.486	26.62
844.662	108.54
844.838	-14.34
845.013	77.82
845.189	20.48
845.365	90.11
845.541	-20.48
845.716	47.1
845.892	55.3
846.068	34.82
846.244	53.25
846.419	77.82
846.595	6.14
846.77	26.62
846.946	45.06
847.122	26.62
847.297	38.91
847.473	51.2
847.648	-6.14
847.824	26.62
847.999	14.34
848.175	55.3
848.35	77.82
848.526	133.12
848.701	67.58
848.876	34.82
849.052	34.82
849.227	6.14
849.403	38.91
849.578	-10.24
849.753	92.16
849.929	22.53
850.104	-32.77
850.279	45.06
850.454	-18.43
850.63	141.31
850.805	75.77
850.98	30.72
851.155	-51.2
851.33	69.63
851.505	-18.43
851.681	51.2
851.856	-30.72
852.031	75.77
852.206	16.38
852.381	-10.24
852.556	-2.05
852.731	43.01
852.906	92.16
853.081	145.41
853.256	122.88
853.431	34.82
853.606	-28.67
853.781	38.91
853.956	28.67
854.131	100.35
854.305	57.34
854.48	-16.38
854.655	-6.14
854.83	40.96
855.005	22.53
855.18	28.67
855.354	16.38
855.529	67.58
855.704	6.14
855.879	69.63
856.053	-6.14
856.228	112.64
856.403	12.29
856.577	28.67
856.752	-61.44
856.926	16.38
857.101	10.24
857.276	-4.1
857.45	20.48
857.625	59.39
857.799	94.21
857.974	88.06
858.148	-4.1
858.323	18.43
858.497	45.06
858.672	-20.48
858.846	6.14
859.02	92.16
859.195	18.43
859.369	36.86
859.543	-10.24
859.718	59.39
859.892	40.96
860.066	36.86
860.241	12.29
860.415	14.34
860.589	28.67
860.763	-34.82
860.938	47.1
861.112	34.82
861.286	30.72
861.46	34.82
861.634	59.39
861.808	59.39
861.982	61.44
862.157	-63.49
862.331	20.48
862.505	26.62
862.679	51.2
862.853	24.58
863.027	94.21
863.201	88.06
863.375	30.72
863.549	28.67
863.722	10.24
863.896	100.35
864.07	-12.29
864.244	22.53
864.418	63.49
864.592	61.44
864.766	43.01
864.939	59.39
865.113	45.06
865.287	92.16
865.461	-38.91
865.634	-2.05
865.808	71.68
865.982	20.48
866.156	10.24
866.329	-36.86
866.503	-14.34
866.676	67.58
866.85	10.24
867.024	-61.44
867.197	14.34
867.371	28.67
867.544	-14.34
867.718	-38.91
867.891	2.05
868.065	-38.91
868.238	57.34
868.412	14.34
868.585	18.43
868.759	67.58
868.932	-20.48
869.105	63.49
869.279	-14.34
869.452	-55.3
869.625	-38.91
869.799	34.82
869.972	16.38
870.145	53.25
870.319	-34.82
870.492	-2.05
870.665	-45.06
870.838	18.43
871.011	-79.87
871.185	79.87
871.358	10.24
871.531	6.14
871.704	30.72
871.877	2.05
872.05	45.06
872.223	8.19
872.396	45.06
872.569	43.01
872.742	-67.58
872.915	-6.14
873.088	-36.86
873.261	-34.82
873.434	-40.96
873.607	18.43
873.78	30.72
873.953	2.05
874.126	43.01
874.299	-32.77
874.471	28.67
874.644	-38.91
874.817	-18.43
874.99	59.39
875.163	-26.62
875.335	26.62
875.508	-12.29
875.681	34.82
875.853	-28.67
876.026	2.05
876.199	6.14
876.371	-0
876.544	16.38
876.717	40.96
876.889	-14.34
877.062	-45.06
877.234	-69.63
877.407	67.58
877.579	-2.05
877.752	77.82
877.924	-12.29
878.097	10.24
878.269	67.58
878.442	61.44
878.614	34.82
878.786	94.21
878.959	-26.62
879.131	-10.24
879.303	-71.68
879.476	75.77
879.648	51.2
879.82	69.63
879.993	38.91
880.165	18.43
880.337	10.24
880.509	75.77
880.681	-14.34
880.854	-63.49
881.026	-14.34
881.198	67.58
881.37	16.38
881.542	34.82
881.714	20.48
881.886	63.49
882.058	-6.14
882.23	43.01
882.402	75.77
882.574	83.97
882.746	12.29
882.918	75.77
883.09	61.44
883.262	-26.62
883.434	67.58
883.606	4.1
883.778	-28.67
883.95	-30.72
884.122	26.62
884.293	51.2
884.465	-14.34
884.637	18.43
884.809	-22.53
884.98	73.73
885.152	2.05
885.324	92.16
885.496	-30.72
885.667	59.39
885.839	2.05
886.011	14.34
886.182	-47.1
886.354	24.58
886.525	-10.24
886.697	30.72
886.869	18.43
887.04	-20.48
887.212	47.1
887.383	12.29
887.555	30.72
887.726	-43.01
887.897	-57.34
888.069	-6.14
888.24	43.01
888.412	26.62
888.583	-10.24
888.754	-45.06
888.926	-6.14
889.097	2.05
889.268	-6.14
889.44	2.05
889.611	-28.67
889.782	-14.34
889.953	-6.14
890.125	22.53
890.296	-28.67
890.467	-124.93
890.638	-6.14
890.809	-18.43
890.98	2.05
891.151	59.39
891.323	24.58
891.494	-24.58
891.665	26.62
891.836	-4.1
892.007	-53.25
892.178	59.39
892.349	34.82
892.52	12.29
892.691	28.67
892.862	-71.68
893.032	-12.29
893.203	22.53
893.374	-14.34
893.545	-12.29
893.716	2.05
893.887	6.14
894.057	61.44
894.228	4.1
894.399	-2.05
894.57	104.45
894.74	-6.14
894.911	63.49
895.082	32.77
895.253	-18.43
895.423	-14.34
895.594	69.63
895.764	22.53
895.935	-69.63
896.106	2.05
896.276	28.67
896.447	-4.1
896.617	-14.34
896.788	20.48
896.958	73.73
897.129	20.48
897.299	-79.87
897.47	83.97
897.64	92.16
897.81	-26.62
897.981	81.92
898.151	-61.44
898.322	-12.29
898.492	20.48
898.662	-18.43
898.832	-4.1
899.003	4.1
899.173	30.72
899.343	26.62
899.513	-47.1
