Data from USB4F104151__147__14-31-54-999.txt Node

Date: Thu Mar 13 14:31:54 EDT 2025
User: louis
Spectrometer: USB4F10415
Trigger mode: 4
Integration Time (sec): 2.500000E-2
Scans to average: 1
Electric dark correction enabled: true
Nonlinearity correction enabled: false
Boxcar width: 0
XAxis mode: Wavelengths
Number of Pixels in Spectrum: 3648
>>>>>Begin Spectral Data<<<<<
178.204	-178.51
178.424	-178.51
178.644	-178.51
178.864	-119.12
179.084	-168.27
179.304	28.33
179.524	-6.49
179.744	42.67
179.964	-22.87
180.184	95.91
180.404	-14.68
180.624	-6.49
180.844	-26.96
181.064	13.99
181.283	1.71
181.503	-55.64
181.723	-49.49
181.943	-20.82
182.163	11.95
182.383	44.71
182.602	102.06
182.822	65.19
183.042	69.29
183.262	-37.2
183.482	30.38
183.701	-55.64
183.921	50.86
184.141	-72.02
184.361	110.25
184.58	9.9
184.8	42.67
185.02	-6.49
185.239	59.05
185.459	-10.58
185.679	63.15
185.898	-78.16
186.118	34.47
186.338	28.33
186.557	75.43
186.777	-4.44
186.997	-29.01
187.216	-39.25
187.436	5.8
187.655	42.67
187.875	36.52
188.095	3.75
188.314	83.63
188.534	-22.87
188.753	-4.44
188.973	7.85
189.192	-22.87
189.412	11.95
189.631	11.95
189.851	77.48
190.07	124.58
190.29	20.14
190.509	52.91
190.729	-4.44
190.948	71.34
191.168	108.2
191.387	106.15
191.607	26.28
191.826	-4.44
192.045	95.91
192.265	93.87
192.484	18.09
192.704	9.9
192.923	38.57
193.142	36.52
193.362	-26.96
193.581	42.67
193.8	3.75
194.02	28.33
194.239	24.23
194.458	3.75
194.678	-14.68
194.897	-47.44
195.116	50.86
195.335	11.95
195.555	48.81
195.774	5.8
195.993	114.34
196.212	36.52
196.432	-12.63
196.651	-49.49
196.87	1.71
197.089	83.63
197.308	13.99
197.528	9.9
197.747	-35.16
197.966	18.09
198.185	91.82
198.404	3.75
198.623	5.8
198.842	36.52
199.062	34.47
199.281	124.58
199.5	28.33
199.719	9.9
199.938	54.95
200.157	91.82
200.376	5.8
200.595	30.38
200.814	42.67
201.033	30.38
201.252	73.39
201.471	79.53
201.69	102.06
201.909	-4.44
202.128	38.57
202.347	71.34
202.566	38.57
202.785	-51.54
203.004	9.9
203.223	116.39
203.442	-37.2
203.661	63.15
203.879	36.52
204.098	46.76
204.317	9.9
204.536	95.91
204.755	20.14
204.974	59.05
205.193	44.71
205.411	108.2
205.63	67.24
205.849	22.19
206.068	42.67
206.287	-12.63
206.505	59.05
206.724	26.28
206.943	9.9
207.162	-63.83
207.381	59.05
207.599	-6.49
207.818	42.67
208.037	24.23
208.255	13.99
208.474	18.09
208.693	-12.63
208.911	1.71
209.13	-22.87
209.349	42.67
209.567	81.58
209.786	67.24
210.005	38.57
210.223	34.47
210.442	-63.83
210.661	-4.44
210.879	34.47
211.098	11.95
211.316	28.33
211.535	116.39
211.753	11.95
211.972	108.2
212.191	-8.53
212.409	34.47
212.628	110.25
212.846	42.67
213.065	22.19
213.283	83.63
213.502	26.28
213.72	1.71
213.938	1.71
214.157	-4.44
214.375	46.76
214.594	-10.58
214.812	100.01
215.031	-84.31
215.249	28.33
215.467	116.39
215.686	18.09
215.904	143.02
216.122	18.09
216.341	44.71
216.559	110.25
216.778	50.86
216.996	69.29
217.214	46.76
217.432	-72.02
217.651	5.8
217.869	22.19
218.087	77.48
218.306	110.25
218.524	100.01
218.742	-10.58
218.96	93.87
219.179	-4.44
219.397	42.67
219.615	134.82
219.833	-2.39
220.051	-31.06
220.27	97.96
220.488	87.72
220.706	-31.06
220.924	77.48
221.142	9.9
221.36	38.57
221.578	42.67
221.796	100.01
222.015	3.75
222.233	18.09
222.451	85.67
222.669	-12.63
222.887	38.57
223.105	22.19
223.323	-31.06
223.541	7.85
223.759	-8.53
223.977	32.43
224.195	91.82
224.413	130.73
224.631	9.9
224.849	36.52
225.067	91.82
225.285	-94.55
225.503	7.85
225.721	1.71
225.939	18.09
226.157	116.39
226.375	151.21
226.592	-4.44
226.81	40.62
227.028	77.48
227.246	34.47
227.464	32.43
227.682	104.11
227.9	93.87
228.117	13.99
228.335	24.23
228.553	30.38
228.771	1.71
228.989	-33.11
229.206	112.3
229.424	-18.77
229.642	22.19
229.86	-29.01
230.077	91.82
230.295	42.67
230.513	102.06
230.731	34.47
230.948	-2.39
231.166	95.91
231.384	36.52
231.601	-76.12
231.819	-0.34
232.037	-14.68
232.254	30.38
232.472	18.09
232.689	34.47
232.907	7.85
233.125	-43.35
233.342	3.75
233.56	-31.06
233.777	50.86
233.995	-61.78
234.213	42.67
234.43	-53.59
234.648	57
234.865	36.52
235.083	34.47
235.3	3.75
235.518	26.28
235.735	46.76
235.953	42.67
236.17	-18.77
236.388	18.09
236.605	9.9
236.822	100.01
237.04	3.75
237.257	1.71
237.475	-14.68
237.692	104.11
237.909	93.87
238.127	34.47
238.344	54.95
238.562	38.57
238.779	-6.49
238.996	-10.58
239.214	-69.97
239.431	28.33
239.648	104.11
239.865	22.19
240.083	20.14
240.3	30.38
240.517	75.43
240.735	93.87
240.952	40.62
241.169	42.67
241.386	26.28
241.603	24.23
241.821	9.9
242.038	57
242.255	44.71
242.472	-22.87
242.689	59.05
242.907	3.75
243.124	9.9
243.341	-4.44
243.558	-22.87
243.775	30.38
243.992	24.23
244.209	83.63
244.426	122.54
244.643	-6.49
244.86	-33.11
245.078	42.67
245.295	5.8
245.512	36.52
245.729	67.24
245.946	1.71
246.163	40.62
246.38	18.09
246.597	-26.96
246.814	44.71
247.031	-10.58
247.248	30.38
247.464	-39.25
247.681	34.47
247.898	134.82
248.115	20.14
248.332	-51.54
248.549	34.47
248.766	42.67
248.983	153.26
249.2	32.43
249.417	108.2
249.633	61.1
249.85	30.38
250.067	34.47
250.284	93.87
250.501	-2.39
250.717	57
250.934	-4.44
251.151	75.43
251.368	18.09
251.585	5.8
251.801	13.99
252.018	-84.31
252.235	20.14
252.451	3.75
252.668	18.09
252.885	61.1
253.102	95.91
253.318	28.33
253.535	-26.96
253.752	18.09
253.968	28.33
254.185	22.19
254.401	52.91
254.618	97.96
254.835	32.43
255.051	61.1
255.268	20.14
255.484	48.81
255.701	18.09
255.917	140.97
256.134	-4.44
256.351	36.52
256.567	24.23
256.784	63.15
257	-108.88
257.217	85.67
257.433	28.33
257.65	100.01
257.866	79.53
258.082	59.05
258.299	61.1
258.515	108.2
258.732	108.2
258.948	-18.77
259.165	102.06
259.381	26.28
259.597	59.05
259.814	9.9
260.03	1.71
260.246	95.91
260.463	83.63
260.679	-4.44
260.895	48.81
261.112	-6.49
261.328	46.76
261.544	9.9
261.761	124.58
261.977	16.04
262.193	1.71
262.409	11.95
262.626	83.63
262.842	20.14
263.058	-31.06
263.274	63.15
263.49	-2.39
263.707	95.91
263.923	59.05
264.139	20.14
264.355	-10.58
264.571	116.39
264.787	18.09
265.004	54.95
265.22	28.33
265.436	-39.25
265.652	1.71
265.868	118.44
266.084	11.95
266.3	18.09
266.516	-20.82
266.732	50.86
266.948	16.04
267.164	71.34
267.38	75.43
267.596	9.9
267.812	116.39
268.028	26.28
268.244	42.67
268.46	11.95
268.676	36.52
268.892	61.1
269.108	77.48
269.324	69.29
269.54	18.09
269.756	85.67
269.972	36.52
270.188	95.91
270.403	20.14
270.619	44.71
270.835	-20.82
271.051	38.57
271.267	26.28
271.483	104.11
271.698	36.52
271.914	-14.68
272.13	83.63
272.346	13.99
272.562	30.38
272.777	59.05
272.993	59.05
273.209	44.71
273.425	13.99
273.64	34.47
273.856	93.87
274.072	-22.87
274.287	20.14
274.503	59.05
274.719	83.63
274.934	102.06
275.15	-47.44
275.366	3.75
275.581	11.95
275.797	75.43
276.012	30.38
276.228	63.15
276.444	83.63
276.659	28.33
276.875	61.1
277.09	-14.68
277.306	9.9
277.521	110.25
277.737	50.86
277.952	59.05
278.168	77.48
278.383	46.76
278.599	24.23
278.814	100.01
279.03	95.91
279.245	102.06
279.461	-12.63
279.676	42.67
279.892	-18.77
280.107	63.15
280.322	-14.68
280.538	1.71
280.753	71.34
280.969	50.86
281.184	28.33
281.399	102.06
281.615	67.24
281.83	63.15
282.045	67.24
282.26	54.95
282.476	24.23
282.691	48.81
282.906	85.67
283.122	13.99
283.337	13.99
283.552	20.14
283.767	50.86
283.983	32.43
284.198	63.15
284.413	34.47
284.628	-43.35
284.843	54.95
285.058	42.67
285.274	5.8
285.489	59.05
285.704	63.15
285.919	52.91
286.134	44.71
286.349	11.95
286.564	11.95
286.779	20.14
286.995	-20.82
287.21	18.09
287.425	67.24
287.64	112.3
287.855	110.25
288.07	-59.73
288.285	46.76
288.5	26.28
288.715	36.52
288.93	20.14
289.145	-39.25
289.36	110.25
289.575	18.09
289.79	36.52
290.004	-14.68
290.219	32.43
290.434	57
290.649	-59.73
290.864	79.53
291.079	24.23
291.294	61.1
291.509	-4.44
291.724	26.28
291.938	5.8
292.153	83.63
292.368	-4.44
292.583	71.34
292.798	91.82
293.012	50.86
293.227	13.99
293.442	46.76
293.657	18.09
293.871	110.25
294.086	38.57
294.301	67.24
294.516	79.53
294.73	61.1
294.945	-10.58
295.16	11.95
295.374	38.57
295.589	61.1
295.804	50.86
296.018	42.67
296.233	87.72
296.447	-63.83
296.662	18.09
296.877	42.67
297.091	22.19
297.306	34.47
297.52	32.43
297.735	26.28
297.949	-10.58
298.164	20.14
298.378	-12.63
298.593	-35.16
298.807	-35.16
299.022	-47.44
299.236	71.34
299.451	28.33
299.665	18.09
299.88	63.15
300.094	48.81
300.309	5.8
300.523	-2.39
300.737	-10.58
300.952	52.91
301.166	50.86
301.381	83.63
301.595	67.24
301.809	108.2
302.024	26.28
302.238	22.19
302.452	-0.34
302.667	28.33
302.881	38.57
303.095	91.82
303.309	100.01
303.524	100.01
303.738	20.14
303.952	30.38
304.166	61.1
304.381	-10.58
304.595	-6.49
304.809	59.05
305.023	75.43
305.237	9.9
305.452	95.91
305.666	44.71
305.88	50.86
306.094	7.85
306.308	34.47
306.522	69.29
306.736	-10.58
306.95	36.52
307.164	63.15
307.379	34.47
307.593	77.48
307.807	116.39
308.021	102.06
308.235	100.01
308.449	-12.63
308.663	42.67
308.877	116.39
309.091	40.62
309.305	67.24
309.519	34.47
309.733	126.63
309.947	59.05
310.161	38.57
310.374	100.01
310.588	38.57
310.802	-69.97
311.016	5.8
311.23	83.63
311.444	5.8
311.658	18.09
311.872	108.2
312.085	38.57
312.299	48.81
312.513	126.63
312.727	52.91
312.941	18.09
313.154	89.77
313.368	36.52
313.582	22.19
313.796	11.95
314.009	20.14
314.223	61.1
314.437	71.34
314.651	26.28
314.864	50.86
315.078	50.86
315.292	85.67
315.505	34.47
315.719	42.67
315.933	93.87
316.146	5.8
316.36	5.8
316.573	63.15
316.787	71.34
317.001	100.01
317.214	20.14
317.428	61.1
317.641	-26.96
317.855	106.15
318.068	79.53
318.282	9.9
318.495	120.49
318.709	165.54
318.922	3.75
319.136	108.2
319.349	95.91
319.563	100.01
319.776	104.11
319.99	-31.06
320.203	26.28
320.417	26.28
320.63	26.28
320.843	83.63
321.057	69.29
321.27	9.9
321.483	67.24
321.697	50.86
321.91	67.24
322.124	75.43
322.337	83.63
322.55	44.71
322.763	140.97
322.977	38.57
323.19	69.29
323.403	65.19
323.617	1.71
323.83	83.63
324.043	26.28
324.256	-12.63
324.469	-10.58
324.683	34.47
324.896	132.78
325.109	22.19
325.322	83.63
325.535	9.9
325.748	110.25
325.962	61.1
326.175	32.43
326.388	100.01
326.601	116.39
326.814	44.71
327.027	93.87
327.24	75.43
327.453	-55.64
327.666	85.67
327.879	69.29
328.092	108.2
328.305	18.09
328.518	59.05
328.731	1.71
328.944	91.82
329.157	83.63
329.37	26.28
329.583	85.67
329.796	89.77
330.009	28.33
330.222	-31.06
330.435	34.47
330.648	-4.44
330.861	34.47
331.073	36.52
331.286	44.71
331.499	132.78
331.712	42.67
331.925	87.72
332.138	38.57
332.35	106.15
332.563	13.99
332.776	85.67
332.989	-26.96
333.202	44.71
333.414	63.15
333.627	54.95
333.84	-31.06
334.053	40.62
334.265	28.33
334.478	18.09
334.691	22.19
334.903	18.09
335.116	44.71
335.329	46.76
335.541	-10.58
335.754	52.91
335.966	38.57
336.179	48.81
336.392	9.9
336.604	132.78
336.817	100.01
337.029	44.71
337.242	65.19
337.454	136.87
337.667	28.33
337.88	18.09
338.092	5.8
338.305	1.71
338.517	-14.68
338.729	143.02
338.942	100.01
339.154	67.24
339.367	22.19
339.579	26.28
339.792	18.09
340.004	59.05
340.217	81.58
340.429	85.67
340.641	1.71
340.854	26.28
341.066	100.01
341.278	79.53
341.491	138.92
341.703	42.67
341.915	22.19
342.128	1.71
342.34	30.38
342.552	32.43
342.764	9.9
342.977	87.72
343.189	54.95
343.401	67.24
343.613	26.28
343.826	54.95
344.038	18.09
344.25	40.62
344.462	-29.01
344.674	102.06
344.886	-24.92
345.099	61.1
345.311	5.8
345.523	28.33
345.735	59.05
345.947	59.05
346.159	59.05
346.371	91.82
346.583	-22.87
346.795	93.87
347.007	61.1
347.219	91.82
347.431	59.05
347.643	89.77
347.855	59.05
348.067	140.97
348.279	34.47
348.491	18.09
348.703	87.72
348.915	97.96
349.127	11.95
349.339	93.87
349.551	-35.16
349.763	83.63
349.975	26.28
350.187	102.06
350.399	108.2
350.61	165.54
350.822	71.34
351.034	91.82
351.246	81.58
351.458	46.76
351.669	79.53
351.881	61.1
352.093	151.21
352.305	108.2
352.517	91.82
352.728	108.2
352.94	61.1
353.152	13.99
353.363	-63.83
353.575	75.43
353.787	106.15
353.999	44.71
354.21	132.78
354.422	57
354.633	126.63
354.845	46.76
355.057	102.06
355.268	34.47
355.48	112.3
355.692	46.76
355.903	32.43
356.115	57
356.326	1.71
356.538	69.29
356.749	83.63
356.961	95.91
357.172	20.14
357.384	77.48
357.595	173.74
357.807	22.19
358.018	69.29
358.23	83.63
358.441	140.97
358.653	34.47
358.864	-2.39
359.075	9.9
359.287	67.24
359.498	63.15
359.709	40.62
359.921	3.75
360.132	89.77
360.344	61.1
360.555	87.72
360.766	67.24
360.977	-4.44
361.189	108.2
361.4	73.39
361.611	93.87
361.823	83.63
362.034	108.2
362.245	67.24
362.456	-4.44
362.667	-10.58
362.879	87.72
363.09	50.86
363.301	83.63
363.512	59.05
363.723	50.86
363.935	13.99
364.146	52.91
364.357	36.52
364.568	91.82
364.779	-31.06
364.99	153.26
365.201	24.23
365.412	149.16
365.623	34.47
365.834	102.06
366.045	26.28
366.256	75.43
366.467	46.76
366.678	50.86
366.889	52.91
367.1	50.86
367.311	69.29
367.522	75.43
367.733	26.28
367.944	79.53
368.155	-6.49
368.366	59.05
368.577	97.96
368.788	157.35
368.999	67.24
369.209	104.11
369.42	116.39
369.631	104.11
369.842	75.43
370.053	77.48
370.264	108.2
370.474	-4.44
370.685	112.3
370.896	81.58
371.107	59.05
371.317	108.2
371.528	9.9
371.739	132.78
371.95	22.19
372.16	38.57
372.371	34.47
372.582	13.99
372.792	100.01
373.003	-10.58
373.214	52.91
373.424	110.25
373.635	-2.39
373.846	44.71
374.056	61.1
374.267	104.11
374.477	9.9
374.688	-14.68
374.898	-18.77
375.109	57
375.319	104.11
375.53	132.78
375.74	77.48
375.951	143.02
376.161	93.87
376.372	130.73
376.582	75.43
376.793	75.43
377.003	59.05
377.214	34.47
377.424	112.3
377.635	50.86
377.845	100.01
378.055	83.63
378.266	1.71
378.476	104.11
378.686	102.06
378.897	13.99
379.107	108.2
379.317	93.87
379.528	67.24
379.738	22.19
379.948	44.71
380.158	151.21
380.369	67.24
380.579	30.38
380.789	71.34
380.999	75.43
381.21	104.11
381.42	149.16
381.63	91.82
381.84	157.35
382.05	83.63
382.261	110.25
382.471	67.24
382.681	102.06
382.891	97.96
383.101	83.63
383.311	36.52
383.521	30.38
383.731	106.15
383.941	81.58
384.151	54.95
384.361	120.49
384.571	52.91
384.781	75.43
384.991	108.2
385.201	124.58
385.411	83.63
385.621	112.3
385.831	63.15
386.041	77.48
386.251	50.86
386.461	71.34
386.671	95.91
386.881	190.12
387.091	44.71
387.301	20.14
387.511	63.15
387.72	52.91
387.93	87.72
388.14	44.71
388.35	50.86
388.56	100.01
388.769	71.34
388.979	85.67
389.189	102.06
389.399	128.68
389.609	67.24
389.818	91.82
390.028	110.25
390.238	50.86
390.447	124.58
390.657	61.1
390.867	116.39
391.076	-2.39
391.286	108.2
391.496	110.25
391.705	75.43
391.915	108.2
392.125	136.87
392.334	20.14
392.544	100.01
392.753	95.91
392.963	91.82
393.172	75.43
393.382	5.8
393.591	104.11
393.801	81.58
394.01	173.74
394.22	114.34
394.429	149.16
394.639	59.05
394.848	93.87
395.058	153.26
395.267	116.39
395.477	100.01
395.686	145.06
395.895	159.4
396.105	183.98
396.314	165.54
396.524	149.16
396.733	194.22
396.942	108.2
397.152	75.43
397.361	165.54
397.57	93.87
397.78	159.4
397.989	165.54
398.198	181.93
398.407	75.43
398.617	46.76
398.826	128.68
399.035	161.45
399.244	124.58
399.453	116.39
399.663	226.98
399.872	218.79
400.081	132.78
400.29	196.26
400.499	147.11
400.708	157.35
400.917	190.12
401.127	100.01
401.336	181.93
401.545	263.85
401.754	243.37
401.963	110.25
402.172	188.07
402.381	108.2
402.59	200.36
402.799	145.06
403.008	284.33
403.217	198.31
403.426	272.04
403.635	224.94
403.844	284.33
404.053	224.94
404.262	210.6
404.471	259.75
404.68	200.36
404.888	251.56
405.097	222.89
405.306	204.46
405.515	220.84
405.724	288.42
405.933	274.09
406.142	194.22
406.35	306.85
406.559	259.75
406.768	278.18
406.977	366.25
407.185	288.42
407.394	329.38
407.603	290.47
407.812	353.96
408.02	415.4
408.229	356.01
408.438	386.72
408.646	323.24
408.855	317.09
409.064	315.05
409.272	386.72
409.481	462.5
409.69	380.58
409.898	493.22
410.107	501.41
410.315	554.66
410.524	464.55
410.733	519.84
410.941	487.08
411.15	568.99
411.358	589.47
411.567	706.21
411.775	575.14
411.984	568.99
412.192	681.63
412.401	695.97
412.609	743.07
412.818	784.03
413.026	722.59
413.234	882.33
413.443	876.19
413.651	894.62
413.86	892.57
414.068	1037.98
414.276	978.59
414.485	994.97
414.693	1056.41
414.901	1164.95
415.11	1070.75
415.318	1085.08
415.526	1150.62
415.734	1275.54
415.943	1314.45
416.151	1336.98
416.359	1246.87
416.567	1410.71
416.776	1449.62
416.984	1552.02
417.192	1779.34
417.4	1533.59
417.608	1681.04
417.817	1545.88
418.025	1816.21
418.233	1861.26
418.441	1885.84
418.649	1891.98
418.857	1973.9
419.065	2111.11
419.273	2141.83
419.481	2279.05
419.689	2365.06
419.897	2412.17
420.105	2328.2
420.313	2494.08
420.521	2541.19
420.729	2776.7
420.937	2770.56
421.145	2827.9
421.353	2977.41
421.561	3155.58
421.769	3157.63
421.977	3272.31
422.185	3251.83
422.393	3466.87
422.601	3755.63
422.809	3526.26
423.017	3663.47
423.224	3966.57
423.432	4056.68
423.64	4064.88
423.848	4374.12
424.056	4220.52
424.263	4732.51
424.471	4746.85
424.679	4730.47
424.887	4943.46
425.094	5064.29
425.302	5019.23
425.51	5305.95
425.718	5465.69
425.925	5525.08
426.133	5727.83
426.341	6137.42
426.548	6334.03
426.756	6303.31
426.964	6547.01
427.171	6891.07
427.379	6964.8
427.586	7093.82
427.794	7235.13
428.001	7685.69
428.209	7972.4
428.417	7820.85
428.624	8468.01
428.832	8457.77
429.039	8345.13
429.247	8439.34
429.454	9113.12
429.662	9793.05
429.869	9211.42
430.076	9889.3
430.284	9338.4
430.491	9956.88
430.699	10470.92
430.906	10857.99
431.114	10677.77
431.321	11032.07
431.528	11281.92
431.736	11957.75
431.943	12543.47
432.15	12152.31
432.358	12158.45
432.565	12891.62
432.772	12879.33
432.979	13508.06
433.187	13739.48
433.394	13942.23
433.601	15001.03
433.808	14861.77
434.016	14788.04
434.223	15472.06
434.43	16281.01
434.637	16211.38
434.844	17118.63
435.052	17102.25
435.259	17223.08
435.466	17450.4
435.673	17526.18
435.88	18032.02
436.087	19326.34
436.294	19008.9
436.501	18666.89
436.708	19023.24
436.915	20065.66
437.122	20766.06
437.329	20467.06
437.537	21501.28
437.743	21396.84
437.95	21353.83
438.157	22619.47
438.364	23420.23
438.571	23496
438.778	23268.68
438.985	25357.61
439.192	24495.41
439.399	25238.83
439.606	24892.72
439.813	26127.64
440.02	27669.76
440.227	27157.77
440.433	27022.61
440.64	28067.07
440.847	27751.68
441.054	28591.35
441.261	30170.33
441.467	30010.59
441.674	30551.26
441.881	31745.22
442.088	31218.89
442.294	31036.63
442.501	31851.72
442.708	32517.31
442.914	33512.62
443.121	35042.45
443.328	34368.67
443.534	36625.53
443.741	35787.91
443.948	35175.57
444.154	37784.68
444.361	37397.62
444.568	37502.06
444.774	37559.41
444.981	37815.4
445.187	39197.78
445.394	40827.96
445.6	40291.4
445.807	43836.43
446.013	42003.5
446.22	42951.71
446.426	44512.26
446.633	44758.02
446.839	46293.99
447.046	44385.29
447.252	46808.03
447.459	46814.18
447.665	46810.08
447.871	48696.26
448.078	50369.45
448.284	48182.22
448.491	49718.2
448.697	51067.81
448.903	51755.92
449.11	52401.04
449.316	51628.95
449.522	52450.19
449.728	53392.25
449.935	53926.77
450.141	54252.4
450.347	55432.03
450.553	53459.83
450.76	54115.18
450.966	55786.33
451.172	55384.93
451.378	56724.3
451.584	55401.31
451.791	56554.32
451.997	56539.98
452.203	57697.08
452.409	57269.06
452.615	56925
452.821	55149.41
453.027	54618.99
453.233	57633.6
453.44	55161.7
453.646	55427.93
453.852	55577.43
454.058	56802.12
454.264	55024.48
454.47	56132.43
454.676	54942.56
454.882	56390.48
455.088	52054.93
455.294	52530.06
455.5	53365.63
455.705	53427.07
455.911	51524.5
456.117	50951.07
456.323	50430.89
456.529	47616.98
456.735	49908.66
456.941	48133.07
457.147	47829.97
457.352	46461.93
457.558	45943.79
457.764	46242.79
457.97	45448.18
458.176	44108.81
458.381	44295.17
458.587	42081.32
458.793	41962.54
458.999	39588.94
459.204	42884.12
459.41	41720.88
459.616	38814.81
459.821	39144.53
460.027	38675.55
460.233	37907.56
460.438	36250.75
460.644	36525.18
460.85	34808.98
461.055	34108.58
461.261	34264.22
461.466	31751.37
461.672	30690.52
461.878	32687.29
462.083	30624.98
462.289	29951.2
462.494	29887.71
462.7	28742.9
462.905	28067.07
463.111	28742.9
463.316	29132.01
463.522	28388.6
463.727	28501.24
463.932	28316.92
464.138	27862.27
464.343	28273.92
464.549	27331.85
464.754	28232.96
464.959	28013.82
465.165	27809.03
465.37	26447.13
465.575	25949.47
465.781	27104.53
465.986	27211.02
466.191	26541.33
466.397	25799.97
466.602	24243.51
466.807	25230.63
467.012	25562.4
467.218	25294.12
467.423	24898.86
467.628	25236.78
467.833	26006.81
468.038	24853.81
468.244	24466.74
468.449	25431.33
468.654	24446.26
468.859	24003.9
469.064	24249.66
469.269	23240.01
469.474	23573.83
469.679	23635.27
469.885	23266.63
470.09	23905.6
470.295	23127.37
470.5	22938.96
470.705	22871.37
470.91	22416.72
471.115	22443.35
471.32	22517.08
471.525	22410.58
471.73	22097.24
471.935	21929.31
472.139	21167.46
472.344	21362.02
472.549	21056.87
472.754	21005.67
472.959	20596.08
473.164	20249.97
473.369	19668.35
473.574	20852.08
473.778	20385.14
473.983	20182.39
474.188	20272.5
474.393	19250.56
474.598	19260.8
474.802	19080.58
475.007	18875.79
475.212	18879.88
475.417	18197.91
475.621	18156.95
475.826	18154.9
476.031	17948.06
476.235	17722.78
476.44	18130.33
476.645	17466.78
476.849	17821.08
477.054	17227.17
477.259	17206.69
477.463	17042.85
477.668	16752.04
477.872	16709.04
478.077	16813.48
478.282	16143.8
478.486	16379.31
478.691	15992.25
478.895	15967.67
479.1	16037.3
479.304	16123.32
479.509	15687.1
479.713	15592.89
479.918	15494.59
480.122	15080.9
480.326	15418.82
480.531	15513.02
480.735	15130.05
480.94	15162.82
481.144	15746.49
481.348	15011.27
481.553	15078.85
481.757	14785.99
481.961	14990.79
482.166	15025.61
482.37	14982.6
482.574	14605.77
482.778	14874.06
482.983	15076.8
483.187	14925.25
483.391	14845.38
483.595	14732.75
483.8	14456.27
484.004	14634.44
484.208	15080.9
484.412	14910.92
484.616	14902.73
484.821	14886.34
485.025	14763.47
485.229	14767.56
485.433	14820.81
485.637	14716.36
485.841	14525.9
486.045	14706.12
486.249	14738.89
486.453	14826.95
486.657	14644.68
486.861	14951.88
487.065	14747.08
487.269	14841.29
487.473	14699.98
487.677	14675.4
487.881	15021.51
488.085	14958.02
488.289	14775.75
488.493	14609.87
488.697	14751.18
488.901	14728.65
489.105	14636.49
489.309	15003.08
489.512	14710.22
489.716	14816.71
489.92	15066.56
490.124	14714.31
490.328	15224.26
490.531	14714.31
490.735	15076.8
490.939	15330.75
491.143	14878.15
491.346	14992.84
491.55	15265.22
491.754	15427.01
491.958	15246.79
492.161	15222.21
492.365	15461.82
492.569	15306.18
492.772	15560.13
492.976	15543.74
493.18	15697.34
493.383	15891.9
493.587	16149.94
493.79	16108.98
493.994	15914.42
494.197	16205.24
494.401	16190.9
494.605	16244.15
494.808	16430.51
495.012	16434.61
495.215	16717.23
495.419	16823.72
495.622	16369.07
495.825	16721.32
496.029	17049
496.232	17227.17
496.436	17405.35
496.639	17730.97
496.843	17436.06
497.046	17765.79
497.249	18077.08
497.453	18255.25
497.656	18376.08
497.859	18449.81
498.063	18730.38
498.266	18982.28
498.469	19047.82
498.673	18978.19
498.876	19338.63
499.079	19588.48
499.282	19584.38
499.485	20024.7
499.689	19973.5
499.892	20391.28
500.095	20260.21
500.298	20802.93
500.501	20663.66
500.705	21237.09
500.908	21413.22
501.111	21701.98
501.314	21871.96
501.517	21726.56
501.72	22216.02
501.923	22136.15
502.126	22721.87
502.329	22988.11
502.532	23115.08
502.735	23369.03
502.938	23577.92
503.141	23805.25
503.344	24040.76
503.547	24020.28
503.75	24421.69
503.953	24937.77
504.156	25134.38
504.359	25222.44
504.562	25167.15
504.765	26086.68
504.968	26166.56
505.17	26363.16
505.373	26701.08
505.576	26944.78
505.779	27141.39
505.982	27403.53
506.185	28034.3
506.387	27886.85
506.59	27976.96
506.793	28703.99
506.996	28749.04
507.198	29666.53
507.401	29029.62
507.604	29596.9
507.807	30196.96
508.009	30696.66
508.212	30526.68
508.415	31065.3
508.617	31190.22
508.82	31323.34
509.022	31229.13
509.225	32208.06
509.428	32175.3
509.63	32664.76
509.833	32740.54
510.035	33420.46
510.238	32904.37
510.44	33938.6
510.643	34147.49
510.845	34096.29
511.048	34174.11
511.25	34679.96
511.453	34913.43
511.655	36250.75
511.858	35693.71
512.06	35992.71
512.262	36813.94
512.465	36424.83
512.667	37194.87
512.87	37366.9
513.072	37385.33
513.274	37870.7
513.477	38460.51
513.679	38798.43
513.881	39001.18
514.084	39255.12
514.286	39644.24
514.488	39707.72
514.69	40903.74
514.893	40834.11
515.095	40909.88
515.297	41073.72
515.499	41169.97
515.701	41522.23
515.904	42400.8
516.106	42507.3
516.308	43140.12
516.51	43457.56
516.712	43533.33
516.914	43875.34
517.116	44256.26
517.318	44411.91
517.52	44921.85
517.722	44710.91
517.925	45915.12
518.127	45765.62
518.329	45863.92
518.531	45798.38
518.733	46930.91
518.935	47160.28
519.136	46926.81
519.338	47987.66
519.54	47657.94
519.742	48350.15
519.944	48237.51
520.146	48810.95
520.348	48692.16
520.55	49220.54
520.752	49533.88
520.954	49945.52
521.155	49540.02
521.357	51108.77
521.559	51049.38
521.761	50852.77
521.963	51155.87
522.164	51264.41
522.366	50729.89
522.568	51581.85
522.77	52216.72
522.971	52560.78
523.173	52042.64
523.375	52407.18
523.576	52851.59
523.778	52771.72
523.98	53496.7
524.181	53171.07
524.383	53451.64
524.584	54244.21
524.786	53967.73
524.988	53713.78
525.189	54399.85
525.391	54395.76
525.592	54909.8
525.794	55216.99
525.995	54950.76
526.197	55096.16
526.398	54915.94
526.6	55710.55
526.801	55565.15
527.003	55563.1
527.204	55450.46
527.406	55823.19
527.607	56013.65
527.808	55917.4
528.01	55544.67
528.211	55645.02
528.412	56808.26
528.614	56562.51
528.815	56116.05
529.016	56802.12
529.218	56224.59
529.419	56169.3
529.62	56326.99
529.822	56261.46
530.023	56621.9
530.224	56355.66
530.425	56509.26
530.626	56073.04
530.828	56027.99
531.029	57283.39
531.23	56163.15
531.431	56621.9
531.632	56619.85
531.833	56683.34
532.035	56292.18
532.236	56310.61
532.437	56718.15
532.638	56441.68
532.839	56210.26
533.04	56611.66
533.241	55913.3
533.442	56898.37
533.643	56472.4
533.844	56601.42
534.045	56458.06
534.246	56097.62
534.447	56707.91
534.648	56253.26
534.849	56331.09
535.05	56079.19
535.251	56351.57
535.451	56437.58
535.652	56218.45
535.853	56118.1
536.054	56308.56
536.255	56390.48
536.456	55638.87
536.657	56482.64
536.857	56464.21
537.058	56240.98
537.259	56466.25
537.46	56077.14
537.66	55698.26
537.861	55802.71
538.062	55458.65
538.263	56167.25
538.463	55931.73
538.664	55778.14
538.865	56023.89
539.065	56056.66
539.266	55898.97
539.466	56146.77
539.667	55688.02
539.868	56124.24
540.068	56025.94
540.269	55167.84
540.469	56240.98
540.67	55585.63
540.87	55538.52
541.071	55454.56
541.271	55825.24
541.472	55745.37
541.672	55483.23
541.873	55290.72
542.073	54827.88
542.274	55858.01
542.474	55057.25
542.675	55591.77
542.875	55743.32
543.075	55548.76
543.276	54741.86
543.476	55868.25
543.676	55094.11
543.877	55311.2
544.077	55452.51
544.277	55116.64
544.478	55419.74
544.678	55151.46
544.878	55528.28
545.078	55294.81
545.279	55087.97
545.479	54592.36
545.679	54967.14
545.879	54934.37
546.079	55130.98
546.28	55313.25
546.48	55020.39
546.68	55231.33
546.88	55339.87
547.08	55245.66
547.28	55212.9
547.48	54917.99
547.68	55092.07
547.88	54661.99
548.081	55104.35
548.281	54748.01
548.481	54727.53
548.681	54991.72
548.881	55128.93
549.081	54612.84
549.28	55356.25
549.48	55370.59
549.68	55026.53
549.88	55130.98
550.08	54917.99
550.28	55192.42
550.48	55176.03
550.68	55098.21
550.88	54537.07
551.08	54772.58
551.279	55135.07
551.479	54981.48
551.679	55163.74
551.879	54993.76
552.079	55475.04
552.278	55016.29
552.478	55556.95
552.678	55202.66
552.878	55561.05
553.077	55040.87
553.277	54766.44
553.477	55583.58
553.676	55065.44
553.876	55104.35
554.076	54926.18
554.275	55057.25
554.475	54483.82
554.674	54846.31
554.874	54950.76
555.074	54831.97
555.273	55040.87
555.473	55696.22
555.672	54709.1
555.872	55305.05
556.071	54846.31
556.271	55391.07
556.47	54588.27
556.67	54770.53
556.869	54950.76
557.068	55466.84
557.268	54698.86
557.467	55008.1
557.667	54940.52
557.866	54725.48
558.065	54709.1
558.265	54797.16
558.464	54575.98
558.663	55221.09
558.863	54449
559.062	55448.41
559.261	54569.83
559.461	55440.22
559.66	54561.64
559.859	55014.24
560.058	54537.07
560.258	54872.93
560.457	54455.15
560.656	55114.59
560.855	54614.89
561.054	54889.32
561.253	54612.84
561.453	54887.27
561.652	54940.52
561.851	55151.46
562.05	54711.14
562.249	54115.18
562.448	54705
562.647	54610.79
562.846	54440.81
563.045	54598.51
563.244	54094.71
563.443	54647.66
563.642	54158.19
563.841	54238.06
564.04	54344.56
564.239	54893.41
564.438	54147.95
564.637	54606.7
564.836	54426.48
565.035	54020.98
565.234	53834.61
565.432	53695.35
565.631	53738.36
565.83	54225.78
566.029	53877.62
566.228	53859.19
566.427	53386.11
566.625	53435.26
566.824	53148.54
567.023	53836.66
567.222	53099.39
567.42	53459.83
567.619	53758.84
567.818	53558.14
568.016	53386.11
568.215	53283.71
568.414	53201.79
568.612	53349.24
568.811	53203.84
569.01	53029.76
569.208	52099.98
569.407	52788.1
569.605	52353.93
569.804	53142.4
570.002	52286.35
570.201	52726.66
570.4	52016.02
570.598	52525.96
570.797	51831.7
570.995	52403.08
571.193	51639.19
571.392	52454.28
571.59	51919.76
571.789	51768.21
571.987	51764.12
572.186	51688.34
572.384	51338.14
572.582	51712.92
572.781	51942.29
572.979	51078.05
573.177	51354.52
573.376	51792.79
573.574	50885.54
573.772	51465.11
573.971	50701.22
574.169	50477.99
574.367	50516.9
574.565	50979.74
574.763	50490.28
574.962	50377.64
575.16	49922.99
575.358	50148.27
575.556	49650.61
575.754	50242.48
575.952	49451.96
576.151	50242.48
576.349	49820.59
576.547	49822.64
576.745	49550.26
576.943	50088.88
577.141	49427.38
577.339	49623.99
577.537	49437.62
577.735	49548.21
577.933	48536.52
578.131	49263.55
578.329	48585.67
578.527	48358.34
578.725	48208.84
578.923	48602.05
579.121	48253.9
579.319	48466.89
579.516	48536.52
579.714	48372.68
579.912	48040.91
580.11	48157.64
580.308	47920.08
580.506	47778.77
580.704	47217.63
580.901	47526.87
581.099	48038.86
581.297	47461.33
581.495	47090.65
581.692	47463.38
581.89	46889.95
582.088	47434.71
582.285	46701.54
582.483	47252.44
582.681	47014.88
582.878	46648.29
583.076	46472.17
583.274	46726.11
583.471	45792.24
583.669	46021.61
583.866	46027.76
584.064	46316.52
584.262	45718.51
584.459	45954.03
584.657	45681.65
584.854	46019.56
585.052	45118.46
585.249	45530.1
585.447	45388.79
585.644	45140.99
585.841	45018.11
586.039	45562.87
586.236	44614.66
586.434	45104.12
586.631	44487.68
586.828	44839.93
587.026	44983.29
587.223	44579.84
587.42	44604.42
587.618	44727.3
587.815	44221.45
588.012	44397.57
588.21	44084.23
588.407	44256.26
588.604	43613.2
588.801	43363.35
588.999	43748.37
589.196	44127.24
589.393	44055.56
589.59	43654.16
589.787	43412.5
589.984	43310.1
590.182	42794.01
590.379	43478.04
590.576	42847.26
590.773	42662.94
590.97	42628.13
591.167	42527.78
591.364	42251.3
591.561	42648.61
591.758	42376.23
591.955	42310.69
592.152	42607.65
592.349	42028.07
592.546	42529.83
592.743	42368.04
592.94	41829.42
593.137	41843.76
593.334	42155.05
593.531	41323.57
593.727	41800.75
593.924	41745.45
594.121	41456.69
594.318	41450.55
594.515	40991.8
594.712	41759.79
594.908	40838.2
595.105	41262.13
595.302	40821.82
595.499	41188.41
595.696	40924.22
595.892	40326.21
596.089	40875.07
596.286	40563.78
596.482	40496.19
596.679	40473.67
596.876	40588.35
597.072	40250.44
597.269	40322.12
597.466	39961.67
597.662	40277.06
597.859	40033.35
598.055	40172.61
598.252	39898.19
598.448	39973.96
598.645	39701.58
598.841	39160.92
599.038	39988.3
599.234	40037.45
599.431	38999.13
599.627	39218.26
599.824	39543.89
600.02	39068.76
600.217	39228.5
600.413	39007.32
600.609	38655.07
600.806	38870.11
601.002	39236.69
601.198	38753.37
601.395	38816.86
601.591	38630.49
601.787	38589.53
601.984	38779.99
602.18	38886.49
602.376	38536.29
602.572	38786.14
602.769	38743.13
602.965	38124.64
603.161	38556.77
603.357	38370.4
603.553	38159.46
603.75	38161.51
603.946	38001.77
604.142	38263.91
604.338	37909.61
604.534	38024.29
604.73	37981.29
604.926	37708.91
605.122	38128.74
605.318	37942.38
605.514	37563.5
605.71	37786.73
605.906	37805.16
606.102	37878.89
606.298	38020.2
606.494	37698.67
606.69	37903.46
606.886	38261.86
607.082	37057.65
607.278	37899.37
607.474	36942.97
607.67	37670
607.866	37153.91
608.062	37438.58
608.257	37405.81
608.453	37674.09
608.649	37590.13
608.845	37391.47
609.041	37401.71
609.236	37803.11
609.432	37313.65
609.628	37106.8
609.824	37448.82
610.019	37018.74
610.215	37330.03
610.411	37459.06
610.606	36764.79
610.802	37307.51
610.998	37327.99
611.193	37049.46
611.389	36721.79
611.584	37205.11
611.78	36707.45
611.976	37043.32
612.171	37008.5
612.367	37131.38
612.562	36820.09
612.758	36660.35
612.953	36672.64
613.149	37028.98
613.344	36699.26
613.539	37172.34
613.735	37008.5
613.93	37016.69
614.126	36822.14
614.321	37112.95
614.517	36781.18
614.712	36629.63
614.907	36523.13
615.103	36785.27
615.298	36670.59
615.493	36789.37
615.688	36299.9
615.884	37129.33
616.079	35906.69
616.274	36832.38
616.47	36156.55
616.665	36760.7
616.86	36287.62
617.055	36424.83
617.25	36373.63
617.445	36506.75
617.641	35513.48
617.836	36406.4
618.031	35574.92
618.226	36355.2
618.421	35863.69
618.616	36490.37
618.811	35517.58
619.006	36017.29
619.201	35384.46
619.396	35679.37
619.591	34999.44
619.786	35458.19
619.981	34831.51
620.176	35355.79
620.371	34589.85
620.566	34804.89
620.761	34700.44
620.956	34970.77
621.151	34374.81
621.346	34356.38
621.541	34032.8
621.735	34624.67
621.93	33957.03
622.125	33971.36
622.32	33492.14
622.515	33723.56
622.709	33119.41
622.904	33080.5
623.099	33371.31
623.294	32998.58
623.488	33029.3
623.683	33098.93
623.878	32117.95
624.072	32472.25
624.267	32269.5
624.462	32126.14
624.656	31585.48
624.851	31753.41
625.046	31616.2
625.24	31648.97
625.435	31225.04
625.629	30868.69
625.824	31235.28
626.018	30889.17
626.213	30211.29
626.407	30565.59
626.602	30268.64
626.796	30645.46
626.991	30088.42
627.185	29768.93
627.38	29553.9
627.574	29738.21
627.768	29549.8
627.963	29682.92
628.157	29275.37
628.352	29166.83
628.546	28845.3
628.74	28968.18
628.935	28865.78
629.129	28456.18
629.323	28212.48
629.517	28443.9
629.712	28050.69
629.906	28128.51
630.1	27915.52
630.294	27567.37
630.489	27596.04
630.683	27561.22
630.877	27458.82
631.071	26998.03
631.265	27405.58
631.459	26838.29
631.653	27024.65
631.848	26766.61
632.042	26338.58
632.236	26617.11
632.43	26182.94
632.624	26146.08
632.818	26103.07
633.012	25693.47
633.206	25875.74
633.4	25724.19
633.594	25509.16
633.788	25484.58
633.982	25537.83
634.176	25367.85
634.369	24917.29
634.563	24902.96
634.757	24857.9
634.951	24874.29
635.145	24640.82
635.339	24722.74
635.533	24345.91
635.726	24313.14
635.92	23932.22
636.114	23924.03
636.308	23608.64
636.501	23774.53
636.695	23547.2
636.889	23287.11
637.083	23491.91
637.276	23297.35
637.47	22934.86
637.664	22949.2
637.857	22818.13
638.051	23006.54
638.244	22646.1
638.438	22586.71
638.632	22517.08
638.825	22349.14
639.019	22021.47
639.212	21667.17
639.406	22087
639.599	22007.13
639.793	21712.22
639.986	21390.69
640.18	21677.41
640.373	21394.79
640.567	21075.31
640.76	21335.4
640.954	20821.36
641.147	20964.71
641.34	20458.87
641.534	21054.83
641.727	20335.99
641.92	20440.43
642.114	20358.52
642.307	20444.53
642.5	20086.14
642.694	20028.79
642.887	19803.52
643.08	19996.03
643.273	19656.06
643.467	19529.09
643.66	19297.67
643.853	19424.64
644.046	19316.1
644.239	19352.96
644.432	19049.86
644.626	18988.42
644.819	18998.66
645.012	18779.53
645.205	18550.16
645.398	18623.89
645.591	18371.99
645.784	18699.66
645.977	18255.25
646.17	18265.49
646.363	17892.76
646.556	17794.46
646.749	17989.02
646.942	17872.28
647.135	17724.83
647.328	17391.01
647.521	17431.97
647.714	17171.88
647.907	17477.02
648.099	17225.12
648.292	17323.43
648.485	16958.89
648.678	16897.45
648.871	16919.98
649.064	16606.64
649.256	16668.08
649.449	16580.01
649.642	16606.64
649.835	16057.78
650.027	16246.19
650.22	16233.91
650.413	16274.87
650.605	16004.53
650.798	15939
650.991	15705.53
651.183	15902.14
651.376	15472.06
651.568	15781.31
651.761	15588.8
651.954	15517.12
652.146	15693.24
652.339	15545.79
652.531	15412.67
652.724	15277.51
652.916	14689.74
653.109	14804.42
653.301	15087.04
653.494	15052.23
653.686	14759.37
653.879	14540.24
654.071	14624.2
654.263	14497.23
654.456	14513.61
654.648	14362.06
654.84	14140.88
655.033	14329.3
655.225	14448.08
655.417	14179.79
655.61	14058.96
655.802	14118.36
655.994	13719
656.186	13819.35
656.379	13753.82
656.571	13755.86
656.763	13788.63
656.955	13583.84
657.148	13592.03
657.34	13280.74
657.532	13301.22
657.724	13237.73
657.916	13196.77
658.108	13030.88
658.3	13010.4
658.492	12936.68
658.684	12809.7
658.876	12770.79
659.068	12592.62
659.26	12609
659.452	12547.56
659.644	12518.89
659.836	12283.38
660.028	12705.26
660.22	12135.92
660.412	12350.96
660.604	12307.95
660.796	12211.7
660.988	12172.78
661.18	12193.26
661.372	11828.73
661.563	12148.21
661.755	11625.98
661.947	11806.2
662.139	11707.9
662.331	11603.45
662.522	11359.74
662.714	11525.63
662.906	11519.48
663.097	11224.58
663.289	11365.89
663.481	11449.85
663.673	11200
663.864	11052.55
664.056	11021.83
664.247	11019.78
664.439	10901
664.631	10745.35
664.822	10825.22
665.014	10923.52
665.205	10774.02
665.397	10761.73
665.588	10520.07
665.78	10688.01
665.971	10552.84
666.163	10610.18
666.354	10509.83
666.546	10415.63
666.737	10346
666.929	10294.8
667.12	10251.79
667.311	10100.24
667.503	10227.21
667.694	10094.1
667.885	10012.18
668.077	10133.01
668.268	9717.27
668.459	9995.79
668.651	9948.69
668.842	9614.87
669.033	9754.13
669.224	9694.74
669.416	9711.13
669.607	9506.33
669.798	9391.64
669.989	9604.63
670.18	9305.63
670.371	9612.82
670.563	9293.34
670.754	9403.93
670.945	9307.68
671.136	9348.64
671.327	9381.4
671.518	9231.9
671.709	9025.06
671.9	9279.01
672.091	8969.76
672.282	8783.4
672.473	8881.7
672.664	8914.47
672.855	8869.41
673.046	8965.67
673.237	8939.04
673.428	8629.8
673.619	8787.49
673.809	8685.09
674	8687.14
674.191	8551.98
674.382	8586.79
674.573	8500.78
674.764	8627.75
674.954	8736.29
675.145	8439.34
675.336	8459.82
675.527	8498.73
675.717	8519.21
675.908	8218.16
676.099	8287.79
676.289	8267.31
676.48	8197.68
676.671	8054.32
676.861	8126
677.052	8291.88
677.243	7986.74
677.433	7896.63
677.624	8185.39
677.814	8138.29
678.005	7953.97
678.195	8097.33
678.386	7953.97
678.576	7908.91
678.767	7867.95
678.957	7798.32
679.148	7988.78
679.338	7904.82
679.529	7849.52
679.719	7847.47
679.909	7888.43
680.1	7726.64
680.29	7700.02
680.481	7759.41
680.671	7554.62
680.861	7411.26
681.052	7755.32
681.242	7728.69
681.432	7501.37
681.622	7470.65
681.813	7530.04
682.003	7589.43
682.193	7505.46
682.383	7456.31
682.573	7425.59
682.764	7343.67
682.954	7415.35
683.144	7482.94
683.334	7308.86
683.524	7435.83
683.714	7345.72
683.904	7097.92
684.094	7249.47
684.284	7073.34
684.474	7261.76
684.664	7226.94
684.854	6932.03
685.044	6923.84
685.234	7163.45
685.424	6997.57
685.614	7097.92
685.804	7048.77
685.994	7149.12
686.184	7056.96
686.374	7034.43
686.564	6936.13
686.753	6977.09
686.943	6932.03
687.133	6932.03
687.323	6751.81
687.513	6819.39
687.702	6821.44
687.892	6680.13
688.082	6630.98
688.272	6647.37
688.461	6766.15
688.651	6633.03
688.841	6325.83
689.03	6528.58
689.22	6506.06
689.41	6450.76
689.599	6321.74
689.789	6452.81
689.979	6506.06
690.168	6428.23
690.358	6321.74
690.547	6241.87
690.737	6436.42
690.926	6334.03
691.116	6260.3
691.305	6467.14
691.495	6006.35
691.684	6178.38
691.874	6106.7
692.063	6264.4
692.252	6106.7
692.442	6131.28
692.631	6106.7
692.82	6147.66
693.01	5957.2
693.199	6123.09
693.388	5908.05
693.578	5922.38
693.767	5961.3
693.956	5992.02
694.146	5850.71
694.335	5949.01
694.524	5756.5
694.713	5869.14
694.902	5908.05
695.092	5860.95
695.281	5768.79
695.47	5693.01
695.659	5682.77
695.848	5643.86
696.037	5576.28
696.226	5621.33
696.415	5541.46
696.604	5748.31
696.793	5535.32
696.982	5559.89
697.171	5432.92
697.36	5582.42
697.549	5396.06
697.738	5359.19
697.927	5213.79
698.116	5467.74
698.305	5375.58
698.494	5322.33
698.683	5391.96
698.872	5490.26
699.061	5353.05
699.25	5326.43
699.438	5387.86
699.627	5277.27
699.816	5146.2
700.005	5226.07
700.193	5230.17
700.382	5148.25
700.571	5072.48
700.76	5064.29
700.948	5238.36
701.137	5164.64
701.326	4998.75
701.514	4951.65
701.703	4943.46
701.892	5023.33
702.08	5006.94
702.269	5039.71
702.457	5023.33
702.646	4884.06
702.834	4818.53
703.023	4908.64
703.212	4879.97
703.4	4755.04
703.589	4818.53
703.777	4820.58
703.965	4666.98
704.154	4873.82
704.342	4757.09
704.531	4724.32
704.719	4466.28
704.907	4660.84
705.096	4605.54
705.284	4673.12
705.472	4843.1
705.661	4712.03
705.849	4593.25
706.037	4494.95
706.226	4576.87
706.414	4462.18
706.602	4388.46
706.79	4439.65
706.979	4425.32
707.167	4509.29
707.355	4351.59
707.543	4306.54
707.731	4365.93
707.919	4413.03
708.107	4236.91
708.296	4370.02
708.484	4284.01
708.672	4277.87
708.86	4290.15
709.048	4132.46
709.236	4269.67
709.424	4220.52
709.612	4286.06
709.8	4009.58
709.988	4107.88
710.176	4142.7
710.364	4243.05
710.551	4224.62
710.739	4202.09
710.927	4054.64
711.115	4056.68
711.303	4075.12
711.491	4013.68
711.679	4048.49
711.866	4028.01
712.054	4269.67
712.242	3960.43
712.43	3909.23
712.617	3974.77
712.805	3960.43
712.993	3968.62
713.181	3948.14
713.368	3835.5
713.556	3851.89
713.744	3765.87
713.931	3976.81
714.119	3702.39
714.306	3831.41
714.494	3788.4
714.682	3630.71
714.869	3706.48
715.057	3706.48
715.244	3643
715.432	3837.55
715.619	3665.52
715.807	3710.58
715.994	3638.9
716.182	3790.45
716.369	3593.84
716.556	3640.95
716.744	3499.64
716.931	3522.16
717.119	3616.37
717.306	3556.98
717.493	3417.72
717.681	3499.64
717.868	3460.73
718.055	3581.56
718.242	3475.06
718.43	3645.04
718.617	3485.3
718.804	3376.76
718.991	3380.86
719.179	3497.59
719.366	3348.09
719.553	3337.85
719.74	3354.23
719.927	3372.66
720.114	3319.42
720.301	3290.74
720.488	3155.58
720.676	3221.11
720.863	3264.12
721.05	3237.5
721.237	3231.35
721.424	3356.28
721.611	3303.03
721.798	3040.89
721.985	3141.24
722.172	3182.2
722.358	3133.05
722.545	3200.63
722.732	3016.32
722.919	3135.1
723.106	3040.89
723.293	2963.07
723.48	3057.28
723.667	3024.51
723.853	2991.74
724.04	3098.24
724.227	2930.3
724.414	3032.7
724.6	2973.31
724.787	3044.99
724.974	3016.32
725.161	2940.54
725.347	2801.28
725.534	2993.79
725.72	2903.68
725.907	2885.25
726.094	3001.98
726.28	2832
726.467	2899.58
726.653	2795.14
726.84	2967.17
727.027	2918.01
727.213	2782.85
727.4	2975.36
727.586	2844.29
727.773	2832
727.959	2868.86
728.145	2770.56
728.332	2791.04
728.518	2764.42
728.705	2823.81
728.891	2680.45
729.077	2666.11
729.264	2745.98
729.45	2737.79
729.636	2715.27
729.823	2514.56
730.009	2668.16
730.195	2678.4
730.382	2692.74
730.568	2614.91
730.754	2698.88
730.94	2502.28
731.126	2670.21
731.313	2582.15
731.499	2641.54
731.685	2582.15
731.871	2735.74
732.057	2635.39
732.243	2690.69
732.429	2711.17
732.615	2563.72
732.801	2541.19
732.987	2600.58
733.173	2535.04
733.359	2510.47
733.545	2504.32
733.731	2451.08
733.917	2428.55
734.103	2494.08
734.289	2418.31
734.475	2403.97
734.661	2385.54
734.847	2459.27
735.033	2557.57
735.219	2442.89
735.404	2336.39
735.59	2383.49
735.776	2442.89
735.962	2432.65
736.148	2440.84
736.333	2426.5
736.519	2414.21
736.705	2354.82
736.89	2264.71
737.076	2352.77
737.262	2199.18
737.447	2215.56
737.633	2215.56
737.819	2272.9
738.004	2293.38
738.19	2190.99
738.375	2277
738.561	2293.38
738.747	2346.63
738.932	2135.69
739.118	2320.01
739.303	2272.9
739.489	2256.52
739.674	2135.69
739.859	2076.3
740.045	2197.13
740.23	2240.14
740.416	2160.27
740.601	2076.3
740.786	2240.14
740.972	2135.69
741.157	2217.61
741.342	2000.52
741.528	2057.87
741.713	2098.83
741.898	2027.15
742.084	2082.44
742.269	2125.45
742.454	2141.83
742.639	2102.92
742.824	2143.88
743.01	2123.4
743.195	2174.6
743.38	1984.14
743.565	1971.85
743.75	2010.76
743.935	2035.34
744.12	2061.96
744.305	1877.65
744.49	2045.58
744.675	1885.84
744.86	1998.48
745.045	1832.59
745.23	2027.15
745.415	1971.85
745.6	1853.07
745.785	1853.07
745.97	1824.4
746.155	1873.55
746.34	1824.4
746.525	1787.54
746.71	1828.49
746.895	1830.54
747.079	1742.48
747.264	1793.68
747.449	1808.02
747.634	1891.98
747.819	1791.63
748.003	1599.12
748.188	1666.71
748.373	1742.48
748.557	1715.86
748.742	1732.24
748.927	1635.99
749.111	1650.32
749.296	1566.35
749.481	1734.29
749.665	1558.16
749.85	1607.31
750.034	1689.23
750.219	1592.98
750.404	1519.25
750.588	1558.16
750.773	1576.59
750.957	1545.88
751.141	1521.3
751.326	1486.48
751.51	1517.2
751.695	1476.24
751.879	1521.3
752.064	1558.16
752.248	1402.52
752.432	1455.76
752.617	1509.01
752.801	1498.77
752.985	1529.49
753.17	1410.71
753.354	1365.65
753.538	1347.22
753.722	1451.67
753.907	1369.75
754.091	1304.21
754.275	1445.52
754.459	1349.27
754.643	1298.07
754.828	1437.33
755.012	1384.09
755.196	1328.79
755.38	1347.22
755.564	1289.88
755.748	1226.39
755.932	1332.89
756.116	1357.46
756.3	1291.93
756.484	1359.51
756.668	1255.06
756.852	1169.05
757.036	1314.45
757.22	1156.76
757.404	1238.68
757.588	1250.97
757.772	1246.87
757.956	1191.58
758.14	1199.77
758.323	1181.34
758.507	1205.91
758.691	1173.14
758.875	1275.54
759.059	1230.49
759.242	1074.84
759.426	1144.47
759.61	1091.23
759.794	1009.31
759.977	1171.1
760.161	1164.95
760.345	1134.23
760.528	1128.09
760.712	1003.16
760.895	1044.12
761.079	1087.13
761.263	1005.21
761.446	1044.12
761.63	1042.07
761.813	1074.84
761.997	1068.7
762.18	1017.5
762.364	1046.17
762.547	954.01
762.731	1095.32
762.914	1037.98
763.098	1003.16
763.281	1025.69
763.464	921.24
763.648	1042.07
763.831	1011.36
764.015	1015.45
764.198	962.2
764.381	1003.16
764.564	972.44
764.748	978.59
764.931	992.92
765.114	937.63
765.297	954.01
765.481	894.62
765.664	1111.71
765.847	982.68
766.03	943.77
766.213	992.92
766.397	958.11
766.58	886.43
766.763	947.87
766.946	896.67
767.129	1031.83
767.312	927.39
767.495	992.92
767.678	1009.31
767.861	945.82
768.044	880.29
768.227	962.2
768.41	904.86
768.593	882.33
768.776	931.48
768.959	847.52
769.142	814.75
769.324	880.29
769.507	888.48
769.69	804.51
769.873	839.33
770.056	931.48
770.239	855.71
770.421	958.11
770.604	876.19
770.787	829.09
770.97	857.76
771.152	747.17
771.335	935.58
771.518	806.56
771.7	886.43
771.883	878.24
772.066	894.62
772.248	839.33
772.431	882.33
772.613	804.51
772.796	763.55
772.978	781.98
773.161	904.86
773.343	722.59
773.526	769.69
773.708	681.63
773.891	765.6
774.073	771.74
774.256	738.98
774.438	845.47
774.621	806.56
774.803	827.04
774.985	781.98
775.168	779.93
775.35	779.93
775.532	861.85
775.715	648.86
775.897	683.68
776.079	749.22
776.261	771.74
776.444	726.69
776.626	698.02
776.808	698.02
776.99	652.96
777.173	722.59
777.355	708.26
777.537	730.78
777.719	636.58
777.901	634.53
778.083	665.25
778.265	558.75
778.447	726.69
778.629	693.92
778.811	698.02
778.993	714.4
779.175	689.82
779.357	640.67
779.539	698.02
779.721	698.02
779.903	714.4
780.085	573.09
780.267	689.82
780.449	655.01
780.631	616.1
780.812	571.04
780.994	595.62
781.176	583.33
781.358	581.28
781.54	616.1
781.721	636.58
781.903	609.95
782.085	648.86
782.267	571.04
782.448	554.66
782.63	505.51
782.812	542.37
782.993	583.33
783.175	593.57
783.357	509.6
783.538	542.37
783.72	495.27
783.901	517.79
784.083	521.89
784.264	587.43
784.446	571.04
784.627	495.27
784.809	517.79
784.99	448.16
785.172	489.12
785.353	478.88
785.535	503.46
785.716	427.68
785.897	493.22
786.079	485.03
786.26	509.6
786.441	566.95
786.623	497.32
786.804	513.7
786.985	435.88
787.167	427.68
787.348	468.64
787.529	450.21
787.71	519.84
787.891	435.88
788.073	405.16
788.254	386.72
788.435	380.58
788.616	474.79
788.797	427.68
788.978	396.96
789.159	356.01
789.34	374.44
789.522	433.83
789.703	349.86
789.884	450.21
790.065	405.16
790.246	468.64
790.427	407.2
790.607	462.5
790.788	399.01
790.969	313
791.15	403.11
791.331	370.34
791.512	421.54
791.693	399.01
791.874	419.49
792.054	470.69
792.235	339.62
792.416	319.14
792.597	362.15
792.778	337.57
792.958	345.77
793.139	255.65
793.32	411.3
793.5	325.29
793.681	382.63
793.862	315.05
794.042	403.11
794.223	286.37
794.404	353.96
794.584	313
794.765	331.43
794.945	300.71
795.126	366.25
795.306	321.19
795.487	298.66
795.667	265.89
795.848	310.95
796.028	247.46
796.209	394.92
796.389	294.57
796.57	272.04
796.75	333.48
796.93	243.37
797.111	224.94
797.291	308.9
797.471	243.37
797.652	341.67
797.832	304.81
798.012	288.42
798.192	280.23
798.373	300.71
798.553	263.85
798.733	321.19
798.913	286.37
799.093	300.71
799.274	337.57
799.454	337.57
799.634	224.94
799.814	231.08
799.994	259.75
800.174	321.19
800.354	315.05
800.534	231.08
800.714	304.81
800.894	200.36
801.074	286.37
801.254	249.51
801.434	249.51
801.614	239.27
801.794	253.61
801.974	886.43
802.154	190.12
802.334	200.36
802.514	181.93
802.693	284.33
802.873	202.41
803.053	253.61
803.233	257.7
803.413	247.46
803.592	214.7
803.772	272.04
803.952	308.9
804.131	214.7
804.311	220.84
804.491	206.5
804.67	186.02
804.85	95.91
805.03	247.46
805.209	241.32
805.389	239.27
805.568	224.94
805.748	175.78
805.928	126.63
806.107	245.41
806.287	288.42
806.466	222.89
806.646	149.16
806.825	247.46
807.004	149.16
807.184	325.29
807.363	267.94
807.543	190.12
807.722	165.54
807.901	188.07
808.081	274.09
808.26	102.06
808.439	196.26
808.619	247.46
808.798	165.54
808.977	112.3
809.156	200.36
809.336	194.22
809.515	259.75
809.694	165.54
809.873	171.69
810.052	222.89
810.231	173.74
810.411	169.64
810.59	214.7
810.769	102.06
810.948	200.36
811.127	38.57
811.306	140.97
811.485	208.55
811.664	175.78
811.843	179.88
812.022	165.54
812.201	83.63
812.38	179.88
812.559	171.69
812.737	210.6
812.916	77.48
813.095	140.97
813.274	132.78
813.453	177.83
813.632	208.55
813.811	181.93
813.989	130.73
814.168	202.41
814.347	157.35
814.526	140.97
814.704	140.97
814.883	173.74
815.062	157.35
815.24	181.93
815.419	140.97
815.598	102.06
815.776	71.34
815.955	126.63
816.133	40.62
816.312	112.3
816.49	110.25
816.669	165.54
816.847	102.06
817.026	243.37
817.204	165.54
817.383	104.11
817.561	118.44
817.74	77.48
817.918	155.3
818.097	91.82
818.275	95.91
818.453	216.74
818.632	79.53
818.81	91.82
818.988	71.34
819.167	110.25
819.345	210.6
819.523	93.87
819.701	116.39
819.879	173.74
820.058	132.78
820.236	116.39
820.414	69.29
820.592	83.63
820.77	83.63
820.948	83.63
821.127	79.53
821.305	110.25
821.483	87.72
821.661	198.31
821.839	145.06
822.017	75.43
822.195	104.11
822.373	163.5
822.551	95.91
822.729	169.64
822.907	118.44
823.085	110.25
823.262	102.06
823.44	104.11
823.618	128.68
823.796	157.35
823.974	192.17
824.152	83.63
824.329	149.16
824.507	143.02
824.685	106.15
824.863	165.54
825.04	161.45
825.218	95.91
825.396	126.63
825.574	130.73
825.751	34.47
825.929	132.78
826.107	52.91
826.284	52.91
826.462	165.54
826.639	104.11
826.817	77.48
826.994	85.67
827.172	116.39
827.349	183.98
827.527	159.4
827.704	147.11
827.882	130.73
828.059	34.47
828.237	20.14
828.414	208.55
828.591	36.52
828.769	108.2
828.946	61.1
829.124	91.82
829.301	108.2
829.478	134.82
829.655	116.39
829.833	54.95
830.01	22.19
830.187	91.82
830.364	108.2
830.542	83.63
830.719	196.26
830.896	87.72
831.073	108.2
831.25	128.68
831.427	22.19
831.604	104.11
831.782	50.86
831.959	108.2
832.136	128.68
832.313	61.1
832.49	-4.44
832.667	171.69
832.844	61.1
833.021	120.49
833.198	95.91
833.374	42.67
833.551	108.2
833.728	100.01
833.905	134.82
834.082	-4.44
834.259	50.86
834.436	104.11
834.612	18.09
834.789	132.78
834.966	-6.49
835.143	112.3
835.319	46.76
835.496	83.63
835.673	93.87
835.85	91.82
836.026	65.19
836.203	190.12
836.38	11.95
836.556	85.67
836.733	59.05
836.909	100.01
837.086	-16.73
837.262	7.85
837.439	22.19
837.616	34.47
837.792	11.95
837.968	116.39
838.145	71.34
838.321	124.58
838.498	87.72
838.674	108.2
838.851	89.77
839.027	67.24
839.203	5.8
839.38	16.04
839.556	106.15
839.732	91.82
839.909	100.01
840.085	67.24
840.261	42.67
840.437	79.53
840.614	34.47
840.79	93.87
840.966	-12.63
841.142	89.77
841.318	22.19
841.494	38.57
841.671	69.29
841.847	18.09
842.023	73.39
842.199	132.78
842.375	100.01
842.551	-4.44
842.727	52.91
842.903	83.63
843.079	42.67
843.255	134.82
843.431	136.87
843.607	34.47
843.783	-8.53
843.959	126.63
844.134	40.62
844.31	75.43
844.486	26.28
844.662	22.19
844.838	75.43
845.013	59.05
845.189	110.25
845.365	42.67
845.541	102.06
845.716	34.47
845.892	116.39
846.068	20.14
846.244	75.43
846.419	44.71
846.595	-51.54
846.77	-12.63
846.946	44.71
847.122	69.29
847.297	69.29
847.473	104.11
847.648	44.71
847.824	11.95
847.999	28.33
848.175	54.95
848.35	36.52
848.526	85.67
848.701	46.76
848.876	71.34
849.052	73.39
849.227	54.95
849.403	91.82
849.578	52.91
849.753	22.19
849.929	63.15
850.104	57
850.279	44.71
850.454	32.43
850.63	108.2
850.805	34.47
850.98	38.57
851.155	87.72
851.33	42.67
851.505	20.14
851.681	26.28
851.856	36.52
852.031	34.47
852.206	16.04
852.381	-14.68
852.556	44.71
852.731	-39.25
852.906	-16.73
853.081	75.43
853.256	50.86
853.431	1.71
853.606	9.9
853.781	18.09
853.956	-10.58
854.131	20.14
854.305	-37.2
854.48	-20.82
854.655	-29.01
854.83	46.76
855.005	42.67
855.18	73.39
855.354	36.52
855.529	104.11
855.704	-12.63
855.879	13.99
856.053	28.33
856.228	83.63
856.403	-69.97
856.577	11.95
856.752	-47.44
856.926	28.33
857.101	26.28
857.276	28.33
857.45	34.47
857.625	11.95
857.799	46.76
857.974	40.62
858.148	77.48
858.323	9.9
858.497	38.57
858.672	-37.2
858.846	-47.44
859.02	71.34
859.195	-63.83
859.369	24.23
859.543	54.95
859.718	59.05
859.892	5.8
860.066	-10.58
860.241	36.52
860.415	36.52
860.589	-43.35
860.763	-51.54
860.938	-14.68
861.112	42.67
861.286	34.47
861.46	11.95
861.634	26.28
861.808	71.34
861.982	26.28
862.157	-26.96
862.331	-39.25
862.505	24.23
862.679	-35.16
862.853	44.71
863.027	-14.68
863.201	97.96
863.375	11.95
863.549	67.24
863.722	26.28
863.896	-39.25
864.07	34.47
864.244	-10.58
864.418	20.14
864.592	26.28
864.766	57
864.939	1.71
865.113	-31.06
865.287	-18.77
865.461	13.99
865.634	-12.63
865.808	18.09
865.982	20.14
866.156	7.85
866.329	-12.63
866.503	77.48
866.676	3.75
866.85	13.99
867.024	28.33
867.197	5.8
867.371	106.15
867.544	1.71
867.718	-14.68
867.891	-14.68
868.065	83.63
868.238	36.52
868.412	-26.96
868.585	3.75
868.759	-20.82
868.932	-31.06
869.105	28.33
869.279	34.47
869.452	-35.16
869.625	30.38
869.799	-10.58
869.972	-63.83
870.145	13.99
870.319	30.38
870.492	26.28
870.665	-35.16
870.838	-10.58
871.011	-153.94
871.185	59.05
871.358	16.04
871.531	26.28
871.704	-4.44
871.877	38.57
872.05	1.71
872.223	-110.93
872.396	36.52
872.569	-10.58
872.742	-6.49
872.915	50.86
873.088	11.95
873.261	28.33
873.434	22.19
873.607	-39.25
873.78	30.38
873.953	-2.39
874.126	9.9
874.299	-22.87
874.471	11.95
874.644	38.57
874.817	83.63
874.99	-6.49
875.163	-29.01
875.335	100.01
875.508	24.23
875.681	-0.34
875.853	-49.49
876.026	65.19
876.199	11.95
876.371	22.19
876.544	-10.58
876.717	-16.73
876.889	32.43
877.062	3.75
877.234	5.8
877.407	-6.49
877.579	-20.82
877.752	-2.39
877.924	-29.01
878.097	28.33
878.269	9.9
878.442	59.05
878.614	44.71
878.786	42.67
878.959	7.85
879.131	42.67
879.303	-61.78
879.476	52.91
879.648	-43.35
879.82	-47.44
879.993	-22.87
880.165	-29.01
880.337	9.9
880.509	-14.68
880.681	40.62
880.854	38.57
881.026	22.19
881.198	26.28
881.37	3.75
881.542	18.09
881.714	-72.02
881.886	40.62
882.058	11.95
882.23	28.33
882.402	-6.49
882.574	-24.92
882.746	-51.54
882.918	87.72
883.09	-10.58
883.262	5.8
883.434	26.28
883.606	-41.3
883.778	75.43
883.95	52.91
884.122	5.8
884.293	63.15
884.465	1.71
884.637	42.67
884.809	-39.25
884.98	36.52
885.152	34.47
885.324	40.62
885.496	-72.02
885.667	3.75
885.839	28.33
886.011	77.48
886.182	50.86
886.354	28.33
886.525	34.47
886.697	-39.25
886.869	3.75
887.04	-10.58
887.212	36.52
887.383	-29.01
887.555	-12.63
887.726	13.99
887.897	20.14
888.069	-6.49
888.24	67.24
888.412	-10.58
888.583	38.57
888.754	-31.06
888.926	-33.11
889.097	1.71
889.268	-86.36
889.44	3.75
889.611	-76.12
889.782	-14.68
889.953	11.95
890.125	34.47
890.296	-106.84
890.467	-82.26
890.638	-63.83
890.809	-20.82
890.98	-35.16
891.151	50.86
891.323	-4.44
891.494	-10.58
891.665	1.71
891.836	34.47
892.007	9.9
892.178	28.33
892.349	40.62
892.52	3.75
892.691	-16.73
892.862	38.57
893.032	-59.73
893.203	34.47
893.374	-8.53
893.545	18.09
893.716	30.38
893.887	-39.25
894.057	-4.44
894.228	36.52
894.399	16.04
894.57	-26.96
894.74	61.1
894.911	30.38
895.082	18.09
895.253	20.14
895.423	-4.44
895.594	-29.01
895.764	-47.44
895.935	59.05
896.106	-35.16
896.276	-35.16
896.447	44.71
896.617	-2.39
896.788	-78.16
896.958	-29.01
897.129	38.57
897.299	-74.07
897.47	124.58
897.64	30.38
897.81	-14.68
897.981	-4.44
898.151	-92.5
898.322	50.86
898.492	124.58
898.662	-29.01
898.832	-35.16
899.003	100.01
899.173	11.95
899.343	-2.39
899.513	-72.02
