Data from USB4F104151__255__14-34-18-833.txt Node

Date: Thu Mar 13 14:34:18 EDT 2025
User: louis
Spectrometer: USB4F10415
Trigger mode: 4
Integration Time (sec): 2.500000E-2
Scans to average: 1
Electric dark correction enabled: true
Nonlinearity correction enabled: false
Boxcar width: 0
XAxis mode: Wavelengths
Number of Pixels in Spectrum: 3648
>>>>>Begin Spectral Data<<<<<
178.204	-166.4
178.424	-166.4
178.644	-166.4
178.864	-158.21
179.084	-51.71
179.304	-16.9
179.524	30.21
179.744	-2.56
179.964	-4.61
180.184	-10.75
180.404	13.82
180.624	69.12
180.844	44.54
181.064	-12.8
181.283	-61.95
181.503	-43.52
181.723	-4.61
181.943	-8.7
182.163	44.54
182.383	79.36
182.602	19.97
182.822	146.94
183.042	71.17
183.262	32.26
183.482	75.26
183.701	5.63
183.921	44.54
184.141	54.78
184.361	89.6
184.58	101.89
184.8	5.63
185.02	34.3
185.239	81.41
185.459	44.54
185.679	101.89
185.898	-111.1
186.118	69.12
186.338	69.12
186.557	22.02
186.777	1.54
186.997	65.02
187.216	19.97
187.436	136.7
187.655	120.32
187.875	114.17
188.095	85.5
188.314	95.74
188.534	71.17
188.753	58.88
188.973	91.65
189.192	60.93
189.412	26.11
189.631	32.26
189.851	60.93
190.07	56.83
190.29	28.16
190.509	-4.61
190.729	26.11
190.948	11.78
191.168	77.31
191.387	128.51
191.607	-4.61
191.826	87.55
192.045	65.02
192.265	-16.9
192.484	13.82
192.704	85.5
192.923	-27.14
193.142	179.71
193.362	-8.7
193.581	142.85
193.8	105.98
194.02	103.93
194.239	11.78
194.458	128.51
194.678	110.08
194.897	13.82
195.116	28.16
195.335	7.68
195.555	22.02
195.774	3.58
195.993	42.5
196.212	19.97
196.432	-20.99
196.651	32.26
196.87	79.36
197.089	101.89
197.308	114.17
197.528	85.5
197.747	-10.75
197.966	54.78
198.185	69.12
198.404	-39.42
198.623	112.13
198.842	3.58
199.062	85.5
199.281	136.7
199.5	44.54
199.719	91.65
199.938	85.5
200.157	120.32
200.376	56.83
200.595	26.11
200.814	73.21
201.033	11.78
201.252	44.54
201.471	75.26
201.69	71.17
201.909	11.78
202.128	118.27
202.347	-23.04
202.566	3.58
202.785	30.21
203.004	11.78
203.223	151.04
203.442	15.87
203.661	87.55
203.879	58.88
204.098	87.55
204.317	85.5
204.536	95.74
204.755	32.26
204.974	126.46
205.193	87.55
205.411	79.36
205.63	122.37
205.849	83.45
206.068	19.97
206.287	138.75
206.505	52.74
206.724	-0.51
206.943	-27.14
207.162	-27.14
207.381	54.78
207.599	13.82
207.818	71.17
208.037	54.78
208.255	-20.99
208.474	73.21
208.693	26.11
208.911	54.78
209.13	81.41
209.349	40.45
209.567	15.87
209.786	56.83
210.005	19.97
210.223	19.97
210.442	-49.66
210.661	52.74
210.879	28.16
211.098	-2.56
211.316	28.16
211.535	15.87
211.753	52.74
211.972	105.98
212.191	75.26
212.409	-0.51
212.628	44.54
212.846	30.21
213.065	44.54
213.283	46.59
213.502	-12.8
213.72	93.69
213.938	38.4
214.157	-37.38
214.375	11.78
214.594	36.35
214.812	36.35
215.031	62.98
215.249	-12.8
215.467	89.6
215.686	38.4
215.904	101.89
216.122	44.54
216.341	65.02
216.559	-16.9
216.778	44.54
216.996	17.92
217.214	46.59
217.432	93.69
217.651	22.02
217.869	46.59
218.087	36.35
218.306	19.97
218.524	151.04
218.742	3.58
218.96	87.55
219.179	42.5
219.397	7.68
219.615	81.41
219.833	85.5
220.051	52.74
220.27	153.09
220.488	54.78
220.706	44.54
220.924	-4.61
221.142	11.78
221.36	89.6
221.578	81.41
221.796	122.37
222.015	-25.09
222.233	34.3
222.451	62.98
222.669	-16.9
222.887	130.56
223.105	58.88
223.323	22.02
223.541	62.98
223.759	36.35
223.977	3.58
224.195	85.5
224.413	136.7
224.631	65.02
224.849	-2.56
225.067	87.55
225.285	44.54
225.503	46.59
225.721	5.63
225.939	71.17
226.157	7.68
226.375	110.08
226.592	24.06
226.81	81.41
227.028	1.54
227.246	118.27
227.464	3.58
227.682	122.37
227.9	-2.56
228.117	99.84
228.335	19.97
228.553	62.98
228.771	65.02
228.989	38.4
229.206	46.59
229.424	22.02
229.642	-43.52
229.86	-16.9
230.077	69.12
230.295	11.78
230.513	97.79
230.731	110.08
230.948	85.5
231.166	118.27
231.384	15.87
231.601	69.12
231.819	65.02
232.037	11.78
232.254	-45.57
232.472	24.06
232.689	-25.09
232.907	54.78
233.125	32.26
233.342	46.59
233.56	-20.99
233.777	-37.38
233.995	19.97
234.213	116.22
234.43	24.06
234.648	67.07
234.865	54.78
235.083	93.69
235.3	7.68
235.518	1.54
235.735	85.5
235.953	46.59
236.17	30.21
236.388	-18.94
236.605	105.98
236.822	48.64
237.04	36.35
237.257	87.55
237.475	11.78
237.692	46.59
237.909	-20.99
238.127	56.83
238.344	81.41
238.562	38.4
238.779	7.68
238.996	-29.18
239.214	101.89
239.431	85.5
239.648	9.73
239.865	24.06
240.083	114.17
240.3	13.82
240.517	-8.7
240.735	22.02
240.952	85.5
241.169	138.75
241.386	77.31
241.603	19.97
241.821	32.26
242.038	134.65
242.255	110.08
242.472	-37.38
242.689	116.22
242.907	44.54
243.124	46.59
243.341	38.4
243.558	-10.75
243.775	36.35
243.992	-51.71
244.209	93.69
244.426	56.83
244.643	3.58
244.86	11.78
245.078	52.74
245.295	24.06
245.512	28.16
245.729	65.02
245.946	5.63
246.163	65.02
246.38	48.64
246.597	19.97
246.814	36.35
247.031	101.89
247.248	101.89
247.464	52.74
247.681	54.78
247.898	126.46
248.115	-0.51
248.332	22.02
248.549	48.64
248.766	54.78
248.983	48.64
249.2	124.41
249.417	36.35
249.633	40.45
249.85	36.35
250.067	7.68
250.284	62.98
250.501	15.87
250.717	128.51
250.934	60.93
251.151	77.31
251.368	-12.8
251.585	44.54
251.801	87.55
252.018	-8.7
252.235	65.02
252.451	30.21
252.668	95.74
252.885	69.12
253.102	52.74
253.318	-4.61
253.535	24.06
253.752	32.26
253.968	36.35
254.185	-29.18
254.401	50.69
254.618	17.92
254.835	28.16
255.051	118.27
255.268	77.31
255.484	89.6
255.701	60.93
255.917	69.12
256.134	36.35
256.351	36.35
256.567	73.21
256.784	-2.56
257	-35.33
257.217	122.37
257.433	19.97
257.65	-4.61
257.866	36.35
258.082	19.97
258.299	40.45
258.515	87.55
258.732	22.02
258.948	11.78
259.165	36.35
259.381	65.02
259.597	85.5
259.814	60.93
260.03	40.45
260.246	19.97
260.463	60.93
260.679	85.5
260.895	44.54
261.112	118.27
261.328	-41.47
261.544	52.74
261.761	85.5
261.977	15.87
262.193	24.06
262.409	87.55
262.626	17.92
262.842	5.63
263.058	40.45
263.274	153.09
263.49	105.98
263.707	69.12
263.923	32.26
264.139	48.64
264.355	-12.8
264.571	62.98
264.787	38.4
265.004	73.21
265.22	93.69
265.436	11.78
265.652	19.97
265.868	36.35
266.084	69.12
266.3	32.26
266.516	11.78
266.732	38.4
266.948	56.83
267.164	112.13
267.38	46.59
267.596	65.02
267.812	89.6
268.028	69.12
268.244	-72.19
268.46	118.27
268.676	-16.9
268.892	79.36
269.108	24.06
269.324	17.92
269.54	-27.14
269.756	95.74
269.972	30.21
270.188	5.63
270.403	24.06
270.619	103.93
270.835	-2.56
271.051	19.97
271.267	48.64
271.483	3.58
271.698	71.17
271.914	56.83
272.13	58.88
272.346	62.98
272.562	114.17
272.777	60.93
272.993	69.12
273.209	-10.75
273.425	-12.8
273.64	24.06
273.856	132.61
274.072	62.98
274.287	-12.8
274.503	62.98
274.719	56.83
274.934	62.98
275.15	65.02
275.366	40.45
275.581	-18.94
275.797	60.93
276.012	7.68
276.228	93.69
276.444	44.54
276.659	69.12
276.875	40.45
277.09	50.69
277.306	44.54
277.521	79.36
277.737	-10.75
277.952	81.41
278.168	69.12
278.383	13.82
278.599	-2.56
278.814	126.46
279.03	15.87
279.245	95.74
279.461	71.17
279.676	13.82
279.892	11.78
280.107	44.54
280.322	-10.75
280.538	42.5
280.753	32.26
280.969	85.5
281.184	30.21
281.399	95.74
281.615	28.16
281.83	34.3
282.045	-12.8
282.26	-29.18
282.476	19.97
282.691	101.89
282.906	103.93
283.122	58.88
283.337	-80.38
283.552	62.98
283.767	-12.8
283.983	48.64
284.198	11.78
284.413	77.31
284.628	24.06
284.843	118.27
285.058	15.87
285.274	36.35
285.489	-61.95
285.704	171.52
285.919	48.64
286.134	-33.28
286.349	15.87
286.564	11.78
286.779	40.45
286.995	95.74
287.21	34.3
287.425	69.12
287.64	69.12
287.855	46.59
288.07	30.21
288.285	1.54
288.5	48.64
288.715	67.07
288.93	50.69
289.145	-12.8
289.36	54.78
289.575	118.27
289.79	67.07
290.004	32.26
290.219	-4.61
290.434	-61.95
290.649	30.21
290.864	52.74
291.079	65.02
291.294	36.35
291.509	-0.51
291.724	36.35
291.938	69.12
292.153	105.98
292.368	1.54
292.583	73.21
292.798	81.41
293.012	13.82
293.227	38.4
293.442	52.74
293.657	71.17
293.871	42.5
294.086	58.88
294.301	118.27
294.516	36.35
294.73	97.79
294.945	34.3
295.16	19.97
295.374	153.09
295.589	144.89
295.804	40.45
296.018	19.97
296.233	153.09
296.447	118.27
296.662	24.06
296.877	85.5
297.091	24.06
297.306	13.82
297.52	28.16
297.735	71.17
297.949	-43.52
298.164	69.12
298.378	52.74
298.593	36.35
298.807	30.21
299.022	26.11
299.236	30.21
299.451	103.93
299.665	7.68
299.88	44.54
300.094	58.88
300.309	30.21
300.523	-4.61
300.737	60.93
300.952	46.59
301.166	24.06
301.381	48.64
301.595	-20.99
301.809	48.64
302.024	32.26
302.238	11.78
302.452	103.93
302.667	-18.94
302.881	99.84
303.095	50.69
303.309	19.97
303.524	38.4
303.738	-10.75
303.952	56.83
304.166	46.59
304.381	-61.95
304.595	105.98
304.809	58.88
305.023	-27.14
305.237	30.21
305.452	30.21
305.666	32.26
305.88	110.08
306.094	52.74
306.308	79.36
306.522	42.5
306.736	75.26
306.95	75.26
307.164	79.36
307.379	19.97
307.593	52.74
307.807	11.78
308.021	108.03
308.235	85.5
308.449	36.35
308.663	-20.99
308.877	120.32
309.091	85.5
309.305	73.21
309.519	-29.18
309.733	52.74
309.947	44.54
310.161	15.87
310.374	54.78
310.588	30.21
310.802	95.74
311.016	3.58
311.23	44.54
311.444	32.26
311.658	-2.56
311.872	89.6
312.085	77.31
312.299	81.41
312.513	95.74
312.727	77.31
312.941	5.63
313.154	101.89
313.368	126.46
313.582	83.45
313.796	44.54
314.009	36.35
314.223	120.32
314.437	19.97
314.651	-4.61
314.864	-35.33
315.078	71.17
315.292	36.35
315.505	48.64
315.719	48.64
315.933	105.98
316.146	112.13
316.36	44.54
316.573	93.69
316.787	103.93
317.001	52.74
317.214	34.3
317.428	71.17
317.641	67.07
317.855	134.65
318.068	97.79
318.282	44.54
318.495	134.65
318.709	93.69
318.922	30.21
319.136	97.79
319.349	60.93
319.563	128.51
319.776	118.27
319.99	3.58
320.203	83.45
320.417	77.31
320.63	120.32
320.843	108.03
321.057	67.07
321.27	87.55
321.483	142.85
321.697	118.27
321.91	124.41
322.124	163.33
322.337	103.93
322.55	52.74
322.763	134.65
322.977	-43.52
323.19	40.45
323.403	-2.56
323.617	103.93
323.83	77.31
324.043	93.69
324.256	30.21
324.469	-14.85
324.683	87.55
324.896	-12.8
325.109	69.12
325.322	36.35
325.535	22.02
325.748	126.46
325.962	15.87
326.175	75.26
326.388	32.26
326.601	22.02
326.814	71.17
327.027	75.26
327.24	93.69
327.453	-25.09
327.666	-10.75
327.879	103.93
328.092	114.17
328.305	69.12
328.518	89.6
328.731	60.93
328.944	69.12
329.157	83.45
329.37	30.21
329.583	114.17
329.796	79.36
330.009	-12.8
330.222	128.51
330.435	105.98
330.648	73.21
330.861	36.35
331.073	46.59
331.286	3.58
331.499	110.08
331.712	36.35
331.925	101.89
332.138	116.22
332.35	54.78
332.563	13.82
332.776	79.36
332.989	-8.7
333.202	-20.99
333.414	95.74
333.627	62.98
333.84	99.84
334.053	85.5
334.265	40.45
334.478	87.55
334.691	134.65
334.903	13.82
335.116	-66.05
335.329	95.74
335.541	103.93
335.754	114.17
335.966	-27.14
336.179	-14.85
336.392	87.55
336.604	128.51
336.817	7.68
337.029	46.59
337.242	48.64
337.454	71.17
337.667	58.88
337.88	112.13
338.092	105.98
338.305	69.12
338.517	19.97
338.729	60.93
338.942	73.21
339.154	-0.51
339.367	38.4
339.579	54.78
339.792	73.21
340.004	161.28
340.217	22.02
340.429	62.98
340.641	42.5
340.854	62.98
341.066	93.69
341.278	62.98
341.491	38.4
341.703	24.06
341.915	28.16
342.128	138.75
342.34	81.41
342.552	24.06
342.764	-4.61
342.977	-2.56
343.189	3.58
343.401	87.55
343.613	-0.51
343.826	73.21
344.038	7.68
344.25	71.17
344.462	22.02
344.674	30.21
344.886	60.93
345.099	103.93
345.311	28.16
345.523	36.35
345.735	-20.99
345.947	112.13
346.159	144.89
346.371	93.69
346.583	48.64
346.795	93.69
347.007	71.17
347.219	83.45
347.431	93.69
347.643	153.09
347.855	44.54
348.067	3.58
348.279	9.73
348.491	67.07
348.703	48.64
348.915	52.74
349.127	69.12
349.339	101.89
349.551	3.58
349.763	112.13
349.975	7.68
350.187	138.75
350.399	71.17
350.61	110.08
350.822	62.98
351.034	112.13
351.246	95.74
351.458	155.13
351.669	122.37
351.881	56.83
352.093	110.08
352.305	128.51
352.517	62.98
352.728	65.02
352.94	65.02
353.152	60.93
353.363	7.68
353.575	77.31
353.787	134.65
353.999	13.82
354.21	165.37
354.422	48.64
354.633	44.54
354.845	93.69
355.057	65.02
355.268	93.69
355.48	77.31
355.692	77.31
355.903	50.69
356.115	79.36
356.326	36.35
356.538	36.35
356.749	32.26
356.961	101.89
357.172	93.69
357.384	-8.7
357.595	171.52
357.807	-12.8
358.018	93.69
358.23	9.73
358.441	114.17
358.653	81.41
358.864	40.45
359.075	87.55
359.287	24.06
359.498	89.6
359.709	60.93
359.921	71.17
360.132	71.17
360.344	101.89
360.555	28.16
360.766	19.97
360.977	91.65
361.189	101.89
361.4	93.69
361.611	126.46
361.823	144.89
362.034	44.54
362.245	56.83
362.456	44.54
362.667	110.08
362.879	-27.14
363.09	128.51
363.301	44.54
363.512	175.61
363.723	81.41
363.935	36.35
364.146	118.27
364.357	7.68
364.568	151.04
364.779	15.87
364.99	118.27
365.201	-18.94
365.412	77.31
365.623	60.93
365.834	24.06
366.045	32.26
366.256	36.35
366.467	30.21
366.678	69.12
366.889	60.93
367.1	13.82
367.311	11.78
367.522	11.78
367.733	65.02
367.944	71.17
368.155	-8.7
368.366	38.4
368.577	97.79
368.788	126.46
368.999	32.26
369.209	120.32
369.42	126.46
369.631	200.19
369.842	48.64
370.053	81.41
370.264	97.79
370.474	-18.94
370.685	42.5
370.896	79.36
371.107	95.74
371.317	52.74
371.528	36.35
371.739	126.46
371.95	71.17
372.16	134.65
372.371	42.5
372.582	15.87
372.792	71.17
373.003	-16.9
373.214	48.64
373.424	79.36
373.635	19.97
373.846	73.21
374.056	54.78
374.267	19.97
374.477	-29.18
374.688	79.36
374.898	19.97
375.109	56.83
375.319	73.21
375.53	138.75
375.74	93.69
375.951	46.59
376.161	62.98
376.372	87.55
376.582	19.97
376.793	114.17
377.003	15.87
377.214	83.45
377.424	50.69
377.635	75.26
377.845	-4.61
378.055	142.85
378.266	44.54
378.476	69.12
378.686	118.27
378.897	103.93
379.107	89.6
379.317	44.54
379.528	56.83
379.738	171.52
379.948	22.02
380.158	87.55
380.369	60.93
380.579	65.02
380.789	75.26
380.999	85.5
381.21	-37.38
381.42	136.7
381.63	93.69
381.84	126.46
382.05	58.88
382.261	169.47
382.471	93.69
382.681	77.31
382.891	60.93
383.101	120.32
383.311	11.78
383.521	32.26
383.731	36.35
383.941	30.21
384.151	87.55
384.361	48.64
384.571	128.51
384.781	93.69
384.991	153.09
385.201	87.55
385.411	120.32
385.621	77.31
385.831	101.89
386.041	69.12
386.251	85.5
386.461	99.84
386.671	136.7
386.881	79.36
387.091	75.26
387.301	38.4
387.511	112.13
387.72	48.64
387.93	142.85
388.14	3.58
388.35	60.93
388.56	87.55
388.769	50.69
388.979	-4.61
389.189	46.59
389.399	105.98
389.609	146.94
389.818	142.85
390.028	77.31
390.238	85.5
390.447	50.69
390.657	87.55
390.867	95.74
391.076	22.02
391.286	24.06
391.496	42.5
391.705	95.74
391.915	118.27
392.125	73.21
392.334	69.12
392.544	192
392.753	112.13
392.963	5.63
393.172	93.69
393.382	114.17
393.591	146.94
393.801	81.41
394.01	136.7
394.22	81.41
394.429	52.74
394.639	89.6
394.848	85.5
395.058	67.07
395.267	144.89
395.477	130.56
395.686	120.32
395.895	93.69
396.105	130.56
396.314	126.46
396.524	177.66
396.733	89.6
396.942	148.99
397.152	159.23
397.361	157.18
397.57	65.02
397.78	169.47
397.989	118.27
398.198	247.29
398.407	126.46
398.617	120.32
398.826	56.83
399.035	97.79
399.244	67.07
399.453	138.75
399.663	142.85
399.872	157.18
400.081	91.65
400.29	167.42
400.499	95.74
400.708	196.09
400.917	54.78
401.127	103.93
401.336	159.23
401.545	187.9
401.754	146.94
401.963	196.09
402.172	167.42
402.381	89.6
402.59	192
402.799	132.61
403.008	138.75
403.217	95.74
403.426	128.51
403.635	171.52
403.844	112.13
404.053	134.65
404.262	220.67
404.471	196.09
404.68	151.04
404.888	163.33
405.097	134.65
405.306	167.42
405.515	194.05
405.724	148.99
405.933	255.48
406.142	202.24
406.35	273.92
406.559	146.94
406.768	196.09
406.977	257.53
407.185	218.62
407.394	228.86
407.603	235
407.812	265.72
408.02	310.78
408.229	296.44
408.438	273.92
408.646	286.2
408.855	273.92
409.064	351.74
409.272	423.42
409.481	404.99
409.69	421.37
409.898	339.45
410.107	396.79
410.315	394.75
410.524	331.26
410.733	378.36
410.941	374.27
411.15	415.23
411.358	488.95
411.567	529.91
411.775	441.85
411.984	509.43
412.192	527.86
412.401	540.15
412.609	589.3
412.818	574.97
413.026	691.7
413.234	609.78
413.443	626.17
413.651	601.59
413.86	673.27
414.068	765.43
414.276	814.58
414.485	701.94
414.693	781.81
414.901	849.4
415.11	794.1
415.318	808.44
415.526	781.81
415.734	939.51
415.943	937.46
416.151	916.98
416.359	1011.18
416.567	1035.76
416.776	1068.53
416.984	1148.4
417.192	1189.36
417.4	1162.73
417.608	1191.41
417.817	1164.78
418.025	1306.09
418.233	1388.01
418.441	1199.6
418.649	1494.51
418.857	1533.42
419.065	1496.55
419.273	1543.66
419.481	1555.94
419.689	1580.52
419.897	1766.89
420.105	1734.12
420.313	1781.22
420.521	2006.5
420.729	1977.83
420.937	2039.26
421.145	2035.17
421.353	2225.63
421.561	2282.97
421.769	2299.36
421.977	2457.05
422.185	2457.05
422.393	2518.49
422.601	2815.45
422.809	2674.14
423.017	2657.75
423.224	2833.88
423.432	2923.99
423.64	2971.09
423.848	3284.43
424.056	3104.21
424.263	3362.25
424.471	3276.24
424.679	3630.54
424.887	3601.87
425.094	3771.85
425.302	3800.52
425.51	3915.2
425.718	3874.24
425.925	4179.39
426.133	4197.82
426.341	4476.35
426.548	4664.76
426.756	4560.31
426.964	4623.8
427.171	4910.52
427.379	5076.4
427.586	5160.37
427.794	5264.82
428.001	5569.96
428.209	5813.67
428.417	5776.81
428.624	6104.48
428.832	6149.54
429.039	6073.76
429.247	5860.77
429.454	6653.34
429.662	6987.16
429.869	6593.95
430.076	7089.56
430.284	6804.89
430.491	7269.78
430.699	7533.97
430.906	7531.92
431.114	7693.71
431.321	8062.34
431.528	8035.72
431.736	8521.09
431.943	8981.88
432.15	8756.6
432.358	8912.25
432.565	9307.51
432.772	9115
432.979	9581.93
433.187	9778.54
433.394	10052.97
433.601	10399.07
433.808	10669.41
434.016	10450.27
434.223	11013.46
434.43	11525.46
434.637	11388.24
434.844	12029.26
435.052	12315.97
435.259	12301.64
435.466	12213.57
435.673	12184.9
435.88	13012.28
436.087	13806.89
436.294	13413.68
436.501	13514.03
436.708	13423.92
436.915	14273.83
437.122	14624.03
437.329	14929.18
437.537	14959.9
437.743	15289.62
437.95	15314.2
438.157	16061.71
438.364	16641.28
438.571	16512.26
438.778	16532.74
438.985	18091.24
439.192	17237.24
439.399	17814.77
439.606	17333.5
439.813	18896.1
440.02	20034.77
440.227	19303.64
440.433	19227.87
440.64	19954.9
440.847	19766.48
441.054	19987.66
441.261	21556.41
441.467	21298.36
441.674	21394.62
441.881	22656.17
442.088	22119.6
442.294	21816.5
442.501	22723.75
442.708	22844.58
442.914	23983.25
443.121	24982.66
443.328	24325.26
443.534	26133.62
443.741	25353.34
443.948	24925.32
444.154	26788.97
444.361	26645.61
444.568	26752.1
444.774	26743.91
444.981	26872.93
445.187	27702.36
445.394	29281.35
445.6	28472.4
445.807	31362.08
446.013	30174.26
446.22	30317.62
446.426	31976.47
446.633	31700
446.839	33123.33
447.046	31400.99
447.252	33403.91
447.459	33430.53
447.665	33483.78
447.871	35107.82
448.078	36197.34
448.284	34622.45
448.491	35429.35
448.697	36531.15
448.903	37397.45
449.11	37319.62
449.316	37028.81
449.522	37323.72
449.728	38753.2
449.935	39312.3
450.141	38929.33
450.347	39893.92
450.553	38833.07
450.76	39074.73
450.966	40444.82
451.172	39750.56
451.378	40958.86
451.584	39953.31
451.791	40946.58
451.997	41175.95
452.203	41485.19
452.409	41575.3
452.615	41714.56
452.821	39881.63
453.027	39498.66
453.233	41008.01
453.44	39799.71
453.646	40172.44
453.852	40446.87
454.058	41390.98
454.264	39746.47
454.47	40565.65
454.676	39764.9
454.882	41401.22
455.088	37231.56
455.294	38167.48
455.5	38652.85
455.705	39134.12
455.911	37870.53
456.117	36834.25
456.323	36422.61
456.529	34278.39
456.735	35410.92
456.941	34849.77
457.147	34536.43
457.352	33600.51
457.558	33186.82
457.764	33022.98
457.97	32435.22
458.176	31937.56
458.381	31671.32
458.587	30581.81
458.793	30579.76
458.999	28550.22
459.204	30577.71
459.41	30016.57
459.616	27841.62
459.821	27688.03
460.027	27806.81
460.233	27151.46
460.438	25926.77
460.644	26256.5
460.85	24718.47
461.055	24413.32
461.261	24519.82
461.466	22500.52
461.672	22092.97
461.878	23379.1
462.083	21804.21
462.289	21695.67
462.494	21161.15
462.7	20184.27
462.905	19823.83
463.111	20339.91
463.316	20655.3
463.522	19948.75
463.727	20221.13
463.932	19891.41
464.138	19481.81
464.343	19975.38
464.549	19193.05
464.754	19995.85
464.959	19436.76
465.165	19418.33
465.37	18562.28
465.575	18332.9
465.781	18892
465.986	18875.62
466.191	18101.48
466.397	17919.21
466.602	16887.04
466.807	17720.56
467.012	17652.98
467.218	17304.82
467.423	17153.27
467.628	17425.65
467.833	18199.79
468.038	17300.73
468.244	17163.51
468.449	17515.76
468.654	16786.69
468.859	16721.15
469.064	16764.16
469.269	15867.15
469.474	16227.59
469.679	16368.9
469.885	15914.25
470.09	16280.84
470.295	16221.45
470.5	15723.79
470.705	15818
470.91	15349.01
471.115	15191.32
471.32	15502.61
471.525	15504.66
471.73	15021.34
471.935	15158.55
472.139	14363.94
472.344	14751.01
472.549	14425.38
472.754	14282.02
472.959	14218.54
473.164	13763.89
473.369	13767.98
473.574	14169.38
473.778	13784.37
473.983	13718.83
474.188	13663.54
474.393	13004.09
474.598	12981.56
474.802	12995.9
475.007	12999.99
475.212	12979.51
475.417	12528.96
475.621	12352.84
475.826	12772.67
476.031	12262.72
476.235	12002.63
476.44	12133.7
476.645	12078.41
476.849	12049.74
477.054	11640.14
477.259	11545.94
477.463	11736.4
477.668	11375.95
477.872	11521.36
478.077	11392.34
478.282	11156.82
478.486	10892.63
478.691	11113.81
478.895	10915.16
479.1	10759.52
479.304	10892.63
479.509	10399.07
479.713	10554.72
479.918	10435.94
480.122	10012.01
480.326	10321.25
480.531	10392.93
480.735	10153.32
480.94	10120.55
481.144	10644.83
481.348	10130.79
481.553	10190.18
481.757	9885.03
481.961	9899.37
482.166	10247.52
482.37	10089.83
482.574	9882.99
482.778	10161.51
482.983	10255.72
483.187	9960.81
483.391	9977.19
483.595	9803.11
483.8	9821.55
484.004	9923.94
484.208	9923.94
484.412	9799.02
484.616	9973.1
484.821	9964.9
485.025	9694.57
485.229	10063.21
485.433	9778.54
485.637	9780.59
485.841	9735.53
486.045	9719.15
486.249	9653.61
486.453	9776.49
486.657	9764.2
486.861	9719.15
487.065	9532.78
487.269	9882.99
487.473	9586.03
487.677	9950.57
487.881	9842.03
488.085	9758.06
488.289	9932.14
488.493	9680.24
488.697	9827.69
488.901	9770.35
489.105	9561.45
489.309	9903.46
489.512	9860.46
489.716	9817.45
489.92	9856.36
490.124	9796.97
490.328	10157.41
490.531	9866.6
490.735	9942.38
490.939	10014.06
491.143	9696.62
491.346	9907.56
491.55	10040.68
491.754	10038.63
491.958	10212.71
492.161	9940.33
492.365	10255.72
492.569	10171.75
492.772	10087.78
492.976	10040.68
493.18	10059.11
493.383	10579.29
493.587	10452.32
493.79	10386.79
493.994	10382.69
494.197	10497.38
494.401	10599.77
494.605	10351.97
494.808	10859.87
495.012	10847.58
495.215	11001.18
495.419	11025.75
495.622	10603.87
495.825	10972.5
496.029	10976.6
496.232	11072.86
496.436	11318.61
496.639	11251.03
496.843	11218.26
497.046	11449.68
497.249	11580.75
497.453	11748.68
497.656	11728.21
497.859	11857.23
498.063	11943.24
498.266	12123.46
498.469	11982.15
498.673	12469.57
498.876	12500.29
499.079	12389.7
499.282	12666.17
499.485	12907.84
499.689	12768.57
499.892	13221.17
500.095	12811.58
500.298	13364.53
500.501	13206.84
500.705	13514.03
500.908	13542.71
501.111	13694.26
501.314	13948.2
501.517	13870.38
501.72	14163.24
501.923	14157.1
502.126	14296.36
502.329	14611.75
502.532	14761.25
502.735	14830.88
502.938	15033.63
503.141	15136.03
503.344	15430.93
503.547	15260.95
503.75	15359.25
503.953	16033.04
504.156	15777.04
504.359	15875.34
504.562	15848.72
504.765	16528.64
504.968	16495.88
505.17	16557.32
505.373	16485.64
505.576	16985.34
505.779	17177.85
505.982	17427.7
506.185	17657.07
506.387	17849.58
506.59	17730.8
506.793	18068.72
506.996	18093.29
507.198	18480.36
507.401	18537.7
507.604	18687.2
507.807	18832.61
508.009	19133.66
508.212	19285.21
508.415	19301.59
508.617	19999.95
508.82	19815.63
509.022	19639.51
509.225	20456.65
509.428	20352.2
509.63	20415.69
509.833	20694.21
510.035	21255.36
510.238	21126.33
510.44	21372.09
510.643	21515.45
510.845	22123.69
511.048	21742.77
511.25	22039.73
511.453	22336.68
511.655	22865.06
511.858	22768.8
512.06	22965.41
512.262	23340.19
512.465	23219.36
512.667	23655.58
512.87	24007.83
513.072	24038.55
513.274	24251.53
513.477	24296.59
513.679	24489.1
513.881	24777.86
514.084	25158.78
514.286	25214.08
514.488	24992.9
514.69	25951.35
514.893	25783.41
515.095	26217.58
515.297	26356.85
515.499	26481.77
515.701	26954.85
515.904	27010.15
516.106	27233.38
516.308	27604.06
516.51	27827.29
516.712	27739.22
516.914	28144.72
517.116	28408.91
517.318	28404.81
517.52	28853.32
517.722	28828.74
517.925	29213.76
518.127	29369.41
518.329	29459.52
518.531	29588.54
518.733	30012.47
518.935	30266.42
519.136	30366.77
519.338	30768.17
519.54	30852.14
519.742	31077.41
519.944	30759.98
520.146	31466.53
520.348	31400.99
520.55	31687.71
520.752	31765.53
520.954	32207.89
521.155	31763.48
521.357	32261.14
521.559	32279.57
521.761	33270.79
521.963	33098.76
522.164	33076.23
522.366	33457.15
522.568	33635.33
522.77	33618.94
522.971	34016.25
523.173	33664
523.375	34214.9
523.576	33842.17
523.778	34069.5
523.98	34630.64
524.181	34595.82
524.383	34438.13
524.584	34794.48
524.786	34917.36
524.988	34524.15
525.189	35386.34
525.391	35070.95
525.592	35836.89
525.794	35392.48
525.995	35476.45
526.197	35820.51
526.398	35574.75
526.6	35572.71
526.801	35963.87
527.003	35683.3
527.204	35605.47
527.406	36287.45
527.607	35615.71
527.808	36395.99
528.01	35478.5
528.211	35742.69
528.412	36592.59
528.614	36522.96
528.815	36234.2
529.016	36559.83
529.218	36254.68
529.419	36013.02
529.62	36277.21
529.822	36273.11
530.023	36172.76
530.224	36002.78
530.425	36232.15
530.626	35814.37
530.828	35509.22
531.029	36477.91
531.23	36195.29
531.431	35838.94
531.632	36459.48
531.833	36312.02
532.035	36193.24
532.236	36381.65
532.437	36348.89
532.638	35775.45
532.839	35771.36
533.04	36330.45
533.241	35316.71
533.442	36393.94
533.643	35941.34
533.844	36076.51
534.045	35855.32
534.246	35453.92
534.447	35787.74
534.648	35306.47
534.849	35400.68
535.05	35861.47
535.251	35771.36
535.451	35396.58
535.652	35646.43
535.853	35206.12
536.054	35496.93
536.255	35247.08
536.456	35050.47
536.657	35464.16
536.857	35302.37
537.058	34792.43
537.259	35126.25
537.46	34927.6
537.66	35048.43
537.861	35029.99
538.062	34958.31
538.263	35083.24
538.463	34907.12
538.664	34534.39
538.865	34663.41
539.065	35046.38
539.266	34474.99
539.466	34808.81
539.667	34104.31
539.868	34837.48
540.068	34423.79
540.269	34575.34
540.469	34954.22
540.67	34458.61
540.87	34669.55
541.071	34106.36
541.271	35017.71
541.472	34509.81
541.672	34386.93
541.873	34413.55
542.073	33911.8
542.274	34481.14
542.474	34315.25
542.675	34059.26
542.875	34597.87
543.075	34190.33
543.276	33702.91
543.476	34831.34
543.676	34266.1
543.877	34014.2
544.077	34237.43
544.277	34227.19
544.478	34270.2
544.678	33948.67
544.878	34059.26
545.078	34239.48
545.279	33817.6
545.479	33522.69
545.679	34104.31
545.879	34059.26
546.079	33971.19
546.28	34012.15
546.48	33700.86
546.68	34165.75
546.88	33915.9
547.08	33893.37
547.28	34010.11
547.48	33598.46
547.68	33950.71
547.88	33455.11
548.081	34393.08
548.281	33770.49
548.481	33596.42
548.681	33948.67
548.881	34063.35
549.081	34022.39
549.28	33518.59
549.48	33963
549.68	34022.39
549.88	34452.47
550.08	33565.7
550.28	34194.42
550.48	34049.02
550.68	34073.59
550.88	33903.61
551.08	34167.8
551.279	33932.28
551.479	33874.94
551.679	34014.2
551.879	33969.15
552.079	34178.04
552.278	34227.19
552.478	34237.43
552.678	33899.51
552.878	34493.43
553.077	34313.2
553.277	33924.09
553.477	34556.91
553.676	34075.64
553.876	34135.03
554.076	34268.15
554.275	34237.43
554.475	33858.56
554.674	34421.75
554.874	34292.72
555.074	34178.04
555.273	34567.15
555.473	34427.89
555.672	33977.34
555.872	34124.79
556.071	34245.62
556.271	34515.95
556.47	34558.96
556.67	34288.63
556.869	34302.96
557.068	34284.53
557.268	34470.9
557.467	34257.91
557.667	34272.25
557.866	34421.75
558.065	34331.64
558.265	34307.06
558.464	33985.53
558.663	35048.43
558.863	34313.2
559.062	35058.67
559.261	34491.38
559.461	34819.05
559.66	34053.11
559.859	34493.43
560.058	34120.7
560.258	34272.25
560.457	34329.59
560.656	34440.18
560.855	34415.6
561.054	34520.05
561.253	34335.73
561.453	34368.5
561.652	34618.35
561.851	34444.27
562.05	34300.92
562.249	34307.06
562.448	34479.09
562.647	34444.27
562.846	34372.6
563.045	34509.81
563.244	34083.83
563.443	34446.32
563.642	33840.12
563.841	34046.97
564.04	34020.34
564.239	34307.06
564.438	34014.2
564.637	34169.85
564.836	34124.79
565.035	33909.75
565.234	33952.76
565.432	33952.76
565.631	33833.98
565.83	33801.21
566.029	33856.51
566.228	33668.09
566.427	33670.14
566.625	33111.05
566.824	33420.29
567.023	33534.98
567.222	33045.51
567.42	33590.27
567.619	33537.02
567.818	33489.92
568.016	33160.2
568.215	33412.1
568.414	32982.02
568.612	33432.58
568.811	32932.87
569.01	32975.88
569.208	32848.91
569.407	33457.15
569.605	32474.13
569.804	33344.52
570.002	32347.15
570.201	32814.09
570.4	32529.42
570.598	32416.79
570.797	32375.83
570.995	32623.63
571.193	31867.93
571.392	32404.5
571.59	32328.72
571.789	32234.52
571.987	32128.02
572.186	31843.35
572.384	31951.9
572.582	32134.17
572.781	31999
572.979	31499.3
573.177	31798.3
573.376	31357.99
573.574	31286.31
573.772	31446.05
573.971	31134.76
574.169	31245.35
574.367	31145
574.565	31011.88
574.763	30975.02
574.962	30860.33
575.16	30727.21
575.358	30809.13
575.556	30284.85
575.754	30886.95
575.952	30336.05
576.151	30626.86
576.349	30106.68
576.547	30045.24
576.745	30092.34
576.943	29959.22
577.141	30262.32
577.339	30020.66
577.537	29903.93
577.735	29801.53
577.933	29314.11
578.131	29303.87
578.329	29240.39
578.527	29373.5
578.725	29060.16
578.923	29271.11
579.121	29107.27
579.319	28994.63
579.516	29461.57
579.714	29244.48
579.912	28957.77
580.11	28976.2
580.308	29017.16
580.506	28693.58
580.704	28249.17
580.901	28597.32
581.099	29015.11
581.297	28529.74
581.495	28372.05
581.692	28539.98
581.89	28021.84
582.088	28343.38
582.285	28212.31
582.483	28415.05
582.681	28015.7
582.878	27882.58
583.076	27595.87
583.274	28142.67
583.471	27389.02
583.669	27423.84
583.866	27751.51
584.064	27878.49
584.262	27208.8
584.459	27372.64
584.657	27135.07
584.854	27325.54
585.052	26815.59
585.249	27202.66
585.447	27102.31
585.644	26725.48
585.841	26877.03
586.039	27337.82
586.236	26870.89
586.434	26803.3
586.631	26453.1
586.828	26735.72
587.026	26764.39
587.223	26143.86
587.42	26303.6
587.618	26285.17
587.815	26145.91
588.012	26029.17
588.21	26223.73
588.407	26289.26
588.604	26100.85
588.801	25912.44
588.999	25928.82
589.196	25422.97
589.393	25863.29
589.59	25932.92
589.787	25562.23
589.984	25787.51
590.182	25291.9
590.379	25605.24
590.576	25142.4
590.773	25265.28
590.97	25408.64
591.167	25584.76
591.364	25427.07
591.561	25443.45
591.758	25015.43
591.955	24968.32
592.152	25015.43
592.349	25087.11
592.546	25271.42
592.743	25429.12
592.94	25050.24
593.137	25076.87
593.334	25195.65
593.531	24726.66
593.727	24865.92
593.924	25044.1
594.121	24626.31
594.318	24890.5
594.515	24499.34
594.712	24888.45
594.908	24528.01
595.105	24685.7
595.302	24507.53
595.499	24298.64
595.696	24618.12
595.892	24622.22
596.089	24913.03
596.286	24296.59
596.482	24654.98
596.679	24554.63
596.876	24448.14
597.072	24339.6
597.269	24306.83
597.466	24272.01
597.662	23876.76
597.859	24169.62
598.055	24052.88
598.252	24198.29
598.448	24192.14
598.645	24122.51
598.841	24099.98
599.038	23968.91
599.234	24327.31
599.431	24059.02
599.627	23944.34
599.824	24226.96
600.02	23956.63
600.217	24231.05
600.413	24136.85
600.609	23981.2
600.806	24038.55
601.002	24085.65
601.198	24138.9
601.395	24130.7
601.591	23841.94
601.787	24257.68
601.984	24233.1
602.18	24376.46
602.376	23909.52
602.572	24263.82
602.769	24202.38
602.965	23848.08
603.161	23991.44
603.357	23864.47
603.553	24312.97
603.75	24515.72
603.946	24257.68
604.142	24128.66
604.338	24032.4
604.534	24409.23
604.73	24079.5
604.926	24409.23
605.122	24214.67
605.318	24120.46
605.514	24310.93
605.71	24136.85
605.906	24534.15
606.102	24251.53
606.298	24525.96
606.494	24288.4
606.69	24470.67
606.886	24439.95
607.082	24239.25
607.278	24444.04
607.474	24118.42
607.67	24611.98
607.866	24396.94
608.062	24902.79
608.257	24730.76
608.453	24380.56
608.649	24777.86
608.845	24616.07
609.041	24867.97
609.236	25025.67
609.432	24585.35
609.628	24706.18
609.824	24837.25
610.019	24722.57
610.215	24865.92
610.411	24767.62
610.606	24831.11
610.802	25166.98
610.998	25150.59
611.193	25089.15
611.389	24802.44
611.584	25005.19
611.78	24812.68
611.976	25113.73
612.171	25293.95
612.367	24986.75
612.562	24863.88
612.758	24800.39
612.953	25252.99
613.149	25164.93
613.344	25334.91
613.539	25369.72
613.735	25384.06
613.93	25238.65
614.126	25064.58
614.321	25308.29
614.517	25212.03
614.712	25195.65
614.907	25152.64
615.103	25199.74
615.298	25330.81
615.493	25515.13
615.688	25209.98
615.884	25744.5
616.079	25177.22
616.274	25676.92
616.47	25246.85
616.665	25189.5
616.86	25154.69
617.055	25183.36
617.25	25097.35
617.445	25621.63
617.641	24800.39
617.836	25271.42
618.031	24796.29
618.226	25003.14
618.421	25007.23
618.616	25209.98
618.811	24851.59
619.006	25271.42
619.201	24962.18
619.396	24943.75
619.591	24794.25
619.786	25056.39
619.981	24530.06
620.176	25072.77
620.371	24249.49
620.566	24669.32
620.761	24564.87
620.956	24616.07
621.151	24140.94
621.346	24226.96
621.541	24054.93
621.735	24169.62
621.93	23747.73
622.125	23854.23
622.32	23540.89
622.515	23714.97
622.709	23518.36
622.904	23731.35
623.099	23170.21
623.294	23479.45
623.488	23098.53
623.683	22987.94
623.878	23063.71
624.072	22992.03
624.267	22748.32
624.462	22793.38
624.656	22426.79
624.851	22723.75
625.046	22279.34
625.24	22414.51
625.435	22375.59
625.629	22314.16
625.824	21900.47
626.018	22178.99
626.213	21619.89
626.407	21603.51
626.602	21540.02
626.796	21578.93
626.991	21710
627.185	21302.46
627.38	21245.12
627.574	21099.71
627.768	20935.87
627.963	21257.4
628.157	20798.66
628.352	20661.44
628.546	20376.78
628.74	20997.31
628.935	20456.65
629.129	20419.78
629.323	20116.69
629.517	20180.17
629.712	20067.53
629.906	19881.17
630.1	19731.67
630.294	19793.11
630.489	19641.56
630.683	19961.04
630.877	19487.96
631.071	19533.01
631.265	19410.14
631.459	19193.05
631.653	19434.71
631.848	18990.3
632.042	19043.55
632.236	19000.54
632.43	18871.52
632.624	19074.27
632.818	18722.02
633.012	18179.31
633.206	18298.09
633.4	18388.2
633.594	18236.65
633.788	18318.57
633.982	18083.05
634.176	17999.09
634.369	17880.3
634.563	18011.37
634.757	17767.66
634.951	17695.99
635.145	17569.01
635.339	17519.86
635.533	17335.54
635.726	17468.66
635.92	17192.19
636.114	17308.92
636.308	17136.89
636.501	17145.08
636.695	16899.33
636.889	16895.23
637.083	16801.02
637.276	16706.82
637.47	16837.89
637.664	16489.73
637.857	16649.47
638.051	16393.48
638.244	16274.7
638.438	16145.67
638.632	15908.11
638.825	15951.12
639.019	15658.26
639.212	15707.41
639.406	15475.99
639.599	15748.37
639.793	15545.62
639.986	15119.64
640.18	15328.53
640.373	15523.09
640.567	15142.17
640.76	15099.16
640.954	15093.02
641.147	14769.44
641.34	14810.4
641.534	14826.78
641.727	14828.83
641.92	14595.36
642.114	14429.48
642.307	14390.56
642.5	14374.18
642.694	14331.17
642.887	14062.89
643.08	14316.84
643.273	14064.94
643.467	13823.28
643.66	13602.1
643.853	13710.64
644.046	13600.05
644.239	13624.62
644.432	13378.87
644.626	13423.92
644.819	13325.62
645.012	13284.66
645.205	13180.21
645.398	13202.74
645.591	12836.16
645.784	12995.9
645.977	12711.23
646.17	12731.71
646.363	12545.34
646.556	12598.59
646.749	12623.17
646.942	12633.41
647.135	12414.27
647.328	12442.95
647.521	12299.59
647.714	12125.51
647.907	12244.29
648.099	12019.02
648.292	12141.89
648.485	11949.39
648.678	11840.84
648.871	11754.83
649.064	11779.4
649.256	11896.14
649.449	11597.14
649.642	11726.16
649.835	11308.37
650.027	11603.28
650.22	11324.76
650.413	11373.91
650.605	11136.34
650.798	11171.16
650.991	10974.55
651.183	10853.72
651.376	10890.59
651.568	11009.37
651.761	10866.01
651.954	10882.39
652.146	10716.51
652.339	10892.63
652.531	10747.23
652.724	10509.66
652.916	10567.01
653.109	10358.11
653.301	10489.18
653.494	10327.39
653.686	10235.24
653.879	10468.7
654.071	10153.32
654.263	10194.28
654.456	10048.87
654.648	10120.55
654.84	9776.49
655.033	9956.71
655.225	10048.87
655.417	9799.02
655.61	9811.31
655.802	9792.87
655.994	9751.92
656.186	9702.76
656.379	9604.46
656.571	9516.4
656.763	9325.94
656.955	9426.29
657.148	9375.09
657.34	9528.69
657.532	9067.89
657.724	9012.6
657.916	9383.28
658.108	9450.86
658.3	9014.65
658.492	9096.57
658.684	8785.27
658.876	8996.21
659.068	8691.07
659.26	8721.79
659.452	8785.27
659.644	8834.43
659.836	8748.41
660.028	8809.85
660.22	8529.28
660.412	8473.98
660.604	8295.81
660.796	8408.45
660.988	8416.64
661.18	8213.89
661.372	8189.32
661.563	8271.23
661.755	8113.54
661.947	8123.78
662.139	8068.48
662.331	8115.59
662.522	7923.08
662.714	7929.22
662.906	7818.63
663.097	7916.94
663.289	7734.67
663.481	7593.36
663.673	7861.64
663.864	7523.73
664.056	7544.2
664.247	7454.09
664.439	7525.77
664.631	7654.8
664.822	7533.97
665.014	7370.13
665.205	7380.37
665.397	7378.32
665.588	7302.54
665.78	7343.5
665.971	7157.14
666.163	7294.35
666.354	7239.06
666.546	7040.4
666.737	6925.72
666.929	7001.49
667.12	6958.49
667.311	7056.79
667.503	6839.7
667.694	6911.38
667.885	6985.11
668.077	6864.28
668.268	6737.31
668.459	6962.58
668.651	6774.17
668.842	6647.19
669.033	6720.92
669.224	6469.02
669.416	6704.54
669.607	6573.47
669.798	6483.36
669.989	6512.03
670.18	6542.75
670.371	6507.93
670.563	6469.02
670.754	6475.17
670.945	6393.25
671.136	6299.04
671.327	6139.3
671.518	6356.38
671.709	6352.29
671.9	6428.06
672.091	6081.96
672.282	6333.86
672.473	6155.68
672.664	6032.8
672.855	6106.53
673.046	6122.91
673.237	6065.57
673.428	5987.75
673.619	6122.91
673.809	5838.25
674	6016.42
674.191	5977.51
674.382	5791.14
674.573	6079.91
674.764	5821.86
674.954	5932.45
675.145	5854.63
675.336	5850.53
675.527	5895.59
675.717	5860.77
675.908	5754.28
676.099	5823.91
676.289	5877.16
676.48	5631.4
676.671	5701.03
676.861	5811.62
677.052	5635.5
677.243	5647.79
677.433	5483.95
677.624	5598.63
677.814	5594.54
678.005	5688.75
678.195	5582.25
678.386	5633.45
678.576	5645.74
678.767	5518.76
678.957	5524.91
679.148	5582.25
679.338	5547.44
679.529	5494.19
679.719	5510.57
679.909	5635.5
680.1	5463.47
680.29	5457.32
680.481	5406.13
680.671	5459.37
680.861	5344.69
681.052	5467.56
681.242	5297.58
681.432	5320.11
681.622	5230
681.813	5258.67
682.003	5402.03
682.193	5291.44
682.383	5336.49
682.573	5207.47
682.764	5316.01
682.954	5303.73
683.144	5299.63
683.334	5270.96
683.524	5248.43
683.714	5209.52
683.904	5213.62
684.094	5025.2
684.284	5150.13
684.474	5172.66
684.664	5320.11
684.854	5258.67
685.044	5184.94
685.234	5318.06
685.424	5127.6
685.614	5217.71
685.804	5004.72
685.994	5199.28
686.184	5156.27
686.374	5004.72
686.564	5066.16
686.753	5123.51
686.943	5021.11
687.133	4984.24
687.323	4939.19
687.513	5150.13
687.702	4978.1
687.892	5000.63
688.082	4980.15
688.272	5041.59
688.461	4943.28
688.651	4902.33
688.841	4804.02
689.03	4822.45
689.22	4799.93
689.41	4890.04
689.599	4855.22
689.789	4842.93
689.979	4754.87
690.168	4883.89
690.358	4756.92
690.547	4740.54
690.737	4689.34
690.926	4861.37
691.116	4566.46
691.305	4795.83
691.495	4691.38
691.684	4699.58
691.874	4771.26
692.063	4636.09
692.252	4634.04
692.442	4887.99
692.631	4496.83
692.82	4572.6
693.01	4566.46
693.199	4584.89
693.388	4539.83
693.578	4582.84
693.767	4625.85
693.956	4570.55
694.146	4597.18
694.335	4437.44
694.524	4521.4
694.713	4490.68
694.902	4470.2
695.092	4443.58
695.281	4591.03
695.47	4472.25
695.659	4394.43
695.848	4376
696.037	4335.04
696.226	4318.65
696.415	4228.54
696.604	4468.16
696.793	4439.48
696.982	4289.98
697.171	4484.54
697.36	4369.85
697.549	4253.12
697.738	4259.26
697.927	4255.17
698.116	4287.93
698.305	4320.7
698.494	4349.37
698.683	4273.6
698.872	4269.5
699.061	4216.26
699.25	4154.82
699.438	4154.82
699.627	4316.61
699.816	4173.25
700.005	4126.15
700.193	4132.29
700.382	4111.81
700.571	4187.58
700.76	4029.89
700.948	4068.8
701.137	4201.92
701.326	4130.24
701.514	4062.66
701.703	4013.51
701.892	3986.88
702.08	4025.79
702.269	3995.08
702.457	4001.22
702.646	4117.95
702.834	4015.55
703.023	3968.45
703.212	3968.45
703.4	3917.25
703.589	3872.2
703.777	3896.77
703.965	3845.57
704.154	3853.77
704.342	3892.68
704.531	3966.4
704.719	3761.61
704.907	3984.84
705.096	3937.73
705.284	3755.46
705.472	3816.9
705.661	3800.52
705.849	3732.94
706.037	3837.38
706.226	3837.38
706.414	3827.14
706.602	3771.85
706.79	3907.01
706.979	3773.89
707.167	3599.82
707.355	3691.98
707.543	3698.12
707.731	3892.68
707.919	3796.42
708.107	3665.35
708.296	3694.02
708.484	3599.82
708.672	3579.34
708.86	3634.63
709.048	3630.54
709.236	3743.17
709.424	3788.23
709.612	3653.06
709.8	3595.72
709.988	3552.71
710.176	3565
710.364	3638.73
710.551	3493.32
710.739	3632.58
710.927	3614.15
711.115	3675.59
711.303	3552.71
711.491	3620.3
711.679	3431.88
711.866	3577.29
712.054	3560.91
712.242	3433.93
712.43	3497.42
712.617	3419.6
712.805	3446.22
712.993	3470.8
713.181	3317.2
713.368	3415.5
713.556	3435.98
713.744	3425.74
713.931	3521.99
714.119	3298.77
714.306	3403.21
714.494	3347.92
714.682	3251.66
714.869	3347.92
715.057	3329.49
715.244	3290.57
715.432	3288.53
715.619	3206.61
715.807	3214.8
715.994	3259.85
716.182	3255.76
716.369	3263.95
716.556	3263.95
716.744	3110.35
716.931	3192.27
717.119	3235.28
717.306	3184.08
717.493	3188.18
717.681	3245.52
717.868	3173.84
718.055	3149.26
718.242	3075.54
718.43	3132.88
718.617	3247.57
718.804	3112.4
718.991	3204.56
719.179	3077.59
719.366	3053.01
719.553	3065.3
719.74	3034.58
719.927	3050.96
720.114	3020.24
720.301	3071.44
720.488	2991.57
720.676	2962.9
720.863	3034.58
721.05	3022.29
721.237	2909.65
721.424	3026.39
721.611	2917.84
721.798	2899.41
721.985	2913.75
722.172	3020.24
722.358	2907.6
722.545	2993.62
722.732	2870.74
722.919	2960.85
723.106	2837.97
723.293	3003.86
723.48	2911.7
723.667	2852.31
723.853	2870.74
724.04	2878.93
724.227	2954.71
724.414	2772.44
724.6	2846.16
724.787	2887.12
724.974	2889.17
725.161	2747.86
725.347	2766.29
725.534	2762.2
725.72	2788.82
725.907	2786.77
726.094	2807.25
726.28	2870.74
726.467	2706.9
726.653	2682.33
726.84	2788.82
727.027	2938.32
727.213	2610.65
727.4	2665.94
727.586	2715.09
727.773	2713.05
727.959	2739.67
728.145	2749.91
728.332	2665.94
728.518	2702.81
728.705	2850.26
728.891	2563.54
729.077	2645.46
729.264	2641.37
729.45	2715.09
729.636	2608.6
729.823	2584.02
730.009	2596.31
730.195	2649.56
730.382	2686.42
730.568	2622.94
730.754	2516.44
730.94	2569.69
731.126	2577.88
731.313	2594.26
731.499	2629.08
731.685	2645.46
731.871	2637.27
732.057	2512.35
732.243	2520.54
732.429	2530.78
732.615	2600.41
732.801	2584.02
732.987	2471.39
733.173	2485.72
733.359	2618.84
733.545	2532.83
733.731	2485.72
733.917	2584.02
734.103	2438.62
734.289	2588.12
734.475	2444.76
734.661	2538.97
734.847	2481.63
735.033	2362.84
735.219	2344.41
735.404	2340.32
735.59	2432.47
735.776	2346.46
735.962	2403.8
736.148	2307.55
736.333	2479.58
736.519	2313.69
736.705	2412
736.89	2330.08
737.076	2364.89
737.262	2338.27
737.447	2307.55
737.633	2387.42
737.819	2332.12
738.004	2272.73
738.19	2348.51
738.375	2346.46
738.561	2393.56
738.747	2352.6
738.932	2215.39
739.118	2291.17
739.303	2209.25
739.489	2311.64
739.674	2213.34
739.859	2291.17
740.045	2250.21
740.23	2307.55
740.416	2246.11
740.601	2137.57
740.786	2182.62
740.972	2141.66
741.157	2041.31
741.342	2186.72
741.528	2145.76
741.713	2170.33
741.898	2076.13
742.084	2141.66
742.269	2227.68
742.454	2069.98
742.639	2145.76
742.824	2000.35
743.01	2006.5
743.195	2166.24
743.38	2043.36
743.565	2080.22
743.75	2084.32
743.935	1947.11
744.12	2018.79
744.305	2053.6
744.49	1953.25
744.675	1979.87
744.86	1871.33
745.045	1973.73
745.23	1922.53
745.415	1947.11
745.6	2067.94
745.785	1977.83
745.97	1887.72
746.155	1838.56
746.34	1928.67
746.525	1953.25
746.71	1857
746.895	1910.24
747.079	1785.32
747.264	1775.08
747.449	1904.1
747.634	1908.19
747.819	1803.75
748.003	1824.23
748.188	1740.26
748.373	1752.55
748.557	1783.27
748.742	1768.93
748.927	1801.7
749.111	1781.22
749.296	1785.32
749.481	1660.39
749.665	1781.22
749.85	1658.34
750.034	1740.26
750.219	1594.86
750.404	1699.3
750.588	1719.78
750.773	1631.72
750.957	1637.86
751.141	1715.69
751.326	1531.37
751.51	1699.3
751.695	1592.81
751.879	1582.57
752.064	1633.77
752.248	1605.1
752.432	1603.05
752.617	1484.27
752.801	1523.18
752.985	1453.55
753.17	1519.08
753.354	1590.76
753.538	1543.66
753.722	1525.22
753.907	1463.79
754.091	1414.63
754.275	1453.55
754.459	1519.08
754.643	1424.87
754.828	1461.74
755.012	1428.97
755.196	1396.2
755.38	1351.15
755.564	1234.41
755.748	1349.1
755.932	1316.33
756.116	1338.86
756.3	1291.76
756.484	1287.66
756.668	1398.25
756.852	1201.65
757.036	1269.23
757.22	1267.18
757.404	1244.65
757.588	1285.61
757.772	1269.23
757.956	1250.8
758.14	1269.23
758.323	1267.18
758.507	1256.94
758.691	1207.79
758.875	1261.04
759.059	1273.32
759.242	1168.88
759.426	1170.93
759.61	1242.61
759.794	1244.65
759.977	1193.45
760.161	1168.88
760.345	1195.5
760.528	1183.21
760.712	1265.13
760.895	1037.81
761.079	1134.06
761.263	1195.5
761.446	1080.82
761.63	1095.15
761.813	1138.16
761.997	1132.01
762.18	1066.48
762.364	1009.14
762.547	1039.86
762.731	1019.38
762.914	1191.41
763.098	1068.53
763.281	1068.53
763.464	1074.67
763.648	1093.1
763.831	1086.96
764.015	1070.58
764.198	1109.49
764.381	1068.53
764.564	1086.96
764.748	1060.34
764.931	1062.38
765.114	941.55
765.297	986.61
765.481	966.13
765.664	982.51
765.847	943.6
766.03	1017.33
766.213	1025.52
766.397	953.84
766.58	994.8
766.763	1043.95
766.946	966.13
767.129	1007.09
767.312	990.7
767.495	929.27
767.678	966.13
767.861	931.31
768.044	1007.09
768.227	978.42
768.41	933.36
768.593	984.56
768.776	937.46
768.959	845.3
769.142	894.45
769.324	884.21
769.507	953.84
769.69	880.11
769.873	892.4
770.056	953.84
770.239	927.22
770.421	939.51
770.604	849.4
770.787	753.14
770.97	910.83
771.152	857.59
771.335	865.78
771.518	857.59
771.7	863.73
771.883	865.78
772.066	855.54
772.248	847.35
772.431	843.25
772.613	867.83
772.796	806.39
772.978	886.26
773.161	890.35
773.343	853.49
773.526	822.77
773.708	794.1
773.891	767.48
774.073	822.77
774.256	816.63
774.438	824.82
774.621	830.96
774.803	747
774.985	835.06
775.168	839.16
775.35	765.43
775.532	724.47
775.715	759.28
775.897	781.81
776.079	781.81
776.261	781.81
776.444	703.99
776.626	699.89
776.808	740.85
776.99	693.75
777.173	683.51
777.355	634.36
777.537	632.31
777.719	658.93
777.901	636.41
778.083	658.93
778.265	626.17
778.447	617.97
778.629	677.37
778.811	646.65
778.993	626.17
779.175	691.7
779.357	658.93
779.539	656.89
779.721	622.07
779.903	658.93
780.085	589.3
780.267	642.55
780.449	642.55
780.631	626.17
780.812	660.98
780.994	636.41
781.176	634.36
781.358	579.06
781.54	531.96
781.721	699.89
781.903	601.59
782.085	560.63
782.267	585.21
782.448	544.25
782.63	564.73
782.812	507.38
782.993	486.9
783.175	593.4
783.357	503.29
783.538	527.86
783.72	511.48
783.901	503.29
784.083	560.63
784.264	552.44
784.446	484.86
784.627	495.1
784.809	562.68
784.99	519.67
785.172	447.99
785.353	454.14
785.535	495.1
785.716	443.9
785.897	503.29
786.079	439.8
786.26	413.18
786.441	519.67
786.623	456.19
786.804	464.38
786.985	460.28
787.167	468.47
787.348	462.33
787.529	450.04
787.71	511.48
787.891	497.14
788.073	372.22
788.254	439.8
788.435	501.24
788.616	396.79
788.797	437.75
788.978	472.57
789.159	495.1
789.34	429.56
789.522	486.9
789.703	437.75
789.884	488.95
790.065	478.71
790.246	421.37
790.427	404.99
790.607	437.75
790.788	355.83
790.969	437.75
791.15	445.95
791.331	355.83
791.512	388.6
791.693	421.37
791.874	361.98
792.054	437.75
792.235	390.65
792.416	286.2
792.597	368.12
792.778	353.79
792.958	407.03
793.139	351.74
793.32	374.27
793.5	353.79
793.681	441.85
793.862	325.12
794.042	409.08
794.223	263.68
794.404	343.55
794.584	261.63
794.765	308.73
794.945	308.73
795.126	437.75
795.306	374.27
795.487	335.35
795.667	220.67
795.848	443.9
796.028	316.92
796.209	273.92
796.389	333.31
796.57	269.82
796.75	308.73
796.93	249.34
797.111	253.44
797.291	310.78
797.471	304.64
797.652	359.93
797.832	370.17
798.012	298.49
798.192	261.63
798.373	298.49
798.553	306.68
798.733	312.83
798.913	249.34
799.093	290.3
799.274	269.82
799.454	306.68
799.634	249.34
799.814	292.35
799.994	290.3
800.174	257.53
800.354	208.38
800.534	292.35
800.714	261.63
800.894	189.95
801.074	284.16
801.254	257.53
801.434	333.31
801.614	296.44
801.794	235
801.974	1054.19
802.154	216.57
802.334	321.02
802.514	265.72
802.693	216.57
802.873	278.01
803.053	308.73
803.233	310.78
803.413	239.1
803.592	267.77
803.772	202.24
803.952	196.09
804.131	226.81
804.311	286.2
804.491	232.96
804.67	228.86
804.85	224.76
805.03	235
805.209	282.11
805.389	275.96
805.568	114.17
805.748	286.2
805.928	232.96
806.107	177.66
806.287	173.57
806.466	204.28
806.646	245.24
806.825	192
807.004	181.76
807.184	200.19
807.363	196.09
807.543	204.28
807.722	245.24
807.901	261.63
808.081	192
808.26	163.33
808.439	237.05
808.619	226.81
808.798	224.76
808.977	192
809.156	208.38
809.336	177.66
809.515	214.52
809.694	267.77
809.873	202.24
810.052	232.96
810.231	265.72
810.411	206.33
810.59	151.04
810.769	130.56
810.948	251.39
811.127	200.19
811.306	198.14
811.485	183.81
811.664	241.15
811.843	163.33
812.022	122.37
812.201	224.76
812.38	171.52
812.559	138.75
812.737	275.96
812.916	101.89
813.095	118.27
813.274	187.9
813.453	151.04
813.632	130.56
813.811	214.52
813.989	142.85
814.168	171.52
814.347	159.23
814.526	202.24
814.704	196.09
814.883	167.42
815.062	93.69
815.24	105.98
815.419	105.98
815.598	175.61
815.776	159.23
815.955	202.24
816.133	124.41
816.312	163.33
816.49	97.79
816.669	155.13
816.847	153.09
817.026	146.94
817.204	101.89
817.383	118.27
817.561	167.42
817.74	134.65
817.918	144.89
818.097	67.07
818.275	85.5
818.453	151.04
818.632	52.74
818.81	132.61
818.988	62.98
819.167	122.37
819.345	187.9
819.523	108.03
819.701	60.93
819.879	130.56
820.058	134.65
820.236	56.83
820.414	128.51
820.592	134.65
820.77	126.46
820.948	103.93
821.127	56.83
821.305	85.5
821.483	136.7
821.661	112.13
821.839	163.33
822.017	175.61
822.195	118.27
822.373	185.85
822.551	79.36
822.729	97.79
822.907	56.83
823.085	153.09
823.262	169.47
823.44	112.13
823.618	93.69
823.796	159.23
823.974	97.79
824.152	56.83
824.329	93.69
824.507	85.5
824.685	120.32
824.863	62.98
825.04	95.74
825.218	50.69
825.396	40.45
825.574	134.65
825.751	97.79
825.929	179.71
826.107	40.45
826.284	146.94
826.462	161.28
826.639	118.27
826.817	-12.8
826.994	79.36
827.172	93.69
827.349	122.37
827.527	136.7
827.704	89.6
827.882	103.93
828.059	128.51
828.237	95.74
828.414	126.46
828.591	97.79
828.769	105.98
828.946	118.27
829.124	101.89
829.301	165.37
829.478	89.6
829.655	93.69
829.833	112.13
830.01	46.59
830.187	40.45
830.364	87.55
830.542	171.52
830.719	118.27
830.896	118.27
831.073	101.89
831.25	159.23
831.427	128.51
831.604	81.41
831.782	3.58
831.959	89.6
832.136	114.17
832.313	105.98
832.49	28.16
832.667	153.09
832.844	5.63
833.021	93.69
833.198	97.79
833.374	89.6
833.551	136.7
833.728	69.12
833.905	112.13
834.082	19.97
834.259	77.31
834.436	181.76
834.612	97.79
834.789	130.56
834.966	30.21
835.143	110.08
835.319	60.93
835.496	159.23
835.673	144.89
835.85	128.51
836.026	167.42
836.203	196.09
836.38	65.02
836.556	71.17
836.733	114.17
836.909	155.13
837.086	30.21
837.262	44.54
837.439	56.83
837.616	5.63
837.792	97.79
837.968	192
838.145	87.55
838.321	19.97
838.498	118.27
838.674	67.07
838.851	81.41
839.027	77.31
839.203	22.02
839.38	85.5
839.556	77.31
839.732	-0.51
839.909	97.79
840.085	54.78
840.261	54.78
840.437	85.5
840.614	-57.86
840.79	108.03
840.966	75.26
841.142	108.03
841.318	52.74
841.494	40.45
841.671	114.17
841.847	83.45
842.023	69.12
842.199	101.89
842.375	58.88
842.551	-8.7
842.727	71.17
842.903	128.51
843.079	44.54
843.255	69.12
843.431	56.83
843.607	60.93
843.783	-59.9
843.959	73.21
844.134	5.63
844.31	44.54
844.486	9.73
844.662	11.78
844.838	95.74
845.013	120.32
845.189	36.35
845.365	44.54
845.541	79.36
845.716	32.26
845.892	60.93
846.068	75.26
846.244	-4.61
846.419	77.31
846.595	7.68
846.77	-4.61
846.946	151.04
847.122	69.12
847.297	11.78
847.473	48.64
847.648	-18.94
847.824	48.64
847.999	28.16
848.175	28.16
848.35	101.89
848.526	36.35
848.701	46.59
848.876	73.21
849.052	81.41
849.227	75.26
849.403	112.13
849.578	-29.18
849.753	28.16
849.929	60.93
850.104	79.36
850.279	69.12
850.454	65.02
850.63	87.55
850.805	77.31
850.98	46.59
851.155	28.16
851.33	32.26
851.505	36.35
851.681	93.69
851.856	99.84
852.031	62.98
852.206	44.54
852.381	11.78
852.556	58.88
852.731	69.12
852.906	-4.61
853.081	44.54
853.256	-27.14
853.431	52.74
853.606	22.02
853.781	-2.56
853.956	-33.28
854.131	44.54
854.305	36.35
854.48	52.74
854.655	3.58
854.83	77.31
855.005	-8.7
855.18	36.35
855.354	28.16
855.529	52.74
855.704	3.58
855.879	99.84
856.053	-10.75
856.228	91.65
856.403	-29.18
856.577	40.45
856.752	-23.04
856.926	19.97
857.101	46.59
857.276	44.54
857.45	26.11
857.625	65.02
857.799	1.54
857.974	-0.51
858.148	-12.8
858.323	44.54
858.497	28.16
858.672	15.87
858.846	28.16
859.02	175.61
859.195	48.64
859.369	26.11
859.543	28.16
859.718	60.93
859.892	89.6
860.066	34.3
860.241	48.64
860.415	22.02
860.589	62.98
860.763	3.58
860.938	3.58
861.112	52.74
861.286	13.82
861.46	122.37
861.634	132.61
861.808	69.12
861.982	28.16
862.157	26.11
862.331	46.59
862.505	36.35
862.679	11.78
862.853	11.78
863.027	83.45
863.201	52.74
863.375	-4.61
863.549	-49.66
863.722	-16.9
863.896	67.07
864.07	-29.18
864.244	3.58
864.418	103.93
864.592	28.16
864.766	-27.14
864.939	-18.94
865.113	-8.7
865.287	52.74
865.461	5.63
865.634	38.4
865.808	28.16
865.982	85.5
866.156	44.54
866.329	52.74
866.503	65.02
866.676	48.64
866.85	32.26
867.024	28.16
867.197	24.06
867.371	30.21
867.544	73.21
867.718	-23.04
867.891	144.89
868.065	-49.66
868.238	26.11
868.412	65.02
868.585	-20.99
868.759	-0.51
868.932	128.51
869.105	-31.23
869.279	32.26
869.452	30.21
869.625	52.74
869.799	60.93
869.972	32.26
870.145	5.63
870.319	-14.85
870.492	22.02
870.665	-10.75
870.838	-53.76
871.011	-33.28
871.185	5.63
871.358	11.78
871.531	44.54
871.704	-25.09
871.877	79.36
872.05	36.35
872.223	-18.94
872.396	54.78
872.569	73.21
872.742	-47.62
872.915	85.5
873.088	-10.75
873.261	101.89
873.434	-12.8
873.607	-0.51
873.78	42.5
873.953	67.07
874.126	69.12
874.299	-25.09
874.471	13.82
874.644	-45.57
874.817	-12.8
874.99	85.5
875.163	69.12
875.335	-12.8
875.508	44.54
875.681	46.59
875.853	-45.57
876.026	-8.7
876.199	1.54
876.371	-12.8
876.544	58.88
876.717	103.93
876.889	56.83
877.062	87.55
877.234	-10.75
877.407	-31.23
877.579	32.26
877.752	67.07
877.924	11.78
878.097	79.36
878.269	-29.18
878.442	-41.47
878.614	97.79
878.786	3.58
878.959	28.16
879.131	-45.57
879.303	24.06
879.476	9.73
879.648	-4.61
879.82	3.58
879.993	11.78
880.165	-45.57
880.337	-49.66
880.509	-0.51
880.681	-29.18
880.854	-0.51
881.026	-10.75
881.198	118.27
881.37	28.16
881.542	42.5
881.714	52.74
881.886	69.12
882.058	24.06
882.23	-8.7
882.402	5.63
882.574	11.78
882.746	-33.28
882.918	87.55
883.09	24.06
883.262	46.59
883.434	11.78
883.606	-41.47
883.778	30.21
883.95	99.84
884.122	-8.7
884.293	13.82
884.465	26.11
884.637	28.16
884.809	52.74
884.98	77.31
885.152	44.54
885.324	44.54
885.496	-27.14
885.667	81.41
885.839	-18.94
886.011	65.02
886.182	38.4
886.354	7.68
886.525	65.02
886.697	36.35
886.869	-43.52
887.04	-10.75
887.212	-0.51
887.383	116.22
887.555	-55.81
887.726	46.59
887.897	-0.51
888.069	34.3
888.24	15.87
888.412	5.63
888.583	38.4
888.754	-8.7
888.926	-2.56
889.097	9.73
889.268	15.87
889.44	3.58
889.611	-92.67
889.782	3.58
889.953	-45.57
890.125	79.36
890.296	-61.95
890.467	7.68
890.638	38.4
890.809	30.21
890.98	-4.61
891.151	5.63
891.323	67.07
891.494	42.5
891.665	44.54
891.836	11.78
892.007	34.3
892.178	81.41
892.349	-29.18
892.52	-4.61
892.691	-35.33
892.862	-12.8
893.032	-35.33
893.203	34.3
893.374	-16.9
893.545	36.35
893.716	-27.14
893.887	56.83
894.057	32.26
894.228	22.02
894.399	-4.61
894.57	15.87
894.74	48.64
894.911	52.74
895.082	30.21
895.253	11.78
895.423	-4.61
895.594	62.98
895.764	114.17
895.935	-29.18
896.106	-4.61
896.276	26.11
896.447	95.74
896.617	3.58
896.788	-66.05
896.958	7.68
897.129	-8.7
897.299	-10.75
897.47	69.12
897.64	60.93
897.81	-43.52
897.981	56.83
898.151	-4.61
898.322	-49.66
898.492	-57.86
898.662	-59.9
898.832	15.87
899.003	34.3
899.173	87.55
899.343	11.78
899.513	-39.42
