Data from USB4F104151__126__14-31-21-259.txt Node

Date: Thu Mar 13 14:31:21 EDT 2025
User: louis
Spectrometer: USB4F10415
Trigger mode: 4
Integration Time (sec): 2.500000E-2
Scans to average: 1
Electric dark correction enabled: true
Nonlinearity correction enabled: false
Boxcar width: 0
XAxis mode: Wavelengths
Number of Pixels in Spectrum: 3648
>>>>>Begin Spectral Data<<<<<
178.204	-129.19
178.424	-129.19
178.644	-129.19
178.864	-139.43
179.084	-133.29
179.304	-8.36
179.524	-26.79
179.744	-16.55
179.964	87.89
180.184	32.6
180.404	-24.75
180.624	44.88
180.844	-10.41
181.064	-26.79
181.283	-10.41
181.503	-10.41
181.723	-30.89
181.943	-71.85
182.163	65.36
182.383	38.74
182.602	36.69
182.822	91.99
183.042	-100.52
183.262	51.03
183.482	22.36
183.701	132.95
183.921	38.74
184.141	-18.6
184.361	96.08
184.58	51.03
184.8	1.88
185.02	32.6
185.239	85.84
185.459	59.22
185.679	79.7
185.898	3.93
186.118	69.46
186.338	22.36
186.557	57.17
186.777	10.07
186.997	-73.9
187.216	83.8
187.436	16.21
187.655	63.32
187.875	20.31
188.095	36.69
188.314	114.52
188.534	1.88
188.753	46.93
188.973	5.97
189.192	59.22
189.412	40.79
189.631	22.36
189.851	18.26
190.07	71.51
190.29	26.45
190.509	73.56
190.729	8.02
190.948	98.13
191.168	169.81
191.387	143.19
191.607	38.74
191.826	75.6
192.045	14.17
192.265	28.5
192.484	53.08
192.704	63.32
192.923	89.94
193.142	153.43
193.362	79.7
193.581	44.88
193.8	1.88
194.02	120.66
194.239	20.31
194.458	57.17
194.678	44.88
194.897	-47.27
195.116	-30.89
195.335	22.36
195.555	96.08
195.774	59.22
195.993	22.36
196.212	38.74
196.432	16.21
196.651	10.07
196.87	73.56
197.089	71.51
197.308	-16.55
197.528	38.74
197.747	16.21
197.966	57.17
198.185	71.51
198.404	55.12
198.623	79.7
198.842	67.41
199.062	96.08
199.281	-4.27
199.5	22.36
199.719	34.64
199.938	59.22
200.157	30.55
200.376	55.12
200.595	24.4
200.814	55.12
201.033	71.51
201.252	83.8
201.471	51.03
201.69	65.36
201.909	65.36
202.128	46.93
202.347	104.28
202.566	44.88
202.785	18.26
203.004	-51.37
203.223	87.89
203.442	63.32
203.661	24.4
203.879	34.64
204.098	128.85
204.317	8.02
204.536	145.24
204.755	108.37
204.974	81.75
205.193	42.84
205.411	71.51
205.63	55.12
205.849	-16.55
206.068	65.36
206.287	63.32
206.505	-53.42
206.724	38.74
206.943	32.6
207.162	59.22
207.381	38.74
207.599	22.36
207.818	22.36
208.037	38.74
208.255	87.89
208.474	-0.17
208.693	63.32
208.911	-10.41
209.13	-0.17
209.349	-39.08
209.567	69.46
209.786	143.19
210.005	91.99
210.223	30.55
210.442	46.93
210.661	24.4
210.879	24.4
211.098	59.22
211.316	98.13
211.535	44.88
211.753	5.97
211.972	55.12
212.191	14.17
212.409	-2.22
212.628	48.98
212.846	38.74
213.065	63.32
213.283	108.37
213.502	-24.75
213.72	42.84
213.938	40.79
214.157	32.6
214.375	5.97
214.594	32.6
214.812	65.36
215.031	42.84
215.249	14.17
215.467	14.17
215.686	14.17
215.904	26.45
216.122	-22.7
216.341	63.32
216.559	42.84
216.778	32.6
216.996	67.41
217.214	22.36
217.432	79.7
217.651	5.97
217.869	38.74
218.087	-39.08
218.306	5.97
218.524	91.99
218.742	5.97
218.96	89.94
219.179	112.47
219.397	63.32
219.615	73.56
219.833	48.98
220.051	-34.99
220.27	120.66
220.488	36.69
220.706	63.32
220.924	28.5
221.142	79.7
221.36	-8.36
221.578	14.17
221.796	89.94
222.015	-26.79
222.233	18.26
222.451	132.95
222.669	10.07
222.887	87.89
223.105	-6.31
223.323	-10.41
223.541	53.08
223.759	-2.22
223.977	-22.7
224.195	120.66
224.413	91.99
224.631	67.41
224.849	34.64
225.067	128.85
225.285	-10.41
225.503	79.7
225.721	-0.17
225.939	5.97
226.157	14.17
226.375	46.93
226.592	-49.32
226.81	-22.7
227.028	100.18
227.246	75.6
227.464	-43.18
227.682	71.51
227.9	104.28
228.117	-32.94
228.335	-10.41
228.553	55.12
228.771	22.36
228.989	96.08
229.206	-43.18
229.424	-43.18
229.642	40.79
229.86	48.98
230.077	81.75
230.295	65.36
230.513	65.36
230.731	100.18
230.948	24.4
231.166	55.12
231.384	12.12
231.601	1.88
231.819	104.28
232.037	42.84
232.254	5.97
232.472	-47.27
232.689	-59.56
232.907	22.36
233.125	10.07
233.342	71.51
233.56	30.55
233.777	75.6
233.995	26.45
234.213	63.32
234.43	55.12
234.648	91.99
234.865	65.36
235.083	32.6
235.3	42.84
235.518	38.74
235.735	65.36
235.953	55.12
236.17	55.12
236.388	14.17
236.605	67.41
236.822	32.6
237.04	-6.31
237.257	14.17
237.475	18.26
237.692	38.74
237.909	147.28
238.127	102.23
238.344	65.36
238.562	38.74
238.779	-12.46
238.996	71.51
239.214	30.55
239.431	87.89
239.648	-2.22
239.865	-22.7
240.083	55.12
240.3	104.28
240.517	40.79
240.735	10.07
240.952	132.95
241.169	71.51
241.386	104.28
241.603	-18.6
241.821	-0.17
242.038	79.7
242.255	79.7
242.472	26.45
242.689	32.6
242.907	106.32
243.124	63.32
243.341	79.7
243.558	75.6
243.775	3.93
243.992	5.97
244.209	65.36
244.426	73.56
244.643	46.93
244.86	89.94
245.078	59.22
245.295	89.94
245.512	124.76
245.729	30.55
245.946	112.47
246.163	69.46
246.38	108.37
246.597	96.08
246.814	55.12
247.031	100.18
247.248	42.84
247.464	63.32
247.681	75.6
247.898	14.17
248.115	120.66
248.332	-18.6
248.549	59.22
248.766	137.04
248.983	132.95
249.2	57.17
249.417	178
249.633	112.47
249.85	83.8
250.067	24.4
250.284	-18.6
250.501	85.84
250.717	96.08
250.934	26.45
251.151	73.56
251.368	34.64
251.585	12.12
251.801	40.79
252.018	-10.41
252.235	16.21
252.451	38.74
252.668	-34.99
252.885	79.7
253.102	22.36
253.318	5.97
253.535	44.88
253.752	14.17
253.968	14.17
254.185	48.98
254.401	89.94
254.618	46.93
254.835	24.4
255.051	149.33
255.268	77.65
255.484	104.28
255.701	12.12
255.917	98.13
256.134	-22.7
256.351	87.89
256.567	-30.89
256.784	10.07
257	-8.36
257.217	87.89
257.433	61.27
257.65	94.04
257.866	-18.6
258.082	55.12
258.299	-43.18
258.515	132.95
258.732	-32.94
258.948	16.21
259.165	73.56
259.381	18.26
259.597	53.08
259.814	71.51
260.03	30.55
260.246	79.7
260.463	-16.55
260.679	12.12
260.895	-14.51
261.112	116.56
261.328	61.27
261.544	65.36
261.761	169.81
261.977	-51.37
262.193	24.4
262.409	112.47
262.626	79.7
262.842	16.21
263.058	-10.41
263.274	120.66
263.49	161.62
263.707	38.74
263.923	83.8
264.139	96.08
264.355	89.94
264.571	46.93
264.787	16.21
265.004	110.42
265.22	18.26
265.436	81.75
265.652	14.17
265.868	73.56
266.084	51.03
266.3	-47.27
266.516	-34.99
266.732	55.12
266.948	-49.32
267.164	-22.7
267.38	124.76
267.596	14.17
267.812	132.95
268.028	38.74
268.244	22.36
268.46	104.28
268.676	73.56
268.892	48.98
269.108	26.45
269.324	24.4
269.54	48.98
269.756	55.12
269.972	-8.36
270.188	61.27
270.403	22.36
270.619	63.32
270.835	22.36
271.051	75.6
271.267	3.93
271.483	83.8
271.698	38.74
271.914	112.47
272.13	71.51
272.346	51.03
272.562	106.32
272.777	32.6
272.993	100.18
273.209	-0.17
273.425	-0.17
273.64	16.21
273.856	81.75
274.072	20.31
274.287	-2.22
274.503	61.27
274.719	83.8
274.934	46.93
275.15	5.97
275.366	120.66
275.581	30.55
275.797	55.12
276.012	67.41
276.228	24.4
276.444	38.74
276.659	30.55
276.875	1.88
277.09	22.36
277.306	-8.36
277.521	44.88
277.737	42.84
277.952	26.45
278.168	55.12
278.383	10.07
278.599	26.45
278.814	122.71
279.03	42.84
279.245	126.8
279.461	46.93
279.676	126.8
279.892	-26.79
280.107	5.97
280.322	44.88
280.538	83.8
280.753	22.36
280.969	48.98
281.184	98.13
281.399	59.22
281.615	42.84
281.83	46.93
282.045	18.26
282.26	-14.51
282.476	18.26
282.691	71.51
282.906	81.75
283.122	30.55
283.337	-24.75
283.552	108.37
283.767	14.17
283.983	89.94
284.198	46.93
284.413	83.8
284.628	5.97
284.843	55.12
285.058	22.36
285.274	30.55
285.489	-16.55
285.704	53.08
285.919	28.5
286.134	36.69
286.349	38.74
286.564	38.74
286.779	128.85
286.995	67.41
287.21	5.97
287.425	34.64
287.64	-12.46
287.855	32.6
288.07	-18.6
288.285	116.56
288.5	73.56
288.715	53.08
288.93	-16.55
289.145	104.28
289.36	71.51
289.575	59.22
289.79	100.18
290.004	48.98
290.219	65.36
290.434	-16.55
290.649	18.26
290.864	63.32
291.079	34.64
291.294	55.12
291.509	100.18
291.724	5.97
291.938	26.45
292.153	14.17
292.368	46.93
292.583	91.99
292.798	42.84
293.012	28.5
293.227	65.36
293.442	71.51
293.657	34.64
293.871	71.51
294.086	87.89
294.301	69.46
294.516	75.6
294.73	44.88
294.945	8.02
295.16	63.32
295.374	44.88
295.589	96.08
295.804	87.89
296.018	63.32
296.233	96.08
296.447	106.32
296.662	-39.08
296.877	77.65
297.091	34.64
297.306	132.95
297.52	22.36
297.735	71.51
297.949	67.41
298.164	-14.51
298.378	14.17
298.593	63.32
298.807	48.98
299.022	34.64
299.236	57.17
299.451	98.13
299.665	10.07
299.88	53.08
300.094	71.51
300.309	96.08
300.523	104.28
300.737	3.93
300.952	51.03
301.166	69.46
301.381	63.32
301.595	40.79
301.809	87.89
302.024	-4.27
302.238	-10.41
302.452	38.74
302.667	30.55
302.881	128.85
303.095	30.55
303.309	79.7
303.524	30.55
303.738	71.51
303.952	32.6
304.166	67.41
304.381	-8.36
304.595	104.28
304.809	30.55
305.023	30.55
305.237	46.93
305.452	-65.71
305.666	87.89
305.88	96.08
306.094	112.47
306.308	120.66
306.522	67.41
306.736	53.08
306.95	96.08
307.164	87.89
307.379	28.5
307.593	91.99
307.807	96.08
308.021	32.6
308.235	5.97
308.449	40.79
308.663	3.93
308.877	130.9
309.091	20.31
309.305	16.21
309.519	-6.31
309.733	67.41
309.947	-51.37
310.161	16.21
310.374	48.98
310.588	108.37
310.802	-18.6
311.016	16.21
311.23	89.94
311.444	38.74
311.658	51.03
311.872	91.99
312.085	-6.31
312.299	32.6
312.513	71.51
312.727	-26.79
312.941	83.8
313.154	42.84
313.368	20.31
313.582	51.03
313.796	-65.71
314.009	75.6
314.223	89.94
314.437	40.79
314.651	32.6
314.864	22.36
315.078	30.55
315.292	-16.55
315.505	65.36
315.719	120.66
315.933	53.08
316.146	5.97
316.36	40.79
316.573	48.98
316.787	59.22
317.001	139.09
317.214	1.88
317.428	63.32
317.641	-47.27
317.855	34.64
318.068	40.79
318.282	10.07
318.495	128.85
318.709	-10.41
318.922	34.64
319.136	-43.18
319.349	106.32
319.563	22.36
319.776	81.75
319.99	-10.41
320.203	98.13
320.417	65.36
320.63	22.36
320.843	130.9
321.057	67.41
321.27	26.45
321.483	65.36
321.697	137.04
321.91	75.6
322.124	5.97
322.337	51.03
322.55	-6.31
322.763	-10.41
322.977	-18.6
323.19	116.56
323.403	14.17
323.617	81.75
323.83	71.51
324.043	-10.41
324.256	69.46
324.469	14.17
324.683	104.28
324.896	-8.36
325.109	124.76
325.322	32.6
325.535	46.93
325.748	73.56
325.962	91.99
326.175	40.79
326.388	46.93
326.601	83.8
326.814	57.17
327.027	34.64
327.24	67.41
327.453	81.75
327.666	104.28
327.879	63.32
328.092	96.08
328.305	44.88
328.518	-22.7
328.731	22.36
328.944	30.55
329.157	55.12
329.37	57.17
329.583	91.99
329.796	120.66
330.009	-4.27
330.222	116.56
330.435	46.93
330.648	32.6
330.861	71.51
331.073	79.7
331.286	75.6
331.499	73.56
331.712	-2.22
331.925	-63.66
332.138	83.8
332.35	100.18
332.563	44.88
332.776	51.03
332.989	46.93
333.202	51.03
333.414	73.56
333.627	8.02
333.84	77.65
334.053	120.66
334.265	44.88
334.478	79.7
334.691	67.41
334.903	14.17
335.116	5.97
335.329	100.18
335.541	151.38
335.754	57.17
335.966	14.17
336.179	79.7
336.392	10.07
336.604	63.32
336.817	18.26
337.029	24.4
337.242	57.17
337.454	114.52
337.667	108.37
337.88	149.33
338.092	46.93
338.305	79.7
338.517	8.02
338.729	34.64
338.942	169.81
339.154	-22.7
339.367	24.4
339.579	79.7
339.792	34.64
340.004	69.46
340.217	83.8
340.429	55.12
340.641	63.32
340.854	96.08
341.066	30.55
341.278	40.79
341.491	141.14
341.703	71.51
341.915	16.21
342.128	26.45
342.34	30.55
342.552	51.03
342.764	24.4
342.977	67.41
343.189	137.04
343.401	63.32
343.613	38.74
343.826	14.17
344.038	48.98
344.25	51.03
344.462	1.88
344.674	141.14
344.886	83.8
345.099	-10.41
345.311	141.14
345.523	24.4
345.735	51.03
345.947	16.21
346.159	75.6
346.371	46.93
346.583	46.93
346.795	44.88
347.007	87.89
347.219	69.46
347.431	1.88
347.643	63.32
347.855	48.98
348.067	63.32
348.279	-12.46
348.491	79.7
348.703	147.28
348.915	126.8
349.127	57.17
349.339	38.74
349.551	94.04
349.763	30.55
349.975	30.55
350.187	112.47
350.399	104.28
350.61	120.66
350.822	38.74
351.034	40.79
351.246	55.12
351.458	112.47
351.669	32.6
351.881	128.85
352.093	87.89
352.305	112.47
352.517	42.84
352.728	85.84
352.94	73.56
353.152	85.84
353.363	63.32
353.575	151.38
353.787	96.08
353.999	98.13
354.21	153.43
354.422	30.55
354.633	48.98
354.845	96.08
355.057	22.36
355.268	-26.79
355.48	73.56
355.692	40.79
355.903	46.93
356.115	16.21
356.326	120.66
356.538	61.27
356.749	12.12
356.961	71.51
357.172	106.32
357.384	10.07
357.595	85.84
357.807	-14.51
358.018	30.55
358.23	104.28
358.441	89.94
358.653	89.94
358.864	71.51
359.075	40.79
359.287	32.6
359.498	104.28
359.709	112.47
359.921	30.55
360.132	32.6
360.344	106.32
360.555	-67.75
360.766	38.74
360.977	61.27
361.189	83.8
361.4	8.02
361.611	137.04
361.823	42.84
362.034	91.99
362.245	10.07
362.456	112.47
362.667	106.32
362.879	46.93
363.09	73.56
363.301	87.89
363.512	40.79
363.723	40.79
363.935	59.22
364.146	79.7
364.357	104.28
364.568	-2.22
364.779	-26.79
364.99	61.27
365.201	34.64
365.412	63.32
365.623	139.09
365.834	55.12
366.045	104.28
366.256	5.97
366.467	83.8
366.678	18.26
366.889	30.55
367.1	67.41
367.311	73.56
367.522	18.26
367.733	149.33
367.944	104.28
368.155	36.69
368.366	46.93
368.577	108.37
368.788	110.42
368.999	30.55
369.209	22.36
369.42	124.76
369.631	218.96
369.842	46.93
370.053	120.66
370.264	59.22
370.474	18.26
370.685	81.75
370.896	67.41
371.107	48.98
371.317	48.98
371.528	73.56
371.739	153.43
371.95	147.28
372.16	51.03
372.371	22.36
372.582	53.08
372.792	94.04
373.003	51.03
373.214	38.74
373.424	55.12
373.635	42.84
373.846	104.28
374.056	120.66
374.267	46.93
374.477	83.8
374.688	87.89
374.898	63.32
375.109	100.18
375.319	87.89
375.53	98.13
375.74	67.41
375.951	112.47
376.161	59.22
376.372	124.76
376.582	114.52
376.793	42.84
377.003	73.56
377.214	55.12
377.424	87.89
377.635	112.47
377.845	-14.51
378.055	112.47
378.266	59.22
378.476	96.08
378.686	59.22
378.897	139.09
379.107	155.47
379.317	108.37
379.528	55.12
379.738	67.41
379.948	55.12
380.158	79.7
380.369	112.47
380.579	40.79
380.789	94.04
380.999	145.24
381.21	77.65
381.42	79.7
381.63	104.28
381.84	46.93
382.05	81.75
382.261	38.74
382.471	94.04
382.681	57.17
382.891	165.71
383.101	48.98
383.311	98.13
383.521	65.36
383.731	143.19
383.941	38.74
384.151	30.55
384.361	63.32
384.571	75.6
384.781	137.04
384.991	79.7
385.201	155.47
385.411	165.71
385.621	77.65
385.831	106.32
386.041	163.67
386.251	63.32
386.461	91.99
386.671	104.28
386.881	77.65
387.091	40.79
387.301	57.17
387.511	106.32
387.72	71.51
387.93	124.76
388.14	75.6
388.35	46.93
388.56	112.47
388.769	116.56
388.979	108.37
389.189	18.26
389.399	112.47
389.609	63.32
389.818	98.13
390.028	124.76
390.238	114.52
390.447	83.8
390.657	137.04
390.867	89.94
391.076	91.99
391.286	149.33
391.496	104.28
391.705	163.67
391.915	186.19
392.125	147.28
392.334	73.56
392.544	198.48
392.753	130.9
392.963	100.18
393.172	145.24
393.382	73.56
393.591	104.28
393.801	55.12
394.01	118.61
394.22	114.52
394.429	132.95
394.639	141.14
394.848	169.81
395.058	42.84
395.267	73.56
395.477	24.4
395.686	114.52
395.895	124.76
396.105	124.76
396.314	173.91
396.524	153.43
396.733	55.12
396.942	161.62
397.152	175.95
397.361	137.04
397.57	210.77
397.78	139.09
397.989	153.43
398.198	223.06
398.407	165.71
398.617	104.28
398.826	180.05
399.035	91.99
399.244	139.09
399.453	137.04
399.663	100.18
399.872	163.67
400.081	118.61
400.29	124.76
400.499	157.52
400.708	192.34
400.917	116.56
401.127	188.24
401.336	145.24
401.545	237.39
401.754	155.47
401.963	175.95
402.172	114.52
402.381	128.85
402.59	200.53
402.799	184.15
403.008	216.91
403.217	194.39
403.426	210.77
403.635	153.43
403.844	83.8
404.053	202.58
404.262	210.77
404.471	257.87
404.68	169.81
404.888	202.58
405.097	214.87
405.306	210.77
405.515	165.71
405.724	235.35
405.933	218.96
406.142	208.72
406.35	245.59
406.559	270.16
406.768	167.76
406.977	286.54
407.185	212.82
407.394	282.45
407.603	294.74
407.812	350.03
408.02	298.83
408.229	317.26
408.438	268.11
408.646	257.87
408.855	378.7
409.064	343.89
409.272	300.88
409.481	390.99
409.69	290.64
409.898	335.7
410.107	399.18
410.315	438.09
410.524	460.62
410.733	493.39
410.941	423.76
411.15	499.53
411.358	382.8
411.567	599.88
411.775	526.16
411.984	565.07
412.192	522.06
412.401	530.25
412.609	649.04
412.818	628.56
413.026	651.08
413.234	669.52
413.443	614.22
413.651	710.47
413.86	698.19
414.068	825.16
414.276	786.25
414.485	825.16
414.693	857.93
414.901	894.79
415.11	882.5
415.318	915.27
415.526	876.36
415.734	1003.33
415.943	982.85
416.151	1089.35
416.359	1021.77
416.567	1097.54
416.776	1111.88
416.984	1193.8
417.192	1271.62
417.4	1269.57
417.608	1263.43
417.817	1326.91
418.025	1337.15
418.233	1513.28
418.441	1398.59
418.649	1529.66
418.857	1619.77
419.065	1595.2
419.273	1578.81
419.481	1816.38
419.689	1873.72
419.897	1949.5
420.105	1945.4
420.313	1949.5
420.521	2103.09
420.729	2170.68
420.937	2176.82
421.145	2299.7
421.353	2357.04
421.561	2537.26
421.769	2498.35
421.977	2578.22
422.185	2594.61
422.393	2823.98
422.601	2877.23
422.809	2909.99
423.017	2883.37
423.224	2957.1
423.432	3190.56
423.64	3168.04
423.848	3579.68
424.056	3333.92
424.263	3643.17
424.471	3700.51
424.679	3761.95
424.887	3972.89
425.094	3974.94
425.302	4157.21
425.51	4237.08
425.718	4239.12
425.925	4306.71
426.133	4448.02
426.341	4679.44
426.548	4972.3
426.756	5076.74
426.964	4990.73
427.171	5381.89
427.379	5338.88
427.586	5535.49
427.794	5725.95
428.001	6020.86
428.209	6283
428.417	6086.39
428.624	6778.61
428.832	6557.43
429.039	6594.29
429.247	6731.5
429.454	7161.58
429.662	7730.91
429.869	7157.48
430.076	7792.35
430.284	7560.93
430.491	7798.49
430.699	8281.81
430.906	8148.7
431.114	8189.66
431.321	8599.25
431.528	8885.97
431.736	9320.14
431.943	9785.02
432.15	9230.02
432.358	9533.12
432.565	9957.05
432.772	9907.9
432.979	10309.3
433.187	10567.35
433.394	10567.35
433.601	11554.47
433.808	11468.45
434.016	11540.13
434.223	11906.72
434.43	12662.42
434.637	12295.83
434.844	13196.94
435.052	13358.73
435.259	13342.35
435.466	13416.07
435.673	13481.61
435.88	13909.63
436.087	14886.51
436.294	15076.98
436.501	14542.46
436.708	14958.19
436.915	15357.55
437.122	15998.56
437.329	16176.73
437.537	16504.41
437.743	16795.22
437.95	16479.83
438.157	17894.98
438.364	18388.54
438.571	18046.53
438.778	18208.32
438.985	19623.47
439.192	18824.76
439.399	19600.94
439.606	19002.93
439.813	20473.37
440.02	21648.91
440.227	20985.37
440.433	20794.9
440.64	21423.63
440.847	21257.74
441.054	22078.98
441.261	23125.49
441.467	23090.68
441.674	23406.06
441.881	24417.76
442.088	24317.41
442.294	24350.18
442.501	24563.17
442.708	24993.24
442.914	26432.96
443.121	26994.11
443.328	26359.24
443.534	28431.78
443.741	27424.18
443.948	27243.96
444.154	29308.31
444.361	28949.92
444.568	29128.09
444.774	28829.09
444.981	29447.57
445.187	30018.96
445.394	31442.29
445.6	31133.05
445.807	34067.79
446.013	32705.89
446.22	33312.09
446.426	34633.03
446.633	34839.87
446.839	36142.38
447.046	34221.39
447.252	36314.41
447.459	36523.3
447.665	36629.8
447.871	37977.36
448.078	39654.65
448.284	37506.33
448.491	38690.05
448.697	39978.23
448.903	40922.34
449.11	40416.49
449.316	40262.89
449.522	40879.33
449.728	42388.69
449.935	42366.16
450.141	42048.72
450.347	43375.81
450.553	41616.6
450.76	42441.93
450.966	44031.16
451.172	43121.86
451.378	44526.77
451.584	43691.19
451.791	44485.81
451.997	44567.73
452.203	44778.67
452.409	45210.79
452.615	45044.9
452.821	43340.99
453.027	43136.2
453.233	45155.49
453.44	43543.74
453.646	43558.08
453.852	43576.51
454.058	45001.89
454.264	43533.5
454.47	44491.95
454.676	43271.36
454.882	44407.98
455.088	40928.48
455.294	41422.05
455.5	42323.15
455.705	42484.94
455.911	40865
456.117	40146.16
456.323	39597.31
456.529	37709.08
456.735	39238.91
456.941	38319.37
457.147	37588.25
457.352	36613.41
457.558	36164.91
457.764	36023.6
457.97	35826.99
458.176	34643.27
458.381	34667.84
458.587	33158.49
458.793	32585.06
458.999	31434.1
459.204	33467.73
459.41	32726.37
459.616	30735.74
459.821	30457.22
460.027	30676.35
460.233	29662.61
460.438	28364.2
460.644	28437.92
460.85	27385.27
461.055	26729.92
461.261	26768.83
461.466	24684
461.672	23737.84
461.878	25482.7
462.083	23889.38
462.289	23698.92
462.494	23408.11
462.7	22431.23
462.905	21724.68
463.111	22427.14
463.316	22681.08
463.522	22081.03
463.727	21886.47
463.932	21843.46
464.138	21419.53
464.343	21554.7
464.549	21427.73
464.754	21825.03
464.959	21743.11
465.165	21104.15
465.37	20313.63
465.575	19895.85
465.781	20608.54
465.986	20725.27
466.191	19895.85
466.397	19826.21
466.602	18335.29
466.807	19512.88
467.012	19349.04
467.218	19193.39
467.423	19029.55
467.628	19193.39
467.833	19740.2
468.038	19011.12
468.244	18601.53
468.449	19367.47
468.654	18675.26
468.859	18374.2
469.064	18175.55
469.269	17735.24
469.474	17675.85
469.679	18218.56
469.885	17595.98
470.09	17751.62
470.295	17765.96
470.5	17274.45
470.705	17577.55
470.91	17126.99
471.115	16883.28
471.32	17186.38
471.525	17231.44
471.73	16553.56
471.935	16574.04
472.139	15779.43
472.344	16174.69
472.549	16008.8
472.754	16004.71
472.959	15681.13
473.164	15054.45
473.369	15013.49
473.574	15634.02
473.778	15494.76
473.983	15193.71
474.188	15365.74
474.393	14683.77
474.598	14468.73
474.802	14648.95
475.007	14286.46
475.212	14562.94
475.417	13846.15
475.621	14063.23
475.826	13842.05
476.031	13684.36
476.235	13248.14
476.44	13776.52
476.645	13248.14
476.849	13137.55
477.054	13188.75
477.259	12920.46
477.463	12748.43
477.668	12873.36
477.872	12838.55
478.077	12523.16
478.282	12183.2
478.486	12050.08
478.691	12072.61
478.895	12138.14
479.1	12097.18
479.304	12080.8
479.509	11583.14
479.713	11777.7
479.918	11538.09
480.122	11413.16
480.326	11728.55
480.531	11450.02
480.735	11495.08
480.94	11273.9
481.144	11593.38
481.348	11165.35
481.553	11234.99
481.757	11232.94
481.961	11243.18
482.166	11265.71
482.37	11081.39
482.574	11026.09
482.778	10948.27
482.983	11255.47
483.187	11214.51
483.391	11286.19
483.595	10999.47
483.8	10917.55
484.004	11042.48
484.208	11179.69
484.412	11095.72
484.616	11206.31
484.821	11026.09
485.025	10933.93
485.229	11163.31
485.433	10999.47
485.637	10847.92
485.841	10989.23
486.045	10849.97
486.249	10835.63
486.453	10720.95
486.657	10837.68
486.861	11116.2
487.065	10804.91
487.269	11093.68
487.473	10657.46
487.677	10923.69
487.881	11067.05
488.085	10952.37
488.289	10962.61
488.493	10880.69
488.697	11298.47
488.901	10745.52
489.105	10946.22
489.309	11108.01
489.512	10895.02
489.716	11038.38
489.92	10911.41
490.124	11042.48
490.328	11212.46
490.531	11200.17
490.735	11151.02
490.939	11265.71
491.143	11126.44
491.346	11202.22
491.55	11204.27
491.754	11120.3
491.958	11208.36
492.161	10923.69
492.365	11503.27
492.569	11452.07
492.772	11284.14
492.976	11544.23
493.18	11626.15
493.383	11845.28
493.587	11677.35
493.79	11566.76
493.994	11787.94
494.197	11835.04
494.401	11796.13
494.605	11996.83
494.808	11984.54
495.012	12261.02
495.215	12164.76
495.419	12342.94
495.622	12088.99
495.825	12252.83
496.029	12424.86
496.232	12639.89
496.436	12684.95
496.639	12951.18
496.843	12781.2
497.046	13129.36
497.249	13026.96
497.453	13074.06
497.656	13317.77
497.859	13522.57
498.063	13495.94
498.266	13739.65
498.469	13637.25
498.673	13659.78
498.876	13874.82
499.079	14184.06
499.282	14167.68
499.485	14261.88
499.689	14145.15
499.892	14759.54
500.095	14728.82
500.298	14927.47
500.501	14775.92
500.705	15382.12
500.908	15502.95
501.111	15494.76
501.314	15642.21
501.517	15890.02
501.72	15922.79
501.923	16078.43
502.126	16438.87
502.329	16782.93
502.532	16737.88
502.735	16797.27
502.938	16997.97
503.141	17153.62
503.344	17294.93
503.547	17223.25
503.75	17796.68
503.953	17866.31
504.156	18167.36
504.359	18191.94
504.562	18370.11
504.765	18613.82
504.968	18847.29
505.17	19064.37
505.373	19152.43
505.576	19478.06
505.779	19660.33
505.982	19748.39
506.185	20045.35
506.387	19772.97
506.59	20041.25
506.793	20465.18
506.996	20563.48
507.198	21294.61
507.401	20971.03
507.604	21169.68
507.807	21839.37
508.009	22031.88
508.212	21730.83
508.415	21954.05
508.617	22595.07
508.82	22609.4
509.022	22562.3
509.225	23059.96
509.428	23201.27
509.63	23586.29
509.833	23594.48
510.035	24264.16
510.238	23737.84
510.44	24157.67
510.643	24749.53
510.845	24770.01
511.048	24876.51
511.25	25165.27
511.453	25130.45
511.655	26121.67
511.858	25900.49
512.06	26238.4
512.262	26617.28
512.465	26156.49
512.667	26934.71
512.87	27024.82
513.072	27016.63
513.274	27712.94
513.477	27618.74
513.679	28265.89
513.881	28310.95
514.084	28525.99
514.286	28487.07
514.488	28999.07
514.69	29590.93
514.893	29449.62
515.095	29595.03
515.297	29590.93
515.499	29869.45
515.701	30541.19
515.904	30625.15
516.106	30770.56
516.308	31217.02
516.51	31505.78
516.712	31507.83
516.914	31825.26
517.116	32329.06
517.318	32441.7
517.52	32345.45
517.722	32466.28
517.925	33172.83
518.127	33414.49
518.329	33508.69
518.531	33387.86
518.733	34440.52
518.935	34372.94
519.136	34184.52
519.338	34573.64
519.54	34723.14
519.742	34979.14
519.944	34676.04
520.146	35480.89
520.348	36236.59
520.55	35874.1
520.752	36001.07
520.954	36814.12
521.155	36138.29
521.357	36990.24
521.559	37336.35
521.761	37596.44
521.963	37614.87
522.164	37641.49
522.366	37692.69
522.568	38118.67
522.77	37819.67
522.971	38509.83
523.173	37981.46
523.375	38976.77
523.576	38862.08
523.778	38817.03
523.98	39245.05
524.181	39312.64
524.383	39365.88
524.584	39621.88
524.786	39415.04
524.988	38819.08
525.189	39822.58
525.391	40045.81
525.592	40445.16
525.794	40551.66
525.995	40269.04
526.197	40178.93
526.398	40242.42
526.6	40656.1
526.801	40813.8
527.003	40838.37
527.204	41315.55
527.406	41030.88
527.607	40946.92
527.808	41305.31
528.01	40834.28
528.211	41028.84
528.412	41874.65
528.614	41213.15
528.815	41075.94
529.016	41800.92
529.218	41405.66
529.419	41422.05
529.62	41002.21
529.822	41198.82
530.023	41514.2
530.224	41401.57
530.425	41614.55
530.626	41100.51
530.828	41485.53
531.029	41678.04
531.23	41331.93
531.431	41594.07
531.632	41219.3
531.833	41610.46
532.035	41202.91
532.236	41293.02
532.437	41391.33
532.638	41274.59
532.839	41080.03
533.04	41622.75
533.241	41106.66
533.442	42142.93
533.643	41428.19
533.844	41233.63
534.045	41329.89
534.246	41024.74
534.447	41168.1
534.648	41166.05
534.849	41364.7
535.05	40617.19
535.251	41264.35
535.451	41194.72
535.652	41315.55
535.853	40803.56
536.054	41190.62
536.255	40897.77
536.456	40635.63
536.657	41336.03
536.857	40858.85
537.058	40588.52
537.259	41118.95
537.46	40946.92
537.66	40883.43
537.861	40865
538.062	40596.71
538.263	40627.43
538.463	40637.67
538.664	40690.92
538.865	40928.48
539.065	40643.82
539.266	40180.98
539.466	40658.15
539.667	40223.98
539.868	41239.78
540.068	40471.79
540.269	40207.6
540.469	40584.43
540.67	40348.91
540.87	40285.42
541.071	40565.99
541.271	40658.15
541.472	40408.3
541.672	40326.38
541.873	39918.84
542.073	39699.7
542.274	40461.55
542.474	40004.85
542.675	39566.59
542.875	40299.76
543.075	39658.74
543.276	39546.11
543.476	40209.65
543.676	39974.13
543.877	39841.01
544.077	39585.02
544.277	40037.62
544.478	39781.62
544.678	39884.02
544.878	40174.83
545.078	39933.17
545.279	39740.66
545.479	39695.61
545.679	39982.32
545.879	39671.03
546.079	39847.16
546.28	40140.02
546.48	39822.58
546.68	39734.52
546.88	40010.99
547.08	39589.11
547.28	39861.49
547.48	39691.51
547.68	40338.67
547.88	39515.39
548.081	39988.47
548.281	40049.91
548.481	39675.13
548.681	40131.82
548.881	40013.04
549.081	40109.3
549.28	39685.37
549.48	40338.67
549.68	39558.39
549.88	40330.48
550.08	39562.49
550.28	39951.6
550.48	39838.97
550.68	40375.53
550.88	39765.24
551.08	39912.69
551.279	40156.4
551.479	39730.42
551.679	40258.8
551.879	39863.54
552.079	40082.67
552.278	40473.84
552.478	40099.06
552.678	39791.86
552.878	40469.74
553.077	40072.43
553.277	39660.79
553.477	40164.59
553.676	40189.17
553.876	40277.23
554.076	40047.86
554.275	40051.95
554.475	39646.46
554.674	40049.91
554.874	40414.44
555.074	39931.12
555.273	40342.77
555.473	40262.89
555.672	40219.89
555.872	40305.9
556.071	40310
556.271	40232.18
556.47	40086.77
556.67	39890.16
556.869	40142.06
557.068	40369.39
557.268	39898.36
557.467	40242.42
557.667	39974.13
557.866	40465.64
558.065	40443.12
558.265	40223.98
558.464	40088.82
558.663	40303.85
558.863	40054
559.062	40742.12
559.261	40162.54
559.461	40799.46
559.66	39996.66
559.859	40387.82
560.058	40037.62
560.258	40162.54
560.457	40123.63
560.656	40475.88
560.855	39998.71
561.054	40357.1
561.253	40213.74
561.453	40125.68
561.652	40615.15
561.851	39787.77
562.05	39965.94
562.249	39726.33
562.448	40565.99
562.647	40045.81
562.846	39933.17
563.045	40252.66
563.244	39603.45
563.443	40422.64
563.642	39480.57
563.841	39941.36
564.04	39603.45
564.239	40183.02
564.438	39671.03
564.637	39724.28
564.836	40144.11
565.035	39718.14
565.234	39849.21
565.432	39798.01
565.631	39822.58
565.83	39544.06
566.029	39537.91
566.228	39464.19
566.427	39316.73
566.625	39361.79
566.824	38980.87
567.023	39660.79
567.222	38604.04
567.42	39193.86
567.619	39324.93
567.818	39314.69
568.016	38952.19
568.215	39159.04
568.414	38694.15
568.612	39359.74
568.811	38903.04
569.01	38960.39
569.208	38423.82
569.407	38638.86
569.605	38540.55
569.804	39005.44
570.002	38169.87
570.201	38604.04
570.4	38341.9
570.598	38239.5
570.797	38067.47
570.995	38247.69
571.193	37627.16
571.392	38135.06
571.59	37766.42
571.789	38018.32
571.987	37709.08
572.186	37524.76
572.384	37448.99
572.582	37580.06
572.781	37451.03
572.979	37309.72
573.177	37100.83
573.376	37414.17
573.574	37125.41
573.772	37244.19
573.971	36975.91
574.169	36777.25
574.367	36449.58
574.565	36998.43
574.763	36476.2
574.962	36381.99
575.16	36158.77
575.358	36425
575.556	36031.79
575.754	36783.4
575.952	35855.67
576.151	36080.94
576.349	35908.91
576.547	35669.3
576.745	35861.81
576.943	35573.05
577.141	35421.5
577.339	35814.71
577.537	35390.78
577.735	35396.92
577.933	35016
578.131	35149.12
578.329	34870.59
578.527	34637.12
578.725	34782.53
578.923	34796.87
579.121	34508.1
579.319	34616.65
579.516	34690.37
579.714	34594.12
579.912	34614.6
580.11	34116.94
580.308	34594.12
580.506	34282.83
580.704	33602.9
580.901	34004.3
581.099	34186.57
581.297	33869.14
581.495	34008.4
581.692	33830.23
581.89	33369.43
582.088	33797.46
582.285	33488.21
582.483	33645.91
582.681	33181.02
582.878	33148.25
583.076	33191.26
583.274	33346.9
583.471	32798.05
583.669	32972.13
583.866	32902.5
584.064	32736.61
584.262	32640.36
584.459	32830.82
584.657	32408.93
584.854	32687.46
585.052	32138.6
585.249	32519.53
585.447	32374.12
585.644	32222.57
585.841	32210.28
586.039	32474.47
586.236	32058.73
586.434	31855.98
586.631	31565.17
586.828	32140.65
587.026	31874.41
587.223	31985.01
587.42	31536.5
587.618	31845.74
587.815	31206.78
588.012	31544.69
588.21	31409.53
588.407	31624.56
588.604	31083.9
588.801	31343.99
588.999	31403.38
589.196	31327.61
589.393	31245.69
589.59	31251.83
589.787	30641.54
589.984	30793.09
590.182	30559.62
590.379	31126.91
590.576	30473.6
590.773	30711.17
590.97	30436.74
591.167	30676.35
591.364	30168.46
591.561	30403.97
591.758	29975.95
591.955	30041.48
592.152	30389.64
592.349	30074.25
592.546	30346.63
592.743	29982.09
592.94	29711.76
593.137	29990.28
593.334	30180.74
593.531	29500.82
593.727	29572.5
593.924	29431.19
594.121	29455.76
594.318	29621.65
594.515	29218.2
594.712	29902.22
594.908	29373.85
595.105	29742.48
595.302	29496.72
595.499	29201.82
595.696	29187.48
595.892	28966.3
596.089	29431.19
596.286	29283.73
596.482	29152.66
596.679	29199.77
596.876	28968.35
597.072	28851.61
597.269	29535.63
597.466	28702.11
597.662	28769.69
597.859	29097.37
598.055	28755.36
598.252	28607.9
598.448	28964.25
598.645	28603.81
598.841	28577.19
599.038	28722.59
599.234	28800.41
599.431	28728.73
599.627	28452.26
599.824	28878.24
600.02	28593.57
600.217	28487.07
600.413	28659.1
600.609	28568.99
600.806	28247.46
601.002	28722.59
601.198	28210.6
601.395	28458.4
601.591	28495.27
601.787	28302.76
601.984	28024.23
602.18	28388.77
602.376	28077.48
602.572	28280.23
602.769	28237.22
602.965	28089.77
603.161	28351.91
603.357	27964.84
603.553	28224.93
603.75	28171.69
603.946	27710.89
604.142	27952.55
604.338	27893.16
604.534	28683.68
604.73	27948.46
604.926	28388.77
605.122	28196.26
605.318	28134.82
605.514	27991.47
605.71	27962.79
605.906	28065.19
606.102	27829.68
606.298	27899.31
606.494	27829.68
606.69	28016.04
606.886	28065.19
607.082	27882.92
607.278	28079.53
607.474	27837.87
607.67	28069.29
607.866	27596.21
608.062	28292.52
608.257	27973.03
608.453	28153.26
608.649	27995.56
608.845	27934.12
609.041	28378.53
609.236	28149.16
609.432	27628.98
609.628	28233.13
609.824	28384.68
610.019	27968.94
610.215	28097.96
610.411	28130.73
610.606	28077.48
610.802	28442.02
610.998	28028.33
611.193	28274.09
611.389	28149.16
611.584	28104.1
611.78	27997.61
611.976	28050.86
612.171	27895.21
612.367	28349.86
612.562	28003.75
612.758	27950.51
612.953	27643.31
613.149	28290.47
613.344	27784.62
613.539	28280.23
613.735	27997.61
613.93	28415.4
614.126	27692.46
614.321	28306.85
614.517	28155.3
614.712	28167.59
614.907	27985.32
615.103	27942.31
615.298	28102.06
615.493	28583.33
615.688	27655.6
615.884	28474.79
616.079	27872.68
616.274	28065.19
616.47	27981.23
616.665	28165.54
616.86	27688.37
617.055	28091.82
617.25	27772.33
617.445	28024.23
617.641	27450.8
617.836	27884.97
618.031	27561.39
618.226	28126.63
618.421	27975.08
618.616	27485.62
618.811	27391.41
619.006	27573.68
619.201	27102.65
619.396	27385.27
619.591	27121.08
619.786	27385.27
619.981	27008.44
620.176	27221.43
620.371	27045.3
620.566	26783.16
620.761	26916.28
620.956	26680.77
621.151	26363.33
621.346	26340.8
621.541	26078.66
621.735	26693.05
621.93	26140.1
622.125	26381.76
622.32	26043.85
622.515	26045.9
622.709	25728.46
622.904	25591.25
623.099	25441.75
623.294	25447.89
623.488	25554.38
623.683	25376.21
623.878	24853.98
624.072	24798.68
624.267	25449.94
624.462	24964.57
624.656	24757.72
624.851	24749.53
625.046	24706.52
625.24	24448.48
625.435	24434.14
625.629	24262.12
625.824	24329.7
626.018	23971.3
626.213	23621.1
626.407	23991.78
626.602	23606.77
626.796	23664.11
626.991	23574
627.185	23651.82
627.38	23127.54
627.574	23158.26
627.768	22812.15
627.963	22930.94
628.157	22937.08
628.352	22767.1
628.546	22648.32
628.74	22793.72
628.935	22318.59
629.129	22748.67
629.323	22021.64
629.517	22013.45
629.712	22267.39
629.906	21906.95
630.1	21411.34
630.294	21829.13
630.489	21247.51
630.683	21958.15
630.877	21190.16
631.071	21255.7
631.265	21431.82
631.459	21222.93
631.653	21227.03
631.848	20801.05
632.042	20827.67
632.236	21020.18
632.43	20510.24
632.624	20788.76
632.818	20446.75
633.012	20145.7
633.206	20282.91
633.4	20244
633.594	19783.21
633.788	20076.07
633.982	19770.92
634.176	19549.74
634.369	19738.15
634.563	19289.65
634.757	19670.57
634.951	19312.17
635.145	19527.21
635.339	19183.15
635.533	19375.66
635.726	18918.96
635.92	18738.74
636.114	18763.32
636.308	18611.77
636.501	18644.54
636.695	18581.05
636.889	18460.22
637.083	18366.01
637.276	18234.94
637.47	18146.88
637.664	18056.77
637.857	18087.49
638.051	17927.75
638.244	17557.07
638.438	17725
638.632	17561.16
638.825	17294.93
639.019	17167.95
639.212	17133.14
639.406	17204.81
639.599	17317.45
639.793	17204.81
639.986	16995.92
640.18	16901.72
640.373	16832.08
640.567	16371.29
640.76	16670.29
640.954	16361.05
641.147	16322.14
641.34	16322.14
641.534	16359
641.727	16060
641.92	15939.17
642.114	15861.35
642.307	16004.71
642.5	15787.62
642.694	15484.52
642.887	15640.17
643.08	15742.57
643.273	15406.7
643.467	15269.48
643.66	15365.74
643.853	15058.54
644.046	15095.41
644.239	15017.58
644.432	14974.58
644.626	14687.86
644.819	14966.38
645.012	14696.05
645.205	14505.59
645.398	14485.11
645.591	14442.1
645.784	14485.11
645.977	14220.92
646.17	14249.6
646.363	14229.12
646.556	14005.89
646.749	13921.92
646.942	14139.01
647.135	13866.63
647.328	13837.95
647.521	13629.06
647.714	13852.29
647.907	13420.17
648.099	13559.43
648.292	13516.42
648.485	13366.92
648.678	13020.81
648.871	12879.5
649.064	12809.87
649.256	13194.89
649.449	12852.88
649.642	12871.31
649.835	12656.28
650.027	12707.48
650.22	12652.18
650.413	12730
650.605	12555.93
650.798	12482.2
650.991	12304.03
651.183	12529.3
651.376	12187.29
651.568	12310.17
651.761	11988.64
651.954	12215.96
652.146	11970.21
652.339	11884.19
652.531	11761.31
652.724	11816.61
652.916	11640.48
653.109	11615.91
653.301	11732.64
653.494	11630.24
653.686	11364.01
653.879	11605.67
654.071	11433.64
654.263	11183.79
654.456	11239.08
654.648	11257.51
654.84	11003.57
655.033	11022
655.225	11007.66
655.417	10876.59
655.61	11177.64
655.802	10999.47
655.994	10897.07
656.186	10827.44
656.379	10749.62
656.571	10583.73
656.763	10669.75
656.955	10299.06
657.148	10675.89
657.34	10311.35
657.532	10442.42
657.724	10383.03
657.916	10462.9
658.108	10239.67
658.3	9983.68
658.492	10073.79
658.684	10141.37
658.876	10034.88
659.068	10024.64
659.26	9713.35
659.452	10063.55
659.644	9944.77
659.836	9776.83
660.028	9735.87
660.22	9733.82
660.412	9750.21
660.604	9400.01
660.796	9567.94
660.988	9475.78
661.18	9520.84
661.372	9256.65
661.563	9393.86
661.755	9096.91
661.947	9240.26
662.139	9404.1
662.331	9117.39
662.522	9076.43
662.714	9164.49
662.906	9033.42
663.097	8847.05
663.289	8902.35
663.481	8992.46
663.673	8902.35
663.864	8771.28
664.056	8672.98
664.247	8402.65
664.439	8330.97
664.631	8752.85
664.822	8621.78
665.014	8603.35
665.205	8347.35
665.397	8247
665.588	8388.31
665.78	8326.87
665.971	8099.55
666.163	8402.65
666.354	8199.9
666.546	8199.9
666.737	8099.55
666.929	7927.52
667.12	7945.95
667.311	8179.42
667.503	7864.03
667.694	8034.01
667.885	7923.42
668.077	7831.26
668.268	7755.49
668.459	7780.06
668.651	7976.67
668.842	7530.21
669.033	7714.53
669.224	7726.82
669.416	7595.75
669.607	7751.39
669.798	7642.85
669.989	7657.18
670.18	7225.06
670.371	7411.43
670.563	7180.01
670.754	7499.49
670.945	7415.52
671.136	7280.36
671.327	7304.93
671.518	7364.32
671.709	7292.65
671.9	7362.28
672.091	7286.5
672.282	7274.21
672.473	7118.57
672.664	6971.11
672.855	6989.55
673.046	7139.05
673.237	7122.66
673.428	6952.68
673.619	6997.74
673.809	7042.79
674	6856.43
674.191	7007.98
674.382	6858.48
674.573	6747.89
674.764	6811.37
674.954	6670.06
675.145	6670.06
675.336	6858.48
675.527	6641.39
675.717	6790.89
675.908	6784.75
676.099	6774.51
676.289	6637.3
676.48	6665.97
676.671	6782.7
676.861	6631.15
677.052	6645.49
677.243	6463.22
677.433	6571.76
677.624	6534.9
677.814	6514.42
678.005	6465.27
678.195	6502.13
678.386	6600.43
678.576	6432.5
678.767	6354.68
678.957	6467.31
679.148	6500.08
679.338	6514.42
679.529	6518.51
679.719	6278.9
679.909	6455.03
680.1	6334.2
680.29	6383.35
680.481	6330.1
680.671	6362.87
680.861	6248.18
681.052	6192.89
681.242	6354.68
681.432	6336.24
681.622	6321.91
681.813	6209.27
682.003	6076.15
682.193	6127.35
682.383	6170.36
682.573	6190.84
682.764	6162.17
682.954	6143.74
683.144	6051.58
683.334	6045.43
683.524	6162.17
683.714	6227.7
683.904	6127.35
684.094	5965.56
684.284	5945.08
684.474	6113.02
684.664	5977.85
684.854	5893.88
685.044	6092.54
685.234	6039.29
685.424	5947.13
685.614	5971.71
685.804	5938.94
685.994	5814.01
686.184	5848.83
686.374	5787.39
686.564	6102.78
686.753	5797.63
686.943	5836.54
687.133	5693.18
687.323	5707.52
687.513	5875.45
687.702	5762.81
687.892	5617.41
688.082	5775.1
688.272	5674.75
688.461	5588.74
688.651	5703.42
688.841	5721.85
689.03	5537.54
689.22	5650.18
689.41	5541.63
689.599	5568.26
689.789	5445.38
689.979	5469.95
690.168	5547.78
690.358	5494.53
690.547	5334.79
690.737	5439.23
690.926	5234.44
691.116	5347.08
691.305	5351.17
691.495	5396.23
691.684	5125.9
691.874	5201.67
692.063	5299.97
692.252	5232.39
692.442	5281.54
692.631	5052.17
692.82	5084.94
693.01	5109.51
693.199	5297.92
693.388	5109.51
693.578	5041.93
693.767	5185.29
693.956	5136.13
694.146	4955.91
694.335	5076.74
694.524	4978.44
694.713	4945.67
694.902	5076.74
695.092	4931.34
695.281	5003.02
695.47	4929.29
695.659	5007.11
695.848	4761.36
696.037	4773.64
696.226	4824.84
696.415	4775.69
696.604	4716.3
696.793	4710.16
696.982	4744.97
697.171	4618
697.36	4761.36
697.549	4667.15
697.738	4669.2
697.927	4724.49
698.116	4747.02
698.305	4611.85
698.494	4673.29
698.683	4687.63
698.872	4560.66
699.061	4589.33
699.25	4466.45
699.438	4413.2
699.627	4609.81
699.816	4579.09
700.005	4372.24
700.193	4609.81
700.382	4661.01
700.571	4468.5
700.76	4390.67
700.948	4536.08
701.137	4454.16
701.326	4472.59
701.514	4478.74
701.703	4450.07
701.892	4386.58
702.08	4503.31
702.269	4376.34
702.457	4357.91
702.646	4310.8
702.834	4374.29
703.023	4177.69
703.212	4448.02
703.4	4265.75
703.589	4249.36
703.777	4267.8
703.965	4325.14
704.154	4359.95
704.342	4085.53
704.531	4226.84
704.719	4110.1
704.907	4409.11
705.096	4210.45
705.284	4282.13
705.472	4069.14
705.661	3927.83
705.849	4169.49
706.037	4153.11
706.226	4005.66
706.414	3995.42
706.602	4071.19
706.79	4081.43
706.979	4005.66
707.167	3974.94
707.355	3970.84
707.543	3974.94
707.731	4081.43
707.919	4036.38
708.107	3819.29
708.296	3901.21
708.484	3880.73
708.672	3966.74
708.86	3854.11
709.048	3956.5
709.236	3862.3
709.424	3872.54
709.612	3897.11
709.8	3813.15
709.988	3864.35
710.176	3743.52
710.364	3807
710.551	3755.8
710.739	3972.89
710.927	3733.28
711.115	3807
711.303	3833.63
711.491	3649.31
711.679	3563.29
711.866	3741.47
712.054	3757.85
712.242	3606.3
712.43	3620.64
712.617	3614.49
712.805	3782.43
712.993	3579.68
713.181	3618.59
713.368	3686.17
713.556	3649.31
713.744	3630.88
713.931	3598.11
714.119	3645.21
714.306	3528.48
714.494	3571.49
714.682	3565.34
714.869	3426.08
715.057	3528.48
715.244	3462.94
715.432	3555.1
715.619	3540.77
715.807	3536.67
715.994	3460.9
716.182	3479.33
716.369	3516.19
716.556	3456.8
716.744	3245.86
716.931	3485.47
717.119	3364.64
717.306	3342.11
717.493	3440.42
717.681	3356.45
717.868	3381.03
718.055	3325.73
718.242	3292.96
718.43	3317.54
718.617	3424.03
718.804	3262.24
718.991	3374.88
719.179	3272.48
719.366	3344.16
719.553	3292.96
719.74	3374.88
719.927	3278.63
720.114	3292.96
720.301	3110.69
720.488	3209
720.676	3110.69
720.863	3237.67
721.05	3188.52
721.237	3102.5
721.424	3256.1
721.611	3211.04
721.798	3170.08
721.985	3055.4
722.172	3127.08
722.358	2998.06
722.545	3174.18
722.732	3057.45
722.919	3151.65
723.106	3129.13
723.293	3143.46
723.48	3188.52
723.667	2955.05
723.853	2987.82
724.04	2987.82
724.227	3082.02
724.414	3032.87
724.6	2979.62
724.787	2979.62
724.974	3112.74
725.161	2932.52
725.347	2907.94
725.534	3047.21
725.72	2930.47
725.907	2883.37
726.094	2932.52
726.28	2969.38
726.467	2924.33
726.653	3012.39
726.84	3020.58
727.027	3028.78
727.213	2916.14
727.4	2819.88
727.586	2926.38
727.773	2844.46
727.959	2916.14
728.145	2774.83
728.332	2842.41
728.518	2729.77
728.705	2772.78
728.891	2787.11
729.077	2746.16
729.264	2705.2
729.45	2850.6
729.636	2809.64
729.823	2789.16
730.009	2760.49
730.195	2842.41
730.382	2885.42
730.568	2676.52
730.754	2918.18
730.94	2778.92
731.126	2780.97
731.313	2889.51
731.499	2701.1
731.685	2770.73
731.871	2791.21
732.057	2774.83
732.243	2684.72
732.429	2711.34
732.615	2793.26
732.801	2572.08
732.987	2733.87
733.173	2762.54
733.359	2680.62
733.545	2780.97
733.731	2537.26
733.917	2664.24
734.103	2729.77
734.289	2602.8
734.475	2567.98
734.661	2656.04
734.847	2529.07
735.033	2578.22
735.219	2533.17
735.404	2500.4
735.59	2555.69
735.776	2586.41
735.962	2572.08
736.148	2594.61
736.333	2637.61
736.519	2512.69
736.705	2574.13
736.89	2561.84
737.076	2500.4
737.262	2553.65
737.447	2520.88
737.633	2500.4
737.819	2486.06
738.004	2486.06
738.19	2432.82
738.375	2391.86
738.561	2455.34
738.747	2467.63
738.932	2250.55
739.118	2422.58
739.303	2430.77
739.489	2459.44
739.674	2434.86
739.859	2307.89
740.045	2520.88
740.23	2326.32
740.416	2182.96
740.601	2340.66
740.786	2367.28
740.972	2258.74
741.157	2367.28
741.342	2348.85
741.528	2377.52
741.713	2346.8
741.898	2332.47
742.084	2221.88
742.269	2332.47
742.454	2383.66
742.639	2332.47
742.824	2252.59
743.01	2301.75
743.195	2252.59
743.38	2168.63
743.565	2242.36
743.75	2215.73
743.935	2201.4
744.12	2197.3
744.305	2074.42
744.49	2201.4
744.675	2088.76
744.86	2217.78
745.045	2189.11
745.23	2053.94
745.415	2074.42
745.6	2113.33
745.785	2103.09
745.97	2094.9
746.155	2201.4
746.34	2039.61
746.525	2004.79
746.71	2162.48
746.895	1998.65
747.079	1980.22
747.264	1984.31
747.449	2082.61
747.634	1914.68
747.819	1992.5
748.003	1939.26
748.188	1900.34
748.373	1898.3
748.557	1879.86
748.742	1926.97
748.927	1834.81
749.111	1832.76
749.296	1816.38
749.481	1890.1
749.665	1808.19
749.85	1744.7
750.034	1857.34
750.219	1851.19
750.404	1601.34
750.588	1742.65
750.773	1816.38
750.957	1713.98
751.141	1670.97
751.326	1693.5
751.51	1718.08
751.695	1691.45
751.879	1713.98
752.064	1752.89
752.248	1595.2
752.432	1617.72
752.617	1699.64
752.801	1701.69
752.985	1529.66
753.17	1634.11
753.354	1630.01
753.538	1529.66
753.722	1591.1
753.907	1572.67
754.091	1595.2
754.275	1587.01
754.459	1578.81
754.643	1498.94
754.828	1500.99
755.012	1550.14
755.196	1558.33
755.38	1556.29
755.564	1384.26
755.748	1537.85
755.932	1427.26
756.116	1353.54
756.3	1470.27
756.484	1406.78
756.668	1341.25
756.852	1308.48
757.036	1425.22
757.22	1425.22
757.404	1326.91
757.588	1357.63
757.772	1457.98
757.956	1316.67
758.14	1406.78
758.323	1294.15
758.507	1294.15
758.691	1314.63
758.875	1371.97
759.059	1374.02
759.242	1206.08
759.426	1259.33
759.61	1253.19
759.794	1261.38
759.977	1298.24
760.161	1296.19
760.345	1331.01
760.528	1333.06
760.712	1285.95
760.895	1140.55
761.079	1234.75
761.263	1226.56
761.446	1109.83
761.63	1214.27
761.813	1214.27
761.997	1161.03
762.18	1107.78
762.364	1244.99
762.547	1165.12
762.731	1095.49
762.914	1111.88
763.098	1075.01
763.281	1038.15
763.464	1097.54
763.648	1087.3
763.831	1115.97
764.015	1132.36
764.198	1187.65
764.381	1128.26
764.564	1062.73
764.748	1144.64
764.931	1128.26
765.114	1093.44
765.297	1064.77
765.481	1079.11
765.664	1040.2
765.847	1115.97
766.03	1054.53
766.213	1068.87
766.397	1007.43
766.58	1058.63
766.763	1081.16
766.946	984.9
767.129	1099.59
767.312	1005.38
767.495	960.33
767.678	1007.43
767.861	1040.2
768.044	1009.48
768.227	1003.33
768.41	1019.72
768.593	1001.29
768.776	1015.62
768.959	915.27
769.142	1034.05
769.324	982.85
769.507	989
769.69	862.02
769.873	882.5
770.056	948.04
770.239	989
770.421	933.7
770.604	919.37
770.787	984.9
770.97	888.65
771.152	898.89
771.335	905.03
771.518	991.05
771.7	1040.2
771.883	894.79
772.066	866.12
772.248	919.37
772.431	892.74
772.613	890.7
772.796	821.06
772.978	888.65
773.161	894.79
773.343	843.59
773.526	862.02
773.708	796.49
773.891	755.53
774.073	825.16
774.256	808.78
774.438	913.22
774.621	827.21
774.803	927.56
774.985	790.35
775.168	866.12
775.35	812.87
775.532	814.92
775.715	698.19
775.897	878.41
776.079	857.93
776.261	849.74
776.444	751.43
776.626	810.82
776.808	845.64
776.99	747.34
777.173	700.23
777.355	735.05
777.537	812.87
777.719	720.71
777.901	649.04
778.083	753.48
778.265	714.57
778.447	712.52
778.629	669.52
778.811	702.28
778.993	753.48
779.175	780.11
779.357	671.56
779.539	718.67
779.721	712.52
779.903	792.39
780.085	683.85
780.267	689.99
780.449	640.84
780.631	653.13
780.812	616.27
780.994	624.46
781.176	644.94
781.358	665.42
781.54	663.37
781.721	552.78
781.903	567.12
782.085	622.41
782.267	653.13
782.448	581.45
782.63	606.03
782.812	606.03
782.993	538.45
783.175	681.8
783.357	636.75
783.538	579.4
783.72	583.5
783.901	546.64
784.083	599.88
784.264	550.73
784.446	563.02
784.627	520.01
784.809	585.55
784.99	595.79
785.172	522.06
785.353	542.54
785.535	513.87
785.716	472.91
785.897	452.43
786.079	589.64
786.26	520.01
786.441	497.49
786.623	448.33
786.804	448.33
786.985	431.95
787.167	474.96
787.348	448.33
787.529	524.11
787.71	522.06
787.891	431.95
788.073	395.09
788.254	481.1
788.435	522.06
788.616	442.19
788.797	452.43
788.978	479.05
789.159	503.63
789.34	450.38
789.522	442.19
789.703	448.33
789.884	399.18
790.065	442.19
790.246	472.91
790.427	485.2
790.607	522.06
790.788	489.29
790.969	382.8
791.15	456.53
791.331	333.65
791.512	329.55
791.693	409.42
791.874	343.89
792.054	417.61
792.235	427.85
792.416	319.31
792.597	440.14
792.778	388.94
792.958	343.89
793.139	409.42
793.32	407.38
793.5	372.56
793.681	366.42
793.862	317.26
794.042	300.88
794.223	321.36
794.404	364.37
794.584	288.59
794.765	341.84
794.945	384.85
795.126	309.07
795.306	429.9
795.487	296.78
795.667	319.31
795.848	333.65
796.028	350.03
796.209	345.94
796.389	415.57
796.57	374.61
796.75	313.17
796.93	327.5
797.111	374.61
797.291	266.07
797.471	309.07
797.652	286.54
797.832	317.26
798.012	300.88
798.192	331.6
798.373	296.78
798.553	288.59
798.733	268.11
798.913	231.25
799.093	370.51
799.274	366.42
799.454	345.94
799.634	317.26
799.814	302.93
799.994	270.16
800.174	319.31
800.354	268.11
800.534	210.77
800.714	321.36
800.894	304.98
801.074	264.02
801.254	223.06
801.434	296.78
801.614	274.26
801.794	259.92
801.974	859.98
802.154	178
802.334	288.59
802.514	214.87
802.693	202.58
802.873	264.02
803.053	319.31
803.233	259.92
803.413	259.92
803.592	284.5
803.772	204.63
803.952	214.87
804.131	247.63
804.311	243.54
804.491	292.69
804.67	202.58
804.85	196.43
805.03	264.02
805.209	286.54
805.389	186.19
805.568	221.01
805.748	247.63
805.928	253.78
806.107	300.88
806.287	251.73
806.466	235.35
806.646	223.06
806.825	161.62
807.004	251.73
807.184	214.87
807.363	206.67
807.543	284.5
807.722	169.81
807.901	233.3
808.081	235.35
808.26	161.62
808.439	223.06
808.619	180.05
808.798	264.02
808.977	247.63
809.156	137.04
809.336	237.39
809.515	210.77
809.694	163.67
809.873	235.35
810.052	188.24
810.231	202.58
810.411	208.72
810.59	221.01
810.769	202.58
810.948	165.71
811.127	112.47
811.306	214.87
811.485	227.15
811.664	253.78
811.843	204.63
812.022	198.48
812.201	196.43
812.38	251.73
812.559	192.34
812.737	149.33
812.916	130.9
813.095	196.43
813.274	223.06
813.453	159.57
813.632	319.31
813.811	157.52
813.989	235.35
814.168	173.91
814.347	94.04
814.526	169.81
814.704	167.76
814.883	180.05
815.062	190.29
815.24	194.39
815.419	124.76
815.598	128.85
815.776	171.86
815.955	137.04
816.133	143.19
816.312	198.48
816.49	165.71
816.669	216.91
816.847	196.43
817.026	106.32
817.204	169.81
817.383	171.86
817.561	122.71
817.74	63.32
817.918	169.81
818.097	153.43
818.275	157.52
818.453	208.72
818.632	169.81
818.81	171.86
818.988	96.08
819.167	91.99
819.345	169.81
819.523	48.98
819.701	186.19
819.879	214.87
820.058	141.14
820.236	182.1
820.414	120.66
820.592	163.67
820.77	112.47
820.948	75.6
821.127	57.17
821.305	120.66
821.483	141.14
821.661	235.35
821.839	147.28
822.017	126.8
822.195	106.32
822.373	124.76
822.551	210.77
822.729	155.47
822.907	132.95
823.085	137.04
823.262	87.89
823.44	128.85
823.618	71.51
823.796	153.43
823.974	192.34
824.152	141.14
824.329	114.52
824.507	89.94
824.685	153.43
824.863	120.66
825.04	188.24
825.218	100.18
825.396	122.71
825.574	87.89
825.751	55.12
825.929	161.62
826.107	36.69
826.284	102.23
826.462	145.24
826.639	59.22
826.817	124.76
826.994	153.43
827.172	53.08
827.349	188.24
827.527	104.28
827.704	85.84
827.882	53.08
828.059	139.09
828.237	87.89
828.414	116.56
828.591	122.71
828.769	100.18
828.946	79.7
829.124	182.1
829.301	161.62
829.478	71.51
829.655	38.74
829.833	120.66
830.01	-2.22
830.187	55.12
830.364	165.71
830.542	106.32
830.719	89.94
830.896	194.39
831.073	73.56
831.25	96.08
831.427	110.42
831.604	81.75
831.782	110.42
831.959	89.94
832.136	63.32
832.313	186.19
832.49	91.99
832.667	120.66
832.844	106.32
833.021	145.24
833.198	42.84
833.374	75.6
833.551	79.7
833.728	87.89
833.905	55.12
834.082	42.84
834.259	81.75
834.436	145.24
834.612	57.17
834.789	110.42
834.966	30.55
835.143	124.76
835.319	26.45
835.496	145.24
835.673	128.85
835.85	75.6
836.026	71.51
836.203	59.22
836.38	94.04
836.556	96.08
836.733	34.64
836.909	130.9
837.086	38.74
837.262	73.56
837.439	63.32
837.616	102.23
837.792	104.28
837.968	79.7
838.145	100.18
838.321	118.61
838.498	132.95
838.674	63.32
838.851	141.14
839.027	137.04
839.203	106.32
839.38	96.08
839.556	83.8
839.732	96.08
839.909	69.46
840.085	104.28
840.261	10.07
840.437	75.6
840.614	18.26
840.79	100.18
840.966	67.41
841.142	16.21
841.318	114.52
841.494	87.89
841.671	118.61
841.847	81.75
842.023	-2.22
842.199	65.36
842.375	71.51
842.551	32.6
842.727	87.89
842.903	124.76
843.079	-12.46
843.255	38.74
843.431	100.18
843.607	114.52
843.783	8.02
843.959	122.71
844.134	46.93
844.31	104.28
844.486	14.17
844.662	40.79
844.838	20.31
845.013	106.32
845.189	98.13
845.365	46.93
845.541	46.93
845.716	96.08
845.892	110.42
846.068	-30.89
846.244	-34.99
846.419	65.36
846.595	42.84
846.77	-12.46
846.946	106.32
847.122	16.21
847.297	38.74
847.473	116.56
847.648	-10.41
847.824	65.36
847.999	22.36
848.175	40.79
848.35	10.07
848.526	89.94
848.701	106.32
848.876	81.75
849.052	85.84
849.227	63.32
849.403	55.12
849.578	79.7
849.753	14.17
849.929	30.55
850.104	-0.17
850.279	65.36
850.454	104.28
850.63	124.76
850.805	38.74
850.98	46.93
851.155	55.12
851.33	42.84
851.505	24.4
851.681	53.08
851.856	40.79
852.031	42.84
852.206	46.93
852.381	-18.6
852.556	73.56
852.731	8.02
852.906	87.89
853.081	73.56
853.256	106.32
853.431	91.99
853.606	65.36
853.781	-47.27
853.956	-28.84
854.131	65.36
854.305	40.79
854.48	42.84
854.655	-34.99
854.83	5.97
855.005	8.02
855.18	57.17
855.354	38.74
855.529	87.89
855.704	42.84
855.879	81.75
856.053	-8.36
856.228	137.04
856.403	-34.99
856.577	48.98
856.752	-32.94
856.926	51.03
857.101	128.85
857.276	-39.08
857.45	10.07
857.625	69.46
857.799	22.36
857.974	75.6
858.148	42.84
858.323	57.17
858.497	59.22
858.672	-24.75
858.846	-12.46
859.02	65.36
859.195	55.12
859.369	-6.31
859.543	22.36
859.718	81.75
859.892	71.51
860.066	61.27
860.241	30.55
860.415	8.02
860.589	1.88
860.763	46.93
860.938	-59.56
861.112	71.51
861.286	-39.08
861.46	46.93
861.634	57.17
861.808	87.89
861.982	-0.17
862.157	42.84
862.331	57.17
862.505	10.07
862.679	-10.41
862.853	16.21
863.027	65.36
863.201	98.13
863.375	14.17
863.549	22.36
863.722	118.61
863.896	71.51
864.07	-8.36
864.244	42.84
864.418	38.74
864.592	-10.41
864.766	53.08
864.939	-18.6
865.113	-2.22
865.287	96.08
865.461	14.17
865.634	18.26
865.808	-22.7
865.982	57.17
866.156	-75.95
866.329	44.88
866.503	-8.36
866.676	8.02
866.85	73.56
867.024	-24.75
867.197	34.64
867.371	81.75
867.544	18.26
867.718	8.02
867.891	46.93
868.065	-8.36
868.238	-14.51
868.412	59.22
868.585	71.51
868.759	16.21
868.932	14.17
869.105	14.17
869.279	-43.18
869.452	8.02
869.625	8.02
869.799	32.6
869.972	63.32
870.145	-2.22
870.319	16.21
870.492	120.66
870.665	-18.6
870.838	20.31
871.011	-37.03
871.185	8.02
871.358	-26.79
871.531	26.45
871.704	-34.99
871.877	87.89
872.05	5.97
872.223	14.17
872.396	63.32
872.569	16.21
872.742	1.88
872.915	-32.94
873.088	24.4
873.261	-2.22
873.434	75.6
873.607	89.94
873.78	87.89
873.953	18.26
874.126	-0.17
874.299	55.12
874.471	10.07
874.644	-77.99
874.817	96.08
874.99	59.22
875.163	67.41
875.335	46.93
875.508	-4.27
875.681	22.36
875.853	73.56
876.026	40.79
876.199	63.32
876.371	24.4
876.544	46.93
876.717	55.12
876.889	14.17
877.062	32.6
877.234	71.51
877.407	38.74
877.579	12.12
877.752	14.17
877.924	8.02
878.097	38.74
878.269	59.22
878.442	-26.79
878.614	63.32
878.786	59.22
878.959	59.22
879.131	10.07
879.303	-2.22
879.476	24.4
879.648	-20.65
879.82	63.32
879.993	-24.75
880.165	-6.31
880.337	-34.99
880.509	44.88
880.681	-8.36
880.854	34.64
881.026	51.03
881.198	100.18
881.37	-2.22
881.542	87.89
881.714	-14.51
881.886	14.17
882.058	14.17
882.23	73.56
882.402	-43.18
882.574	18.26
882.746	40.79
882.918	48.98
883.09	51.03
883.262	-18.6
883.434	14.17
883.606	-2.22
883.778	65.36
883.95	106.32
884.122	18.26
884.293	106.32
884.465	5.97
884.637	16.21
884.809	-22.7
884.98	-41.13
885.152	22.36
885.324	57.17
885.496	-26.79
885.667	-10.41
885.839	16.21
886.011	96.08
886.182	-2.22
886.354	98.13
886.525	14.17
886.697	55.12
886.869	22.36
887.04	-22.7
887.212	30.55
887.383	73.56
887.555	-8.36
887.726	55.12
887.897	32.6
888.069	26.45
888.24	67.41
888.412	1.88
888.583	51.03
888.754	26.45
888.926	-24.75
889.097	-8.36
889.268	-63.66
889.44	32.6
889.611	5.97
889.782	-57.51
889.953	26.45
890.125	87.89
890.296	-30.89
890.467	3.93
890.638	-22.7
890.809	48.98
890.98	-28.84
891.151	16.21
891.323	87.89
891.494	-2.22
891.665	-6.31
891.836	-47.27
892.007	57.17
892.178	-2.22
892.349	18.26
892.52	-41.13
892.691	12.12
892.862	-57.51
893.032	-26.79
893.203	14.17
893.374	-51.37
893.545	22.36
893.716	51.03
893.887	-0.17
894.057	-8.36
894.228	18.26
894.399	-18.6
894.57	-10.41
894.74	-32.94
894.911	-37.03
895.082	-2.22
895.253	5.97
895.423	14.17
895.594	81.75
895.764	14.17
895.935	-20.65
896.106	83.8
896.276	38.74
896.447	5.97
896.617	-28.84
896.788	26.45
896.958	-14.51
897.129	-4.27
897.299	24.4
897.47	38.74
897.64	135
897.81	-10.41
897.981	75.6
898.151	-20.65
898.322	53.08
898.492	104.28
898.662	10.07
898.832	-22.7
899.003	75.6
899.173	32.6
899.343	-41.13
899.513	22.36
