Data from USB4F104151__142__14-31-50-025.txt Node

Date: Thu Mar 13 14:31:50 EDT 2025
User: louis
Spectrometer: USB4F10415
Trigger mode: 4
Integration Time (sec): 2.500000E-2
Scans to average: 1
Electric dark correction enabled: true
Nonlinearity correction enabled: false
Boxcar width: 0
XAxis mode: Wavelengths
Number of Pixels in Spectrum: 3648
>>>>>Begin Spectral Data<<<<<
178.204	-222.38
178.424	-222.38
178.644	-222.38
178.864	-124.07
179.084	-191.66
179.304	13.14
179.524	-3.24
179.744	-23.72
179.964	17.24
180.184	-31.91
180.404	23.38
180.624	-15.53
180.844	2.9
181.064	-72.87
181.283	54.1
181.503	7
181.723	29.52
181.943	-68.78
182.163	13.14
182.383	17.24
182.602	72.53
182.822	47.96
183.042	45.91
183.262	-17.58
183.482	70.48
183.701	-19.63
183.921	50
184.141	56.15
184.361	54.1
184.58	-3.24
184.8	-40.11
185.02	-31.91
185.239	101.2
185.459	111.44
185.679	103.25
185.898	-33.96
186.118	15.19
186.338	37.72
186.557	78.68
186.777	-27.82
186.997	29.52
187.216	-40.11
187.436	41.81
187.655	11.09
187.875	136.02
188.095	19.29
188.314	-23.72
188.534	23.38
188.753	41.81
188.973	140.12
189.192	31.57
189.412	-3.24
189.631	123.73
189.851	39.76
190.07	70.48
190.29	31.57
190.509	56.15
190.729	27.48
190.948	-3.24
191.168	189.27
191.387	25.43
191.607	-33.96
191.826	-56.49
192.045	-83.11
192.265	15.19
192.484	4.95
192.704	54.1
192.923	-42.15
193.142	95.06
193.362	19.29
193.581	37.72
193.8	15.19
194.02	-23.72
194.239	17.24
194.458	62.29
194.678	29.52
194.897	37.72
195.116	-3.24
195.335	-58.54
195.555	105.3
195.774	37.72
195.993	144.21
196.212	25.43
196.432	4.95
196.651	23.38
196.87	-25.77
197.089	119.64
197.308	4.95
197.528	74.58
197.747	-105.64
197.966	37.72
198.185	97.11
198.404	-83.11
198.623	-1.19
198.842	119.64
199.062	86.87
199.281	47.96
199.5	-19.63
199.719	13.14
199.938	31.57
200.157	58.2
200.376	-13.48
200.595	113.49
200.814	86.87
201.033	-31.91
201.252	88.92
201.471	39.76
201.69	45.91
201.909	70.48
202.128	19.29
202.347	119.64
202.566	41.81
202.785	23.38
203.004	-17.58
203.223	54.1
203.442	21.33
203.661	39.76
203.879	15.19
204.098	45.91
204.317	29.52
204.536	95.06
204.755	80.72
204.974	62.29
205.193	64.34
205.411	54.1
205.63	23.38
205.849	-60.59
206.068	0.85
206.287	-7.34
206.505	29.52
206.724	-3.24
206.943	-9.39
207.162	-9.39
207.381	15.19
207.599	41.81
207.818	45.91
208.037	45.91
208.255	0.85
208.474	33.62
208.693	13.14
208.911	21.33
209.13	17.24
209.349	-11.43
209.567	115.54
209.786	86.87
210.005	39.76
210.223	33.62
210.442	-23.72
210.661	37.72
210.879	31.57
211.098	47.96
211.316	47.96
211.535	15.19
211.753	2.9
211.972	72.53
212.191	-23.72
212.409	58.2
212.628	64.34
212.846	4.95
213.065	54.1
213.283	54.1
213.502	33.62
213.72	29.52
213.938	-31.91
214.157	-11.43
214.375	0.85
214.594	-19.63
214.812	9.05
215.031	-19.63
215.249	19.29
215.467	54.1
215.686	13.14
215.904	103.25
216.122	-33.96
216.341	66.39
216.559	37.72
216.778	23.38
216.996	86.87
217.214	80.72
217.432	21.33
217.651	0.85
217.869	19.29
218.087	86.87
218.306	-27.82
218.524	-29.87
218.742	37.72
218.96	9.05
219.179	-3.24
219.397	56.15
219.615	138.07
219.833	7
220.051	41.81
220.27	50
220.488	13.14
220.706	25.43
220.924	11.09
221.142	13.14
221.36	47.96
221.578	70.48
221.796	70.48
222.015	-1.19
222.233	-58.54
222.451	113.49
222.669	-21.67
222.887	4.95
223.105	13.14
223.323	113.49
223.541	-33.96
223.759	45.91
223.977	15.19
224.195	50
224.413	35.67
224.631	0.85
224.849	-23.72
225.067	127.83
225.285	-70.83
225.503	21.33
225.721	-25.77
225.939	15.19
226.157	76.63
226.375	47.96
226.592	52.05
226.81	70.48
227.028	45.91
227.246	146.26
227.464	-11.43
227.682	95.06
227.9	29.52
228.117	54.1
228.335	13.14
228.553	41.81
228.771	25.43
228.989	13.14
229.206	29.52
229.424	-23.72
229.642	-33.96
229.86	29.52
230.077	50
230.295	-19.63
230.513	45.91
230.731	29.52
230.948	56.15
231.166	86.87
231.384	7
231.601	50
231.819	90.96
232.037	47.96
232.254	-33.96
232.472	64.34
232.689	-13.48
232.907	23.38
233.125	-66.73
233.342	-7.34
233.56	56.15
233.777	29.52
233.995	-11.43
234.213	37.72
234.43	97.11
234.648	-7.34
234.865	-9.39
235.083	-31.91
235.3	103.25
235.518	4.95
235.735	72.53
235.953	56.15
236.17	-68.78
236.388	62.29
236.605	54.1
236.822	23.38
237.04	33.62
237.257	21.33
237.475	-76.97
237.692	33.62
237.909	113.49
238.127	41.81
238.344	41.81
238.562	-7.34
238.779	-9.39
238.996	-19.63
239.214	103.25
239.431	25.43
239.648	-44.2
239.865	136.02
240.083	103.25
240.3	54.1
240.517	-27.82
240.735	-3.24
240.952	78.68
241.169	54.1
241.386	54.1
241.603	39.76
241.821	-23.72
242.038	127.83
242.255	-56.49
242.472	13.14
242.689	50
242.907	29.52
243.124	-27.82
243.341	-3.24
243.558	7
243.775	13.14
243.992	-74.92
244.209	-7.34
244.426	62.29
244.643	78.68
244.86	37.72
245.078	47.96
245.295	31.57
245.512	86.87
245.729	109.4
245.946	-23.72
246.163	-25.77
246.38	95.06
246.597	-9.39
246.814	-3.24
247.031	-31.91
247.248	45.91
247.464	11.09
247.681	78.68
247.898	95.06
248.115	27.48
248.332	0.85
248.549	15.19
248.766	78.68
248.983	97.11
249.2	39.76
249.417	-23.72
249.633	25.43
249.85	7
250.067	13.14
250.284	-9.39
250.501	58.2
250.717	103.25
250.934	-29.87
251.151	37.72
251.368	-27.82
251.585	29.52
251.801	-1.19
252.018	52.05
252.235	4.95
252.451	0.85
252.668	-9.39
252.885	-11.43
253.102	-3.24
253.318	-7.34
253.535	-9.39
253.752	-76.97
253.968	-19.63
254.185	-50.35
254.401	9.05
254.618	64.34
254.835	21.33
255.051	29.52
255.268	-7.34
255.484	74.58
255.701	-33.96
255.917	-3.24
256.134	-9.39
256.351	45.91
256.567	-23.72
256.784	-7.34
257	19.29
257.217	13.14
257.433	54.1
257.65	-3.24
257.866	19.29
258.082	-83.11
258.299	-11.43
258.515	45.91
258.732	-1.19
258.948	62.29
259.165	43.86
259.381	70.48
259.597	-9.39
259.814	-36.01
260.03	33.62
260.246	25.43
260.463	111.44
260.679	74.58
260.895	45.91
261.112	29.52
261.328	-52.39
261.544	47.96
261.761	105.3
261.977	-40.11
262.193	-44.2
262.409	21.33
262.626	70.48
262.842	115.54
263.058	43.86
263.274	23.38
263.49	33.62
263.707	95.06
263.923	78.68
264.139	45.91
264.355	29.52
264.571	23.38
264.787	95.06
265.004	88.92
265.22	17.24
265.436	23.38
265.652	-7.34
265.868	17.24
266.084	-17.58
266.3	70.48
266.516	15.19
266.732	35.67
266.948	27.48
267.164	-25.77
267.38	74.58
267.596	39.76
267.812	33.62
268.028	9.05
268.244	-3.24
268.46	103.25
268.676	68.44
268.892	-3.24
269.108	-7.34
269.324	17.24
269.54	50
269.756	29.52
269.972	-25.77
270.188	-36.01
270.403	-56.49
270.619	-11.43
270.835	29.52
271.051	-7.34
271.267	25.43
271.483	4.95
271.698	23.38
271.914	45.91
272.13	90.96
272.346	-13.48
272.562	41.81
272.777	37.72
272.993	9.05
273.209	-5.29
273.425	70.48
273.64	15.19
273.856	60.24
274.072	54.1
274.287	41.81
274.503	-13.48
274.719	66.39
274.934	31.57
275.15	-42.15
275.366	-9.39
275.581	9.05
275.797	23.38
276.012	-31.91
276.228	33.62
276.444	80.72
276.659	7
276.875	-29.87
277.09	0.85
277.306	15.19
277.521	58.2
277.737	23.38
277.952	-64.68
278.168	31.57
278.383	-7.34
278.599	39.76
278.814	-31.91
279.03	19.29
279.245	37.72
279.461	15.19
279.676	70.48
279.892	-7.34
280.107	-11.43
280.322	25.43
280.538	74.58
280.753	-7.34
280.969	60.24
281.184	45.91
281.399	86.87
281.615	64.34
281.83	13.14
282.045	-19.63
282.26	15.19
282.476	23.38
282.691	4.95
282.906	17.24
283.122	45.91
283.337	43.86
283.552	62.29
283.767	-17.58
283.983	70.48
284.198	31.57
284.413	78.68
284.628	23.38
284.843	25.43
285.058	37.72
285.274	66.39
285.489	-40.11
285.704	19.29
285.919	29.52
286.134	-19.63
286.349	-23.72
286.564	62.29
286.779	78.68
286.995	21.33
287.21	-29.87
287.425	72.53
287.64	-11.43
287.855	-13.48
288.07	-44.2
288.285	52.05
288.5	7
288.715	95.06
288.93	37.72
289.145	15.19
289.36	33.62
289.575	-3.24
289.79	-33.96
290.004	-3.24
290.219	15.19
290.434	-1.19
290.649	45.91
290.864	4.95
291.079	60.24
291.294	95.06
291.509	50
291.724	-11.43
291.938	37.72
292.153	29.52
292.368	-21.67
292.583	31.57
292.798	29.52
293.012	23.38
293.227	-27.82
293.442	31.57
293.657	-3.24
293.871	62.29
294.086	37.72
294.301	127.83
294.516	66.39
294.73	52.05
294.945	-25.77
295.16	21.33
295.374	78.68
295.589	99.16
295.804	54.1
296.018	68.44
296.233	9.05
296.447	64.34
296.662	45.91
296.877	-5.29
297.091	31.57
297.306	4.95
297.52	25.43
297.735	111.44
297.949	23.38
298.164	90.96
298.378	-44.2
298.593	-44.2
298.807	-89.26
299.022	-3.24
299.236	70.48
299.451	-11.43
299.665	50
299.88	15.19
300.094	37.72
300.309	33.62
300.523	-1.19
300.737	45.91
300.952	37.72
301.166	-3.24
301.381	7
301.595	13.14
301.809	25.43
302.024	45.91
302.238	23.38
302.452	21.33
302.667	47.96
302.881	70.48
303.095	99.16
303.309	31.57
303.524	31.57
303.738	17.24
303.952	39.76
304.166	-31.91
304.381	15.19
304.595	58.2
304.809	90.96
305.023	13.14
305.237	31.57
305.452	-52.39
305.666	78.68
305.88	84.82
306.094	37.72
306.308	86.87
306.522	152.4
306.736	25.43
306.95	35.67
307.164	54.1
307.379	15.19
307.593	25.43
307.807	72.53
308.021	17.24
308.235	2.9
308.449	-27.82
308.663	-19.63
308.877	144.21
309.091	52.05
309.305	13.14
309.519	-13.48
309.733	39.76
309.947	-76.97
310.161	37.72
310.374	43.86
310.588	54.1
310.802	7
311.016	-11.43
311.23	50
311.444	37.72
311.658	103.25
311.872	45.91
312.085	84.82
312.299	64.34
312.513	88.92
312.727	15.19
312.941	37.72
313.154	62.29
313.368	21.33
313.582	41.81
313.796	-3.24
314.009	74.58
314.223	52.05
314.437	33.62
314.651	62.29
314.864	52.05
315.078	29.52
315.292	39.76
315.505	-5.29
315.719	11.09
315.933	29.52
316.146	23.38
316.36	-33.96
316.573	64.34
316.787	-1.19
317.001	82.77
317.214	-9.39
317.428	37.72
317.641	-97.45
317.855	15.19
318.068	13.14
318.282	62.29
318.495	95.06
318.709	80.72
318.922	-25.77
319.136	78.68
319.349	-50.35
319.563	21.33
319.776	29.52
319.99	-9.39
320.203	13.14
320.417	7
320.63	-17.58
320.843	103.25
321.057	9.05
321.27	72.53
321.483	95.06
321.697	54.1
321.91	82.77
322.124	-44.2
322.337	121.68
322.55	-11.43
322.763	2.9
322.977	37.72
323.19	23.38
323.403	37.72
323.617	47.96
323.83	84.82
324.043	23.38
324.256	82.77
324.469	-42.15
324.683	58.2
324.896	39.76
325.109	127.83
325.322	-27.82
325.535	29.52
325.748	-31.91
325.962	37.72
326.175	-31.91
326.388	70.48
326.601	70.48
326.814	72.53
327.027	37.72
327.24	95.06
327.453	-25.77
327.666	66.39
327.879	31.57
328.092	84.82
328.305	45.91
328.518	-5.29
328.731	-58.54
328.944	13.14
329.157	70.48
329.37	13.14
329.583	70.48
329.796	113.49
330.009	17.24
330.222	101.2
330.435	68.44
330.648	4.95
330.861	-7.34
331.073	15.19
331.286	47.96
331.499	82.77
331.712	9.05
331.925	39.76
332.138	90.96
332.35	-7.34
332.563	-23.72
332.776	72.53
332.989	7
333.202	27.48
333.414	21.33
333.627	2.9
333.84	62.29
334.053	93.01
334.265	-42.15
334.478	-7.34
334.691	80.72
334.903	84.82
335.116	13.14
335.329	78.68
335.541	47.96
335.754	78.68
335.966	25.43
336.179	31.57
336.392	-17.58
336.604	29.52
336.817	86.87
337.029	7
337.242	23.38
337.454	58.2
337.667	35.67
337.88	62.29
338.092	97.11
338.305	13.14
338.517	84.82
338.729	74.58
338.942	95.06
339.154	37.72
339.367	35.67
339.579	56.15
339.792	-54.44
340.004	39.76
340.217	-56.49
340.429	80.72
340.641	19.29
340.854	37.72
341.066	70.48
341.278	70.48
341.491	0.85
341.703	27.48
341.915	-23.72
342.128	54.1
342.34	-7.34
342.552	39.76
342.764	-7.34
342.977	45.91
343.189	50
343.401	80.72
343.613	45.91
343.826	95.06
344.038	82.77
344.25	9.05
344.462	13.14
344.674	41.81
344.886	4.95
345.099	66.39
345.311	86.87
345.523	45.91
345.735	66.39
345.947	45.91
346.159	4.95
346.371	29.52
346.583	111.44
346.795	95.06
347.007	13.14
347.219	0.85
347.431	25.43
347.643	50
347.855	7
348.067	41.81
348.279	-36.01
348.491	56.15
348.703	15.19
348.915	29.52
349.127	47.96
349.339	-5.29
349.551	39.76
349.763	68.44
349.975	27.48
350.187	58.2
350.399	131.92
350.61	45.91
350.822	70.48
351.034	70.48
351.246	84.82
351.458	45.91
351.669	33.62
351.881	80.72
352.093	117.59
352.305	156.5
352.517	90.96
352.728	39.76
352.94	66.39
353.152	21.33
353.363	0.85
353.575	-79.02
353.787	78.68
353.999	17.24
354.21	103.25
354.422	17.24
354.633	29.52
354.845	15.19
355.057	50
355.268	15.19
355.48	29.52
355.692	15.19
355.903	-19.63
356.115	37.72
356.326	-76.97
356.538	33.62
356.749	70.48
356.961	127.83
357.172	-15.53
357.384	-46.25
357.595	45.91
357.807	70.48
358.018	52.05
358.23	39.76
358.441	201.55
358.653	54.1
358.864	4.95
359.075	50
359.287	33.62
359.498	64.34
359.709	52.05
359.921	45.91
360.132	-3.24
360.344	103.25
360.555	-33.96
360.766	74.58
360.977	11.09
361.189	33.62
361.4	37.72
361.611	54.1
361.823	62.29
362.034	93.01
362.245	-1.19
362.456	39.76
362.667	82.77
362.879	-19.63
363.09	95.06
363.301	72.53
363.512	45.91
363.723	37.72
363.935	-19.63
364.146	37.72
364.357	72.53
364.568	56.15
364.779	78.68
364.99	29.52
365.201	25.43
365.412	121.68
365.623	41.81
365.834	33.62
366.045	54.1
366.256	88.92
366.467	-3.24
366.678	95.06
366.889	25.43
367.1	50
367.311	107.35
367.522	64.34
367.733	103.25
367.944	80.72
368.155	11.09
368.366	43.86
368.577	95.06
368.788	80.72
368.999	-60.59
369.209	95.06
369.42	82.77
369.631	58.2
369.842	74.58
370.053	95.06
370.264	52.05
370.474	97.11
370.685	95.06
370.896	62.29
371.107	74.58
371.317	78.68
371.528	23.38
371.739	62.29
371.95	111.44
372.16	56.15
372.371	84.82
372.582	64.34
372.792	31.57
373.003	97.11
373.214	37.72
373.424	31.57
373.635	29.52
373.846	95.06
374.056	15.19
374.267	45.91
374.477	54.1
374.688	39.76
374.898	90.96
375.109	37.72
375.319	45.91
375.53	66.39
375.74	95.06
375.951	50
376.161	93.01
376.372	45.91
376.582	103.25
376.793	-40.11
377.003	9.05
377.214	-7.34
377.424	58.2
377.635	-3.24
377.845	39.76
378.055	62.29
378.266	103.25
378.476	45.91
378.686	56.15
378.897	37.72
379.107	131.92
379.317	41.81
379.528	39.76
379.738	31.57
379.948	29.52
380.158	78.68
380.369	45.91
380.579	144.21
380.789	37.72
380.999	37.72
381.21	39.76
381.42	97.11
381.63	119.64
381.84	4.95
382.05	54.1
382.261	107.35
382.471	50
382.681	-19.63
382.891	86.87
383.101	29.52
383.311	31.57
383.521	31.57
383.731	45.91
383.941	7
384.151	45.91
384.361	39.76
384.571	103.25
384.781	97.11
384.991	62.29
385.201	107.35
385.411	62.29
385.621	41.81
385.831	17.24
386.041	45.91
386.251	-79.02
386.461	37.72
386.671	29.52
386.881	45.91
387.091	-3.24
387.301	74.58
387.511	45.91
387.72	131.92
387.93	27.48
388.14	37.72
388.35	127.83
388.56	99.16
388.769	111.44
388.979	111.44
389.189	50
389.399	-7.34
389.609	76.63
389.818	88.92
390.028	72.53
390.238	39.76
390.447	47.96
390.657	45.91
390.867	-17.58
391.076	-52.39
391.286	31.57
391.496	27.48
391.705	41.81
391.915	123.73
392.125	78.68
392.334	50
392.544	82.77
392.753	88.92
392.963	31.57
393.172	68.44
393.382	43.86
393.591	160.59
393.801	95.06
394.01	136.02
394.22	-3.24
394.429	74.58
394.639	45.91
394.848	82.77
395.058	54.1
395.267	166.74
395.477	56.15
395.686	90.96
395.895	156.5
396.105	152.4
396.314	129.88
396.524	156.5
396.733	127.83
396.942	117.59
397.152	103.25
397.361	127.83
397.57	-11.43
397.78	33.62
397.989	109.4
398.198	187.22
398.407	142.16
398.617	121.68
398.826	152.4
399.035	41.81
399.244	140.12
399.453	109.4
399.663	88.92
399.872	185.17
400.081	111.44
400.29	164.69
400.499	78.68
400.708	148.31
400.917	72.53
401.127	119.64
401.336	111.44
401.545	187.22
401.754	86.87
401.963	156.5
402.172	113.49
402.381	41.81
402.59	121.68
402.799	66.39
403.008	99.16
403.217	97.11
403.426	119.64
403.635	90.96
403.844	138.07
404.053	172.88
404.262	176.98
404.471	166.74
404.68	119.64
404.888	144.21
405.097	154.45
405.306	185.17
405.515	193.36
405.724	199.51
405.933	217.94
406.142	269.14
406.35	203.6
406.559	195.41
406.768	230.23
406.977	205.65
407.185	209.75
407.394	285.52
407.603	195.41
407.812	183.12
408.02	217.94
408.229	267.09
408.438	244.56
408.646	211.79
408.855	297.81
409.064	252.75
409.272	201.55
409.481	361.3
409.69	301.9
409.898	250.71
410.107	293.71
410.315	398.16
410.524	310.1
410.733	349.01
410.941	389.97
411.15	406.35
411.358	426.83
411.567	424.78
411.775	430.93
411.984	459.6
412.192	475.98
412.401	416.59
412.609	582.48
412.818	588.62
413.026	598.86
413.234	594.76
413.443	572.24
413.651	676.68
413.86	619.34
414.068	727.88
414.276	713.55
414.485	670.54
414.693	774.99
414.901	742.22
415.11	670.54
415.318	807.75
415.526	815.94
415.734	865.1
415.943	914.25
416.151	979.78
416.359	842.57
416.567	1022.79
416.776	1053.51
416.984	1002.31
417.192	1080.13
417.4	1094.47
417.608	1137.48
417.817	1006.41
418.025	1325.89
418.233	1358.66
418.441	1299.27
418.649	1403.71
418.857	1446.72
419.065	1534.78
419.273	1413.95
419.481	1520.45
419.689	1663.8
419.897	1639.23
420.105	1665.85
420.313	1702.72
420.521	1796.92
420.729	1889.08
420.937	1944.38
421.145	2089.78
421.353	2061.11
421.561	2208.56
421.769	2218.8
421.977	2331.44
422.185	2323.25
422.393	2429.74
422.601	2601.77
422.809	2691.88
423.017	2550.57
423.224	2741.04
423.432	2736.94
423.64	2743.08
423.848	3134.25
424.056	3013.42
424.263	3212.07
424.471	3259.17
424.679	3314.47
424.887	3486.5
425.094	3535.65
425.302	3662.62
425.51	3711.77
425.718	3838.75
425.925	3889.95
426.133	3912.47
426.341	4102.93
426.548	4514.58
426.756	4281.11
426.964	4469.52
427.171	4727.57
427.379	4887.31
427.586	4883.21
427.794	5223.17
428.001	5178.12
428.209	5604.1
428.417	5362.44
428.624	5718.78
428.832	5821.18
429.039	5833.47
429.247	5665.53
429.454	6306.55
429.662	6828.78
429.869	6411
430.076	6812.4
430.284	6419.19
430.491	7006.95
430.699	7324.39
430.906	7275.24
431.114	7168.74
431.321	7713.5
431.528	7807.71
431.736	8295.13
431.943	8741.58
432.15	8524.5
432.358	8405.72
432.565	9050.83
432.772	8870.61
432.979	9384.65
433.187	9372.36
433.394	9630.4
433.601	10267.32
433.808	10390.2
434.016	10328.76
434.223	10734.26
434.43	11221.67
434.637	11205.29
434.844	11776.67
435.052	11809.44
435.259	11940.51
435.466	11938.46
435.673	11817.63
435.88	12620.44
436.087	13269.64
436.294	13103.76
436.501	13019.79
436.708	13240.97
436.915	13826.69
437.122	14338.68
437.329	14187.13
437.537	14676.6
437.743	14805.62
437.95	14840.43
438.157	15399.53
438.364	16110.18
438.571	15676.01
438.778	16120.42
438.985	17592.9
439.192	16820.82
439.399	17330.76
439.606	17013.33
439.813	18010.69
440.02	18850.36
440.227	18901.56
440.433	18592.31
440.64	19282.48
440.847	18993.72
441.054	19665.45
441.261	20779.54
441.467	20507.16
441.674	20974.1
441.881	21805.58
442.088	21664.27
442.294	21228.05
442.501	21877.26
442.708	22503.93
442.914	23441.9
443.121	24349.15
443.328	23458.29
443.534	25412.05
443.741	24631.77
443.948	24271.33
444.154	25872.84
444.361	25971.15
444.568	26239.43
444.774	26046.92
444.981	26483.14
445.187	26972.6
445.394	28215.72
445.6	27541.94
445.807	30468.48
446.013	29104.54
446.22	29233.56
446.426	30720.38
446.633	31197.56
446.839	32633.19
447.046	31033.72
447.252	32332.14
447.459	32557.41
447.665	32291.18
447.871	33929.55
448.078	35275.07
448.284	33392.98
448.491	34330.95
448.697	35637.56
448.903	36270.38
449.11	36548.9
449.316	36010.29
449.522	36610.34
449.728	37617.94
449.935	37941.52
450.141	37785.88
450.347	38584.58
450.553	37548.31
450.76	38076.69
450.966	39024.9
451.172	38527.24
451.378	39739.64
451.584	38840.58
451.791	39608.57
451.997	39241.98
452.203	40091.89
452.409	40313.07
452.615	39665.91
452.821	38457.61
453.027	38430.99
453.233	40272.11
453.44	38367.5
453.646	38633.74
453.852	38916.36
454.058	39960.82
454.264	38344.97
454.47	39344.38
454.676	38369.55
454.882	39319.81
455.088	36700.45
455.294	36782.37
455.5	37546.26
455.705	37624.09
455.911	36608.29
456.117	35359.03
456.323	35080.51
456.529	33309.02
456.735	34728.26
456.941	33913.17
457.147	33034.59
457.352	31920.49
457.558	31727.99
457.764	31934.83
457.97	31433.08
458.176	30263.69
458.381	30290.31
458.587	29270.42
458.793	28969.37
458.999	27277.75
459.204	29125.02
459.41	28639.65
459.616	26806.72
459.821	26560.96
460.027	26790.33
460.233	26132.93
460.438	24660.45
460.644	24869.34
460.85	24224.23
461.055	23501.29
461.261	23423.47
461.466	21821.96
461.672	21142.03
461.878	22577.66
462.083	21213.71
462.289	20435.49
462.494	20410.91
462.7	19581.48
462.905	18915.89
463.111	19487.28
463.316	19716.65
463.522	19137.07
463.727	19325.49
463.932	19417.65
464.138	18870.84
464.343	19216.94
464.549	18831.93
464.754	19249.71
464.959	18876.98
465.165	19020.34
465.37	18027.07
465.575	17742.41
465.781	18256.45
465.986	18162.24
466.191	17793.61
466.397	17191.5
466.602	16550.49
466.807	17113.68
467.012	17224.27
467.218	17154.64
467.423	16761.43
467.628	17199.69
467.833	17762.89
468.038	17234.51
468.244	16335.45
468.449	16808.53
468.654	16368.22
468.859	16278.11
469.064	16388.7
469.269	15743.59
469.474	15798.88
469.679	15948.39
469.885	15653.48
470.09	15608.42
470.295	15735.4
470.5	15360.62
470.705	15735.4
470.91	15100.53
471.115	14955.12
471.32	15143.53
471.525	14772.85
471.73	14793.33
471.935	14488.18
472.139	14066.3
472.344	14252.67
472.549	14191.23
472.754	14078.59
472.959	13892.23
473.164	13642.37
473.369	13496.97
473.574	13683.33
473.778	13365.9
473.983	13326.99
474.188	13341.32
474.393	12913.3
474.598	12612.24
474.802	12825.23
475.007	12728.98
475.212	12726.93
475.417	12214.94
475.621	12020.38
475.826	12491.41
476.031	12274.33
476.235	11719.33
476.44	11981.47
476.645	11627.17
476.849	11692.71
477.054	11512.49
477.259	11371.18
477.463	11408.04
477.668	11221.67
477.872	11373.22
478.077	11014.83
478.282	10756.79
478.486	10828.46
478.691	10558.13
478.895	10748.59
479.1	10605.24
479.304	10656.43
479.509	10404.53
479.713	10568.37
479.918	10224.31
480.122	10023.61
480.326	10400.44
480.531	10242.75
480.735	10091.2
480.94	10074.81
481.144	10527.41
481.348	9880.25
481.553	10212.03
481.757	9722.56
481.961	10080.96
482.166	10025.66
482.37	9876.16
482.574	9777.86
482.778	9743.04
482.983	10087.1
483.187	9951.93
483.391	9894.59
483.595	9517.76
483.8	9796.29
484.004	9861.82
484.208	9986.75
484.412	9781.95
484.616	9851.58
484.821	9910.97
485.025	9654.98
485.229	9753.28
485.433	9757.38
485.637	9581.25
485.841	9800.38
486.045	9663.17
486.249	9681.6
486.453	9730.75
486.657	9675.46
486.861	9779.9
487.065	9566.92
487.269	9706.18
487.473	9593.54
487.677	9792.19
487.881	9673.41
488.085	9724.61
488.289	9720.51
488.493	9749.18
488.697	9943.74
488.901	9777.86
489.105	9831.1
489.309	9855.68
489.512	9870.01
489.716	9818.82
489.92	9859.77
490.124	9779.9
490.328	10060.48
490.531	9794.24
490.735	9906.88
490.939	9894.59
491.143	9921.21
491.346	10080.96
491.55	9878.21
491.754	9802.43
491.958	10279.61
492.161	10132.15
492.365	10164.92
492.569	10074.81
492.772	10179.26
492.976	10181.31
493.18	10173.11
493.383	10390.2
493.587	10633.91
493.79	10631.86
493.994	10275.51
494.197	10443.45
494.401	10744.5
494.605	10592.95
494.808	10709.68
495.012	10793.65
495.215	10982.06
495.419	10982.06
495.622	10820.27
495.825	11137.71
496.029	11051.69
496.232	11221.67
496.436	11268.78
496.639	11520.68
496.843	11500.2
497.046	11834.02
497.249	11731.62
497.453	11694.75
497.656	11989.66
497.859	11846.3
498.063	12192.41
498.266	12350.1
498.469	12233.37
498.673	12229.27
498.876	12511.89
499.079	12645.01
499.282	12728.98
499.485	12984.98
499.689	12851.86
499.892	13259.4
500.095	13187.72
500.298	13564.55
500.501	13433.48
500.705	13832.83
500.908	13986.43
501.111	13949.57
501.314	14011.01
501.517	14314.11
501.72	14197.37
501.923	14336.63
502.126	14760.56
502.329	14803.57
502.532	15043.18
502.735	14893.68
502.938	15327.85
503.141	15256.17
503.344	15698.53
503.547	15643.24
503.75	15839.84
503.953	16142.94
504.156	16200.29
504.359	16278.11
504.562	16573.02
504.765	16743
504.968	16906.84
505.17	17209.93
505.373	17187.41
505.576	17439.31
505.779	17351.24
505.982	17416.78
506.185	18043.46
506.387	18025.03
506.59	18188.86
506.793	18461.24
506.996	18469.44
507.198	18811.45
507.401	18846.26
507.604	19128.88
507.807	19704.36
508.009	19466.8
508.212	19462.7
508.415	19638.83
508.617	20101.67
508.82	20036.13
509.022	20073
509.225	20599.32
509.428	20466.21
509.63	21039.64
509.833	20877.85
510.035	21731.85
510.238	21479.95
510.44	21621.26
510.643	21883.4
510.845	21940.74
511.048	21975.56
511.25	22278.66
511.453	22430.21
511.655	23208.44
511.858	22899.19
512.06	23359.98
512.262	23466.48
512.465	23368.18
512.667	23699.95
512.87	23947.75
513.072	23949.8
513.274	24541.66
513.477	24644.06
513.679	24986.07
513.881	24797.66
514.084	25444.82
514.286	25274.84
514.488	25510.35
514.69	26063.3
514.893	25917.9
515.095	26339.78
515.297	26825.15
515.499	26771.9
515.701	26993.08
515.904	27138.49
516.106	27390.39
516.308	27918.76
516.51	28541.35
516.712	28342.69
516.914	28328.36
517.116	28877.21
517.318	28877.21
517.52	28934.56
517.722	28858.78
517.925	29655.44
518.127	29737.36
518.329	29936.01
518.531	29682.06
518.733	30308.74
518.935	30249.35
519.136	30220.68
519.338	31177.08
519.54	30894.46
519.742	31385.97
519.944	31453.56
520.146	31592.82
520.348	31883.63
520.55	31867.25
520.752	32039.28
520.954	32971.1
521.155	32223.59
521.357	32516.45
521.559	33050.97
521.761	33368.41
521.963	33343.83
522.164	33186.14
522.366	33266.01
522.568	33825.11
522.77	33968.46
522.971	34560.33
523.173	33644.88
523.375	33972.56
523.576	34402.63
523.778	34222.41
523.98	34425.16
524.181	35023.17
524.383	34689.35
524.584	35328.31
524.786	34824.51
524.988	34963.78
525.189	35252.54
525.391	35475.77
525.592	35612.98
525.794	35932.47
525.995	35750.2
526.197	36071.73
526.398	35752.24
526.6	35643.7
526.801	36204.84
527.003	36202.8
527.204	36202.8
527.406	36380.97
527.607	36428.07
527.808	36933.92
528.01	35791.16
528.211	36337.96
528.412	36755.75
528.614	36843.81
528.815	36514.09
529.016	36968.74
529.218	36436.27
529.419	36708.65
529.62	36495.66
529.822	36651.3
530.023	37017.89
530.224	36784.42
530.425	36399.4
530.626	36331.82
530.828	36106.54
531.029	36866.34
531.23	36383.02
531.431	36407.59
531.632	36383.02
531.833	36788.52
532.035	36466.98
532.236	36882.72
532.437	37036.32
532.638	36313.39
532.839	36864.29
533.04	36843.81
533.241	36450.6
533.442	37040.42
533.643	36456.75
533.844	36288.81
534.045	36798.76
534.246	35828.02
534.447	36774.18
534.648	36268.33
534.849	36559.14
535.05	36053.3
535.251	36358.44
535.451	36165.93
535.652	36620.58
535.853	36530.47
536.054	36235.56
536.255	36290.86
536.456	35873.07
536.657	36557.1
536.857	35985.71
537.058	35836.21
537.259	36419.88
537.46	35731.76
537.66	36059.44
537.861	35969.33
538.062	35877.17
538.263	35883.31
538.463	35731.76
538.664	35672.37
538.865	36243.76
539.065	36004.14
539.266	35664.18
539.466	36268.33
539.667	35731.76
539.868	36067.63
540.068	35498.3
540.269	35465.53
540.469	35674.42
540.67	35045.69
540.87	35817.78
541.071	35539.26
541.271	35768.63
541.472	35701.04
541.672	35522.87
541.873	35252.54
542.073	34865.47
542.274	35647.8
542.474	35322.17
542.675	34808.13
542.875	35776.82
543.075	35387.71
543.276	34910.53
543.476	35711.28
543.676	35287.35
543.877	35680.56
544.077	35244.35
544.277	35064.13
544.478	35338.55
544.678	35211.58
544.878	35297.59
545.078	35451.19
545.279	35129.66
545.479	35297.59
545.679	35414.33
545.879	35469.62
546.079	35361.08
546.28	35258.68
546.48	35037.5
546.68	35236.16
546.88	35281.21
547.08	35182.91
547.28	35144
547.48	34963.78
547.68	35301.69
547.88	35379.51
548.081	35467.58
548.281	35111.23
548.481	35219.77
548.681	35342.65
548.881	35113.28
549.081	35531.06
549.28	35076.41
549.48	34943.3
549.68	35531.06
549.88	35578.17
550.08	34781.51
550.28	34797.89
550.48	35144
550.68	35223.87
550.88	34365.77
551.08	35189.05
551.279	35447.1
551.479	35014.98
551.679	35262.78
551.879	35062.08
552.079	35553.59
552.278	34920.77
552.478	35096.89
552.678	34877.76
552.878	35141.95
553.077	34906.43
553.277	35014.98
553.477	35764.53
553.676	35275.07
553.876	35144
554.076	35019.07
554.275	35303.74
554.475	34898.24
554.674	35524.92
554.874	35313.98
555.074	35031.36
555.273	35258.68
555.473	35498.3
555.672	34955.58
555.872	35371.32
556.071	35254.59
556.271	35522.87
556.47	35031.36
556.67	34982.21
556.869	34957.63
557.068	35406.14
557.268	35123.52
557.467	35193.15
557.667	35266.88
557.866	35305.79
558.065	35440.95
558.265	34754.88
558.464	34912.58
558.663	35156.28
558.863	34976.06
559.062	35289.4
559.261	34912.58
559.461	35649.85
559.66	34967.87
559.859	35297.59
560.058	34855.23
560.258	35131.71
560.457	35144
560.656	35160.38
560.855	34994.5
561.054	35250.49
561.253	34896.19
561.453	34951.49
561.652	35004.74
561.851	35213.63
562.05	35170.62
562.249	34582.85
562.448	35240.25
562.647	34705.73
562.846	34924.86
563.045	34826.56
563.244	34720.07
563.443	35010.88
563.642	34810.18
563.841	35225.92
564.04	34400.58
564.239	35332.41
564.438	34625.86
564.637	34765.12
564.836	34705.73
565.035	34423.11
565.234	34623.81
565.432	34320.71
565.631	34335.05
565.83	34687.3
566.029	34341.19
566.228	34306.38
566.427	34785.6
566.625	34152.78
566.824	33884.5
567.023	34550.09
567.222	33524.05
567.42	34459.98
567.619	33915.22
567.818	34058.57
568.016	33972.56
568.215	33900.88
568.414	33812.82
568.612	34302.28
568.811	33911.12
569.01	33644.88
569.208	33446.23
569.407	33800.53
569.605	33540.44
569.804	33794.39
570.002	33468.76
570.201	33845.58
570.4	32969.05
570.598	33405.27
570.797	33032.54
570.995	33263.96
571.193	32938.33
571.392	33550.68
571.59	32794.98
571.789	32969.05
571.987	32911.71
572.186	33032.54
572.384	32786.79
572.582	32557.41
572.781	33128.8
572.979	32274.79
573.177	32512.36
573.376	32700.77
573.574	32575.84
573.772	32436.58
573.971	32493.93
574.169	32201.07
574.367	31977.84
574.565	32383.34
574.763	32260.46
574.962	31721.84
575.16	31766.9
575.358	32264.55
575.556	31625.59
575.754	32233.83
575.952	31586.68
576.151	31762.8
576.349	31504.76
576.547	31521.14
576.745	31328.63
576.943	31236.47
577.141	31435.13
577.339	31619.44
577.537	31109.5
577.735	31013.24
577.933	30787.97
578.131	30849.41
578.329	30792.06
578.527	30675.33
578.725	30859.65
578.923	30474.63
579.121	30394.76
579.319	30515.59
579.516	30781.82
579.714	30484.87
579.912	30497.16
580.11	30286.22
580.308	30353.8
580.506	30054.79
580.704	29548.95
580.901	30001.55
581.099	30206.34
581.297	29948.3
581.495	29936.01
581.692	29819.28
581.89	29307.29
582.088	29835.66
582.285	29602.19
582.483	29542.8
582.681	29311.38
582.878	29157.78
583.076	29329.81
583.274	29587.86
583.471	28813.73
583.669	29163.93
583.866	28871.07
584.064	29319.57
584.262	28619.17
584.459	28881.31
584.657	28574.11
584.854	28733.85
585.052	28549.54
585.249	28658.08
585.447	28672.42
585.644	28496.29
585.841	28496.29
586.039	28594.59
586.236	28088.74
586.434	28021.16
586.631	28307.88
586.828	28010.92
587.026	27711.92
587.223	27916.72
587.42	27703.73
587.618	27906.48
587.815	27511.22
588.012	27548.08
588.21	27398.58
588.407	27916.72
588.604	27130.3
588.801	27189.69
588.999	27400.63
589.196	27570.61
589.393	27345.33
589.59	27175.35
589.787	27255.22
589.984	27015.61
590.182	26898.87
590.379	27122.1
590.576	26962.36
590.773	26808.76
590.97	26970.55
591.167	27023.8
591.364	26401.22
591.561	26884.54
591.758	26503.62
591.955	26520
592.152	26411.46
592.349	26472.9
592.546	26716.61
592.743	26579.39
592.94	25838.03
593.137	26556.86
593.334	26167.75
593.531	25921.99
593.727	26214.85
593.924	26046.92
594.121	25897.42
594.318	26061.26
594.515	25768.4
594.712	25891.27
594.908	25698.77
595.105	25602.51
595.302	25590.22
595.499	25752.01
595.696	25467.34
595.892	25401.81
596.089	25579.98
596.286	25698.77
596.482	25491.92
596.679	25430.48
596.876	25508.3
597.072	25297.36
597.269	25283.03
597.466	25201.11
597.662	24883.67
597.859	25201.11
598.055	25649.61
598.252	25182.68
598.448	25049.56
598.645	24984.02
598.841	24719.84
599.038	25096.66
599.234	24951.26
599.431	24961.5
599.627	24771.04
599.824	25004.5
600.02	24852.95
600.217	24721.88
600.413	24863.19
600.609	24781.28
600.806	24631.77
601.002	24914.39
601.198	24361.44
601.395	24449.5
601.591	24711.64
601.787	24650.21
601.984	24195.56
602.18	24844.76
602.376	24316.39
602.572	24631.77
602.769	24578.53
602.965	24418.78
603.161	24379.87
603.357	24400.35
603.553	24549.85
603.75	24560.09
603.946	24390.11
604.142	24252.9
604.338	24084.97
604.534	24881.63
604.73	24136.17
604.926	24281.57
605.122	24685.02
605.318	24318.43
605.514	24500.7
605.71	24091.11
605.906	24283.62
606.102	24494.56
606.298	24547.81
606.494	24539.61
606.69	24512.99
606.886	24551.9
607.082	24232.42
607.278	24674.78
607.474	24234.47
607.67	24670.68
607.866	24310.24
608.062	24670.68
608.257	24304.1
608.453	24318.43
608.649	24355.3
608.845	24144.36
609.041	24338.91
609.236	24629.73
609.432	24619.49
609.628	25061.85
609.824	24148.45
610.019	24631.77
610.215	24742.36
610.411	24705.5
610.606	24371.68
610.802	24472.03
610.998	24533.47
611.193	24660.45
611.389	24517.09
611.584	24373.73
611.78	24785.37
611.976	24371.68
612.171	24756.7
612.367	24515.04
612.562	24467.94
612.758	24236.52
612.953	24519.14
613.149	25027.03
613.344	24654.3
613.539	24908.25
613.735	24408.54
613.93	24805.85
614.126	24474.08
614.321	25041.37
614.517	24902.11
614.712	24695.26
614.907	24377.83
615.103	25385.43
615.298	24764.89
615.493	24959.45
615.688	24340.96
615.884	25115.09
616.079	24531.42
616.274	24781.28
616.47	24537.57
616.665	24666.59
616.86	24523.23
617.055	24654.3
617.25	24154.6
617.445	24814.04
617.641	24109.54
617.836	24422.88
618.031	23917.03
618.226	24345.06
618.421	24562.14
618.616	24709.6
618.811	24041.96
619.006	24549.85
619.201	24138.21
619.396	24105.45
619.591	23538.16
619.786	24099.3
619.981	23646.7
620.176	23908.84
620.371	23724.52
620.566	23667.18
620.761	23615.98
620.956	23658.99
621.151	23384.56
621.346	23579.12
621.541	23368.18
621.735	23482.86
621.93	22940.15
622.125	23251.44
622.32	22995.45
622.515	22741.5
622.709	23042.55
622.904	22671.87
623.099	22475.26
623.294	22598.14
623.488	22348.29
623.683	22448.64
623.878	22223.36
624.072	22131.2
624.267	22151.68
624.462	21955.08
624.656	21860.87
624.851	21891.59
625.046	21850.63
625.24	21660.17
625.435	21393.93
625.629	21312.02
625.824	21260.82
626.018	21463.57
626.213	20617.75
626.407	20967.96
626.602	20646.43
626.796	20959.77
626.991	20705.82
627.185	20519.45
627.38	20275.74
627.574	20273.7
627.768	19837.48
627.963	20492.83
628.157	19845.67
628.352	20161.06
628.546	19614.25
628.74	19857.96
628.935	19579.43
629.129	19860.01
629.323	19333.68
629.517	19204.66
629.712	19542.57
629.906	19423.79
630.1	18866.74
630.294	19036.72
630.489	18862.65
630.683	19124.79
630.877	18610.75
631.071	18760.25
631.265	18659.9
631.459	18772.53
631.653	18321.98
631.848	18582.07
632.042	18307.65
632.236	18141.76
632.43	17977.92
632.624	18170.43
632.818	18072.13
633.012	17842.76
633.206	17791.56
633.4	17861.19
633.594	17723.97
633.788	17334.86
633.982	17476.17
634.176	17594.95
634.369	17185.36
634.563	17203.79
634.757	17181.26
634.951	17048.15
635.145	17109.58
635.339	17001.04
635.533	16573.02
635.726	16781.91
635.92	16267.87
636.114	16632.41
636.308	16433.75
636.501	16306.78
636.695	16304.73
636.889	16005.73
637.083	16013.92
637.276	16052.83
637.47	16001.63
637.664	16054.88
637.857	15776.36
638.051	15649.38
638.244	15387.24
638.438	15747.69
638.632	15444.59
638.825	15137.39
639.019	15311.47
639.212	15270.51
639.406	15043.18
639.599	14908.02
639.793	15346.28
639.986	14676.6
640.18	14967.41
640.373	14668.41
640.567	14498.42
640.76	14512.76
640.954	14242.43
641.147	14328.44
641.34	14176.89
641.534	14324.35
641.727	14312.06
641.92	14215.8
642.114	13963.9
642.307	13795.97
642.5	13838.98
642.694	13689.48
642.887	13578.89
643.08	13763.2
643.273	13394.57
643.467	13275.79
643.66	13259.4
643.853	13318.79
644.046	13189.77
644.239	13095.57
644.432	13023.89
644.626	12958.35
644.819	12880.53
645.012	12882.58
645.205	12913.3
645.398	12593.81
645.591	12452.5
645.784	12532.37
645.977	12407.45
646.17	12475.03
646.363	12364.44
646.556	12343.96
646.749	12171.93
646.942	12204.7
647.135	11977.37
647.328	11956.89
647.521	11938.46
647.714	11690.66
647.907	11834.02
648.099	11825.82
648.292	11686.56
648.485	11653.8
648.678	11512.49
648.871	11428.52
649.064	11383.46
649.256	11399.85
649.449	11375.27
649.642	11172.52
649.835	11246.25
650.027	11117.23
650.22	10998.45
650.413	10789.55
650.605	10877.62
650.798	11047.6
650.991	10795.7
651.183	10650.29
651.376	10613.43
651.568	10740.4
651.761	10601.14
651.954	10613.43
652.146	10404.53
652.339	10484.41
652.531	10236.6
652.724	10375.86
652.916	10226.36
653.109	10207.93
653.301	10058.43
653.494	10132.15
653.686	9933.5
653.879	10015.42
654.071	9708.23
654.263	9822.91
654.456	9929.41
654.648	9706.18
654.84	9654.98
655.033	9665.22
655.225	9913.02
655.417	9413.32
655.61	9591.49
655.802	9618.11
655.994	9327.3
656.186	9274.06
656.379	9378.5
656.571	9089.74
656.763	9196.23
656.955	9237.19
657.148	9124.55
657.34	9009.87
657.532	9032.4
657.724	8901.33
657.916	8977.1
658.108	8911.57
658.3	8835.79
658.492	8913.61
658.684	8594.13
658.876	8655.57
659.068	8614.61
659.26	8536.79
659.452	8452.82
659.644	8628.95
659.836	8252.12
660.028	8364.76
660.22	8245.98
660.412	8196.82
660.604	8288.98
660.796	8303.32
660.988	8153.82
661.18	8162.01
661.372	8092.38
661.563	8299.22
661.755	7924.44
661.947	7858.91
662.139	7953.12
662.331	7797.47
662.522	7918.3
662.714	7631.58
662.906	7807.71
663.097	7922.4
663.289	7619.3
663.481	7695.07
663.673	7664.35
663.864	7418.6
664.056	7598.82
664.247	7574.24
664.439	7389.92
664.631	7424.74
664.822	7580.39
665.014	7297.77
665.205	7189.22
665.397	7314.15
665.588	7197.42
665.78	7127.78
665.971	6902.51
666.163	7113.45
666.354	7234.28
666.546	7125.74
666.737	6853.36
666.929	6951.66
667.12	6902.51
667.311	7021.29
667.503	6783.73
667.694	6828.78
667.885	6750.96
668.077	6849.26
668.268	6677.23
668.459	6664.94
668.651	6451.95
668.842	6658.8
669.033	6628.08
669.224	6544.11
669.416	6595.31
669.607	6474.48
669.798	6411
669.989	6404.85
670.18	6357.75
670.371	6398.71
670.563	6367.99
670.754	6392.56
670.945	6339.32
671.136	6423.28
671.327	6183.67
671.518	6349.56
671.709	6148.86
671.9	6372.08
672.091	6183.67
672.282	6179.58
672.473	6025.98
672.664	6046.46
672.855	6044.41
673.046	6099.7
673.237	6034.17
673.428	5925.63
673.619	6132.47
673.809	5870.33
674	5866.24
674.191	5800.7
674.382	5765.89
674.573	5812.99
674.764	5812.99
674.954	5870.33
675.145	5747.45
675.336	5870.33
675.527	5706.49
675.717	5624.58
675.908	5520.13
676.099	5755.65
676.289	5778.17
676.48	5825.28
676.671	5614.34
676.861	5643.01
677.052	5673.73
677.243	5591.81
677.433	5731.07
677.624	5595.9
677.814	5509.89
678.005	5423.87
678.195	5532.42
678.386	5518.08
678.576	5454.59
678.767	5522.18
678.957	5536.51
679.148	5462.79
679.338	5456.64
679.529	5526.27
679.719	5364.48
679.909	5497.6
680.1	5458.69
680.29	5348.1
680.481	5305.09
680.671	5401.35
680.861	5323.52
681.052	5419.78
681.242	5296.9
681.432	5542.66
681.622	5323.52
681.813	5346.05
682.003	5167.88
682.193	5149.45
682.383	5223.17
682.573	5194.5
682.764	5094.15
682.954	5444.35
683.144	5092.1
683.334	5184.26
683.524	4987.66
683.714	5231.37
683.904	5045
684.094	5133.06
684.284	5190.41
684.474	5202.69
684.664	5174.02
684.854	4950.79
685.044	4952.84
685.234	4993.8
685.424	4954.89
685.614	5090.06
685.804	4958.99
685.994	4989.71
686.184	4868.88
686.374	5008.14
686.564	4846.35
686.753	4985.61
686.943	4918.03
687.133	4954.89
687.323	4936.46
687.513	4836.11
687.702	4772.62
687.892	4905.74
688.082	4838.16
688.272	4866.83
688.461	4879.11
688.651	4719.37
688.841	4752.14
689.03	4674.32
689.22	4733.71
689.41	4776.72
689.599	4707.09
689.789	4621.07
689.979	4766.48
690.168	4893.45
690.358	4633.36
690.547	4549.39
690.737	4686.61
690.926	4569.87
691.116	4526.86
691.305	4551.44
691.495	4535.06
691.684	4483.86
691.874	4485.9
692.063	4453.14
692.252	4414.23
692.442	4528.91
692.631	4309.78
692.82	4385.55
693.01	4430.61
693.199	4412.18
693.388	4332.31
693.578	4444.95
693.767	4389.65
693.956	4422.42
694.146	4371.22
694.335	4250.39
694.524	4307.73
694.713	4217.62
694.902	4217.62
695.092	4279.06
695.281	4215.57
695.47	4160.28
695.659	4188.95
695.848	4082.46
696.037	4188.95
696.226	4168.47
696.415	4023.06
696.604	4170.52
696.793	4061.98
696.982	4240.15
697.171	4207.38
697.36	4078.36
697.549	4076.31
697.738	4184.85
697.927	3969.82
698.116	4027.16
698.305	3951.39
698.494	3961.62
698.683	3928.86
698.872	4018.97
699.061	3975.96
699.25	3904.28
699.438	3994.39
699.627	3818.27
699.816	4002.58
700.005	3961.62
700.193	3863.32
700.382	3971.86
700.571	3851.03
700.76	3848.99
700.948	3920.67
701.137	3846.94
701.326	3814.17
701.514	3785.5
701.703	3765.02
701.892	3773.21
702.08	3775.26
702.269	3597.09
702.457	3752.73
702.646	3668.77
702.834	3638.05
703.023	3717.92
703.212	3863.32
703.4	3740.44
703.589	3699.48
703.777	3805.98
703.965	3527.46
704.154	3650.33
704.342	3617.57
704.531	3693.34
704.719	3488.54
704.907	3660.57
705.096	3511.07
705.284	3494.69
705.472	3474.21
705.661	3595.04
705.849	3504.93
706.037	3443.49
706.226	3523.36
706.414	3527.46
706.602	3543.84
706.79	3425.06
706.979	3441.44
707.167	3416.87
707.355	3396.39
707.543	3474.21
707.731	3373.86
707.919	3470.11
708.107	3349.28
708.296	3291.94
708.484	3380
708.672	3306.27
708.86	3304.23
709.048	3216.16
709.236	3236.64
709.424	3250.98
709.612	3236.64
709.8	3148.58
709.988	3291.94
710.176	3291.94
710.364	3218.21
710.551	3121.96
710.739	3308.32
710.927	3242.79
711.115	3117.86
711.303	3253.03
711.491	3134.25
711.679	2990.89
711.866	3187.49
712.054	3210.02
712.242	3093.29
712.43	3220.26
712.617	3158.82
712.805	3070.76
712.993	3054.37
713.181	3093.29
713.368	3031.85
713.556	3005.22
713.744	2855.72
713.931	3087.14
714.119	2999.08
714.306	2962.22
714.494	3011.37
714.682	2921.26
714.869	2923.3
715.057	2857.77
715.244	2947.88
715.432	3029.8
715.619	2915.11
715.807	2874.15
715.994	3007.27
716.182	2827.05
716.369	2896.68
716.556	2970.41
716.744	2822.95
716.931	2781.99
717.119	2761.52
717.306	2728.75
717.493	2812.71
717.681	2810.67
717.868	2839.34
718.055	2816.81
718.242	2663.21
718.43	2786.09
718.617	2820.91
718.804	2767.66
718.991	2616.11
719.179	2702.12
719.366	2741.04
719.553	2712.36
719.74	2599.73
719.927	2622.25
720.114	2618.16
720.301	2646.83
720.488	2564.91
720.676	2585.39
720.863	2659.12
721.05	2597.68
721.237	2714.41
721.424	2599.73
721.611	2540.33
721.798	2628.4
721.985	2489.14
722.172	2589.49
722.358	2456.37
722.545	2552.62
722.732	2528.05
722.919	2519.85
723.106	2396.98
723.293	2515.76
723.48	2487.09
723.667	2396.98
723.853	2405.17
724.04	2458.42
724.227	2388.78
724.414	2478.9
724.6	2380.59
724.787	2427.7
724.974	2454.32
725.161	2409.26
725.347	2356.02
725.534	2421.55
725.72	2392.88
725.907	2407.22
726.094	2392.88
726.28	2343.73
726.467	2388.78
726.653	2405.17
726.84	2380.59
727.027	2325.3
727.213	2315.06
727.4	2327.35
727.586	2364.21
727.773	2233.14
727.959	2186.04
728.145	2364.21
728.332	2317.11
728.518	2290.48
728.705	2247.48
728.891	2298.67
729.077	2192.18
729.264	2067.25
729.45	2245.43
729.636	2337.59
729.823	2151.22
730.009	2298.67
730.195	2179.89
730.382	2104.12
730.568	2087.73
730.754	2206.52
730.94	2192.18
731.126	2136.88
731.313	2259.76
731.499	2159.41
731.685	2194.23
731.871	2067.25
732.057	2222.9
732.243	2059.06
732.429	2106.17
732.615	2208.56
732.801	2112.31
732.987	2063.16
733.173	2085.69
733.359	2151.22
733.545	1942.33
733.731	1977.14
733.917	2001.72
734.103	2042.68
734.289	2038.58
734.475	1997.62
734.661	2079.54
734.847	2046.77
735.033	2018.1
735.219	1921.85
735.404	2112.31
735.59	1973.05
735.776	2022.2
735.962	2014.01
736.148	2048.82
736.333	1979.19
736.519	1876.79
736.705	1944.38
736.89	1942.33
737.076	1913.66
737.262	2011.96
737.447	1850.17
737.633	1876.79
737.819	1878.84
738.004	1768.25
738.19	1839.93
738.375	1940.28
738.561	1889.08
738.747	1930.04
738.932	1858.36
739.118	1950.52
739.303	1878.84
739.489	1936.18
739.674	1809.21
739.859	1844.03
740.045	1864.5
740.23	1850.17
740.416	1770.3
740.601	1860.41
740.786	1749.82
740.972	1715
741.157	1741.63
741.342	1762.11
741.528	1815.35
741.713	1809.21
741.898	1790.78
742.084	1678.14
742.269	1694.52
742.454	1725.24
742.639	1731.39
742.824	1596.22
743.01	1860.41
743.195	1856.31
743.38	1676.09
743.565	1694.52
743.75	1790.78
743.935	1667.9
744.12	1760.06
744.305	1594.17
744.49	1545.02
744.675	1643.32
744.86	1592.13
745.045	1663.8
745.23	1569.6
745.415	1596.22
745.6	1545.02
745.785	1522.49
745.97	1641.28
746.155	1528.64
746.34	1581.89
746.525	1612.6
746.71	1590.08
746.895	1532.73
747.079	1495.87
747.264	1495.87
747.449	1520.45
747.634	1456.96
747.819	1481.53
748.003	1454.91
748.188	1399.62
748.373	1516.35
748.557	1375.04
748.742	1389.38
748.927	1430.34
749.111	1366.85
749.296	1448.77
749.481	1389.38
749.665	1405.76
749.85	1321.79
750.034	1416
750.219	1266.5
750.404	1348.42
750.588	1282.88
750.773	1291.07
750.957	1317.7
751.141	1379.14
751.326	1332.03
751.51	1284.93
751.695	1348.42
751.879	1286.98
752.064	1350.46
752.248	1223.49
752.432	1340.22
752.617	1329.99
752.801	1334.08
752.985	1332.03
753.17	1258.31
753.354	1147.72
753.538	1260.35
753.722	1147.72
753.907	1205.06
754.091	1127.24
754.275	1160
754.459	1080.13
754.643	1137.48
754.828	1153.86
755.012	1121.09
755.196	1192.77
755.38	1053.51
755.564	1028.93
755.748	1078.08
755.932	1086.28
756.116	1157.96
756.3	1024.84
756.484	1069.89
756.668	1008.45
756.852	1063.75
757.036	1028.93
757.22	1119.04
757.404	1030.98
757.588	1024.84
757.772	1035.08
757.956	1037.13
758.14	926.54
758.323	947.01
758.507	1012.55
758.691	918.34
758.875	1030.98
759.059	1063.75
759.242	924.49
759.426	955.21
759.61	877.38
759.794	947.01
759.977	889.67
760.161	1073.99
760.345	1033.03
760.528	947.01
760.712	899.91
760.895	910.15
761.079	854.86
761.263	861
761.446	881.48
761.63	838.47
761.813	867.14
761.997	877.38
762.18	850.76
762.364	897.86
762.547	865.1
762.731	840.52
762.914	910.15
763.098	844.62
763.281	854.86
763.464	904.01
763.648	770.89
763.831	904.01
764.015	891.72
764.198	949.06
764.381	777.03
764.564	922.44
764.748	901.96
764.931	875.34
765.114	840.52
765.297	838.47
765.481	697.16
765.664	867.14
765.847	725.83
766.03	813.9
766.213	750.41
766.397	738.12
766.58	711.5
766.763	865.1
766.946	717.64
767.129	766.79
767.312	848.71
767.495	668.49
767.678	774.99
767.861	832.33
768.044	709.45
768.227	770.89
768.41	717.64
768.593	760.65
768.776	815.94
768.959	727.88
769.142	746.31
769.324	738.12
769.507	768.84
769.69	746.31
769.873	721.74
770.056	840.52
770.239	668.49
770.421	729.93
770.604	688.97
770.787	701.26
770.97	660.3
771.152	725.83
771.335	709.45
771.518	723.79
771.7	725.83
771.883	717.64
772.066	625.48
772.248	697.16
772.431	713.55
772.613	729.93
772.796	572.24
772.978	717.64
773.161	772.94
773.343	607.05
773.526	607.05
773.708	570.19
773.891	566.09
774.073	643.92
774.256	594.76
774.438	672.59
774.621	574.28
774.803	600.91
774.985	652.11
775.168	643.92
775.35	566.09
775.532	639.82
775.715	652.11
775.897	586.57
776.079	531.28
776.261	557.9
776.444	602.96
776.626	627.53
776.808	562
776.99	590.67
777.173	643.92
777.355	549.71
777.537	639.82
777.719	639.82
777.901	510.8
778.083	480.08
778.265	512.85
778.447	549.71
778.629	529.23
778.811	578.38
778.993	594.76
779.175	629.58
779.357	555.85
779.539	543.57
779.721	525.13
779.903	531.28
780.085	488.27
780.267	512.85
780.449	414.54
780.631	508.75
780.812	508.75
780.994	492.37
781.176	475.98
781.358	435.02
781.54	471.89
781.721	455.5
781.903	492.37
782.085	408.4
782.267	498.51
782.448	394.06
782.63	428.88
782.812	490.32
782.993	435.02
783.175	392.02
783.357	422.73
783.538	435.02
783.72	471.89
783.901	469.84
784.083	318.29
784.264	377.68
784.446	359.25
784.627	392.02
784.809	392.02
784.99	412.5
785.172	392.02
785.353	375.63
785.535	336.72
785.716	521.04
785.897	389.97
786.079	447.31
786.26	443.21
786.441	365.39
786.623	287.57
786.804	365.39
786.985	404.3
787.167	373.58
787.348	392.02
787.529	383.82
787.71	432.97
787.891	402.26
788.073	373.58
788.254	283.47
788.435	377.68
788.616	320.34
788.797	306
788.978	334.67
789.159	316.24
789.34	328.53
789.522	306
789.703	342.86
789.884	353.1
790.065	275.28
790.246	389.97
790.427	293.71
790.607	349.01
790.788	254.8
790.969	318.29
791.15	318.29
791.331	258.9
791.512	381.78
791.693	242.51
791.874	303.95
792.054	383.82
792.235	250.71
792.416	228.18
792.597	328.53
792.778	324.43
792.958	312.14
793.139	217.94
793.32	267.09
793.5	117.59
793.681	262.99
793.862	250.71
794.042	267.09
794.223	201.55
794.404	205.65
794.584	226.13
794.765	279.38
794.945	250.71
795.126	275.28
795.306	258.9
795.487	232.27
795.667	226.13
795.848	217.94
796.028	262.99
796.209	185.17
796.389	250.71
796.57	262.99
796.75	238.42
796.93	201.55
797.111	242.51
797.291	201.55
797.471	277.33
797.652	203.6
797.832	234.32
798.012	299.86
798.192	154.45
798.373	193.36
798.553	222.03
798.733	201.55
798.913	238.42
799.093	152.4
799.274	224.08
799.454	185.17
799.634	181.07
799.814	211.79
799.994	244.56
800.174	193.36
800.354	195.41
800.534	164.69
800.714	187.22
800.894	207.7
801.074	258.9
801.254	189.27
801.434	219.99
801.614	203.6
801.794	142.16
801.974	1018.69
802.154	197.46
802.334	193.36
802.514	160.59
802.693	209.75
802.873	201.55
803.053	226.13
803.233	226.13
803.413	47.96
803.592	283.47
803.772	211.79
803.952	252.75
804.131	176.98
804.311	160.59
804.491	195.41
804.67	148.31
804.85	109.4
805.03	168.79
805.209	236.37
805.389	158.55
805.568	203.6
805.748	146.26
805.928	80.72
806.107	148.31
806.287	209.75
806.466	113.49
806.646	219.99
806.825	160.59
807.004	138.07
807.184	219.99
807.363	183.12
807.543	185.17
807.722	123.73
807.901	205.65
808.081	195.41
808.26	119.64
808.439	144.21
808.619	160.59
808.798	123.73
808.977	201.55
809.156	170.83
809.336	144.21
809.515	119.64
809.694	70.48
809.873	154.45
810.052	109.4
810.231	162.64
810.411	154.45
810.59	105.3
810.769	152.4
810.948	127.83
811.127	80.72
811.306	80.72
811.485	56.15
811.664	166.74
811.843	168.79
812.022	119.64
812.201	162.64
812.38	168.79
812.559	33.62
812.737	209.75
812.916	95.06
813.095	86.87
813.274	195.41
813.453	201.55
813.632	136.02
813.811	152.4
813.989	111.44
814.168	121.68
814.347	78.68
814.526	162.64
814.704	189.27
814.883	129.88
815.062	115.54
815.24	97.11
815.419	109.4
815.598	121.68
815.776	62.29
815.955	125.78
816.133	90.96
816.312	115.54
816.49	84.82
816.669	119.64
816.847	103.25
817.026	127.83
817.204	80.72
817.383	144.21
817.561	123.73
817.74	107.35
817.918	131.92
818.097	58.2
818.275	80.72
818.453	127.83
818.632	115.54
818.81	68.44
818.988	107.35
819.167	29.52
819.345	56.15
819.523	95.06
819.701	121.68
819.879	103.25
820.058	127.83
820.236	70.48
820.414	103.25
820.592	136.02
820.77	78.68
820.948	111.44
821.127	93.01
821.305	103.25
821.483	99.16
821.661	154.45
821.839	95.06
822.017	119.64
822.195	80.72
822.373	170.83
822.551	119.64
822.729	209.75
822.907	97.11
823.085	97.11
823.262	78.68
823.44	158.55
823.618	66.39
823.796	179.03
823.974	176.98
824.152	148.31
824.329	115.54
824.507	58.2
824.685	107.35
824.863	97.11
825.04	107.35
825.218	121.68
825.396	54.1
825.574	160.59
825.751	0.85
825.929	113.49
826.107	-3.24
826.284	37.72
826.462	70.48
826.639	64.34
826.817	-7.34
826.994	45.91
827.172	70.48
827.349	162.64
827.527	23.38
827.704	78.68
827.882	72.53
828.059	111.44
828.237	103.25
828.414	103.25
828.591	-11.43
828.769	47.96
828.946	9.05
829.124	29.52
829.301	107.35
829.478	54.1
829.655	86.87
829.833	72.53
830.01	66.39
830.187	45.91
830.364	86.87
830.542	82.77
830.719	160.59
830.896	21.33
831.073	95.06
831.25	97.11
831.427	97.11
831.604	31.57
831.782	33.62
831.959	105.3
832.136	80.72
832.313	62.29
832.49	21.33
832.667	86.87
832.844	-3.24
833.021	148.31
833.198	56.15
833.374	15.19
833.551	70.48
833.728	21.33
833.905	45.91
834.082	-3.24
834.259	78.68
834.436	74.58
834.612	54.1
834.789	144.21
834.966	78.68
835.143	119.64
835.319	-42.15
835.496	107.35
835.673	117.59
835.85	66.39
836.026	88.92
836.203	60.24
836.38	90.96
836.556	95.06
836.733	-11.43
836.909	97.11
837.086	47.96
837.262	-5.29
837.439	37.72
837.616	13.14
837.792	54.1
837.968	35.67
838.145	-15.53
838.321	160.59
838.498	109.4
838.674	62.29
838.851	93.01
839.027	-13.48
839.203	39.76
839.38	82.77
839.556	45.91
839.732	37.72
839.909	15.19
840.085	66.39
840.261	-11.43
840.437	39.76
840.614	37.72
840.79	-17.58
840.966	140.12
841.142	88.92
841.318	54.1
841.494	41.81
841.671	68.44
841.847	9.05
842.023	-17.58
842.199	9.05
842.375	119.64
842.551	29.52
842.727	66.39
842.903	119.64
843.079	41.81
843.255	99.16
843.431	-9.39
843.607	4.95
843.783	13.14
843.959	99.16
844.134	2.9
844.31	62.29
844.486	50
844.662	25.43
844.838	80.72
845.013	72.53
845.189	50
845.365	19.29
845.541	54.1
845.716	-19.63
845.892	50
846.068	-3.24
846.244	45.91
846.419	54.1
846.595	-36.01
846.77	103.25
846.946	13.14
847.122	45.91
847.297	7
847.473	62.29
847.648	-7.34
847.824	-1.19
847.999	-36.01
848.175	-36.01
848.35	60.24
848.526	156.5
848.701	95.06
848.876	-9.39
849.052	45.91
849.227	23.38
849.403	-15.53
849.578	31.57
849.753	29.52
849.929	66.39
850.104	-85.16
850.279	54.1
850.454	4.95
850.63	78.68
850.805	33.62
850.98	56.15
851.155	-1.19
851.33	29.52
851.505	23.38
851.681	21.33
851.856	23.38
852.031	62.29
852.206	58.2
852.381	-103.59
852.556	39.76
852.731	13.14
852.906	56.15
853.081	50
853.256	37.72
853.431	62.29
853.606	35.67
853.781	4.95
853.956	-60.59
854.131	37.72
854.305	4.95
854.48	86.87
854.655	-29.87
854.83	50
855.005	-11.43
855.18	64.34
855.354	27.48
855.529	-3.24
855.704	13.14
855.879	58.2
856.053	64.34
856.228	37.72
856.403	-19.63
856.577	70.48
856.752	-9.39
856.926	35.67
857.101	-29.87
857.276	-27.82
857.45	-17.58
857.625	45.91
857.799	70.48
857.974	13.14
858.148	-3.24
858.323	50
858.497	-11.43
858.672	4.95
858.846	70.48
859.02	64.34
859.195	-19.63
859.369	113.49
859.543	136.02
859.718	41.81
859.892	-5.29
860.066	-27.82
860.241	58.2
860.415	-23.72
860.589	-19.63
860.763	-3.24
860.938	2.9
861.112	33.62
861.286	54.1
861.46	58.2
861.634	-3.24
861.808	70.48
861.982	-83.11
862.157	-42.15
862.331	-93.35
862.505	70.48
862.679	9.05
862.853	31.57
863.027	-36.01
863.201	-7.34
863.375	-3.24
863.549	-3.24
863.722	80.72
863.896	37.72
864.07	25.43
864.244	29.52
864.418	54.1
864.592	58.2
864.766	-68.78
864.939	37.72
865.113	9.05
865.287	25.43
865.461	-72.87
865.634	33.62
865.808	21.33
865.982	9.05
866.156	4.95
866.329	-3.24
866.503	-21.67
866.676	39.76
866.85	39.76
867.024	-19.63
867.197	13.14
867.371	27.48
867.544	41.81
867.718	-52.39
867.891	117.59
868.065	-42.15
868.238	-27.82
868.412	119.64
868.585	-50.35
868.759	93.01
868.932	-7.34
869.105	-31.91
869.279	4.95
869.452	4.95
869.625	-72.87
869.799	-13.48
869.972	-74.92
870.145	74.58
870.319	31.57
870.492	-19.63
870.665	2.9
870.838	33.62
871.011	-83.11
871.185	25.43
871.358	17.24
871.531	78.68
871.704	-1.19
871.877	13.14
872.05	43.86
872.223	25.43
872.396	-1.19
872.569	-3.24
872.742	-29.87
872.915	-17.58
873.088	113.49
873.261	-9.39
873.434	62.29
873.607	-72.87
873.78	-17.58
873.953	29.52
874.126	74.58
874.299	58.2
874.471	-13.48
874.644	15.19
874.817	-99.5
874.99	29.52
875.163	25.43
875.335	64.34
875.508	-1.19
875.681	33.62
875.853	-9.39
876.026	-48.3
876.199	35.67
876.371	-40.11
876.544	9.05
876.717	13.14
876.889	37.72
877.062	58.2
877.234	-27.82
877.407	-9.39
877.579	-27.82
877.752	31.57
877.924	58.2
878.097	-52.39
878.269	31.57
878.442	7
878.614	80.72
878.786	-23.72
878.959	-56.49
879.131	2.9
879.303	-64.68
879.476	0.85
879.648	56.15
879.82	25.43
879.993	11.09
880.165	-54.44
880.337	33.62
880.509	7
880.681	-27.82
880.854	-33.96
881.026	31.57
881.198	45.91
881.37	-52.39
881.542	-64.68
881.714	4.95
881.886	45.91
882.058	-9.39
882.23	15.19
882.402	31.57
882.574	21.33
882.746	47.96
882.918	11.09
883.09	-15.53
883.262	31.57
883.434	-36.01
883.606	-33.96
883.778	21.33
883.95	25.43
884.122	-36.01
884.293	21.33
884.465	7
884.637	45.91
884.809	-52.39
884.98	-1.19
885.152	-38.06
885.324	45.91
885.496	-56.49
885.667	-15.53
885.839	17.24
886.011	7
886.182	-36.01
886.354	82.77
886.525	29.52
886.697	-40.11
886.869	-68.78
887.04	-31.91
887.212	-19.63
887.383	88.92
887.555	37.72
887.726	21.33
887.897	-66.73
888.069	-36.01
888.24	9.05
888.412	29.52
888.583	-3.24
888.754	9.05
888.926	-36.01
889.097	21.33
889.268	-66.73
889.44	-23.72
889.611	-7.34
889.782	97.11
889.953	-40.11
890.125	45.91
890.296	-3.24
890.467	15.19
890.638	-44.2
890.809	4.95
890.98	-44.2
891.151	68.44
891.323	-11.43
891.494	-95.4
891.665	13.14
891.836	9.05
892.007	-48.3
892.178	2.9
892.349	72.53
892.52	-1.19
892.691	17.24
892.862	37.72
893.032	-17.58
893.203	-33.96
893.374	17.24
893.545	50
893.716	4.95
893.887	74.58
894.057	-9.39
894.228	84.82
894.399	15.19
894.57	45.91
894.74	35.67
894.911	-1.19
895.082	21.33
895.253	-44.2
895.423	21.33
895.594	70.48
895.764	152.4
895.935	23.38
896.106	13.14
896.276	-50.35
896.447	-17.58
896.617	43.86
896.788	-17.58
896.958	-19.63
897.129	-19.63
897.299	-17.58
897.47	-21.67
897.64	-23.72
897.81	31.57
897.981	39.76
898.151	-25.77
898.322	-31.91
898.492	0.85
898.662	21.33
898.832	-11.43
899.003	-1.19
899.173	-15.53
899.343	15.19
899.513	9.05
