Data from USB4F104151__83__14-30-34-847.txt Node

Date: Thu Mar 13 14:30:34 EDT 2025
User: louis
Spectrometer: USB4F10415
Trigger mode: 4
Integration Time (sec): 2.500000E-2
Scans to average: 1
Electric dark correction enabled: true
Nonlinearity correction enabled: false
Boxcar width: 0
XAxis mode: Wavelengths
Number of Pixels in Spectrum: 3648
>>>>>Begin Spectral Data<<<<<
178.204	-136.36
178.424	-136.36
178.644	-136.36
178.864	-195.75
179.084	-103.59
179.304	-38.06
179.524	7
179.744	-60.59
179.964	64.34
180.184	25.43
180.404	50
180.624	-31.91
180.844	-54.44
181.064	17.24
181.283	33.62
181.503	-54.44
181.723	41.81
181.943	-40.11
182.163	21.33
182.383	35.67
182.602	29.52
182.822	50
183.042	11.09
183.262	-23.72
183.482	25.43
183.701	-19.63
183.921	17.24
184.141	-1.19
184.361	66.39
184.58	62.29
184.8	-7.34
185.02	2.9
185.239	74.58
185.459	50
185.679	45.91
185.898	4.95
186.118	-48.3
186.338	54.1
186.557	50
186.777	31.57
186.997	9.05
187.216	54.1
187.436	58.2
187.655	37.72
187.875	66.39
188.095	54.1
188.314	68.44
188.534	15.19
188.753	43.86
188.973	0.85
189.192	27.48
189.412	17.24
189.631	31.57
189.851	-29.87
190.07	125.78
190.29	2.9
190.509	41.81
190.729	25.43
190.948	13.14
191.168	131.92
191.387	17.24
191.607	66.39
191.826	-13.48
192.045	76.63
192.265	9.05
192.484	15.19
192.704	54.1
192.923	-81.07
193.142	168.79
193.362	131.92
193.581	-29.87
193.8	101.2
194.02	56.15
194.239	-15.53
194.458	74.58
194.678	33.62
194.897	76.63
195.116	-7.34
195.335	45.91
195.555	70.48
195.774	0.85
195.993	33.62
196.212	64.34
196.432	19.29
196.651	54.1
196.87	-15.53
197.089	115.54
197.308	21.33
197.528	70.48
197.747	-11.43
197.966	4.95
198.185	43.86
198.404	-5.29
198.623	-60.59
198.842	37.72
199.062	4.95
199.281	95.06
199.5	25.43
199.719	33.62
199.938	117.59
200.157	84.82
200.376	17.24
200.595	-1.19
200.814	21.33
201.033	-11.43
201.252	133.97
201.471	33.62
201.69	37.72
201.909	47.96
202.128	107.35
202.347	41.81
202.566	29.52
202.785	9.05
203.004	37.72
203.223	54.1
203.442	11.09
203.661	4.95
203.879	0.85
204.098	117.59
204.317	-44.2
204.536	93.01
204.755	90.96
204.974	58.2
205.193	93.01
205.411	82.77
205.63	140.12
205.849	2.9
206.068	31.57
206.287	19.29
206.505	33.62
206.724	123.73
206.943	45.91
207.162	41.81
207.381	29.52
207.599	29.52
207.818	43.86
208.037	-13.48
208.255	21.33
208.474	99.16
208.693	58.2
208.911	31.57
209.13	84.82
209.349	68.44
209.567	70.48
209.786	37.72
210.005	78.68
210.223	50
210.442	-68.78
210.661	-9.39
210.879	0.85
211.098	25.43
211.316	58.2
211.535	25.43
211.753	19.29
211.972	66.39
212.191	35.67
212.409	41.81
212.628	21.33
212.846	-7.34
213.065	80.72
213.283	82.77
213.502	0.85
213.72	60.24
213.938	41.81
214.157	62.29
214.375	23.38
214.594	37.72
214.812	58.2
215.031	60.24
215.249	45.91
215.467	50
215.686	70.48
215.904	29.52
216.122	11.09
216.341	15.19
216.559	52.05
216.778	39.76
216.996	-11.43
217.214	4.95
217.432	0.85
217.651	13.14
217.869	41.81
218.087	-42.15
218.306	-19.63
218.524	109.4
218.742	-3.24
218.96	93.01
219.179	17.24
219.397	-3.24
219.615	58.2
219.833	25.43
220.051	-23.72
220.27	88.92
220.488	-36.01
220.706	27.48
220.924	-11.43
221.142	17.24
221.36	29.52
221.578	70.48
221.796	37.72
222.015	82.77
222.233	-48.3
222.451	58.2
222.669	19.29
222.887	9.05
223.105	29.52
223.323	25.43
223.541	-38.06
223.759	41.81
223.977	70.48
224.195	64.34
224.413	21.33
224.631	101.2
224.849	-5.29
225.067	115.54
225.285	33.62
225.503	76.63
225.721	-119.98
225.939	56.15
226.157	27.48
226.375	123.73
226.592	2.9
226.81	-5.29
227.028	95.06
227.246	78.68
227.464	23.38
227.682	50
227.9	-15.53
228.117	101.2
228.335	0.85
228.553	58.2
228.771	-66.73
228.989	-15.53
229.206	72.53
229.424	-48.3
229.642	76.63
229.86	-27.82
230.077	86.87
230.295	56.15
230.513	17.24
230.731	82.77
230.948	66.39
231.166	13.14
231.384	-3.24
231.601	4.95
231.819	68.44
232.037	93.01
232.254	31.57
232.472	54.1
232.689	29.52
232.907	-27.82
233.125	82.77
233.342	45.91
233.56	-15.53
233.777	7
233.995	93.01
234.213	136.02
234.43	41.81
234.648	84.82
234.865	13.14
235.083	25.43
235.3	52.05
235.518	93.01
235.735	93.01
235.953	50
236.17	60.24
236.388	-23.72
236.605	33.62
236.822	84.82
237.04	13.14
237.257	78.68
237.475	-40.11
237.692	66.39
237.909	33.62
238.127	4.95
238.344	21.33
238.562	11.09
238.779	7
238.996	84.82
239.214	123.73
239.431	133.97
239.648	-5.29
239.865	82.77
240.083	21.33
240.3	21.33
240.517	17.24
240.735	-21.67
240.952	37.72
241.169	45.91
241.386	-13.48
241.603	50
241.821	-54.44
242.038	105.3
242.255	95.06
242.472	-31.91
242.689	90.96
242.907	-3.24
243.124	95.06
243.341	-72.87
243.558	56.15
243.775	33.62
243.992	66.39
244.209	17.24
244.426	66.39
244.643	60.24
244.86	0.85
245.078	103.25
245.295	64.34
245.512	45.91
245.729	-29.87
245.946	33.62
246.163	90.96
246.38	9.05
246.597	45.91
246.814	17.24
247.031	74.58
247.248	-70.83
247.464	62.29
247.681	58.2
247.898	74.58
248.115	101.2
248.332	86.87
248.549	43.86
248.766	105.3
248.983	125.78
249.2	31.57
249.417	107.35
249.633	54.1
249.85	52.05
250.067	11.09
250.284	33.62
250.501	37.72
250.717	41.81
250.934	17.24
251.151	-11.43
251.368	41.81
251.585	-1.19
251.801	99.16
252.018	19.29
252.235	39.76
252.451	-27.82
252.668	11.09
252.885	29.52
253.102	35.67
253.318	-15.53
253.535	-48.3
253.752	-56.49
253.968	-48.3
254.185	-15.53
254.401	80.72
254.618	123.73
254.835	21.33
255.051	41.81
255.268	93.01
255.484	88.92
255.701	82.77
255.917	33.62
256.134	-5.29
256.351	19.29
256.567	9.05
256.784	41.81
257	-21.67
257.217	99.16
257.433	68.44
257.65	54.1
257.866	115.54
258.082	-27.82
258.299	54.1
258.515	131.92
258.732	-15.53
258.948	78.68
259.165	35.67
259.381	84.82
259.597	-3.24
259.814	27.48
260.03	-23.72
260.246	2.9
260.463	50
260.679	66.39
260.895	45.91
261.112	33.62
261.328	45.91
261.544	-23.72
261.761	62.29
261.977	43.86
262.193	17.24
262.409	115.54
262.626	56.15
262.842	154.45
263.058	11.09
263.274	62.29
263.49	82.77
263.707	29.52
263.923	25.43
264.139	-29.87
264.355	76.63
264.571	50
264.787	0.85
265.004	107.35
265.22	60.24
265.436	45.91
265.652	27.48
265.868	-17.58
266.084	-7.34
266.3	45.91
266.516	23.38
266.732	-5.29
266.948	-1.19
267.164	25.43
267.38	76.63
267.596	4.95
267.812	54.1
268.028	60.24
268.244	-19.63
268.46	52.05
268.676	19.29
268.892	-23.72
269.108	37.72
269.324	-40.11
269.54	11.09
269.756	-62.63
269.972	58.2
270.188	33.62
270.403	-13.48
270.619	43.86
270.835	58.2
271.051	35.67
271.267	99.16
271.483	4.95
271.698	11.09
271.914	9.05
272.13	35.67
272.346	-62.63
272.562	62.29
272.777	17.24
272.993	-19.63
273.209	74.58
273.425	50
273.64	-5.29
273.856	54.1
274.072	-3.24
274.287	-3.24
274.503	27.48
274.719	50
274.934	74.58
275.15	-7.34
275.366	-7.34
275.581	-27.82
275.797	37.72
276.012	74.58
276.228	25.43
276.444	2.9
276.659	99.16
276.875	-21.67
277.09	7
277.306	29.52
277.521	2.9
277.737	17.24
277.952	58.2
278.168	41.81
278.383	-7.34
278.599	82.77
278.814	19.29
279.03	103.25
279.245	123.73
279.461	-7.34
279.676	123.73
279.892	60.24
280.107	-19.63
280.322	-31.91
280.538	-25.77
280.753	29.52
280.969	74.58
281.184	70.48
281.399	99.16
281.615	93.01
281.83	56.15
282.045	-54.44
282.26	25.43
282.476	2.9
282.691	68.44
282.906	21.33
283.122	43.86
283.337	37.72
283.552	52.05
283.767	-44.2
283.983	74.58
284.198	-5.29
284.413	-23.72
284.628	-13.48
284.843	17.24
285.058	80.72
285.274	17.24
285.489	66.39
285.704	58.2
285.919	60.24
286.134	-19.63
286.349	-23.72
286.564	41.81
286.779	45.91
286.995	-21.67
287.21	80.72
287.425	25.43
287.64	-33.96
287.855	-1.19
288.07	70.48
288.285	93.01
288.5	84.82
288.715	29.52
288.93	-5.29
289.145	-29.87
289.36	64.34
289.575	11.09
289.79	31.57
290.004	41.81
290.219	11.09
290.434	-31.91
290.649	17.24
290.864	58.2
291.079	-15.53
291.294	74.58
291.509	60.24
291.724	33.62
291.938	31.57
292.153	-19.63
292.368	62.29
292.583	66.39
292.798	56.15
293.012	58.2
293.227	60.24
293.442	76.63
293.657	148.31
293.871	70.48
294.086	-27.82
294.301	97.11
294.516	50
294.73	74.58
294.945	-15.53
295.16	52.05
295.374	107.35
295.589	123.73
295.804	9.05
296.018	99.16
296.233	119.64
296.447	19.29
296.662	-27.82
296.877	52.05
297.091	74.58
297.306	97.11
297.52	50
297.735	84.82
297.949	23.38
298.164	-5.29
298.378	58.2
298.593	29.52
298.807	39.76
299.022	50
299.236	78.68
299.451	60.24
299.665	2.9
299.88	19.29
300.094	82.77
300.309	115.54
300.523	103.25
300.737	-13.48
300.952	70.48
301.166	25.43
301.381	-23.72
301.595	52.05
301.809	76.63
302.024	86.87
302.238	-70.83
302.452	111.44
302.667	25.43
302.881	84.82
303.095	60.24
303.309	19.29
303.524	-3.24
303.738	0.85
303.952	41.81
304.166	82.77
304.381	0.85
304.595	150.36
304.809	45.91
305.023	41.81
305.237	33.62
305.452	43.86
305.666	115.54
305.88	33.62
306.094	66.39
306.308	50
306.522	23.38
306.736	15.19
306.95	148.31
307.164	-33.96
307.379	80.72
307.593	90.96
307.807	95.06
308.021	7
308.235	43.86
308.449	-21.67
308.663	-40.11
308.877	127.83
309.091	66.39
309.305	50
309.519	-29.87
309.733	90.96
309.947	0.85
310.161	0.85
310.374	33.62
310.588	62.29
310.802	13.14
311.016	68.44
311.23	33.62
311.444	11.09
311.658	-15.53
311.872	37.72
312.085	64.34
312.299	-52.39
312.513	37.72
312.727	17.24
312.941	17.24
313.154	25.43
313.368	58.2
313.582	25.43
313.796	21.33
314.009	35.67
314.223	41.81
314.437	62.29
314.651	0.85
314.864	25.43
315.078	-38.06
315.292	2.9
315.505	37.72
315.719	82.77
315.933	74.58
316.146	-5.29
316.36	-19.63
316.573	82.77
316.787	72.53
317.001	50
317.214	-56.49
317.428	52.05
317.641	13.14
317.855	41.81
318.068	62.29
318.282	7
318.495	58.2
318.709	37.72
318.922	123.73
319.136	70.48
319.349	88.92
319.563	52.05
319.776	115.54
319.99	-40.11
320.203	113.49
320.417	93.01
320.63	60.24
320.843	68.44
321.057	82.77
321.27	52.05
321.483	45.91
321.697	74.58
321.91	50
322.124	84.82
322.337	56.15
322.55	70.48
322.763	2.9
322.977	66.39
323.19	33.62
323.403	25.43
323.617	-19.63
323.83	52.05
324.043	29.52
324.256	43.86
324.469	62.29
324.683	17.24
324.896	29.52
325.109	93.01
325.322	25.43
325.535	33.62
325.748	95.06
325.962	41.81
326.175	45.91
326.388	84.82
326.601	13.14
326.814	86.87
327.027	37.72
327.24	117.59
327.453	66.39
327.666	27.48
327.879	21.33
328.092	123.73
328.305	17.24
328.518	50
328.731	-38.06
328.944	74.58
329.157	-3.24
329.37	47.96
329.583	113.49
329.796	43.86
330.009	25.43
330.222	68.44
330.435	111.44
330.648	11.09
330.861	0.85
331.073	33.62
331.286	74.58
331.499	90.96
331.712	0.85
331.925	25.43
332.138	68.44
332.35	66.39
332.563	2.9
332.776	144.21
332.989	27.48
333.202	60.24
333.414	27.48
333.627	29.52
333.84	37.72
334.053	101.2
334.265	70.48
334.478	45.91
334.691	60.24
334.903	37.72
335.116	-46.25
335.329	23.38
335.541	99.16
335.754	90.96
335.966	-7.34
336.179	52.05
336.392	52.05
336.604	66.39
336.817	45.91
337.029	33.62
337.242	60.24
337.454	33.62
337.667	66.39
337.88	74.58
338.092	66.39
338.305	78.68
338.517	62.29
338.729	107.35
338.942	70.48
339.154	-9.39
339.367	41.81
339.579	74.58
339.792	0.85
340.004	17.24
340.217	-60.59
340.429	4.95
340.641	50
340.854	23.38
341.066	72.53
341.278	113.49
341.491	103.25
341.703	68.44
341.915	11.09
342.128	103.25
342.34	29.52
342.552	-17.58
342.764	29.52
342.977	95.06
343.189	82.77
343.401	41.81
343.613	50
343.826	72.53
344.038	33.62
344.25	45.91
344.462	50
344.674	156.5
344.886	33.62
345.099	88.92
345.311	9.05
345.523	-52.39
345.735	-3.24
345.947	11.09
346.159	45.91
346.371	95.06
346.583	72.53
346.795	117.59
347.007	66.39
347.219	72.53
347.431	66.39
347.643	45.91
347.855	37.72
348.067	142.16
348.279	-21.67
348.491	37.72
348.703	82.77
348.915	115.54
349.127	56.15
349.339	47.96
349.551	9.05
349.763	41.81
349.975	70.48
350.187	50
350.399	54.1
350.61	74.58
350.822	56.15
351.034	76.63
351.246	13.14
351.458	103.25
351.669	74.58
351.881	84.82
352.093	62.29
352.305	90.96
352.517	35.67
352.728	74.58
352.94	60.24
353.152	127.83
353.363	45.91
353.575	43.86
353.787	60.24
353.999	90.96
354.21	43.86
354.422	-15.53
354.633	29.52
354.845	62.29
355.057	2.9
355.268	86.87
355.48	78.68
355.692	-62.63
355.903	4.95
356.115	62.29
356.326	31.57
356.538	68.44
356.749	105.3
356.961	99.16
357.172	39.76
357.384	4.95
357.595	156.5
357.807	21.33
358.018	64.34
358.23	29.52
358.441	45.91
358.653	82.77
358.864	41.81
359.075	9.05
359.287	50
359.498	95.06
359.709	43.86
359.921	27.48
360.132	123.73
360.344	47.96
360.555	93.01
360.766	68.44
360.977	15.19
361.189	41.81
361.4	52.05
361.611	119.64
361.823	66.39
362.034	66.39
362.245	105.3
362.456	138.07
362.667	13.14
362.879	23.38
363.09	-23.72
363.301	115.54
363.512	27.48
363.723	37.72
363.935	70.48
364.146	127.83
364.357	74.58
364.568	74.58
364.779	35.67
364.99	99.16
365.201	50
365.412	88.92
365.623	-17.58
365.834	-42.15
366.045	33.62
366.256	90.96
366.467	78.68
366.678	103.25
366.889	68.44
367.1	13.14
367.311	39.76
367.522	-21.67
367.733	97.11
367.944	62.29
368.155	25.43
368.366	74.58
368.577	64.34
368.788	164.69
368.999	13.14
369.209	15.19
369.42	107.35
369.631	123.73
369.842	88.92
370.053	29.52
370.264	78.68
370.474	93.01
370.685	50
370.896	27.48
371.107	60.24
371.317	74.58
371.528	33.62
371.739	115.54
371.95	43.86
372.16	52.05
372.371	84.82
372.582	76.63
372.792	41.81
373.003	70.48
373.214	90.96
373.424	168.79
373.635	74.58
373.846	66.39
374.056	76.63
374.267	115.54
374.477	109.4
374.688	-31.91
374.898	101.2
375.109	43.86
375.319	41.81
375.53	78.68
375.74	41.81
375.951	27.48
376.161	76.63
376.372	60.24
376.582	0.85
376.793	103.25
377.003	140.12
377.214	25.43
377.424	125.78
377.635	158.55
377.845	21.33
378.055	64.34
378.266	27.48
378.476	41.81
378.686	74.58
378.897	0.85
379.107	9.05
379.317	82.77
379.528	33.62
379.738	70.48
379.948	0.85
380.158	27.48
380.369	90.96
380.579	33.62
380.789	13.14
380.999	113.49
381.21	131.92
381.42	86.87
381.63	68.44
381.84	29.52
382.05	93.01
382.261	35.67
382.471	54.1
382.681	25.43
382.891	99.16
383.101	58.2
383.311	21.33
383.521	37.72
383.731	115.54
383.941	54.1
384.151	29.52
384.361	31.57
384.571	19.29
384.781	41.81
384.991	74.58
385.201	172.88
385.411	25.43
385.621	148.31
385.831	74.58
386.041	117.59
386.251	13.14
386.461	103.25
386.671	50
386.881	60.24
387.091	50
387.301	95.06
387.511	107.35
387.72	47.96
387.93	84.82
388.14	-27.82
388.35	82.77
388.56	90.96
388.769	70.48
388.979	111.44
389.189	52.05
389.399	97.11
389.609	74.58
389.818	129.88
390.028	103.25
390.238	80.72
390.447	101.2
390.657	52.05
390.867	58.2
391.076	115.54
391.286	125.78
391.496	84.82
391.705	66.39
391.915	93.01
392.125	86.87
392.334	95.06
392.544	129.88
392.753	80.72
392.963	66.39
393.172	90.96
393.382	58.2
393.591	144.21
393.801	19.29
394.01	142.16
394.22	140.12
394.429	19.29
394.639	62.29
394.848	133.97
395.058	74.58
395.267	31.57
395.477	82.77
395.686	62.29
395.895	131.92
396.105	133.97
396.314	90.96
396.524	174.93
396.733	82.77
396.942	244.56
397.152	156.5
397.361	121.68
397.57	88.92
397.78	74.58
397.989	88.92
398.198	123.73
398.407	76.63
398.617	133.97
398.826	144.21
399.035	109.4
399.244	140.12
399.453	127.83
399.663	156.5
399.872	172.88
400.081	109.4
400.29	158.55
400.499	101.2
400.708	181.07
400.917	148.31
401.127	131.92
401.336	99.16
401.545	217.94
401.754	215.89
401.963	170.83
402.172	62.29
402.381	142.16
402.59	117.59
402.799	164.69
403.008	201.55
403.217	162.64
403.426	174.93
403.635	93.01
403.844	103.25
404.053	127.83
404.262	236.37
404.471	271.19
404.68	234.32
404.888	111.44
405.097	166.74
405.306	166.74
405.515	199.51
405.724	107.35
405.933	117.59
406.142	160.59
406.35	205.65
406.559	224.08
406.768	189.27
406.977	279.38
407.185	254.8
407.394	250.71
407.603	232.27
407.812	219.99
408.02	316.24
408.229	262.99
408.438	303.95
408.646	297.81
408.855	357.2
409.064	394.06
409.272	326.48
409.481	258.9
409.69	310.1
409.898	344.91
410.107	381.78
410.315	396.11
410.524	412.5
410.733	377.68
410.941	387.92
411.15	488.27
411.358	449.36
411.567	467.79
411.775	500.56
411.984	510.8
412.192	500.56
412.401	502.61
412.609	551.76
412.818	660.3
413.026	555.85
413.234	641.87
413.443	666.44
413.651	641.87
413.86	736.07
414.068	672.59
414.276	826.18
414.485	721.74
414.693	836.42
414.901	942.92
415.11	885.58
415.318	879.43
415.526	901.96
415.734	967.49
415.943	975.69
416.151	1010.5
416.359	1033.03
416.567	1073.99
416.776	1139.52
416.984	1223.49
417.192	1192.77
417.4	1295.17
417.608	1149.76
417.817	1223.49
418.025	1317.7
418.233	1518.4
418.441	1446.72
418.649	1528.64
418.857	1475.39
419.065	1649.47
419.273	1557.31
419.481	1663.8
419.689	1788.73
419.897	1788.73
420.105	1823.55
420.313	1874.74
420.521	2028.34
420.729	2040.63
420.937	2046.77
421.145	2089.78
421.353	2294.58
421.561	2370.35
421.769	2425.65
421.977	2544.43
422.185	2507.57
422.393	2683.69
422.601	2741.04
422.809	2810.67
423.017	2868.01
423.224	2954.02
423.432	3093.29
423.64	2992.94
423.848	3369.76
424.056	3255.08
424.263	3517.22
424.471	3521.31
424.679	3615.52
424.887	3662.62
425.094	3812.12
425.302	3844.89
425.51	3953.43
425.718	4113.17
425.925	4094.74
426.133	4215.57
426.341	4520.72
426.548	4707.09
426.756	4653.84
426.964	4973.32
427.171	5223.17
427.379	5217.03
427.586	5229.32
427.794	5489.41
428.001	5786.37
428.209	6015.74
428.417	5968.63
428.624	6234.87
428.832	6411
429.039	6140.66
429.247	6306.55
429.454	6945.52
429.662	7477.99
429.869	6884.08
430.076	7467.75
430.284	7103.21
430.491	7355.11
430.699	7731.94
430.906	7865.05
431.114	7983.84
431.321	8323.8
431.528	8489.68
431.736	8719.06
431.943	9155.27
432.15	8874.7
432.358	9212.62
432.565	9577.16
432.772	9609.92
432.979	10072.76
433.187	10177.21
433.394	10336.95
433.601	11119.28
433.808	10982.06
434.016	11010.73
434.223	11471.53
434.43	12094.11
434.637	11739.81
434.844	12645.01
435.052	12888.72
435.259	12814.99
435.466	12941.97
435.673	12491.41
435.88	13838.98
436.087	14006.91
436.294	14279.29
436.501	13974.14
436.708	14232.19
436.915	14729.84
437.122	15454.83
437.329	15284.84
437.537	15659.62
437.743	15911.52
437.95	15682.15
438.157	17021.52
438.364	17357.39
438.571	17121.87
438.778	17384.01
438.985	18989.62
439.192	18086.47
439.399	18534.97
439.606	18149.95
439.813	19331.63
440.02	20644.38
440.227	20054.56
440.433	20154.91
440.64	20752.92
440.847	20298.27
441.054	21094.93
441.261	22262.27
441.467	22071.81
441.674	22403.58
441.881	22974.97
442.088	23335.41
442.294	22999.54
442.501	23960.04
442.708	23867.88
442.914	24936.92
443.121	25995.72
443.328	25334.23
443.534	27337.14
443.741	26493.38
443.948	25987.53
444.154	28023.21
444.361	27791.79
444.568	27738.54
444.774	28092.84
444.981	28258.73
445.187	28783.01
445.394	30699.9
445.6	29759.89
445.807	32817.5
446.013	31439.22
446.22	32231.79
446.426	33243.48
446.633	33620.31
446.839	34666.82
447.046	32997.73
447.252	35043.65
447.459	35184.96
447.665	34707.78
447.871	36714.79
448.078	37701.91
448.284	36110.64
448.491	37112.1
448.697	38576.39
448.903	38930.69
449.11	39168.26
449.316	38342.92
449.522	39371
449.728	40003.83
449.935	40720.62
450.141	41134.31
450.347	41441.5
450.553	40036.59
450.76	40438
450.966	41783.51
451.172	41238.75
451.378	42662.09
451.584	41656.54
451.791	42676.43
451.997	42258.64
452.203	42950.85
452.409	43219.14
452.615	43040.96
452.821	41332.96
453.027	40763.62
453.233	43104.45
453.44	41042.15
453.646	41904.34
453.852	42143.95
454.058	42498.25
454.264	41396.45
454.47	42262.74
454.676	41210.08
454.882	42612.94
455.088	38846.72
455.294	39346.43
455.5	39823.61
455.705	40519.92
455.911	38955.27
456.117	37830.93
456.323	37364
456.529	35338.55
456.735	37032.22
456.941	36127.02
457.147	35506.49
457.352	34263.37
457.558	34455.88
457.764	34126.16
457.97	33290.59
458.176	32305.51
458.381	32815.46
458.587	31029.63
458.793	31281.53
458.999	29458.84
459.204	31676.79
459.41	30722.43
459.616	28627.36
459.821	28752.29
460.027	28465.57
460.233	28033.45
460.438	26581.44
460.644	27025.85
460.85	25383.38
461.055	25240.02
461.261	25014.74
461.466	23368.18
461.672	22632.96
461.878	24250.85
462.083	22596.09
462.289	21805.58
462.494	21975.56
462.7	21146.13
462.905	20595.23
463.111	21260.82
463.316	21406.22
463.522	20775.45
463.727	21004.82
463.932	20802.07
464.138	20433.44
464.343	20484.64
464.549	20003.36
464.754	20611.61
464.959	20425.25
465.165	19960.36
465.37	19507.76
465.575	18989.62
465.781	19622.44
465.986	19892.77
466.191	19356.21
466.397	18573.88
466.602	17719.88
466.807	18534.97
467.012	18328.13
467.218	18391.61
467.423	17793.61
467.628	18043.46
467.833	18848.31
468.038	18252.35
468.244	17599.05
468.449	18475.58
468.654	17658.44
468.859	17463.88
469.064	17678.92
469.269	16822.87
469.474	16935.51
469.679	17322.57
469.885	16519.77
470.09	16933.46
470.295	16869.97
470.5	16552.54
470.705	16351.84
470.91	16114.27
471.115	16069.22
471.32	16274.01
471.525	16224.86
471.73	15876.71
471.935	15649.38
472.139	15176.3
472.344	15241.84
472.549	15180.4
472.754	15008.37
472.959	14688.89
473.164	14502.52
473.369	14422.65
473.574	14752.37
473.778	14604.92
473.983	14326.39
474.188	14566.01
474.393	13517.45
474.598	13691.52
474.802	13628.04
475.007	13871.75
475.212	13578.89
475.417	13036.17
475.621	13118.09
475.826	13228.68
476.031	12733.08
476.235	12683.92
476.44	12839.57
476.645	12573.33
476.849	12464.79
477.054	12559
477.259	12483.22
477.463	12280.47
477.668	11868.83
477.872	11963.04
478.077	11860.64
478.282	11643.56
478.486	11461.29
478.691	11397.8
478.895	11451.05
479.1	11440.81
479.304	11352.74
479.509	11027.12
479.713	11397.8
479.918	10965.68
480.122	10840.75
480.326	11100.84
480.531	10865.33
480.735	10961.58
480.94	10603.19
481.144	11256.49
481.348	10646.19
481.553	10887.86
481.757	10498.74
481.961	10734.26
482.166	10678.96
482.37	10748.59
482.574	10488.5
482.778	10607.28
482.983	10685.11
483.187	10529.46
483.391	10742.45
483.595	10341.05
483.8	10437.3
484.004	10783.41
484.208	10640.05
484.412	10662.58
484.616	10486.45
484.821	10617.52
485.025	10302.14
485.229	10719.92
485.433	10365.62
485.637	10453.69
485.841	10445.49
486.045	10406.58
486.249	10478.26
486.453	10394.29
486.657	10683.06
486.861	10517.17
487.065	10275.51
487.269	10482.36
487.473	10111.68
487.677	10705.59
487.881	10648.24
488.085	10476.21
488.289	10523.32
488.493	10367.67
488.697	10506.93
488.901	10496.69
489.105	10390.2
489.309	10650.29
489.512	10732.21
489.716	10617.52
489.92	10654.39
490.124	10545.84
490.328	10439.35
490.531	10461.88
490.735	10721.97
490.939	10611.38
491.143	10678.96
491.346	10730.16
491.55	10674.87
491.754	10783.41
491.958	10838.7
492.161	10953.39
492.365	10887.86
492.569	10977.97
492.772	11055.79
492.976	10832.56
493.18	11012.78
493.383	10906.29
493.587	11133.61
493.79	11301.54
493.994	11119.28
494.197	11061.93
494.401	11176.62
494.605	11309.74
494.808	11410.09
495.012	11649.7
495.215	11707.04
495.419	11612.84
495.622	11723.43
495.825	11616.93
496.029	11707.04
496.232	12001.95
496.436	12092.06
496.639	12415.64
496.843	12268.19
497.046	12368.54
497.249	12571.29
497.453	12522.13
497.656	12782.23
497.859	12964.5
498.063	13054.61
498.266	13202.06
498.469	13152.91
498.673	13247.12
498.876	13453.96
499.079	13576.84
499.282	13261.45
499.485	13937.28
499.689	13959.81
499.892	13951.62
500.095	14154.37
500.298	14486.14
500.501	14357.11
500.705	14682.74
500.908	14709.36
501.111	15102.57
501.314	15045.23
501.517	15209.07
501.72	15010.42
501.923	15379.05
502.126	15647.33
502.329	15780.45
502.532	16065.12
502.735	16042.59
502.938	16292.44
503.141	16179.81
503.344	16450.14
503.547	16595.54
503.75	16859.73
503.953	17289.81
504.156	17515.08
504.359	17687.11
504.562	17592.9
504.765	17879.62
504.968	18127.42
505.17	18442.81
505.373	18332.22
505.576	18375.23
505.779	18733.62
505.982	18954.8
506.185	19159.6
506.387	19094.07
506.59	19653.16
506.793	19991.08
506.996	19452.46
507.198	20177.44
507.401	20183.59
507.604	20314.66
507.807	20521.5
508.009	20685.34
508.212	21250.58
508.415	21287.44
508.617	21381.65
508.82	21578.25
509.022	21709.32
509.225	22145.54
509.428	22352.38
509.63	22346.24
509.833	22407.68
510.035	23187.96
510.238	22934.01
510.44	23364.08
510.643	23519.73
510.845	23906.79
511.048	23745
511.25	24138.21
511.453	24388.07
511.655	24990.17
511.858	24451.55
512.06	25074.13
512.262	25235.92
512.465	25045.46
512.667	26024.39
512.87	25739.72
513.072	26051.02
513.274	26405.31
513.477	26634.69
513.679	26882.49
513.881	27060.66
514.084	27617.71
514.286	27359.67
514.488	27759.02
514.69	27926.96
514.893	28567.97
515.095	28520.87
515.297	28854.69
515.499	28692.9
515.701	29295
515.904	29419.92
516.106	29702.54
516.308	29823.37
516.51	29976.97
516.712	30114.19
516.914	30476.68
517.116	31195.51
517.318	31125.88
517.52	31056.25
517.722	31289.72
517.925	31562.1
518.127	32446.82
518.329	32379.24
518.531	32258.41
518.733	32708.96
518.935	32848.22
519.136	32950.62
519.338	33769.81
519.54	33413.46
519.742	33773.91
519.944	33751.38
520.146	34199.88
520.348	34464.07
520.55	34888
520.752	34771.27
520.954	35057.98
521.155	34808.13
521.357	35705.14
521.559	35576.12
521.761	35899.7
521.963	36049.2
522.164	35776.82
522.366	36487.46
522.568	36227.37
522.77	36608.29
522.971	37177.63
523.173	37196.06
523.375	36843.81
523.576	36974.88
523.778	36993.31
523.98	37828.88
524.181	37970.19
524.383	38177.04
524.584	37851.41
524.786	38045.97
524.988	37730.58
525.189	38424.84
525.391	38412.56
525.592	38418.7
525.794	38580.49
525.995	38703.37
526.197	38430.99
526.398	38760.71
526.6	38906.12
526.801	38942.98
527.003	38922.5
527.204	39272.7
527.406	39817.46
527.607	39106.82
527.808	39846.13
528.01	38979.84
528.211	39409.92
528.412	40057.07
528.614	39811.32
528.815	39688.44
529.016	39663.86
529.218	39309.57
529.419	39618.81
529.62	39739.64
529.822	39682.3
530.023	39571.71
530.224	39407.87
530.425	39233.79
530.626	39725.3
530.828	39207.17
531.029	39774.45
531.23	39217.41
531.431	39508.22
531.632	39567.61
531.833	39420.16
532.035	39416.06
532.236	39596.28
532.437	39481.59
532.638	39305.47
532.839	39307.52
533.04	39692.54
533.241	39135.49
533.442	39672.06
533.643	39088.38
533.844	38967.55
534.045	39041.28
534.246	38910.21
534.447	39280.89
534.648	38893.83
534.849	39416.06
535.05	38785.29
535.251	39135.49
535.451	38777.09
535.652	39241.98
535.853	38899.97
536.054	39010.56
536.255	39098.62
536.456	38560.01
536.657	38891.78
536.857	38596.87
537.058	38304.01
537.259	38594.82
537.46	38981.89
537.66	38490.38
537.861	38441.23
538.062	38400.27
538.263	38498.57
538.463	38193.42
538.664	38009.11
538.865	38766.85
539.065	38746.37
539.266	38084.88
539.466	38621.45
539.667	37986.58
539.868	38420.75
540.068	38363.4
540.269	38230.29
540.469	38340.88
540.67	37837.08
540.87	37908.75
541.071	38115.6
541.271	38039.82
541.472	37615.9
541.672	37697.81
541.873	37839.12
542.073	37429.53
542.274	38250.77
542.474	37638.42
542.675	37480.73
542.875	37976.34
543.075	37835.03
543.276	37484.83
543.476	37812.5
543.676	37749.01
543.877	37988.63
544.077	37599.51
544.277	37619.99
544.478	37310.75
544.678	37656.85
544.878	37572.89
545.078	37357.85
545.279	37384.47
545.479	37286.17
545.679	37579.03
545.879	37796.12
546.079	37560.6
546.28	38017.3
546.48	36909.35
546.68	37695.77
546.88	37677.33
547.08	37183.77
547.28	37200.16
547.48	37040.42
547.68	37490.97
547.88	37298.46
548.081	37630.23
548.281	37699.86
548.481	37468.44
548.681	37818.64
548.881	37531.93
549.081	37687.57
549.28	37460.25
549.48	37579.03
549.68	37851.41
549.88	37990.67
550.08	37112.1
550.28	37665.05
550.48	37511.45
550.68	37882.13
550.88	37562.65
551.08	37495.07
551.279	37804.31
551.479	37359.9
551.679	37673.24
551.879	37183.77
552.079	37890.32
552.278	37501.21
552.478	37593.37
552.678	37757.21
552.878	37929.23
553.077	38039.82
553.277	37533.98
553.477	38564.1
553.676	37792.02
553.876	37957.91
554.076	37527.83
554.275	37941.52
554.475	37671.19
554.674	37761.3
554.874	37814.55
555.074	37648.66
555.273	38033.68
555.473	38197.52
555.672	37734.68
555.872	37939.47
556.071	38105.36
556.271	37814.55
556.47	37962
556.67	37697.81
556.869	37900.56
557.068	37990.67
557.268	37824.79
557.467	37730.58
557.667	37656.85
557.866	38119.7
558.065	37650.71
558.265	37765.4
558.464	38064.4
558.663	38424.84
558.863	37347.61
559.062	38353.16
559.261	37368.09
559.461	38156.56
559.66	37677.33
559.859	38222.09
560.058	37701.91
560.258	37988.63
560.457	37206.3
560.656	38060.3
560.855	37767.45
561.054	38183.18
561.253	37613.85
561.453	37828.88
561.652	37718.29
561.851	38103.31
562.05	37630.23
562.249	37964.05
562.448	38140.18
562.647	37808.4
562.846	37802.26
563.045	37875.99
563.244	37404.95
563.443	37955.86
563.642	37206.3
563.841	37560.6
564.04	37116.19
564.239	38080.78
564.438	37277.98
564.637	37495.07
564.836	37712.15
565.035	37314.84
565.234	37501.21
565.432	37108
565.631	37171.49
565.83	37447.96
566.029	37228.83
566.228	37056.8
566.427	36976.93
566.625	37208.35
566.824	36860.19
567.023	36854.05
567.222	36438.31
567.42	37056.8
567.619	36796.71
567.818	36765.99
568.016	36456.75
568.215	36888.87
568.414	36684.07
568.612	36933.92
568.811	36520.23
569.01	36081.97
569.208	36133.17
569.407	36340.01
569.605	35944.75
569.804	36438.31
570.002	36106.54
570.201	36444.46
570.4	35926.32
570.598	35780.92
570.797	35551.54
570.995	36137.26
571.193	35270.97
571.392	35944.75
571.59	35498.3
571.789	35586.36
571.987	35248.44
572.186	35582.26
572.384	35324.22
572.582	35354.94
572.781	35281.21
572.979	34652.48
573.177	35498.3
573.376	34789.7
573.574	34718.02
573.772	35100.99
573.971	34748.74
574.169	34844.99
574.367	34562.37
574.565	34890.05
574.763	34380.1
574.962	34644.29
575.16	34011.47
575.358	34156.88
575.556	33556.82
575.754	34036.05
575.952	33878.35
576.151	33980.75
576.349	33399.13
576.547	33542.49
576.745	33648.98
576.943	33454.42
577.141	33263.96
577.339	33249.63
577.537	33114.46
577.735	33292.63
577.933	32844.13
578.131	32940.38
578.329	32696.67
578.527	32553.32
578.725	32692.58
578.923	32684.39
579.121	32586.08
579.319	32467.3
579.516	32629.09
579.714	32459.11
579.912	32072.04
580.11	31816.05
580.308	32209.26
580.506	31883.63
580.704	31498.61
580.901	31768.94
581.099	31826.29
581.297	31492.47
581.495	31396.21
581.692	31785.33
581.89	31299.96
582.088	31668.59
582.285	31240.57
582.483	31482.23
582.681	31342.97
582.878	31021.44
583.076	31091.07
583.274	31326.58
583.471	30624.13
583.669	30931.33
583.866	30962.04
584.064	30732.67
584.262	30450.05
584.459	30697.86
584.657	30345.61
584.854	30603.65
585.052	30067.08
585.249	30583.17
585.447	30519.68
585.644	29864.33
585.841	30161.29
586.039	30577.03
586.236	30003.6
586.434	30050.7
586.631	29876.62
586.828	29860.24
587.026	29786.51
587.223	29860.24
587.42	29493.65
587.618	29641.11
587.815	29575.57
588.012	29245.85
588.21	29084.06
588.407	29522.32
588.604	29088.15
588.801	29065.63
588.999	29284.76
589.196	29028.76
589.393	29022.62
589.59	28975.52
589.787	28694.94
589.984	28866.97
590.182	28553.63
590.379	28754.33
590.576	28246.44
590.773	28475.81
590.97	28225.96
591.167	28422.56
591.364	28203.43
591.561	28516.77
591.758	28150.18
591.955	28264.87
592.152	28279.21
592.349	28211.62
592.546	28209.57
592.743	28088.74
592.94	27701.68
593.137	28008.87
593.334	28000.68
593.531	27312.56
593.727	27892.14
593.924	27759.02
594.121	27922.86
594.318	27650.48
594.515	27486.64
594.712	27972.01
594.908	27492.79
595.105	27775.41
595.302	27054.52
595.499	27605.42
595.696	27595.18
595.892	27281.85
596.089	27627.95
596.286	27384.24
596.482	27281.85
596.679	27478.45
596.876	27445.68
597.072	27242.93
597.269	27077.05
597.466	27136.44
597.662	26995.13
597.859	26952.12
598.055	27091.38
598.252	27175.35
598.448	27107.77
598.645	27189.69
598.841	26718.65
599.038	27216.31
599.234	27175.35
599.431	26747.33
599.627	26649.02
599.824	27066.81
600.02	26634.69
600.217	27013.56
600.413	26687.93
600.609	27156.92
600.806	26776
601.002	26933.69
601.198	26669.5
601.395	26452.42
601.591	26671.55
601.787	26855.87
601.984	26825.15
602.18	26958.27
602.376	26702.27
602.572	26925.5
602.769	27019.71
602.965	26499.52
603.161	26907.07
603.357	26847.68
603.553	26898.87
603.75	26935.74
603.946	26730.94
604.142	27034.04
604.338	26595.78
604.534	26962.36
604.73	26495.43
604.926	26601.92
605.122	27072.95
605.318	27075
605.514	26845.63
605.71	27029.94
605.906	26698.17
606.102	26821.05
606.298	26986.94
606.494	26698.17
606.69	26921.4
606.886	26804.67
607.082	26548.67
607.278	27099.58
607.474	26984.89
607.67	27144.63
607.866	26923.45
608.062	27136.44
608.257	27064.76
608.453	27056.57
608.649	27091.38
608.845	27175.35
609.041	27042.23
609.236	27345.33
609.432	26804.67
609.628	27380.15
609.824	27287.99
610.019	27081.14
610.215	27148.73
610.411	27589.04
610.606	27351.48
610.802	27484.59
610.998	27371.96
611.193	27328.95
611.389	27263.41
611.584	27365.81
611.78	27257.27
611.976	27124.15
612.171	27595.18
612.367	27675.06
612.562	27564.46
612.758	27306.42
612.953	27146.68
613.149	27697.58
613.344	27132.34
613.539	27742.64
613.735	27371.96
613.93	27677.1
614.126	27216.31
614.321	27978.15
614.517	27789.74
614.712	27283.89
614.907	27402.68
615.103	28139.94
615.298	27345.33
615.493	27890.09
615.688	27595.18
615.884	28064.17
616.079	27515.31
616.274	27750.83
616.47	27560.37
616.665	27447.73
616.86	27357.62
617.055	27308.47
617.25	27353.52
617.445	27685.29
617.641	27189.69
617.836	27287.99
618.031	26857.92
618.226	27136.44
618.421	27077.05
618.616	27484.59
618.811	26765.76
619.006	27500.98
619.201	26888.64
619.396	26900.92
619.591	26710.46
619.786	26593.73
619.981	26481.09
620.176	26898.87
620.371	26462.66
620.566	26528.19
620.761	26468.8
620.956	26753.47
621.151	26216.9
621.346	26261.96
621.541	25833.93
621.735	26343.88
621.93	25715.15
622.125	25788.88
622.32	25557.46
622.515	25752.01
622.709	25352.66
622.904	25307.6
623.099	25260.5
623.294	25227.73
623.488	25248.21
623.683	25192.92
623.878	25108.95
624.072	24873.43
624.267	24768.99
624.462	24482.27
624.656	24580.57
624.851	24562.14
625.046	24039.91
625.24	24318.43
625.435	23984.62
625.629	24185.32
625.824	23886.31
626.018	23708.14
626.213	23247.35
626.407	23607.79
626.602	23267.83
626.796	23538.16
626.991	23220.72
627.185	23073.27
627.38	22997.49
627.574	22649.34
627.768	22997.49
627.963	22608.38
628.157	22434.3
628.352	22665.72
628.546	22108.68
628.74	22436.35
628.935	22061.57
629.129	21996.04
629.323	21799.43
629.517	22010.37
629.712	21623.31
629.906	21443.09
630.1	21092.88
630.294	21525
630.489	21350.93
630.683	21533.2
630.877	20851.22
631.071	20777.5
631.265	21019.16
631.459	20707.87
631.653	20621.85
631.848	20664.86
632.042	20498.97
632.236	20378.14
632.43	20044.32
632.624	20281.89
632.818	20015.65
633.012	19939.88
633.206	20116
633.4	19862.05
633.594	19552.81
633.788	19481.13
633.982	19538.48
634.176	19274.29
634.369	19264.05
634.563	19464.75
634.757	18963
634.951	19212.85
635.145	18991.67
635.339	18821.69
635.533	19036.72
635.726	19001.91
635.92	18211.39
636.114	18600.51
636.308	18295.36
636.501	18260.54
636.695	18190.91
636.889	18111.04
637.083	18100.8
637.276	18029.12
637.47	17930.82
637.664	17441.36
637.857	17769.03
638.051	17556.04
638.244	17361.48
638.438	17236.56
638.632	17322.57
638.825	17091.15
639.019	17099.34
639.212	16822.87
639.406	16767.57
639.599	16761.43
639.793	16810.58
639.986	16611.93
640.18	16665.18
640.373	16577.11
640.567	16253.53
640.76	16124.51
640.954	15813.22
641.147	16130.66
641.34	15938.15
641.534	16132.7
641.727	15983.2
641.92	15710.82
642.114	15583.85
642.307	15475.31
642.5	15540.84
642.694	14951.03
642.887	15084.14
643.08	15387.24
643.273	15065.71
643.467	14877.3
643.66	14758.52
643.853	14492.28
644.046	14631.54
644.239	14434.94
644.432	14631.54
644.626	14518.9
644.819	14375.55
645.012	14144.13
645.205	14353.02
645.398	14254.72
645.591	13836.93
645.784	14109.31
645.977	13929.09
646.17	13906.56
646.363	13666.95
646.556	13374.09
646.749	13369.99
646.942	13550.21
647.135	13374.09
647.328	13394.57
647.521	13398.66
647.714	13079.18
647.907	13275.79
648.099	12962.45
648.292	12927.63
648.485	12978.83
648.678	12757.65
648.871	12567.19
649.064	12653.2
649.256	12767.89
649.449	12722.84
649.642	12452.5
649.835	12427.93
650.027	12180.12
650.22	12157.6
650.413	12331.67
650.605	12149.4
650.798	12128.92
650.991	12032.67
651.183	11864.74
651.376	11805.35
651.568	11956.89
651.761	11582.12
651.954	11713.19
652.146	11504.29
652.339	11569.83
652.531	11569.83
652.724	11291.31
652.916	11043.5
653.109	11266.73
653.301	11471.53
653.494	11352.74
653.686	11244.2
653.879	11260.59
654.071	11190.95
654.263	10967.73
654.456	11074.22
654.648	10994.35
654.84	10717.87
655.033	10791.6
655.225	10736.31
655.417	10642.1
655.61	10715.83
655.802	10652.34
655.994	10666.67
656.186	10425.01
656.379	10242.75
656.571	10572.47
656.763	10156.73
656.955	10029.76
657.148	10216.12
657.34	10121.91
657.532	9872.06
657.724	9800.38
657.916	9896.64
658.108	9978.56
658.3	9712.32
658.492	9767.62
658.684	9749.18
658.876	9636.55
659.068	9667.27
659.26	9728.7
659.452	9460.42
659.644	9548.48
659.836	9290.44
660.028	9372.36
660.22	9274.06
660.412	9372.36
660.604	9267.91
660.796	9224.9
660.988	9099.98
661.18	9071.31
661.372	8880.85
661.563	9210.57
661.755	8807.12
661.947	8897.23
662.139	8835.79
662.331	8524.5
662.522	8547.03
662.714	8651.47
662.906	8567.51
663.097	8583.89
663.289	8524.5
663.481	8426.2
663.673	8366.81
663.864	8381.14
664.056	8278.74
664.247	8479.44
664.439	8121.05
664.631	8389.33
664.822	8252.12
665.014	8172.25
665.205	8024.79
665.397	8082.14
665.588	8004.32
665.78	7781.09
665.971	7891.68
666.163	7906.01
666.354	7658.21
666.546	7826.14
666.737	7815.9
666.929	7670.5
667.12	7742.18
667.311	7809.76
667.503	7615.2
667.694	7621.35
667.885	7475.94
668.077	7510.75
668.268	7539.43
668.459	7408.36
668.651	7402.21
668.842	7262.95
669.033	7328.49
669.224	7291.62
669.416	7285.48
669.607	7236.33
669.798	7281.38
669.989	7172.84
670.18	7178.98
670.371	6996.71
670.563	6974.19
670.754	6959.85
670.945	6755.05
671.136	7111.4
671.327	6968.04
671.518	6853.36
671.709	6861.55
671.9	7103.21
672.091	6884.08
672.282	6644.46
672.473	6783.73
672.664	6812.4
672.855	6695.66
673.046	6623.98
673.237	6755.05
673.428	6802.16
673.619	6646.51
673.809	6529.78
674	6611.7
674.191	6501.11
674.382	6484.72
674.573	6486.77
674.764	6382.32
674.954	6585.07
675.145	6341.36
675.336	6458.1
675.527	6382.32
675.717	6335.22
675.908	6175.48
676.099	6150.9
676.289	6484.72
676.48	6357.75
676.671	6327.03
676.861	6259.45
677.052	6232.82
677.243	6157.05
677.433	6265.59
677.624	6247.16
677.814	6169.34
678.005	6171.38
678.195	6165.24
678.386	6087.42
678.576	5985.02
678.767	6050.55
678.957	6079.22
679.148	5978.87
679.338	5872.38
679.529	6042.36
679.719	5946.11
679.909	5997.31
680.1	6124.28
680.29	6062.84
680.481	5989.11
680.671	5894.91
680.861	5896.96
681.052	5884.67
681.242	5688.06
681.432	5972.73
681.622	5841.66
681.813	5790.46
682.003	5905.15
682.193	5796.6
682.383	5890.81
682.573	5899
682.764	5864.19
682.954	5800.7
683.144	5786.37
683.334	5745.41
683.524	5745.41
683.714	5763.84
683.904	5688.06
684.094	5683.97
684.284	5620.48
684.474	5841.66
684.664	5827.32
684.854	5810.94
685.044	5583.62
685.234	5612.29
685.424	5704.45
685.614	5554.94
685.804	5659.39
685.994	5559.04
686.184	5696.25
686.374	5460.74
686.564	5640.96
686.753	5460.74
686.943	5327.62
687.133	5325.57
687.323	5419.78
687.513	5696.25
687.702	5272.32
687.892	5448.45
688.082	5358.34
688.272	5374.72
688.461	5276.42
688.651	5204.74
688.841	5268.23
689.03	5294.85
689.22	5235.46
689.41	5241.61
689.599	5319.43
689.789	5128.97
689.979	5188.36
690.168	5305.09
690.358	5081.86
690.547	5081.86
690.737	5188.36
690.926	5122.82
691.116	5040.9
691.305	5096.2
691.495	5047.05
691.684	5022.47
691.874	5214.98
692.063	4940.55
692.252	5100.3
692.442	4997.9
692.631	4981.51
692.82	4909.83
693.01	5055.24
693.199	4958.99
693.388	4713.23
693.578	4893.45
693.767	4836.11
693.956	4934.41
694.146	4877.07
694.335	4825.87
694.524	4875.02
694.713	4852.49
694.902	4702.99
695.092	4748.04
695.281	4756.24
695.47	4793.1
695.659	4772.62
695.848	4784.91
696.037	4610.83
696.226	4795.15
696.415	4608.78
696.604	4657.93
696.793	4547.34
696.982	4520.72
697.171	4543.25
697.36	4522.77
697.549	4641.55
697.738	4545.3
697.927	4541.2
698.116	4444.95
698.305	4582.16
698.494	4428.56
698.683	4418.32
698.872	4541.2
699.061	4444.95
699.25	4528.91
699.438	4424.47
699.627	4428.56
699.816	4541.2
700.005	4393.75
700.193	4330.26
700.382	4375.31
700.571	4410.13
700.76	4236.05
700.948	4328.21
701.137	4324.12
701.326	4313.88
701.514	4195.09
701.703	4336.4
701.892	4217.62
702.08	4324.12
702.269	4129.56
702.457	4295.44
702.646	4420.37
702.834	4107.03
703.023	4195.09
703.212	4123.41
703.4	4150.04
703.589	3937.05
703.777	4090.65
703.965	3967.77
704.154	4195.09
704.342	3975.96
704.531	4029.21
704.719	3908.38
704.907	4113.17
705.096	3945.24
705.284	3955.48
705.472	3932.95
705.661	3932.95
705.849	3887.9
706.037	3965.72
706.226	3906.33
706.414	3840.79
706.602	3980.06
706.79	4000.54
706.979	3805.98
707.167	3842.84
707.355	3750.68
707.543	3681.05
707.731	3857.18
707.919	3832.6
708.107	3732.25
708.296	3818.27
708.484	3738.4
708.672	3668.77
708.86	3687.2
709.048	3799.84
709.236	3767.07
709.424	3670.81
709.612	3748.64
709.8	3539.74
709.988	3597.09
710.176	3588.89
710.364	3685.15
710.551	3527.46
710.739	3640.09
710.927	3590.94
711.115	3523.36
711.303	3601.18
711.491	3552.03
711.679	3511.07
711.866	3560.22
712.054	3599.13
712.242	3449.63
712.43	3527.46
712.617	3453.73
712.805	3449.63
712.993	3480.35
713.181	3519.26
713.368	3531.55
713.556	3488.54
713.744	3322.66
713.931	3457.82
714.119	3420.96
714.306	3470.11
714.494	3449.63
714.682	3341.09
714.869	3277.6
715.057	3480.35
715.244	3273.51
715.432	3320.61
715.619	3244.84
715.807	3312.42
715.994	3244.84
716.182	3173.16
716.369	3242.79
716.556	3175.2
716.744	3113.77
716.931	3205.92
717.119	3162.92
717.306	3101.48
717.493	3097.38
717.681	3126.05
717.868	3064.61
718.055	3138.34
718.242	3167.01
718.43	3240.74
718.617	3115.81
718.804	2945.83
718.991	3064.61
719.179	3097.38
719.366	3001.13
719.553	2966.31
719.74	3058.47
719.927	3009.32
720.114	3007.27
720.301	2923.3
720.488	2900.78
720.676	3066.66
720.863	2888.49
721.05	2949.93
721.237	2919.21
721.424	2917.16
721.611	2945.83
721.798	2913.06
721.985	2812.71
722.172	2894.63
722.358	2806.57
722.545	2870.06
722.732	2718.51
722.919	2855.72
723.106	2790.19
723.293	2839.34
723.48	2908.97
723.667	2892.59
723.853	2820.91
724.04	2859.82
724.227	2786.09
724.414	2706.22
724.6	2673.45
724.787	2765.61
724.974	2845.48
725.161	2630.45
725.347	2669.36
725.534	2786.09
725.72	2695.98
725.907	2712.36
726.094	2620.21
726.28	2679.6
726.467	2614.06
726.653	2519.85
726.84	2806.57
727.027	2820.91
727.213	2501.42
727.4	2679.6
727.586	2673.45
727.773	2597.68
727.959	2433.84
728.145	2542.38
728.332	2482.99
728.518	2526
728.705	2433.84
728.891	2542.38
729.077	2548.53
729.264	2456.37
729.45	2569.01
729.636	2624.3
729.823	2605.87
730.009	2491.18
730.195	2495.28
730.382	2581.29
730.568	2548.53
730.754	2601.77
730.94	2417.46
731.126	2374.45
731.313	2540.33
731.499	2485.04
731.685	2362.16
731.871	2468.66
732.057	2472.75
732.243	2388.78
732.429	2528.05
732.615	2302.77
732.801	2347.83
732.987	2411.31
733.173	2415.41
733.359	2310.96
733.545	2337.59
733.731	2329.39
733.917	2392.88
734.103	2429.74
734.289	2298.67
734.475	2343.73
734.661	2364.21
734.847	2331.44
735.033	2405.17
735.219	2296.63
735.404	2290.48
735.59	2333.49
735.776	2237.24
735.962	2270
736.148	2171.7
736.333	2171.7
736.519	2171.7
736.705	2130.74
736.89	2169.65
737.076	2159.41
737.262	2155.32
737.447	2157.36
737.633	2212.66
737.819	2095.93
738.004	2229.04
738.19	2171.7
738.375	2061.11
738.561	2220.85
738.747	2097.97
738.932	2159.41
739.118	2190.13
739.303	2155.32
739.489	2057.01
739.674	2081.59
739.859	1934.14
740.045	2077.49
740.23	2157.36
740.416	2106.17
740.601	2069.3
740.786	1991.48
740.972	2032.44
741.157	2016.05
741.342	1968.95
741.528	1995.57
741.713	2091.83
741.898	1983.29
742.084	1919.8
742.269	1862.46
742.454	2061.11
742.639	1987.38
742.824	1923.9
743.01	2038.58
743.195	1917.75
743.38	1868.6
743.565	1921.85
743.75	1936.18
743.935	1930.04
744.12	1872.7
744.305	1919.8
744.49	1878.84
744.675	1815.35
744.86	1905.46
745.045	1919.8
745.23	1839.93
745.415	1866.55
745.6	1917.75
745.785	1852.22
745.97	1860.41
746.155	1721.15
746.34	1659.71
746.525	1741.63
746.71	1766.2
746.895	1723.2
747.079	1700.67
747.264	1655.61
747.449	1733.43
747.634	1770.3
747.819	1737.53
748.003	1590.08
748.188	1592.13
748.373	1715
748.557	1618.75
748.742	1624.89
748.927	1590.08
749.111	1616.7
749.296	1592.13
749.481	1672
749.665	1635.13
749.85	1602.36
750.034	1678.14
750.219	1631.04
750.404	1516.35
750.588	1520.45
750.773	1477.44
750.957	1540.93
751.141	1446.72
751.326	1528.64
751.51	1504.06
751.695	1491.77
751.879	1565.5
752.064	1467.2
752.248	1401.66
752.432	1407.81
752.617	1485.63
752.801	1467.2
752.985	1372.99
753.17	1426.24
753.354	1338.18
753.538	1411.9
753.722	1348.42
753.907	1352.51
754.091	1348.42
754.275	1362.75
754.459	1295.17
754.643	1295.17
754.828	1377.09
755.012	1379.14
755.196	1250.11
755.38	1270.59
755.564	1270.59
755.748	1291.07
755.932	1297.22
756.116	1196.87
756.3	1180.48
756.484	1221.44
756.668	1264.45
756.852	1198.92
757.036	1211.2
757.22	1172.29
757.404	1162.05
757.588	1133.38
757.772	1073.99
757.956	1155.91
758.14	1190.72
758.323	1110.85
758.507	1182.53
758.691	1168.2
758.875	1221.44
759.059	1155.91
759.242	1110.85
759.426	1020.74
759.61	1129.28
759.794	1028.93
759.977	1090.37
760.161	1098.56
760.345	1104.71
760.528	1133.38
760.712	1049.41
760.895	1110.85
761.079	947.01
761.263	1026.89
761.446	992.07
761.63	987.97
761.813	1108.8
761.997	899.91
762.18	930.63
762.364	985.93
762.547	934.73
762.731	951.11
762.914	926.54
763.098	930.63
763.281	904.01
763.464	936.78
763.648	1008.45
763.831	904.01
764.015	885.58
764.198	938.82
764.381	975.69
764.564	906.06
764.748	971.59
764.931	996.17
765.114	904.01
765.297	1000.26
765.481	842.57
765.664	918.34
765.847	951.11
766.03	992.07
766.213	861
766.397	897.86
766.58	848.71
766.763	887.62
766.946	996.17
767.129	781.13
767.312	879.43
767.495	799.56
767.678	889.67
767.861	879.43
768.044	951.11
768.227	877.38
768.41	822.09
768.593	881.48
768.776	832.33
768.959	822.09
769.142	930.63
769.324	861
769.507	869.19
769.69	865.1
769.873	854.86
770.056	883.53
770.239	783.18
770.421	899.91
770.604	861
770.787	830.28
770.97	817.99
771.152	707.4
771.335	781.13
771.518	754.51
771.7	881.48
771.883	762.7
772.066	715.59
772.248	770.89
772.431	795.47
772.613	762.7
772.796	740.17
772.978	787.27
773.161	813.9
773.343	688.97
773.526	697.16
773.708	744.27
773.891	713.55
774.073	758.6
774.256	764.75
774.438	703.31
774.621	779.08
774.803	674.64
774.985	779.08
775.168	750.41
775.35	680.78
775.532	762.7
775.715	680.78
775.897	633.68
776.079	617.29
776.261	779.08
776.444	725.83
776.626	746.31
776.808	650.06
776.99	631.63
777.173	578.38
777.355	631.63
777.537	711.5
777.719	635.72
777.901	574.28
778.083	631.63
778.265	666.44
778.447	693.07
778.629	627.53
778.811	670.54
778.993	709.45
779.175	631.63
779.357	541.52
779.539	553.8
779.721	518.99
779.903	641.87
780.085	576.33
780.267	623.44
780.449	578.38
780.631	533.33
780.812	602.96
780.994	609.1
781.176	545.61
781.358	549.71
781.54	518.99
781.721	527.18
781.903	521.04
782.085	469.84
782.267	584.52
782.448	435.02
782.63	467.79
782.812	541.52
782.993	467.79
783.175	559.95
783.357	385.87
783.538	504.65
783.72	500.56
783.901	541.52
784.083	463.69
784.264	500.56
784.446	469.84
784.627	412.5
784.809	435.02
784.99	443.21
785.172	467.79
785.353	486.22
785.535	445.26
785.716	512.85
785.897	426.83
786.079	455.5
786.26	506.7
786.441	469.84
786.623	426.83
786.804	326.48
786.985	379.73
787.167	428.88
787.348	412.5
787.529	453.45
787.71	379.73
787.891	488.27
788.073	379.73
788.254	412.5
788.435	459.6
788.616	430.93
788.797	344.91
788.978	451.41
789.159	373.58
789.34	412.5
789.522	394.06
789.703	349.01
789.884	383.82
790.065	389.97
790.246	484.17
790.427	396.11
790.607	428.88
790.788	441.17
790.969	369.49
791.15	330.58
791.331	355.15
791.512	328.53
791.693	355.15
791.874	349.01
792.054	418.64
792.235	379.73
792.416	330.58
792.597	336.72
792.778	344.91
792.958	394.06
793.139	297.81
793.32	330.58
793.5	258.9
793.681	361.3
793.862	303.95
794.042	312.14
794.223	254.8
794.404	289.62
794.584	240.47
794.765	273.23
794.945	267.09
795.126	281.43
795.306	269.14
795.487	351.06
795.667	303.95
795.848	279.38
796.028	301.9
796.209	312.14
796.389	398.16
796.57	238.42
796.75	267.09
796.93	336.72
797.111	312.14
797.291	271.19
797.471	299.86
797.652	262.99
797.832	269.14
798.012	281.43
798.192	254.8
798.373	328.53
798.553	275.28
798.733	295.76
798.913	256.85
799.093	279.38
799.274	297.81
799.454	269.14
799.634	316.24
799.814	197.46
799.994	271.19
800.174	279.38
800.354	248.66
800.534	279.38
800.714	254.8
800.894	279.38
801.074	191.31
801.254	211.79
801.434	238.42
801.614	199.51
801.794	256.85
801.974	783.18
802.154	168.79
802.334	328.53
802.514	142.16
802.693	269.14
802.873	273.23
803.053	275.28
803.233	222.03
803.413	297.81
803.592	170.83
803.772	211.79
803.952	166.74
804.131	258.9
804.311	238.42
804.491	254.8
804.67	193.36
804.85	205.65
805.03	295.76
805.209	279.38
805.389	213.84
805.568	150.36
805.748	224.08
805.928	246.61
806.107	224.08
806.287	269.14
806.466	232.27
806.646	230.23
806.825	230.23
807.004	222.03
807.184	197.46
807.363	189.27
807.543	262.99
807.722	207.7
807.901	226.13
808.081	209.75
808.26	123.73
808.439	174.93
808.619	181.07
808.798	164.69
808.977	189.27
809.156	197.46
809.336	213.84
809.515	215.89
809.694	144.21
809.873	107.35
810.052	117.59
810.231	205.65
810.411	166.74
810.59	228.18
810.769	191.31
810.948	217.94
811.127	107.35
811.306	150.36
811.485	158.55
811.664	199.51
811.843	176.98
812.022	207.7
812.201	189.27
812.38	197.46
812.559	93.01
812.737	207.7
812.916	115.54
813.095	213.84
813.274	142.16
813.453	99.16
813.632	183.12
813.811	172.88
813.989	133.97
814.168	142.16
814.347	191.31
814.526	152.4
814.704	205.65
814.883	164.69
815.062	172.88
815.24	181.07
815.419	148.31
815.598	205.65
815.776	76.63
815.955	213.84
816.133	129.88
816.312	82.77
816.49	90.96
816.669	164.69
816.847	144.21
817.026	123.73
817.204	140.12
817.383	103.25
817.561	107.35
817.74	203.6
817.918	115.54
818.097	152.4
818.275	166.74
818.453	158.55
818.632	150.36
818.81	70.48
818.988	142.16
819.167	133.97
819.345	72.53
819.523	189.27
819.701	90.96
819.879	90.96
820.058	170.83
820.236	113.49
820.414	140.12
820.592	76.63
820.77	45.91
820.948	131.92
821.127	-5.29
821.305	84.82
821.483	99.16
821.661	136.02
821.839	88.92
822.017	109.4
822.195	109.4
822.373	74.58
822.551	181.07
822.729	76.63
822.907	60.24
823.085	168.79
823.262	109.4
823.44	97.11
823.618	72.53
823.796	160.59
823.974	37.72
824.152	-1.19
824.329	95.06
824.507	78.68
824.685	95.06
824.863	27.48
825.04	64.34
825.218	119.64
825.396	99.16
825.574	66.39
825.751	115.54
825.929	115.54
826.107	9.05
826.284	166.74
826.462	37.72
826.639	86.87
826.817	41.81
826.994	115.54
827.172	103.25
827.349	158.55
827.527	158.55
827.704	99.16
827.882	127.83
828.059	78.68
828.237	45.91
828.414	191.31
828.591	107.35
828.769	166.74
828.946	107.35
829.124	117.59
829.301	82.77
829.478	82.77
829.655	148.31
829.833	103.25
830.01	99.16
830.187	93.01
830.364	60.24
830.542	97.11
830.719	47.96
830.896	117.59
831.073	142.16
831.25	74.58
831.427	47.96
831.604	113.49
831.782	93.01
831.959	78.68
832.136	50
832.313	58.2
832.49	76.63
832.667	115.54
832.844	58.2
833.021	23.38
833.198	74.58
833.374	148.31
833.551	54.1
833.728	107.35
833.905	60.24
834.082	54.1
834.259	99.16
834.436	72.53
834.612	0.85
834.789	62.29
834.966	84.82
835.143	131.92
835.319	9.05
835.496	127.83
835.673	80.72
835.85	103.25
836.026	58.2
836.203	115.54
836.38	78.68
836.556	84.82
836.733	72.53
836.909	82.77
837.086	11.09
837.262	68.44
837.439	0.85
837.616	19.29
837.792	78.68
837.968	68.44
838.145	0.85
838.321	66.39
838.498	-11.43
838.674	29.52
838.851	58.2
839.027	37.72
839.203	117.59
839.38	111.44
839.556	25.43
839.732	23.38
839.909	84.82
840.085	86.87
840.261	-15.53
840.437	95.06
840.614	25.43
840.79	101.2
840.966	62.29
841.142	52.05
841.318	82.77
841.494	90.96
841.671	125.78
841.847	66.39
842.023	76.63
842.199	66.39
842.375	164.69
842.551	9.05
842.727	0.85
842.903	97.11
843.079	39.76
843.255	70.48
843.431	58.2
843.607	74.58
843.783	43.86
843.959	111.44
844.134	27.48
844.31	86.87
844.486	17.24
844.662	0.85
844.838	150.36
845.013	164.69
845.189	70.48
845.365	27.48
845.541	50
845.716	-5.29
845.892	86.87
846.068	62.29
846.244	72.53
846.419	62.29
846.595	-42.15
846.77	50
846.946	140.12
847.122	-21.67
847.297	37.72
847.473	74.58
847.648	13.14
847.824	17.24
847.999	27.48
848.175	-7.34
848.35	64.34
848.526	52.05
848.701	19.29
848.876	15.19
849.052	58.2
849.227	86.87
849.403	60.24
849.578	84.82
849.753	41.81
849.929	58.2
850.104	47.96
850.279	93.01
850.454	39.76
850.63	7
850.805	80.72
850.98	68.44
851.155	-15.53
851.33	37.72
851.505	76.63
851.681	76.63
851.856	25.43
852.031	62.29
852.206	107.35
852.381	33.62
852.556	54.1
852.731	60.24
852.906	11.09
853.081	99.16
853.256	54.1
853.431	4.95
853.606	56.15
853.781	99.16
853.956	-7.34
854.131	39.76
854.305	-11.43
854.48	43.86
854.655	27.48
854.83	74.58
855.005	41.81
855.18	35.67
855.354	74.58
855.529	45.91
855.704	-40.11
855.879	115.54
856.053	-5.29
856.228	41.81
856.403	-38.06
856.577	99.16
856.752	-64.68
856.926	17.24
857.101	0.85
857.276	43.86
857.45	13.14
857.625	111.44
857.799	62.29
857.974	-11.43
858.148	78.68
858.323	88.92
858.497	21.33
858.672	90.96
858.846	-31.91
859.02	95.06
859.195	-62.63
859.369	-31.91
859.543	19.29
859.718	54.1
859.892	9.05
860.066	35.67
860.241	74.58
860.415	-31.91
860.589	-29.87
860.763	74.58
860.938	31.57
861.112	17.24
861.286	43.86
861.46	82.77
861.634	-15.53
861.808	58.2
861.982	-31.91
862.157	56.15
862.331	72.53
862.505	-11.43
862.679	13.14
862.853	-76.97
863.027	66.39
863.201	41.81
863.375	-23.72
863.549	90.96
863.722	-56.49
863.896	76.63
864.07	58.2
864.244	-15.53
864.418	13.14
864.592	-7.34
864.766	25.43
864.939	35.67
865.113	-44.2
865.287	90.96
865.461	66.39
865.634	-23.72
865.808	-7.34
865.982	35.67
866.156	-31.91
866.329	45.91
866.503	72.53
866.676	125.78
866.85	-36.01
867.024	-7.34
867.197	11.09
867.371	21.33
867.544	43.86
867.718	-15.53
867.891	9.05
868.065	-29.87
868.238	17.24
868.412	29.52
868.585	37.72
868.759	-15.53
868.932	41.81
869.105	-5.29
869.279	25.43
869.452	2.9
869.625	23.38
869.799	-11.43
869.972	-60.59
870.145	-52.39
870.319	41.81
870.492	17.24
870.665	7
870.838	-31.91
871.011	-70.83
871.185	17.24
871.358	31.57
871.531	45.91
871.704	-31.91
871.877	45.91
872.05	9.05
872.223	41.81
872.396	-23.72
872.569	78.68
872.742	-23.72
872.915	7
873.088	-17.58
873.261	-7.34
873.434	25.43
873.607	37.72
873.78	60.24
873.953	-62.63
874.126	15.19
874.299	-11.43
874.471	-15.53
874.644	-11.43
874.817	70.48
874.99	90.96
875.163	2.9
875.335	62.29
875.508	39.76
875.681	70.48
875.853	-38.06
876.026	-23.72
876.199	21.33
876.371	19.29
876.544	-23.72
876.717	25.43
876.889	-11.43
877.062	35.67
877.234	7
877.407	21.33
877.579	4.95
877.752	80.72
877.924	86.87
878.097	62.29
878.269	39.76
878.442	9.05
878.614	21.33
878.786	64.34
878.959	-31.91
879.131	-44.2
879.303	9.05
879.476	41.81
879.648	29.52
879.82	35.67
879.993	23.38
880.165	43.86
880.337	-76.97
880.509	66.39
880.681	-33.96
880.854	25.43
881.026	58.2
881.198	50
881.37	103.25
881.542	-7.34
881.714	13.14
881.886	66.39
882.058	-1.19
882.23	31.57
882.402	-60.59
882.574	41.81
882.746	54.1
882.918	33.62
883.09	0.85
883.262	13.14
883.434	0.85
883.606	25.43
883.778	7
883.95	140.12
884.122	-40.11
884.293	41.81
884.465	37.72
884.637	-27.82
884.809	0.85
884.98	39.76
885.152	-13.48
885.324	-11.43
885.496	-31.91
885.667	11.09
885.839	66.39
886.011	29.52
886.182	70.48
886.354	2.9
886.525	41.81
886.697	-42.15
886.869	58.2
887.04	-19.63
887.212	72.53
887.383	25.43
887.555	93.01
887.726	-40.11
887.897	-48.3
888.069	-23.72
888.24	39.76
888.412	-44.2
888.583	13.14
888.754	50
888.926	4.95
889.097	17.24
889.268	-1.19
889.44	21.33
889.611	-3.24
889.782	52.05
889.953	-72.87
890.125	60.24
890.296	-7.34
890.467	19.29
890.638	-11.43
890.809	50
890.98	-15.53
891.151	68.44
891.323	21.33
891.494	17.24
891.665	-23.72
891.836	27.48
892.007	9.05
892.178	0.85
892.349	97.11
892.52	17.24
892.691	11.09
892.862	-5.29
893.032	-97.45
893.203	-31.91
893.374	-9.39
893.545	50
893.716	23.38
893.887	21.33
894.057	15.19
894.228	27.48
894.399	-68.78
894.57	43.86
894.74	0.85
894.911	11.09
895.082	9.05
895.253	27.48
895.423	33.62
895.594	60.24
895.764	-11.43
895.935	-44.2
896.106	9.05
896.276	-3.24
896.447	27.48
896.617	27.48
896.788	41.81
896.958	-31.91
897.129	-23.72
897.299	-54.44
897.47	9.05
897.64	33.62
897.81	-23.72
897.981	-15.53
898.151	-29.87
898.322	-3.24
898.492	-48.3
898.662	-46.25
898.832	15.19
899.003	37.72
899.173	19.29
899.343	0.85
899.513	-21.67
