Data from USB4F104151__309__14-35-03-295.txt Node

Date: Thu Mar 13 14:35:03 EDT 2025
User: louis
Spectrometer: USB4F10415
Trigger mode: 4
Integration Time (sec): 2.500000E-2
Scans to average: 1
Electric dark correction enabled: true
Nonlinearity correction enabled: false
Boxcar width: 0
XAxis mode: Wavelengths
Number of Pixels in Spectrum: 3648
>>>>>Begin Spectral Data<<<<<
178.204	-146.26
178.424	-146.26
178.644	-146.26
178.864	-179.03
179.084	-138.07
179.304	44.2
179.524	38.06
179.744	33.96
179.964	-41.81
180.184	11.43
180.404	3.24
180.624	5.29
180.844	-50
181.064	-82.77
181.283	11.43
181.503	-29.52
181.723	56.49
181.943	-31.57
182.163	113.83
182.383	74.92
182.602	154.79
182.822	46.25
183.042	150.7
183.262	50.35
183.482	15.53
183.701	70.83
183.921	38.06
184.141	46.25
184.361	91.31
184.58	38.06
184.8	29.87
185.02	1.19
185.239	89.26
185.459	13.48
185.679	74.92
185.898	-58.2
186.118	56.49
186.338	76.97
186.557	29.87
186.777	33.96
186.997	54.44
187.216	58.54
187.436	64.68
187.655	21.67
187.875	38.06
188.095	17.58
188.314	52.39
188.534	91.31
188.753	21.67
188.973	54.44
189.192	113.83
189.412	29.87
189.631	25.77
189.851	38.06
190.07	119.98
190.29	-11.09
190.509	-35.67
190.729	-43.86
190.948	132.26
191.168	165.03
191.387	79.02
191.607	64.68
191.826	64.68
192.045	95.4
192.265	56.49
192.484	97.45
192.704	25.77
192.923	-47.96
193.142	177.32
193.362	66.73
193.581	93.35
193.8	-0.85
194.02	48.3
194.239	46.25
194.458	103.59
194.678	31.91
194.897	62.63
195.116	31.91
195.335	-11.09
195.555	66.73
195.774	25.77
195.993	136.36
196.212	-9.05
196.432	-2.9
196.651	7.34
196.87	15.53
197.089	156.84
197.308	95.4
197.528	19.63
197.747	-60.24
197.966	-11.09
198.185	83.11
198.404	-43.86
198.623	31.91
198.842	21.67
199.062	64.68
199.281	81.07
199.5	29.87
199.719	72.87
199.938	58.54
200.157	62.63
200.376	46.25
200.595	29.87
200.814	64.68
201.033	36.01
201.252	91.31
201.471	17.58
201.69	33.96
201.909	21.67
202.128	87.21
202.347	79.02
202.566	-50
202.785	17.58
203.004	-27.48
203.223	195.75
203.442	97.45
203.661	54.44
203.879	48.3
204.098	17.58
204.317	97.45
204.536	50.35
204.755	62.63
204.974	79.02
205.193	13.48
205.411	144.55
205.63	107.69
205.849	13.48
206.068	15.53
206.287	9.39
206.505	38.06
206.724	54.44
206.943	-29.52
207.162	42.15
207.381	93.35
207.599	1.19
207.818	42.15
208.037	62.63
208.255	85.16
208.474	29.87
208.693	33.96
208.911	50.35
209.13	33.96
209.349	11.43
209.567	95.4
209.786	54.44
210.005	38.06
210.223	62.63
210.442	36.01
210.661	152.74
210.879	56.49
211.098	83.11
211.316	29.87
211.535	119.98
211.753	70.83
211.972	152.74
212.191	74.92
212.409	21.67
212.628	56.49
212.846	-45.91
213.065	62.63
213.283	105.64
213.502	5.29
213.72	56.49
213.938	46.25
214.157	87.21
214.375	66.73
214.594	-58.2
214.812	40.11
215.031	109.74
215.249	17.58
215.467	1.19
215.686	48.3
215.904	21.67
216.122	54.44
216.341	70.83
216.559	48.3
216.778	89.26
216.996	89.26
217.214	23.72
217.432	64.68
217.651	23.72
217.869	105.64
218.087	56.49
218.306	111.78
218.524	46.25
218.742	-17.24
218.96	83.11
219.179	152.74
219.397	95.4
219.615	87.21
219.833	89.26
220.051	38.06
220.27	105.64
220.488	17.58
220.706	99.5
220.924	19.63
221.142	-27.48
221.36	81.07
221.578	74.92
221.796	-2.9
222.015	38.06
222.233	-0.85
222.451	169.13
222.669	-43.86
222.887	74.92
223.105	50.35
223.323	3.24
223.541	17.58
223.759	40.11
223.977	15.53
224.195	25.77
224.413	142.5
224.631	113.83
224.849	50.35
225.067	111.78
225.285	13.48
225.503	56.49
225.721	17.58
225.939	38.06
226.157	91.31
226.375	62.63
226.592	38.06
226.81	38.06
227.028	76.97
227.246	124.07
227.464	-27.48
227.682	126.12
227.9	46.25
228.117	33.96
228.335	50.35
228.553	40.11
228.771	46.25
228.989	111.78
229.206	54.44
229.424	31.91
229.642	13.48
229.86	79.02
230.077	93.35
230.295	72.87
230.513	103.59
230.731	105.64
230.948	105.64
231.166	97.45
231.384	-60.24
231.601	38.06
231.819	79.02
232.037	38.06
232.254	-0.85
232.472	70.83
232.689	72.87
232.907	44.2
233.125	83.11
233.342	50.35
233.56	56.49
233.777	79.02
233.995	13.48
234.213	132.26
234.43	70.83
234.648	111.78
234.865	70.83
235.083	79.02
235.3	48.3
235.518	81.07
235.735	54.44
235.953	105.64
236.17	-17.24
236.388	85.16
236.605	13.48
236.822	79.02
237.04	83.11
237.257	117.93
237.475	5.29
237.692	40.11
237.909	105.64
238.127	25.77
238.344	58.54
238.562	7.34
238.779	79.02
238.996	60.59
239.214	-0.85
239.431	72.87
239.648	64.68
239.865	33.96
240.083	72.87
240.3	-2.9
240.517	-31.57
240.735	29.87
240.952	83.11
241.169	46.25
241.386	62.63
241.603	21.67
241.821	40.11
242.038	109.74
242.255	111.78
242.472	95.4
242.689	54.44
242.907	95.4
243.124	38.06
243.341	81.07
243.558	21.67
243.775	7.34
243.992	-56.15
244.209	54.44
244.426	83.11
244.643	72.87
244.86	97.45
245.078	58.54
245.295	17.58
245.512	-37.72
245.729	130.22
245.946	134.31
246.163	58.54
246.38	15.53
246.597	29.87
246.814	111.78
247.031	79.02
247.248	87.21
247.464	46.25
247.681	81.07
247.898	81.07
248.115	54.44
248.332	50.35
248.549	136.36
248.766	31.91
248.983	79.02
249.2	64.68
249.417	79.02
249.633	-58.2
249.85	99.5
250.067	36.01
250.284	7.34
250.501	44.2
250.717	97.45
250.934	74.92
251.151	66.73
251.368	23.72
251.585	25.77
251.801	105.64
252.018	74.92
252.235	-2.9
252.451	-0.85
252.668	9.39
252.885	70.83
253.102	99.5
253.318	54.44
253.535	-43.86
253.752	87.21
253.968	48.3
254.185	-23.38
254.401	56.49
254.618	29.87
254.835	31.91
255.051	113.83
255.268	124.07
255.484	87.21
255.701	3.24
255.917	89.26
256.134	7.34
256.351	48.3
256.567	54.44
256.784	85.16
257	-19.29
257.217	25.77
257.433	-66.39
257.65	54.44
257.866	103.59
258.082	58.54
258.299	76.97
258.515	64.68
258.732	54.44
258.948	60.59
259.165	79.02
259.381	1.19
259.597	64.68
259.814	23.72
260.03	40.11
260.246	68.78
260.463	64.68
260.679	54.44
260.895	74.92
261.112	107.69
261.328	-0.85
261.544	1.19
261.761	128.17
261.977	54.44
262.193	-4.95
262.409	40.11
262.626	56.49
262.842	-19.29
263.058	-45.91
263.274	21.67
263.49	9.39
263.707	64.68
263.923	44.2
264.139	3.24
264.355	5.29
264.571	40.11
264.787	21.67
265.004	70.83
265.22	52.39
265.436	70.83
265.652	13.48
265.868	46.25
266.084	-27.48
266.3	66.73
266.516	38.06
266.732	-0.85
266.948	103.59
267.164	33.96
267.38	181.42
267.596	62.63
267.812	9.39
268.028	-15.19
268.244	19.63
268.46	66.73
268.676	76.97
268.892	56.49
269.108	5.29
269.324	5.29
269.54	72.87
269.756	11.43
269.972	1.19
270.188	122.02
270.403	29.87
270.619	62.63
270.835	101.55
271.051	62.63
271.267	105.64
271.483	38.06
271.698	103.59
271.914	54.44
272.13	15.53
272.346	54.44
272.562	21.67
272.777	56.49
272.993	105.64
273.209	87.21
273.425	111.78
273.64	-7
273.856	29.87
274.072	9.39
274.287	50.35
274.503	144.55
274.719	42.15
274.934	130.22
275.15	-47.96
275.366	29.87
275.581	103.59
275.797	-31.57
276.012	72.87
276.228	-19.29
276.444	38.06
276.659	124.07
276.875	58.54
277.09	58.54
277.306	107.69
277.521	70.83
277.737	76.97
277.952	111.78
278.168	87.21
278.383	79.02
278.599	-37.72
278.814	48.3
279.03	-7
279.245	56.49
279.461	105.64
279.676	115.88
279.892	60.59
280.107	50.35
280.322	52.39
280.538	54.44
280.753	-39.76
280.969	46.25
281.184	119.98
281.399	109.74
281.615	40.11
281.83	5.29
282.045	29.87
282.26	-74.58
282.476	103.59
282.691	70.83
282.906	17.58
283.122	38.06
283.337	36.01
283.552	31.91
283.767	25.77
283.983	144.55
284.198	42.15
284.413	-11.09
284.628	-7
284.843	68.78
285.058	17.58
285.274	62.63
285.489	11.43
285.704	111.78
285.919	27.82
286.134	122.02
286.349	13.48
286.564	95.4
286.779	105.64
286.995	56.49
287.21	29.87
287.425	70.83
287.64	-60.24
287.855	21.67
288.07	46.25
288.285	74.92
288.5	105.64
288.715	25.77
288.93	62.63
289.145	-19.29
289.36	66.73
289.575	21.67
289.79	60.59
290.004	5.29
290.219	33.96
290.434	29.87
290.649	79.02
290.864	79.02
291.079	66.73
291.294	177.32
291.509	23.72
291.724	17.58
291.938	42.15
292.153	99.5
292.368	-9.05
292.583	81.07
292.798	97.45
293.012	68.78
293.227	27.82
293.442	-68.44
293.657	36.01
293.871	119.98
294.086	33.96
294.301	150.7
294.516	72.87
294.73	25.77
294.945	62.63
295.16	-23.38
295.374	-11.09
295.589	95.4
295.804	38.06
296.018	87.21
296.233	38.06
296.447	122.02
296.662	-25.43
296.877	87.21
297.091	62.63
297.306	38.06
297.52	13.48
297.735	29.87
297.949	79.02
298.164	17.58
298.378	95.4
298.593	46.25
298.807	66.73
299.022	95.4
299.236	38.06
299.451	46.25
299.665	56.49
299.88	81.07
300.094	62.63
300.309	119.98
300.523	54.44
300.737	46.25
300.952	93.35
301.166	91.31
301.381	54.44
301.595	38.06
301.809	40.11
302.024	79.02
302.238	62.63
302.452	103.59
302.667	13.48
302.881	64.68
303.095	72.87
303.309	83.11
303.524	-25.43
303.738	48.3
303.952	-76.63
304.166	122.02
304.381	-2.9
304.595	124.07
304.809	7.34
305.023	91.31
305.237	48.3
305.452	70.83
305.666	62.63
305.88	40.11
306.094	60.59
306.308	54.44
306.522	111.78
306.736	87.21
306.95	97.45
307.164	-27.48
307.379	31.91
307.593	105.64
307.807	50.35
308.021	15.53
308.235	56.49
308.449	58.54
308.663	33.96
308.877	148.65
309.091	60.59
309.305	76.97
309.519	5.29
309.733	79.02
309.947	23.72
310.161	83.11
310.374	62.63
310.588	27.82
310.802	5.29
311.016	56.49
311.23	103.59
311.444	15.53
311.658	42.15
311.872	81.07
312.085	103.59
312.299	115.88
312.513	130.22
312.727	46.25
312.941	38.06
313.154	66.73
313.368	113.83
313.582	72.87
313.796	111.78
314.009	64.68
314.223	119.98
314.437	44.2
314.651	85.16
314.864	5.29
315.078	46.25
315.292	50.35
315.505	5.29
315.719	62.63
315.933	111.78
316.146	11.43
316.36	66.73
316.573	66.73
316.787	46.25
317.001	40.11
317.214	-2.9
317.428	58.54
317.641	42.15
317.855	62.63
318.068	62.63
318.282	46.25
318.495	64.68
318.709	-17.24
318.922	15.53
319.136	66.73
319.349	15.53
319.563	36.01
319.776	68.78
319.99	38.06
320.203	117.93
320.417	70.83
320.63	38.06
320.843	117.93
321.057	-7
321.27	50.35
321.483	111.78
321.697	140.46
321.91	132.26
322.124	17.58
322.337	54.44
322.55	-15.19
322.763	40.11
322.977	-2.9
323.19	52.39
323.403	40.11
323.617	42.15
323.83	81.07
324.043	58.54
324.256	42.15
324.469	-11.09
324.683	38.06
324.896	-17.24
325.109	83.11
325.322	-19.29
325.535	99.5
325.748	83.11
325.962	13.48
326.175	3.24
326.388	89.26
326.601	72.87
326.814	23.72
327.027	1.19
327.24	89.26
327.453	-11.09
327.666	105.64
327.879	91.31
328.092	103.59
328.305	-52.05
328.518	-31.57
328.731	-31.57
328.944	29.87
329.157	58.54
329.37	62.63
329.583	140.46
329.796	87.21
330.009	-11.09
330.222	23.72
330.435	19.63
330.648	144.55
330.861	95.4
331.073	25.77
331.286	76.97
331.499	27.82
331.712	87.21
331.925	89.26
332.138	103.59
332.35	87.21
332.563	83.11
332.776	70.83
332.989	23.72
333.202	-19.29
333.414	31.91
333.627	64.68
333.84	33.96
334.053	21.67
334.265	33.96
334.478	56.49
334.691	40.11
334.903	81.07
335.116	-7
335.329	91.31
335.541	105.64
335.754	79.02
335.966	-56.15
336.179	87.21
336.392	95.4
336.604	134.31
336.817	56.49
337.029	40.11
337.242	79.02
337.454	70.83
337.667	-23.38
337.88	115.88
338.092	103.59
338.305	87.21
338.517	5.29
338.729	64.68
338.942	87.21
339.154	7.34
339.367	31.91
339.579	7.34
339.792	33.96
340.004	122.02
340.217	-62.29
340.429	81.07
340.641	48.3
340.854	15.53
341.066	9.39
341.278	113.83
341.491	74.92
341.703	56.49
341.915	54.44
342.128	46.25
342.34	111.78
342.552	103.59
342.764	103.59
342.977	58.54
343.189	21.67
343.401	177.32
343.613	-2.9
343.826	144.55
344.038	66.73
344.25	33.96
344.462	54.44
344.674	74.92
344.886	81.07
345.099	105.64
345.311	29.87
345.523	5.29
345.735	-2.9
345.947	101.55
346.159	74.92
346.371	31.91
346.583	122.02
346.795	74.92
347.007	68.78
347.219	36.01
347.431	68.78
347.643	136.36
347.855	107.69
348.067	119.98
348.279	33.96
348.491	87.21
348.703	31.91
348.915	128.17
349.127	79.02
349.339	99.5
349.551	-33.62
349.763	76.97
349.975	66.73
350.187	29.87
350.399	56.49
350.61	40.11
350.822	58.54
351.034	46.25
351.246	95.4
351.458	40.11
351.669	17.58
351.881	79.02
352.093	119.98
352.305	5.29
352.517	113.83
352.728	128.17
352.94	46.25
353.152	119.98
353.363	1.19
353.575	70.83
353.787	50.35
353.999	25.77
354.21	38.06
354.422	-39.76
354.633	21.67
354.845	31.91
355.057	54.44
355.268	46.25
355.48	56.49
355.692	68.78
355.903	79.02
356.115	46.25
356.326	9.39
356.538	87.21
356.749	31.91
356.961	152.74
357.172	124.07
357.384	66.73
357.595	136.36
357.807	46.25
358.018	-17.24
358.23	21.67
358.441	111.78
358.653	42.15
358.864	-27.48
359.075	42.15
359.287	128.17
359.498	50.35
359.709	52.39
359.921	109.74
360.132	56.49
360.344	70.83
360.555	64.68
360.766	85.16
360.977	93.35
361.189	87.21
361.4	21.67
361.611	99.5
361.823	38.06
362.034	64.68
362.245	62.63
362.456	87.21
362.667	15.53
362.879	72.87
363.09	70.83
363.301	87.21
363.512	17.58
363.723	70.83
363.935	17.58
364.146	60.59
364.357	60.59
364.568	72.87
364.779	46.25
364.99	152.74
365.201	7.34
365.412	132.26
365.623	101.55
365.834	40.11
366.045	58.54
366.256	29.87
366.467	64.68
366.678	58.54
366.889	79.02
367.1	42.15
367.311	97.45
367.522	56.49
367.733	103.59
367.944	85.16
368.155	117.93
368.366	60.59
368.577	74.92
368.788	89.26
368.999	33.96
369.209	87.21
369.42	124.07
369.631	103.59
369.842	68.78
370.053	38.06
370.264	87.21
370.474	89.26
370.685	72.87
370.896	103.59
371.107	99.5
371.317	81.07
371.528	58.54
371.739	95.4
371.95	109.74
372.16	46.25
372.371	46.25
372.582	64.68
372.792	56.49
373.003	66.73
373.214	33.96
373.424	74.92
373.635	13.48
373.846	103.59
374.056	136.36
374.267	95.4
374.477	95.4
374.688	29.87
374.898	138.41
375.109	111.78
375.319	79.02
375.53	66.73
375.74	165.03
375.951	74.92
376.161	160.94
376.372	119.98
376.582	103.59
376.793	17.58
377.003	140.46
377.214	79.02
377.424	15.53
377.635	111.78
377.845	17.58
378.055	89.26
378.266	29.87
378.476	97.45
378.686	54.44
378.897	81.07
379.107	113.83
379.317	146.6
379.528	36.01
379.738	113.83
379.948	27.82
380.158	138.41
380.369	27.82
380.579	66.73
380.789	29.87
380.999	103.59
381.21	56.49
381.42	111.78
381.63	89.26
381.84	97.45
382.05	83.11
382.261	132.26
382.471	111.78
382.681	23.72
382.891	144.55
383.101	122.02
383.311	54.44
383.521	87.21
383.731	136.36
383.941	105.64
384.151	87.21
384.361	79.02
384.571	136.36
384.781	50.35
384.991	13.48
385.201	138.41
385.411	42.15
385.621	58.54
385.831	148.65
386.041	54.44
386.251	115.88
386.461	169.13
386.671	1.19
386.881	66.73
387.091	42.15
387.301	111.78
387.511	52.39
387.72	83.11
387.93	140.46
388.14	21.67
388.35	128.17
388.56	70.83
388.769	162.98
388.979	128.17
389.189	122.02
389.399	-0.85
389.609	119.98
389.818	113.83
390.028	62.63
390.238	29.87
390.447	136.36
390.657	93.35
390.867	31.91
391.076	48.3
391.286	29.87
391.496	40.11
391.705	109.74
391.915	111.78
392.125	119.98
392.334	109.74
392.544	74.92
392.753	138.41
392.963	83.11
393.172	111.78
393.382	54.44
393.591	132.26
393.801	31.91
394.01	162.98
394.22	167.08
394.429	87.21
394.639	48.3
394.848	91.31
395.058	70.83
395.267	91.31
395.477	185.51
395.686	101.55
395.895	113.83
396.105	179.37
396.314	152.74
396.524	93.35
396.733	124.07
396.942	111.78
397.152	58.54
397.361	117.93
397.57	119.98
397.78	144.55
397.989	115.88
398.198	253.09
398.407	154.79
398.617	179.37
398.826	162.98
399.035	124.07
399.244	144.55
399.453	148.65
399.663	128.17
399.872	144.55
400.081	79.02
400.29	136.36
400.499	140.46
400.708	138.41
400.917	181.42
401.127	158.89
401.336	203.94
401.545	222.38
401.754	146.6
401.963	173.22
402.172	83.11
402.381	109.74
402.59	130.22
402.799	179.37
403.008	126.12
403.217	146.6
403.426	201.9
403.635	111.78
403.844	179.37
404.053	128.17
404.262	203.94
404.471	212.14
404.68	267.43
404.888	216.23
405.097	148.65
405.306	210.09
405.515	230.57
405.724	212.14
405.933	302.25
406.142	242.85
406.35	283.81
406.559	197.8
406.768	267.43
406.977	339.11
407.185	275.62
407.394	253.09
407.603	210.09
407.812	279.72
408.02	341.16
408.229	316.58
408.438	339.11
408.646	238.76
408.855	310.44
409.064	328.87
409.272	398.5
409.481	349.35
409.69	263.33
409.898	324.77
410.107	349.35
410.315	402.6
410.524	398.5
410.733	457.89
410.941	335.01
411.15	439.46
411.358	521.38
411.567	527.52
411.775	412.84
411.984	578.72
412.192	523.43
412.401	529.57
412.609	726.18
412.818	660.64
413.026	623.78
413.234	689.31
413.443	699.55
413.651	683.17
413.86	664.74
414.068	791.71
414.276	658.59
414.485	826.53
414.693	849.05
414.901	881.82
415.11	953.5
415.318	842.91
415.526	957.6
415.734	953.5
415.943	1072.28
416.151	1025.18
416.359	1045.66
416.567	1154.2
416.776	1164.44
416.984	1201.3
417.192	1176.73
417.4	1143.96
417.608	1193.11
417.817	1352.85
418.025	1315.99
418.233	1475.73
418.441	1494.16
418.649	1438.87
418.857	1641.62
419.065	1653.91
419.273	1610.9
419.481	1750.16
419.689	1741.97
419.897	1938.57
420.105	1854.61
420.313	1858.7
420.521	1971.34
420.729	2002.06
420.937	2151.56
421.145	2163.85
421.353	2380.93
421.561	2530.44
421.769	2544.77
421.977	2587.78
422.185	2495.62
422.393	2808.96
422.601	2884.73
422.809	2847.87
423.017	2825.34
423.224	2970.75
423.432	3052.67
423.64	3028.09
423.848	3273.85
424.056	3327.1
424.263	3650.67
424.471	3589.24
424.679	3628.15
424.887	3841.14
425.094	3933.29
425.302	3994.73
425.51	4033.65
425.718	4254.83
425.925	4273.26
426.133	4324.46
426.341	4707.43
426.548	4842.59
426.756	4901.98
426.964	4818.02
427.171	5325.91
427.379	5315.67
427.586	5528.66
427.794	5428.31
428.001	5723.22
428.209	6222.92
428.417	6167.63
428.624	6474.82
428.832	6360.14
429.039	6353.99
429.247	6358.09
429.454	6972.48
429.662	7392.31
429.869	6878.27
430.076	7412.79
430.284	7210.04
430.491	7746.61
430.699	8105.01
430.906	8059.95
431.114	7975.98
431.321	8350.76
431.528	8549.42
431.736	9118.75
431.943	9292.83
432.15	9481.24
432.358	9188.38
432.565	9788.44
432.772	9763.86
432.979	10226.7
433.187	10486.79
433.394	10425.36
433.601	11252.73
433.808	11138.05
434.016	11199.49
434.223	11572.22
434.43	12286.96
434.637	12139.51
434.844	12710.89
435.052	12950.5
435.259	12907.49
435.466	13067.24
435.673	12766.18
435.88	13837.27
436.087	14355.41
436.294	14320.59
436.501	14095.32
436.708	14410.7
436.915	14826.44
437.122	15320
437.329	15463.36
437.537	16024.5
437.743	16419.76
437.95	15936.44
438.157	16841.64
438.364	17509.28
438.571	17384.35
438.778	17511.33
438.985	18973.58
439.192	18297.75
439.399	18981.77
439.606	18340.75
439.813	19604.35
440.02	20820.84
440.227	20642.67
440.433	20120.44
440.64	20652.91
440.847	21017.45
441.054	21144.42
441.261	22291.29
441.467	22328.15
441.674	22737.74
441.881	23806.78
442.088	23634.75
442.294	23403.33
442.501	23638.85
442.708	24097.59
442.914	25371.43
443.121	26348.31
443.328	25797.41
443.534	27425.54
443.741	26917.65
443.948	26270.49
444.154	28254.97
444.361	28197.63
444.568	28183.29
444.774	28218.11
444.981	28883.7
445.187	29299.44
445.394	30718.68
445.6	30200.54
445.807	33489.58
446.013	31765.19
446.22	32213.7
446.426	33534.63
446.633	33786.54
446.839	34792.09
447.046	34087.59
447.252	35326.61
447.459	35267.22
447.665	35277.46
447.871	36817.53
448.078	38617.69
448.284	36401.79
448.491	37898.86
448.697	38511.2
448.903	39533.14
449.11	39692.88
449.316	39082.58
449.522	39873.1
449.728	40942.14
449.935	41286.2
450.141	41282.1
450.347	41978.41
450.553	40929.85
450.76	41417.27
450.966	42582.56
451.172	42304.04
451.378	43260.44
451.584	42183.21
451.791	43373.08
451.997	43162.14
452.203	43995.66
452.409	43526.67
452.615	43897.36
452.821	42365.48
453.027	41818.67
453.233	43928.08
453.44	42056.23
453.646	42607.14
453.852	42773.02
454.058	43504.15
454.264	42185.25
454.47	43041.31
454.676	42101.29
454.882	43244.05
455.088	39899.72
455.294	40129.09
455.5	41253.43
455.705	41140.79
455.911	40206.92
456.117	39127.64
456.323	38660.7
456.529	36594.3
456.735	38349.41
456.941	36797.05
457.147	36393.6
457.352	35166.87
457.558	35340.94
457.764	35287.7
457.97	34093.73
458.176	33632.94
458.381	33659.56
458.587	31769.29
458.793	31777.48
458.999	30509.79
459.204	32262.85
459.41	31482.57
459.616	29326.06
459.821	29303.53
460.027	29420.27
460.233	28775.16
460.438	27302.67
460.644	27525.89
460.85	26381.08
461.055	25922.34
461.261	25705.25
461.466	23995.2
461.672	23239.5
461.878	24585.01
462.083	23108.43
462.289	22917.96
462.494	22315.86
462.7	21680.99
462.905	20872.04
463.111	21255.01
463.316	21513.06
463.522	21232.49
463.727	21416.8
463.932	21212.01
464.138	20466.55
464.343	21101.42
464.549	20581.23
464.754	20826.99
464.959	20845.42
465.165	20302.71
465.37	19757.95
465.575	19233.67
465.781	19633.02
465.986	19954.55
466.191	19276.68
466.397	18996.1
466.602	17963.93
466.807	18543.5
467.012	18529.17
467.218	18455.44
467.423	18211.73
467.628	18545.55
467.833	19186.57
468.038	18303.89
468.244	18142.1
468.449	18363.28
468.654	17720.22
468.859	17781.66
469.064	17720.22
469.269	17064.87
469.474	17220.52
469.679	17468.32
469.885	16948.14
470.09	17101.73
470.295	17118.12
470.5	16696.24
470.705	16831.4
470.91	16227.25
471.115	16135.09
471.32	16536.49
471.525	16497.58
471.73	15889.34
471.935	15889.34
472.139	15299.52
472.344	15621.05
472.549	15307.71
472.754	15373.25
472.959	14973.89
473.164	14767.05
473.369	14470.09
473.574	15154.12
473.778	14705.61
473.983	14791.62
474.188	14658.51
474.393	14037.97
474.598	13888.47
474.802	13919.19
475.007	13616.09
475.212	13652.95
475.417	13245.41
475.621	13353.95
475.826	13499.36
476.031	13202.4
476.235	12819.43
476.44	12878.82
476.645	12641.26
476.849	12887.01
477.054	12481.52
477.259	12571.63
477.463	12514.28
477.668	11959.28
477.872	12198.9
478.077	12153.84
478.282	11645.94
478.486	11781.11
478.691	11615.23
478.895	11625.47
479.1	11596.79
479.304	11361.28
479.509	11172.86
479.713	11506.68
479.918	11156.48
480.122	10957.83
480.326	11052.03
480.531	11113.47
480.735	11217.92
480.94	10789.89
481.144	11383.8
481.348	10841.09
481.553	10933.25
481.757	10417.16
481.961	10550.28
482.166	10976.26
482.37	10699.78
482.574	10671.11
482.778	10624.01
482.983	10767.37
483.187	10578.95
483.391	10703.88
483.595	10587.15
483.8	10378.25
484.004	10615.82
484.208	10646.54
484.412	10478.6
484.616	10765.32
484.821	10458.12
485.025	10384.4
485.229	10599.43
485.433	10554.38
485.637	10523.66
485.841	10404.88
486.045	10396.68
486.249	10413.07
486.453	10460.17
486.657	10408.97
486.861	10699.78
487.065	10247.18
487.269	10540.04
487.473	10279.95
487.677	10593.29
487.881	10443.79
488.085	10413.07
488.289	10417.16
488.493	10499.08
488.697	10712.07
488.901	10460.17
489.105	10527.75
489.309	10282
489.512	10597.38
489.716	10566.67
489.92	10501.13
490.124	10607.62
490.328	10632.2
490.531	10490.89
490.735	10595.34
490.939	10783.75
491.143	10548.23
491.346	10736.65
491.55	10908.68
491.754	10785.8
491.958	10781.7
492.161	10855.43
492.365	10877.96
492.569	10902.53
492.772	10820.61
492.976	11133.95
493.18	11090.95
493.383	11191.3
493.587	11158.53
493.79	11131.9
493.994	11113.47
494.197	11383.8
494.401	11392
494.605	11330.56
494.808	11459.58
495.012	11611.13
495.215	11691
495.419	11779.06
495.622	11580.41
495.825	11762.68
496.029	11777.01
496.232	12035.06
496.436	12202.99
496.639	12170.22
496.843	12024.82
497.046	12626.92
497.249	12405.74
497.453	12792.81
497.656	12741.61
497.859	12696.55
498.063	12801
498.266	13188.07
498.469	13038.56
498.673	13083.62
498.876	13444.06
499.079	13790.17
499.282	13560.8
499.485	13685.72
499.689	13870.04
499.892	13976.53
500.095	13960.15
500.298	14488.53
500.501	14386.13
500.705	14785.48
500.908	14685.13
501.111	14855.11
501.314	15021
501.517	15221.7
501.72	15360.96
501.923	15381.44
502.126	15541.18
502.329	15686.59
502.532	16063.41
502.735	15864.76
502.938	16442.29
503.141	16171.96
503.344	16729
503.547	16567.21
503.75	16956.33
503.953	17093.54
504.156	17402.79
504.359	17197.99
504.562	17290.15
504.765	17716.12
504.968	17986.46
505.17	18273.17
505.373	18166.68
505.576	18318.23
505.779	18740.11
505.982	18713.49
506.185	18996.1
506.387	19182.47
506.59	19182.47
506.793	19651.45
506.996	19471.23
507.198	20120.44
507.401	20083.58
507.604	20165.49
507.807	20906.86
508.009	20468.59
508.212	21062.51
508.415	21277.54
508.617	21248.87
508.82	21492.58
509.022	21341.03
509.225	21926.75
509.428	22147.93
509.63	22209.37
509.833	22168.41
510.035	23118.67
510.238	22610.77
510.44	22958.92
510.643	23249.74
510.845	23513.92
511.048	23329.61
511.25	23804.74
511.453	24132.41
511.655	25148.2
511.858	24636.21
512.06	24800.05
512.262	24849.2
512.465	24933.17
512.667	25447.21
512.87	25645.86
513.072	25678.63
513.274	25989.92
513.477	26473.24
513.679	26407.7
513.881	27052.81
514.084	27224.84
514.286	27075.34
514.488	27325.19
514.69	27919.1
514.893	28267.26
515.095	28103.42
515.297	28650.23
515.499	28715.76
515.701	28699.38
515.904	29207.28
516.106	29412.07
516.308	29393.64
516.51	29971.17
516.712	30032.61
516.914	30378.72
517.116	30778.07
517.318	30212.83
517.52	30798.55
517.722	30845.65
517.925	31316.68
518.127	31781.57
518.329	32160.45
518.531	31728.33
518.733	32455.36
518.935	32496.31
519.136	32633.53
519.338	33014.45
519.54	32959.16
519.742	33225.39
519.944	33637.03
520.146	34056.87
520.348	34134.69
520.55	33946.28
520.752	34462.36
520.954	34902.68
521.155	34210.46
521.357	35347.09
521.559	35066.52
521.761	35764.87
521.963	35326.61
522.164	35488.4
522.366	35900.04
522.568	36147.84
522.77	36264.58
522.971	36809.34
523.173	36356.74
523.375	36758.14
523.576	36635.26
523.778	36764.28
523.98	37364.34
524.181	37112.44
524.383	37079.67
524.584	37737.07
524.786	37792.36
524.988	37595.76
525.189	37923.43
525.391	37706.35
525.592	38281.83
525.794	38259.3
525.995	37933.67
526.197	38414.94
526.398	38453.86
526.6	38390.37
526.801	38797.91
527.003	38830.68
527.204	38685.28
527.406	38470.24
527.607	38462.05
527.808	38898.27
528.01	38136.42
528.211	38703.71
528.412	39320.15
528.614	39086.68
528.815	38683.23
529.016	39217.75
529.218	39127.64
529.419	38990.42
529.62	39162.45
529.822	38683.23
530.023	38988.38
530.224	39045.72
530.425	39058.01
530.626	38494.82
530.828	38517.34
531.029	39123.54
531.23	38498.91
531.431	38656.6
531.632	38756.96
531.833	38963.8
532.035	38627.93
532.236	38797.91
532.437	38730.33
532.638	38330.98
532.839	39041.62
533.04	38808.15
533.241	38552.16
533.442	38773.34
533.643	38732.38
533.844	38556.25
534.045	39074.39
534.246	38408.8
534.447	38601.31
534.648	38144.61
534.849	38521.44
535.05	38191.72
535.251	38177.38
535.451	38175.33
535.652	38199.91
535.853	38355.55
536.054	38244.96
536.255	38175.33
536.456	38292.07
536.657	38498.91
536.857	38087.27
537.058	37917.29
537.259	38023.78
537.46	38011.49
537.66	37659.24
537.861	38025.83
538.062	37655.15
538.263	37958.25
538.463	37829.23
538.664	37464.69
538.865	37427.82
539.065	37704.3
539.266	37390.96
539.466	37747.31
539.667	37393.01
539.868	37513.84
540.068	37474.93
540.269	37063.29
540.469	37538.41
540.67	36956.79
540.87	37239.41
541.071	37401.2
541.271	37118.58
541.472	37108.34
541.672	37083.76
541.873	37048.95
542.073	36592.25
542.274	37524.08
542.474	36915.83
542.675	36647.55
542.875	37147.25
543.075	37100.15
543.276	36878.97
543.476	37253.75
543.676	36702.84
543.877	37202.55
544.077	37044.85
544.277	36745.85
544.478	37048.95
544.678	37288.56
544.878	37241.46
545.078	37225.07
545.279	36430.46
545.479	36637.31
545.679	36590.2
545.879	36831.86
546.079	36416.13
546.28	36481.66
546.48	36326.02
546.68	36496
546.88	36670.08
547.08	36991.61
547.28	36407.94
547.48	36094.6
547.68	36653.69
547.88	36252.29
548.081	36817.53
548.281	36618.88
548.481	36354.69
548.681	36749.95
548.881	36825.72
549.081	36799.1
549.28	36622.97
549.48	36799.1
549.68	36455.04
549.88	37317.23
550.08	36479.61
550.28	36729.47
550.48	36715.13
550.68	36995.7
550.88	36432.51
551.08	36592.25
551.279	36921.98
551.479	36448.89
551.679	36831.86
551.879	36504.19
552.079	36835.96
552.278	36975.22
552.478	36840.06
552.678	36444.8
552.878	37364.34
553.077	36625.02
553.277	36559.48
553.477	37534.32
553.676	36702.84
553.876	37005.94
554.076	37018.23
554.275	36840.06
554.475	36385.41
554.674	36954.74
554.874	37190.26
555.074	36684.41
555.273	37073.52
555.473	37005.94
555.672	36856.44
555.872	37227.12
556.071	36844.15
556.271	36844.15
556.47	36917.88
556.67	36635.26
556.869	36776.57
557.068	37237.36
557.268	36948.6
557.467	37007.99
557.667	37124.72
557.866	37003.89
558.065	37423.73
558.265	37296.75
558.464	37028.47
558.663	37182.07
558.863	36579.96
559.062	37511.79
559.261	37020.28
559.461	37425.78
559.66	36924.02
559.859	37091.96
560.058	37098.1
560.258	37456.5
560.457	37134.96
560.656	37102.2
560.855	37249.65
561.054	37306.99
561.253	36635.26
561.453	37089.91
561.652	37153.4
561.851	37413.49
562.05	37270.13
562.249	36895.35
562.448	37347.95
562.647	37360.24
562.846	36659.84
563.045	36881.02
563.244	36680.31
563.443	37048.95
563.642	36756.09
563.841	36991.61
564.04	36692.6
564.239	37323.38
564.438	36590.2
564.637	36985.46
564.836	36807.29
565.035	36270.72
565.234	36604.54
565.432	36616.83
565.631	36817.53
565.83	36678.27
566.029	36586.11
566.228	36483.71
566.427	36553.34
566.625	36305.54
566.824	36153.99
567.023	36285.06
567.222	35670.67
567.42	36194.95
567.619	36045.44
567.818	36061.83
568.016	35883.66
568.215	35990.15
568.414	35586.7
568.612	36065.92
568.811	35603.08
569.01	35465.87
569.208	35146.39
569.407	35779.21
569.605	35189.39
569.804	35734.15
570.002	35394.19
570.201	35201.68
570.4	34781.85
570.598	35046.04
570.797	34908.82
570.995	35056.28
571.193	34648.73
571.392	34882.2
571.59	34609.82
571.789	34630.3
571.987	34208.42
572.186	34142.88
572.384	34642.59
572.582	34626.2
572.781	34083.49
572.979	33843.88
573.177	34491.04
573.376	34329.25
573.574	33946.28
573.772	33948.32
573.971	33407.66
574.169	33518.25
574.367	33694.38
574.565	33751.72
574.763	33399.47
574.962	33061.55
575.16	32987.83
575.358	33067.7
575.556	32703.16
575.754	33290.93
575.952	32574.14
576.151	32869.05
576.349	32723.64
576.547	32324.29
576.745	32533.18
576.943	32426.68
577.141	32326.33
577.339	32350.91
577.537	32172.74
577.735	32371.39
577.933	31781.57
578.131	32262.85
578.329	31961.79
578.527	31830.72
578.725	31425.23
578.923	31767.24
579.121	31537.87
579.319	31371.98
579.516	31513.29
579.714	31601.35
579.912	31091.41
580.11	31179.47
580.308	31089.36
580.506	30757.59
580.704	30378.72
580.901	30679.77
581.099	30900.95
581.297	30352.09
581.495	30636.76
581.692	30382.81
581.89	30509.79
582.088	30616.28
582.285	30376.67
582.483	30268.12
582.681	30266.08
582.878	30106.34
583.076	29807.33
583.274	30178.01
583.471	29629.16
583.669	29678.31
583.866	29754.08
584.064	30040.8
584.262	29383.4
584.459	29623.01
584.657	29334.25
584.854	29702.89
585.052	28928.75
585.249	29375.21
585.447	29438.7
585.644	28789.49
585.841	29088.49
586.039	29049.58
586.236	28252.92
586.434	28744.44
586.631	28697.33
586.828	28777.2
587.026	28881.65
587.223	28889.84
587.42	28310.27
587.618	28459.77
587.815	28412.67
588.012	28216.06
588.21	28123.9
588.407	28381.95
588.604	28082.94
588.801	27947.78
588.999	28054.27
589.196	28052.22
589.393	27581.19
589.59	27777.79
589.787	27360.01
589.984	27472.65
590.182	27597.57
590.379	27583.24
590.576	27341.58
590.773	27296.52
590.97	27304.71
591.167	27132.68
591.364	27245.32
591.561	27233.04
591.758	27196.17
591.955	27224.84
592.152	27435.78
592.349	27278.09
592.546	27204.36
592.743	27122.44
592.94	26743.57
593.137	26848.02
593.334	26983.18
593.531	26411.8
593.727	26948.37
593.924	26704.66
594.121	26682.13
594.318	26692.37
594.515	26221.34
594.712	26723.09
594.908	26610.45
595.105	26907.41
595.302	26020.64
595.499	26563.35
595.696	26372.89
595.892	26213.15
596.089	26366.74
596.286	26536.73
596.482	26366.74
596.679	26483.48
596.876	26399.51
597.072	26383.13
597.269	26147.61
597.466	25725.73
597.662	25662.24
597.859	25985.82
598.055	26307.35
598.252	25920.29
598.448	26370.84
598.645	26080.03
598.841	25742.11
599.038	26233.63
599.234	26207
599.431	25899.81
599.627	25922.34
599.824	26049.31
600.02	25754.4
600.217	26194.71
600.413	25891.62
600.609	26047.26
600.806	26254.11
601.002	25942.81
601.198	25699.11
601.395	26034.97
601.591	25688.87
601.787	25848.61
601.984	25991.97
602.18	26143.52
602.376	25946.91
602.572	26215.19
602.769	26372.89
602.965	25944.86
603.161	25967.39
603.357	25819.94
603.553	25826.08
603.75	25998.11
603.946	26104.6
604.142	25971.49
604.338	25834.27
604.534	26094.36
604.73	25641.76
604.926	25680.67
605.122	25979.68
605.318	26088.22
605.514	25985.82
605.71	26086.17
605.906	25879.33
606.102	26192.67
606.298	26186.52
606.494	25895.71
606.69	25856.8
606.886	26305.31
607.082	26172.19
607.278	26333.98
607.474	25443.11
607.67	26426.14
607.866	25735.97
608.062	26303.26
608.257	26129.18
608.453	26198.81
608.649	26706.71
608.845	26483.48
609.041	26278.68
609.236	26663.7
609.432	26364.7
609.628	26485.53
609.824	26272.54
610.019	26213.15
610.215	26417.94
610.411	26567.45
610.606	26170.14
610.802	26823.44
610.998	26456.85
611.193	26520.34
611.389	26555.16
611.584	26497.81
611.78	26708.76
611.976	26606.36
612.171	26825.49
612.367	26669.84
612.562	26675.99
612.758	26356.5
612.953	26413.85
613.149	27212.56
613.344	26723.09
613.539	26784.53
613.735	27097.87
613.93	26899.22
614.126	26798.87
614.321	27018
614.517	27020.05
614.712	26544.92
614.907	26571.54
615.103	26737.43
615.298	26653.46
615.493	26811.15
615.688	26589.97
615.884	26657.56
616.079	26458.9
616.274	26972.94
616.47	26665.75
616.665	26776.34
616.86	26837.78
617.055	26344.22
617.25	26669.84
617.445	27147.02
617.641	26266.39
617.836	26643.22
618.031	26284.83
618.226	26667.8
618.421	26422.04
618.616	26817.3
618.811	26434.33
619.006	26733.33
619.201	25963.29
619.396	26250.01
619.591	25924.38
619.786	26221.34
619.981	26047.26
620.176	26336.02
620.371	25670.43
620.566	25776.93
620.761	25766.69
620.956	25664.29
621.151	25498.41
621.346	25539.36
621.541	25285.42
621.735	25680.67
621.93	24881.97
622.125	25027.37
622.32	24785.71
622.515	24965.93
622.709	24773.42
622.904	24603.44
623.099	24513.33
623.294	24548.15
623.488	24353.59
623.683	24501.04
623.878	23892.8
624.072	24179.51
624.267	23997.24
624.462	23804.74
624.656	23890.75
624.851	23786.3
625.046	23585.6
625.24	23225.16
625.435	23427.91
625.629	23419.72
625.824	23268.17
626.018	23196.49
626.213	22362.97
626.407	22960.97
626.602	22737.74
626.796	22541.14
626.991	22498.13
627.185	22117.21
627.38	22401.88
627.574	22145.88
627.768	21896.03
627.963	22164.31
628.157	21621.6
628.352	21893.98
628.546	21334.89
628.74	21791.58
628.935	21338.98
629.129	21570.4
629.323	21498.72
629.517	21308.26
629.712	21048.17
629.906	21148.52
630.1	20773.74
630.294	20843.37
630.489	20583.28
630.683	20814.7
630.877	20530.03
631.071	20321.14
631.265	20599.66
631.459	20511.6
631.653	20147.06
631.848	19991.42
632.042	19999.61
632.236	19907.45
632.43	19710.85
632.624	19420.03
632.818	19487.62
633.012	19303.3
633.206	19481.47
633.4	19559.3
633.594	19166.09
633.788	19030.92
633.982	19272.58
634.176	18860.94
634.369	18731.92
634.563	18731.92
634.757	18510.74
634.951	18721.68
635.145	18492.3
635.339	18414.48
635.533	18318.23
635.726	18340.75
635.92	17949.59
636.114	17724.32
636.308	17890.2
636.501	17709.98
636.695	17898.39
636.889	17456.03
637.083	17736.6
637.276	17423.26
637.47	17372.07
637.664	17138.6
637.857	17142.69
638.051	17036.2
638.244	17007.53
638.438	16708.52
638.632	16704.43
638.825	16833.45
639.019	16497.58
639.212	16354.23
639.406	16194.48
639.599	16221.11
639.793	16135.09
639.986	16225.2
640.18	16079.8
640.373	16137.14
640.567	15745.98
640.76	15643.58
640.954	15719.35
641.147	15301.57
641.34	15451.07
641.534	15334.34
641.727	15397.82
641.92	15469.5
642.114	15225.79
642.307	15131.59
642.5	14996.42
642.694	14687.18
642.887	14629.84
643.08	14648.27
643.273	14777.29
643.467	14541.77
643.66	14326.74
643.853	14210
644.046	14111.7
644.239	14255.06
644.432	14214.1
644.626	13970.39
644.819	13925.33
645.012	13644.76
645.205	13972.44
645.398	13550.56
645.591	13478.88
645.784	13593.56
645.977	13188.07
646.17	13528.03
646.363	13263.84
646.556	13155.3
646.749	12973.03
646.942	13274.08
647.135	13085.67
647.328	12778.47
647.521	12723.18
647.714	12585.96
647.907	12796.9
648.099	12508.14
648.292	12579.82
648.485	12452.84
648.678	12291.06
648.871	12334.06
649.064	12049.39
649.256	12327.92
649.449	12178.42
649.642	11987.96
649.835	11826.17
650.027	11836.41
650.22	11893.75
650.413	11932.66
650.605	11746.3
650.798	11617.27
650.991	11598.84
651.183	11588.6
651.376	11174.91
651.568	11269.12
651.761	11443.2
651.954	11117.57
652.146	11049.99
652.339	11017.22
652.531	10861.57
652.724	10959.88
652.916	10900.48
653.109	10851.33
653.301	10837
653.494	10904.58
653.686	10720.26
653.879	10914.82
654.071	10720.26
654.263	10314.77
654.456	10695.69
654.648	10611.72
654.84	10171.41
655.033	10279.95
655.225	10261.52
655.417	10261.52
655.61	10212.37
655.802	10148.88
655.994	9985.04
656.186	10089.49
656.379	10038.29
656.571	9839.64
656.763	9915.41
656.955	9708.57
657.148	9829.4
657.34	9587.74
657.532	9638.94
657.724	9395.23
657.916	9499.67
658.108	9614.36
658.3	9577.5
658.492	9579.54
658.684	9438.23
658.876	9169.95
659.068	9153.57
659.26	9116.7
659.452	9219.1
659.644	9106.46
659.836	8999.97
660.028	9090.08
660.22	8848.42
660.412	8909.86
660.604	8780.84
660.796	8850.47
660.988	8819.75
661.18	8678.44
661.372	8516.65
661.563	8647.72
661.755	8465.45
661.947	8565.8
662.139	8565.8
662.331	8264.75
662.522	8180.78
662.714	8299.56
662.906	8094.77
663.097	8043.57
663.289	8145.97
663.481	8131.63
663.673	7996.46
663.864	7914.55
664.056	7910.45
664.247	8008.75
664.439	7793.72
664.631	7922.74
664.822	7779.38
665.014	7824.44
665.205	7728.18
665.397	7584.82
665.588	7554.1
665.78	7517.24
665.971	7502.9
666.163	7595.06
666.354	7599.16
666.546	7443.51
666.737	7339.07
666.929	7447.61
667.12	7275.58
667.311	7398.46
667.503	7124.03
667.694	7316.54
667.885	7205.95
668.077	7128.13
668.268	7124.03
668.459	6876.23
668.651	7068.73
668.842	7009.34
669.033	6937.66
669.224	6884.42
669.416	7009.34
669.607	6872.13
669.798	6765.64
669.989	6974.53
670.18	6763.59
670.371	6648.9
670.563	6693.96
670.754	6829.12
670.945	6646.85
671.136	6593.61
671.327	6659.14
671.518	6419.53
671.709	6519.88
671.9	6718.53
672.091	6607.94
672.282	6495.3
672.473	6495.3
672.664	6413.38
672.855	6329.42
673.046	6536.26
673.237	6356.04
673.428	6239.31
673.619	6331.47
673.809	6159.44
674	6206.54
674.191	6390.86
674.382	6190.16
674.573	6212.68
674.764	5950.54
674.954	6337.61
675.145	6294.6
675.336	6130.77
675.527	6018.13
675.717	6083.66
675.908	5987.41
676.099	6046.8
676.289	6149.2
676.48	5928.02
676.671	5952.59
676.861	6018.13
677.052	5999.7
677.243	5731.41
677.433	5936.21
677.624	5887.06
677.814	5999.7
678.005	5829.71
678.195	5870.67
678.386	6052.94
678.576	5911.63
678.767	5839.95
678.957	5758.03
679.148	5698.64
679.338	5753.94
679.529	5721.17
679.719	5674.07
679.909	5717.08
680.1	5803.09
680.29	5661.78
680.481	5708.88
680.671	5831.76
680.861	5518.42
681.052	5629.01
681.242	5649.49
681.432	5588.05
681.622	5641.3
681.813	5577.81
682.003	5530.71
682.193	5674.07
682.383	5704.79
682.573	5655.64
682.764	5481.56
682.954	5471.32
683.144	5635.16
683.334	5547.09
683.524	5559.38
683.714	5604.44
683.904	5629.01
684.094	5575.77
684.284	5495.89
684.474	5463.13
684.664	5485.65
684.854	5432.41
685.044	5516.37
685.234	5325.91
685.424	5389.4
685.614	5581.91
685.804	5409.88
685.994	5475.42
686.184	5362.78
686.374	5248.09
686.564	5379.16
686.753	5332.06
686.943	5387.35
687.133	5299.29
687.323	5315.67
687.513	5399.64
687.702	5190.75
687.892	5121.12
688.082	5319.77
688.272	5147.74
688.461	5262.43
688.651	5256.28
688.841	5239.9
689.03	5198.94
689.22	5026.91
689.41	5131.36
689.599	5137.5
689.789	5213.28
689.979	5047.39
690.168	5127.26
690.358	5196.89
690.547	5053.53
690.737	5108.83
690.926	5018.72
691.116	4936.8
691.305	5117.02
691.495	4967.52
691.684	4918.37
691.874	4969.57
692.063	4838.5
692.252	4920.42
692.442	4973.66
692.631	4953.18
692.82	4807.78
693.01	4777.06
693.199	4736.1
693.388	4734.05
693.578	4883.55
693.767	4703.33
693.956	4783.2
694.146	4734.05
694.335	4695.14
694.524	4744.29
694.713	4805.73
694.902	4666.47
695.092	4674.66
695.281	4758.63
695.47	4643.94
695.659	4691.04
695.848	4721.76
696.037	4619.36
696.226	4779.11
696.415	4510.82
696.604	4672.61
696.793	4502.63
696.982	4643.94
697.171	4744.29
697.36	4723.81
697.549	4703.33
697.738	4521.06
697.927	4349.03
698.116	4486.25
698.305	4340.84
698.494	4531.3
698.683	4447.33
698.872	4613.22
699.061	4521.06
699.25	4566.12
699.438	4510.82
699.627	4416.62
699.816	4490.34
700.005	4299.88
700.193	4381.8
700.382	4541.54
700.571	4437.09
700.76	4447.33
700.948	4301.93
701.137	4398.18
701.326	4461.67
701.514	4414.57
701.703	4338.79
701.892	4213.87
702.08	4236.39
702.269	4301.93
702.457	4281.45
702.646	4242.54
702.834	4174.95
703.023	4283.5
703.212	4277.35
703.4	4136.04
703.589	4127.85
703.777	4385.9
703.965	4045.93
704.154	4238.44
704.342	4011.12
704.531	4134
704.719	4076.65
704.907	4332.65
705.096	4031.6
705.284	4023.41
705.472	4052.08
705.661	4150.38
705.849	4109.42
706.037	4109.42
706.226	4097.13
706.414	3955.82
706.602	4004.97
706.79	4070.51
706.979	4002.93
707.167	4060.27
707.355	3961.97
707.543	3882.1
707.731	3972.21
707.919	4031.6
708.107	3822.7
708.296	3970.16
708.484	3929.2
708.672	3970.16
708.86	3880.05
709.048	3806.32
709.236	3798.13
709.424	3941.49
709.612	3839.09
709.8	3753.07
709.988	3748.98
710.176	3720.31
710.364	3798.13
710.551	3781.74
710.739	3652.72
710.927	3748.98
711.115	3572.85
711.303	3812.46
711.491	3728.5
711.679	3679.35
711.866	3658.87
712.054	3568.76
712.242	3579
712.43	3677.3
712.617	3611.76
712.805	3656.82
712.993	3527.8
713.181	3560.56
713.368	3511.41
713.556	3634.29
713.744	3400.82
713.931	3595.38
714.119	3529.84
714.306	3646.58
714.494	3429.49
714.682	3499.13
714.869	3404.92
715.057	3470.45
715.244	3521.65
715.432	3458.17
715.619	3462.26
715.807	3503.22
715.994	3429.49
716.182	3413.11
716.369	3437.69
716.556	3527.8
716.744	3454.07
716.931	3298.42
717.119	3384.44
717.306	3327.1
717.493	3284.09
717.681	3290.23
717.868	3269.75
718.055	3382.39
718.242	3460.21
718.43	3282.04
718.617	3423.35
718.804	3454.07
718.991	3400.82
719.179	3224.7
719.366	3298.42
719.553	3333.24
719.74	3112.06
719.927	3267.7
720.114	3269.75
720.301	3191.93
720.488	3069.05
720.676	3198.07
720.863	3179.64
721.05	3183.74
721.237	3128.44
721.424	3277.94
721.611	3261.56
721.798	3167.35
721.985	3101.82
722.172	3089.53
722.358	3073.15
722.545	3097.72
722.732	3110.01
722.919	3150.97
723.106	3144.83
723.293	3013.76
723.48	3167.35
723.667	3011.71
723.853	3067
724.04	3038.33
724.227	3175.55
724.414	3122.3
724.6	3001.47
724.787	2983.04
724.974	3024
725.161	2946.17
725.347	2817.15
725.534	2991.23
725.72	2966.65
725.907	3087.48
726.094	2950.27
726.28	2880.64
726.467	2839.68
726.653	2847.87
726.84	2888.83
727.027	3007.61
727.213	3019.9
727.4	2829.44
727.586	2788.48
727.773	2909.31
727.959	2808.96
728.145	2946.17
728.332	2905.21
728.518	2831.49
728.705	2884.73
728.891	2872.45
729.077	2872.45
729.264	2835.58
729.45	2929.79
729.636	2874.49
729.823	2825.34
730.009	2931.84
730.195	2841.73
730.382	2890.88
730.568	2819.2
730.754	2786.43
730.94	2688.13
731.126	2628.74
731.313	2815.1
731.499	2731.14
731.685	2790.53
731.871	2757.76
732.057	2757.76
732.243	2790.53
732.429	2675.84
732.615	2729.09
732.801	2634.88
732.987	2663.55
733.173	2727.04
733.359	2706.56
733.545	2733.18
733.731	2587.78
733.917	2727.04
734.103	2671.75
734.289	2552.96
734.475	2579.59
734.661	2774.14
734.847	2665.6
735.033	2671.75
735.219	2561.16
735.404	2571.4
735.59	2643.07
735.776	2499.72
735.962	2544.77
736.148	2751.62
736.333	2634.88
736.519	2618.5
736.705	2540.68
736.89	2509.96
737.076	2571.4
737.262	2458.76
737.447	2489.48
737.633	2450.57
737.819	2479.24
738.004	2405.51
738.19	2487.43
738.375	2493.57
738.561	2434.18
738.747	2454.66
738.932	2368.65
739.118	2296.97
739.303	2411.65
739.489	2401.41
739.674	2399.37
739.859	2344.07
740.045	2395.27
740.23	2475.14
740.416	2364.55
740.601	2464.9
740.786	2378.89
740.972	2315.4
741.157	2266.25
741.342	2307.21
741.528	2358.41
741.713	2315.4
741.898	2348.17
742.084	2294.92
742.269	2327.69
742.454	2311.3
742.639	2438.28
742.824	2165.9
743.01	2260.1
743.195	2233.48
743.38	2217.1
743.565	2172.04
743.75	2200.71
743.935	2184.33
744.12	2315.4
744.305	2069.64
744.49	2159.75
744.675	2155.66
744.86	2104.46
745.045	2200.71
745.23	2180.23
745.415	2120.84
745.6	2198.67
745.785	2110.6
745.97	2045.07
746.155	2022.54
746.34	2086.03
746.525	2131.08
746.71	2153.61
746.895	1940.62
747.079	2051.21
747.264	1889.42
747.449	1975.44
747.634	1948.81
747.819	1995.92
748.003	1891.47
748.188	1811.6
748.373	1897.61
748.557	1916.05
748.742	1987.72
748.927	1897.61
749.111	1934.48
749.296	1815.69
749.481	1942.67
749.665	1905.81
749.85	1750.16
750.034	1873.04
750.219	1856.65
750.404	1750.16
750.588	1723.54
750.773	1827.98
750.957	1834.13
751.141	1680.53
751.326	1711.25
751.51	1684.62
751.695	1733.78
751.879	1780.88
752.064	1612.95
752.248	1715.34
752.432	1684.62
752.617	1762.45
752.801	1690.77
752.985	1754.26
753.17	1733.78
753.354	1811.6
753.538	1612.95
753.722	1619.09
753.907	1580.18
754.091	1512.6
754.275	1545.36
754.459	1528.98
754.643	1514.64
754.828	1533.08
755.012	1422.48
755.196	1514.64
755.38	1461.4
755.564	1422.48
755.748	1422.48
755.932	1389.72
756.116	1356.95
756.3	1506.45
756.484	1451.16
756.668	1359
756.852	1373.33
757.036	1328.28
757.22	1334.42
757.404	1426.58
757.588	1434.77
757.772	1324.18
757.956	1375.38
758.14	1352.85
758.323	1320.09
758.507	1299.61
758.691	1309.85
758.875	1268.89
759.059	1356.95
759.242	1289.37
759.426	1250.46
759.61	1356.95
759.794	1277.08
759.977	1301.65
760.161	1279.13
760.345	1246.36
760.528	1359
760.712	1219.74
760.895	1283.22
761.079	1229.98
761.263	1180.82
761.446	1176.73
761.63	1180.82
761.813	1168.54
761.997	1127.58
762.18	1197.21
762.364	1256.6
762.547	1088.67
762.731	1162.39
762.914	1156.25
763.098	1084.57
763.281	1094.81
763.464	1148.06
763.648	1203.35
763.831	1094.81
764.015	1103
764.198	1160.34
764.381	1078.43
764.564	1186.97
764.748	1111.19
764.931	1086.62
765.114	1088.67
765.297	1105.05
765.481	1029.27
765.664	1057.95
765.847	1047.71
766.03	1154.2
766.213	1070.23
766.397	988.32
766.58	922.78
766.763	1029.27
766.946	1039.51
767.129	1059.99
767.312	1031.32
767.495	1070.23
767.678	1010.84
767.861	1023.13
768.044	955.55
768.227	906.4
768.41	996.51
768.593	990.36
768.776	967.84
768.959	941.21
769.142	1072.28
769.324	1094.81
769.507	945.31
769.69	1006.75
769.873	1012.89
770.056	971.93
770.239	963.74
770.421	986.27
770.604	937.12
770.787	943.26
770.97	935.07
771.152	910.49
771.335	933.02
771.518	902.3
771.7	984.22
771.883	1000.6
772.066	1004.7
772.248	933.02
772.431	898.2
772.613	842.91
772.796	869.53
772.978	828.57
773.161	971.93
773.343	908.44
773.526	832.67
773.708	939.16
773.891	832.67
774.073	916.64
774.256	918.68
774.438	898.2
774.621	767.13
774.803	808.09
774.985	840.86
775.168	875.68
775.35	830.62
775.532	842.91
775.715	783.52
775.897	750.75
776.079	742.56
776.261	783.52
776.444	789.66
776.626	734.37
776.808	722.08
776.99	717.98
777.173	836.77
777.355	808.09
777.537	629.92
777.719	709.79
777.901	715.94
778.083	730.27
778.265	685.22
778.447	697.5
778.629	640.16
778.811	720.03
778.993	660.64
779.175	758.94
779.357	779.42
779.539	717.98
779.721	705.7
779.903	742.56
780.085	642.21
780.267	726.18
780.449	640.16
780.631	656.54
780.812	677.02
780.994	623.78
781.176	701.6
781.358	615.59
781.54	619.68
781.721	621.73
781.903	629.92
782.085	693.41
782.267	535.71
782.448	685.22
782.63	597.15
782.812	603.3
782.993	627.87
783.175	566.43
783.357	543.91
783.538	631.97
783.72	484.52
783.901	562.34
784.083	619.68
784.264	533.67
784.446	545.95
784.627	521.38
784.809	654.5
784.99	511.14
785.172	564.39
785.353	533.67
785.535	529.57
785.716	548
785.897	550.05
786.079	560.29
786.26	449.7
786.441	480.42
786.623	523.43
786.804	468.13
786.985	496.8
787.167	496.8
787.348	502.95
787.529	447.65
787.71	556.19
787.891	476.32
788.073	384.16
788.254	382.12
788.435	486.56
788.616	349.35
788.797	433.32
788.978	451.75
789.159	398.5
789.34	402.6
789.522	404.64
789.703	418.98
789.884	375.97
790.065	431.27
790.246	545.95
790.427	496.8
790.607	464.04
790.788	457.89
790.969	357.54
791.15	439.46
791.331	402.6
791.512	418.98
791.693	378.02
791.874	365.73
792.054	427.17
792.235	435.36
792.416	384.16
792.597	453.8
792.778	429.22
792.958	470.18
793.139	345.25
793.32	361.64
793.5	277.67
793.681	341.16
793.862	425.12
794.042	375.97
794.223	324.77
794.404	365.73
794.584	251.05
794.765	367.78
794.945	373.92
795.126	392.36
795.306	316.58
795.487	382.12
795.667	263.33
795.848	353.45
796.028	433.32
796.209	369.83
796.389	341.16
796.57	349.35
796.75	285.86
796.93	363.69
797.111	257.19
797.291	341.16
797.471	322.73
797.652	308.39
797.832	232.62
798.012	425.12
798.192	292.01
798.373	226.47
798.553	285.86
798.733	390.31
798.913	294.05
799.093	292.01
799.274	310.44
799.454	312.49
799.634	341.16
799.814	296.1
799.994	341.16
800.174	312.49
800.354	220.33
800.534	251.05
800.714	255.14
800.894	189.61
801.074	199.85
801.254	212.14
801.434	304.29
801.614	148.65
801.794	271.53
801.974	1055.9
802.154	279.72
802.334	343.21
802.514	193.7
802.693	265.38
802.873	269.48
803.053	287.91
803.233	257.19
803.413	261.29
803.592	298.15
803.772	212.14
803.952	185.51
804.131	201.9
804.311	279.72
804.491	242.85
804.67	230.57
804.85	220.33
805.03	259.24
805.209	316.58
805.389	244.9
805.568	269.48
805.748	251.05
805.928	193.7
806.107	251.05
806.287	144.55
806.466	277.67
806.646	189.61
806.825	246.95
807.004	222.38
807.184	185.51
807.363	255.14
807.543	261.29
807.722	177.32
807.901	214.18
808.081	261.29
808.26	208.04
808.439	271.53
808.619	171.18
808.798	181.42
808.977	212.14
809.156	283.81
809.336	249
809.515	216.23
809.694	189.61
809.873	185.51
810.052	181.42
810.231	234.66
810.411	214.18
810.59	201.9
810.769	124.07
810.948	234.66
811.127	158.89
811.306	218.28
811.485	185.51
811.664	197.8
811.843	171.18
812.022	119.98
812.201	177.32
812.38	128.17
812.559	158.89
812.737	130.22
812.916	132.26
813.095	212.14
813.274	263.33
813.453	212.14
813.632	251.05
813.811	214.18
813.989	181.42
814.168	156.84
814.347	144.55
814.526	222.38
814.704	124.07
814.883	203.94
815.062	156.84
815.24	220.33
815.419	242.85
815.598	146.6
815.776	105.64
815.955	162.98
816.133	103.59
816.312	222.38
816.49	169.13
816.669	148.65
816.847	150.7
817.026	173.22
817.204	201.9
817.383	197.8
817.561	169.13
817.74	249
817.918	179.37
818.097	169.13
818.275	117.93
818.453	122.02
818.632	195.75
818.81	177.32
818.988	128.17
819.167	91.31
819.345	97.45
819.523	122.02
819.701	138.41
819.879	201.9
820.058	210.09
820.236	99.5
820.414	228.52
820.592	142.5
820.77	128.17
820.948	111.78
821.127	122.02
821.305	201.9
821.483	115.88
821.661	236.71
821.839	160.94
822.017	156.84
822.195	76.97
822.373	146.6
822.551	144.55
822.729	119.98
822.907	38.06
823.085	109.74
823.262	210.09
823.44	128.17
823.618	169.13
823.796	187.56
823.974	111.78
824.152	95.4
824.329	160.94
824.507	185.51
824.685	117.93
824.863	140.46
825.04	79.02
825.218	111.78
825.396	111.78
825.574	105.64
825.751	91.31
825.929	68.78
826.107	122.02
826.284	152.74
826.462	169.13
826.639	144.55
826.817	79.02
826.994	132.26
827.172	83.11
827.349	111.78
827.527	79.02
827.704	89.26
827.882	111.78
828.059	64.68
828.237	87.21
828.414	150.7
828.591	40.11
828.769	144.55
828.946	99.5
829.124	148.65
829.301	124.07
829.478	103.59
829.655	81.07
829.833	122.02
830.01	54.44
830.187	136.36
830.364	111.78
830.542	138.41
830.719	154.79
830.896	214.18
831.073	58.54
831.25	134.31
831.427	152.74
831.604	46.25
831.782	72.87
831.959	158.89
832.136	93.35
832.313	74.92
832.49	83.11
832.667	222.38
832.844	70.83
833.021	99.5
833.198	103.59
833.374	70.83
833.551	58.54
833.728	107.69
833.905	122.02
834.082	79.02
834.259	68.78
834.436	205.99
834.612	25.77
834.789	95.4
834.966	70.83
835.143	70.83
835.319	31.91
835.496	160.94
835.673	124.07
835.85	74.92
836.026	81.07
836.203	152.74
836.38	105.64
836.556	107.69
836.733	115.88
836.909	122.02
837.086	46.25
837.262	40.11
837.439	107.69
837.616	5.29
837.792	83.11
837.968	128.17
838.145	79.02
838.321	70.83
838.498	74.92
838.674	95.4
838.851	79.02
839.027	54.44
839.203	72.87
839.38	169.13
839.556	111.78
839.732	54.44
839.909	62.63
840.085	162.98
840.261	93.35
840.437	13.48
840.614	158.89
840.79	87.21
840.966	29.87
841.142	119.98
841.318	95.4
841.494	29.87
841.671	122.02
841.847	21.67
842.023	21.67
842.199	85.16
842.375	54.44
842.551	-7
842.727	17.58
842.903	122.02
843.079	25.77
843.255	115.88
843.431	99.5
843.607	97.45
843.783	81.07
843.959	70.83
844.134	76.97
844.31	103.59
844.486	15.53
844.662	64.68
844.838	7.34
845.013	38.06
845.189	103.59
845.365	56.49
845.541	111.78
845.716	58.54
845.892	156.84
846.068	21.67
846.244	70.83
846.419	70.83
846.595	62.63
846.77	66.73
846.946	40.11
847.122	48.3
847.297	62.63
847.473	105.64
847.648	62.63
847.824	46.25
847.999	54.44
848.175	119.98
848.35	122.02
848.526	56.49
848.701	89.26
848.876	15.53
849.052	91.31
849.227	70.83
849.403	54.44
849.578	79.02
849.753	70.83
849.929	140.46
850.104	-2.9
850.279	66.73
850.454	132.26
850.63	111.78
850.805	9.39
850.98	128.17
851.155	101.55
851.33	74.92
851.505	25.77
851.681	23.72
851.856	46.25
852.031	50.35
852.206	87.21
852.381	25.77
852.556	-19.29
852.731	29.87
852.906	70.83
853.081	79.02
853.256	152.74
853.431	74.92
853.606	-0.85
853.781	56.49
853.956	-52.05
854.131	87.21
854.305	29.87
854.48	76.97
854.655	-27.48
854.83	19.63
855.005	68.78
855.18	62.63
855.354	25.77
855.529	48.3
855.704	68.78
855.879	76.97
856.053	64.68
856.228	105.64
856.403	42.15
856.577	29.87
856.752	5.29
856.926	105.64
857.101	62.63
857.276	-2.9
857.45	66.73
857.625	62.63
857.799	81.07
857.974	52.39
858.148	-0.85
858.323	95.4
858.497	25.77
858.672	42.15
858.846	52.39
859.02	56.49
859.195	-15.19
859.369	31.91
859.543	31.91
859.718	1.19
859.892	23.72
860.066	-0.85
860.241	83.11
860.415	74.92
860.589	40.11
860.763	56.49
860.938	-33.62
861.112	-11.09
861.286	87.21
861.46	23.72
861.634	42.15
861.808	76.97
861.982	42.15
862.157	-0.85
862.331	23.72
862.505	-15.19
862.679	17.58
862.853	-19.29
863.027	33.96
863.201	13.48
863.375	40.11
863.549	64.68
863.722	46.25
863.896	70.83
864.07	56.49
864.244	29.87
864.418	31.91
864.592	115.88
864.766	-35.67
864.939	79.02
865.113	42.15
865.287	23.72
865.461	-7
865.634	113.83
865.808	23.72
865.982	21.67
866.156	91.31
866.329	-19.29
866.503	1.19
866.676	72.87
866.85	-7
867.024	44.2
867.197	64.68
867.371	70.83
867.544	11.43
867.718	31.91
867.891	79.02
868.065	17.58
868.238	-43.86
868.412	111.78
868.585	-27.48
868.759	21.67
868.932	62.63
869.105	29.87
869.279	-50
869.452	21.67
869.625	-9.05
869.799	89.26
869.972	3.24
870.145	15.53
870.319	1.19
870.492	-15.19
870.665	15.53
870.838	79.02
871.011	1.19
871.185	-60.24
871.358	3.24
871.531	21.67
871.704	44.2
871.877	36.01
872.05	54.44
872.223	7.34
872.396	19.63
872.569	64.68
872.742	-27.48
872.915	29.87
873.088	40.11
873.261	15.53
873.434	79.02
873.607	79.02
873.78	31.91
873.953	95.4
874.126	-15.19
874.299	-27.48
874.471	54.44
874.644	21.67
874.817	-27.48
874.99	76.97
875.163	-2.9
875.335	46.25
875.508	56.49
875.681	81.07
875.853	-29.52
876.026	9.39
876.199	132.26
876.371	50.35
876.544	31.91
876.717	66.73
876.889	-41.81
877.062	15.53
877.234	-19.29
877.407	-9.05
877.579	66.73
877.752	40.11
877.924	44.2
878.097	58.54
878.269	31.91
878.442	-19.29
878.614	25.77
878.786	111.78
878.959	17.58
879.131	79.02
879.303	-31.57
879.476	-9.05
879.648	48.3
879.82	9.39
879.993	-2.9
880.165	33.96
880.337	9.39
880.509	15.53
880.681	15.53
880.854	-23.38
881.026	54.44
881.198	87.21
881.37	7.34
881.542	13.48
881.714	7.34
881.886	-2.9
882.058	17.58
882.23	19.63
882.402	62.63
882.574	1.19
882.746	15.53
882.918	40.11
883.09	-58.2
883.262	7.34
883.434	79.02
883.606	-27.48
883.778	-9.05
883.95	81.07
884.122	40.11
884.293	1.19
884.465	7.34
884.637	81.07
884.809	33.96
884.98	89.26
885.152	66.73
885.324	13.48
885.496	-39.76
885.667	70.83
885.839	13.48
886.011	66.73
886.182	-29.52
886.354	83.11
886.525	87.21
886.697	81.07
886.869	54.44
887.04	31.91
887.212	93.35
887.383	130.22
887.555	89.26
887.726	21.67
887.897	46.25
888.069	21.67
888.24	52.39
888.412	-9.05
888.583	9.39
888.754	40.11
888.926	-47.96
889.097	23.72
889.268	5.29
889.44	21.67
889.611	1.19
889.782	1.19
889.953	-27.48
890.125	33.96
890.296	-68.44
890.467	-7
890.638	-17.24
890.809	31.91
890.98	-7
891.151	-58.2
891.323	72.87
891.494	79.02
891.665	29.87
891.836	13.48
892.007	-19.29
892.178	58.54
892.349	-17.24
892.52	-33.62
892.691	13.48
892.862	119.98
893.032	-27.48
893.203	-0.85
893.374	25.77
893.545	-2.9
893.716	5.29
893.887	64.68
894.057	17.58
894.228	48.3
894.399	-58.2
894.57	-11.09
894.74	-17.24
894.911	44.2
895.082	-41.81
895.253	-11.09
895.423	-13.14
895.594	-4.95
895.764	-2.9
895.935	40.11
896.106	-23.38
896.276	5.29
896.447	36.01
896.617	-39.76
896.788	29.87
896.958	29.87
897.129	-4.95
897.299	-0.85
897.47	33.96
897.64	46.25
897.81	-2.9
897.981	-4.95
898.151	-37.72
898.322	40.11
898.492	-11.09
898.662	33.96
898.832	-21.33
899.003	40.11
899.173	21.67
899.343	5.29
899.513	-11.09
