Data from USB4F104151__18__11-44-36-694.txt Node

Date: Fri Mar 14 11:44:36 EDT 2025
User: louis
Spectrometer: USB4F10415
Trigger mode: 4
Integration Time (sec): 2.000000E-2
Scans to average: 1
Electric dark correction enabled: true
Nonlinearity correction enabled: false
Boxcar width: 0
XAxis mode: Wavelengths
Number of Pixels in Spectrum: 3648
>>>>>Begin Spectral Data<<<<<
178.204	-76.63
178.424	-76.63
178.644	-76.63
178.864	-64.34
179.084	-76.63
179.304	-37.72
179.524	-27.48
179.744	33.96
179.964	-62.29
180.184	44.2
180.404	-2.9
180.624	85.16
180.844	-31.57
181.064	-43.86
181.283	66.73
181.503	17.58
181.723	-41.81
181.943	-56.15
182.163	29.87
182.383	27.82
182.602	50.35
182.822	48.3
183.042	15.53
183.262	-2.9
183.482	44.2
183.701	64.68
183.921	33.96
184.141	25.77
184.361	42.15
184.58	27.82
184.8	-9.05
185.02	1.19
185.239	15.53
185.459	13.48
185.679	-25.43
185.898	1.19
186.118	21.67
186.338	-54.1
186.557	7.34
186.777	-72.53
186.997	-50
187.216	-60.24
187.436	44.2
187.655	-4.95
187.875	-21.33
188.095	27.82
188.314	68.78
188.534	-7
188.753	52.39
188.973	23.72
189.192	-27.48
189.412	38.06
189.631	-41.81
189.851	23.72
190.07	29.87
190.29	31.91
190.509	-82.77
190.729	15.53
190.948	-15.19
191.168	99.5
191.387	1.19
191.607	-84.82
191.826	58.54
192.045	-54.1
192.265	13.48
192.484	-90.96
192.704	33.96
192.923	-27.48
193.142	70.83
193.362	9.39
193.581	68.78
193.8	101.55
194.02	38.06
194.239	-29.52
194.458	91.31
194.678	-11.09
194.897	-41.81
195.116	62.63
195.335	-27.48
195.555	3.24
195.774	31.91
195.993	-29.52
196.212	85.16
196.432	-4.95
196.651	13.48
196.87	81.07
197.089	95.4
197.308	-2.9
197.528	9.39
197.747	-33.62
197.966	11.43
198.185	85.16
198.404	7.34
198.623	-4.95
198.842	60.59
199.062	15.53
199.281	-7
199.5	5.29
199.719	52.39
199.938	72.87
200.157	56.49
200.376	62.63
200.595	-31.57
200.814	-15.19
201.033	-11.09
201.252	58.54
201.471	7.34
201.69	64.68
201.909	76.97
202.128	54.44
202.347	56.49
202.566	52.39
202.785	-11.09
203.004	5.29
203.223	64.68
203.442	42.15
203.661	27.82
203.879	36.01
204.098	115.88
204.317	21.67
204.536	25.77
204.755	-43.86
204.974	-19.29
205.193	44.2
205.411	-23.38
205.63	124.07
205.849	7.34
206.068	70.83
206.287	29.87
206.505	44.2
206.724	72.87
206.943	-29.52
207.162	42.15
207.381	46.25
207.599	-11.09
207.818	15.53
208.037	56.49
208.255	-27.48
208.474	17.58
208.693	-35.67
208.911	-7
209.13	29.87
209.349	-4.95
209.567	-37.72
209.786	66.73
210.005	58.54
210.223	17.58
210.442	-15.19
210.661	13.48
210.879	36.01
211.098	3.24
211.316	68.78
211.535	-41.81
211.753	-9.05
211.972	23.72
212.191	-11.09
212.409	5.29
212.628	-17.24
212.846	-17.24
213.065	31.91
213.283	27.82
213.502	-45.91
213.72	17.58
213.938	29.87
214.157	19.63
214.375	62.63
214.594	-27.48
214.812	-43.86
215.031	-13.14
215.249	-35.67
215.467	-23.38
215.686	-23.38
215.904	81.07
216.122	-13.14
216.341	48.3
216.559	81.07
216.778	58.54
216.996	89.26
217.214	-64.34
217.432	66.73
217.651	48.3
217.869	13.48
218.087	13.48
218.306	103.59
218.524	-43.86
218.742	-27.48
218.96	56.49
219.179	15.53
219.397	-52.05
219.615	107.69
219.833	-35.67
220.051	-82.77
220.27	113.83
220.488	-50
220.706	-70.48
220.924	-21.33
221.142	52.39
221.36	42.15
221.578	13.48
221.796	-31.57
222.015	1.19
222.233	-19.29
222.451	91.31
222.669	7.34
222.887	21.67
223.105	15.53
223.323	17.58
223.541	-37.72
223.759	13.48
223.977	-2.9
224.195	33.96
224.413	27.82
224.631	29.87
224.849	29.87
225.067	33.96
225.285	36.01
225.503	21.67
225.721	19.63
225.939	-13.14
226.157	-23.38
226.375	60.59
226.592	81.07
226.81	5.29
227.028	74.92
227.246	3.24
227.464	29.87
227.682	23.72
227.9	-15.19
228.117	66.73
228.335	-9.05
228.553	11.43
228.771	23.72
228.989	44.2
229.206	15.53
229.424	23.72
229.642	56.49
229.86	-17.24
230.077	48.3
230.295	-35.67
230.513	64.68
230.731	-39.76
230.948	17.58
231.166	50.35
231.384	11.43
231.601	-27.48
231.819	58.54
232.037	-29.52
232.254	-33.62
232.472	-54.1
232.689	38.06
232.907	38.06
233.125	-11.09
233.342	1.19
233.56	-39.76
233.777	-13.14
233.995	46.25
234.213	93.35
234.43	-29.52
234.648	60.59
234.865	13.48
235.083	79.02
235.3	31.91
235.518	60.59
235.735	17.58
235.953	9.39
236.17	46.25
236.388	31.91
236.605	-41.81
236.822	-0.85
237.04	38.06
237.257	99.5
237.475	17.58
237.692	21.67
237.909	58.54
238.127	1.19
238.344	27.82
238.562	15.53
238.779	5.29
238.996	66.73
239.214	42.15
239.431	42.15
239.648	21.67
239.865	44.2
240.083	38.06
240.3	62.63
240.517	54.44
240.735	27.82
240.952	29.87
241.169	-21.33
241.386	-15.19
241.603	-13.14
241.821	-35.67
242.038	5.29
242.255	56.49
242.472	21.67
242.689	87.21
242.907	46.25
243.124	-9.05
243.341	23.72
243.558	-27.48
243.775	-19.29
243.992	58.54
244.209	107.69
244.426	27.82
244.643	42.15
244.86	-72.53
245.078	-13.14
245.295	44.2
245.512	87.21
245.729	62.63
245.946	40.11
246.163	-0.85
246.38	46.25
246.597	-7
246.814	-0.85
247.031	70.83
247.248	13.48
247.464	-11.09
247.681	52.39
247.898	-4.95
248.115	-4.95
248.332	1.19
248.549	142.5
248.766	36.01
248.983	29.87
249.2	-39.76
249.417	56.49
249.633	60.59
249.85	-2.9
250.067	38.06
250.284	93.35
250.501	91.31
250.717	-13.14
250.934	3.24
251.151	-41.81
251.368	48.3
251.585	21.67
251.801	-52.05
252.018	44.2
252.235	25.77
252.451	5.29
252.668	-31.57
252.885	48.3
253.102	89.26
253.318	1.19
253.535	13.48
253.752	74.92
253.968	-17.24
254.185	66.73
254.401	17.58
254.618	7.34
254.835	25.77
255.051	93.35
255.268	-31.57
255.484	3.24
255.701	15.53
255.917	-4.95
256.134	-21.33
256.351	19.63
256.567	-0.85
256.784	19.63
257	13.48
257.217	11.43
257.433	13.48
257.65	5.29
257.866	9.39
258.082	66.73
258.299	-9.05
258.515	36.01
258.732	5.29
258.948	40.11
259.165	21.67
259.381	46.25
259.597	68.78
259.814	31.91
260.03	27.82
260.246	93.35
260.463	27.82
260.679	-11.09
260.895	36.01
261.112	56.49
261.328	76.97
261.544	46.25
261.761	21.67
261.977	-13.14
262.193	9.39
262.409	17.58
262.626	-15.19
262.842	48.3
263.058	-0.85
263.274	15.53
263.49	62.63
263.707	109.74
263.923	17.58
264.139	19.63
264.355	5.29
264.571	46.25
264.787	60.59
265.004	-19.29
265.22	3.24
265.436	42.15
265.652	58.54
265.868	48.3
266.084	29.87
266.3	68.78
266.516	60.59
266.732	60.59
266.948	29.87
267.164	-0.85
267.38	-2.9
267.596	38.06
267.812	48.3
268.028	44.2
268.244	-2.9
268.46	60.59
268.676	64.68
268.892	-4.95
269.108	-2.9
269.324	-25.43
269.54	83.11
269.756	83.11
269.972	-25.43
270.188	13.48
270.403	3.24
270.619	72.87
270.835	-43.86
271.051	48.3
271.267	66.73
271.483	46.25
271.698	-0.85
271.914	-11.09
272.13	5.29
272.346	38.06
272.562	15.53
272.777	15.53
272.993	5.29
273.209	52.39
273.425	13.48
273.64	1.19
273.856	36.01
274.072	29.87
274.287	44.2
274.503	79.02
274.719	83.11
274.934	54.44
275.15	27.82
275.366	17.58
275.581	-54.1
275.797	33.96
276.012	46.25
276.228	33.96
276.444	33.96
276.659	1.19
276.875	44.2
277.09	44.2
277.306	21.67
277.521	74.92
277.737	-45.91
277.952	99.5
278.168	58.54
278.383	5.29
278.599	7.34
278.814	101.55
279.03	52.39
279.245	50.35
279.461	-29.52
279.676	-9.05
279.892	25.77
280.107	-11.09
280.322	-15.19
280.538	52.39
280.753	-25.43
280.969	-4.95
281.184	60.59
281.399	13.48
281.615	60.59
281.83	58.54
282.045	21.67
282.26	-37.72
282.476	19.63
282.691	70.83
282.906	48.3
283.122	48.3
283.337	9.39
283.552	44.2
283.767	-27.48
283.983	72.87
284.198	-9.05
284.413	122.02
284.628	113.83
284.843	54.44
285.058	29.87
285.274	62.63
285.489	31.91
285.704	64.68
285.919	-41.81
286.134	46.25
286.349	-25.43
286.564	-19.29
286.779	-23.38
286.995	81.07
287.21	74.92
287.425	-2.9
287.64	-27.48
287.855	72.87
288.07	25.77
288.285	27.82
288.5	36.01
288.715	81.07
288.93	-11.09
289.145	54.44
289.36	-15.19
289.575	11.43
289.79	74.92
290.004	48.3
290.219	42.15
290.434	-41.81
290.649	-17.24
290.864	-23.38
291.079	7.34
291.294	74.92
291.509	-15.19
291.724	38.06
291.938	-29.52
292.153	62.63
292.368	-78.68
292.583	97.45
292.798	95.4
293.012	-31.57
293.227	1.19
293.442	-2.9
293.657	23.72
293.871	7.34
294.086	-0.85
294.301	11.43
294.516	38.06
294.73	42.15
294.945	-4.95
295.16	70.83
295.374	83.11
295.589	-11.09
295.804	13.48
296.018	23.72
296.233	-43.86
296.447	91.31
296.662	-47.96
296.877	11.43
297.091	93.35
297.306	11.43
297.52	60.59
297.735	89.26
297.949	27.82
298.164	50.35
298.378	113.83
298.593	-9.05
298.807	-25.43
299.022	58.54
299.236	-0.85
299.451	-27.48
299.665	25.77
299.88	21.67
300.094	11.43
300.309	21.67
300.523	52.39
300.737	7.34
300.952	64.68
301.166	-47.96
301.381	-4.95
301.595	31.91
301.809	-27.48
302.024	54.44
302.238	31.91
302.452	60.59
302.667	-58.2
302.881	115.88
303.095	36.01
303.309	21.67
303.524	38.06
303.738	-4.95
303.952	15.53
304.166	-2.9
304.381	-31.57
304.595	46.25
304.809	5.29
305.023	50.35
305.237	1.19
305.452	3.24
305.666	60.59
305.88	-19.29
306.094	11.43
306.308	9.39
306.522	-0.85
306.736	-25.43
306.95	46.25
307.164	40.11
307.379	-66.39
307.593	101.55
307.807	-27.48
308.021	107.69
308.235	74.92
308.449	-27.48
308.663	5.29
308.877	64.68
309.091	-2.9
309.305	-4.95
309.519	-11.09
309.733	40.11
309.947	38.06
310.161	103.59
310.374	38.06
310.588	79.02
310.802	66.73
311.016	9.39
311.23	66.73
311.444	29.87
311.658	33.96
311.872	-4.95
312.085	15.53
312.299	25.77
312.513	17.58
312.727	40.11
312.941	11.43
313.154	60.59
313.368	111.78
313.582	9.39
313.796	54.44
314.009	5.29
314.223	3.24
314.437	66.73
314.651	60.59
314.864	62.63
315.078	-31.57
315.292	-19.29
315.505	62.63
315.719	48.3
315.933	89.26
316.146	1.19
316.36	19.63
316.573	58.54
316.787	62.63
317.001	-35.67
317.214	50.35
317.428	3.24
317.641	33.96
317.855	-17.24
318.068	56.49
318.282	64.68
318.495	50.35
318.709	42.15
318.922	-9.05
319.136	36.01
319.349	64.68
319.563	19.63
319.776	48.3
319.99	46.25
320.203	3.24
320.417	15.53
320.63	1.19
320.843	95.4
321.057	-19.29
321.27	-45.91
321.483	76.97
321.697	83.11
321.91	52.39
322.124	36.01
322.337	91.31
322.55	5.29
322.763	33.96
322.977	91.31
323.19	-64.34
323.403	111.78
323.617	5.29
323.83	29.87
324.043	-25.43
324.256	52.39
324.469	19.63
324.683	-11.09
324.896	11.43
325.109	25.77
325.322	-9.05
325.535	19.63
325.748	54.44
325.962	33.96
326.175	15.53
326.388	62.63
326.601	21.67
326.814	21.67
327.027	46.25
327.24	60.59
327.453	85.16
327.666	85.16
327.879	44.2
328.092	33.96
328.305	-4.95
328.518	-11.09
328.731	44.2
328.944	21.67
329.157	5.29
329.37	-2.9
329.583	27.82
329.796	122.02
330.009	48.3
330.222	72.87
330.435	36.01
330.648	54.44
330.861	66.73
331.073	91.31
331.286	38.06
331.499	31.91
331.712	1.19
331.925	33.96
332.138	13.48
332.35	56.49
332.563	87.21
332.776	81.07
332.989	60.59
333.202	79.02
333.414	54.44
333.627	1.19
333.84	68.78
334.053	42.15
334.265	27.82
334.478	13.48
334.691	42.15
334.903	-0.85
335.116	19.63
335.329	81.07
335.541	23.72
335.754	56.49
335.966	-13.14
336.179	-21.33
336.392	-9.05
336.604	25.77
336.817	29.87
337.029	33.96
337.242	-9.05
337.454	17.58
337.667	11.43
337.88	68.78
338.092	17.58
338.305	52.39
338.517	-29.52
338.729	50.35
338.942	-0.85
339.154	7.34
339.367	-15.19
339.579	-11.09
339.792	5.29
340.004	3.24
340.217	19.63
340.429	60.59
340.641	-33.62
340.854	68.78
341.066	15.53
341.278	46.25
341.491	46.25
341.703	56.49
341.915	1.19
342.128	23.72
342.34	3.24
342.552	1.19
342.764	56.49
342.977	9.39
343.189	117.93
343.401	54.44
343.613	19.63
343.826	-17.24
344.038	13.48
344.25	89.26
344.462	17.58
344.674	13.48
344.886	3.24
345.099	33.96
345.311	29.87
345.523	29.87
345.735	44.2
345.947	48.3
346.159	85.16
346.371	95.4
346.583	19.63
346.795	119.98
347.007	-0.85
347.219	19.63
347.431	9.39
347.643	83.11
347.855	11.43
348.067	95.4
348.279	44.2
348.491	25.77
348.703	40.11
348.915	9.39
349.127	46.25
349.339	21.67
349.551	-4.95
349.763	17.58
349.975	66.73
350.187	89.26
350.399	36.01
350.61	68.78
350.822	1.19
351.034	40.11
351.246	64.68
351.458	40.11
351.669	54.44
351.881	54.44
352.093	13.48
352.305	60.59
352.517	52.39
352.728	33.96
352.94	36.01
353.152	72.87
353.363	81.07
353.575	-11.09
353.787	-13.14
353.999	87.21
354.21	72.87
354.422	23.72
354.633	19.63
354.845	9.39
355.057	52.39
355.268	91.31
355.48	85.16
355.692	-43.86
355.903	52.39
356.115	38.06
356.326	52.39
356.538	54.44
356.749	74.92
356.961	-4.95
357.172	31.91
357.384	19.63
357.595	76.97
357.807	46.25
358.018	64.68
358.23	68.78
358.441	103.59
358.653	5.29
358.864	1.19
359.075	38.06
359.287	29.87
359.498	21.67
359.709	70.83
359.921	-4.95
360.132	-11.09
360.344	-17.24
360.555	1.19
360.766	1.19
360.977	-31.57
361.189	36.01
361.4	36.01
361.611	17.58
361.823	23.72
362.034	79.02
362.245	-15.19
362.456	33.96
362.667	17.58
362.879	126.12
363.09	25.77
363.301	97.45
363.512	74.92
363.723	70.83
363.935	5.29
364.146	66.73
364.357	46.25
364.568	31.91
364.779	19.63
364.99	70.83
365.201	29.87
365.412	42.15
365.623	-29.52
365.834	64.68
366.045	33.96
366.256	81.07
366.467	44.2
366.678	31.91
366.889	19.63
367.1	79.02
367.311	105.64
367.522	-23.38
367.733	64.68
367.944	81.07
368.155	40.11
368.366	-43.86
368.577	85.16
368.788	74.92
368.999	-13.14
369.209	40.11
369.42	74.92
369.631	7.34
369.842	19.63
370.053	17.58
370.264	74.92
370.474	-2.9
370.685	38.06
370.896	68.78
371.107	36.01
371.317	44.2
371.528	-33.62
371.739	62.63
371.95	15.53
372.16	29.87
372.371	-4.95
372.582	64.68
372.792	11.43
373.003	50.35
373.214	107.69
373.424	122.02
373.635	17.58
373.846	81.07
374.056	58.54
374.267	42.15
374.477	44.2
374.688	62.63
374.898	3.24
375.109	-4.95
375.319	87.21
375.53	46.25
375.74	23.72
375.951	54.44
376.161	11.43
376.372	58.54
376.582	46.25
376.793	17.58
377.003	-13.14
377.214	50.35
377.424	76.97
377.635	107.69
377.845	29.87
378.055	-0.85
378.266	38.06
378.476	87.21
378.686	-4.95
378.897	91.31
379.107	48.3
379.317	93.35
379.528	1.19
379.738	87.21
379.948	91.31
380.158	56.49
380.369	50.35
380.579	54.44
380.789	122.02
380.999	79.02
381.21	23.72
381.42	58.54
381.63	25.77
381.84	40.11
382.05	29.87
382.261	50.35
382.471	19.63
382.681	15.53
382.891	111.78
383.101	31.91
383.311	9.39
383.521	-19.29
383.731	15.53
383.941	103.59
384.151	56.49
384.361	44.2
384.571	-2.9
384.781	21.67
384.991	40.11
385.201	50.35
385.411	19.63
385.621	3.24
385.831	40.11
386.041	50.35
386.251	103.59
386.461	38.06
386.671	40.11
386.881	124.07
387.091	56.49
387.301	31.91
387.511	46.25
387.72	-17.24
387.93	79.02
388.14	42.15
388.35	62.63
388.56	48.3
388.769	52.39
388.979	70.83
389.189	99.5
389.399	-0.85
389.609	111.78
389.818	19.63
390.028	-19.29
390.238	122.02
390.447	79.02
390.657	46.25
390.867	62.63
391.076	33.96
391.286	64.68
391.496	81.07
391.705	76.97
391.915	66.73
392.125	44.2
392.334	40.11
392.544	130.22
392.753	95.4
392.963	48.3
393.172	27.82
393.382	21.67
393.591	48.3
393.801	60.59
394.01	64.68
394.22	101.55
394.429	95.4
394.639	79.02
394.848	64.68
395.058	115.88
395.267	46.25
395.477	46.25
395.686	126.12
395.895	103.59
396.105	113.83
396.314	113.83
396.524	44.2
396.733	64.68
396.942	122.02
397.152	95.4
397.361	93.35
397.57	13.48
397.78	29.87
397.989	74.92
398.198	130.22
398.407	79.02
398.617	83.11
398.826	74.92
399.035	81.07
399.244	68.78
399.453	103.59
399.663	160.94
399.872	79.02
400.081	72.87
400.29	109.74
400.499	64.68
400.708	119.98
400.917	99.5
401.127	107.69
401.336	64.68
401.545	119.98
401.754	72.87
401.963	76.97
402.172	148.65
402.381	95.4
402.59	1.19
402.799	76.97
403.008	107.69
403.217	97.45
403.426	148.65
403.635	87.21
403.844	89.26
404.053	134.31
404.262	189.61
404.471	122.02
404.68	119.98
404.888	66.73
405.097	165.03
405.306	181.42
405.515	136.36
405.724	130.22
405.933	154.79
406.142	165.03
406.35	195.75
406.559	117.93
406.768	156.84
406.977	234.66
407.185	193.7
407.394	230.57
407.603	167.08
407.812	244.9
408.02	195.75
408.229	197.8
408.438	224.42
408.646	210.09
408.855	246.95
409.064	279.72
409.272	193.7
409.481	261.29
409.69	228.52
409.898	242.85
410.107	277.67
410.315	265.38
410.524	257.19
410.733	369.83
410.941	273.57
411.15	416.93
411.358	304.29
411.567	373.92
411.775	308.39
411.984	392.36
412.192	347.3
412.401	398.5
412.609	507.04
412.818	445.6
413.026	453.8
413.234	509.09
413.443	519.33
413.651	511.14
413.86	566.43
414.068	527.52
414.276	564.39
414.485	541.86
414.693	625.83
414.901	668.83
415.11	646.3
415.318	672.93
415.526	588.96
415.734	738.46
415.943	734.37
416.151	754.85
416.359	816.29
416.567	834.72
416.776	924.83
416.984	963.74
417.192	941.21
417.4	902.3
417.608	924.83
417.817	926.88
418.025	943.26
418.233	1002.65
418.441	1074.33
418.649	1103
418.857	1191.06
419.065	1236.12
419.273	1166.49
419.481	1272.98
419.689	1283.22
419.897	1402.01
420.105	1342.61
420.313	1449.11
420.521	1442.96
420.729	1488.02
420.937	1590.42
421.145	1686.67
421.353	1666.19
421.561	1729.68
421.769	1877.13
421.977	1891.47
422.185	1846.41
422.393	1993.87
422.601	2088.07
422.809	2092.17
423.017	2163.85
423.224	2348.17
423.432	2323.59
423.64	2335.88
423.848	2600.07
424.056	2454.66
424.263	2694.27
424.471	2647.17
424.679	2694.27
424.887	2899.07
425.094	2937.98
425.302	2944.13
425.51	3046.52
425.718	3210.36
425.925	3239.03
426.133	3421.3
426.341	3595.38
426.548	3714.16
426.756	3728.5
426.964	3808.37
427.171	3974.25
427.379	3968.11
427.586	4068.46
427.794	4244.59
428.001	4394.09
428.209	4652.13
428.417	4473.96
428.624	4963.42
428.832	4908.13
429.039	4779.11
429.247	4803.68
429.454	5268.57
429.662	5608.53
429.869	5416.02
430.076	5774.42
430.284	5528.66
430.491	5719.12
430.699	6184.01
430.906	6177.87
431.114	6052.94
431.321	6521.93
431.528	6702.15
431.736	7001.15
431.943	7154.75
432.15	7042.11
432.358	7216.19
432.565	7603.25
432.772	7461.94
432.979	8072.24
433.187	8105.01
433.394	8055.86
433.601	8594.47
433.808	8721.45
434.016	8426.54
434.223	9018.4
434.43	9487.39
434.637	9380.89
434.844	10034.19
435.052	10222.61
435.259	10146.83
435.466	10114.06
435.673	10146.83
435.88	10773.51
436.087	11187.2
436.294	11322.37
436.501	10966.02
436.708	11322.37
436.915	11422.72
437.122	12202.99
437.329	12266.48
437.537	12549.1
437.743	12858.34
437.95	12674.03
438.157	13374.43
438.364	14130.13
438.571	13761.5
438.778	13855.7
438.985	15139.78
439.192	14451.66
439.399	14949.32
439.606	14339.02
439.813	15371.2
440.02	16518.06
440.227	16047.03
440.433	16040.89
440.64	16401.33
440.847	16372.66
441.054	16825.26
441.261	18140.05
441.467	17619.87
441.674	18029.46
441.881	18695.05
442.088	18594.7
442.294	18516.88
442.501	18832.27
442.708	19211.14
442.914	20003.71
443.121	21173.1
443.328	20468.59
443.534	22111.07
443.741	21236.58
443.948	20808.56
444.154	22459.22
444.361	22418.26
444.568	22297.43
444.774	22424.4
444.981	22561.62
445.187	23298.89
445.394	24931.12
445.6	24066.88
445.807	26538.77
446.013	25334.57
446.22	25709.35
446.426	26639.12
446.633	26907.41
446.839	27679.49
447.046	26620.69
447.252	28306.17
447.459	28302.07
447.665	28123.9
447.871	29299.44
448.078	30444.25
448.284	29223.66
448.491	30083.81
448.697	31212.24
448.903	31433.42
449.11	31408.84
449.316	31425.23
449.522	32113.34
449.728	32455.36
449.935	32654.01
450.141	32674.49
450.347	33637.03
450.553	32512.7
450.76	32826.04
450.966	34114.21
451.172	33899.17
451.378	34476.7
451.584	34056.87
451.791	34820.76
451.997	34572.96
452.203	35095.19
452.409	35005.08
452.615	34990.74
452.821	33766.06
453.027	33565.35
453.233	35007.12
453.44	33903.27
453.646	34060.96
453.852	34185.89
454.058	35007.12
454.264	33561.26
454.47	34450.08
454.676	33651.37
454.882	34642.59
455.088	31730.37
455.294	32025.28
455.5	32791.22
455.705	33036.98
455.911	31883.97
456.117	30958.29
456.323	30491.35
456.529	29053.68
456.735	30302.94
456.941	29620.97
457.147	29186.8
457.352	28062.46
457.558	28119.81
457.764	27876.1
457.97	27439.88
458.176	26977.04
458.381	26888.98
458.587	25652
458.793	25578.28
458.999	24183.61
459.204	25908
459.41	25273.13
459.616	23403.33
459.821	23796.54
460.027	23608.13
460.233	22977.36
460.438	21949.28
460.644	22225.75
460.85	21302.12
461.055	21013.35
461.261	20501.36
461.466	19209.09
461.672	18412.43
461.878	19819.39
462.083	18650
462.289	18428.82
462.494	18150.29
462.7	17355.68
462.905	16866.22
463.111	17355.68
463.316	17351.59
463.522	17073.06
463.727	16948.14
463.932	17060.77
464.138	16929.7
464.343	17238.95
464.549	16595.89
464.754	16919.46
464.959	16886.7
465.165	16487.34
465.37	15989.69
465.575	15346.62
465.781	16122.8
465.986	16290.74
466.191	15858.62
466.397	15543.23
466.602	14635.98
466.807	15152.07
467.012	15260.61
467.218	15152.07
467.423	14812.1
467.628	15223.75
467.833	15524.8
468.038	14795.72
468.244	14932.93
468.449	15229.89
468.654	14971.85
468.859	14580.68
469.064	14558.16
469.269	14117.84
469.474	13960.15
469.679	14453.71
469.885	14087.12
470.09	14289.87
470.295	14134.23
470.5	13702.11
470.705	13722.59
470.91	13614.04
471.115	13491.16
471.32	13632.47
471.525	13534.17
471.73	13290.46
471.935	12962.79
472.139	12794.86
472.344	12921.83
472.549	12727.27
472.754	12665.83
472.959	12512.24
473.164	11979.76
473.369	12006.39
473.574	12432.36
473.778	12262.38
473.983	12137.46
474.188	12121.07
474.393	11330.56
474.598	11584.51
474.802	11652.09
475.007	11230.21
475.212	11525.11
475.417	11025.41
475.621	11037.7
475.826	11080.71
476.031	10808.33
476.235	10492.94
476.44	10798.09
476.645	10761.22
476.849	10509.32
477.054	10355.72
477.259	10142.74
477.463	10404.88
477.668	10066.96
477.872	10167.31
478.077	10169.36
478.282	9903.12
478.486	9729.05
478.691	9530.39
478.895	9763.86
479.1	9438.23
479.304	9565.21
479.509	9100.32
479.713	9481.24
479.918	9298.97
480.122	9143.33
480.326	9194.53
480.531	9159.71
480.735	8944.67
480.94	8795.17
481.144	9434.14
481.348	8834.08
481.553	9124.9
481.757	8776.74
481.961	8944.67
482.166	8995.87
482.37	8965.15
482.574	8754.21
482.778	8875.04
482.983	9094.18
483.187	8834.08
483.391	8950.82
483.595	8815.65
483.8	8778.79
484.004	8713.25
484.208	8803.36
484.412	8764.45
484.616	8971.3
484.821	8864.8
485.025	8457.26
485.229	8954.91
485.433	8866.85
485.637	8813.6
485.841	8918.05
486.045	8903.71
486.249	8793.12
486.453	8875.04
486.657	8813.6
486.861	8713.25
487.065	8563.75
487.269	8803.36
487.473	8688.68
487.677	8887.33
487.881	9038.88
488.085	8737.83
488.289	8909.86
488.493	8643.62
488.697	8948.77
488.901	8762.4
489.105	8750.12
489.309	8995.87
489.512	8922.15
489.716	8840.23
489.92	8766.5
490.124	8981.54
490.328	9102.37
490.531	8911.91
490.735	8928.29
490.939	9042.98
491.143	9020.45
491.346	8961.06
491.55	9260.06
491.754	9126.94
491.958	9288.73
492.161	9210.91
492.365	9335.84
492.569	9120.8
492.772	9106.46
492.976	9376.8
493.18	9411.61
493.383	9380.89
493.587	9481.24
493.79	9659.42
493.994	9481.24
494.197	9593.88
494.401	9767.96
494.605	9690.13
494.808	9896.98
495.012	10066.96
495.215	9972.75
495.419	10087.44
495.622	10214.41
495.825	10136.59
496.029	10021.91
496.232	10359.82
496.436	10222.61
496.639	10744.84
496.843	10312.72
497.046	10697.74
497.249	10820.61
497.453	10902.53
497.656	11039.75
497.859	10982.4
498.063	11215.87
498.266	11326.46
498.469	11367.42
498.673	11326.46
498.876	11637.75
499.079	11467.77
499.282	11791.35
499.485	12002.29
499.689	11914.23
499.892	12135.41
500.095	12463.08
500.298	12504.04
500.501	12227.57
500.705	12829.67
500.908	12917.73
501.111	13081.57
501.314	13300.7
501.517	13222.88
501.72	13497.31
501.923	13450.21
502.126	13824.98
502.329	13917.14
502.532	14021.59
502.735	13800.41
502.938	14490.57
503.141	14455.76
503.344	14631.88
503.547	14463.95
503.75	14906.31
503.953	14855.11
504.156	15207.36
504.359	15358.91
504.562	15293.38
504.765	15733.69
504.968	15727.55
505.17	16077.75
505.373	16214.96
505.576	16292.79
505.779	16589.74
505.982	16649.13
506.185	16853.93
506.387	17144.74
506.59	17083.3
506.793	17492.9
506.996	17583.01
507.198	17761.18
507.401	17841.05
507.604	18051.99
507.807	18269.08
508.009	18623.37
508.212	18613.13
508.415	19045.26
508.617	19229.57
508.82	18889.61
509.022	18912.14
509.225	19555.2
509.428	19690.37
509.63	19583.87
509.833	19669.89
510.035	20214.65
510.238	20460.4
510.44	20564.85
510.643	20669.3
510.845	21097.32
511.048	20888.43
511.25	21060.46
511.453	21150.57
511.655	21926.75
511.858	21953.37
512.06	21859.17
512.262	22164.31
512.465	22178.65
512.667	22416.21
512.87	22999.88
513.072	22874.96
513.274	23391.05
513.477	23370.57
513.679	23505.73
513.881	23761.73
514.084	23751.49
514.286	24126.27
514.488	24167.23
514.69	24734.51
514.893	25058.09
515.095	25211.69
515.297	25281.32
515.499	25447.21
515.701	25764.64
515.904	25807.65
516.106	26397.46
516.308	26172.19
516.51	26534.68
516.712	26434.33
516.914	26762
517.116	27114.25
517.318	27296.52
517.52	27454.22
517.722	27308.81
517.925	28068.61
518.127	28138.24
518.329	28351.23
518.531	28279.55
518.733	28746.48
518.935	29194.99
519.136	28889.84
519.338	29526.76
519.54	29352.68
519.742	29434.6
519.944	29752.04
520.146	30366.43
520.348	30137.05
520.55	30241.5
520.752	30804.69
520.954	31195.85
521.155	30599.9
521.357	31001.3
521.559	31486.67
521.761	32219.84
521.963	31961.79
522.164	32322.24
522.366	32299.71
522.568	32479.93
522.77	32481.98
522.971	32869.05
523.173	32576.19
523.375	32873.14
523.576	33053.36
523.778	33153.71
523.98	33553.07
524.181	33491.63
524.383	33721
524.584	34286.24
524.786	34237.09
524.988	33942.18
525.189	34718.36
525.391	34632.35
525.592	34708.12
525.794	34826.9
525.995	34859.67
526.197	34927.25
526.398	34501.28
526.6	35185.3
526.801	35451.53
527.003	35371.66
527.204	35572.36
527.406	35998.34
527.607	35605.13
527.808	36139.65
528.01	35652.23
528.211	35840.65
528.412	36520.57
528.614	36829.82
528.815	35969.67
529.016	36514.43
529.218	36215.43
529.419	36360.83
529.62	36457.09
529.822	36280.96
530.023	36600.44
530.224	36848.25
530.425	36751.99
530.626	36237.95
530.828	36369.02
531.029	37413.49
531.23	36805.24
531.431	36641.4
531.632	36997.75
531.833	36993.65
532.035	36881.02
532.236	37034.61
532.437	37468.78
532.638	36797.05
532.839	37272.18
533.04	37077.62
533.241	36948.6
533.442	37907.05
533.643	37112.44
533.844	37378.67
534.045	37220.98
534.246	36930.17
534.447	37382.77
534.648	37309.04
534.849	37401.2
535.05	36930.17
535.251	37300.85
535.451	37266.03
535.652	37429.87
535.853	37288.56
536.054	37298.8
536.255	37505.65
536.456	36932.22
536.657	37479.02
536.857	37255.79
537.058	37104.24
537.259	37345.9
537.46	37276.27
537.66	37046.9
537.861	37190.26
538.062	37048.95
538.263	37556.85
538.463	37075.57
538.664	36909.69
538.865	37411.44
539.065	37649
539.266	36768.38
539.466	37565.04
539.667	36766.33
539.868	37542.51
540.068	37163.64
540.269	36911.74
540.469	37173.88
540.67	36928.12
540.87	37075.57
541.071	36850.3
541.271	37534.32
541.472	36991.61
541.672	37001.85
541.873	36838.01
542.073	36641.4
542.274	37599.85
542.474	36917.88
542.675	36567.68
542.875	37487.21
543.075	36938.36
543.276	36919.93
543.476	37255.79
543.676	36883.06
543.877	36969.08
544.077	36684.41
544.277	36833.91
544.478	36973.17
544.678	36940.41
544.878	36981.37
545.078	36924.02
545.279	36801.15
545.479	36852.34
545.679	36741.75
545.879	36751.99
546.079	36758.14
546.28	36504.19
546.48	36518.53
546.68	36878.97
546.88	36868.73
547.08	36674.17
547.28	36563.58
547.48	36254.34
547.68	36915.83
547.88	36452.99
548.081	36825.72
548.281	36645.5
548.481	36838.01
548.681	36790.91
548.881	36315.78
549.081	36561.53
549.28	36301.44
549.48	36754.04
549.68	36469.37
549.88	36977.27
550.08	36360.83
550.28	36921.98
550.48	36121.22
550.68	36739.71
550.88	36395.65
551.08	36559.48
551.279	36567.68
551.479	36287.1
551.679	36264.58
551.879	36233.86
552.079	36792.95
552.278	36356.74
552.478	36366.98
552.678	36254.34
552.878	36549.24
553.077	36399.74
553.277	35816.07
553.477	36688.51
553.676	36366.98
553.876	36092.55
554.076	36037.25
554.275	36260.48
554.475	35877.51
554.674	36395.65
554.874	36414.08
555.074	35906.18
555.273	36174.47
555.473	36252.29
555.672	35715.72
555.872	36053.64
556.071	36209.28
556.271	36422.27
556.47	35701.39
556.67	35768.97
556.869	35750.54
557.068	35555.98
557.268	35658.38
557.467	36012.68
557.667	35930.76
557.866	35764.87
558.065	35670.67
558.265	35691.15
558.464	35527.31
558.663	35928.71
558.863	35109.52
559.062	36020.87
559.261	35318.42
559.461	35328.66
559.66	35130
559.859	35273.36
560.058	35093.14
560.258	35273.36
560.457	35287.7
560.656	35203.73
560.855	34910.87
561.054	35371.66
561.253	34712.22
561.453	35074.71
561.652	34994.84
561.851	34992.79
562.05	34794.14
562.249	34669.21
562.448	34896.53
562.647	34904.73
562.846	34273.95
563.045	34726.55
563.244	34390.69
563.443	34859.67
563.642	34398.88
563.841	34486.94
564.04	34421.41
564.239	34730.65
564.438	34179.75
564.637	34349.73
564.836	34046.63
565.035	34169.51
565.234	34220.7
565.432	34081.44
565.631	34417.31
565.83	34146.98
566.029	34292.38
566.228	34122.4
566.427	34189.98
566.625	33903.27
566.824	33522.35
567.023	33850.02
567.222	33061.55
567.42	33854.12
567.619	33817.25
567.818	33706.66
568.016	33319.6
568.215	33757.86
568.414	33327.79
568.612	33815.21
568.811	33004.21
569.01	33235.63
569.208	32754.36
569.407	33372.85
569.605	32785.08
569.804	33282.73
570.002	33030.83
570.201	32873.14
570.4	32815.8
570.598	32830.13
570.797	32524.99
570.995	32801.46
571.193	32283.33
571.392	32797.37
571.59	32156.35
571.789	32619.19
571.987	32086.72
572.186	32486.07
572.384	32314.05
572.582	32363.2
572.781	32379.58
572.979	31877.83
573.177	32209.6
573.376	32291.52
573.574	31924.93
573.772	31625.93
573.971	31501
574.169	31689.42
574.367	31255.25
574.565	31619.78
574.763	31394.51
574.962	31185.61
575.16	31320.78
575.358	31412.94
575.556	31101.65
575.754	31406.8
575.952	30974.67
576.151	31109.84
576.349	31023.83
576.547	30935.76
576.745	31070.93
576.943	31353.55
577.141	30411.48
577.339	30569.18
577.537	30618.33
577.735	30698.2
577.933	30624.47
578.131	30808.79
578.329	30591.7
578.527	30272.22
578.725	30143.2
578.923	30462.68
579.121	30038.75
579.319	30159.58
579.516	30503.64
579.714	29983.46
579.912	30044.9
580.11	30112.48
580.308	30024.42
580.506	29784.8
580.704	29375.21
580.901	29532.9
581.099	29862.63
581.297	29373.16
581.495	29352.68
581.692	29639.4
581.89	29080.3
582.088	29262.57
582.285	29002.48
582.483	29360.87
582.681	29192.94
582.878	29166.32
583.076	28738.29
583.274	28984.05
583.471	28504.82
583.669	28990.19
583.866	28467.96
584.064	28895.99
584.262	28240.64
584.459	28621.56
584.657	28691.19
584.854	28527.35
585.052	27867.91
585.249	28371.71
585.447	28445.43
585.644	27886.34
585.841	28070.65
586.039	28293.88
586.236	27534.09
586.434	27382.54
586.631	27673.35
586.828	27618.05
587.026	27552.52
587.223	27419.4
587.42	27429.64
587.618	27335.43
587.815	27097.87
588.012	27241.23
588.21	27167.5
588.407	27441.93
588.604	27317
588.801	26960.66
588.999	27288.33
589.196	26766.1
589.393	26827.54
589.59	26614.55
589.787	26428.18
589.984	26688.28
590.182	26223.39
590.379	26606.36
590.576	26051.36
590.773	26344.22
590.97	26180.38
591.167	25998.11
591.364	25955.1
591.561	25948.96
591.758	25596.71
591.955	25797.41
592.152	25953.05
592.349	25746.21
592.546	25858.85
592.743	25729.83
592.94	25447.21
593.137	25254.7
593.334	25582.37
593.531	24822.58
593.727	25105.2
593.924	25543.46
594.121	24990.51
594.318	25541.41
594.515	24484.66
594.712	25232.17
594.908	24826.67
595.105	24757.04
595.302	24675.12
595.499	25029.42
595.696	24568.63
595.892	24537.91
596.089	24798
596.286	24494.9
596.482	24482.61
596.679	24140.6
596.876	24128.31
597.072	24240.95
597.269	24081.21
597.466	23874.37
597.662	23989.05
597.859	23917.37
598.055	24068.92
598.252	23690.05
598.448	23712.58
598.645	23638.85
598.841	23401.29
599.038	23233.35
599.234	23421.77
599.431	23143.24
599.627	23038.8
599.824	23446.34
600.02	22985.55
600.217	23196.49
600.413	22885.2
600.609	22713.17
600.806	22827.85
601.002	22788.94
601.198	22567.76
601.395	22573.91
601.591	22555.47
601.787	22731.6
601.984	22297.43
602.18	22559.57
602.376	22342.49
602.572	22283.09
602.769	22322.01
602.965	22147.93
603.161	22059.87
603.357	21642.08
603.553	22006.62
603.75	22014.81
603.946	21738.33
604.142	22119.26
604.338	21666.66
604.534	21814.11
604.73	21443.43
604.926	21400.42
605.122	21554.02
605.318	21420.9
605.514	21109.61
605.71	21252.97
605.906	21318.5
606.102	21396.32
606.298	21306.21
606.494	20994.92
606.69	21164.9
606.886	21144.42
607.082	21025.64
607.278	21113.7
607.474	20654.96
607.67	20896.62
607.866	20364.15
608.062	20732.78
608.257	20697.97
608.453	20818.8
608.649	20712.3
608.845	20781.93
609.041	20493.17
609.236	20300.66
609.432	20321.14
609.628	20478.83
609.824	20566.9
610.019	20323.19
610.215	20253.56
610.411	20394.87
610.606	20368.24
610.802	20112.25
610.998	20214.65
611.193	20169.59
611.389	19794.81
611.584	19999.61
611.78	20120.44
611.976	20065.14
612.171	19899.26
612.367	19778.43
612.562	19620.74
612.758	19504
612.953	19692.41
613.149	19835.77
613.344	19551.1
613.539	19991.42
613.735	19698.56
613.93	19450.75
614.126	19456.9
614.321	19616.64
614.517	19403.65
614.712	19524.48
614.907	19397.51
615.103	19532.67
615.298	19256.2
615.493	19297.16
615.688	19245.96
615.884	19385.22
616.079	19065.74
616.274	19323.78
616.47	19037.06
616.665	19348.36
616.86	18994.06
617.055	19264.39
617.25	19137.41
617.445	19209.09
617.641	18520.98
617.836	19018.63
618.031	18674.57
618.226	18836.36
618.421	18518.93
618.616	18932.62
618.811	18369.43
619.006	18803.6
619.201	18111.38
619.396	18322.32
619.591	18201.49
619.786	18463.63
619.981	18006.94
620.176	18219.92
620.371	17961.88
620.566	18002.84
620.761	17726.36
620.956	18000.79
621.151	17685.4
621.346	17752.99
621.541	17163.17
621.735	17478.56
621.93	17314.72
622.125	17417.12
622.32	16898.98
622.515	17511.33
622.709	17081.25
622.904	17030.05
623.099	16878.51
623.294	17165.22
623.488	16497.58
623.683	16851.88
623.878	16280.5
624.072	16665.52
624.267	16489.39
624.462	16339.89
624.656	15920.06
624.851	16350.13
625.046	15979.45
625.24	16188.34
625.435	15721.4
625.629	15819.71
625.824	15801.27
626.018	15784.89
626.213	15657.92
626.407	15487.93
626.602	15291.33
626.796	15244.23
626.991	15455.17
627.185	15270.85
627.38	15080.39
627.574	14986.18
627.768	14969.8
627.963	14986.18
628.157	14760.91
628.352	14848.97
628.546	14613.45
628.74	14719.95
628.935	14570.44
629.129	14357.46
629.323	14148.56
629.517	14267.34
629.712	14431.18
629.906	14154.71
630.1	14013.4
630.294	14093.27
630.489	13841.37
630.683	13757.4
630.877	13646.81
631.071	13638.62
631.265	13794.26
631.459	13437.92
631.653	13495.26
631.848	13405.15
632.042	13415.39
632.236	13495.26
632.43	13077.48
632.624	13079.52
632.818	12991.46
633.012	12813.29
633.206	12868.58
633.4	12909.54
633.594	12663.79
633.788	12745.7
633.982	12878.82
634.176	12667.88
634.369	12241.9
634.563	12696.55
634.757	12258.29
634.951	12538.86
635.145	12434.41
635.339	12397.55
635.533	12098.55
635.726	12157.94
635.92	11932.66
636.114	12143.6
636.308	11781.11
636.501	11877.37
636.695	11807.73
636.889	11826.17
637.083	11879.41
637.276	11496.44
637.47	11682.81
637.664	11607.03
637.857	11418.62
638.051	11293.69
638.244	11328.51
638.438	11142.14
638.632	11297.79
638.825	11058.18
639.019	11146.24
639.212	11062.27
639.406	11209.73
639.599	11109.38
639.793	10974.21
639.986	10691.59
640.18	10937.35
640.373	10855.43
640.567	10613.77
640.76	10982.4
640.954	10480.65
641.147	10343.44
641.34	10701.83
641.534	10583.05
641.727	10247.18
641.92	10306.57
642.114	10284.05
642.307	10245.13
642.5	9999.38
642.694	10011.67
642.887	10062.87
643.08	9917.46
643.273	9958.42
643.467	9751.57
643.66	9948.18
643.853	9839.64
644.046	9673.75
644.239	9710.61
644.432	9655.32
644.626	9675.8
644.819	9534.49
645.012	9589.78
645.205	9501.72
645.398	9516.06
645.591	9458.71
645.784	9356.32
645.977	9159.71
646.17	9262.11
646.363	9184.29
646.556	9055.26
646.749	8916
646.942	8928.29
647.135	8879.14
647.328	9053.22
647.521	8725.54
647.714	8674.34
647.907	8987.68
648.099	8746.02
648.292	8885.28
648.485	8713.25
648.678	8420.39
648.871	8528.94
649.064	8748.07
649.256	8371.24
649.449	8512.55
649.642	8442.92
649.835	8201.26
650.027	8328.24
650.22	8250.41
650.413	8371.24
650.605	8182.83
650.798	8180.78
650.991	7980.08
651.183	8094.77
651.376	8027.18
651.568	7988.27
651.761	7914.55
651.954	7949.36
652.146	7820.34
652.339	7736.37
652.531	7871.54
652.724	7806
652.916	7552.06
653.109	7666.74
653.301	7771.19
653.494	7722.04
653.686	7494.71
653.879	7539.77
654.071	7318.59
654.263	7427.13
654.456	7431.23
654.648	7400.51
654.84	7242.81
655.033	7191.61
655.225	7150.65
655.417	7197.76
655.61	7160.89
655.802	7107.65
655.994	7089.21
656.186	6988.86
656.379	6929.47
656.571	6995.01
656.763	7001.15
656.955	6835.27
657.148	6915.14
657.34	6876.23
657.532	6732.87
657.724	6906.95
657.916	6767.68
658.108	6607.94
658.3	6683.72
658.492	6620.23
658.684	6530.12
658.876	6628.42
659.068	6743.11
659.26	6460.49
659.452	6493.26
659.644	6370.38
659.836	6216.78
660.028	6224.97
660.22	6263.88
660.412	6333.51
660.604	6317.13
660.796	6335.56
660.988	6130.77
661.18	6231.12
661.372	6007.89
661.563	6050.89
661.755	5956.69
661.947	6011.98
662.139	5891.15
662.331	5919.82
662.522	5975.12
662.714	5989.46
662.906	5792.85
663.097	6081.61
663.289	5737.56
663.481	5774.42
663.673	5708.88
663.864	5700.69
664.056	5766.23
664.247	5710.93
664.439	5745.75
664.631	5624.92
664.822	5475.42
665.014	5674.07
665.205	5549.14
665.397	5475.42
665.588	5518.42
665.78	5471.32
665.971	5581.91
666.163	5518.42
666.354	5389.4
666.546	5313.63
666.737	5375.06
666.929	5489.75
667.12	5405.78
667.311	5418.07
667.503	5385.3
667.694	5336.15
667.885	5225.56
668.077	5243.99
668.268	5190.75
668.459	5084.25
668.651	5106.78
668.842	4953.18
669.033	5039.2
669.224	5096.54
669.416	5035.1
669.607	4951.14
669.798	4936.8
669.989	4983.9
670.18	4996.19
670.371	4930.66
670.563	4799.59
670.754	4742.24
670.945	4881.5
671.136	4840.54
671.327	4828.26
671.518	4875.36
671.709	4758.63
671.9	4746.34
672.091	4791.39
672.282	4807.78
672.473	4721.76
672.664	4637.8
672.855	4709.47
673.046	4609.12
673.237	4740.19
673.428	4553.83
673.619	4547.69
673.809	4453.48
674	4594.79
674.191	4627.56
674.382	4537.45
674.573	4600.93
674.764	4570.21
674.954	4441.19
675.145	4418.66
675.336	4400.23
675.527	4349.03
675.717	4480.1
675.908	4408.42
676.099	4496.49
676.289	4275.31
676.48	4500.58
676.671	4256.87
676.861	4240.49
677.052	4254.83
677.243	4228.2
677.433	4136.04
677.624	4398.18
677.814	4129.9
678.005	4230.25
678.195	4246.63
678.386	4213.87
678.576	4047.98
678.767	4109.42
678.957	4113.52
679.148	4142.19
679.338	4019.31
679.529	4021.36
679.719	3970.16
679.909	4172.91
680.1	4254.83
680.29	4031.6
680.481	4138.09
680.671	4088.94
680.861	4103.28
681.052	4111.47
681.242	3736.69
681.432	4035.69
681.622	3941.49
681.813	4060.27
682.003	4015.21
682.193	3910.77
682.383	4099.18
682.573	3865.71
682.764	3900.53
682.954	3968.11
683.144	3753.07
683.334	3753.07
683.524	3796.08
683.714	3867.76
683.904	3818.61
684.094	3658.87
684.284	3847.28
684.474	3898.48
684.664	3759.22
684.854	3744.88
685.044	3751.03
685.234	3806.32
685.424	3605.62
685.614	3693.68
685.804	3751.03
685.994	3603.57
686.184	3714.16
686.374	3699.83
686.564	3636.34
686.753	3697.78
686.943	3425.4
687.133	3531.89
687.323	3556.47
687.513	3636.34
687.702	3648.63
687.892	3439.73
688.082	3652.72
688.272	3527.8
688.461	3538.04
688.651	3519.6
688.841	3441.78
689.03	3488.89
689.22	3390.58
689.41	3363.96
689.599	3273.85
689.789	3355.77
689.979	3253.37
690.168	3351.67
690.358	3267.7
690.547	3241.08
690.737	3241.08
690.926	3226.75
691.116	3124.35
691.305	3253.37
691.495	3228.79
691.684	3067
691.874	3245.18
692.063	3181.69
692.252	3107.96
692.442	3169.4
692.631	3120.25
692.82	3077.24
693.01	3171.45
693.199	2921.6
693.388	2991.23
693.578	2940.03
693.767	3071.1
693.956	3017.85
694.146	3062.91
694.335	2980.99
694.524	2798.72
694.713	2825.34
694.902	2845.82
695.092	3015.8
695.281	2901.12
695.47	2788.48
695.659	2843.78
695.848	2856.06
696.037	2757.76
696.226	2827.39
696.415	2702.47
696.604	2800.77
696.793	2784.38
696.982	2790.53
697.171	2800.77
697.36	2665.6
697.549	2724.99
697.738	2714.75
697.927	2753.66
698.116	2679.94
698.305	2679.94
698.494	2759.81
698.683	2550.92
698.872	2749.57
699.061	2575.49
699.25	2761.86
699.438	2518.15
699.627	2563.2
699.816	2669.7
700.005	2577.54
700.193	2454.66
700.382	2620.55
700.571	2485.38
700.76	2581.64
700.948	2573.44
701.137	2548.87
701.326	2573.44
701.514	2520.2
701.703	2516.1
701.892	2559.11
702.08	2546.82
702.269	2393.22
702.457	2485.38
702.646	2501.76
702.834	2483.33
703.023	2512
703.212	2512
703.4	2462.85
703.589	2559.11
703.777	2438.28
703.965	2378.89
704.154	2393.22
704.342	2489.48
704.531	2327.69
704.719	2399.37
704.907	2378.89
705.096	2385.03
705.284	2348.17
705.472	2516.1
705.661	2319.5
705.849	2380.93
706.037	2415.75
706.226	2385.03
706.414	2389.13
706.602	2268.3
706.79	2364.55
706.979	2337.93
707.167	2387.08
707.355	2370.69
707.543	2264.2
707.731	2288.78
707.919	2331.78
708.107	2288.78
708.296	2342.02
708.484	2309.26
708.672	2358.41
708.86	2370.69
709.048	2319.5
709.236	2247.82
709.424	2317.45
709.612	2315.4
709.8	2405.51
709.988	2317.45
710.176	2360.45
710.364	2270.34
710.551	2329.74
710.739	2276.49
710.927	2284.68
711.115	2268.3
711.303	2264.2
711.491	2206.86
711.679	2348.17
711.866	2284.68
712.054	2282.63
712.242	2188.43
712.43	2317.45
712.617	2112.65
712.805	2213
712.993	2235.53
713.181	2290.82
713.368	2249.86
713.556	2215.05
713.744	2247.82
713.931	2231.43
714.119	2286.73
714.306	2290.82
714.494	2280.58
714.682	2139.27
714.869	2264.2
715.057	2210.95
715.244	2180.23
715.432	2237.58
715.619	2165.9
715.807	2129.03
715.994	2133.13
716.182	2237.58
716.369	2210.95
716.556	2149.51
716.744	2184.33
716.931	2188.43
717.119	2233.48
717.306	2178.19
717.493	2174.09
717.681	2229.38
717.868	2182.28
718.055	2208.9
718.242	2221.19
718.43	2204.81
718.617	2180.23
718.804	2149.51
718.991	2196.62
719.179	2247.82
719.366	2223.24
719.553	2286.73
719.74	2145.42
719.927	2221.19
720.114	2118.79
720.301	2204.81
720.488	2237.58
720.676	2284.68
720.863	2223.24
721.05	2290.82
721.237	2165.9
721.424	2133.13
721.611	2241.67
721.798	2110.6
721.985	2204.81
722.172	2213
722.358	2145.42
722.545	2161.8
722.732	2032.78
722.919	2264.2
723.106	2237.58
723.293	2088.07
723.48	2213
723.667	2202.76
723.853	2163.85
724.04	2237.58
724.227	2245.77
724.414	2319.5
724.6	2143.37
724.787	2225.29
724.974	2239.62
725.161	2077.83
725.347	2141.32
725.534	2126.99
725.72	2305.16
725.907	2188.43
726.094	2247.82
726.28	2153.61
726.467	2188.43
726.653	2221.19
726.84	2225.29
727.027	2337.93
727.213	2188.43
727.4	2360.45
727.586	2174.09
727.773	2327.69
727.959	2229.38
728.145	2274.44
728.332	2282.63
728.518	2278.54
728.705	2305.16
728.891	2266.25
729.077	2210.95
729.264	2247.82
729.45	2321.54
729.636	2352.26
729.823	2241.67
730.009	2305.16
730.195	2264.2
730.382	2376.84
730.568	2262.15
730.754	2133.13
730.94	2202.76
731.126	2358.41
731.313	2294.92
731.499	2282.63
731.685	2325.64
731.871	2309.26
732.057	2217.1
732.243	2296.97
732.429	2163.85
732.615	2245.77
732.801	2339.97
732.987	2311.3
733.173	2288.78
733.359	2247.82
733.545	2202.76
733.731	2253.96
733.917	2280.58
734.103	2333.83
734.289	2305.16
734.475	2213
734.661	2307.21
734.847	2303.11
735.033	2305.16
735.219	2219.14
735.404	2337.93
735.59	2337.93
735.776	2329.74
735.962	2415.75
736.148	2333.83
736.333	2382.98
736.519	2227.34
736.705	2387.08
736.89	2389.13
737.076	2342.02
737.262	2247.82
737.447	2159.75
737.633	2231.43
737.819	2206.86
738.004	2346.12
738.19	2180.23
738.375	2290.82
738.561	2319.5
738.747	2358.41
738.932	2213
739.118	2339.97
739.303	2221.19
739.489	2327.69
739.674	2219.14
739.859	2237.58
740.045	2247.82
740.23	2223.24
740.416	2176.14
740.601	2225.29
740.786	2200.71
740.972	2350.21
741.157	2284.68
741.342	2235.53
741.528	2270.34
741.713	2239.62
741.898	2202.76
742.084	2206.86
742.269	2296.97
742.454	2196.62
742.639	2307.21
742.824	2141.32
743.01	2190.47
743.195	2153.61
743.38	2268.3
743.565	2141.32
743.75	2186.38
743.935	2149.51
744.12	2292.87
744.305	2157.71
744.49	2147.47
744.675	2122.89
744.86	2206.86
745.045	2120.84
745.23	2153.61
745.415	2149.51
745.6	2100.36
745.785	2045.07
745.97	2106.51
746.155	2098.31
746.34	2081.93
746.525	2083.98
746.71	2051.21
746.895	2012.3
747.079	1957
747.264	2061.45
747.449	2045.07
747.634	2067.6
747.819	2083.98
748.003	1991.82
748.188	2065.55
748.373	2043.02
748.557	2016.4
748.742	1858.7
748.927	2006.16
749.111	2022.54
749.296	1985.68
749.481	1963.15
749.665	1899.66
749.85	1924.24
750.034	1844.37
750.219	1922.19
750.404	1823.89
750.588	1907.85
750.773	1762.45
750.957	1762.45
751.141	1741.97
751.326	1907.85
751.51	1787.02
751.695	1713.3
751.879	1881.23
752.064	1787.02
752.248	1739.92
752.432	1739.92
752.617	1809.55
752.801	1791.12
752.985	1737.87
753.17	1598.61
753.354	1688.72
753.538	1565.84
753.722	1655.95
753.907	1721.49
754.091	1680.53
754.275	1653.91
754.459	1576.08
754.643	1643.67
754.828	1582.23
755.012	1582.23
755.196	1596.56
755.38	1551.51
755.564	1445.01
755.748	1551.51
755.932	1533.08
756.116	1502.36
756.3	1547.41
756.484	1496.21
756.668	1522.84
756.852	1412.25
757.036	1451.16
757.22	1504.4
757.404	1315.99
757.588	1412.25
757.772	1395.86
757.956	1397.91
758.14	1389.72
758.323	1412.25
758.507	1408.15
758.691	1369.24
758.875	1389.72
759.059	1367.19
759.242	1371.29
759.426	1283.22
759.61	1295.51
759.794	1305.75
759.977	1412.25
760.161	1287.32
760.345	1391.77
760.528	1250.46
760.712	1285.27
760.895	1305.75
761.079	1365.14
761.263	1211.54
761.446	1289.37
761.63	1234.07
761.813	1248.41
761.997	1227.93
762.18	1258.65
762.364	1189.02
762.547	1215.64
762.731	1285.27
762.914	1234.07
763.098	1213.59
763.281	1172.63
763.464	1189.02
763.648	1092.76
763.831	1197.21
764.015	1127.58
764.198	1076.38
764.381	1160.34
764.564	1189.02
764.748	1166.49
764.931	1176.73
765.114	1092.76
765.297	1098.91
765.481	1168.54
765.664	1088.67
765.847	1174.68
766.03	1133.72
766.213	1092.76
766.397	1059.99
766.58	1139.87
766.763	1074.33
766.946	1068.19
767.129	1010.84
767.312	1031.32
767.495	1055.9
767.678	1004.7
767.861	1057.95
768.044	1117.34
768.227	1012.89
768.41	1006.75
768.593	1074.33
768.776	1086.62
768.959	1006.75
769.142	1045.66
769.324	1057.95
769.507	1027.23
769.69	1049.75
769.873	1014.94
770.056	976.03
770.239	982.17
770.421	994.46
770.604	955.55
770.787	926.88
770.97	984.22
771.152	865.44
771.335	945.31
771.518	920.73
771.7	951.45
771.883	926.88
772.066	990.36
772.248	969.88
772.431	908.44
772.613	941.21
772.796	910.49
772.978	869.53
773.161	953.5
773.343	885.92
773.526	867.49
773.708	834.72
773.891	881.82
774.073	887.97
774.256	832.67
774.438	826.53
774.621	879.77
774.803	939.16
774.985	896.16
775.168	783.52
775.35	814.24
775.532	785.57
775.715	822.43
775.897	793.76
776.079	840.86
776.261	767.13
776.444	851.1
776.626	801.95
776.808	787.61
776.99	767.13
777.173	769.18
777.355	773.28
777.537	793.76
777.719	732.32
777.901	789.66
778.083	763.04
778.265	804
778.447	851.1
778.629	697.5
778.811	695.46
778.993	824.48
779.175	707.74
779.357	713.89
779.539	617.63
779.721	683.17
779.903	664.74
780.085	705.7
780.267	744.61
780.449	756.9
780.631	593.06
780.812	638.11
780.994	681.12
781.176	554.15
781.358	734.37
781.54	582.82
781.721	640.16
781.903	703.65
782.085	687.26
782.267	666.78
782.448	662.69
782.63	560.29
782.812	601.25
782.993	607.39
783.175	588.96
783.357	550.05
783.538	591.01
783.72	603.3
783.901	576.67
784.083	586.91
784.264	550.05
784.446	560.29
784.627	476.32
784.809	543.91
784.99	576.67
785.172	591.01
785.353	554.15
785.535	533.67
785.716	492.71
785.897	427.17
786.079	429.22
786.26	552.1
786.441	625.83
786.623	488.61
786.804	527.52
786.985	455.84
787.167	496.8
787.348	449.7
787.529	443.56
787.71	627.87
787.891	492.71
788.073	519.33
788.254	492.71
788.435	449.7
788.616	423.08
788.797	373.92
788.978	404.64
789.159	443.56
789.34	459.94
789.522	349.35
789.703	410.79
789.884	359.59
790.065	355.49
790.246	445.6
790.427	380.07
790.607	433.32
790.788	459.94
790.969	371.88
791.15	337.06
791.331	365.73
791.512	361.64
791.693	414.88
791.874	390.31
792.054	443.56
792.235	328.87
792.416	341.16
792.597	363.69
792.778	449.7
792.958	431.27
793.139	400.55
793.32	427.17
793.5	371.88
793.681	378.02
793.862	402.6
794.042	371.88
794.223	412.84
794.404	371.88
794.584	324.77
794.765	365.73
794.945	330.92
795.126	337.06
795.306	363.69
795.487	382.12
795.667	289.96
795.848	359.59
796.028	312.49
796.209	337.06
796.389	310.44
796.57	234.66
796.75	355.49
796.93	314.53
797.111	277.67
797.291	310.44
797.471	249
797.652	347.3
797.832	277.67
798.012	314.53
798.192	298.15
798.373	226.47
798.553	328.87
798.733	306.34
798.913	308.39
799.093	324.77
799.274	269.48
799.454	302.25
799.634	347.3
799.814	232.62
799.994	287.91
800.174	265.38
800.354	320.68
800.534	269.48
800.714	242.85
800.894	222.38
801.074	261.29
801.254	234.66
801.434	273.57
801.614	230.57
801.794	144.55
801.974	693.41
802.154	205.99
802.334	328.87
802.514	296.1
802.693	259.24
802.873	222.38
803.053	300.2
803.233	236.71
803.413	273.57
803.592	111.78
803.772	230.57
803.952	240.81
804.131	277.67
804.311	175.27
804.491	316.58
804.67	283.81
804.85	263.33
805.03	228.52
805.209	214.18
805.389	193.7
805.568	240.81
805.748	160.94
805.928	275.62
806.107	265.38
806.287	226.47
806.466	193.7
806.646	251.05
806.825	191.66
807.004	232.62
807.184	191.66
807.363	244.9
807.543	185.51
807.722	144.55
807.901	113.83
808.081	234.66
808.26	132.26
808.439	193.7
808.619	279.72
808.798	214.18
808.977	154.79
809.156	205.99
809.336	167.08
809.515	171.18
809.694	154.79
809.873	156.84
810.052	201.9
810.231	187.56
810.411	152.74
810.59	222.38
810.769	169.13
810.948	222.38
811.127	246.95
811.306	275.62
811.485	162.98
811.664	255.14
811.843	122.02
812.022	193.7
812.201	259.24
812.38	195.75
812.559	175.27
812.737	246.95
812.916	119.98
813.095	203.94
813.274	216.23
813.453	244.9
813.632	165.03
813.811	224.42
813.989	105.64
814.168	242.85
814.347	89.26
814.526	197.8
814.704	267.43
814.883	212.14
815.062	140.46
815.24	173.22
815.419	128.17
815.598	208.04
815.776	105.64
815.955	115.88
816.133	111.78
816.312	232.62
816.49	165.03
816.669	154.79
816.847	119.98
817.026	205.99
817.204	150.7
817.383	177.32
817.561	142.5
817.74	99.5
817.918	199.85
818.097	216.23
818.275	179.37
818.453	222.38
818.632	122.02
818.81	175.27
818.988	132.26
819.167	171.18
819.345	132.26
819.523	179.37
819.701	181.42
819.879	156.84
820.058	79.02
820.236	122.02
820.414	89.26
820.592	101.55
820.77	85.16
820.948	177.32
821.127	81.07
821.305	156.84
821.483	58.54
821.661	158.89
821.839	93.35
822.017	107.69
822.195	175.27
822.373	128.17
822.551	124.07
822.729	212.14
822.907	138.41
823.085	130.22
823.262	128.17
823.44	66.73
823.618	146.6
823.796	152.74
823.974	79.02
824.152	115.88
824.329	95.4
824.507	99.5
824.685	162.98
824.863	76.97
825.04	150.7
825.218	58.54
825.396	95.4
825.574	119.98
825.751	134.31
825.929	140.46
826.107	81.07
826.284	122.02
826.462	91.31
826.639	109.74
826.817	115.88
826.994	152.74
827.172	107.69
827.349	146.6
827.527	56.49
827.704	109.74
827.882	122.02
828.059	89.26
828.237	132.26
828.414	91.31
828.591	95.4
828.769	33.96
828.946	132.26
829.124	66.73
829.301	130.22
829.478	165.03
829.655	70.83
829.833	109.74
830.01	-2.9
830.187	122.02
830.364	23.72
830.542	89.26
830.719	83.11
830.896	122.02
831.073	140.46
831.25	126.12
831.427	93.35
831.604	158.89
831.782	140.46
831.959	203.94
832.136	99.5
832.313	195.75
832.49	56.49
832.667	105.64
832.844	19.63
833.021	95.4
833.198	72.87
833.374	126.12
833.551	150.7
833.728	109.74
833.905	113.83
834.082	13.48
834.259	68.78
834.436	40.11
834.612	11.43
834.789	70.83
834.966	38.06
835.143	38.06
835.319	99.5
835.496	124.07
835.673	97.45
835.85	132.26
836.026	115.88
836.203	109.74
836.38	70.83
836.556	38.06
836.733	74.92
836.909	138.41
837.086	103.59
837.262	62.63
837.439	46.25
837.616	62.63
837.792	58.54
837.968	9.39
838.145	29.87
838.321	64.68
838.498	70.83
838.674	113.83
838.851	7.34
839.027	70.83
839.203	38.06
839.38	97.45
839.556	46.25
839.732	113.83
839.909	54.44
840.085	111.78
840.261	7.34
840.437	50.35
840.614	66.73
840.79	54.44
840.966	134.31
841.142	148.65
841.318	70.83
841.494	48.3
841.671	119.98
841.847	93.35
842.023	97.45
842.199	119.98
842.375	91.31
842.551	5.29
842.727	33.96
842.903	72.87
843.079	-11.09
843.255	64.68
843.431	103.59
843.607	-23.38
843.783	-4.95
843.959	81.07
844.134	-15.19
844.31	115.88
844.486	48.3
844.662	62.63
844.838	126.12
845.013	64.68
845.189	93.35
845.365	48.3
845.541	58.54
845.716	-62.29
845.892	27.82
846.068	44.2
846.244	60.59
846.419	33.96
846.595	62.63
846.77	-19.29
846.946	15.53
847.122	60.59
847.297	72.87
847.473	60.59
847.648	23.72
847.824	42.15
847.999	46.25
848.175	62.63
848.35	76.97
848.526	79.02
848.701	54.44
848.876	79.02
849.052	117.93
849.227	54.44
849.403	19.63
849.578	29.87
849.753	-11.09
849.929	44.2
850.104	38.06
850.279	46.25
850.454	-11.09
850.63	74.92
850.805	54.44
850.98	58.54
851.155	-21.33
851.33	70.83
851.505	-27.48
851.681	-13.14
851.856	81.07
852.031	38.06
852.206	7.34
852.381	31.91
852.556	25.77
852.731	-15.19
852.906	52.39
853.081	-25.43
853.256	81.07
853.431	87.21
853.606	15.53
853.781	27.82
853.956	58.54
854.131	70.83
854.305	17.58
854.48	-27.48
854.655	68.78
854.83	17.58
855.005	11.43
855.18	31.91
855.354	25.77
855.529	33.96
855.704	1.19
855.879	48.3
856.053	-19.29
856.228	31.91
856.403	-15.19
856.577	33.96
856.752	15.53
856.926	107.69
857.101	23.72
857.276	21.67
857.45	13.48
857.625	79.02
857.799	33.96
857.974	13.48
858.148	-11.09
858.323	36.01
858.497	58.54
858.672	140.46
858.846	23.72
859.02	33.96
859.195	23.72
859.369	46.25
859.543	7.34
859.718	-13.14
859.892	5.29
860.066	-4.95
860.241	-0.85
860.415	74.92
860.589	85.16
860.763	81.07
860.938	23.72
861.112	-2.9
861.286	27.82
861.46	70.83
861.634	42.15
861.808	50.35
861.982	-23.38
862.157	38.06
862.331	-78.68
862.505	62.63
862.679	9.39
862.853	56.49
863.027	62.63
863.201	72.87
863.375	89.26
863.549	15.53
863.722	27.82
863.896	-39.76
864.07	-2.9
864.244	89.26
864.418	60.59
864.592	42.15
864.766	66.73
864.939	66.73
865.113	-7
865.287	13.48
865.461	68.78
865.634	42.15
865.808	21.67
865.982	91.31
866.156	42.15
866.329	1.19
866.503	27.82
866.676	48.3
866.85	-54.1
867.024	42.15
867.197	-11.09
867.371	-2.9
867.544	-0.85
867.718	74.92
867.891	-2.9
868.065	1.19
868.238	56.49
868.412	99.5
868.585	-4.95
868.759	-31.57
868.932	21.67
869.105	29.87
869.279	-4.95
869.452	1.19
869.625	38.06
869.799	9.39
869.972	-35.67
870.145	21.67
870.319	11.43
870.492	-2.9
870.665	-9.05
870.838	38.06
871.011	15.53
871.185	-2.9
871.358	-35.67
871.531	-66.39
871.704	21.67
871.877	38.06
872.05	13.48
872.223	-60.24
872.396	7.34
872.569	38.06
872.742	9.39
872.915	50.35
873.088	23.72
873.261	-21.33
873.434	-0.85
873.607	17.58
873.78	89.26
873.953	-43.86
874.126	13.48
874.299	95.4
874.471	1.19
874.644	-58.2
874.817	50.35
874.99	105.64
875.163	-33.62
875.335	19.63
875.508	-25.43
875.681	3.24
875.853	-9.05
876.026	38.06
876.199	25.77
876.371	-54.1
876.544	48.3
876.717	23.72
876.889	79.02
877.062	-60.24
877.234	36.01
877.407	-13.14
877.579	5.29
877.752	3.24
877.924	33.96
878.097	97.45
878.269	31.91
878.442	52.39
878.614	-33.62
878.786	31.91
878.959	62.63
879.131	54.44
879.303	-19.29
879.476	33.96
879.648	-35.67
879.82	70.83
879.993	1.19
880.165	38.06
880.337	31.91
880.509	109.74
880.681	-70.48
880.854	70.83
881.026	-4.95
881.198	1.19
881.37	-2.9
881.542	23.72
881.714	-21.33
881.886	-31.57
882.058	11.43
882.23	91.31
882.402	5.29
882.574	9.39
882.746	-11.09
882.918	31.91
883.09	40.11
883.262	11.43
883.434	-7
883.606	21.67
883.778	5.29
883.95	79.02
884.122	13.48
884.293	-21.33
884.465	44.2
884.637	-0.85
884.809	-33.62
884.98	25.77
885.152	-15.19
885.324	40.11
885.496	-0.85
885.667	58.54
885.839	29.87
886.011	23.72
886.182	40.11
886.354	-7
886.525	-7
886.697	76.97
886.869	29.87
887.04	56.49
887.212	-2.9
887.383	25.77
887.555	-19.29
887.726	7.34
887.897	-45.91
888.069	-82.77
888.24	33.96
888.412	-29.52
888.583	15.53
888.754	76.97
888.926	-58.2
889.097	68.78
889.268	-43.86
889.44	31.91
889.611	-68.44
889.782	-119.64
889.953	-11.09
890.125	9.39
890.296	9.39
890.467	-45.91
890.638	40.11
890.809	1.19
890.98	1.19
891.151	-13.14
891.323	44.2
891.494	-2.9
891.665	99.5
891.836	40.11
892.007	-41.81
892.178	17.58
892.349	-54.1
892.52	-37.72
892.691	36.01
892.862	50.35
893.032	-19.29
893.203	25.77
893.374	-41.81
893.545	-11.09
893.716	40.11
893.887	-21.33
894.057	-2.9
894.228	-13.14
894.399	48.3
894.57	27.82
894.74	-19.29
894.911	7.34
895.082	38.06
895.253	-17.24
895.423	9.39
895.594	70.83
895.764	15.53
895.935	19.63
896.106	5.29
896.276	21.67
896.447	1.19
896.617	-31.57
896.788	-70.48
896.958	5.29
897.129	-0.85
897.299	27.82
897.47	54.44
897.64	-7
897.81	-41.81
897.981	21.67
898.151	54.44
898.322	-31.57
898.492	-4.95
898.662	-43.86
898.832	-13.14
899.003	19.63
899.173	-21.33
899.343	19.63
899.513	-41.81
