Data from USB4F104151__77__11-45-30-835.txt Node

Date: Fri Mar 14 11:45:30 EDT 2025
User: louis
Spectrometer: USB4F10415
Trigger mode: 4
Integration Time (sec): 2.000000E-2
Scans to average: 1
Electric dark correction enabled: true
Nonlinearity correction enabled: false
Boxcar width: 0
XAxis mode: Wavelengths
Number of Pixels in Spectrum: 3648
>>>>>Begin Spectral Data<<<<<
178.204	-91.48
178.424	-91.48
178.644	-91.48
178.864	-87.38
179.084	-93.52
179.304	-17.75
179.524	-38.23
179.744	-40.28
179.964	12.97
180.184	27.31
180.404	2.73
180.624	-11.61
180.844	4.78
181.064	-7.51
181.283	27.31
181.503	-15.7
181.723	55.98
181.943	-9.56
182.163	94.89
182.383	49.83
182.602	80.55
182.822	8.87
183.042	-1.37
183.262	-11.61
183.482	29.35
183.701	15.02
183.921	6.83
184.141	-40.28
184.361	88.75
184.58	-54.61
184.8	-30.04
185.02	-36.18
185.239	51.88
185.459	-30.04
185.679	45.74
185.898	-32.08
186.118	25.26
186.338	-27.99
186.557	62.12
186.777	0.68
186.997	-21.85
187.216	15.02
187.436	141.99
187.655	45.74
187.875	-5.46
188.095	37.55
188.314	12.97
188.534	21.16
188.753	-56.66
188.973	19.11
189.192	4.78
189.412	-9.56
189.631	-1.37
189.851	-21.85
190.07	123.56
190.29	23.21
190.509	-15.7
190.729	0.68
190.948	49.83
191.168	68.27
191.387	15.02
191.607	-7.51
191.826	17.07
192.045	27.31
192.265	43.69
192.484	-48.47
192.704	6.83
192.923	-13.65
193.142	4.78
193.362	33.45
193.581	41.64
193.8	60.07
194.02	27.31
194.239	27.31
194.458	0.68
194.678	10.92
194.897	66.22
195.116	10.92
195.335	23.21
195.555	74.41
195.774	-5.46
195.993	35.5
196.212	25.26
196.432	8.87
196.651	10.92
196.87	0.68
197.089	101.03
197.308	49.83
197.528	55.98
197.747	2.73
197.966	23.21
198.185	15.02
198.404	4.78
198.623	35.5
198.842	-21.85
199.062	-32.08
199.281	70.31
199.5	-17.75
199.719	47.79
199.938	15.02
200.157	103.08
200.376	62.12
200.595	-1.37
200.814	-13.65
201.033	43.69
201.252	29.35
201.471	23.21
201.69	21.16
201.909	94.89
202.128	15.02
202.347	115.37
202.566	55.98
202.785	68.27
203.004	39.59
203.223	115.37
203.442	49.83
203.661	29.35
203.879	78.51
204.098	-34.13
204.317	-52.56
204.536	121.51
204.755	55.98
204.974	31.4
205.193	17.07
205.411	27.31
205.63	10.92
205.849	21.16
206.068	19.11
206.287	6.83
206.505	4.78
206.724	21.16
206.943	-5.46
207.162	17.07
207.381	45.74
207.599	-23.89
207.818	-15.7
208.037	31.4
208.255	58.03
208.474	72.36
208.693	72.36
208.911	-3.41
209.13	12.97
209.349	-1.37
209.567	45.74
209.786	51.88
210.005	-17.75
210.223	29.35
210.442	-17.75
210.661	-11.61
210.879	-27.99
211.098	55.98
211.316	2.73
211.535	58.03
211.753	10.92
211.972	-19.8
212.191	-44.37
212.409	4.78
212.628	-21.85
212.846	47.79
213.065	33.45
213.283	29.35
213.502	12.97
213.72	0.68
213.938	17.07
214.157	8.87
214.375	19.11
214.594	21.16
214.812	39.59
215.031	66.22
215.249	-46.42
215.467	-17.75
215.686	-52.56
215.904	88.75
216.122	23.21
216.341	53.93
216.559	8.87
216.778	15.02
216.996	23.21
217.214	-42.32
217.432	19.11
217.651	-17.75
217.869	-15.7
218.087	103.08
218.306	31.4
218.524	29.35
218.742	43.69
218.96	21.16
219.179	0.68
219.397	21.16
219.615	53.93
219.833	35.5
220.051	37.55
220.27	55.98
220.488	10.92
220.706	-30.04
220.924	15.02
221.142	-11.61
221.36	94.89
221.578	60.07
221.796	23.21
222.015	58.03
222.233	-13.65
222.451	66.22
222.669	29.35
222.887	80.55
223.105	23.21
223.323	17.07
223.541	-25.94
223.759	64.17
223.977	-9.56
224.195	45.74
224.413	-25.94
224.631	64.17
224.849	-38.23
225.067	94.89
225.285	-1.37
225.503	47.79
225.721	-54.61
225.939	45.74
226.157	66.22
226.375	101.03
226.592	-1.37
226.81	2.73
227.028	43.69
227.246	94.89
227.464	-5.46
227.682	0.68
227.9	-25.94
228.117	-25.94
228.335	62.12
228.553	25.26
228.771	68.27
228.989	15.02
229.206	74.41
229.424	8.87
229.642	4.78
229.86	29.35
230.077	39.59
230.295	6.83
230.513	35.5
230.731	47.79
230.948	8.87
231.166	45.74
231.384	-19.8
231.601	92.84
231.819	107.18
232.037	6.83
232.254	-21.85
232.472	29.35
232.689	-9.56
232.907	2.73
233.125	47.79
233.342	103.08
233.56	2.73
233.777	-34.13
233.995	-7.51
234.213	78.51
234.43	-19.8
234.648	27.31
234.865	27.31
235.083	88.75
235.3	45.74
235.518	62.12
235.735	55.98
235.953	31.4
236.17	47.79
236.388	37.55
236.605	-38.23
236.822	4.78
237.04	10.92
237.257	-34.13
237.475	43.69
237.692	-9.56
237.909	43.69
238.127	-48.47
238.344	41.64
238.562	66.22
238.779	-7.51
238.996	-5.46
239.214	-15.7
239.431	55.98
239.648	15.02
239.865	55.98
240.083	25.26
240.3	4.78
240.517	78.51
240.735	-36.18
240.952	43.69
241.169	-1.37
241.386	21.16
241.603	-7.51
241.821	43.69
242.038	66.22
242.255	33.45
242.472	-25.94
242.689	33.45
242.907	8.87
243.124	8.87
243.341	-3.41
243.558	27.31
243.775	33.45
243.992	-62.8
244.209	6.83
244.426	51.88
244.643	31.4
244.86	19.11
245.078	-11.61
245.295	66.22
245.512	-9.56
245.729	17.07
245.946	31.4
246.163	-36.18
246.38	37.55
246.597	-25.94
246.814	39.59
247.031	-13.65
247.248	60.07
247.464	51.88
247.681	31.4
247.898	49.83
248.115	31.4
248.332	43.69
248.549	64.17
248.766	84.65
248.983	123.56
249.2	21.16
249.417	78.51
249.633	35.5
249.85	41.64
250.067	45.74
250.284	8.87
250.501	43.69
250.717	-44.37
250.934	-21.85
251.151	43.69
251.368	39.59
251.585	-5.46
251.801	25.26
252.018	8.87
252.235	-44.37
252.451	-1.37
252.668	35.5
252.885	62.12
253.102	53.93
253.318	25.26
253.535	33.45
253.752	55.98
253.968	15.02
254.185	-77.14
254.401	-13.65
254.618	107.18
254.835	17.07
255.051	127.66
255.268	37.55
255.484	-19.8
255.701	25.26
255.917	-15.7
256.134	15.02
256.351	113.32
256.567	15.02
256.784	25.26
257	10.92
257.217	6.83
257.433	-13.65
257.65	-5.46
257.866	-52.56
258.082	4.78
258.299	-25.94
258.515	-9.56
258.732	113.32
258.948	33.45
259.165	-1.37
259.381	-48.47
259.597	45.74
259.814	-34.13
260.03	21.16
260.246	96.94
260.463	6.83
260.679	29.35
260.895	43.69
261.112	64.17
261.328	8.87
261.544	2.73
261.761	35.5
261.977	47.79
262.193	-21.85
262.409	117.42
262.626	78.51
262.842	33.45
263.058	2.73
263.274	43.69
263.49	10.92
263.707	25.26
263.923	60.07
264.139	-1.37
264.355	-5.46
264.571	66.22
264.787	68.27
265.004	66.22
265.22	15.02
265.436	-9.56
265.652	35.5
265.868	-7.51
266.084	-5.46
266.3	35.5
266.516	-9.56
266.732	33.45
266.948	-11.61
267.164	33.45
267.38	15.02
267.596	49.83
267.812	41.64
268.028	51.88
268.244	-19.8
268.46	-23.89
268.676	-30.04
268.892	-15.7
269.108	76.46
269.324	-1.37
269.54	-13.65
269.756	84.65
269.972	-5.46
270.188	0.68
270.403	-73.04
270.619	-5.46
270.835	-1.37
271.051	-15.7
271.267	-25.94
271.483	12.97
271.698	-1.37
271.914	64.17
272.13	-21.85
272.346	12.97
272.562	2.73
272.777	53.93
272.993	107.18
273.209	-54.61
273.425	-7.51
273.64	47.79
273.856	58.03
274.072	-1.37
274.287	51.88
274.503	39.59
274.719	23.21
274.934	8.87
275.15	43.69
275.366	-7.51
275.581	-7.51
275.797	90.79
276.012	-25.94
276.228	0.68
276.444	27.31
276.659	88.75
276.875	-54.61
277.09	49.83
277.306	47.79
277.521	15.02
277.737	-68.95
277.952	-5.46
278.168	15.02
278.383	39.59
278.599	66.22
278.814	47.79
279.03	31.4
279.245	8.87
279.461	35.5
279.676	-38.23
279.892	-38.23
280.107	58.03
280.322	72.36
280.538	29.35
280.753	-1.37
280.969	115.37
281.184	27.31
281.399	2.73
281.615	-40.28
281.83	39.59
282.045	58.03
282.26	19.11
282.476	-3.41
282.691	96.94
282.906	-1.37
283.122	27.31
283.337	35.5
283.552	96.94
283.767	-64.85
283.983	74.41
284.198	-9.56
284.413	78.51
284.628	-3.41
284.843	84.65
285.058	31.4
285.274	6.83
285.489	0.68
285.704	2.73
285.919	49.83
286.134	0.68
286.349	-34.13
286.564	127.66
286.779	21.16
286.995	76.46
287.21	-5.46
287.425	109.22
287.64	0.68
287.855	17.07
288.07	4.78
288.285	35.5
288.5	27.31
288.715	27.31
288.93	45.74
289.145	-3.41
289.36	55.98
289.575	25.26
289.79	10.92
290.004	25.26
290.219	-25.94
290.434	19.11
290.649	0.68
290.864	-15.7
291.079	17.07
291.294	47.79
291.509	101.03
291.724	23.21
291.938	21.16
292.153	37.55
292.368	-21.85
292.583	33.45
292.798	-38.23
293.012	-11.61
293.227	-11.61
293.442	33.45
293.657	133.8
293.871	55.98
294.086	-21.85
294.301	41.64
294.516	105.13
294.73	92.84
294.945	-40.28
295.16	27.31
295.374	55.98
295.589	78.51
295.804	23.21
296.018	15.02
296.233	23.21
296.447	76.46
296.662	33.45
296.877	43.69
297.091	-15.7
297.306	2.73
297.52	37.55
297.735	10.92
297.949	-42.32
298.164	82.6
298.378	19.11
298.593	29.35
298.807	76.46
299.022	72.36
299.236	76.46
299.451	47.79
299.665	-7.51
299.88	68.27
300.094	-13.65
300.309	-38.23
300.523	-21.85
300.737	19.11
300.952	21.16
301.166	8.87
301.381	55.98
301.595	96.94
301.809	-7.51
302.024	-15.7
302.238	33.45
302.452	45.74
302.667	8.87
302.881	55.98
303.095	80.55
303.309	8.87
303.524	8.87
303.738	64.17
303.952	-79.19
304.166	17.07
304.381	-34.13
304.595	64.17
304.809	0.68
305.023	74.41
305.237	10.92
305.452	-5.46
305.666	66.22
305.88	53.93
306.094	33.45
306.308	21.16
306.522	55.98
306.736	21.16
306.95	-5.46
307.164	17.07
307.379	37.55
307.593	10.92
307.807	76.46
308.021	90.79
308.235	-11.61
308.449	0.68
308.663	-50.52
308.877	146.09
309.091	6.83
309.305	25.26
309.519	55.98
309.733	45.74
309.947	84.65
310.161	17.07
310.374	31.4
310.588	64.17
310.802	29.35
311.016	78.51
311.23	-13.65
311.444	45.74
311.658	101.03
311.872	68.27
312.085	31.4
312.299	66.22
312.513	94.89
312.727	12.97
312.941	2.73
313.154	78.51
313.368	60.07
313.582	35.5
313.796	-5.46
314.009	-17.75
314.223	17.07
314.437	31.4
314.651	-27.99
314.864	29.35
315.078	-7.51
315.292	-58.71
315.505	47.79
315.719	55.98
315.933	66.22
316.146	-42.32
316.36	49.83
316.573	101.03
316.787	133.8
317.001	80.55
317.214	-30.04
317.428	70.31
317.641	23.21
317.855	4.78
318.068	41.64
318.282	4.78
318.495	90.79
318.709	82.6
318.922	29.35
319.136	64.17
319.349	-13.65
319.563	17.07
319.776	15.02
319.99	21.16
320.203	15.02
320.417	84.65
320.63	123.56
320.843	47.79
321.057	60.07
321.27	43.69
321.483	35.5
321.697	37.55
321.91	-11.61
322.124	62.12
322.337	45.74
322.55	-19.8
322.763	10.92
322.977	62.12
323.19	17.07
323.403	51.88
323.617	43.69
323.83	35.5
324.043	-23.89
324.256	51.88
324.469	-13.65
324.683	62.12
324.896	15.02
325.109	-3.41
325.322	23.21
325.535	55.98
325.748	-3.41
325.962	-27.99
326.175	94.89
326.388	96.94
326.601	64.17
326.814	58.03
327.027	53.93
327.24	8.87
327.453	15.02
327.666	43.69
327.879	55.98
328.092	37.55
328.305	2.73
328.518	6.83
328.731	55.98
328.944	35.5
329.157	12.97
329.37	31.4
329.583	33.45
329.796	74.41
330.009	-81.24
330.222	39.59
330.435	-32.08
330.648	76.46
330.861	43.69
331.073	76.46
331.286	-3.41
331.499	4.78
331.712	8.87
331.925	70.31
332.138	12.97
332.35	66.22
332.563	47.79
332.776	-9.56
332.989	39.59
333.202	68.27
333.414	144.04
333.627	39.59
333.84	35.5
334.053	68.27
334.265	25.26
334.478	19.11
334.691	-68.95
334.903	-38.23
335.116	45.74
335.329	-9.56
335.541	35.5
335.754	74.41
335.966	45.74
336.179	15.02
336.392	49.83
336.604	45.74
336.817	-34.13
337.029	-32.08
337.242	43.69
337.454	15.02
337.667	8.87
337.88	35.5
338.092	49.83
338.305	84.65
338.517	-23.89
338.729	31.4
338.942	76.46
339.154	31.4
339.367	-7.51
339.579	96.94
339.792	35.5
340.004	-7.51
340.217	33.45
340.429	62.12
340.641	-13.65
340.854	-13.65
341.066	8.87
341.278	60.07
341.491	98.99
341.703	58.03
341.915	111.27
342.128	62.12
342.34	88.75
342.552	72.36
342.764	92.84
342.977	19.11
343.189	45.74
343.401	21.16
343.613	-5.46
343.826	17.07
344.038	43.69
344.25	10.92
344.462	70.31
344.674	51.88
344.886	47.79
345.099	60.07
345.311	88.75
345.523	49.83
345.735	23.21
345.947	35.5
346.159	25.26
346.371	15.02
346.583	-3.41
346.795	58.03
347.007	39.59
347.219	70.31
347.431	45.74
347.643	94.89
347.855	-62.8
348.067	35.5
348.279	-44.37
348.491	55.98
348.703	19.11
348.915	8.87
349.127	-27.99
349.339	-9.56
349.551	29.35
349.763	74.41
349.975	62.12
350.187	101.03
350.399	35.5
350.61	35.5
350.822	-44.37
351.034	86.7
351.246	51.88
351.458	60.07
351.669	64.17
351.881	23.21
352.093	51.88
352.305	80.55
352.517	41.64
352.728	82.6
352.94	17.07
353.152	84.65
353.363	31.4
353.575	21.16
353.787	58.03
353.999	17.07
354.21	66.22
354.422	94.89
354.633	23.21
354.845	17.07
355.057	55.98
355.268	64.17
355.48	0.68
355.692	4.78
355.903	17.07
356.115	43.69
356.326	55.98
356.538	53.93
356.749	31.4
356.961	129.7
357.172	101.03
357.384	-13.65
357.595	53.93
357.807	-17.75
358.018	21.16
358.23	23.21
358.441	37.55
358.653	-17.75
358.864	-7.51
359.075	0.68
359.287	33.45
359.498	51.88
359.709	41.64
359.921	6.83
360.132	39.59
360.344	4.78
360.555	76.46
360.766	47.79
360.977	10.92
361.189	62.12
361.4	74.41
361.611	127.66
361.823	129.7
362.034	80.55
362.245	27.31
362.456	25.26
362.667	31.4
362.879	-40.28
363.09	98.99
363.301	47.79
363.512	29.35
363.723	15.02
363.935	-21.85
364.146	66.22
364.357	53.93
364.568	49.83
364.779	76.46
364.99	72.36
365.201	64.17
365.412	88.75
365.623	-25.94
365.834	62.12
366.045	-34.13
366.256	-9.56
366.467	39.59
366.678	4.78
366.889	66.22
367.1	23.21
367.311	49.83
367.522	10.92
367.733	64.17
367.944	-25.94
368.155	27.31
368.366	64.17
368.577	4.78
368.788	98.99
368.999	19.11
369.209	43.69
369.42	15.02
369.631	90.79
369.842	21.16
370.053	37.55
370.264	43.69
370.474	33.45
370.685	21.16
370.896	86.7
371.107	103.08
371.317	92.84
371.528	129.7
371.739	72.36
371.95	-11.61
372.16	-21.85
372.371	21.16
372.582	121.51
372.792	51.88
373.003	23.21
373.214	78.51
373.424	96.94
373.635	25.26
373.846	84.65
374.056	33.45
374.267	78.51
374.477	78.51
374.688	62.12
374.898	55.98
375.109	58.03
375.319	-9.56
375.53	141.99
375.74	47.79
375.951	49.83
376.161	10.92
376.372	111.27
376.582	-17.75
376.793	41.64
377.003	0.68
377.214	31.4
377.424	31.4
377.635	60.07
377.845	74.41
378.055	-9.56
378.266	12.97
378.476	0.68
378.686	68.27
378.897	94.89
379.107	123.56
379.317	60.07
379.528	64.17
379.738	47.79
379.948	-11.61
380.158	66.22
380.369	-5.46
380.579	53.93
380.789	-19.8
380.999	31.4
381.21	-23.89
381.42	103.08
381.63	-11.61
381.84	-19.8
382.05	84.65
382.261	86.7
382.471	-9.56
382.681	4.78
382.891	127.66
383.101	66.22
383.311	4.78
383.521	60.07
383.731	107.18
383.941	88.75
384.151	29.35
384.361	90.79
384.571	27.31
384.781	47.79
384.991	115.37
385.201	74.41
385.411	27.31
385.621	84.65
385.831	80.55
386.041	105.13
386.251	62.12
386.461	35.5
386.671	-25.94
386.881	4.78
387.091	37.55
387.301	35.5
387.511	68.27
387.72	41.64
387.93	62.12
388.14	51.88
388.35	-32.08
388.56	82.6
388.769	121.51
388.979	51.88
389.189	45.74
389.399	25.26
389.609	80.55
389.818	53.93
390.028	86.7
390.238	45.74
390.447	35.5
390.657	115.37
390.867	68.27
391.076	60.07
391.286	10.92
391.496	8.87
391.705	82.6
391.915	60.07
392.125	111.27
392.334	66.22
392.544	133.8
392.753	12.97
392.963	58.03
393.172	47.79
393.382	86.7
393.591	2.73
393.801	98.99
394.01	55.98
394.22	64.17
394.429	60.07
394.639	70.31
394.848	113.32
395.058	160.42
395.267	62.12
395.477	68.27
395.686	123.56
395.895	133.8
396.105	105.13
396.314	86.7
396.524	76.46
396.733	64.17
396.942	150.18
397.152	109.22
397.361	148.14
397.57	109.22
397.78	84.65
397.989	74.41
398.198	55.98
398.407	127.66
398.617	125.61
398.826	113.32
399.035	98.99
399.244	58.03
399.453	105.13
399.663	98.99
399.872	92.84
400.081	78.51
400.29	160.42
400.499	72.36
400.708	158.38
400.917	43.69
401.127	113.32
401.336	60.07
401.545	74.41
401.754	94.89
401.963	43.69
402.172	109.22
402.381	146.09
402.59	92.84
402.799	103.08
403.008	96.94
403.217	119.46
403.426	78.51
403.635	119.46
403.844	39.59
404.053	129.7
404.262	158.38
404.471	88.75
404.68	60.07
404.888	185
405.097	68.27
405.306	166.57
405.515	137.9
405.724	117.42
405.933	170.66
406.142	55.98
406.35	164.52
406.559	135.85
406.768	197.29
406.977	109.22
407.185	129.7
407.394	256.68
407.603	129.7
407.812	152.23
408.02	168.62
408.229	174.76
408.438	166.57
408.646	217.77
408.855	201.38
409.064	246.44
409.272	275.11
409.481	250.53
409.69	281.25
409.898	275.11
410.107	197.29
410.315	283.3
410.524	211.62
410.733	365.22
410.941	350.89
411.15	373.41
411.358	346.79
411.567	322.21
411.775	328.36
411.984	363.17
412.192	387.75
412.401	416.42
412.609	492.2
412.818	520.87
413.026	451.24
413.234	475.81
413.443	488.1
413.651	445.09
413.86	479.91
414.068	610.98
414.276	613.03
414.485	477.86
414.693	596.64
414.901	545.44
415.11	645.79
415.318	596.64
415.526	733.86
415.734	709.28
415.943	641.7
416.151	821.92
416.359	735.9
416.567	692.9
416.776	805.53
416.984	793.25
417.192	918.17
417.4	903.84
417.608	871.07
417.817	889.5
418.025	985.76
418.233	987.8
418.441	1098.39
418.649	1073.82
418.857	1239.7
419.065	1129.11
419.273	1116.83
419.481	1104.54
419.689	1231.51
419.897	1321.62
420.105	1370.77
420.313	1364.63
420.521	1489.56
420.729	1417.88
420.937	1546.9
421.145	1544.85
421.353	1645.2
421.561	1696.4
421.769	1780.37
421.977	1737.36
422.185	1845.9
422.393	1917.58
422.601	2067.08
422.809	2042.51
423.017	2157.19
423.224	2130.57
423.432	2140.81
423.64	2323.08
423.848	2407.05
424.056	2304.65
424.263	2441.86
424.471	2470.53
424.679	2665.09
424.887	2769.54
425.094	2814.59
425.302	2955.9
425.51	3009.15
425.718	2970.24
425.925	3113.6
426.133	3201.66
426.341	3336.82
426.548	3506.81
426.756	3631.73
426.964	3443.32
427.171	3785.33
427.379	3877.49
427.586	4055.66
427.794	4092.52
428.001	4244.07
428.209	4469.35
428.417	4422.25
428.624	4700.77
428.832	4715.11
429.039	4635.24
429.247	4762.21
429.454	5061.21
429.662	5339.74
429.869	5175.9
430.076	5149.28
430.284	5397.08
430.491	5388.89
430.699	5882.45
430.906	5663.32
431.114	5757.52
431.321	6165.07
431.528	6394.44
431.736	6646.34
431.943	7098.94
432.15	6756.93
432.358	6791.75
432.565	7219.77
432.772	7123.52
432.979	7514.68
433.187	7637.56
433.394	7539.26
433.601	8292.91
433.808	8053.3
434.016	8213.04
434.223	8497.7
434.43	9034.27
434.637	8919.59
434.844	9304.6
435.052	9636.38
435.259	9609.75
435.466	9685.53
435.673	9433.63
435.88	10162.7
436.087	10662.41
436.294	10498.57
436.501	10453.52
436.708	10748.42
436.915	11084.29
437.122	11459.07
437.329	11532.79
437.537	11829.75
437.743	12059.12
437.95	11915.76
438.157	12653.03
438.364	13089.25
438.571	12863.97
438.778	13019.62
438.985	14299.6
439.192	13685.21
439.399	14127.57
439.606	13797.85
439.813	14367.18
440.02	15376.83
440.227	15245.76
440.433	14948.81
440.64	15573.44
440.847	15583.68
441.054	15858.1
441.261	17183.14
441.467	16701.87
441.674	17430.94
441.881	17580.45
442.088	17705.37
442.294	17312.16
442.501	18123.16
442.708	18479.5
442.914	18903.43
443.121	19714.43
443.328	19382.66
443.534	20654.45
443.741	19949.95
443.948	19650.94
444.154	21451.11
444.361	21088.62
444.568	21422.44
444.774	21338.47
444.981	21547.36
445.187	22196.57
445.394	23173.45
445.6	22753.62
445.807	25006.38
446.013	23853.37
446.22	24502.58
446.426	25178.41
446.633	25551.14
446.839	26405.14
447.046	25456.93
447.252	26824.98
447.459	26859.79
447.665	26802.45
447.871	27894.02
448.078	29057.26
448.284	27748.61
448.491	28539.13
448.697	29528.3
448.903	30030.05
449.11	29982.95
449.316	29815.01
449.522	30077.15
449.728	31236.3
449.935	31353.04
450.141	31260.88
450.347	31834.31
450.553	30902.48
450.76	31158.48
450.966	32080.07
451.172	31903.94
451.378	33024.18
451.584	32342.21
451.791	32784.57
451.997	32942.26
452.203	33437.87
452.409	33353.9
452.615	32952.5
452.821	32004.29
453.027	31844.55
453.233	33290.41
453.44	32059.59
453.646	32614.58
453.852	32825.53
454.058	32993.46
454.264	31979.71
454.47	33024.18
454.676	32327.87
454.882	33231.02
455.088	30191.84
455.294	30795.99
455.5	31318.22
455.705	31307.98
455.911	30148.83
456.117	29712.61
456.323	29206.76
456.529	27799.81
456.735	28623.09
456.941	28139.77
457.147	27691.27
457.352	26931.47
457.558	26413.34
457.764	26718.48
457.97	26245.4
458.176	25573.67
458.381	25590.05
458.587	24752.43
458.793	24363.32
458.999	23456.07
459.204	24805.68
459.41	24213.82
459.616	22301.01
459.821	22421.84
460.027	22364.5
460.233	21969.24
460.438	21096.81
460.644	21133.67
460.85	20007.29
461.055	19784.06
461.261	19833.21
461.466	18448.79
461.672	17838.49
461.878	19233.16
462.083	17721.76
462.289	17580.45
462.494	17205.67
462.7	16646.57
462.905	16093.62
463.111	16693.68
463.316	16939.43
463.522	16331.19
463.727	16339.38
463.932	16474.54
464.138	16122.29
464.343	16224.69
464.549	15866.3
464.754	16286.13
464.959	16155.06
465.165	15778.23
465.37	15354.3
465.575	14846.41
465.781	15442.37
465.986	15579.58
466.191	15133.12
466.397	14657.99
466.602	13994.45
466.807	14688.71
467.012	14502.35
467.218	14387.66
467.423	14295.5
467.628	14422.48
467.833	14901.7
468.038	14215.63
468.244	14103
468.449	14614.99
468.654	13920.73
468.859	14031.32
469.064	13777.37
469.269	13373.92
469.474	13390.3
469.679	13611.48
469.885	13423.07
470.09	13504.99
470.295	13537.76
470.5	13113.83
470.705	13171.17
470.91	12845.54
471.115	12798.44
471.32	12935.65
471.525	12900.84
471.73	12521.96
471.935	12464.62
472.139	12276.21
472.344	12220.91
472.549	11878.9
472.754	12028.4
472.959	11946.48
473.164	11504.12
473.369	11424.25
473.574	11854.33
473.778	11737.59
473.983	11512.31
474.188	11522.55
474.393	11094.53
474.598	11069.95
474.802	11006.47
475.007	10928.64
475.212	10926.6
475.417	10732.04
475.621	10488.33
475.826	10439.18
476.031	10277.39
476.235	10297.87
476.44	10338.83
476.645	10091.02
476.849	9986.58
477.054	10199.57
477.259	9871.89
477.463	9916.95
477.668	9835.03
477.872	9669.14
478.077	9585.18
478.282	9194.01
478.486	9376.28
478.691	8966.69
478.895	8948.26
479.1	9009.7
479.304	9079.33
479.509	8813.09
479.713	9132.58
479.918	8714.79
480.122	8600.1
480.326	8651.3
480.531	8688.17
480.735	8876.58
480.94	8620.58
481.144	8802.85
481.348	8485.42
481.553	8679.97
481.757	8297
481.961	8581.67
482.166	8714.79
482.37	8497.7
482.574	8399.4
482.778	8530.47
482.983	8585.77
483.187	8356.4
483.391	8292.91
483.595	8378.92
483.8	8350.25
484.004	8491.56
484.208	8530.47
484.412	8509.99
484.616	8389.16
484.821	8294.96
485.025	8210.99
485.229	8368.68
485.433	8280.62
485.637	8325.68
485.841	8374.83
486.045	8315.44
486.249	8340.01
486.453	8368.68
486.657	8352.3
486.861	8366.63
487.065	8026.67
487.269	8352.3
487.473	8311.34
487.677	8466.99
487.881	8383.02
488.085	8378.92
488.289	8634.92
488.493	8530.47
488.697	8417.83
488.901	8475.18
489.105	8555.05
489.309	8397.35
489.512	8520.23
489.716	8401.45
489.92	8503.85
490.124	8442.41
490.328	8550.95
490.531	8440.36
490.735	8507.94
490.939	8745.51
491.143	8587.82
491.346	8679.97
491.55	8720.93
491.754	8591.91
491.958	8929.83
492.161	8751.65
492.365	8776.23
492.569	8837.67
492.772	8802.85
492.976	9042.46
493.18	8976.93
493.383	9034.27
493.587	9050.66
493.79	9200.16
493.994	9058.85
494.197	9312.8
494.401	9269.79
494.605	9130.53
494.808	9452.06
495.012	9581.08
495.215	9419.29
495.419	9419.29
495.622	9556.5
495.825	9609.75
496.029	9570.84
496.232	9804.31
496.436	9773.59
496.639	9933.33
496.843	10013.2
497.046	10299.92
497.249	10353.16
497.453	10410.51
497.656	10564.11
497.859	10564.11
498.063	10619.4
498.266	10865.16
498.469	10848.77
498.673	11028.99
498.876	11186.69
499.079	11319.81
499.282	11090.43
499.485	11446.78
499.689	11567.61
499.892	11657.72
500.095	11901.43
500.298	11928.05
500.501	11926
500.705	12351.98
500.908	12411.37
501.111	12173.81
501.314	12452.33
501.517	12728.81
501.72	12904.93
501.923	12806.63
502.126	12966.37
502.329	13216.22
502.532	13388.25
502.735	13535.71
502.938	13654.49
503.141	13881.81
503.344	14039.51
503.547	14094.8
503.75	14215.63
503.953	14199.25
504.156	14488.01
504.359	14832.07
504.562	14674.38
504.765	15178.18
504.968	14885.32
505.17	15204.8
505.373	15231.43
505.576	15663.55
505.779	15671.74
505.982	15890.87
506.185	16163.25
506.387	16318.9
506.59	16335.28
506.793	16630.19
506.996	16693.68
507.198	17174.95
507.401	16918.95
507.604	17033.64
507.807	17557.92
508.009	17570.21
508.212	17705.37
508.415	18080.15
508.617	18258.32
508.82	18207.12
509.022	18209.17
509.225	18622.86
509.428	18790.8
509.63	18889.1
509.833	18993.54
510.035	19736.96
510.238	19546.5
510.44	20093.3
510.643	19902.84
510.845	20142.46
511.048	20048.25
511.25	20437.36
511.453	20668.78
511.655	21385.57
511.858	20875.63
512.06	21244.26
512.262	21627.23
512.465	21514.59
512.667	21805.41
512.87	22229.34
513.072	22401.36
513.274	22747.47
513.477	22733.14
513.679	22847.82
513.881	23294.28
514.084	23431.49
514.286	23406.92
514.488	23550.28
514.69	24146.23
514.893	24205.63
515.095	24353.08
515.297	24645.94
515.499	24568.12
515.701	24865.07
515.904	25327.91
516.106	25458.98
516.308	25573.67
516.51	26071.32
516.712	25796.9
516.914	26239.26
517.116	26779.92
517.318	26583.32
517.52	27236.62
517.722	26960.14
517.925	27334.92
518.127	27885.83
518.329	27713.8
518.531	28045.57
518.733	28578.04
518.935	28471.54
519.136	28842.23
519.338	28918
519.54	29200.62
519.742	29479.14
519.944	29612.26
520.146	30116.06
520.348	30122.21
520.55	30359.77
520.752	30648.53
520.954	30978.26
521.155	30562.52
521.357	31058.13
521.559	31355.08
521.761	32118.98
521.963	31805.64
522.164	31871.17
522.366	32477.37
522.568	33022.13
522.77	32430.27
522.971	33228.98
523.173	33063.09
523.375	33358
523.576	33407.15
523.778	33452.2
523.98	34035.88
524.181	34074.79
524.383	34195.62
524.584	34726.04
524.786	34623.64
524.988	34646.17
525.189	35031.19
525.391	35299.47
525.592	35262.61
525.794	35438.73
525.995	35700.87
526.197	35561.61
526.398	35446.93
526.6	36081.8
526.801	36622.46
527.003	36538.49
527.204	36337.79
527.406	37064.82
527.607	36651.13
527.808	37333.1
528.01	36221.06
528.211	37066.87
528.412	37728.36
528.614	37236.85
528.815	37433.46
529.016	37795.95
529.218	37564.53
529.419	37650.54
529.62	37292.15
529.822	37867.62
530.023	37724.27
530.224	37910.63
530.425	37873.77
530.626	37343.34
530.828	37978.22
531.029	38645.85
531.23	38101.09
531.431	38303.84
531.632	38416.48
531.833	38457.44
532.035	38400.1
532.236	38385.76
532.437	38615.13
532.638	38203.49
532.839	38787.16
533.04	38598.75
533.241	38590.56
533.442	39221.33
533.643	38645.85
533.844	38987.86
534.045	38639.71
534.246	38541.41
534.447	38914.14
534.648	38729.82
534.849	38899.8
535.05	38707.29
535.251	39063.64
535.451	38461.54
535.652	39237.72
535.853	38983.77
536.054	39024.73
536.255	39245.91
536.456	38744.16
536.657	39493.71
536.857	39153.75
537.058	38813.79
537.259	39047.25
537.46	39225.43
537.66	39098.45
537.861	39153.75
538.062	39080.02
538.263	39241.81
538.463	38785.11
538.664	38789.21
538.865	38975.58
539.065	38981.72
539.266	39041.11
539.466	39170.13
539.667	38803.55
539.868	39583.82
540.068	38875.23
540.269	38928.47
540.469	39630.93
540.67	38951
540.87	39172.18
541.071	38832.22
541.271	39088.21
541.472	38703.2
541.672	39166.04
541.873	38936.66
542.073	38590.56
542.274	39170.13
542.474	38854.75
542.675	38680.67
542.875	39374.93
543.075	38989.91
543.276	38758.49
543.476	39540.82
543.676	38426.72
543.877	39010.39
544.077	38701.15
544.277	38801.5
544.478	38781.02
544.678	39309.39
544.878	39133.27
545.078	38850.65
545.279	38731.87
545.479	38824.03
545.679	38987.86
545.879	38951
546.079	38703.2
546.28	38613.09
546.48	38338.66
546.68	38918.23
546.88	38967.38
547.08	38813.79
547.28	38672.48
547.48	38023.27
547.68	38836.31
547.88	38643.81
548.081	38776.92
548.281	38590.56
548.481	38557.79
548.681	38871.13
548.881	38637.66
549.081	38709.34
549.28	38590.56
549.48	38826.07
549.68	38350.95
549.88	39188.56
550.08	39176.28
550.28	38797.4
550.48	38500.45
550.68	38666.33
550.88	38230.12
551.08	38240.36
551.279	38312.03
551.479	38097
551.679	38428.77
551.879	38344.8
552.079	38832.22
552.278	38228.07
552.478	38266.98
552.678	38297.7
552.878	38662.24
553.077	38572.13
553.277	37793.9
553.477	38387.81
553.676	38107.24
553.876	38260.83
554.076	37939.3
554.275	38250.6
554.475	37998.69
554.674	38387.81
554.874	38187.11
555.074	38082.66
555.273	38279.27
555.473	38350.95
555.672	37744.75
555.872	37996.65
556.071	37896.3
556.271	37867.62
556.47	37785.71
556.67	37630.06
556.869	37797.99
557.068	37797.99
557.268	37392.5
557.467	37724.27
557.667	37828.71
557.866	37265.52
558.065	37400.69
558.265	37351.54
558.464	37355.63
558.663	37742.7
558.863	37486.7
559.062	38010.98
559.261	37208.18
559.461	37197.94
559.66	36724.86
559.859	37030.01
560.058	37077.11
560.258	37214.32
560.457	36485.25
560.656	37171.32
560.855	36427.9
561.054	36907.13
561.253	36528.25
561.453	36626.56
561.652	36728.95
561.851	36724.86
562.05	36223.11
562.249	35850.38
562.448	36556.92
562.647	36446.33
562.846	36249.73
563.045	36239.49
563.244	35825.8
563.443	36530.3
563.642	35498.12
563.841	35625.1
564.04	35623.05
564.239	36122.76
564.438	35803.27
564.637	36216.96
564.836	35936.39
565.035	35412.11
565.234	35483.79
565.432	35254.42
565.631	35268.75
565.83	34986.13
566.029	35061.91
566.228	34691.23
566.427	35008.66
566.625	34959.51
566.824	34767
567.023	35166.35
567.222	34255.01
567.42	34777.24
567.619	34607.26
567.818	34648.22
568.016	34222.24
568.215	34449.57
568.414	34343.07
568.612	34562.2
568.811	34154.66
569.01	34457.76
569.208	33849.51
569.407	34271.39
569.605	33534.12
569.804	33683.62
570.002	33489.07
570.201	33527.98
570.4	33538.22
570.598	33304.75
570.797	33013.94
570.995	33214.64
571.193	32776.37
571.392	33415.34
571.59	32870.58
571.789	32970.93
571.987	32913.59
572.186	32764.09
572.384	32811.19
572.582	32958.64
572.781	32790.71
572.979	32385.21
573.177	32370.88
573.376	32501.95
573.574	32471.23
573.772	32092.35
573.971	32131.26
574.169	31901.89
574.367	31711.43
574.565	31920.32
574.763	31381.71
574.962	31697.1
575.16	31428.81
575.358	31832.26
575.556	31314.12
575.754	31738.05
575.952	31287.5
576.151	31178.96
576.349	31170.77
576.547	30935.25
576.745	31043.79
576.943	31160.53
577.141	31060.18
577.339	30826.71
577.537	30261.47
577.735	30724.31
577.933	30503.13
578.131	31152.34
578.329	30544.09
578.527	30009.57
578.725	30083.3
578.923	30642.39
579.121	30189.79
579.319	30060.77
579.516	30152.93
579.714	30077.15
579.912	29870.31
580.11	29704.42
580.308	29546.73
580.506	29337.83
580.704	29241.58
580.901	29747.43
581.099	29397.23
581.297	29286.64
581.495	29190.38
581.692	29272.3
581.89	28619
582.088	29298.92
582.285	28948.72
582.483	28797.17
582.681	28963.06
582.878	28987.63
583.076	28709.11
583.274	28821.75
583.471	28305.66
583.669	28213.5
583.866	28274.94
584.064	28340.47
584.262	28276.99
584.459	28276.99
584.657	28053.76
584.854	28379.39
585.052	27666.69
585.249	28236.03
585.447	27994.37
585.644	27689.22
585.841	27662.6
586.039	27896.06
586.236	27265.29
586.434	27676.93
586.631	27289.87
586.828	27404.55
587.026	27384.07
587.223	27017.49
587.42	27341.07
587.618	27232.52
587.815	26593.56
588.012	26949.9
588.21	26775.83
588.407	26992.91
588.604	26423.58
588.801	26505.49
588.999	26345.75
589.196	26194.2
589.393	26384.66
589.59	26329.37
589.787	26056.99
589.984	26016.03
590.182	25860.38
590.379	26261.79
590.576	25749.79
590.773	25993.5
590.97	25778.47
591.167	25997.6
591.364	25448.74
591.561	25813.28
591.758	25436.45
591.955	25422.12
592.152	25631.01
592.349	25002.29
592.546	25280.81
592.743	25164.07
592.94	24774.96
593.137	25080.11
593.334	25250.09
593.531	24695.09
593.727	24791.34
593.924	24807.73
594.121	24475.96
594.318	24527.16
594.515	24238.39
594.712	24777.01
594.908	24076.6
595.105	24568.12
595.302	24092.99
595.499	24437.05
595.696	23957.82
595.892	24084.8
596.089	23996.73
596.286	24219.96
596.482	23871.81
596.679	23974.2
596.876	23818.56
597.072	23560.52
597.269	23787.84
597.466	23261.51
597.662	23189.83
597.859	23261.51
598.055	23593.28
598.252	23423.3
598.448	23189.83
598.645	23114.06
598.841	22776.14
599.038	23066.95
599.234	22821.2
599.431	22743.38
599.627	22804.81
599.824	22683.98
600.02	22473.04
600.217	22518.1
600.413	22632.79
600.609	22493.52
600.806	22184.28
601.002	22589.78
601.198	22102.36
601.395	22067.55
601.591	22149.46
601.787	21961.05
601.984	22026.59
602.18	22413.65
602.376	21926.24
602.572	21895.52
602.769	21567.84
602.965	21457.25
603.161	21750.11
603.357	21406.05
603.553	21590.37
603.75	21496.16
603.946	21018.99
604.142	21395.81
604.338	20853.1
604.534	21223.78
604.73	20834.67
604.926	20787.57
605.122	21027.18
605.318	20838.76
605.514	20783.47
605.71	21002.6
605.906	20816.24
606.102	20785.52
606.298	20480.37
606.494	20345.2
606.69	20615.54
606.886	20658.54
607.082	20081.02
607.278	20644.21
607.474	20222.33
607.67	20656.5
607.866	20066.68
608.062	20158.84
608.257	20070.78
608.453	20167.03
608.649	20144.5
608.845	20048.25
609.041	19669.37
609.236	20095.35
609.432	19913.08
609.628	19827.07
609.824	19874.17
610.019	19636.61
610.215	19964.28
610.411	19941.75
610.606	19642.75
610.802	19693.95
610.998	19517.82
611.193	19728.77
611.389	19456.39
611.584	19409.28
611.78	19263.88
611.976	19282.31
612.171	19132.81
612.367	19067.27
612.562	19161.48
612.758	19042.7
612.953	18846.09
613.149	19202.44
613.344	18995.59
613.539	19106.18
613.735	19272.07
613.93	18921.87
614.126	18811.28
614.321	19114.38
614.517	18977.16
614.712	18909.58
614.907	18735.5
615.103	18635.15
615.298	18839.95
615.493	18895.24
615.688	18467.22
615.884	18905.48
616.079	18434.45
616.274	19034.5
616.47	18571.66
616.665	18526.61
616.86	18274.71
617.055	18350.48
617.25	18239.89
617.445	18377.11
617.641	18248.08
617.836	18446.74
618.031	18084.25
618.226	18020.76
618.421	18082.2
618.616	18336.15
618.811	17867.16
619.006	18209.17
619.201	17461.66
619.396	17838.49
619.591	17693.08
619.786	17676.7
619.981	17578.4
620.176	17686.94
620.371	17189.28
620.566	17467.81
620.761	17109.41
620.956	17443.23
621.151	17121.7
621.346	17336.74
621.541	16824.75
621.735	17004.97
621.93	16468.4
622.125	16814.51
622.32	16454.06
622.515	16460.21
622.709	16667.05
622.904	16478.64
623.099	16513.45
623.294	16300.47
623.488	15931.83
623.683	15946.17
623.878	16056.76
624.072	16009.65
624.267	15970.74
624.462	15950.26
624.656	15679.93
624.851	15733.18
625.046	15380.93
625.24	15452.61
625.435	15139.27
625.629	15542.72
625.824	15305.15
626.018	15184.32
626.213	14709.19
626.407	14948.81
626.602	14836.17
626.796	14979.53
626.991	14832.07
627.185	14662.09
627.38	14295.5
627.574	14234.07
627.768	14131.67
627.963	14293.46
628.157	14170.58
628.352	14246.35
628.546	14031.32
628.74	14019.03
628.935	13973.97
629.129	14098.9
629.323	13668.83
629.517	13789.66
629.712	13771.22
629.906	13609.43
630.1	13347.29
630.294	13365.73
630.489	13277.66
630.683	13302.24
630.877	13033.96
631.071	13234.66
631.265	12997.09
631.459	13054.44
631.653	12710.38
631.848	12935.65
632.042	12753.38
632.236	12786.15
632.43	12737
632.624	12671.47
632.818	12610.03
633.012	12489.2
633.206	12458.48
633.4	12624.36
633.594	12290.54
633.788	12009.97
633.982	12112.37
634.176	12163.57
634.369	12159.47
634.563	12237.3
634.757	12007.92
634.951	11909.62
635.145	11987.44
635.339	11885.05
635.533	11684.34
635.726	11739.64
635.92	11569.66
636.114	11475.45
636.308	11348.48
636.501	11491.84
636.695	11446.78
636.889	11307.52
637.083	11346.43
637.276	11026.95
637.47	11137.54
637.664	10938.88
637.857	11063.81
638.051	10996.23
638.244	10854.92
638.438	10697.22
638.632	10701.32
638.825	10686.98
639.019	10541.58
639.212	10525.19
639.406	10596.87
639.599	10467.85
639.793	10281.49
639.986	10465.8
640.18	10553.87
640.373	10097.17
640.567	10320.4
640.76	10134.03
640.954	10189.33
641.147	9865.75
641.34	10015.25
641.534	9992.72
641.727	9902.61
641.92	9994.77
642.114	9708.05
642.307	9595.42
642.5	9703.96
642.694	9697.81
642.887	9509.4
643.08	9597.46
643.273	9484.83
643.467	9460.25
643.66	9394.72
643.853	9189.92
644.046	9241.12
644.239	9318.94
644.432	9249.31
644.626	9153.05
644.819	9110.05
645.012	9136.67
645.205	9032.22
645.398	9075.23
645.591	8938.02
645.784	8948.26
645.977	9058.85
646.17	8786.47
646.363	8952.35
646.556	8634.92
646.749	8550.95
646.942	8735.27
647.135	8548.9
647.328	8299.05
647.521	8401.45
647.714	8546.86
647.907	8448.55
648.099	8352.3
648.292	8260.14
648.485	8356.4
648.678	8303.15
648.871	8018.48
649.064	7985.71
649.256	8198.7
649.449	8000.05
649.642	7873.07
649.835	7850.55
650.027	7764.53
650.22	7813.68
650.413	7842.35
650.605	7881.27
650.798	7762.48
650.991	7561.78
651.183	7733.81
651.376	7672.37
651.568	7551.54
651.761	7596.6
651.954	7473.72
652.146	7547.45
652.339	7412.28
652.531	7514.68
652.724	7336.51
652.916	7291.45
653.109	7301.69
653.301	7350.84
653.494	7158.33
653.686	7072.32
653.879	7209.53
654.071	6992.45
654.263	7084.61
654.456	7019.07
654.648	6996.54
654.84	6826.56
655.033	6873.67
655.225	6904.39
655.417	6668.87
655.61	6836.8
655.802	6816.32
655.994	6736.45
656.186	6906.43
656.379	6761.03
656.571	6531.65
656.763	6650.44
656.955	6576.71
657.148	6531.65
657.34	6691.4
657.532	6337.1
657.724	6488.65
657.916	6627.91
658.108	6367.82
658.3	6273.61
658.492	6228.56
658.684	6240.84
658.876	6296.14
659.068	6156.88
659.26	5931.6
659.452	6201.93
659.644	6154.83
659.836	6048.33
660.028	6072.91
660.22	5911.12
660.412	6132.3
660.604	5954.13
660.796	5950.03
660.988	5864.02
661.18	5968.46
661.372	5806.67
661.563	5933.65
661.755	5732.95
661.947	5704.28
662.139	5786.19
662.331	5732.95
662.522	5603.93
662.714	5556.82
662.906	5462.62
663.097	5687.89
663.289	5476.95
663.481	5679.7
663.673	5505.62
663.864	5257.82
664.056	5528.15
664.247	5452.38
664.439	5325.4
664.631	5374.55
664.822	5339.74
665.014	5218.91
665.205	5321.31
665.397	5292.63
665.588	5282.39
665.78	5177.95
665.971	5268.06
666.163	5206.62
666.354	5089.88
666.546	5153.37
666.737	5218.91
666.929	5048.93
667.12	5046.88
667.311	5081.69
667.503	5071.45
667.694	5016.16
667.885	4780.64
668.077	5016.16
668.268	5032.54
668.459	4848.22
668.651	4827.74
668.842	4893.28
669.033	4899.42
669.224	4706.91
669.416	4835.94
669.607	4581.99
669.798	4600.42
669.989	4649.57
670.18	4711.01
670.371	4672.1
670.563	4627.04
670.754	4719.2
670.945	4760.16
671.136	4659.81
671.327	4579.94
671.518	4457.06
671.709	4635.24
671.9	4543.08
672.091	4651.62
672.282	4600.42
672.473	4485.73
672.664	4387.43
672.855	4405.86
673.046	4336.23
673.237	4495.97
673.428	4418.15
673.619	4483.69
673.809	4389.48
674	4366.95
674.191	4502.12
674.382	4319.85
674.573	4313.7
674.764	4307.56
674.954	4258.41
675.145	4229.74
675.336	4270.7
675.527	4209.26
675.717	4221.55
675.908	4231.79
676.099	4274.79
676.289	4272.75
676.48	4194.92
676.671	4084.33
676.861	4096.62
677.052	4219.5
677.243	4123.24
677.433	4084.33
677.624	4180.59
677.814	4074.09
678.005	3977.84
678.195	4039.28
678.386	4156.01
678.576	4065.9
678.767	4053.61
678.957	4156.01
679.148	4076.14
679.338	4006.51
679.529	4051.56
679.719	3846.77
679.909	4006.51
680.1	3930.73
680.29	3992.17
680.481	3801.71
680.671	3936.88
680.861	3877.49
681.052	4045.42
681.242	3863.15
681.432	3885.68
681.622	3877.49
681.813	3959.41
682.003	3799.66
682.193	3818.1
682.383	3828.34
682.573	3900.02
682.764	3777.14
682.954	3754.61
683.144	3928.69
683.334	3717.75
683.524	3887.73
683.714	3908.21
683.904	3844.72
684.094	3762.8
684.284	3887.73
684.474	3752.56
684.664	3560.05
684.854	3705.46
685.044	3824.24
685.234	3707.51
685.424	3713.65
685.614	3738.23
685.804	3766.9
685.994	3584.63
686.184	3779.18
686.374	3607.16
686.564	3482.23
686.753	3633.78
686.943	3586.68
687.133	3770.99
687.323	3519.09
687.513	3535.48
687.702	3570.29
687.892	3570.29
688.082	3531.38
688.272	3498.61
688.461	3328.63
688.651	3560.05
688.841	3467.89
689.03	3353.21
689.22	3312.25
689.41	3338.87
689.599	3400.31
689.789	3345.02
689.979	3316.34
690.168	3254.9
690.358	3353.21
690.547	3158.65
690.737	3269.24
690.926	3351.16
691.116	3318.39
691.305	3367.54
691.495	3263.1
691.684	3220.09
691.874	3193.47
692.063	3195.51
692.252	3215.99
692.442	3080.83
692.631	3041.92
692.82	3082.88
693.01	3134.07
693.199	3197.56
693.388	3166.84
693.578	2960
693.767	3142.27
693.956	3009.15
694.146	2904.7
694.335	2957.95
694.524	3105.4
694.713	3029.63
694.902	2978.43
695.092	2914.94
695.281	2974.33
695.47	3033.72
695.659	2960
695.848	3021.44
696.037	2962.05
696.226	2970.24
696.415	2751.1
696.604	2828.93
696.793	2835.07
696.982	2957.95
697.171	2945.66
697.36	2790.02
697.549	2806.4
697.738	2884.22
697.927	2785.92
698.116	2818.69
698.305	2794.11
698.494	2873.98
698.683	2927.23
698.872	2855.55
699.061	2792.06
699.25	2806.4
699.438	2650.75
699.627	2851.46
699.816	2777.73
700.005	2714.24
700.193	2818.69
700.382	2718.34
700.571	2728.58
700.76	2749.06
700.948	2685.57
701.137	2716.29
701.326	2775.68
701.514	2738.82
701.703	2761.34
701.892	2626.18
702.08	2947.71
702.269	2744.96
702.457	2697.86
702.646	2814.59
702.834	2718.34
703.023	2761.34
703.212	2792.06
703.4	2726.53
703.589	2726.53
703.777	2851.46
703.965	2699.91
704.154	2716.29
704.342	2820.74
704.531	2542.21
704.719	2714.24
704.907	2863.74
705.096	2634.37
705.284	2671.23
705.472	2685.57
705.661	2783.87
705.849	2773.63
706.037	2771.58
706.226	2685.57
706.414	2820.74
706.602	2744.96
706.79	2728.58
706.979	2822.78
707.167	2747.01
707.355	2564.74
707.543	2792.06
707.731	2691.71
707.919	2609.79
708.107	2605.7
708.296	2773.63
708.484	2605.7
708.672	2755.2
708.86	2665.09
709.048	2611.84
709.236	2677.38
709.424	2669.19
709.612	2765.44
709.8	2652.8
709.988	2615.94
710.176	2695.81
710.364	2628.23
710.551	2628.23
710.739	2677.38
710.927	2683.52
711.115	2589.32
711.303	2650.75
711.491	2521.73
711.679	2646.66
711.866	2665.09
712.054	2650.75
712.242	2585.22
712.43	2681.47
712.617	2654.85
712.805	2740.86
712.993	2624.13
713.181	2560.64
713.368	2640.51
713.556	2691.71
713.744	2599.55
713.931	2640.51
714.119	2597.51
714.306	2767.49
714.494	2583.17
714.682	2585.22
714.869	2531.97
715.057	2620.03
715.244	2562.69
715.432	2632.32
715.619	2628.23
715.807	2730.62
715.994	2669.19
716.182	2581.12
716.369	2558.6
716.556	2663.04
716.744	2673.28
716.931	2734.72
717.119	2663.04
717.306	2599.55
717.493	2720.39
717.681	2548.36
717.868	2701.95
718.055	2640.51
718.242	2591.36
718.43	2603.65
718.617	2667.14
718.804	2634.37
718.991	2624.13
719.179	2785.92
719.366	2507.4
719.553	2599.55
719.74	2640.51
719.927	2660.99
720.114	2603.65
720.301	2568.84
720.488	2507.4
720.676	2644.61
720.863	2669.19
721.05	2630.27
721.237	2683.52
721.424	2656.9
721.611	2609.79
721.798	2558.6
721.985	2429.57
722.172	2527.88
722.358	2603.65
722.545	2583.17
722.732	2499.2
722.919	2624.13
723.106	2644.61
723.293	2638.47
723.48	2654.85
723.667	2693.76
723.853	2609.79
724.04	2597.51
724.227	2712.19
724.414	2558.6
724.6	2601.6
724.787	2632.32
724.974	2519.68
725.161	2734.72
725.347	2663.04
725.534	2656.9
725.72	2681.47
725.907	2552.45
726.094	2558.6
726.28	2683.52
726.467	2763.39
726.653	2617.99
726.84	2564.74
727.027	2597.51
727.213	2527.88
727.4	2566.79
727.586	2509.44
727.773	2642.56
727.959	2546.31
728.145	2677.38
728.332	2605.7
728.518	2724.48
728.705	2673.28
728.891	2605.7
729.077	2714.24
729.264	2587.27
729.45	2660.99
729.636	2650.75
729.823	2613.89
730.009	2704
730.195	2656.9
730.382	2658.95
730.568	2605.7
730.754	2609.79
730.94	2710.15
731.126	2556.55
731.313	2589.32
731.499	2632.32
731.685	2679.43
731.871	2628.23
732.057	2663.04
732.243	2581.12
732.429	2630.27
732.615	2611.84
732.801	2636.42
732.987	2613.89
733.173	2577.03
733.359	2472.58
733.545	2669.19
733.731	2591.36
733.917	2495.11
734.103	2605.7
734.289	2622.08
734.475	2652.8
734.661	2634.37
734.847	2642.56
735.033	2669.19
735.219	2734.72
735.404	2566.79
735.59	2640.51
735.776	2581.12
735.962	2652.8
736.148	2679.43
736.333	2671.23
736.519	2673.28
736.705	2728.58
736.89	2624.13
737.076	2679.43
737.262	2554.5
737.447	2589.32
737.633	2581.12
737.819	2626.18
738.004	2654.85
738.19	2546.31
738.375	2650.75
738.561	2642.56
738.747	2634.37
738.932	2480.77
739.118	2601.6
739.303	2501.25
739.489	2534.02
739.674	2484.87
739.859	2509.44
740.045	2554.5
740.23	2491.01
740.416	2546.31
740.601	2552.45
740.786	2691.71
740.972	2562.69
741.157	2511.49
741.342	2568.84
741.528	2531.97
741.713	2495.11
741.898	2448.01
742.084	2529.92
742.269	2572.93
742.454	2439.81
742.639	2452.1
742.824	2388.61
743.01	2509.44
743.195	2466.44
743.38	2454.15
743.565	2462.34
743.75	2507.4
743.935	2366.09
744.12	2413.19
744.305	2349.7
744.49	2361.99
744.675	2398.85
744.86	2239.11
745.045	2323.08
745.23	2353.8
745.415	2419.33
745.6	2359.94
745.785	2333.32
745.97	2382.47
746.155	2214.54
746.34	2402.95
746.525	2335.37
746.71	2321.03
746.895	2157.19
747.079	2288.26
747.264	2243.21
747.449	2210.44
747.634	2230.92
747.819	2271.88
748.003	2122.38
748.188	2083.47
748.373	2241.16
748.557	2138.76
748.742	2130.57
748.927	2120.33
749.111	2054.8
749.296	2030.22
749.481	2142.86
749.665	2110.09
749.85	2067.08
750.034	1995.4
750.219	2073.23
750.404	2024.08
750.588	1917.58
750.773	2073.23
750.957	2069.13
751.141	2009.74
751.326	1950.35
751.51	1886.86
751.695	1876.62
751.879	1956.49
752.064	1962.64
752.248	1866.38
752.432	1946.25
752.617	1733.26
752.801	1993.36
752.985	1860.24
753.17	1798.8
753.354	1811.09
753.538	1829.52
753.722	1770.13
753.907	1811.09
754.091	1720.98
754.275	1823.37
754.459	1661.59
754.643	1698.45
754.828	1673.87
755.012	1737.36
755.196	1667.73
755.38	1702.54
755.564	1579.67
755.748	1577.62
755.932	1749.65
756.116	1643.15
756.3	1688.21
756.484	1655.44
756.668	1663.63
756.852	1591.95
757.036	1589.91
757.22	1581.71
757.404	1557.14
757.588	1608.34
757.772	1557.14
757.956	1548.95
758.14	1565.33
758.323	1522.32
758.507	1473.17
758.691	1503.89
758.875	1481.36
759.059	1460.88
759.242	1489.56
759.426	1395.35
759.61	1460.88
759.794	1391.25
759.977	1464.98
760.161	1499.8
760.345	1393.3
760.528	1391.25
760.712	1307.29
760.895	1317.53
761.079	1419.92
761.263	1389.21
761.446	1428.12
761.63	1485.46
761.813	1370.77
761.997	1301.14
762.18	1329.81
762.364	1331.86
762.547	1235.61
762.731	1227.42
762.914	1352.34
763.098	1387.16
763.281	1192.6
763.464	1315.48
763.648	1329.81
763.831	1225.37
764.015	1202.84
764.198	1311.38
764.381	1297.05
764.564	1213.08
764.748	1192.6
764.931	1135.26
765.114	1243.8
765.297	1262.23
765.481	1208.98
765.664	1233.56
765.847	1186.46
766.03	1315.48
766.213	1200.79
766.397	1178.26
766.58	1174.17
766.763	1241.75
766.946	1286.81
767.129	1223.32
767.312	1149.59
767.495	1176.22
767.678	1100.44
767.861	1143.45
768.044	1057.43
768.227	1131.16
768.41	1188.5
768.593	1184.41
768.776	1106.59
768.959	1049.24
769.142	1090.2
769.324	1063.58
769.507	1202.84
769.69	1053.34
769.873	981.66
770.056	1067.67
770.239	985.76
770.421	1106.59
770.604	1059.48
770.787	1014.43
770.97	1053.34
771.152	1014.43
771.335	944.8
771.518	1028.76
771.7	1077.91
771.883	1051.29
772.066	1051.29
772.248	944.8
772.431	1120.92
772.613	1049.24
772.796	942.75
772.978	961.18
773.161	1041.05
773.343	1006.24
773.526	940.7
773.708	926.36
773.891	959.13
774.073	893.6
774.256	955.04
774.438	1014.43
774.621	838.3
774.803	889.5
774.985	856.73
775.168	959.13
775.35	848.54
775.532	936.6
775.715	858.78
775.897	772.77
776.079	862.88
776.261	817.82
776.444	856.73
776.626	770.72
776.808	875.17
776.99	797.34
777.173	957.08
777.355	864.93
777.537	795.29
777.719	823.97
777.901	819.87
778.083	754.34
778.265	770.72
778.447	856.73
778.629	723.62
778.811	838.3
778.993	703.14
779.175	801.44
779.357	764.57
779.539	688.8
779.721	637.6
779.903	635.55
780.085	709.28
780.267	694.94
780.449	688.8
780.631	762.53
780.812	754.34
780.994	627.36
781.176	664.22
781.358	692.9
781.54	639.65
781.721	672.42
781.903	604.83
782.085	692.9
782.267	637.6
782.448	598.69
782.63	666.27
782.812	635.55
782.993	610.98
783.175	625.31
783.357	602.79
783.538	653.98
783.72	666.27
783.901	576.16
784.083	586.4
784.264	592.55
784.446	586.4
784.627	555.68
784.809	590.5
784.99	637.6
785.172	557.73
785.353	492.2
785.535	498.34
785.716	508.58
785.897	461.48
786.079	621.22
786.26	543.39
786.441	561.83
786.623	502.43
786.804	561.83
786.985	524.96
787.167	463.52
787.348	459.43
787.529	484
787.71	567.97
787.891	498.34
788.073	506.53
788.254	475.81
788.435	502.43
788.616	557.73
788.797	500.39
788.978	447.14
789.159	461.48
789.34	494.24
789.522	463.52
789.703	463.52
789.884	443.04
790.065	445.09
790.246	443.04
790.427	436.9
790.607	447.14
790.788	424.61
790.969	426.66
791.15	445.09
791.331	385.7
791.512	404.13
791.693	436.9
791.874	432.8
792.054	408.23
792.235	467.62
792.416	408.23
792.597	336.55
792.778	383.65
792.958	387.75
793.139	348.84
793.32	410.28
793.5	352.93
793.681	336.55
793.862	453.28
794.042	383.65
794.223	293.54
794.404	336.55
794.584	346.79
794.765	314.02
794.945	293.54
795.126	311.97
795.306	354.98
795.487	350.89
795.667	305.83
795.848	367.27
796.028	406.18
796.209	369.32
796.389	277.16
796.57	279.21
796.75	281.25
796.93	344.74
797.111	322.21
797.291	420.52
797.471	322.21
797.652	316.07
797.832	303.78
798.012	375.46
798.192	189.1
798.373	238.25
798.553	357.03
798.733	322.21
798.913	322.21
799.093	309.93
799.274	291.49
799.454	266.92
799.634	277.16
799.814	320.17
799.994	316.07
800.174	309.93
800.354	357.03
800.534	328.36
800.714	344.74
800.894	299.69
801.074	174.76
801.254	273.06
801.434	350.89
801.614	256.68
801.794	271.01
801.974	592.55
802.154	223.91
802.334	287.4
802.514	244.39
802.693	260.77
802.873	215.72
803.053	303.78
803.233	363.17
803.413	330.41
803.592	262.82
803.772	262.82
803.952	277.16
804.131	264.87
804.311	213.67
804.491	244.39
804.67	187.05
804.85	217.77
805.03	250.53
805.209	260.77
805.389	273.06
805.568	209.58
805.748	230.06
805.928	266.92
806.107	232.1
806.287	219.82
806.466	230.06
806.646	266.92
806.825	277.16
807.004	260.77
807.184	221.86
807.363	191.14
807.543	283.3
807.722	182.95
807.901	174.76
808.081	219.82
808.26	182.95
808.439	246.44
808.619	152.23
808.798	180.9
808.977	207.53
809.156	207.53
809.336	92.84
809.515	258.73
809.694	197.29
809.873	234.15
810.052	166.57
810.231	201.38
810.411	160.42
810.59	254.63
810.769	240.29
810.948	166.57
811.127	199.34
811.306	176.81
811.485	215.72
811.664	154.28
811.843	228.01
812.022	109.22
812.201	158.38
812.38	158.38
812.559	160.42
812.737	207.53
812.916	191.14
813.095	144.04
813.274	154.28
813.453	139.94
813.632	127.66
813.811	182.95
813.989	80.55
814.168	113.32
814.347	168.62
814.526	193.19
814.704	158.38
814.883	193.19
815.062	156.33
815.24	248.49
815.419	207.53
815.598	174.76
815.776	111.27
815.955	185
816.133	139.94
816.312	197.29
816.49	191.14
816.669	180.9
816.847	150.18
817.026	58.03
817.204	117.42
817.383	148.14
817.561	162.47
817.74	62.12
817.918	172.71
818.097	105.13
818.275	121.51
818.453	137.9
818.632	125.61
818.81	158.38
818.988	103.08
819.167	174.76
819.345	107.18
819.523	127.66
819.701	168.62
819.879	121.51
820.058	207.53
820.236	158.38
820.414	72.36
820.592	146.09
820.77	141.99
820.948	150.18
821.127	135.85
821.305	117.42
821.483	135.85
821.661	105.13
821.839	125.61
822.017	103.08
822.195	107.18
822.373	123.56
822.551	101.03
822.729	129.7
822.907	123.56
823.085	137.9
823.262	133.8
823.44	113.32
823.618	98.99
823.796	187.05
823.974	170.66
824.152	144.04
824.329	150.18
824.507	88.75
824.685	150.18
824.863	111.27
825.04	109.22
825.218	113.32
825.396	88.75
825.574	80.55
825.751	60.07
825.929	103.08
826.107	33.45
826.284	94.89
826.462	103.08
826.639	80.55
826.817	148.14
826.994	101.03
827.172	86.7
827.349	55.98
827.527	125.61
827.704	78.51
827.882	119.46
828.059	86.7
828.237	96.94
828.414	119.46
828.591	82.6
828.769	53.93
828.946	107.18
829.124	152.23
829.301	178.86
829.478	51.88
829.655	115.37
829.833	92.84
830.01	21.16
830.187	135.85
830.364	80.55
830.542	113.32
830.719	90.79
830.896	88.75
831.073	103.08
831.25	58.03
831.427	107.18
831.604	203.43
831.782	72.36
831.959	160.42
832.136	103.08
832.313	45.74
832.49	103.08
832.667	109.22
832.844	107.18
833.021	90.79
833.198	64.17
833.374	51.88
833.551	82.6
833.728	19.11
833.905	139.94
834.082	111.27
834.259	94.89
834.436	80.55
834.612	29.35
834.789	66.22
834.966	129.7
835.143	105.13
835.319	80.55
835.496	55.98
835.673	74.41
835.85	58.03
836.026	51.88
836.203	117.42
836.38	6.83
836.556	139.94
836.733	74.41
836.909	127.66
837.086	-1.37
837.262	88.75
837.439	49.83
837.616	23.21
837.792	-13.65
837.968	137.9
838.145	74.41
838.321	43.69
838.498	37.55
838.674	86.7
838.851	139.94
839.027	125.61
839.203	21.16
839.38	76.46
839.556	27.31
839.732	111.27
839.909	-3.41
840.085	49.83
840.261	31.4
840.437	94.89
840.614	58.03
840.79	29.35
840.966	125.61
841.142	80.55
841.318	58.03
841.494	109.22
841.671	86.7
841.847	90.79
842.023	98.99
842.199	66.22
842.375	33.45
842.551	41.64
842.727	80.55
842.903	80.55
843.079	62.12
843.255	111.27
843.431	51.88
843.607	80.55
843.783	29.35
843.959	21.16
844.134	49.83
844.31	37.55
844.486	-17.75
844.662	53.93
844.838	156.33
845.013	103.08
845.189	66.22
845.365	-5.46
845.541	-1.37
845.716	-7.51
845.892	139.94
846.068	25.26
846.244	70.31
846.419	76.46
846.595	-11.61
846.77	84.65
846.946	55.98
847.122	25.26
847.297	23.21
847.473	117.42
847.648	111.27
847.824	88.75
847.999	39.59
848.175	82.6
848.35	47.79
848.526	51.88
848.701	72.36
848.876	53.93
849.052	47.79
849.227	94.89
849.403	92.84
849.578	53.93
849.753	66.22
849.929	107.18
850.104	8.87
850.279	-1.37
850.454	37.55
850.63	33.45
850.805	-5.46
850.98	129.7
851.155	72.36
851.33	58.03
851.505	66.22
851.681	80.55
851.856	15.02
852.031	96.94
852.206	76.46
852.381	31.4
852.556	-56.66
852.731	80.55
852.906	60.07
853.081	47.79
853.256	111.27
853.431	19.11
853.606	27.31
853.781	-25.94
853.956	-42.32
854.131	98.99
854.305	78.51
854.48	21.16
854.655	45.74
854.83	35.5
855.005	-25.94
855.18	68.27
855.354	74.41
855.529	43.69
855.704	19.11
855.879	78.51
856.053	-30.04
856.228	92.84
856.403	55.98
856.577	146.09
856.752	-30.04
856.926	15.02
857.101	47.79
857.276	55.98
857.45	68.27
857.625	49.83
857.799	35.5
857.974	2.73
858.148	31.4
858.323	53.93
858.497	10.92
858.672	-13.65
858.846	17.07
859.02	12.97
859.195	41.64
859.369	8.87
859.543	10.92
859.718	-66.9
859.892	17.07
860.066	66.22
860.241	80.55
860.415	-15.7
860.589	31.4
860.763	78.51
860.938	-36.18
861.112	47.79
861.286	2.73
861.46	-21.85
861.634	21.16
861.808	39.59
861.982	17.07
862.157	27.31
862.331	6.83
862.505	84.65
862.679	-23.89
862.853	58.03
863.027	-3.41
863.201	58.03
863.375	-34.13
863.549	12.97
863.722	-7.51
863.896	107.18
864.07	19.11
864.244	8.87
864.418	-7.51
864.592	74.41
864.766	51.88
864.939	8.87
865.113	23.21
865.287	39.59
865.461	35.5
865.634	74.41
865.808	47.79
865.982	60.07
866.156	15.02
866.329	-7.51
866.503	84.65
866.676	113.32
866.85	4.78
867.024	0.68
867.197	-15.7
867.371	15.02
867.544	23.21
867.718	4.78
867.891	23.21
868.065	-9.56
868.238	17.07
868.412	-21.85
868.585	84.65
868.759	-5.46
868.932	80.55
869.105	51.88
869.279	27.31
869.452	-7.51
869.625	49.83
869.799	15.02
869.972	2.73
870.145	8.87
870.319	-46.42
870.492	15.02
870.665	27.31
870.838	6.83
871.011	-38.23
871.185	27.31
871.358	66.22
871.531	41.64
871.704	53.93
871.877	53.93
872.05	-1.37
872.223	-3.41
872.396	15.02
872.569	76.46
872.742	31.4
872.915	10.92
873.088	-23.89
873.261	19.11
873.434	23.21
873.607	23.21
873.78	53.93
873.953	23.21
874.126	35.5
874.299	27.31
874.471	45.74
874.644	27.31
874.817	41.64
874.99	25.26
875.163	29.35
875.335	84.65
875.508	-7.51
875.681	41.64
875.853	8.87
876.026	62.12
876.199	15.02
876.371	19.11
876.544	92.84
876.717	47.79
876.889	-17.75
877.062	-38.23
877.234	58.03
877.407	-15.7
877.579	-46.42
877.752	-13.65
877.924	-48.47
878.097	-66.9
878.269	47.79
878.442	37.55
878.614	-64.85
878.786	29.35
878.959	51.88
879.131	37.55
879.303	-40.28
879.476	-27.99
879.648	2.73
879.82	49.83
879.993	8.87
880.165	51.88
880.337	-30.04
880.509	64.17
880.681	4.78
880.854	6.83
881.026	51.88
881.198	68.27
881.37	0.68
881.542	-7.51
881.714	-5.46
881.886	15.02
882.058	27.31
882.23	-25.94
882.402	-21.85
882.574	21.16
882.746	49.83
882.918	74.41
883.09	70.31
883.262	74.41
883.434	19.11
883.606	-15.7
883.778	0.68
883.95	109.22
884.122	62.12
884.293	76.46
884.465	-38.23
884.637	45.74
884.809	-17.75
884.98	31.4
885.152	82.6
885.324	-9.56
885.496	27.31
885.667	21.16
885.839	-13.65
886.011	92.84
886.182	37.55
886.354	-7.51
886.525	-17.75
886.697	74.41
886.869	-54.61
887.04	-15.7
887.212	6.83
887.383	-42.32
887.555	98.99
887.726	39.59
887.897	21.16
888.069	31.4
888.24	21.16
888.412	-5.46
888.583	45.74
888.754	6.83
888.926	15.02
889.097	-32.08
889.268	29.35
889.44	6.83
889.611	4.78
889.782	39.59
889.953	66.22
890.125	-15.7
890.296	-7.51
890.467	53.93
890.638	-36.18
890.809	-85.33
890.98	-17.75
891.151	72.36
891.323	0.68
891.494	17.07
891.665	-15.7
891.836	17.07
892.007	51.88
892.178	17.07
892.349	37.55
892.52	45.74
892.691	47.79
892.862	8.87
893.032	17.07
893.203	8.87
893.374	-1.37
893.545	33.45
893.716	-101.72
893.887	8.87
894.057	-1.37
894.228	19.11
894.399	-7.51
894.57	43.69
894.74	37.55
894.911	-1.37
895.082	-32.08
895.253	37.55
895.423	-5.46
895.594	45.74
895.764	-17.75
895.935	-7.51
896.106	6.83
896.276	-27.99
896.447	-9.56
896.617	-3.41
896.788	-64.85
896.958	31.4
897.129	45.74
897.299	-38.23
897.47	-56.66
897.64	-3.41
897.81	-11.61
897.981	-1.37
898.151	49.83
898.322	45.74
898.492	17.07
898.662	-79.19
898.832	-32.08
899.003	-134.48
899.173	6.83
899.343	-40.28
899.513	12.97
