Data from USB4F104151__98__11-45-48-052.txt Node

Date: Fri Mar 14 11:45:48 EDT 2025
User: louis
Spectrometer: USB4F10415
Trigger mode: 4
Integration Time (sec): 2.000000E-2
Scans to average: 1
Electric dark correction enabled: true
Nonlinearity correction enabled: false
Boxcar width: 0
XAxis mode: Wavelengths
Number of Pixels in Spectrum: 3648
>>>>>Begin Spectral Data<<<<<
178.204	-83.97
178.424	-83.97
178.644	-83.97
178.864	-88.06
179.084	-10.24
179.304	-18.43
179.524	36.86
179.744	-32.77
179.964	16.38
180.184	-45.06
180.404	-12.29
180.624	8.19
180.844	14.34
181.064	12.29
181.283	34.82
181.503	8.19
181.723	-22.53
181.943	-26.62
182.163	102.4
182.383	6.14
182.602	81.92
182.822	57.34
183.042	14.34
183.262	16.38
183.482	12.29
183.701	18.43
183.921	34.82
184.141	40.96
184.361	-16.38
184.58	34.82
184.8	2.05
185.02	28.67
185.239	45.06
185.459	-2.05
185.679	49.15
185.898	24.58
186.118	88.06
186.338	-32.77
186.557	20.48
186.777	-4.1
186.997	-30.72
187.216	-6.14
187.436	100.35
187.655	28.67
187.875	57.34
188.095	73.73
188.314	118.78
188.534	14.34
188.753	-22.53
188.973	2.05
189.192	18.43
189.412	6.14
189.631	4.1
189.851	2.05
190.07	53.25
190.29	10.24
190.509	14.34
190.729	2.05
190.948	96.25
191.168	18.43
191.387	8.19
191.607	-40.96
191.826	26.62
192.045	32.77
192.265	28.67
192.484	47.1
192.704	-49.15
192.923	24.58
193.142	69.63
193.362	22.53
193.581	-22.53
193.8	20.48
194.02	88.06
194.239	24.58
194.458	-14.34
194.678	36.86
194.897	-0
195.116	-20.48
195.335	-61.44
195.555	40.96
195.774	-0
195.993	4.1
196.212	104.45
196.432	63.49
196.651	79.87
196.87	45.06
197.089	88.06
197.308	-81.92
197.528	79.87
197.747	47.1
197.966	-63.49
198.185	131.07
198.404	34.82
198.623	4.1
198.842	86.01
199.062	2.05
199.281	94.21
199.5	-10.24
199.719	116.73
199.938	51.2
200.157	73.73
200.376	49.15
200.595	61.44
200.814	40.96
201.033	38.91
201.252	75.77
201.471	104.45
201.69	40.96
201.909	104.45
202.128	22.53
202.347	63.49
202.566	-18.43
202.785	-4.1
203.004	8.19
203.223	30.72
203.442	81.92
203.661	40.96
203.879	-26.62
204.098	59.39
204.317	-8.19
204.536	-40.96
204.755	-90.11
204.974	-6.14
205.193	-34.82
205.411	71.68
205.63	28.67
205.849	51.2
206.068	14.34
206.287	6.14
206.505	6.14
206.724	96.25
206.943	34.82
207.162	-2.05
207.381	28.67
207.599	22.53
207.818	34.82
208.037	43.01
208.255	47.1
208.474	-0
208.693	-45.06
208.911	100.35
209.13	45.06
209.349	28.67
209.567	49.15
209.786	8.19
210.005	-16.38
210.223	75.77
210.442	-8.19
210.661	61.44
210.879	40.96
211.098	-8.19
211.316	18.43
211.535	-22.53
211.753	30.72
211.972	98.3
212.191	6.14
212.409	-4.1
212.628	-8.19
212.846	40.96
213.065	4.1
213.283	-14.34
213.502	-4.1
213.72	22.53
213.938	-10.24
214.157	96.25
214.375	36.86
214.594	4.1
214.812	26.62
215.031	69.63
215.249	-49.15
215.467	102.4
215.686	6.14
215.904	71.68
216.122	59.39
216.341	-12.29
216.559	71.68
216.778	96.25
216.996	40.96
217.214	10.24
217.432	63.49
217.651	-47.1
217.869	55.3
218.087	8.19
218.306	-20.48
218.524	71.68
218.742	49.15
218.96	10.24
219.179	-6.14
219.397	-59.39
219.615	96.25
219.833	71.68
220.051	-96.25
220.27	43.01
220.488	49.15
220.706	32.77
220.924	-28.67
221.142	83.97
221.36	34.82
221.578	-0
221.796	28.67
222.015	8.19
222.233	-67.58
222.451	126.97
222.669	-75.77
222.887	24.58
223.105	16.38
223.323	36.86
223.541	43.01
223.759	-28.67
223.977	-4.1
224.195	53.25
224.413	36.86
224.631	10.24
224.849	26.62
225.067	73.73
225.285	26.62
225.503	26.62
225.721	47.1
225.939	20.48
226.157	12.29
226.375	53.25
226.592	12.29
226.81	2.05
227.028	16.38
227.246	34.82
227.464	92.16
227.682	45.06
227.9	2.05
228.117	-2.05
228.335	8.19
228.553	4.1
228.771	86.01
228.989	59.39
229.206	36.86
229.424	34.82
229.642	61.44
229.86	12.29
230.077	100.35
230.295	16.38
230.513	22.53
230.731	20.48
230.948	12.29
231.166	-88.06
231.384	14.34
231.601	12.29
231.819	14.34
232.037	20.48
232.254	6.14
232.472	49.15
232.689	18.43
232.907	49.15
233.125	10.24
233.342	36.86
233.56	36.86
233.777	57.34
233.995	-4.1
234.213	34.82
234.43	81.92
234.648	32.77
234.865	16.38
235.083	4.1
235.3	49.15
235.518	-40.96
235.735	83.97
235.953	110.59
236.17	51.2
236.388	59.39
236.605	-32.77
236.822	77.82
237.04	45.06
237.257	-22.53
237.475	40.96
237.692	-2.05
237.909	20.48
238.127	45.06
238.344	22.53
238.562	20.48
238.779	59.39
238.996	-57.34
239.214	-57.34
239.431	36.86
239.648	-18.43
239.865	24.58
240.083	36.86
240.3	38.91
240.517	-43.01
240.735	6.14
240.952	53.25
241.169	22.53
241.386	-22.53
241.603	-12.29
241.821	-26.62
242.038	47.1
242.255	43.01
242.472	-22.53
242.689	-12.29
242.907	51.2
243.124	73.73
243.341	-16.38
243.558	49.15
243.775	-18.43
243.992	12.29
244.209	59.39
244.426	65.53
244.643	102.4
244.86	77.82
245.078	40.96
245.295	26.62
245.512	10.24
245.729	-34.82
245.946	24.58
246.163	88.06
246.38	40.96
246.597	-45.06
246.814	32.77
247.031	139.26
247.248	16.38
247.464	47.1
247.681	18.43
247.898	47.1
248.115	8.19
248.332	67.58
248.549	92.16
248.766	73.73
248.983	-12.29
249.2	26.62
249.417	67.58
249.633	73.73
249.85	49.15
250.067	12.29
250.284	30.72
250.501	-45.06
250.717	47.1
250.934	20.48
251.151	-14.34
251.368	49.15
251.585	67.58
251.801	12.29
252.018	-16.38
252.235	20.48
252.451	20.48
252.668	12.29
252.885	53.25
253.102	36.86
253.318	83.97
253.535	-34.82
253.752	63.49
253.968	-0
254.185	-32.77
254.401	55.3
254.618	57.34
254.835	40.96
255.051	36.86
255.268	14.34
255.484	36.86
255.701	38.91
255.917	67.58
256.134	63.49
256.351	43.01
256.567	-45.06
256.784	22.53
257	65.53
257.217	106.49
257.433	24.58
257.65	26.62
257.866	69.63
258.082	16.38
258.299	6.14
258.515	36.86
258.732	-4.1
258.948	28.67
259.165	8.19
259.381	49.15
259.597	12.29
259.814	-18.43
260.03	4.1
260.246	47.1
260.463	24.58
260.679	83.97
260.895	36.86
261.112	-34.82
261.328	20.48
261.544	77.82
261.761	118.78
261.977	28.67
262.193	-18.43
262.409	10.24
262.626	57.34
262.842	-16.38
263.058	36.86
263.274	12.29
263.49	16.38
263.707	59.39
263.923	24.58
264.139	26.62
264.355	6.14
264.571	104.45
264.787	8.19
265.004	36.86
265.22	88.06
265.436	10.24
265.652	10.24
265.868	14.34
266.084	106.49
266.3	61.44
266.516	-12.29
266.732	47.1
266.948	-6.14
267.164	98.3
267.38	90.11
267.596	102.4
267.812	67.58
268.028	63.49
268.244	40.96
268.46	67.58
268.676	8.19
268.892	-30.72
269.108	-0
269.324	34.82
269.54	12.29
269.756	75.77
269.972	-2.05
270.188	143.36
270.403	16.38
270.619	88.06
270.835	-8.19
271.051	51.2
271.267	-92.16
271.483	4.1
271.698	83.97
271.914	55.3
272.13	16.38
272.346	65.53
272.562	-79.87
272.777	4.1
272.993	38.91
273.209	55.3
273.425	73.73
273.64	53.25
273.856	16.38
274.072	6.14
274.287	24.58
274.503	20.48
274.719	14.34
274.934	-38.91
275.15	36.86
275.366	20.48
275.581	4.1
275.797	51.2
276.012	69.63
276.228	51.2
276.444	-28.67
276.659	43.01
276.875	12.29
277.09	45.06
277.306	-0
277.521	-12.29
277.737	-59.39
277.952	-20.48
278.168	14.34
278.383	114.69
278.599	-14.34
278.814	98.3
279.03	-4.1
279.245	-12.29
279.461	61.44
279.676	104.45
279.892	-59.39
280.107	-2.05
280.322	-26.62
280.538	24.58
280.753	14.34
280.969	-2.05
281.184	-12.29
281.399	116.73
281.615	24.58
281.83	59.39
282.045	6.14
282.26	-40.96
282.476	104.45
282.691	10.24
282.906	-2.05
283.122	45.06
283.337	20.48
283.552	83.97
283.767	4.1
283.983	40.96
284.198	16.38
284.413	73.73
284.628	-14.34
284.843	8.19
285.058	-16.38
285.274	26.62
285.489	-65.54
285.704	96.25
285.919	-51.2
286.134	6.14
286.349	-12.29
286.564	59.39
286.779	88.06
286.995	49.15
287.21	-24.58
287.425	2.05
287.64	24.58
287.855	59.39
288.07	-14.34
288.285	10.24
288.5	-12.29
288.715	30.72
288.93	-6.14
289.145	-59.39
289.36	79.87
289.575	2.05
289.79	92.16
290.004	-32.77
290.219	73.73
290.434	4.1
290.649	-2.05
290.864	34.82
291.079	-4.1
291.294	133.12
291.509	55.3
291.724	-36.86
291.938	-26.62
292.153	67.58
292.368	67.58
292.583	-30.72
292.798	57.34
293.012	12.29
293.227	55.3
293.442	75.77
293.657	24.58
293.871	49.15
294.086	45.06
294.301	32.77
294.516	22.53
294.73	36.86
294.945	43.01
295.16	88.06
295.374	65.53
295.589	98.3
295.804	10.24
296.018	49.15
296.233	73.73
296.447	106.49
296.662	53.25
296.877	49.15
297.091	63.49
297.306	16.38
297.52	6.14
297.735	45.06
297.949	-2.05
298.164	8.19
298.378	40.96
298.593	-61.44
298.807	22.53
299.022	47.1
299.236	14.34
299.451	133.12
299.665	-32.77
299.88	40.96
300.094	75.77
300.309	-20.48
300.523	77.82
300.737	30.72
300.952	57.34
301.166	88.06
301.381	32.77
301.595	43.01
301.809	4.1
302.024	34.82
302.238	53.25
302.452	28.67
302.667	36.86
302.881	-6.14
303.095	49.15
303.309	96.25
303.524	45.06
303.738	40.96
303.952	53.25
304.166	43.01
304.381	73.73
304.595	16.38
304.809	4.1
305.023	49.15
305.237	57.34
305.452	6.14
305.666	26.62
305.88	-4.1
306.094	67.58
306.308	20.48
306.522	34.82
306.736	53.25
306.95	77.82
307.164	22.53
307.379	10.24
307.593	69.63
307.807	34.82
308.021	8.19
308.235	40.96
308.449	-14.34
308.663	18.43
308.877	104.45
309.091	61.44
309.305	67.58
309.519	-30.72
309.733	124.93
309.947	16.38
310.161	86.01
310.374	10.24
310.588	45.06
310.802	-0
311.016	10.24
311.23	24.58
311.444	30.72
311.658	86.01
311.872	38.91
312.085	-12.29
312.299	45.06
312.513	30.72
312.727	86.01
312.941	22.53
313.154	43.01
313.368	114.69
313.582	131.07
313.796	14.34
314.009	-8.19
314.223	53.25
314.437	2.05
314.651	49.15
314.864	-4.1
315.078	90.11
315.292	18.43
315.505	10.24
315.719	20.48
315.933	26.62
316.146	-0
316.36	59.39
316.573	75.77
316.787	32.77
317.001	75.77
317.214	61.44
317.428	12.29
317.641	10.24
317.855	-6.14
318.068	20.48
318.282	55.3
318.495	45.06
318.709	28.67
318.922	65.53
319.136	120.83
319.349	94.21
319.563	69.63
319.776	122.88
319.99	40.96
320.203	36.86
320.417	69.63
320.63	81.92
320.843	34.82
321.057	18.43
321.27	65.53
321.483	38.91
321.697	114.69
321.91	-26.62
322.124	-2.05
322.337	26.62
322.55	49.15
322.763	22.53
322.977	45.06
323.19	-59.39
323.403	18.43
323.617	-0
323.83	81.92
324.043	36.86
324.256	106.49
324.469	-24.58
324.683	63.49
324.896	34.82
325.109	57.34
325.322	-8.19
325.535	32.77
325.748	92.16
325.962	-6.14
326.175	-38.91
326.388	102.4
326.601	120.83
326.814	12.29
327.027	-6.14
327.24	26.62
327.453	-12.29
327.666	49.15
327.879	61.44
328.092	36.86
328.305	65.53
328.518	77.82
328.731	63.49
328.944	18.43
329.157	77.82
329.37	18.43
329.583	61.44
329.796	55.3
330.009	22.53
330.222	81.92
330.435	34.82
330.648	40.96
330.861	-4.1
331.073	28.67
331.286	14.34
331.499	22.53
331.712	-71.68
331.925	36.86
332.138	34.82
332.35	20.48
332.563	26.62
332.776	36.86
332.989	-2.05
333.202	59.39
333.414	-6.14
333.627	81.92
333.84	-0
334.053	83.97
334.265	32.77
334.478	75.77
334.691	49.15
334.903	22.53
335.116	28.67
335.329	-51.2
335.541	20.48
335.754	26.62
335.966	83.97
336.179	86.01
336.392	67.58
336.604	45.06
336.817	34.82
337.029	-12.29
337.242	18.43
337.454	8.19
337.667	6.14
337.88	122.88
338.092	36.86
338.305	63.49
338.517	22.53
338.729	104.45
338.942	34.82
339.154	28.67
339.367	-10.24
339.579	63.49
339.792	-47.1
340.004	-32.77
340.217	47.1
340.429	-18.43
340.641	40.96
340.854	-0
341.066	40.96
341.278	47.1
341.491	83.97
341.703	36.86
341.915	43.01
342.128	92.16
342.34	114.69
342.552	55.3
342.764	69.63
342.977	86.01
343.189	57.34
343.401	98.3
343.613	16.38
343.826	40.96
344.038	10.24
344.25	6.14
344.462	30.72
344.674	-26.62
344.886	69.63
345.099	88.06
345.311	49.15
345.523	86.01
345.735	14.34
345.947	-22.53
346.159	28.67
346.371	98.3
346.583	32.77
346.795	24.58
347.007	-10.24
347.219	45.06
347.431	-45.06
347.643	159.74
347.855	8.19
348.067	149.5
348.279	16.38
348.491	38.91
348.703	49.15
348.915	22.53
349.127	-10.24
349.339	67.58
349.551	24.58
349.763	38.91
349.975	43.01
350.187	124.93
350.399	4.1
350.61	86.01
350.822	47.1
351.034	45.06
351.246	36.86
351.458	59.39
351.669	40.96
351.881	2.05
352.093	40.96
352.305	-10.24
352.517	86.01
352.728	36.86
352.94	32.77
353.152	-4.1
353.363	26.62
353.575	88.06
353.787	86.01
353.999	2.05
354.21	90.11
354.422	36.86
354.633	53.25
354.845	59.39
355.057	112.64
355.268	49.15
355.48	22.53
355.692	47.1
355.903	28.67
356.115	-20.48
356.326	24.58
356.538	92.16
356.749	32.77
356.961	51.2
357.172	47.1
357.384	32.77
357.595	129.02
357.807	53.25
358.018	71.68
358.23	30.72
358.441	51.2
358.653	32.77
358.864	-4.1
359.075	8.19
359.287	69.63
359.498	-14.34
359.709	18.43
359.921	55.3
360.132	-20.48
360.344	57.34
360.555	51.2
360.766	26.62
360.977	-24.58
361.189	57.34
361.4	28.67
361.611	32.77
361.823	32.77
362.034	71.68
362.245	73.73
362.456	65.53
362.667	-6.14
362.879	96.25
363.09	-0
363.301	65.53
363.512	-16.38
363.723	-8.19
363.935	8.19
364.146	-14.34
364.357	43.01
364.568	67.58
364.779	34.82
364.99	108.54
365.201	-24.58
365.412	34.82
365.623	59.39
365.834	86.01
366.045	10.24
366.256	67.58
366.467	131.07
366.678	38.91
366.889	94.21
367.1	71.68
367.311	65.53
367.522	102.4
367.733	-32.77
367.944	55.3
368.155	75.77
368.366	98.3
368.577	65.53
368.788	36.86
368.999	-20.48
369.209	32.77
369.42	124.93
369.631	106.49
369.842	22.53
370.053	83.97
370.264	79.87
370.474	98.3
370.685	96.25
370.896	98.3
371.107	57.34
371.317	137.21
371.528	81.92
371.739	102.4
371.95	28.67
372.16	-10.24
372.371	63.49
372.582	61.44
372.792	69.63
373.003	86.01
373.214	6.14
373.424	30.72
373.635	-32.77
373.846	135.17
374.056	-51.2
374.267	30.72
374.477	32.77
374.688	28.67
374.898	32.77
375.109	59.39
375.319	40.96
375.53	22.53
375.74	34.82
375.951	75.77
376.161	34.82
376.372	75.77
376.582	45.06
376.793	96.25
377.003	-4.1
377.214	-22.53
377.424	77.82
377.635	67.58
377.845	-49.15
378.055	6.14
378.266	75.77
378.476	96.25
378.686	26.62
378.897	2.05
379.107	22.53
379.317	75.77
379.528	83.97
379.738	40.96
379.948	18.43
380.158	104.45
380.369	116.73
380.579	122.88
380.789	18.43
380.999	98.3
381.21	10.24
381.42	122.88
381.63	-6.14
381.84	28.67
382.05	-2.05
382.261	38.91
382.471	12.29
382.681	-16.38
382.891	-6.14
383.101	18.43
383.311	28.67
383.521	77.82
383.731	69.63
383.941	12.29
384.151	61.44
384.361	43.01
384.571	133.12
384.781	32.77
384.991	63.49
385.201	94.21
385.411	88.06
385.621	63.49
385.831	-57.34
386.041	81.92
386.251	40.96
386.461	114.69
386.671	34.82
386.881	40.96
387.091	30.72
387.301	104.45
387.511	47.1
387.72	79.87
387.93	67.58
388.14	30.72
388.35	43.01
388.56	94.21
388.769	159.74
388.979	73.73
389.189	-10.24
389.399	63.49
389.609	-18.43
389.818	71.68
390.028	81.92
390.238	86.01
390.447	61.44
390.657	30.72
390.867	65.53
391.076	2.05
391.286	53.25
391.496	57.34
391.705	126.97
391.915	108.54
392.125	108.54
392.334	83.97
392.544	65.53
392.753	34.82
392.963	104.45
393.172	90.11
393.382	112.64
393.591	34.82
393.801	10.24
394.01	116.73
394.22	114.69
394.429	30.72
394.639	75.77
394.848	43.01
395.058	-26.62
395.267	26.62
395.477	163.84
395.686	118.78
395.895	57.34
396.105	65.53
396.314	104.45
396.524	77.82
396.733	118.78
396.942	73.73
397.152	110.59
397.361	73.73
397.57	102.4
397.78	24.58
397.989	96.25
398.198	114.69
398.407	73.73
398.617	106.49
398.826	98.3
399.035	102.4
399.244	57.34
399.453	129.02
399.663	96.25
399.872	110.59
400.081	94.21
400.29	133.12
400.499	94.21
400.708	47.1
400.917	36.86
401.127	102.4
401.336	114.69
401.545	131.07
401.754	135.17
401.963	118.78
402.172	135.17
402.381	96.25
402.59	135.17
402.799	104.45
403.008	157.69
403.217	88.06
403.426	100.35
403.635	153.6
403.844	116.73
404.053	157.69
404.262	151.55
404.471	139.26
404.68	147.45
404.888	129.02
405.097	114.69
405.306	190.46
405.515	178.17
405.724	159.74
405.933	153.6
406.142	145.41
406.35	141.31
406.559	124.93
406.768	141.31
406.977	233.47
407.185	204.8
407.394	120.83
407.603	141.31
407.812	165.89
408.02	165.89
408.229	202.75
408.438	227.32
408.646	210.94
408.855	266.24
409.064	208.89
409.272	245.76
409.481	356.35
409.69	174.08
409.898	315.39
410.107	270.33
410.315	215.04
410.524	247.8
410.733	311.29
410.941	262.14
411.15	327.67
411.358	378.87
411.567	393.21
411.775	376.83
411.984	352.25
412.192	356.35
412.401	425.98
412.609	473.08
412.818	393.21
413.026	378.87
413.234	479.22
413.443	411.64
413.651	479.22
413.86	442.36
414.068	550.9
414.276	595.96
414.485	563.19
414.693	600.05
414.901	559.1
415.11	565.24
415.318	616.44
415.526	643.06
415.734	626.68
415.943	690.17
416.151	690.17
416.359	665.59
416.567	737.27
416.776	802.8
416.984	784.37
417.192	874.48
417.4	960.5
417.608	839.67
417.817	958.45
418.025	923.63
418.233	1085.42
418.441	1009.65
418.649	1015.79
418.857	1114.09
419.065	1015.79
419.273	1126.38
419.481	1198.06
419.689	1243.12
419.897	1333.23
420.105	1314.8
420.313	1355.76
420.521	1355.76
420.729	1429.48
420.937	1501.16
421.145	1484.78
421.353	1513.45
421.561	1609.7
421.769	1718.25
421.977	1759.21
422.185	1716.2
422.393	1880.04
422.601	1931.23
422.809	1916.9
423.017	1996.77
423.224	2011.11
423.432	2152.42
423.64	2064.35
423.848	2383.84
424.056	2379.74
424.263	2473.95
424.471	2566.1
424.679	2457.56
424.887	2596.82
425.094	2746.33
425.302	2734.04
425.51	2766.81
425.718	2840.53
425.925	2998.23
426.133	3039.19
426.341	3241.93
426.548	3366.86
426.756	3313.61
426.964	3489.74
427.171	3563.47
427.379	3690.44
427.586	3729.35
427.794	3794.89
428.001	4102.08
428.209	4229.06
428.417	4159.42
428.624	4417.47
428.832	4347.84
429.039	4493.24
429.247	4468.67
429.454	4749.24
429.662	5058.48
429.869	4968.37
430.076	5207.98
430.284	5027.76
430.491	5203.89
430.699	5486.51
430.906	5547.95
431.114	5631.91
431.321	5783.46
431.528	5937.06
431.736	6447.01
431.943	6594.46
432.15	6619.03
432.358	6504.35
432.565	6811.54
432.772	6672.28
432.979	7143.31
433.187	7251.86
433.394	7313.3
433.601	7972.74
433.808	7708.55
434.016	7974.79
434.223	8232.83
434.43	8677.24
434.637	8324.99
434.844	9049.97
435.052	9205.62
435.259	8970.1
435.466	9240.43
435.673	9062.26
435.88	9707.37
436.087	10209.12
436.294	10229.6
436.501	10008.42
436.708	10135.4
436.915	10643.29
437.122	10930.01
437.329	10983.26
437.537	11319.12
437.743	11478.86
437.95	11536.21
438.157	11747.15
438.364	12435.27
438.571	12351.3
438.778	12343.11
438.985	13528.88
439.192	13139.77
439.399	13328.18
439.606	13111.1
439.813	13862.7
440.02	14995.23
440.227	14692.13
440.433	14386.98
440.64	14915.36
440.847	14923.55
441.054	15087.39
441.261	16031.5
441.467	16060.17
441.674	16326.41
441.881	16873.21
442.088	16766.72
442.294	16561.92
442.501	17247.99
442.708	17377.01
442.914	18112.24
443.121	18794.21
443.328	18304.74
443.534	19500.76
443.741	19191.52
443.948	19052.25
444.154	20510.41
444.361	20287.18
444.568	20375.24
444.774	20408.01
444.981	20539.08
445.187	21092.03
445.394	22187.69
445.6	21849.78
445.807	23555.74
446.013	22845.09
446.22	23402.14
446.426	24045.2
446.633	24155.79
446.839	24991.36
447.046	24100.5
447.252	25370.24
447.459	25230.97
447.665	25165.44
447.871	26181.23
448.078	27561.56
448.284	26361.45
448.491	26900.07
448.697	28139.09
448.903	28585.55
449.11	28706.38
449.316	28010.07
449.522	28751.43
449.728	29429.31
449.935	29687.35
450.141	29818.42
450.347	30268.98
450.553	29492.8
450.76	29795.9
450.966	30764.59
451.172	30357.04
451.378	31155.75
451.584	30527.02
451.791	31239.72
451.997	31065.64
452.203	31483.42
452.409	31880.73
452.615	31524.38
452.821	30279.22
453.027	29998.65
453.233	31802.91
453.44	30463.54
453.646	30875.18
453.852	31198.76
454.058	31495.71
454.264	30291.51
454.47	31063.59
454.676	30592.56
454.882	31454.75
455.088	29066.82
455.294	29478.46
455.5	29638.2
455.705	29931.06
455.911	28991.05
456.117	28337.74
456.323	27653.72
456.529	26410.6
456.735	27608.67
456.941	26467.95
457.147	26267.25
457.352	25482.88
457.558	25159.3
457.764	25423.48
457.97	25026.18
458.176	24221.33
458.381	24446.6
458.587	23346.84
458.793	23387.8
458.999	21980.85
459.204	23586.46
459.41	22656.68
459.616	21448.38
459.821	21348.03
460.027	21313.21
460.233	20770.5
460.438	20010.7
460.644	19828.43
460.85	19078.88
461.055	18874.08
461.261	18589.41
461.466	17254.14
461.672	16785.15
461.878	17893.1
462.083	16959.23
462.289	16404.23
462.494	16443.14
462.7	15513.36
462.905	15097.63
463.111	15912.72
463.316	15773.46
463.522	15261.46
463.727	15451.92
463.932	15394.58
464.138	15283.99
464.343	15181.59
464.549	14782.24
464.754	15308.57
464.959	15456.02
465.165	15146.78
465.37	14597.92
465.575	13858.6
465.781	14860.06
465.986	14853.92
466.191	14401.32
466.397	13860.65
466.602	13084.47
466.807	13559.6
467.012	13924.14
467.218	13653.81
467.423	13555.51
467.628	13578.03
467.833	14069.55
468.038	13444.91
468.244	13225.78
468.449	13741.87
468.654	13125.43
468.859	13119.29
469.064	13231.93
469.269	12461.89
469.474	12812.09
469.679	13072.18
469.885	12578.62
470.09	12844.86
470.295	12887.87
470.5	12279.62
470.705	12635.97
470.91	12160.84
471.115	12193.61
471.32	12117.83
471.525	12343.11
471.73	11927.37
471.935	11759.44
472.139	11525.97
472.344	11720.53
472.549	11431.76
472.754	11505.49
472.959	11118.42
473.164	10921.82
473.369	10706.78
473.574	11288.4
473.778	11089.75
473.983	10866.52
474.188	10938.2
474.393	10497.89
474.598	10520.42
474.802	10479.46
475.007	10284.9
475.212	10231.65
475.417	9863.02
475.621	9955.18
475.826	9918.31
476.031	9709.42
476.235	9697.13
476.44	9838.44
476.645	9604.97
476.849	9699.18
477.054	9385.84
477.259	9353.07
477.463	9301.87
477.668	9162.61
477.872	9258.87
478.077	8968.06
478.282	8914.81
478.486	8757.11
478.691	8646.52
478.895	8738.68
479.1	8564.61
479.304	8699.77
479.509	8413.06
479.713	8638.33
479.918	8531.84
480.122	8124.29
480.326	8337.28
480.531	8417.15
480.735	8306.56
480.94	8028.04
481.144	8408.96
481.348	7939.97
481.553	8013.7
481.757	7870.34
481.961	8185.73
482.166	8118.15
482.37	7995.27
482.574	7929.73
482.778	7958.41
482.983	8136.58
483.187	8091.52
483.391	7964.55
483.595	7841.67
483.8	7933.83
484.004	7958.41
484.208	7966.6
484.412	7862.15
484.616	8040.33
484.821	7827.34
485.025	7833.48
485.229	7950.21
485.433	7962.5
485.637	7874.44
485.841	7784.33
486.045	7884.68
486.249	7903.11
486.453	7876.49
486.657	7993.22
486.861	7997.32
487.065	7583.63
487.269	7997.32
487.473	7688.07
487.677	7978.89
487.881	7923.59
488.085	7976.84
488.289	7995.27
488.493	7888.78
488.697	8036.23
488.901	7894.92
489.105	7919.5
489.309	8087.43
489.512	8122.24
489.716	8032.13
489.92	7931.78
490.124	7919.5
490.328	8083.33
490.531	8015.75
490.735	8187.78
490.939	8167.3
491.143	8107.91
491.346	8073.09
491.55	8286.08
491.754	8140.68
491.958	8382.34
492.161	8214.4
492.365	8122.24
492.569	8398.72
492.772	8421.25
492.976	8390.53
493.18	8580.99
493.383	8521.6
493.587	8558.46
493.79	8562.56
493.994	8640.38
494.197	8707.96
494.401	8818.55
494.605	8875.9
494.808	9076.6
495.012	8943.48
495.215	8984.44
495.419	8953.72
495.622	8968.06
495.825	9170.8
496.029	9160.56
496.232	9324.4
496.436	9383.79
496.639	9451.38
496.843	9561.97
497.046	9543.53
497.249	9789.29
497.453	9838.44
497.656	9779.05
497.859	10155.88
498.063	10004.33
498.266	10260.32
498.469	10213.22
498.673	10293.09
498.876	10577.76
499.079	10594.14
499.282	10534.75
499.485	11110.23
499.689	10743.64
499.892	11104.09
500.095	11032.41
500.298	11224.92
500.501	11188.05
500.705	11714.38
500.908	11659.09
501.111	11747.15
501.314	11870.03
501.517	11929.42
501.72	12027.72
501.923	11908.94
502.126	12394.31
502.329	12799.8
502.532	12621.63
502.735	12726.08
502.938	12947.26
503.141	12914.49
503.344	13004.6
503.547	13000.51
503.75	13313.84
503.953	13565.74
504.156	13825.84
504.359	13825.84
504.562	13713.2
504.765	14397.22
504.968	14372.64
505.17	14505.76
505.373	14518.05
505.576	14833.44
505.779	14669.6
505.982	14919.45
506.185	15218.46
506.387	15451.92
506.59	15365.91
506.793	15763.22
506.996	15779.6
507.198	16066.31
507.401	16019.21
507.604	16488.2
507.807	16580.35
508.009	16809.73
508.212	16750.34
508.415	16965.37
508.617	16948.99
508.82	17198.84
509.022	17317.62
509.225	18001.65
509.428	18034.41
509.63	17940.21
509.833	18155.24
510.035	18423.53
510.238	18145
510.44	18476.77
510.643	18910.94
510.845	19310.3
511.048	19021.53
511.25	19521.24
511.453	19443.42
511.655	19998.41
511.858	19982.03
512.06	19994.32
512.262	20317.9
512.465	20481.74
512.667	20739.78
512.87	20901.57
513.072	20893.38
513.274	21366.46
513.477	21462.71
513.679	21929.65
513.881	21937.84
514.084	22296.24
514.286	22163.12
514.488	22460.07
514.69	22795.94
514.893	22980.26
515.095	22898.34
515.297	23160.48
515.499	23144.09
515.701	23936.66
515.904	23848.6
516.106	23950.99
516.308	24571.53
516.51	24381.07
516.712	24651.4
516.914	24780.42
517.116	25034.37
517.318	25224.83
517.52	25882.23
517.722	25798.26
517.925	26103.41
518.127	26349.17
518.329	26662.51
518.531	26418.8
518.733	26979.94
518.935	27008.61
519.136	27061.86
519.338	27676.25
519.54	28108.37
519.742	27936.34
519.944	28098.13
520.146	28603.98
520.348	28626.51
520.55	29077.06
520.752	29199.94
520.954	29410.88
521.155	29464.13
521.357	29855.29
521.559	30043.7
521.761	30520.88
521.963	30113.33
522.164	30748.2
522.366	30742.06
522.568	31159.84
522.77	31456.8
522.971	31931.93
523.173	31487.52
523.375	32019.99
523.576	31845.91
523.778	32400.91
523.98	32574.99
524.181	32671.25
524.383	32808.46
524.584	33177.09
524.786	33220.1
524.988	33199.62
525.189	33576.45
525.391	33955.32
525.592	34125.3
525.794	34358.77
525.995	34063.86
526.197	34186.74
526.398	34399.73
526.6	34639.34
526.801	34727.41
527.003	34989.55
527.204	34973.16
527.406	35233.25
527.607	35206.63
527.808	35773.92
528.01	35296.74
528.211	35855.84
528.412	36337.11
528.614	36036.06
528.815	36453.84
529.016	36277.72
529.218	36210.14
529.419	36328.92
529.62	36238.81
529.822	36371.93
530.023	36259.29
530.224	36558.29
530.425	36468.18
530.626	36273.62
530.828	36541.91
531.029	37070.28
531.23	37039.56
531.431	36818.38
531.632	37092.81
531.833	37017.04
532.035	37182.92
532.236	36990.41
532.437	36955.6
532.638	36959.69
532.839	37604.8
533.04	37909.95
533.241	37225.93
533.442	37776.83
533.643	37426.63
533.844	37342.66
534.045	37361.09
534.246	37168.58
534.447	37807.55
534.648	37395.91
534.849	37617.09
535.05	37565.89
535.251	37465.54
535.451	37682.62
535.652	37393.86
535.853	37680.58
536.054	37989.82
536.255	37965.24
536.456	37455.3
536.657	38321.59
536.857	37623.23
537.058	37981.63
537.259	38309.3
537.46	38114.75
537.66	37809.6
537.861	38182.33
538.062	37903.81
538.263	37699.01
538.463	38008.25
538.664	37701.06
538.865	37750.21
539.065	38319.54
539.266	37408.2
539.466	38075.83
539.667	37268.94
539.868	38188.47
540.068	37938.62
540.269	37551.56
540.469	37918.14
540.67	37637.57
540.87	37739.97
541.071	37785.02
541.271	37731.78
541.472	37844.41
541.672	37744.06
541.873	37414.34
542.073	36804.05
542.274	37864.89
542.474	37971.39
542.675	37318.09
542.875	37907.9
543.075	37760.45
543.276	37209.54
543.476	37848.51
543.676	37672.39
543.877	37805.5
544.077	37842.37
544.277	37676.48
544.478	37395.91
544.678	37670.34
544.878	37463.49
545.078	37782.98
545.279	37432.77
545.479	37412.29
545.679	38106.55
545.879	37582.27
546.079	37453.25
546.28	37283.27
546.48	37305.8
546.68	37381.57
546.88	37594.56
547.08	37258.7
547.28	37395.91
547.48	37273.03
547.68	37291.46
547.88	37688.77
548.081	37318.09
548.281	37496.26
548.481	37328.33
548.681	37811.65
548.881	37668.29
549.081	37105.1
549.28	37014.99
549.48	37819.84
549.68	37129.67
549.88	37748.16
550.08	37221.83
550.28	37565.89
550.48	37500.36
550.68	37639.62
550.88	37144.01
551.08	37471.68
551.279	37445.06
551.479	37221.83
551.679	37469.64
551.879	37348.81
552.079	37590.47
552.278	37342.66
552.478	37531.08
552.678	36838.86
552.878	37623.23
553.077	37371.33
553.277	36879.82
553.477	37201.35
553.676	37025.23
553.876	36976.08
554.076	36996.56
554.275	36996.56
554.475	36414.93
554.674	36582.87
554.874	37207.5
555.074	36969.93
555.273	36816.33
555.473	37105.1
555.672	36580.82
555.872	36865.49
556.071	36980.17
556.271	36804.05
556.47	36820.43
556.67	36341.21
556.869	36656.59
557.068	36290.01
557.268	36240.86
557.467	36390.36
557.667	36398.55
557.866	36281.81
558.065	36359.64
558.265	36181.46
558.464	35851.74
558.663	36357.59
558.863	35724.77
559.062	36294.1
559.261	35571.17
559.461	36333.01
559.66	35366.37
559.859	35948
560.058	35423.72
560.258	35577.31
560.457	35550.69
560.656	35845.6
560.855	35638.75
561.054	35751.39
561.253	35345.89
561.453	35632.61
561.652	35284.45
561.851	35390.95
562.05	35368.42
562.249	35093.99
562.448	35407.33
562.647	34997.74
562.846	34852.33
563.045	35085.8
563.244	34475.51
563.443	35065.32
563.642	34350.58
563.841	34592.24
564.04	34442.74
564.239	34737.65
564.438	34117.11
564.637	34668.01
564.836	34602.48
565.035	34070.01
565.234	34129.4
565.432	34172.41
565.631	34121.21
565.83	34006.52
566.029	33789.44
566.228	33684.99
566.427	33580.54
566.625	33482.24
566.824	33326.6
567.023	33474.05
567.222	32978.44
567.42	33295.88
567.619	33367.55
567.818	33003.02
568.016	33193.48
568.215	33297.92
568.414	32669.2
568.612	33414.66
568.811	32681.49
569.01	32833.04
569.208	32482.83
569.407	32704.01
569.605	32024.09
569.804	32413.2
570.002	32040.47
570.201	32003.61
570.4	31974.94
570.598	32108.05
570.797	31878.68
570.995	32228.88
571.193	31497.76
571.392	31862.3
571.59	31139.36
571.789	31440.42
571.987	31680.03
572.186	31264.29
572.384	31104.55
572.582	31313.44
572.781	31184.42
572.979	31045.16
573.177	30770.73
573.376	31057.45
573.574	30856.75
573.772	31276.58
573.971	30135.86
574.169	30551.6
574.367	30377.52
574.565	30889.51
574.763	30561.84
574.962	30080.56
575.16	30006.84
575.358	30103.09
575.556	29859.38
575.754	30199.35
575.952	29427.26
576.151	30357.04
576.349	29541.95
576.547	29523.52
576.745	29660.73
576.943	29451.84
577.141	29552.19
577.339	29527.61
577.537	28929.61
577.735	29234.75
577.933	28866.12
578.131	28945.99
578.329	28964.42
578.527	28622.41
578.725	28720.71
578.923	28790.34
579.121	28329.55
579.319	28323.41
579.516	28677.71
579.714	28554.83
579.912	28182.1
580.11	28206.67
580.308	27993.68
580.506	28020.31
580.704	27446.88
580.901	28130.9
581.099	28020.31
581.297	27797.08
581.495	27715.16
581.692	27663.96
581.89	27223.65
582.088	27604.57
582.285	27309.66
582.483	27543.13
582.681	27522.65
582.878	27385.44
583.076	27078.24
583.274	27293.28
583.471	26801.77
583.669	27166.31
583.866	27176.55
584.064	26861.16
584.262	26781.29
584.459	26787.43
584.657	26666.6
584.854	26527.34
585.052	25992.82
585.249	26680.94
585.447	26685.03
585.644	26179.18
585.841	26115.7
586.039	26639.98
586.236	25884.28
586.434	26084.98
586.631	25949.81
586.828	25626.23
587.026	25908.85
587.223	25626.23
587.42	25347.71
587.618	25910.9
587.815	25388.67
588.012	25724.54
588.21	25210.5
588.407	25423.48
588.604	25124.48
588.801	25026.18
588.999	24966.79
589.196	24829.57
589.393	25048.71
589.59	24790.66
589.787	24471.18
589.984	24610.44
590.182	24178.32
590.379	24680.07
590.576	24639.11
590.773	24348.3
590.97	24182.42
591.167	24376.97
591.364	24006.29
591.561	24032.91
591.758	24030.87
591.955	23852.69
592.152	24206.99
592.349	23942.8
592.546	23899.8
592.743	24086.16
592.94	23369.37
593.137	23662.23
593.334	23633.56
593.531	23199.39
593.727	23719.57
593.924	23158.43
594.121	23111.33
594.318	23287.45
594.515	22931.11
594.712	23197.34
594.908	23088.8
595.105	22920.87
595.302	22617.77
595.499	22914.72
595.696	22797.99
595.892	22634.15
596.089	22595.24
596.286	22453.93
596.482	22480.55
596.679	22443.69
596.876	22429.35
597.072	22036.14
597.269	22312.62
597.466	21941.94
597.662	21810.87
597.859	22132.4
598.055	22048.43
598.252	21909.17
598.448	21954.22
598.645	21937.84
598.841	21587.64
599.038	21976.75
599.234	21587.64
599.431	21196.48
599.627	21083.84
599.824	21350.07
600.02	21239.48
600.217	21450.42
600.413	21235.39
600.609	21239.48
600.806	21053.12
601.002	21196.48
601.198	21171.9
601.395	20725.44
601.591	20764.36
601.787	20641.48
601.984	20661.96
602.18	20838.08
602.376	20584.13
602.572	20039.37
602.769	20420.3
602.965	20135.63
603.161	20231.88
603.357	20006.61
603.553	20084.43
603.75	20213.45
603.946	20004.56
604.142	20084.43
604.338	19785.43
604.534	19998.41
604.73	19916.5
604.926	19814.1
605.122	19908.3
605.318	19736.27
605.514	19293.91
605.71	19482.33
605.906	19463.89
606.102	19668.69
606.298	19271.39
606.494	19316.44
606.69	19529.43
606.886	19431.13
607.082	19054.3
607.278	19277.53
607.474	18929.38
607.67	19150.56
607.866	18833.12
608.062	19064.54
608.257	18917.09
608.453	18872.03
608.649	19001.05
608.845	18648.8
609.041	18822.88
609.236	18708.19
609.432	18540.26
609.628	18523.88
609.824	18466.53
610.019	18376.42
610.215	18171.63
610.411	18390.76
610.606	18331.37
610.802	18357.99
610.998	18202.35
611.193	18386.66
611.389	18112.24
611.584	18036.46
611.78	17968.88
611.976	17886.96
612.171	18220.78
612.367	18058.99
612.562	18061.04
612.758	17932.01
612.953	18044.65
613.149	17946.35
613.344	17624.82
613.539	18058.99
613.735	17872.62
613.93	17643.25
614.126	17430.26
614.321	17821.42
614.517	17723.12
614.712	17680.11
614.907	17577.72
615.103	17602.29
615.298	17317.62
615.493	17667.83
615.688	17520.37
615.884	17694.45
616.079	17198.84
616.274	17452.79
616.47	17368.82
616.665	17278.71
616.86	17131.26
617.055	17069.82
617.25	17241.85
617.445	17282.81
617.641	16912.13
617.836	17075.96
618.031	16998.14
618.226	17321.72
618.421	16959.23
618.616	16934.65
618.811	16676.61
619.006	17012.48
619.201	16719.62
619.396	16854.78
619.591	16332.55
619.786	16447.24
619.981	16496.39
620.176	16389.89
620.371	16252.68
620.566	16256.78
620.761	16066.31
620.956	16432.9
621.151	15937.29
621.346	16031.5
621.541	15972.11
621.735	15822.61
621.93	15599.38
622.125	15830.8
622.32	15316.76
622.515	15552.27
622.709	15357.72
622.904	15681.3
623.099	15224.6
623.294	15068.95
623.488	15066.91
623.683	15154.97
623.878	15054.62
624.072	14876.44
624.267	14702.37
624.462	14753.57
624.656	14794.53
624.851	14698.27
625.046	14513.95
625.24	14290.73
625.435	14346.02
625.629	14516
625.824	14020.39
626.018	14214.95
626.213	14087.98
626.407	14034.73
626.602	13709.1
626.796	13956.91
626.991	13686.58
627.185	13621.04
627.38	13600.56
627.574	13424.44
627.768	13348.66
627.963	13557.55
628.157	13313.84
628.352	13082.42
628.546	12859.2
628.74	13029.18
628.935	13113.14
629.129	13063.99
629.323	12752.7
629.517	12971.83
629.712	12928.83
629.906	12812.09
630.1	12506.95
630.294	12552
630.489	12549.95
630.683	12439.36
630.877	12357.44
631.071	12087.11
631.265	12349.25
631.459	12205.89
631.653	12119.88
631.848	12101.45
632.042	12257.09
632.236	11968.33
632.43	11779.92
632.624	11880.27
632.818	11890.51
633.012	11493.2
633.206	11691.85
633.4	11515.73
633.594	11616.08
633.788	11698
633.982	11550.54
634.176	11493.2
634.369	11347.79
634.563	11218.77
634.757	11368.27
634.951	11071.32
635.145	11194.2
635.339	11155.29
635.533	10741.6
635.726	10800.99
635.92	10764.12
636.114	10864.47
636.308	10712.92
636.501	10780.51
636.695	10485.6
636.889	10504.03
637.083	10571.61
637.276	10510.18
637.47	10440.54
637.664	10395.49
637.857	10282.85
638.051	10311.52
638.244	10217.32
638.438	10307.43
638.632	10178.4
638.825	9981.8
639.019	9860.97
639.212	9963.37
639.406	9885.55
639.599	9627.5
639.793	9750.38
639.986	9803.63
640.18	9607.02
640.373	9828.2
640.567	9318.26
640.76	9719.66
640.954	9258.87
641.147	9305.97
641.34	9277.3
641.534	9359.22
641.727	9432.94
641.92	9246.58
642.114	9148.28
642.307	9275.25
642.5	9035.64
642.694	9099.13
642.887	8976.25
643.08	9099.13
643.273	8927.1
643.467	8923
643.66	8888.18
643.853	8910.71
644.046	8648.57
644.239	8689.53
644.432	8820.6
644.626	8773.5
644.819	8468.35
645.012	8439.68
645.205	8304.51
645.398	8578.94
645.591	8402.82
645.784	8339.33
645.977	8226.69
646.17	8290.18
646.363	8163.2
646.556	8142.72
646.749	8126.34
646.942	8249.22
647.135	7776.14
647.328	8023.94
647.521	7911.3
647.714	7716.75
647.907	7946.12
648.099	7982.98
648.292	7856.01
648.485	7837.58
648.678	7595.92
648.871	7524.24
649.064	7524.24
649.256	7669.64
649.449	7434.13
649.642	7407.5
649.835	7274.39
650.027	7444.37
650.22	7286.67
650.413	7288.72
650.605	7389.07
650.798	7085.97
650.991	6993.81
651.183	7100.31
651.376	7200.66
651.568	7024.53
651.761	6967.19
651.954	7102.36
652.146	7032.72
652.339	6948.76
652.531	6926.23
652.724	6934.42
652.916	6758.3
653.109	6705.05
653.301	6797.21
653.494	6694.81
653.686	6676.38
653.879	6756.25
654.071	6524.83
654.263	6563.74
654.456	6723.48
654.648	6696.86
654.84	6543.26
655.033	6293.41
655.225	6528.92
655.417	6354.85
655.61	6469.53
655.802	6354.85
655.994	6277.02
656.186	6381.47
656.379	6184.87
656.571	6033.32
656.763	6193.06
656.955	6059.94
657.148	6059.94
657.34	6154.15
657.532	5926.82
657.724	5937.06
657.916	5955.49
658.108	5971.88
658.3	5894.05
658.492	5975.97
658.684	5816.23
658.876	5912.49
659.068	5728.17
659.26	5693.35
659.452	5748.65
659.644	5869.48
659.836	5711.78
660.028	5724.07
660.22	5535.66
660.412	5537.71
660.604	5568.43
660.796	5482.41
660.988	5474.22
661.18	5517.23
661.372	5367.73
661.563	5291.95
661.755	5410.73
661.947	5474.22
662.139	5375.92
662.331	5234.61
662.522	5349.29
662.714	5298.1
662.906	5220.27
663.097	5113.78
663.289	5187.5
663.481	5109.68
663.673	5185.46
663.864	5056.43
664.056	5005.24
664.247	5081.01
664.439	5056.43
664.631	5224.37
664.822	5025.72
665.014	4927.41
665.205	5019.57
665.397	4911.03
665.588	4814.77
665.78	4923.32
665.971	4935.6
666.163	4853.69
666.354	4794.29
666.546	4888.5
666.737	4706.23
666.929	4763.58
667.12	4825.01
667.311	4882.36
667.503	4700.09
667.694	4708.28
667.885	4673.46
668.077	4564.92
668.268	4554.68
668.459	4597.69
668.651	4499.39
668.842	4575.16
669.033	4536.25
669.224	4487.1
669.416	4603.83
669.607	4585.4
669.798	4513.72
669.989	4423.61
670.18	4382.65
670.371	4431.8
670.563	4292.54
670.754	4442.04
670.945	4288.45
671.136	4396.99
671.327	4204.48
671.518	4308.93
671.709	4302.78
671.9	4274.11
672.091	4315.07
672.282	4257.73
672.473	4300.73
672.664	4290.49
672.855	4143.04
673.046	4206.53
673.237	4052.93
673.428	4239.3
673.619	4122.56
673.809	4120.51
674	4110.27
674.191	4065.22
674.382	4083.65
674.573	4093.89
674.764	4106.18
674.954	3995.59
675.145	4057.03
675.336	4046.79
675.527	4218.82
675.717	4081.6
675.908	4005.83
676.099	4044.74
676.289	3971.01
676.48	3938.24
676.671	3909.57
676.861	4042.69
677.052	3903.43
677.243	3977.16
677.433	3801.03
677.624	3885
677.814	3835.85
678.005	3848.13
678.195	3882.95
678.386	3794.89
678.576	3817.41
678.767	3723.21
678.957	3872.71
679.148	3821.51
679.338	3776.45
679.529	3864.52
679.719	3764.17
679.909	3733.45
680.1	3715.02
680.29	3706.82
680.481	3692.49
680.671	3784.65
680.861	3667.91
681.052	3831.75
681.242	3788.74
681.432	3635.14
681.622	3647.43
681.813	3602.38
682.003	3700.68
682.193	3653.58
682.383	3657.67
682.573	3661.77
682.764	3643.34
682.954	3758.02
683.144	3645.38
683.334	3596.23
683.524	3602.38
683.714	3542.99
683.904	3690.44
684.094	3631.05
684.284	3651.53
684.474	3655.62
684.664	3565.51
684.854	3418.06
685.044	3504.07
685.234	3573.71
685.424	3700.68
685.614	3538.89
685.804	3444.68
685.994	3538.89
686.184	3581.9
686.374	3526.6
686.564	3364.81
686.753	3487.69
686.943	3395.53
687.133	3463.12
687.323	3456.97
687.513	3403.72
687.702	3352.52
687.892	3362.76
688.082	3315.66
688.272	3252.17
688.461	3321.81
688.651	3387.34
688.841	3289.04
689.03	3311.57
689.22	3151.82
689.41	3307.47
689.599	3188.69
689.789	3254.22
689.979	3250.13
690.168	3250.13
690.358	3198.93
690.547	3203.02
690.737	3215.31
690.926	3190.74
691.116	2994.13
691.305	3098.58
691.495	3090.38
691.684	3012.56
691.874	3088.34
692.063	3057.62
692.252	3065.81
692.442	3143.63
692.631	2957.27
692.82	3186.64
693.01	2996.18
693.199	2998.23
693.388	3010.51
693.578	2936.79
693.767	2994.13
693.956	2815.96
694.146	2973.65
694.335	2795.48
694.524	2850.77
694.713	2955.22
694.902	2844.63
695.092	2824.15
695.281	2869.2
695.47	2887.64
695.659	2785.24
695.848	2756.57
696.037	2785.24
696.226	2748.37
696.415	2830.29
696.604	2879.44
696.793	2848.72
696.982	2787.29
697.171	2721.75
697.36	2828.24
697.549	2766.81
697.738	2781.14
697.927	2701.27
698.116	2822.1
698.305	2803.67
698.494	2754.52
698.683	2801.62
698.872	2760.66
699.061	2832.34
699.25	2826.2
699.438	2871.25
699.627	2682.84
699.816	2740.18
700.005	2768.85
700.193	2715.61
700.382	2791.38
700.571	2838.48
700.76	2803.67
700.948	2633.69
701.137	2785.24
701.326	2752.47
701.514	2637.78
701.703	2707.41
701.892	2664.41
702.08	2639.83
702.269	2684.89
702.457	2566.1
702.646	2750.42
702.834	2605.02
703.023	2609.11
703.212	2736.09
703.4	2760.66
703.589	2742.23
703.777	2666.46
703.965	2639.83
704.154	2678.74
704.342	2713.56
704.531	2572.25
704.719	2650.07
704.907	2654.17
705.096	2648.02
705.284	2672.6
705.472	2748.37
705.661	2846.68
705.849	2643.93
706.037	2623.45
706.226	2615.26
706.414	2703.32
706.602	2770.9
706.79	2680.79
706.979	2662.36
707.167	2680.79
707.355	2678.74
707.543	2666.46
707.731	2668.5
707.919	2674.65
708.107	2670.55
708.296	2562.01
708.484	2641.88
708.672	2803.67
708.86	2631.64
709.048	2770.9
709.236	2547.67
709.424	2627.54
709.612	2664.41
709.8	2588.63
709.988	2580.44
710.176	2691.03
710.364	2674.65
710.551	2723.8
710.739	2617.3
710.927	2707.41
711.115	2627.54
711.303	2676.7
711.491	2586.58
711.679	2648.02
711.866	2602.97
712.054	2795.48
712.242	2652.12
712.43	2676.7
712.617	2596.82
712.805	2697.17
712.993	2705.37
713.181	2586.58
713.368	2691.03
713.556	2623.45
713.744	2711.51
713.931	2648.02
714.119	2631.64
714.306	2643.93
714.494	2674.65
714.682	2629.59
714.869	2623.45
715.057	2592.73
715.244	2576.34
715.432	2699.22
715.619	2598.87
715.807	2576.34
715.994	2666.46
716.182	2705.37
716.369	2564.06
716.556	2639.83
716.744	2658.26
716.931	2680.79
717.119	2703.32
717.306	2615.26
717.493	2627.54
717.681	2596.82
717.868	2654.17
718.055	2676.7
718.242	2607.06
718.43	2621.4
718.617	2611.16
718.804	2551.77
718.991	2568.15
719.179	2676.7
719.366	2725.85
719.553	2750.42
719.74	2631.64
719.927	2660.31
720.114	2658.26
720.301	2672.6
720.488	2686.93
720.676	2551.77
720.863	2787.29
721.05	2572.25
721.237	2580.44
721.424	2594.78
721.611	2588.63
721.798	2576.34
721.985	2674.65
722.172	2510.81
722.358	2639.83
722.545	2703.32
722.732	2551.77
722.919	2754.52
723.106	2678.74
723.293	2617.3
723.48	2674.65
723.667	2711.51
723.853	2551.77
724.04	2674.65
724.227	2648.02
724.414	2660.31
724.6	2578.39
724.787	2686.93
724.974	2744.28
725.161	2609.11
725.347	2725.85
725.534	2594.78
725.72	2680.79
725.907	2648.02
726.094	2637.78
726.28	2617.3
726.467	2637.78
726.653	2609.11
726.84	2678.74
727.027	2750.42
727.213	2494.43
727.4	2600.92
727.586	2662.36
727.773	2609.11
727.959	2545.63
728.145	2613.21
728.332	2713.56
728.518	2699.22
728.705	2625.5
728.891	2668.5
729.077	2607.06
729.264	2734.04
729.45	2580.44
729.636	2619.35
729.823	2777.05
730.009	2740.18
730.195	2605.02
730.382	2584.54
730.568	2666.46
730.754	2664.41
730.94	2789.33
731.126	2676.7
731.313	2652.12
731.499	2625.5
731.685	2752.47
731.871	2738.13
732.057	2662.36
732.243	2715.61
732.429	2521.05
732.615	2791.38
732.801	2695.13
732.987	2627.54
733.173	2668.5
733.359	2744.28
733.545	2645.98
733.731	2553.82
733.917	2738.13
734.103	2721.75
734.289	2582.49
734.475	2605.02
734.661	2684.89
734.847	2709.46
735.033	2748.37
735.219	2707.41
735.404	2664.41
735.59	2658.26
735.776	2625.5
735.962	2701.27
736.148	2602.97
736.333	2545.63
736.519	2588.63
736.705	2602.97
736.89	2465.75
737.076	2580.44
737.262	2572.25
737.447	2506.71
737.633	2627.54
737.819	2652.12
738.004	2557.91
738.19	2615.26
738.375	2623.45
738.561	2639.83
738.747	2629.59
738.932	2535.39
739.118	2580.44
739.303	2580.44
739.489	2623.45
739.674	2678.74
739.859	2582.49
740.045	2521.05
740.23	2596.82
740.416	2465.75
740.601	2516.95
740.786	2506.71
740.972	2539.48
741.157	2500.57
741.342	2478.04
741.528	2547.67
741.713	2490.33
741.898	2465.75
742.084	2426.84
742.269	2469.85
742.454	2541.53
742.639	2527.19
742.824	2486.23
743.01	2445.27
743.195	2385.88
743.38	2432.99
743.565	2414.56
743.75	2404.32
743.935	2451.42
744.12	2373.6
744.305	2361.31
744.49	2494.43
744.675	2240.48
744.86	2365.4
745.045	2375.64
745.23	2273.25
745.415	2383.84
745.6	2316.25
745.785	2314.2
745.97	2353.12
746.155	2250.72
746.34	2254.81
746.525	2328.54
746.71	2312.16
746.895	2199.52
747.079	2283.49
747.264	2299.87
747.449	2277.34
747.634	2258.91
747.819	2176.99
748.003	2209.76
748.188	2152.42
748.373	2170.85
748.557	2179.04
748.742	2058.21
748.927	2142.18
749.111	2176.99
749.296	2060.26
749.481	2131.94
749.665	2121.7
749.85	2027.49
750.034	2123.74
750.219	2125.79
750.404	2090.98
750.588	1945.57
750.773	1986.53
750.957	1900.51
751.141	1869.8
751.326	2021.35
751.51	1828.84
751.695	1890.28
751.879	1904.61
752.064	1949.67
752.248	1953.76
752.432	1929.19
752.617	1898.47
752.801	1816.55
752.985	1802.21
753.17	1740.77
753.354	1886.18
753.538	1900.51
753.722	1765.35
753.907	1740.77
754.091	1785.83
754.275	1728.49
754.459	1744.87
754.643	1603.56
754.828	1689.57
755.012	1746.92
755.196	1634.28
755.38	1632.23
755.564	1681.38
755.748	1677.29
755.932	1703.91
756.116	1617.9
756.3	1619.94
756.484	1480.68
756.668	1632.23
756.852	1570.79
757.036	1546.22
757.22	1617.9
757.404	1619.94
757.588	1468.39
757.772	1486.83
757.956	1509.35
758.14	1462.25
758.323	1460.2
758.507	1490.92
758.691	1454.06
758.875	1521.64
759.059	1544.17
759.242	1454.06
759.426	1546.22
759.61	1425.39
759.794	1351.66
759.977	1576.94
760.161	1347.56
760.345	1472.49
760.528	1492.97
760.712	1335.28
760.895	1394.67
761.079	1306.6
761.263	1388.52
761.446	1210.35
761.63	1282.03
761.813	1320.94
761.997	1259.5
762.18	1196.01
762.364	1339.37
762.547	1296.36
762.731	1363.95
762.914	1232.88
763.098	1265.64
763.281	1337.32
763.464	1259.5
763.648	1177.58
763.831	1202.16
764.015	1277.93
764.198	1271.79
764.381	1208.3
764.564	1294.32
764.748	1288.17
764.931	1245.16
765.114	1208.3
765.297	1249.26
765.481	1157.1
765.664	1085.42
765.847	1187.82
766.03	1181.68
766.213	1169.39
766.397	993.26
766.58	1150.96
766.763	1220.59
766.946	1222.64
767.129	1134.57
767.312	1175.53
767.495	1171.44
767.678	1101.81
767.861	1243.12
768.044	1181.68
768.227	1122.29
768.41	1069.04
768.593	1183.73
768.776	1085.42
768.959	1066.99
769.142	1148.91
769.324	1165.29
769.507	1101.81
769.69	1161.2
769.873	1034.22
770.056	1066.99
770.239	1034.22
770.421	1091.57
770.604	923.63
770.787	1101.81
770.97	1105.9
771.152	1085.42
771.335	993.26
771.518	1023.98
771.7	976.88
771.883	1091.57
772.066	1042.42
772.248	966.64
772.431	972.79
772.613	1085.42
772.796	927.73
772.978	1050.61
773.161	993.26
773.343	1030.13
773.526	944.11
773.708	972.79
773.891	983.02
774.073	989.17
774.256	966.64
774.438	970.74
774.621	925.68
774.803	952.31
774.985	903.15
775.168	862.19
775.35	878.58
775.532	907.25
775.715	894.96
775.897	905.2
776.079	901.11
776.261	917.49
776.444	821.24
776.626	786.42
776.808	819.19
776.99	892.91
777.173	901.11
777.355	780.28
777.537	868.34
777.719	835.57
777.901	833.52
778.083	804.85
778.265	745.46
778.447	774.13
778.629	790.52
778.811	700.41
778.993	778.23
779.175	774.13
779.357	663.54
779.539	688.12
779.721	804.85
779.903	767.99
780.085	823.28
780.267	716.79
780.449	718.84
780.631	800.76
780.812	731.12
780.994	694.26
781.176	659.45
781.358	628.73
781.54	749.56
781.721	700.41
781.903	688.12
782.085	739.32
782.267	688.12
782.448	516.09
782.63	598.01
782.812	602.1
782.993	641.01
783.175	630.77
783.357	606.2
783.538	636.92
783.72	561.14
783.901	569.34
784.083	616.44
784.264	516.09
784.446	589.81
784.627	571.38
784.809	559.1
784.99	538.62
785.172	485.37
785.353	600.05
785.535	552.95
785.716	595.96
785.897	567.29
786.079	595.96
786.26	524.28
786.441	550.9
786.623	526.33
786.804	489.46
786.985	481.27
787.167	518.14
787.348	534.52
787.529	452.6
787.71	542.71
787.891	550.9
788.073	479.22
788.254	417.79
788.435	458.74
788.616	536.57
788.797	532.47
788.978	485.37
789.159	606.2
789.34	438.27
789.522	413.69
789.703	464.89
789.884	438.27
790.065	481.27
790.246	491.51
790.427	503.8
790.607	481.27
790.788	442.36
790.969	423.93
791.15	475.13
791.331	475.13
791.512	438.27
791.693	452.6
791.874	438.27
792.054	366.59
792.235	391.16
792.416	415.74
792.597	389.11
792.778	462.84
792.958	432.12
793.139	368.63
793.32	350.2
793.5	305.15
793.681	450.55
793.862	387.07
794.042	362.49
794.223	387.07
794.404	368.63
794.584	387.07
794.765	411.64
794.945	401.4
795.126	278.52
795.306	268.28
795.487	360.44
795.667	399.35
795.848	378.87
796.028	378.87
796.209	389.11
796.389	344.06
796.57	372.73
796.75	282.62
796.93	358.39
797.111	327.67
797.291	376.83
797.471	378.87
797.652	358.39
797.832	212.99
798.012	364.54
798.192	311.29
798.373	370.68
798.553	335.87
798.733	307.2
798.913	319.48
799.093	327.67
799.274	387.07
799.454	311.29
799.634	280.57
799.814	319.48
799.994	329.72
800.174	288.76
800.354	335.87
800.534	268.28
800.714	262.14
800.894	307.2
801.074	327.67
801.254	245.76
801.434	331.77
801.614	235.52
801.794	260.09
801.974	694.26
802.154	319.48
802.334	282.62
802.514	192.51
802.693	266.24
802.873	284.67
803.053	296.96
803.233	264.19
803.413	247.8
803.592	278.52
803.772	286.72
803.952	243.71
804.131	215.04
804.311	323.58
804.491	311.29
804.67	184.32
804.85	276.48
805.03	260.09
805.209	249.85
805.389	253.95
805.568	286.72
805.748	253.95
805.928	247.8
806.107	239.61
806.287	245.76
806.466	260.09
806.646	268.28
806.825	270.33
807.004	243.71
807.184	278.52
807.363	262.14
807.543	276.48
807.722	227.32
807.901	190.46
808.081	206.84
808.26	200.7
808.439	210.94
808.619	176.13
808.798	249.85
808.977	155.65
809.156	231.42
809.336	239.61
809.515	227.32
809.694	106.49
809.873	258.04
810.052	274.43
810.231	233.47
810.411	241.66
810.59	139.26
810.769	188.41
810.948	266.24
811.127	215.04
811.306	280.57
811.485	190.46
811.664	190.46
811.843	253.95
812.022	241.66
812.201	116.73
812.38	200.7
812.559	157.69
812.737	251.9
812.916	188.41
813.095	202.75
813.274	151.55
813.453	182.27
813.632	178.17
813.811	219.13
813.989	184.32
814.168	133.12
814.347	182.27
814.526	137.21
814.704	258.04
814.883	233.47
815.062	196.6
815.24	223.23
815.419	196.6
815.598	200.7
815.776	180.22
815.955	210.94
816.133	143.36
816.312	190.46
816.49	188.41
816.669	137.21
816.847	108.54
817.026	192.51
817.204	190.46
817.383	153.6
817.561	90.11
817.74	227.32
817.918	151.55
818.097	155.65
818.275	129.02
818.453	118.78
818.632	159.74
818.81	163.84
818.988	106.49
819.167	129.02
819.345	151.55
819.523	145.41
819.701	133.12
819.879	116.73
820.058	124.93
820.236	161.79
820.414	143.36
820.592	165.89
820.77	157.69
820.948	155.65
821.127	196.6
821.305	94.21
821.483	180.22
821.661	145.41
821.839	151.55
822.017	149.5
822.195	159.74
822.373	141.31
822.551	237.56
822.729	147.45
822.907	65.53
823.085	206.84
823.262	174.08
823.44	114.69
823.618	73.73
823.796	126.97
823.974	61.44
824.152	59.39
824.329	104.45
824.507	200.7
824.685	184.32
824.863	161.79
825.04	86.01
825.218	86.01
825.396	106.49
825.574	200.7
825.751	174.08
825.929	176.13
826.107	65.53
826.284	102.4
826.462	116.73
826.639	92.16
826.817	104.45
826.994	129.02
827.172	106.49
827.349	174.08
827.527	176.13
827.704	114.69
827.882	114.69
828.059	90.11
828.237	94.21
828.414	94.21
828.591	49.15
828.769	131.07
828.946	40.96
829.124	151.55
829.301	51.2
829.478	81.92
829.655	192.51
829.833	135.17
830.01	114.69
830.187	100.35
830.364	51.2
830.542	53.25
830.719	83.97
830.896	88.06
831.073	157.69
831.25	118.78
831.427	139.26
831.604	94.21
831.782	79.87
831.959	118.78
832.136	104.45
832.313	96.25
832.49	20.48
832.667	47.1
832.844	106.49
833.021	59.39
833.198	110.59
833.374	116.73
833.551	122.88
833.728	75.77
833.905	102.4
834.082	45.06
834.259	92.16
834.436	147.45
834.612	59.39
834.789	86.01
834.966	122.88
835.143	118.78
835.319	28.67
835.496	63.49
835.673	51.2
835.85	120.83
836.026	75.77
836.203	51.2
836.38	67.58
836.556	184.32
836.733	108.54
836.909	94.21
837.086	176.13
837.262	92.16
837.439	24.58
837.616	45.06
837.792	26.62
837.968	43.01
838.145	108.54
838.321	110.59
838.498	81.92
838.674	90.11
838.851	81.92
839.027	40.96
839.203	92.16
839.38	145.41
839.556	110.59
839.732	131.07
839.909	104.45
840.085	81.92
840.261	47.1
840.437	110.59
840.614	49.15
840.79	77.82
840.966	75.77
841.142	94.21
841.318	-51.2
841.494	108.54
841.671	-18.43
841.847	118.78
842.023	55.3
842.199	40.96
842.375	88.06
842.551	10.24
842.727	122.88
842.903	71.68
843.079	10.24
843.255	75.77
843.431	63.49
843.607	79.87
843.783	24.58
843.959	118.78
844.134	-34.82
844.31	96.25
844.486	-16.38
844.662	71.68
844.838	98.3
845.013	-53.25
845.189	143.36
845.365	14.34
845.541	71.68
845.716	69.63
845.892	71.68
846.068	10.24
846.244	55.3
846.419	86.01
846.595	57.34
846.77	32.77
846.946	86.01
847.122	-0
847.297	8.19
847.473	104.45
847.648	55.3
847.824	65.53
847.999	24.58
848.175	36.86
848.35	79.87
848.526	8.19
848.701	18.43
848.876	30.72
849.052	102.4
849.227	106.49
849.403	126.97
849.578	-0
849.753	-28.67
849.929	8.19
850.104	59.39
850.279	12.29
850.454	40.96
850.63	61.44
850.805	2.05
850.98	-20.48
851.155	69.63
851.33	77.82
851.505	8.19
851.681	81.92
851.856	36.86
852.031	100.35
852.206	20.48
852.381	2.05
852.556	30.72
852.731	81.92
852.906	63.49
853.081	73.73
853.256	30.72
853.431	14.34
853.606	-22.53
853.781	100.35
853.956	-12.29
854.131	36.86
854.305	108.54
854.48	106.49
854.655	38.91
854.83	49.15
855.005	65.53
855.18	26.62
855.354	69.63
855.529	75.77
855.704	14.34
855.879	22.53
856.053	18.43
856.228	30.72
856.403	18.43
856.577	98.3
856.752	-57.34
856.926	53.25
857.101	81.92
857.276	-18.43
857.45	18.43
857.625	143.36
857.799	10.24
857.974	75.77
858.148	22.53
858.323	6.14
858.497	114.69
858.672	-36.86
858.846	16.38
859.02	36.86
859.195	6.14
859.369	55.3
859.543	57.34
859.718	88.06
859.892	38.91
860.066	43.01
860.241	34.82
860.415	-6.14
860.589	-4.1
860.763	34.82
860.938	-26.62
861.112	24.58
861.286	43.01
861.46	28.67
861.634	38.91
861.808	10.24
861.982	63.49
862.157	26.62
862.331	12.29
862.505	49.15
862.679	20.48
862.853	98.3
863.027	-28.67
863.201	45.06
863.375	-20.48
863.549	8.19
863.722	8.19
863.896	110.59
864.07	-0
864.244	71.68
864.418	34.82
864.592	69.63
864.766	4.1
864.939	92.16
865.113	-2.05
865.287	75.77
865.461	32.77
865.634	94.21
865.808	-30.72
865.982	102.4
866.156	57.34
866.329	12.29
866.503	34.82
866.676	49.15
866.85	-45.06
867.024	22.53
867.197	36.86
867.371	63.49
867.544	24.58
867.718	49.15
867.891	38.91
868.065	73.73
868.238	16.38
868.412	83.97
868.585	43.01
868.759	34.82
868.932	-32.77
869.105	-16.38
869.279	45.06
869.452	-2.05
869.625	30.72
869.799	45.06
869.972	14.34
870.145	6.14
870.319	36.86
870.492	49.15
870.665	-22.53
870.838	26.62
871.011	4.1
871.185	10.24
871.358	-67.58
871.531	79.87
871.704	-34.82
871.877	71.68
872.05	45.06
872.223	-4.1
872.396	77.82
872.569	-73.73
872.742	28.67
872.915	-0
873.088	40.96
873.261	43.01
873.434	-16.38
873.607	-14.34
873.78	6.14
873.953	-24.58
874.126	59.39
874.299	32.77
874.471	98.3
874.644	-8.19
874.817	38.91
874.99	51.2
875.163	34.82
875.335	38.91
875.508	4.1
875.681	14.34
875.853	2.05
876.026	-0
876.199	-28.67
876.371	79.87
876.544	-55.3
876.717	59.39
876.889	-12.29
877.062	77.82
877.234	88.06
877.407	14.34
877.579	-0
877.752	-38.91
877.924	8.19
878.097	-8.19
878.269	16.38
878.442	49.15
878.614	24.58
878.786	-22.53
878.959	32.77
879.131	30.72
879.303	-22.53
879.476	-6.14
879.648	51.2
879.82	-0
879.993	73.73
880.165	129.02
880.337	-16.38
880.509	8.19
880.681	8.19
880.854	61.44
881.026	22.53
881.198	124.93
881.37	-10.24
881.542	61.44
881.714	18.43
881.886	20.48
882.058	-32.77
882.23	6.14
882.402	20.48
882.574	-57.34
882.746	81.92
882.918	73.73
883.09	79.87
883.262	45.06
883.434	-43.01
883.606	-26.62
883.778	12.29
883.95	57.34
884.122	-4.1
884.293	102.4
884.465	51.2
884.637	38.91
884.809	2.05
884.98	-36.86
885.152	-8.19
885.324	45.06
885.496	-16.38
885.667	20.48
885.839	-34.82
886.011	51.2
886.182	53.25
886.354	118.78
886.525	-12.29
886.697	67.58
886.869	12.29
887.04	-22.53
887.212	47.1
887.383	69.63
887.555	-65.54
887.726	81.92
887.897	-6.14
888.069	47.1
888.24	30.72
888.412	49.15
888.583	112.64
888.754	-4.1
888.926	22.53
889.097	26.62
889.268	55.3
889.44	-14.34
889.611	-12.29
889.782	-18.43
889.953	-2.05
890.125	86.01
890.296	-34.82
890.467	6.14
890.638	16.38
890.809	45.06
890.98	45.06
891.151	12.29
891.323	22.53
891.494	14.34
891.665	14.34
891.836	-6.14
892.007	118.78
892.178	88.06
892.349	-4.1
892.52	-18.43
892.691	-2.05
892.862	20.48
893.032	4.1
893.203	-2.05
893.374	-8.19
893.545	65.53
893.716	-34.82
893.887	77.82
894.057	-24.58
894.228	55.3
894.399	-61.44
894.57	-26.62
894.74	-20.48
894.911	63.49
895.082	-12.29
895.253	36.86
895.423	45.06
895.594	40.96
895.764	-10.24
895.935	-12.29
896.106	-6.14
896.276	34.82
896.447	-0
896.617	8.19
896.788	18.43
896.958	71.68
897.129	4.1
897.299	-8.19
897.47	4.1
897.64	53.25
897.81	-30.72
897.981	14.34
898.151	28.67
898.322	14.34
898.492	-73.73
898.662	22.53
898.832	8.19
899.003	8.19
899.173	51.2
899.343	12.29
899.513	40.96
