Data from USB4F104151__83__11-45-34-847.txt Node

Date: Fri Mar 14 11:45:34 EDT 2025
User: louis
Spectrometer: USB4F10415
Trigger mode: 4
Integration Time (sec): 2.000000E-2
Scans to average: 1
Electric dark correction enabled: true
Nonlinearity correction enabled: false
Boxcar width: 0
XAxis mode: Wavelengths
Number of Pixels in Spectrum: 3648
>>>>>Begin Spectral Data<<<<<
178.204	-79.7
178.424	-79.7
178.644	-79.7
178.864	-114.52
179.084	-44.88
179.304	-24.4
179.524	26.79
179.744	51.37
179.964	20.65
180.184	26.79
180.404	51.37
180.624	6.31
180.844	-8.02
181.064	-26.45
181.283	-12.12
181.503	-42.84
181.723	-69.46
181.943	-10.07
182.163	53.42
182.383	18.6
182.602	47.27
182.822	18.6
183.042	61.61
183.262	-34.64
183.482	123.05
183.701	26.79
183.921	20.65
184.141	55.47
184.361	88.23
184.58	47.27
184.8	-10.07
185.02	-20.31
185.239	32.94
185.459	41.13
185.679	26.79
185.898	-81.75
186.118	102.57
186.338	51.37
186.557	14.51
186.777	45.23
186.997	71.85
187.216	34.99
187.436	45.23
187.655	22.7
187.875	73.9
188.095	4.27
188.314	49.32
188.534	71.85
188.753	-24.4
188.973	37.03
189.192	14.51
189.412	12.46
189.631	39.08
189.851	73.9
190.07	30.89
190.29	45.23
190.509	39.08
190.729	-24.4
190.948	92.33
191.168	131.24
191.387	69.8
191.607	39.08
191.826	98.47
192.045	12.46
192.265	22.7
192.484	22.7
192.704	-26.45
192.923	2.22
193.142	94.38
193.362	57.51
193.581	-1.88
193.8	8.36
194.02	69.8
194.239	-46.93
194.458	4.27
194.678	84.14
194.897	69.8
195.116	16.55
195.335	47.27
195.555	65.71
195.774	0.17
195.993	63.66
196.212	6.31
196.432	39.08
196.651	45.23
196.87	59.56
197.089	90.28
197.308	39.08
197.528	16.55
197.747	-26.45
197.966	73.9
198.185	43.18
198.404	0.17
198.623	45.23
198.842	14.51
199.062	-42.84
199.281	90.28
199.5	116.9
199.719	16.55
199.938	6.31
200.157	100.52
200.376	24.75
200.595	39.08
200.814	28.84
201.033	-53.08
201.252	59.56
201.471	67.75
201.69	28.84
201.909	92.33
202.128	65.71
202.347	55.47
202.566	75.95
202.785	53.42
203.004	-8.02
203.223	16.55
203.442	28.84
203.661	32.94
203.879	32.94
204.098	55.47
204.317	65.71
204.536	2.22
204.755	77.99
204.974	-26.45
205.193	16.55
205.411	45.23
205.63	37.03
205.849	18.6
206.068	41.13
206.287	-32.6
206.505	57.51
206.724	51.37
206.943	8.36
207.162	20.65
207.381	14.51
207.599	16.55
207.818	-12.12
208.037	75.95
208.255	47.27
208.474	-5.97
208.693	-30.55
208.911	28.84
209.13	32.94
209.349	80.04
209.567	14.51
209.786	104.62
210.005	18.6
210.223	55.47
210.442	14.51
210.661	6.31
210.879	65.71
211.098	-1.88
211.316	53.42
211.535	125.1
211.753	20.65
211.972	-18.26
212.191	16.55
212.409	8.36
212.628	10.41
212.846	-8.02
213.065	28.84
213.283	86.19
213.502	8.36
213.72	80.04
213.938	53.42
214.157	47.27
214.375	8.36
214.594	-14.17
214.812	47.27
215.031	10.41
215.249	55.47
215.467	-28.5
215.686	69.8
215.904	82.09
216.122	47.27
216.341	37.03
216.559	96.43
216.778	41.13
216.996	22.7
217.214	26.79
217.432	10.41
217.651	-22.36
217.869	-36.69
218.087	53.42
218.306	51.37
218.524	63.66
218.742	61.61
218.96	82.09
219.179	53.42
219.397	4.27
219.615	127.14
219.833	39.08
220.051	59.56
220.27	14.51
220.488	108.71
220.706	75.95
220.924	6.31
221.142	53.42
221.36	63.66
221.578	63.66
221.796	86.19
222.015	37.03
222.233	49.32
222.451	125.1
222.669	-28.5
222.887	98.47
223.105	26.79
223.323	69.8
223.541	-16.21
223.759	57.51
223.977	32.94
224.195	47.27
224.413	28.84
224.631	41.13
224.849	-14.17
225.067	61.61
225.285	59.56
225.503	59.56
225.721	-26.45
225.939	20.65
226.157	73.9
226.375	69.8
226.592	45.23
226.81	59.56
227.028	41.13
227.246	63.66
227.464	-10.07
227.682	8.36
227.9	20.65
228.117	45.23
228.335	47.27
228.553	112.81
228.771	49.32
228.989	110.76
229.206	94.38
229.424	-22.36
229.642	-24.4
229.86	-16.21
230.077	-26.45
230.295	84.14
230.513	106.67
230.731	71.85
230.948	47.27
231.166	45.23
231.384	41.13
231.601	39.08
231.819	71.85
232.037	14.51
232.254	-73.56
232.472	55.47
232.689	-14.17
232.907	43.18
233.125	41.13
233.342	20.65
233.56	-5.97
233.777	102.57
233.995	-12.12
234.213	57.51
234.43	18.6
234.648	71.85
234.865	34.99
235.083	65.71
235.3	-20.31
235.518	121
235.735	26.79
235.953	77.99
236.17	57.51
236.388	135.34
236.605	-12.12
236.822	2.22
237.04	14.51
237.257	41.13
237.475	32.94
237.692	34.99
237.909	37.03
238.127	26.79
238.344	59.56
238.562	67.75
238.779	65.71
238.996	10.41
239.214	100.52
239.431	10.41
239.648	4.27
239.865	57.51
240.083	55.47
240.3	-12.12
240.517	41.13
240.735	67.75
240.952	6.31
241.169	121
241.386	32.94
241.603	37.03
241.821	51.37
242.038	75.95
242.255	32.94
242.472	22.7
242.689	45.23
242.907	65.71
243.124	30.89
243.341	94.38
243.558	65.71
243.775	10.41
243.992	41.13
244.209	75.95
244.426	53.42
244.643	45.23
244.86	18.6
245.078	63.66
245.295	20.65
245.512	16.55
245.729	14.51
245.946	49.32
246.163	32.94
246.38	28.84
246.597	-3.93
246.814	34.99
247.031	37.03
247.248	133.29
247.464	4.27
247.681	26.79
247.898	26.79
248.115	53.42
248.332	4.27
248.549	0.17
248.766	41.13
248.983	-5.97
249.2	41.13
249.417	53.42
249.633	39.08
249.85	16.55
250.067	-112.47
250.284	4.27
250.501	61.61
250.717	30.89
250.934	65.71
251.151	20.65
251.368	20.65
251.585	14.51
251.801	49.32
252.018	34.99
252.235	18.6
252.451	4.27
252.668	22.7
252.885	-26.45
253.102	-16.21
253.318	-30.55
253.535	-3.93
253.752	10.41
253.968	69.8
254.185	45.23
254.401	0.17
254.618	71.85
254.835	4.27
255.051	86.19
255.268	43.18
255.484	-14.17
255.701	-22.36
255.917	45.23
256.134	20.65
256.351	57.51
256.567	-10.07
256.784	65.71
257	0.17
257.217	16.55
257.433	0.17
257.65	55.47
257.866	43.18
258.082	73.9
258.299	16.55
258.515	65.71
258.732	-10.07
258.948	53.42
259.165	77.99
259.381	77.99
259.597	92.33
259.814	2.22
260.03	57.51
260.246	12.46
260.463	41.13
260.679	47.27
260.895	53.42
261.112	69.8
261.328	14.51
261.544	-57.17
261.761	106.67
261.977	12.46
262.193	6.31
262.409	24.75
262.626	57.51
262.842	32.94
263.058	37.03
263.274	45.23
263.49	8.36
263.707	34.99
263.923	16.55
264.139	75.95
264.355	30.89
264.571	94.38
264.787	10.41
265.004	131.24
265.22	82.09
265.436	8.36
265.652	-16.21
265.868	0.17
266.084	2.22
266.3	63.66
266.516	47.27
266.732	16.55
266.948	65.71
267.164	61.61
267.38	47.27
267.596	61.61
267.812	96.43
268.028	49.32
268.244	49.32
268.46	69.8
268.676	20.65
268.892	80.04
269.108	92.33
269.324	14.51
269.54	57.51
269.756	123.05
269.972	4.27
270.188	37.03
270.403	30.89
270.619	24.75
270.835	24.75
271.051	30.89
271.267	-8.02
271.483	47.27
271.698	98.47
271.914	22.7
272.13	30.89
272.346	20.65
272.562	-3.93
272.777	30.89
272.993	80.04
273.209	-22.36
273.425	108.71
273.64	8.36
273.856	59.56
274.072	41.13
274.287	32.94
274.503	69.8
274.719	106.67
274.934	37.03
275.15	39.08
275.366	18.6
275.581	49.32
275.797	16.55
276.012	14.51
276.228	69.8
276.444	80.04
276.659	39.08
276.875	77.99
277.09	55.47
277.306	118.95
277.521	37.03
277.737	12.46
277.952	94.38
278.168	77.99
278.383	18.6
278.599	-1.88
278.814	24.75
279.03	16.55
279.245	90.28
279.461	55.47
279.676	71.85
279.892	16.55
280.107	-1.88
280.322	71.85
280.538	-18.26
280.753	37.03
280.969	10.41
281.184	22.7
281.399	-10.07
281.615	30.89
281.83	75.95
282.045	22.7
282.26	-12.12
282.476	-28.5
282.691	-3.93
282.906	69.8
283.122	-22.36
283.337	55.47
283.552	149.67
283.767	-8.02
283.983	14.51
284.198	8.36
284.413	-34.64
284.628	51.37
284.843	41.13
285.058	51.37
285.274	14.51
285.489	16.55
285.704	80.04
285.919	94.38
286.134	20.65
286.349	90.28
286.564	86.19
286.779	57.51
286.995	22.7
287.21	12.46
287.425	20.65
287.64	24.75
287.855	59.56
288.07	49.32
288.285	53.42
288.5	71.85
288.715	39.08
288.93	80.04
289.145	53.42
289.36	69.8
289.575	-5.97
289.79	8.36
290.004	63.66
290.219	88.23
290.434	67.75
290.649	41.13
290.864	45.23
291.079	110.76
291.294	12.46
291.509	49.32
291.724	22.7
291.938	4.27
292.153	69.8
292.368	69.8
292.583	86.19
292.798	168.1
293.012	75.95
293.227	2.22
293.442	77.99
293.657	22.7
293.871	61.61
294.086	10.41
294.301	69.8
294.516	82.09
294.73	16.55
294.945	32.94
295.16	65.71
295.374	43.18
295.589	71.85
295.804	-14.17
296.018	-5.97
296.233	80.04
296.447	12.46
296.662	2.22
296.877	92.33
297.091	4.27
297.306	135.34
297.52	41.13
297.735	108.71
297.949	106.67
298.164	45.23
298.378	20.65
298.593	37.03
298.807	69.8
299.022	63.66
299.236	67.75
299.451	88.23
299.665	-22.36
299.88	65.71
300.094	57.51
300.309	30.89
300.523	67.75
300.737	6.31
300.952	49.32
301.166	22.7
301.381	37.03
301.595	98.47
301.809	32.94
302.024	4.27
302.238	2.22
302.452	45.23
302.667	-16.21
302.881	16.55
303.095	61.61
303.309	41.13
303.524	57.51
303.738	-18.26
303.952	-1.88
304.166	86.19
304.381	22.7
304.595	55.47
304.809	39.08
305.023	75.95
305.237	57.51
305.452	71.85
305.666	84.14
305.88	94.38
306.094	84.14
306.308	34.99
306.522	6.31
306.736	63.66
306.95	26.79
307.164	18.6
307.379	65.71
307.593	41.13
307.807	108.71
308.021	90.28
308.235	82.09
308.449	39.08
308.663	59.56
308.877	96.43
309.091	77.99
309.305	123.05
309.519	96.43
309.733	73.9
309.947	41.13
310.161	63.66
310.374	-10.07
310.588	100.52
310.802	20.65
311.016	45.23
311.23	80.04
311.444	67.75
311.658	59.56
311.872	57.51
312.085	55.47
312.299	135.34
312.513	112.81
312.727	71.85
312.941	65.71
313.154	75.95
313.368	125.1
313.582	98.47
313.796	-30.55
314.009	22.7
314.223	-1.88
314.437	102.57
314.651	112.81
314.864	-1.88
315.078	114.86
315.292	92.33
315.505	90.28
315.719	75.95
315.933	65.71
316.146	14.51
316.36	45.23
316.573	90.28
316.787	41.13
317.001	59.56
317.214	55.47
317.428	51.37
317.641	20.65
317.855	55.47
318.068	112.81
318.282	32.94
318.495	51.37
318.709	-10.07
318.922	125.1
319.136	22.7
319.349	59.56
319.563	22.7
319.776	43.18
319.99	82.09
320.203	75.95
320.417	104.62
320.63	75.95
320.843	59.56
321.057	18.6
321.27	53.42
321.483	86.19
321.697	18.6
321.91	0.17
322.124	84.14
322.337	75.95
322.55	90.28
322.763	32.94
322.977	45.23
323.19	57.51
323.403	61.61
323.617	59.56
323.83	159.91
324.043	73.9
324.256	55.47
324.469	-14.17
324.683	32.94
324.896	12.46
325.109	94.38
325.322	32.94
325.535	28.84
325.748	28.84
325.962	65.71
326.175	55.47
326.388	39.08
326.601	41.13
326.814	69.8
327.027	135.34
327.24	41.13
327.453	71.85
327.666	86.19
327.879	57.51
328.092	12.46
328.305	12.46
328.518	73.9
328.731	-5.97
328.944	77.99
329.157	10.41
329.37	69.8
329.583	39.08
329.796	65.71
330.009	20.65
330.222	65.71
330.435	69.8
330.648	106.67
330.861	55.47
331.073	127.14
331.286	94.38
331.499	77.99
331.712	-1.88
331.925	39.08
332.138	-3.93
332.35	2.22
332.563	49.32
332.776	106.67
332.989	71.85
333.202	0.17
333.414	24.75
333.627	69.8
333.84	-10.07
334.053	30.89
334.265	121
334.478	65.71
334.691	88.23
334.903	88.23
335.116	39.08
335.329	92.33
335.541	0.17
335.754	-1.88
335.966	28.84
336.179	77.99
336.392	57.51
336.604	106.67
336.817	73.9
337.029	69.8
337.242	67.75
337.454	51.37
337.667	32.94
337.88	59.56
338.092	71.85
338.305	53.42
338.517	39.08
338.729	55.47
338.942	84.14
339.154	45.23
339.367	53.42
339.579	22.7
339.792	41.13
340.004	8.36
340.217	77.99
340.429	57.51
340.641	75.95
340.854	114.86
341.066	2.22
341.278	53.42
341.491	69.8
341.703	43.18
341.915	14.51
342.128	92.33
342.34	20.65
342.552	63.66
342.764	37.03
342.977	75.95
343.189	112.81
343.401	32.94
343.613	10.41
343.826	41.13
344.038	24.75
344.25	94.38
344.462	53.42
344.674	121
344.886	57.51
345.099	49.32
345.311	41.13
345.523	26.79
345.735	-26.45
345.947	34.99
346.159	71.85
346.371	114.86
346.583	84.14
346.795	55.47
347.007	155.82
347.219	28.84
347.431	37.03
347.643	80.04
347.855	32.94
348.067	61.61
348.279	-12.12
348.491	55.47
348.703	102.57
348.915	77.99
349.127	-14.17
349.339	51.37
349.551	73.9
349.763	10.41
349.975	71.85
350.187	55.47
350.399	37.03
350.61	-14.17
350.822	141.48
351.034	131.24
351.246	63.66
351.458	4.27
351.669	75.95
351.881	104.62
352.093	37.03
352.305	55.47
352.517	71.85
352.728	49.32
352.94	20.65
353.152	61.61
353.363	0.17
353.575	110.76
353.787	147.62
353.999	118.95
354.21	47.27
354.422	80.04
354.633	-20.31
354.845	65.71
355.057	32.94
355.268	55.47
355.48	75.95
355.692	14.51
355.903	34.99
356.115	98.47
356.326	28.84
356.538	-3.93
356.749	69.8
356.961	161.96
357.172	90.28
357.384	55.47
357.595	92.33
357.807	0.17
358.018	32.94
358.23	63.66
358.441	104.62
358.653	112.81
358.864	-5.97
359.075	30.89
359.287	63.66
359.498	114.86
359.709	127.14
359.921	41.13
360.132	43.18
360.344	155.82
360.555	24.75
360.766	30.89
360.977	53.42
361.189	129.19
361.4	39.08
361.611	43.18
361.823	65.71
362.034	88.23
362.245	22.7
362.456	69.8
362.667	39.08
362.879	12.46
363.09	96.43
363.301	73.9
363.512	82.09
363.723	73.9
363.935	34.99
364.146	86.19
364.357	69.8
364.568	80.04
364.779	22.7
364.99	73.9
365.201	-10.07
365.412	43.18
365.623	61.61
365.834	-5.97
366.045	8.36
366.256	94.38
366.467	121
366.678	102.57
366.889	59.56
367.1	57.51
367.311	55.47
367.522	94.38
367.733	65.71
367.944	55.47
368.155	14.51
368.366	39.08
368.577	135.34
368.788	80.04
368.999	10.41
369.209	34.99
369.42	45.23
369.631	180.39
369.842	88.23
370.053	41.13
370.264	80.04
370.474	39.08
370.685	41.13
370.896	159.91
371.107	16.55
371.317	80.04
371.528	43.18
371.739	125.1
371.95	45.23
372.16	61.61
372.371	0.17
372.582	-1.88
372.792	139.43
373.003	110.76
373.214	86.19
373.424	39.08
373.635	55.47
373.846	77.99
374.056	100.52
374.267	102.57
374.477	59.56
374.688	125.1
374.898	73.9
375.109	77.99
375.319	67.75
375.53	135.34
375.74	-20.31
375.951	51.37
376.161	32.94
376.372	41.13
376.582	26.79
376.793	41.13
377.003	-24.4
377.214	104.62
377.424	84.14
377.635	32.94
377.845	45.23
378.055	121
378.266	47.27
378.476	55.47
378.686	102.57
378.897	77.99
379.107	77.99
379.317	80.04
379.528	96.43
379.738	73.9
379.948	73.9
380.158	61.61
380.369	57.51
380.579	39.08
380.789	73.9
380.999	4.27
381.21	26.79
381.42	110.76
381.63	61.61
381.84	73.9
382.05	57.51
382.261	69.8
382.471	77.99
382.681	53.42
382.891	92.33
383.101	114.86
383.311	-51.03
383.521	49.32
383.731	141.48
383.941	69.8
384.151	73.9
384.361	71.85
384.571	80.04
384.781	92.33
384.991	90.28
385.201	49.32
385.411	102.57
385.621	20.65
385.831	47.27
386.041	102.57
386.251	98.47
386.461	84.14
386.671	139.43
386.881	116.9
387.091	116.9
387.301	77.99
387.511	30.89
387.72	127.14
387.93	82.09
388.14	-14.17
388.35	94.38
388.56	125.1
388.769	84.14
388.979	102.57
389.189	61.61
389.399	153.77
389.609	84.14
389.818	153.77
390.028	121
390.238	143.53
390.447	45.23
390.657	69.8
390.867	75.95
391.076	92.33
391.286	47.27
391.496	73.9
391.705	67.75
391.915	114.86
392.125	55.47
392.334	139.43
392.544	67.75
392.753	30.89
392.963	86.19
393.172	135.34
393.382	104.62
393.591	110.76
393.801	84.14
394.01	106.67
394.22	63.66
394.429	45.23
394.639	69.8
394.848	57.51
395.058	159.91
395.267	137.38
395.477	108.71
395.686	88.23
395.895	266.41
396.105	137.38
396.314	82.09
396.524	112.81
396.733	129.19
396.942	188.58
397.152	149.67
397.361	86.19
397.57	92.33
397.78	96.43
397.989	131.24
398.198	135.34
398.407	133.29
398.617	125.1
398.826	106.67
399.035	98.47
399.244	110.76
399.453	118.95
399.663	73.9
399.872	104.62
400.081	153.77
400.29	121
400.499	61.61
400.708	106.67
400.917	110.76
401.127	88.23
401.336	114.86
401.545	172.2
401.754	135.34
401.963	164.01
402.172	161.96
402.381	77.99
402.59	153.77
402.799	166.06
403.008	121
403.217	180.39
403.426	178.34
403.635	90.28
403.844	170.15
404.053	174.25
404.262	125.1
404.471	141.48
404.68	198.82
404.888	204.97
405.097	256.17
405.306	186.54
405.515	188.58
405.724	166.06
405.933	131.24
406.142	245.93
406.35	196.78
406.559	204.97
406.768	194.73
406.977	252.07
407.185	256.17
407.394	270.5
407.603	202.92
407.812	247.97
408.02	256.17
408.229	168.1
408.438	233.64
408.646	305.32
408.855	315.56
409.064	342.18
409.272	276.65
409.481	364.71
409.69	387.24
409.898	358.57
410.107	323.75
410.315	333.99
410.524	385.19
410.733	336.04
410.941	428.2
411.15	446.63
411.358	411.81
411.567	438.44
411.775	501.92
411.984	426.15
412.192	469.16
412.401	485.54
412.609	563.36
412.818	479.4
413.026	663.71
413.234	567.46
413.443	526.5
413.651	624.8
413.86	581.79
414.068	671.9
414.276	696.48
414.485	708.77
414.693	698.53
414.901	725.15
415.11	788.64
415.318	782.49
415.526	845.98
415.734	866.46
415.943	911.52
416.151	895.13
416.359	866.46
416.567	950.43
416.776	950.43
416.984	1022.11
417.192	1073.31
417.4	989.34
417.608	1073.31
417.817	1114.27
418.025	1253.53
418.233	1261.72
418.441	1286.3
418.649	1265.82
418.857	1443.99
419.065	1368.21
419.273	1407.13
419.481	1425.56
419.689	1487
419.897	1630.35
420.105	1685.65
420.313	1724.56
420.521	1806.48
420.729	1738.9
420.937	1869.97
421.145	1865.87
421.353	1949.84
421.561	2123.91
421.769	2140.3
421.977	2152.59
422.185	2269.32
422.393	2441.35
422.601	2476.16
422.809	2416.77
423.017	2476.16
423.224	2627.71
423.432	2678.91
423.64	2635.91
423.848	2932.86
424.056	2918.53
424.263	3076.22
424.471	3086.46
424.679	3207.29
424.887	3338.36
425.094	3391.61
425.302	3463.29
425.51	3506.29
425.718	3666.03
425.925	3739.76
426.133	3770.48
426.341	4075.63
426.548	4221.03
426.756	4317.29
426.964	4259.95
427.171	4687.97
427.379	4599.91
427.586	4837.47
427.794	4868.19
428.001	5179.48
428.209	5339.23
428.417	5277.79
428.624	5574.74
428.832	5615.7
429.039	5552.21
429.247	5539.93
429.454	6076.49
429.662	6461.51
429.869	6275.15
430.076	6602.82
430.284	6391.88
430.491	6635.59
430.699	7145.53
430.906	7151.68
431.114	7106.62
431.321	7417.91
431.528	7518.26
431.736	8146.99
431.943	8425.51
432.15	7987.25
432.358	8265.77
432.565	8634.41
432.772	8589.35
432.979	9060.38
433.187	9152.54
433.394	9357.34
433.601	10014.74
433.808	10041.36
434.016	10145.81
434.223	10455.05
434.43	11014.15
434.637	10711.05
434.844	11380.73
435.052	11446.27
435.259	11618.3
435.466	11524.09
435.673	11665.4
435.88	12257.26
436.087	12759.02
436.294	12875.75
436.501	12795.88
436.708	12869.61
436.915	13361.12
437.122	14026.71
437.329	13764.57
437.537	14477.26
437.743	14637
437.95	14311.38
438.157	15171.52
438.364	15546.3
438.571	15552.45
438.778	15818.68
438.985	17244.07
439.192	16648.11
439.399	16877.48
439.606	16541.61
439.813	17526.69
440.02	18706.32
440.227	18276.24
440.433	18034.58
440.64	18935.69
440.847	18644.88
441.054	19169.16
441.261	20563.82
441.467	20252.53
441.674	20801.39
441.881	21290.85
442.088	21145.45
442.294	21182.31
442.501	21577.57
442.708	21849.95
442.914	23019.34
443.121	23756.61
443.328	23344.97
443.534	25126.7
443.741	23873.34
443.948	23795.52
444.154	25763.62
444.361	26009.37
444.568	25784.1
444.774	25677.6
444.981	26126.11
445.187	26699.54
445.394	27674.37
445.6	27594.5
445.807	30303.96
446.013	28933.87
446.22	29245.16
446.426	30611.16
446.633	30961.36
446.839	31909.57
447.046	30713.56
447.252	32167.62
447.459	32353.98
447.665	32003.78
447.871	33396.4
448.078	34862.74
448.284	33513.13
448.491	33746.6
448.697	35395.21
448.903	36013.7
449.11	36091.52
449.316	35843.72
449.522	36062.85
449.728	37340.78
449.935	37521.01
450.141	37576.3
450.347	38350.43
450.553	37504.62
450.76	37381.74
450.966	38983.26
451.172	38708.83
451.378	39386.71
451.584	38823.51
451.791	39581.26
451.997	39276.12
452.203	40224.32
452.409	40142.41
452.615	39829.07
452.821	38266.47
453.027	37918.31
453.233	39816.78
453.44	38377.06
453.646	39040.6
453.852	39495.25
454.058	39677.52
454.264	38477.41
454.47	39411.28
454.676	38076.01
454.882	39788.11
455.088	36310.66
455.294	36961.91
455.5	37228.15
455.705	37643.88
455.911	36447.87
456.117	35288.72
456.323	34846.36
456.529	33193.65
456.735	34836.12
456.941	33812.13
457.147	33320.62
457.352	32405.18
457.558	31999.68
457.764	31983.3
457.97	31342.28
458.176	30748.37
458.381	30670.55
458.587	29439.72
458.793	29271.79
458.999	27913.98
459.204	29873.89
459.41	28727.03
459.616	26930.96
459.821	27053.84
460.027	27219.72
460.233	26208.03
460.438	25046.83
460.644	25548.58
460.85	23979.84
461.055	23783.23
461.261	23789.38
461.466	21884.76
461.672	21557.09
461.878	22962
462.083	21763.93
462.289	21049.19
462.494	20701.04
462.7	19842.94
462.905	19283.84
463.111	20066.17
463.316	20305.78
463.522	19562.37
463.727	19810.17
463.932	19748.73
464.138	19302.28
464.343	19326.85
464.549	18669.45
464.754	19427.2
464.959	19326.85
465.165	19054.47
465.37	18345.87
465.575	17829.79
465.781	18671.5
465.986	18646.93
466.191	18016.15
466.397	17747.87
466.602	16684.97
466.807	17430.43
467.012	17469.34
467.218	17524.64
467.423	17180.58
467.628	17266.6
467.833	18274.2
468.038	17287.07
468.244	16801.71
468.449	17643.42
468.654	16998.31
468.859	16723.88
469.064	16762.79
469.269	16048.05
469.474	16246.71
469.679	16510.89
469.885	16048.05
470.09	16279.47
470.295	16330.67
470.5	15966.14
470.705	15943.61
470.91	15374.27
471.115	15339.46
471.32	15695.8
471.525	15476.67
471.73	15065.03
471.935	15060.93
472.139	14430.16
472.344	14913.48
472.549	14788.55
472.754	14288.85
472.959	14168.02
473.164	13711.32
473.369	13746.14
473.574	14180.31
473.778	14292.94
473.983	13907.93
474.188	13899.73
474.393	13309.92
474.598	13162.47
474.802	13055.97
475.007	12972
475.212	13041.64
475.417	12638.19
475.621	12783.59
475.826	12634.09
476.031	12402.67
476.235	12148.72
476.44	12085.23
476.645	11986.93
476.849	12253.17
477.054	12058.61
477.259	11728.89
477.463	11741.18
477.668	11450.36
477.872	11528.19
478.077	11325.44
478.282	11233.28
478.486	11094.02
478.691	11010.05
478.895	10907.65
479.1	10901.51
479.304	10805.25
479.509	10579.98
479.713	10973.19
479.918	10680.33
480.122	10354.7
480.326	10582.03
480.531	10618.89
480.735	10506.25
480.94	10283.02
481.144	10616.84
481.348	10219.53
481.553	10053.65
481.757	10086.42
481.961	10332.17
482.166	10379.28
482.37	9918.48
482.574	9986.07
482.778	10104.85
482.983	10149.9
483.187	10154
483.391	10041.36
483.595	9879.57
483.8	9680.92
484.004	10012.69
484.208	10215.44
484.412	9947.15
484.616	10098.7
484.821	10016.79
485.025	9965.59
485.229	10205.2
485.433	9965.59
485.637	10190.86
485.841	10033.17
486.045	10051.6
486.249	10096.66
486.453	9961.49
486.657	10022.93
486.861	10082.32
487.065	9744.41
487.269	9924.63
487.473	9797.65
487.677	10104.85
487.881	10233.87
488.085	10002.45
488.289	10072.08
488.493	10096.66
488.697	10100.75
488.901	9973.78
489.105	9973.78
489.309	10086.42
489.512	10166.29
489.716	10076.18
489.92	10176.53
490.124	10131.47
490.328	10340.36
490.531	10336.27
490.735	10364.94
490.939	10313.74
491.143	10201.1
491.346	10143.76
491.55	10592.27
491.754	10418.19
491.958	10749.96
492.161	10444.81
492.365	10516.49
492.569	10438.67
492.772	10383.37
492.976	10561.55
493.18	10625.03
493.383	10792.97
493.587	10762.25
493.79	11034.63
493.994	10719.24
494.197	10805.25
494.401	11161.6
494.605	11220.99
494.808	11345.92
495.012	11364.35
495.215	11382.78
495.419	11395.07
495.622	11350.01
495.825	11636.73
496.029	11626.49
496.232	11812.85
496.436	11814.9
496.639	11982.84
496.843	12134.39
497.046	12263.41
497.249	12519.4
497.453	12283.89
497.656	12742.63
497.859	12589.03
498.063	12939.24
498.266	12998.63
498.469	12986.34
498.673	12969.96
498.876	13246.43
499.079	13502.43
499.282	13393.89
499.485	13795.29
499.689	13645.79
499.892	13936.6
500.095	13959.13
500.298	14270.42
500.501	14098.39
500.705	14673.87
500.908	14868.42
501.111	14884.81
501.314	15099.84
501.517	14997.45
501.72	15536.06
501.923	15448
502.126	15704
502.329	15937.46
502.532	15904.7
502.735	15980.47
502.938	16293.81
503.141	16320.43
503.344	16555.95
503.547	16859.05
503.75	17022.89
503.953	16981.93
504.156	17463.2
504.359	17739.68
504.562	17616.8
504.765	18190.23
504.968	18003.86
505.17	18112.41
505.373	18259.86
505.576	18681.74
505.779	18839.44
505.982	18823.05
506.185	19478.4
506.387	19623.81
506.59	19666.81
506.793	19742.59
506.996	19785.6
507.198	20459.38
507.401	20447.09
507.604	20567.92
507.807	20916.08
508.009	21260.13
508.212	21233.51
508.415	21393.25
508.617	21577.57
508.82	22013.79
509.022	21808.99
509.225	22411.09
509.428	22552.4
509.63	22490.96
509.833	22646.61
510.035	23340.87
510.238	23224.14
510.44	23660.35
510.643	24004.41
510.845	24037.18
511.048	23770.94
511.25	24444.73
511.453	24665.91
511.655	25554.72
511.858	25085.74
512.06	25663.27
512.262	25863.97
512.465	25745.19
512.667	25982.75
512.87	26019.61
513.072	26423.06
513.274	27158.28
513.477	26976.02
513.679	27213.58
513.881	27471.62
514.084	28071.68
514.286	28006.14
514.488	28012.29
514.69	28778.23
514.893	28905.2
515.095	28862.19
515.297	29531.88
515.499	29746.92
515.701	29800.16
515.904	30109.41
516.106	30224.09
516.308	30439.13
516.51	31108.82
516.712	30779.09
516.914	31145.68
517.116	31895.24
517.318	31712.97
517.52	32009.92
517.722	32286.4
517.925	32288.45
518.127	33326.77
518.329	33539.75
518.531	33463.98
518.733	33357.49
518.935	34461.34
519.136	33814.18
519.338	34545.31
519.54	34303.65
519.742	35184.27
519.944	35090.07
520.146	35493.52
520.348	35896.97
520.55	36062.85
520.752	36396.67
520.954	37058.17
521.155	36640.38
521.357	37344.88
521.559	37318.26
521.761	37918.31
521.963	37656.17
522.164	37955.18
522.366	38610.53
522.568	38401.63
522.77	39106.13
522.971	39618.13
523.173	39282.26
523.375	39577.17
523.576	39501.39
523.778	39806.54
523.98	40259.14
524.181	40205.89
524.383	40472.13
524.584	40752.7
524.786	41027.13
524.988	40644.16
525.189	41481.78
525.391	41862.7
525.592	41760.3
525.794	42110.5
525.995	42022.44
526.197	42124.84
526.398	42425.89
526.6	42628.64
526.801	42851.87
527.003	43191.83
527.204	42847.77
527.406	43648.53
527.607	43361.81
527.808	43619.86
528.01	43036.19
528.211	43542.03
528.412	44572.16
528.614	44307.97
528.815	44113.42
529.016	44865.02
529.218	44533.25
529.419	44656.13
529.62	44903.93
529.822	44480
530.023	44557.83
530.224	44717.57
530.425	44969.47
530.626	44983.8
530.828	44355.08
531.029	45739.5
531.23	44871.17
531.431	44899.84
531.632	45348.34
531.833	45409.78
532.035	45118.97
532.236	45245.94
532.437	45696.5
532.638	45297.14
532.839	45567.48
533.04	45743.6
533.241	45327.86
533.442	46091.76
533.643	46204.39
533.844	45608.43
534.045	45946.35
534.246	45630.96
534.447	45913.58
534.648	45970.93
534.849	46075.37
535.05	45749.74
535.251	45989.36
535.451	45446.65
535.652	46403.05
535.853	45985.26
536.054	46484.97
536.255	46120.43
536.456	45731.31
536.657	46521.83
536.857	46108.14
537.058	45839.86
537.259	46130.67
537.46	46026.22
537.66	45598.19
537.861	46284.26
538.062	46122.47
538.263	46183.91
538.463	45825.52
538.664	45698.55
538.865	46175.72
539.065	46585.32
539.266	45811.18
539.466	46384.61
539.667	45532.66
539.868	46220.78
540.068	45960.69
540.269	45874.67
540.469	46351.85
540.67	45811.18
540.87	45925.87
541.071	45813.23
541.271	45999.6
541.472	45618.67
541.672	45469.17
541.873	45958.64
542.073	45299.19
542.274	46261.74
542.474	45880.81
542.675	45573.62
542.875	45919.73
543.075	45886.96
543.276	45798.9
543.476	46298.6
543.676	45673.97
543.877	46061.04
544.077	45798.9
544.277	45614.58
544.478	45569.52
544.678	46015.98
544.878	45534.71
545.078	45964.78
545.279	45227.51
545.479	45590
545.679	45538.8
545.879	45807.09
546.079	45616.63
546.28	45538.8
546.48	45397.49
546.68	46048.75
546.88	45633.01
547.08	45889.01
547.28	45692.4
547.48	45022.72
547.68	45549.04
547.88	45211.13
548.081	45344.25
548.281	45762.03
548.481	45481.46
548.681	45737.46
548.881	45612.53
549.081	45481.46
549.28	45229.56
549.48	45702.64
549.68	45364.73
549.88	46173.67
550.08	45260.28
550.28	45385.21
550.48	45446.65
550.68	45616.63
550.88	45286.9
551.08	45309.43
551.279	45262.33
551.479	45129.21
551.679	45315.58
551.879	45430.26
552.079	45663.73
552.278	44875.26
552.478	45192.7
552.678	44885.5
552.878	45432.31
553.077	45196.79
553.277	44672.51
553.477	45465.08
553.676	44817.92
553.876	45237.75
554.076	45131.26
554.275	44908.03
554.475	44525.06
554.674	45139.45
554.874	45417.97
555.074	44944.89
555.273	44762.62
555.473	45229.56
555.672	44418.56
555.872	44682.75
556.071	44652.03
556.271	44832.25
556.47	44363.27
556.67	44111.37
556.869	44295.69
557.068	44717.57
557.268	44486.15
557.467	44697.09
557.667	44158.47
557.866	44275.21
558.065	44137.99
558.265	44099.08
558.464	44113.42
558.663	44914.17
558.863	43615.76
559.062	44303.88
559.261	43478.55
559.461	44205.58
559.66	43298.33
559.859	43939.34
560.058	42905.12
560.258	43515.41
560.457	43279.89
560.656	43501.07
560.855	43232.79
561.054	43292.18
561.253	43030.04
561.453	43005.47
561.652	43327
561.851	43382.29
562.05	42919.45
562.249	42921.5
562.448	43419.16
562.647	43173.4
562.846	42466.85
563.045	43056.67
563.244	42917.4
563.443	42962.46
563.642	42059.3
563.841	42612.26
564.04	42548.77
564.239	42651.17
564.438	42133.03
564.637	42049.07
564.836	42176.04
565.035	41598.51
565.234	42198.57
565.432	41831.98
565.631	42067.5
565.83	41889.32
566.029	41721.39
566.228	41317.94
566.427	41311.8
566.625	41000.51
566.824	40879.67
567.023	41375.28
567.222	40871.48
567.42	41293.36
567.619	40879.67
567.818	41004.6
568.016	40564.29
568.215	40781.37
568.414	40617.53
568.612	41035.32
568.811	40445.51
569.01	40287.81
569.208	39824.97
569.407	40568.38
569.605	39818.83
569.804	40304.2
570.002	39568.97
570.201	39779.92
570.4	39837.26
570.598	39794.25
570.797	39646.8
570.995	39460.43
571.193	39161.43
571.392	39425.62
571.59	39372.37
571.789	39056.98
571.987	38745.69
572.186	38921.82
572.384	38661.72
572.582	38954.58
572.781	39061.08
572.979	38512.22
573.177	38710.88
573.376	38266.47
573.574	37867.11
573.772	38516.32
573.971	37561.97
574.169	38387.3
574.367	37627.5
574.565	38067.81
574.763	37793.39
574.962	37756.52
575.16	37271.15
575.358	37723.76
575.556	37154.42
575.754	37658.22
575.952	36720.25
576.151	37277.3
576.349	36894.33
576.547	36923
576.745	36722.3
576.943	36867.7
577.141	36812.41
577.339	36716.15
577.537	36533.89
577.735	36372.1
577.933	36097.67
578.131	36056.71
578.329	36288.13
578.527	35925.64
578.725	35901.06
578.923	35931.78
579.121	35778.18
579.319	35935.88
579.516	35872.39
579.714	35974.79
579.912	35358.35
580.11	35430.03
580.308	35677.83
580.506	35223.19
580.704	34791.06
580.901	35018.39
581.099	35092.12
581.297	34866.84
581.495	34690.71
581.692	34746.01
581.89	34148
582.088	34723.48
582.285	34379.42
582.483	34647.71
582.681	34469.53
582.878	34145.95
583.076	33865.38
583.274	34260.64
583.471	33511.08
583.669	34125.47
583.866	33418.92
584.064	33672.87
584.262	33240.75
584.459	33713.83
584.657	33269.42
584.854	33576.62
585.052	33074.87
585.249	33261.23
585.447	33396.4
585.644	32782.01
585.841	32806.58
586.039	32589.5
586.236	32626.36
586.434	32437.95
586.631	32581.31
586.828	32724.66
587.026	32378.56
587.223	32347.84
587.42	31942.34
587.618	32122.56
587.815	32163.52
588.012	31518.41
588.21	31712.97
588.407	32179.9
588.604	31688.39
588.801	31573.7
588.999	31219.41
589.196	31622.86
589.393	31459.02
589.59	31516.36
589.787	31114.96
589.984	31041.23
590.182	30584.54
590.379	31157.97
590.576	30691.03
590.773	30740.18
590.97	31030.99
591.167	30879.44
591.364	30011.1
591.561	30228.19
591.758	30095.07
591.955	30445.27
592.152	30322.4
592.349	29761.25
592.546	30406.36
592.743	30285.53
592.94	29382.38
593.137	29937.38
593.334	29832.93
593.531	29402.86
593.727	29873.89
593.924	29394.67
594.121	29294.32
594.318	29613.8
594.515	28800.76
594.712	29593.32
594.908	28874.48
595.105	29212.4
595.302	29079.28
595.499	29052.66
595.696	28784.37
595.892	28206.84
596.089	28634.87
596.286	28440.31
596.482	28294.91
596.679	28180.22
596.876	28235.52
597.072	28081.92
597.269	28210.94
597.466	27842.31
597.662	28024.58
597.859	27827.97
598.055	27901.7
598.252	27592.45
598.448	27682.56
598.645	27461.38
598.841	27356.94
599.038	27373.32
599.234	27612.93
599.431	27121.42
599.627	27025.17
599.824	27352.84
600.02	26978.06
600.217	27119.37
600.413	26560.28
600.609	26535.7
600.806	26423.06
601.002	26828.56
601.198	26351.38
601.395	26300.19
601.591	26208.03
601.787	26208.03
601.984	26212.12
602.18	26412.82
602.376	25927.46
602.572	26007.33
602.769	25728.8
602.965	25730.85
603.161	25827.1
603.357	25630.5
603.553	25696.03
603.75	25804.58
603.946	25014.06
604.142	25243.43
604.338	24915.76
604.534	24960.81
604.73	24993.58
604.926	24842.03
605.122	25134.89
605.318	24796.98
605.514	24672.05
605.71	24758.06
605.906	24833.84
606.102	24567.6
606.298	24766.26
606.494	24481.59
606.69	24336.18
606.886	24422.2
607.082	24315.7
607.278	24325.94
607.474	24043.32
607.67	24305.46
607.866	23672.64
608.062	24481.59
608.257	24043.32
608.453	24143.67
608.649	24074.04
608.845	23797.57
609.041	23875.39
609.236	23807.81
609.432	23670.59
609.628	23779.14
609.824	23672.64
610.019	23453.51
610.215	23603.01
610.411	23580.48
610.606	23342.92
610.802	23424.84
610.998	23390.02
611.193	23400.26
611.389	23168.84
611.584	23310.15
611.78	22992.72
611.976	23342.92
612.171	23066.44
612.367	22894.41
612.562	22976.33
612.758	22595.41
612.953	22486.87
613.149	22925.13
613.344	22617.94
613.539	22853.45
613.735	22488.92
613.93	22642.51
614.126	22331.22
614.321	22855.5
614.517	22888.27
614.712	22210.39
614.907	22107.99
615.103	22564.69
615.298	22194.01
615.493	22679.38
615.688	22058.84
615.884	22929.23
616.079	22103.9
616.274	22196.06
616.47	21993.31
616.665	22132.57
616.86	22243.16
617.055	22067.03
617.25	21888.86
617.445	21991.26
617.641	21563.23
617.836	21940.06
618.031	21454.69
618.226	21679.97
618.421	21641.06
618.616	21913.44
618.811	21550.95
619.006	21872.48
619.201	21176.17
619.396	21483.36
619.591	20903.79
619.786	21213.03
619.981	20967.27
620.176	20946.8
620.371	20922.22
620.566	20733.81
620.761	20799.34
620.956	20688.75
621.151	20463.47
621.346	20369.27
621.541	20297.59
621.735	20199.29
621.93	20094.84
622.125	20060.02
622.32	19738.49
622.515	19879.8
622.709	19484.55
622.904	19758.97
623.099	19713.92
623.294	19431.3
623.488	19289.99
623.683	19238.79
623.878	19077
624.072	19171.21
624.267	19046.28
624.462	19093.38
624.656	18743.18
624.851	18747.28
625.046	18388.88
625.24	18655.12
625.435	18395.03
625.629	18116.5
625.824	18229.14
626.018	18196.37
626.213	18005.91
626.407	18055.06
626.602	17590.17
626.796	17708.96
626.991	17555.36
627.185	17711
627.38	17424.29
627.574	17502.11
627.768	17303.46
627.963	17172.39
628.157	16924.58
628.352	17106.85
628.546	16582.57
628.74	16930.73
628.935	16621.49
629.129	16639.92
629.323	16302
629.517	16721.84
629.712	16291.76
629.906	16365.49
630.1	16050.1
630.294	16103.35
630.489	15867.83
630.683	15992.76
630.877	15691.71
631.071	15491.01
631.265	15685.56
631.459	15482.81
631.653	15675.32
631.848	15566.78
632.042	15267.78
632.236	15300.55
632.43	15212.48
632.624	15155.14
632.818	15085.51
633.012	15046.6
633.206	14753.74
633.4	14784.46
633.594	14696.39
633.788	14665.67
633.982	14667.72
634.176	14542.8
634.369	14624.72
634.563	14444.49
634.757	14284.75
634.951	14208.98
635.145	14110.68
635.339	14237.65
635.533	13948.89
635.726	13860.82
635.92	13674.46
636.114	13737.95
636.308	13647.83
636.501	13815.77
636.695	13428.7
636.889	13510.62
637.083	13332.45
637.276	13320.16
637.47	13264.86
637.664	13303.78
637.857	12910.57
638.051	13047.78
638.244	12771.3
638.438	13006.82
638.632	12849.13
638.825	12713.96
639.019	12804.07
639.212	12720.1
639.406	12599.27
639.599	12419.05
639.793	12601.32
639.986	12509.16
640.18	12304.37
640.373	12349.42
640.567	12263.41
640.76	12431.34
640.954	11962.36
641.147	11939.83
641.34	11720.7
641.534	12005.36
641.727	11993.08
641.92	11902.97
642.114	11706.36
642.307	11730.94
642.5	11606.01
642.694	11479.04
642.887	11433.98
643.08	11569.15
643.273	11380.73
643.467	11442.17
643.66	11155.46
643.853	11331.58
644.046	11175.94
644.239	11184.13
644.432	11206.66
644.626	11214.85
644.819	10919.94
645.012	11030.53
645.205	10864.64
645.398	10924.04
645.591	10827.78
645.784	10729.48
645.977	10530.83
646.17	10592.27
646.363	10305.55
646.556	10428.43
646.749	10467.34
646.942	10541.07
647.135	10252.3
647.328	10276.88
647.521	10080.27
647.714	10125.33
647.907	10135.57
648.099	10035.22
648.292	10041.36
648.485	10037.27
648.678	9678.87
648.871	9650.2
649.064	9728.02
649.256	9719.83
649.449	9607.19
649.642	9490.46
649.835	9599
650.027	9291.8
650.22	9459.74
650.413	9326.62
650.605	9295.9
650.798	9510.94
650.991	9119.78
651.183	9203.74
651.376	9105.44
651.568	9109.54
651.761	9279.52
651.954	8996.9
652.146	8888.36
652.339	8955.94
652.531	8917.03
652.724	8683.56
652.916	8656.93
653.109	8722.47
653.301	8720.42
653.494	8890.4
653.686	8425.51
653.879	8476.71
654.071	8439.85
654.263	8603.69
654.456	8542.25
654.648	8536.1
654.84	8220.72
655.033	8284.2
655.225	8495.15
655.417	8355.88
655.61	8368.17
655.802	8185.9
655.994	8128.56
656.186	8073.26
656.379	8230.96
656.571	7964.72
656.763	7708.73
656.955	7868.47
657.148	7845.94
657.34	7815.22
657.532	7694.39
657.724	7809.08
657.916	7764.02
658.108	7602.23
658.3	7567.42
658.492	7721.01
658.684	7430.2
658.876	7514.17
659.068	7387.19
659.26	7438.39
659.452	7444.54
659.644	7327.8
659.836	7170.11
660.028	7458.87
660.22	7209.02
660.412	7249.98
660.604	7094.33
660.796	7170.11
660.988	6975.55
661.18	7041.09
661.372	6944.83
661.563	7161.92
661.755	6883.39
661.947	6809.67
662.139	6885.44
662.331	6848.58
662.522	6690.88
662.714	6602.82
662.906	6756.42
663.097	6662.21
663.289	6672.45
663.481	6754.37
663.673	6621.25
663.864	6647.88
664.056	6520.9
664.247	6572.1
664.439	6346.83
664.631	6504.52
664.822	6455.37
665.014	6395.98
665.205	6385.74
665.397	6340.68
665.588	6334.54
665.78	6273.1
665.971	6264.91
666.163	6103.12
666.354	6209.61
666.546	6015.05
666.737	6008.91
666.929	6111.31
667.12	6051.92
667.311	5926.99
667.503	6127.69
667.694	6068.3
667.885	5951.57
668.077	5894.22
668.268	5838.93
668.459	5918.8
668.651	5761.11
668.842	5916.75
669.033	5693.52
669.224	5662.8
669.416	5834.83
669.607	5611.61
669.798	5714
669.989	5914.7
670.18	5656.66
670.371	5677.14
670.563	5425.24
670.754	5578.84
670.945	5455.96
671.136	5529.69
671.327	5537.88
671.518	5576.79
671.709	5367.9
671.9	5312.6
672.091	5353.56
672.282	5312.6
672.473	5326.94
672.664	5408.86
672.855	5242.97
673.046	5251.16
673.237	5234.78
673.428	5271.64
673.619	5261.4
673.809	5116
674	5206.11
674.191	5216.35
674.382	5113.95
674.573	5140.57
674.764	5093.47
674.954	5136.48
675.145	4849.76
675.336	5179.48
675.527	5116
675.717	5113.95
675.908	4976.73
676.099	5036.13
676.289	4966.49
676.48	4837.47
676.671	4888.67
676.861	4984.93
677.052	4900.96
677.243	4855.9
677.433	4769.89
677.624	4913.25
677.814	4935.78
678.005	4886.62
678.195	4759.65
678.386	4833.38
678.576	4730.98
678.767	4798.56
678.957	4628.58
679.148	4735.07
679.338	4745.31
679.529	4782.18
679.719	4616.29
679.909	4712.55
680.1	4737.12
680.29	4661.35
680.481	4565.09
680.671	4497.51
680.861	4497.51
681.052	4448.36
681.242	4505.7
681.432	4710.5
681.622	4517.99
681.813	4448.36
682.003	4589.67
682.193	4458.6
682.383	4470.89
682.573	4485.22
682.764	4440.17
682.954	4450.41
683.144	4448.36
683.334	4376.68
683.524	4311.14
683.714	4335.72
683.904	4487.27
684.094	4448.36
684.284	4466.79
684.474	4448.36
684.664	4319.34
684.854	4393.06
685.044	4329.58
685.234	4415.59
685.424	4391.02
685.614	4362.34
685.804	4313.19
685.994	4178.03
686.184	4139.12
686.374	4175.98
686.564	4302.95
686.753	4087.92
686.943	4200.55
687.133	4063.34
687.323	4096.11
687.513	4141.16
687.702	4192.36
687.892	3971.18
688.082	4141.16
688.272	3979.37
688.461	3958.89
688.651	4010.09
688.841	3850.35
689.03	3852.4
689.22	3913.84
689.41	4063.34
689.599	3776.63
689.789	3991.66
689.979	3776.63
690.168	3795.06
690.358	3827.82
690.547	3715.19
690.737	3913.84
690.926	3813.49
691.116	3750
691.305	3827.82
691.495	3735.67
691.684	3584.12
691.874	3625.08
692.063	3698.8
692.252	3618.93
692.442	3704.95
692.631	3553.4
692.82	3676.27
693.01	3575.92
693.199	3631.22
693.388	3649.65
693.578	3577.97
693.767	3573.88
693.956	3571.83
694.146	3532.92
694.335	3321.98
694.524	3416.18
694.713	3457.14
694.902	3438.71
695.092	3403.89
695.281	3379.32
695.47	3467.38
695.659	3403.89
695.848	3393.65
696.037	3434.61
696.226	3399.8
696.415	3328.12
696.604	3422.33
696.793	3342.46
696.982	3338.36
697.171	3356.79
697.36	3268.73
697.549	3385.46
697.738	3205.24
697.927	3231.87
698.116	3293.3
698.305	3252.35
698.494	3283.06
698.683	3281.02
698.872	3319.93
699.061	3256.44
699.25	3266.68
699.438	3235.96
699.627	3201.15
699.816	3168.38
700.005	3164.28
700.193	3295.35
700.382	3276.92
700.571	3287.16
700.76	3242.11
700.948	3334.26
701.137	3281.02
701.326	3369.08
701.514	3197.05
701.703	3264.63
701.892	3147.9
702.08	3287.16
702.269	3229.82
702.457	3178.62
702.646	3129.47
702.834	3266.68
703.023	3127.42
703.212	3139.71
703.4	3260.54
703.589	3086.46
703.777	3100.8
703.965	3117.18
704.154	3133.56
704.342	3145.85
704.531	3106.94
704.719	3121.28
704.907	3129.47
705.096	3053.69
705.284	3018.88
705.472	3145.85
705.661	3025.02
705.849	3125.37
706.037	2990.21
706.226	3154.04
706.414	3031.16
706.602	3002.49
706.79	3080.32
706.979	3080.32
707.167	3217.53
707.355	3025.02
707.543	3061.88
707.731	3055.74
707.919	3121.28
708.107	3020.92
708.296	3096.7
708.484	3076.22
708.672	2979.97
708.86	3000.44
709.048	2982.01
709.236	2939.01
709.424	3094.65
709.612	2988.16
709.8	3027.07
709.988	3090.56
710.176	3018.88
710.364	3043.45
710.551	2998.4
710.739	2984.06
710.927	3020.92
711.115	3078.27
711.303	2967.68
711.491	2990.21
711.679	3059.84
711.866	3065.98
712.054	2957.44
712.242	3035.26
712.43	2967.68
712.617	3002.49
712.805	2920.57
712.993	2979.97
713.181	2930.81
713.368	3027.07
713.556	3147.9
713.744	2930.81
713.931	2965.63
714.119	2961.53
714.306	2943.1
714.494	2979.97
714.682	2934.91
714.869	2912.38
715.057	3012.73
715.244	2963.58
715.432	3078.27
715.619	2957.44
715.807	3135.61
715.994	3010.68
716.182	2916.48
716.369	2910.33
716.556	3004.54
716.744	2812.03
716.931	2922.62
717.119	2953.34
717.306	2992.25
717.493	2945.15
717.681	2939.01
717.868	2916.48
718.055	2932.86
718.242	2963.58
718.43	2902.14
718.617	2863.23
718.804	2908.29
718.991	2848.9
719.179	2988.16
719.366	2791.55
719.553	2797.7
719.74	2842.75
719.927	2846.85
720.114	2908.29
720.301	2896
720.488	2709.63
720.676	2924.67
720.863	2877.57
721.05	2930.81
721.237	2996.35
721.424	2941.05
721.611	2848.9
721.798	2873.47
721.985	2910.33
722.172	2879.61
722.358	2793.6
722.545	2867.33
722.732	2869.37
722.919	2791.55
723.106	2904.19
723.293	2871.42
723.48	2705.54
723.667	2822.27
723.853	2906.24
724.04	2760.83
724.227	2850.94
724.414	2855.04
724.6	2859.14
724.787	2797.7
724.974	2975.87
725.161	2945.15
725.347	2799.74
725.534	2834.56
725.72	2893.95
725.907	2881.66
726.094	2932.86
726.28	2750.59
726.467	2852.99
726.653	2807.94
726.84	2764.93
727.027	3000.44
727.213	2885.76
727.4	2781.31
727.586	2850.94
727.773	2949.25
727.959	2850.94
728.145	2760.83
728.332	2898.05
728.518	2836.61
728.705	2875.52
728.891	2771.07
729.077	2934.91
729.264	2900.09
729.45	2791.55
729.636	2803.84
729.823	2809.98
730.009	2777.22
730.195	2867.33
730.382	2852.99
730.568	2850.94
730.754	2836.61
730.94	2936.96
731.126	2861.18
731.313	2756.74
731.499	2920.57
731.685	2760.83
731.871	2859.14
732.057	2875.52
732.243	2738.3
732.429	2824.32
732.615	2877.57
732.801	2850.94
732.987	2670.72
733.173	2781.31
733.359	2850.94
733.545	2771.07
733.731	2865.28
733.917	2793.6
734.103	2830.46
734.289	2791.55
734.475	2687.11
734.661	2877.57
734.847	2803.84
735.033	2762.88
735.219	2836.61
735.404	2865.28
735.59	2740.35
735.776	2752.64
735.962	2826.37
736.148	2852.99
736.333	2877.57
736.519	2707.59
736.705	2799.74
736.89	2644.1
737.076	2805.89
737.262	2707.59
737.447	2648.19
737.633	2711.68
737.819	2787.46
738.004	2676.87
738.19	2752.64
738.375	2740.35
738.561	2818.18
738.747	2709.63
738.932	2689.15
739.118	2764.93
739.303	2777.22
739.489	2783.36
739.674	2687.11
739.859	2637.95
740.045	2615.43
740.23	2705.54
740.416	2723.97
740.601	2689.15
740.786	2568.32
740.972	2607.23
741.157	2627.71
741.342	2461.83
741.528	2721.92
741.713	2631.81
741.898	2623.62
742.084	2603.14
742.269	2553.99
742.454	2572.42
742.639	2601.09
742.824	2560.13
743.01	2615.43
743.195	2599.04
743.38	2510.98
743.565	2515.08
743.75	2644.1
743.935	2494.6
744.12	2529.41
744.305	2379.91
744.49	2447.49
744.675	2447.49
744.86	2445.45
745.045	2463.88
745.23	2429.06
745.415	2406.53
745.6	2488.45
745.785	2420.87
745.97	2453.64
746.155	2404.49
746.34	2416.77
746.525	2330.76
746.71	2453.64
746.895	2308.23
747.079	2263.18
747.264	2222.22
747.449	2318.47
747.634	2261.13
747.819	2318.47
748.003	2271.37
748.188	2242.7
748.373	2226.31
748.557	2232.46
748.742	2173.07
748.927	2148.49
749.111	2109.58
749.296	2248.84
749.481	2263.18
749.665	2179.21
749.85	2107.53
750.034	2111.63
750.219	2117.77
750.404	2148.49
750.588	2105.48
750.773	2091.15
750.957	2001.04
751.141	1990.8
751.326	2046.09
751.51	2017.42
751.695	2066.57
751.879	2001.04
752.064	1968.27
752.248	2015.37
752.432	1994.89
752.617	1888.4
752.801	1845.39
752.985	2019.47
753.17	1884.3
753.354	1974.41
753.538	1912.97
753.722	1798.29
753.907	1829.01
754.091	1831.05
754.275	1872.01
754.459	1847.44
754.643	1794.19
754.828	1851.53
755.012	1685.65
755.196	1706.13
755.38	1845.39
755.564	1781.9
755.748	1724.56
755.932	1773.71
756.116	1722.51
756.3	1720.46
756.484	1753.23
756.668	1661.07
756.852	1618.07
757.036	1585.3
757.22	1683.6
757.404	1595.54
757.588	1564.82
757.772	1568.91
757.956	1618.07
758.14	1724.56
758.323	1491.09
758.507	1538.2
758.691	1581.2
758.875	1538.2
759.059	1659.03
759.242	1435.8
759.426	1560.72
759.61	1542.29
759.794	1439.89
759.977	1456.28
760.161	1484.95
760.345	1464.47
760.528	1464.47
760.712	1427.6
760.895	1468.56
761.079	1476.76
761.263	1310.87
761.446	1337.49
761.63	1323.16
761.813	1345.69
761.997	1351.83
762.18	1317.01
762.364	1325.21
762.547	1333.4
762.731	1323.16
762.914	1341.59
763.098	1300.63
763.281	1429.65
763.464	1331.35
763.648	1366.17
763.831	1302.68
764.015	1351.83
764.198	1329.3
764.381	1353.88
764.564	1378.45
764.748	1335.45
764.931	1300.63
765.114	1374.36
765.297	1194.14
765.481	1317.01
765.664	1255.58
765.847	1245.34
766.03	1276.06
766.213	1255.58
766.397	1241.24
766.58	1261.72
766.763	1251.48
766.946	1263.77
767.129	1163.42
767.312	1126.55
767.495	1192.09
767.678	1099.93
767.861	1171.61
768.044	1151.13
768.227	1153.18
768.41	1196.18
768.593	1204.38
768.776	1138.84
768.959	1089.69
769.142	1245.34
769.324	1312.92
769.507	1157.27
769.69	1120.41
769.873	1138.84
770.056	1204.38
770.239	1122.46
770.421	1104.03
770.604	1163.42
770.787	1126.55
770.97	1120.41
771.152	1058.97
771.335	1083.55
771.518	1018.01
771.7	1118.36
771.883	1040.54
772.066	1108.12
772.248	1038.49
772.431	1114.27
772.613	999.58
772.796	1009.82
772.978	1013.92
773.161	1050.78
773.343	989.34
773.526	1005.72
773.708	1061.02
773.891	997.53
774.073	1052.83
774.256	999.58
774.438	964.76
774.621	913.56
774.803	956.57
774.985	987.29
775.168	821.41
775.35	872.61
775.532	1013.92
775.715	837.79
775.897	975
776.079	921.76
776.261	888.99
776.444	950.43
776.626	829.6
776.808	944.28
776.99	874.65
777.173	880.8
777.355	848.03
777.537	706.72
777.719	856.22
777.901	766.11
778.083	802.97
778.265	794.78
778.447	829.6
778.629	786.59
778.811	796.83
778.993	909.47
779.175	762.02
779.357	784.54
779.539	786.59
779.721	807.07
779.903	745.63
780.085	766.11
780.267	727.2
780.449	772.25
780.631	829.6
780.812	684.19
780.994	755.87
781.176	729.25
781.358	667.81
781.54	739.49
781.721	784.54
781.903	731.3
782.085	676
782.267	678.05
782.448	692.38
782.63	714.91
782.812	676
782.993	608.42
783.175	618.66
783.357	589.99
783.538	577.7
783.72	602.27
783.901	575.65
784.083	610.47
784.264	639.14
784.446	598.18
784.627	626.85
784.809	684.19
784.99	637.09
785.172	579.75
785.353	510.11
785.535	540.83
785.716	610.47
785.897	553.12
786.079	589.99
786.26	585.89
786.441	567.46
786.623	581.79
786.804	536.74
786.985	581.79
787.167	526.5
787.348	483.49
787.529	522.4
787.71	565.41
787.891	620.71
788.073	544.93
788.254	546.98
788.435	518.31
788.616	532.64
788.797	497.83
788.978	512.16
789.159	485.54
789.34	422.05
789.522	430.24
789.703	520.35
789.884	549.03
790.065	452.77
790.246	501.92
790.427	479.4
790.607	493.73
790.788	448.68
790.969	434.34
791.15	520.35
791.331	411.81
791.512	440.48
791.693	383.14
791.874	432.29
792.054	528.55
792.235	452.77
792.416	440.48
792.597	325.8
792.778	403.62
792.958	520.35
793.139	424.1
793.32	460.96
793.5	467.11
793.681	489.64
793.862	426.15
794.042	442.53
794.223	327.85
794.404	442.53
794.584	374.95
794.765	342.18
794.945	415.91
795.126	428.2
795.306	436.39
795.487	393.38
795.667	372.9
795.848	383.14
796.028	297.13
796.209	401.57
796.389	403.62
796.57	383.14
796.75	307.37
796.93	327.85
797.111	440.48
797.291	338.09
797.471	354.47
797.652	346.28
797.832	325.8
798.012	374.95
798.192	360.61
798.373	356.52
798.553	323.75
798.733	225.45
798.913	391.33
799.093	374.95
799.274	293.03
799.454	399.52
799.634	413.86
799.814	307.37
799.994	342.18
800.174	299.17
800.354	323.75
800.534	274.6
800.714	340.13
800.894	307.37
801.074	305.32
801.254	348.33
801.434	250.02
801.614	262.31
801.794	282.79
801.974	721.06
802.154	297.13
802.334	286.89
802.514	331.94
802.693	274.6
802.873	301.22
803.053	342.18
803.233	301.22
803.413	295.08
803.592	227.5
803.772	331.94
803.952	356.52
804.131	288.93
804.311	264.36
804.491	360.61
804.67	258.21
804.85	274.6
805.03	350.37
805.209	284.84
805.389	188.58
805.568	270.5
805.748	309.41
805.928	311.46
806.107	250.02
806.287	239.78
806.466	264.36
806.646	243.88
806.825	211.11
807.004	225.45
807.184	290.98
807.363	202.92
807.543	118.95
807.722	250.02
807.901	229.54
808.081	254.12
808.26	137.38
808.439	209.06
808.619	182.44
808.798	245.93
808.977	186.54
809.156	239.78
809.336	211.11
809.515	217.26
809.694	303.27
809.873	295.08
810.052	264.36
810.231	241.83
810.411	342.18
810.59	309.41
810.769	217.26
810.948	235.69
811.127	233.64
811.306	317.61
811.485	237.74
811.664	223.4
811.843	235.69
812.022	207.02
812.201	200.87
812.38	159.91
812.559	198.82
812.737	252.07
812.916	178.34
813.095	147.62
813.274	196.78
813.453	229.54
813.632	204.97
813.811	194.73
813.989	129.19
814.168	266.41
814.347	129.19
814.526	217.26
814.704	204.97
814.883	176.3
815.062	157.86
815.24	270.5
815.419	135.34
815.598	213.16
815.776	188.58
815.955	174.25
816.133	139.43
816.312	166.06
816.49	180.39
816.669	196.78
816.847	104.62
817.026	202.92
817.204	227.5
817.383	106.67
817.561	135.34
817.74	233.64
817.918	155.82
818.097	133.29
818.275	139.43
818.453	202.92
818.632	151.72
818.81	161.96
818.988	145.58
819.167	168.1
819.345	161.96
819.523	166.06
819.701	174.25
819.879	213.16
820.058	127.14
820.236	145.58
820.414	90.28
820.592	100.52
820.77	153.77
820.948	198.82
821.127	204.97
821.305	172.2
821.483	129.19
821.661	118.95
821.839	161.96
822.017	149.67
822.195	159.91
822.373	161.96
822.551	178.34
822.729	110.76
822.907	147.62
823.085	153.77
823.262	137.38
823.44	139.43
823.618	147.62
823.796	164.01
823.974	133.29
824.152	153.77
824.329	176.3
824.507	143.53
824.685	82.09
824.863	94.38
825.04	123.05
825.218	153.77
825.396	104.62
825.574	188.58
825.751	73.9
825.929	118.95
826.107	98.47
826.284	141.48
826.462	125.1
826.639	106.67
826.817	139.43
826.994	166.06
827.172	96.43
827.349	196.78
827.527	149.67
827.704	159.91
827.882	170.15
828.059	157.86
828.237	153.77
828.414	96.43
828.591	106.67
828.769	131.24
828.946	61.61
829.124	100.52
829.301	-8.02
829.478	143.53
829.655	77.99
829.833	106.67
830.01	94.38
830.187	135.34
830.364	147.62
830.542	125.1
830.719	166.06
830.896	125.1
831.073	143.53
831.25	133.29
831.427	112.81
831.604	135.34
831.782	166.06
831.959	129.19
832.136	69.8
832.313	118.95
832.49	161.96
832.667	98.47
832.844	137.38
833.021	24.75
833.198	108.71
833.374	168.1
833.551	6.31
833.728	75.95
833.905	159.91
834.082	180.39
834.259	84.14
834.436	82.09
834.612	82.09
834.789	168.1
834.966	98.47
835.143	96.43
835.319	-10.07
835.496	67.75
835.673	41.13
835.85	77.99
836.026	139.43
836.203	145.58
836.38	71.85
836.556	92.33
836.733	84.14
836.909	123.05
837.086	86.19
837.262	112.81
837.439	63.66
837.616	98.47
837.792	121
837.968	110.76
838.145	77.99
838.321	67.75
838.498	59.56
838.674	77.99
838.851	86.19
839.027	22.7
839.203	114.86
839.38	39.08
839.556	141.48
839.732	121
839.909	139.43
840.085	67.75
840.261	100.52
840.437	121
840.614	80.04
840.79	69.8
840.966	84.14
841.142	98.47
841.318	63.66
841.494	-32.6
841.671	112.81
841.847	110.76
842.023	43.18
842.199	94.38
842.375	77.99
842.551	28.84
842.727	24.75
842.903	161.96
843.079	86.19
843.255	143.53
843.431	90.28
843.607	63.66
843.783	45.23
843.959	102.57
844.134	127.14
844.31	77.99
844.486	88.23
844.662	45.23
844.838	63.66
845.013	63.66
845.189	116.9
845.365	94.38
845.541	57.51
845.716	143.53
845.892	39.08
846.068	63.66
846.244	69.8
846.419	59.56
846.595	61.61
846.77	161.96
846.946	123.05
847.122	45.23
847.297	0.17
847.473	104.62
847.648	32.94
847.824	84.14
847.999	63.66
848.175	41.13
848.35	57.51
848.526	90.28
848.701	139.43
848.876	118.95
849.052	57.51
849.227	69.8
849.403	67.75
849.578	-22.36
849.753	20.65
849.929	77.99
850.104	4.27
850.279	14.51
850.454	96.43
850.63	98.47
850.805	75.95
850.98	30.89
851.155	22.7
851.33	43.18
851.505	69.8
851.681	45.23
851.856	69.8
852.031	110.76
852.206	51.37
852.381	-16.21
852.556	90.28
852.731	67.75
852.906	51.37
853.081	96.43
853.256	28.84
853.431	43.18
853.606	30.89
853.781	90.28
853.956	16.55
854.131	90.28
854.305	4.27
854.48	4.27
854.655	22.7
854.83	2.22
855.005	57.51
855.18	59.56
855.354	2.22
855.529	61.61
855.704	57.51
855.879	41.13
856.053	18.6
856.228	75.95
856.403	55.47
856.577	80.04
856.752	63.66
856.926	100.52
857.101	-24.4
857.276	71.85
857.45	39.08
857.625	80.04
857.799	37.03
857.974	30.89
858.148	-20.31
858.323	106.67
858.497	14.51
858.672	6.31
858.846	71.85
859.02	59.56
859.195	2.22
859.369	6.31
859.543	-3.93
859.718	34.99
859.892	71.85
860.066	123.05
860.241	-16.21
860.415	-1.88
860.589	51.37
860.763	49.32
860.938	47.27
861.112	59.56
861.286	121
861.46	30.89
861.634	-3.93
861.808	-5.97
861.982	88.23
862.157	30.89
862.331	6.31
862.505	10.41
862.679	0.17
862.853	20.65
863.027	106.67
863.201	90.28
863.375	14.51
863.549	69.8
863.722	92.33
863.896	49.32
864.07	90.28
864.244	18.6
864.418	0.17
864.592	51.37
864.766	24.75
864.939	32.94
865.113	-51.03
865.287	96.43
865.461	16.55
865.634	67.75
865.808	0.17
865.982	90.28
866.156	55.47
866.329	0.17
866.503	28.84
866.676	82.09
866.85	16.55
867.024	4.27
867.197	39.08
867.371	65.71
867.544	-26.45
867.718	0.17
867.891	69.8
868.065	49.32
868.238	34.99
868.412	-8.02
868.585	51.37
868.759	22.7
868.932	-10.07
869.105	-30.55
869.279	53.42
869.452	51.37
869.625	10.41
869.799	6.31
869.972	-32.6
870.145	39.08
870.319	49.32
870.492	-22.36
870.665	30.89
870.838	57.51
871.011	-59.22
871.185	4.27
871.358	-8.02
871.531	49.32
871.704	59.56
871.877	63.66
872.05	104.62
872.223	61.61
872.396	57.51
872.569	61.61
872.742	0.17
872.915	14.51
873.088	22.7
873.261	8.36
873.434	65.71
873.607	-18.26
873.78	39.08
873.953	16.55
874.126	69.8
874.299	37.03
874.471	28.84
874.644	6.31
874.817	34.99
874.99	32.94
875.163	24.75
875.335	24.75
875.508	-20.31
875.681	32.94
875.853	49.32
876.026	45.23
876.199	-26.45
876.371	98.47
876.544	34.99
876.717	28.84
876.889	77.99
877.062	59.56
877.234	-30.55
877.407	45.23
877.579	-57.17
877.752	-3.93
877.924	34.99
878.097	32.94
878.269	-12.12
878.442	6.31
878.614	-10.07
878.786	37.03
878.959	45.23
879.131	112.81
879.303	-12.12
879.476	-26.45
879.648	-5.97
879.82	43.18
879.993	-38.74
880.165	6.31
880.337	2.22
880.509	86.19
880.681	-26.45
880.854	34.99
881.026	-28.5
881.198	43.18
881.37	0.17
881.542	71.85
881.714	-5.97
881.886	14.51
882.058	-26.45
882.23	34.99
882.402	69.8
882.574	47.27
882.746	32.94
882.918	26.79
883.09	-46.93
883.262	20.65
883.434	71.85
883.606	90.28
883.778	-38.74
883.95	63.66
884.122	32.94
884.293	118.95
884.465	61.61
884.637	-16.21
884.809	39.08
884.98	-12.12
885.152	20.65
885.324	98.47
885.496	-91.99
885.667	32.94
885.839	30.89
886.011	45.23
886.182	30.89
886.354	75.95
886.525	-26.45
886.697	65.71
886.869	8.36
887.04	51.37
887.212	49.32
887.383	16.55
887.555	10.41
887.726	-20.31
887.897	8.36
888.069	-20.31
888.24	20.65
888.412	14.51
888.583	12.46
888.754	51.37
888.926	6.31
889.097	32.94
889.268	-71.51
889.44	24.75
889.611	-12.12
889.782	53.42
889.953	47.27
890.125	-5.97
890.296	-26.45
890.467	57.51
890.638	59.56
890.809	39.08
890.98	-83.8
891.151	65.71
891.323	75.95
891.494	24.75
891.665	43.18
891.836	32.94
892.007	-18.26
892.178	37.03
892.349	-1.88
892.52	39.08
892.691	55.47
892.862	2.22
893.032	-48.98
893.203	53.42
893.374	63.66
893.545	24.75
893.716	-26.45
893.887	24.75
894.057	0.17
894.228	-40.79
894.399	-83.8
894.57	-26.45
894.74	-53.08
894.911	16.55
895.082	61.61
895.253	-38.74
895.423	55.47
895.594	-3.93
895.764	-16.21
895.935	-8.02
896.106	-16.21
896.276	61.61
896.447	-71.51
896.617	-20.31
896.788	43.18
896.958	-14.17
897.129	-3.93
897.299	16.55
897.47	37.03
897.64	67.75
897.81	-12.12
897.981	2.22
898.151	-24.4
898.322	32.94
898.492	-38.74
898.662	37.03
898.832	63.66
899.003	43.18
899.173	-5.97
899.343	43.18
899.513	30.89
