Data from USB4F104151__89__11-45-41-958.txt Node

Date: Fri Mar 14 11:45:41 EDT 2025
User: louis
Spectrometer: USB4F10415
Trigger mode: 4
Integration Time (sec): 2.000000E-2
Scans to average: 1
Electric dark correction enabled: true
Nonlinearity correction enabled: false
Boxcar width: 0
XAxis mode: Wavelengths
Number of Pixels in Spectrum: 3648
>>>>>Begin Spectral Data<<<<<
178.204	-123.39
178.424	-123.39
178.644	-123.39
178.864	-12.8
179.084	-33.28
179.304	-0.51
179.524	-29.18
179.744	28.16
179.964	11.78
180.184	-27.14
180.404	67.07
180.624	-61.95
180.844	50.69
181.064	30.21
181.283	-25.09
181.503	-33.28
181.723	-10.75
181.943	-25.09
182.163	65.02
182.383	-10.75
182.602	-20.99
182.822	69.12
183.042	71.17
183.262	-10.75
183.482	40.45
183.701	38.4
183.921	46.59
184.141	-4.61
184.361	-6.66
184.58	7.68
184.8	1.54
185.02	7.68
185.239	-6.66
185.459	-51.71
185.679	77.31
185.898	-4.61
186.118	101.89
186.338	3.58
186.557	89.6
186.777	11.78
186.997	44.54
187.216	-45.57
187.436	91.65
187.655	19.97
187.875	3.58
188.095	-8.7
188.314	48.64
188.534	42.5
188.753	-57.86
188.973	46.59
189.192	54.78
189.412	34.3
189.631	103.93
189.851	38.4
190.07	60.93
190.29	60.93
190.509	-14.85
190.729	-23.04
190.948	-2.56
191.168	62.98
191.387	52.74
191.607	3.58
191.826	15.87
192.045	60.93
192.265	-20.99
192.484	-18.94
192.704	44.54
192.923	-35.33
193.142	81.41
193.362	44.54
193.581	7.68
193.8	67.07
194.02	5.63
194.239	-25.09
194.458	46.59
194.678	9.73
194.897	50.69
195.116	30.21
195.335	-2.56
195.555	-12.8
195.774	77.31
195.993	50.69
196.212	36.35
196.432	34.3
196.651	30.21
196.87	62.98
197.089	144.89
197.308	-8.7
197.528	-12.8
197.747	36.35
197.966	60.93
198.185	48.64
198.404	-14.85
198.623	32.26
198.842	67.07
199.062	15.87
199.281	60.93
199.5	-20.99
199.719	36.35
199.938	24.06
200.157	7.68
200.376	122.37
200.595	26.11
200.814	-0.51
201.033	44.54
201.252	-37.38
201.471	-2.56
201.69	17.92
201.909	83.45
202.128	-0.51
202.347	-2.56
202.566	9.73
202.785	-4.61
203.004	11.78
203.223	17.92
203.442	-4.61
203.661	-27.14
203.879	65.02
204.098	1.54
204.317	-20.99
204.536	-4.61
204.755	65.02
204.974	7.68
205.193	38.4
205.411	44.54
205.63	5.63
205.849	83.45
206.068	56.83
206.287	15.87
206.505	7.68
206.724	3.58
206.943	22.02
207.162	-2.56
207.381	15.87
207.599	-6.66
207.818	17.92
208.037	36.35
208.255	9.73
208.474	34.3
208.693	-8.7
208.911	60.93
209.13	97.79
209.349	46.59
209.567	-0.51
209.786	13.82
210.005	15.87
210.223	-20.99
210.442	-33.28
210.661	11.78
210.879	-4.61
211.098	65.02
211.316	1.54
211.535	15.87
211.753	52.74
211.972	19.97
212.191	40.45
212.409	26.11
212.628	-111.1
212.846	-4.61
213.065	11.78
213.283	48.64
213.502	26.11
213.72	56.83
213.938	1.54
214.157	60.93
214.375	-0.51
214.594	26.11
214.812	69.12
215.031	69.12
215.249	36.35
215.467	44.54
215.686	-49.66
215.904	46.59
216.122	-18.94
216.341	11.78
216.559	28.16
216.778	17.92
216.996	48.64
217.214	-16.9
217.432	9.73
217.651	-25.09
217.869	32.26
218.087	26.11
218.306	-41.47
218.524	95.74
218.742	28.16
218.96	101.89
219.179	22.02
219.397	60.93
219.615	50.69
219.833	28.16
220.051	22.02
220.27	112.13
220.488	7.68
220.706	60.93
220.924	48.64
221.142	-39.42
221.36	24.06
221.578	-25.09
221.796	-6.66
222.015	69.12
222.233	69.12
222.451	75.26
222.669	-57.86
222.887	-18.94
223.105	34.3
223.323	-57.86
223.541	42.5
223.759	-43.52
223.977	50.69
224.195	-33.28
224.413	42.5
224.631	-45.57
224.849	-43.52
225.067	71.17
225.285	-53.76
225.503	30.21
225.721	38.4
225.939	7.68
226.157	28.16
226.375	69.12
226.592	-35.33
226.81	75.26
227.028	-41.47
227.246	114.17
227.464	71.17
227.682	44.54
227.9	-16.9
228.117	-20.99
228.335	56.83
228.553	62.98
228.771	-64
228.989	69.12
229.206	1.54
229.424	46.59
229.642	26.11
229.86	24.06
230.077	-16.9
230.295	69.12
230.513	17.92
230.731	15.87
230.948	36.35
231.166	5.63
231.384	-41.47
231.601	15.87
231.819	110.08
232.037	-10.75
232.254	22.02
232.472	30.21
232.689	73.21
232.907	58.88
233.125	17.92
233.342	22.02
233.56	28.16
233.777	36.35
233.995	9.73
234.213	-20.99
234.43	-6.66
234.648	9.73
234.865	-16.9
235.083	44.54
235.3	-12.8
235.518	83.45
235.735	44.54
235.953	11.78
236.17	24.06
236.388	-6.66
236.605	44.54
236.822	34.3
237.04	24.06
237.257	81.41
237.475	-94.72
237.692	38.4
237.909	71.17
238.127	-10.75
238.344	1.54
238.562	3.58
238.779	-31.23
238.996	24.06
239.214	17.92
239.431	26.11
239.648	17.92
239.865	130.56
240.083	24.06
240.3	22.02
240.517	28.16
240.735	5.63
240.952	28.16
241.169	95.74
241.386	48.64
241.603	-12.8
241.821	11.78
242.038	77.31
242.255	69.12
242.472	3.58
242.689	7.68
242.907	9.73
243.124	38.4
243.341	3.58
243.558	-55.81
243.775	-14.85
243.992	-33.28
244.209	-4.61
244.426	48.64
244.643	28.16
244.86	1.54
245.078	15.87
245.295	7.68
245.512	32.26
245.729	-10.75
245.946	-0.51
246.163	-6.66
246.38	-27.14
246.597	30.21
246.814	65.02
247.031	56.83
247.248	19.97
247.464	38.4
247.681	-23.04
247.898	42.5
248.115	60.93
248.332	-55.81
248.549	62.98
248.766	17.92
248.983	-20.99
249.2	62.98
249.417	58.88
249.633	1.54
249.85	30.21
250.067	22.02
250.284	40.45
250.501	65.02
250.717	69.12
250.934	-4.61
251.151	-43.52
251.368	44.54
251.585	7.68
251.801	44.54
252.018	58.88
252.235	50.69
252.451	19.97
252.668	38.4
252.885	28.16
253.102	-0.51
253.318	-33.28
253.535	-16.9
253.752	-29.18
253.968	24.06
254.185	-18.94
254.401	42.5
254.618	-0.51
254.835	1.54
255.051	36.35
255.268	15.87
255.484	-12.8
255.701	19.97
255.917	-18.94
256.134	22.02
256.351	44.54
256.567	24.06
256.784	1.54
257	19.97
257.217	28.16
257.433	67.07
257.65	44.54
257.866	67.07
258.082	3.58
258.299	13.82
258.515	-10.75
258.732	40.45
258.948	-14.85
259.165	91.65
259.381	-59.9
259.597	17.92
259.814	50.69
260.03	-74.24
260.246	-4.61
260.463	-37.38
260.679	36.35
260.895	-14.85
261.112	38.4
261.328	5.63
261.544	48.64
261.761	24.06
261.977	44.54
262.193	13.82
262.409	54.78
262.626	-23.04
262.842	58.88
263.058	38.4
263.274	58.88
263.49	24.06
263.707	32.26
263.923	22.02
264.139	-2.56
264.355	3.58
264.571	87.55
264.787	-49.66
265.004	26.11
265.22	-16.9
265.436	24.06
265.652	-2.56
265.868	-8.7
266.084	-2.56
266.3	48.64
266.516	-20.99
266.732	38.4
266.948	-4.61
267.164	32.26
267.38	24.06
267.596	40.45
267.812	5.63
268.028	71.17
268.244	-12.8
268.46	-8.7
268.676	32.26
268.892	46.59
269.108	-8.7
269.324	30.21
269.54	-2.56
269.756	65.02
269.972	19.97
270.188	22.02
270.403	9.73
270.619	60.93
270.835	-8.7
271.051	58.88
271.267	26.11
271.483	34.3
271.698	36.35
271.914	11.78
272.13	85.5
272.346	-31.23
272.562	-8.7
272.777	116.22
272.993	-37.38
273.209	19.97
273.425	-0.51
273.64	9.73
273.856	17.92
274.072	-49.66
274.287	-51.71
274.503	56.83
274.719	-78.33
274.934	32.26
275.15	69.12
275.366	65.02
275.581	-25.09
275.797	3.58
276.012	15.87
276.228	11.78
276.444	52.74
276.659	67.07
276.875	60.93
277.09	26.11
277.306	30.21
277.521	7.68
277.737	32.26
277.952	13.82
278.168	71.17
278.383	73.21
278.599	5.63
278.814	1.54
279.03	46.59
279.245	71.17
279.461	26.11
279.676	19.97
279.892	44.54
280.107	48.64
280.322	-49.66
280.538	22.02
280.753	-18.94
280.969	42.5
281.184	5.63
281.399	130.56
281.615	-6.66
281.83	1.54
282.045	-10.75
282.26	15.87
282.476	-6.66
282.691	13.82
282.906	73.21
283.122	5.63
283.337	-39.42
283.552	-6.66
283.767	-6.66
283.983	71.17
284.198	-18.94
284.413	-18.94
284.628	15.87
284.843	56.83
285.058	17.92
285.274	7.68
285.489	-20.99
285.704	32.26
285.919	-16.9
286.134	9.73
286.349	36.35
286.564	56.83
286.779	56.83
286.995	-8.7
287.21	-59.9
287.425	36.35
287.64	32.26
287.855	28.16
288.07	1.54
288.285	1.54
288.5	-41.47
288.715	116.22
288.93	11.78
289.145	50.69
289.36	54.78
289.575	19.97
289.79	42.5
290.004	-37.38
290.219	11.78
290.434	-20.99
290.649	-6.66
290.864	52.74
291.079	9.73
291.294	60.93
291.509	-4.61
291.724	56.83
291.938	56.83
292.153	-8.7
292.368	-76.29
292.583	-25.09
292.798	3.58
293.012	40.45
293.227	62.98
293.442	-45.57
293.657	-20.99
293.871	42.5
294.086	34.3
294.301	65.02
294.516	81.41
294.73	22.02
294.945	-2.56
295.16	-35.33
295.374	28.16
295.589	67.07
295.804	28.16
296.018	44.54
296.233	-23.04
296.447	32.26
296.662	48.64
296.877	71.17
297.091	-12.8
297.306	26.11
297.52	-33.28
297.735	1.54
297.949	32.26
298.164	89.6
298.378	11.78
298.593	5.63
298.807	13.82
299.022	34.3
299.236	-8.7
299.451	60.93
299.665	69.12
299.88	-20.99
300.094	7.68
300.309	-55.81
300.523	24.06
300.737	-2.56
300.952	5.63
301.166	81.41
301.381	48.64
301.595	67.07
301.809	-18.94
302.024	-16.9
302.238	34.3
302.452	81.41
302.667	24.06
302.881	60.93
303.095	17.92
303.309	-4.61
303.524	1.54
303.738	5.63
303.952	32.26
304.166	-29.18
304.381	-2.56
304.595	42.5
304.809	-4.61
305.023	50.69
305.237	-35.33
305.452	13.82
305.666	65.02
305.88	54.78
306.094	-14.85
306.308	7.68
306.522	52.74
306.736	185.85
306.95	-18.94
307.164	54.78
307.379	30.21
307.593	69.12
307.807	48.64
308.021	50.69
308.235	-33.28
308.449	38.4
308.663	22.02
308.877	19.97
309.091	62.98
309.305	1.54
309.519	36.35
309.733	7.68
309.947	-16.9
310.161	67.07
310.374	15.87
310.588	17.92
310.802	26.11
311.016	87.55
311.23	28.16
311.444	26.11
311.658	32.26
311.872	5.63
312.085	38.4
312.299	56.83
312.513	50.69
312.727	-4.61
312.941	56.83
313.154	44.54
313.368	11.78
313.582	17.92
313.796	42.5
314.009	-6.66
314.223	83.45
314.437	-23.04
314.651	60.93
314.864	50.69
315.078	-53.76
315.292	48.64
315.505	40.45
315.719	56.83
315.933	9.73
316.146	-43.52
316.36	28.16
316.573	52.74
316.787	5.63
317.001	-12.8
317.214	9.73
317.428	60.93
317.641	-4.61
317.855	-4.61
318.068	36.35
318.282	-6.66
318.495	40.45
318.709	36.35
318.922	28.16
319.136	17.92
319.349	44.54
319.563	75.26
319.776	58.88
319.99	48.64
320.203	40.45
320.417	7.68
320.63	7.68
320.843	52.74
321.057	-10.75
321.27	5.63
321.483	36.35
321.697	15.87
321.91	-2.56
322.124	11.78
322.337	-0.51
322.55	-10.75
322.763	116.22
322.977	40.45
323.19	48.64
323.403	19.97
323.617	-12.8
323.83	-2.56
324.043	32.26
324.256	17.92
324.469	-16.9
324.683	46.59
324.896	-18.94
325.109	-59.9
325.322	48.64
325.535	44.54
325.748	-29.18
325.962	-23.04
326.175	-4.61
326.388	17.92
326.601	7.68
326.814	28.16
327.027	3.58
327.24	79.36
327.453	-33.28
327.666	44.54
327.879	-12.8
328.092	7.68
328.305	36.35
328.518	19.97
328.731	-16.9
328.944	26.11
329.157	44.54
329.37	26.11
329.583	93.69
329.796	30.21
330.009	-0.51
330.222	62.98
330.435	-20.99
330.648	56.83
330.861	67.07
331.073	62.98
331.286	54.78
331.499	22.02
331.712	-82.43
331.925	36.35
332.138	-0.51
332.35	38.4
332.563	26.11
332.776	71.17
332.989	26.11
333.202	-4.61
333.414	9.73
333.627	-2.56
333.84	1.54
334.053	19.97
334.265	15.87
334.478	73.21
334.691	3.58
334.903	13.82
335.116	60.93
335.329	28.16
335.541	34.3
335.754	9.73
335.966	17.92
336.179	7.68
336.392	-6.66
336.604	19.97
336.817	7.68
337.029	44.54
337.242	13.82
337.454	1.54
337.667	69.12
337.88	69.12
338.092	-33.28
338.305	-29.18
338.517	-12.8
338.729	56.83
338.942	62.98
339.154	-6.66
339.367	-14.85
339.579	48.64
339.792	5.63
340.004	-8.7
340.217	67.07
340.429	26.11
340.641	-16.9
340.854	22.02
341.066	32.26
341.278	42.5
341.491	19.97
341.703	-2.56
341.915	34.3
342.128	48.64
342.34	17.92
342.552	11.78
342.764	28.16
342.977	7.68
343.189	40.45
343.401	-12.8
343.613	15.87
343.826	3.58
344.038	11.78
344.25	-25.09
344.462	-8.7
344.674	24.06
344.886	-39.42
345.099	28.16
345.311	15.87
345.523	77.31
345.735	44.54
345.947	32.26
346.159	-6.66
346.371	3.58
346.583	13.82
346.795	54.78
347.007	105.98
347.219	24.06
347.431	56.83
347.643	34.3
347.855	-27.14
348.067	91.65
348.279	-94.72
348.491	77.31
348.703	114.17
348.915	-37.38
349.127	7.68
349.339	-16.9
349.551	13.82
349.763	34.3
349.975	-10.75
350.187	19.97
350.399	-20.99
350.61	36.35
350.822	26.11
351.034	11.78
351.246	97.79
351.458	19.97
351.669	50.69
351.881	36.35
352.093	83.45
352.305	28.16
352.517	40.45
352.728	3.58
352.94	50.69
353.152	79.36
353.363	-14.85
353.575	-27.14
353.787	56.83
353.999	5.63
354.21	-16.9
354.422	30.21
354.633	-16.9
354.845	52.74
355.057	-20.99
355.268	22.02
355.48	11.78
355.692	3.58
355.903	30.21
356.115	-20.99
356.326	-16.9
356.538	-23.04
356.749	28.16
356.961	93.69
357.172	34.3
357.384	-27.14
357.595	99.84
357.807	60.93
358.018	38.4
358.23	15.87
358.441	122.37
358.653	89.6
358.864	-8.7
359.075	69.12
359.287	15.87
359.498	19.97
359.709	-14.85
359.921	17.92
360.132	60.93
360.344	36.35
360.555	13.82
360.766	22.02
360.977	30.21
361.189	73.21
361.4	-20.99
361.611	101.89
361.823	101.89
362.034	38.4
362.245	9.73
362.456	-12.8
362.667	52.74
362.879	99.84
363.09	13.82
363.301	40.45
363.512	11.78
363.723	19.97
363.935	-6.66
364.146	38.4
364.357	-4.61
364.568	-6.66
364.779	44.54
364.99	65.02
365.201	22.02
365.412	7.68
365.623	-57.86
365.834	-10.75
366.045	-92.67
366.256	5.63
366.467	-6.66
366.678	26.11
366.889	26.11
367.1	-4.61
367.311	11.78
367.522	19.97
367.733	7.68
367.944	11.78
368.155	46.59
368.366	77.31
368.577	30.21
368.788	56.83
368.999	13.82
369.209	36.35
369.42	73.21
369.631	101.89
369.842	118.27
370.053	-10.75
370.264	15.87
370.474	-12.8
370.685	75.26
370.896	79.36
371.107	77.31
371.317	38.4
371.528	19.97
371.739	36.35
371.95	67.07
372.16	-33.28
372.371	36.35
372.582	30.21
372.792	54.78
373.003	28.16
373.214	71.17
373.424	54.78
373.635	-8.7
373.846	44.54
374.056	54.78
374.267	46.59
374.477	77.31
374.688	58.88
374.898	-16.9
375.109	50.69
375.319	40.45
375.53	77.31
375.74	-37.38
375.951	22.02
376.161	52.74
376.372	19.97
376.582	-12.8
376.793	42.5
377.003	56.83
377.214	1.54
377.424	28.16
377.635	-2.56
377.845	-6.66
378.055	65.02
378.266	48.64
378.476	24.06
378.686	65.02
378.897	-37.38
379.107	3.58
379.317	71.17
379.528	71.17
379.738	34.3
379.948	-16.9
380.158	15.87
380.369	15.87
380.579	11.78
380.789	60.93
380.999	101.89
381.21	93.69
381.42	65.02
381.63	50.69
381.84	65.02
382.05	44.54
382.261	17.92
382.471	36.35
382.681	-31.23
382.891	54.78
383.101	1.54
383.311	38.4
383.521	5.63
383.731	13.82
383.941	22.02
384.151	93.69
384.361	-41.47
384.571	30.21
384.781	-0.51
384.991	22.02
385.201	95.74
385.411	56.83
385.621	54.78
385.831	13.82
386.041	56.83
386.251	46.59
386.461	79.36
386.671	97.79
386.881	46.59
387.091	56.83
387.301	-0.51
387.511	1.54
387.72	110.08
387.93	69.12
388.14	26.11
388.35	-43.52
388.56	89.6
388.769	26.11
388.979	58.88
389.189	71.17
389.399	56.83
389.609	30.21
389.818	50.69
390.028	22.02
390.238	79.36
390.447	99.84
390.657	36.35
390.867	-6.66
391.076	87.55
391.286	-16.9
391.496	132.61
391.705	67.07
391.915	50.69
392.125	28.16
392.334	65.02
392.544	58.88
392.753	32.26
392.963	17.92
393.172	85.5
393.382	-6.66
393.591	38.4
393.801	-14.85
394.01	-2.56
394.22	48.64
394.429	5.63
394.639	56.83
394.848	81.41
395.058	48.64
395.267	91.65
395.477	26.11
395.686	58.88
395.895	120.32
396.105	120.32
396.314	28.16
396.524	44.54
396.733	-10.75
396.942	81.41
397.152	24.06
397.361	71.17
397.57	40.45
397.78	11.78
397.989	11.78
398.198	62.98
398.407	13.82
398.617	79.36
398.826	48.64
399.035	-6.66
399.244	17.92
399.453	95.74
399.663	81.41
399.872	26.11
400.081	95.74
400.29	75.26
400.499	79.36
400.708	24.06
400.917	77.31
401.127	91.65
401.336	13.82
401.545	28.16
401.754	89.6
401.963	71.17
402.172	112.13
402.381	42.5
402.59	101.89
402.799	83.45
403.008	130.56
403.217	54.78
403.426	32.26
403.635	1.54
403.844	38.4
404.053	60.93
404.262	-12.8
404.471	97.79
404.68	77.31
404.888	62.98
405.097	71.17
405.306	146.94
405.515	91.65
405.724	140.8
405.933	58.88
406.142	89.6
406.35	108.03
406.559	73.21
406.768	95.74
406.977	132.61
407.185	93.69
407.394	151.04
407.603	22.02
407.812	126.46
408.02	17.92
408.229	110.08
408.438	103.93
408.646	110.08
408.855	105.98
409.064	124.41
409.272	151.04
409.481	116.22
409.69	138.75
409.898	151.04
410.107	110.08
410.315	151.04
410.524	146.94
410.733	134.65
410.941	101.89
411.15	130.56
411.358	206.33
411.567	136.7
411.775	302.59
411.984	235
412.192	232.96
412.401	218.62
412.609	257.53
412.818	263.68
413.026	220.67
413.234	278.01
413.443	331.26
413.651	241.15
413.86	351.74
414.068	294.4
414.276	273.92
414.485	343.55
414.693	294.4
414.901	325.12
415.11	427.51
415.318	310.78
415.526	353.79
415.734	314.88
415.943	333.31
416.151	460.28
416.359	441.85
416.567	407.03
416.776	435.71
416.984	435.71
417.192	443.9
417.4	474.62
417.608	509.43
417.817	415.23
418.025	495.1
418.233	613.88
418.441	540.15
418.649	546.3
418.857	531.96
419.065	626.17
419.273	609.78
419.481	656.89
419.689	626.17
419.897	720.37
420.105	753.14
420.313	747
420.521	749.04
420.729	792.05
420.937	798.2
421.145	757.24
421.353	820.72
421.561	955.89
421.769	914.93
421.977	871.92
422.185	921.07
422.393	972.27
422.601	1046
422.809	1046
423.017	1170.93
423.224	1080.82
423.432	1177.07
423.64	1191.41
423.848	1275.37
424.056	1207.79
424.263	1340.91
424.471	1215.98
424.679	1377.77
424.887	1424.87
425.094	1469.93
425.302	1480.17
425.51	1529.32
425.718	1603.05
425.925	1613.29
426.133	1584.62
426.341	1768.93
426.548	1816.04
426.756	1854.95
426.964	1807.84
427.171	1983.97
427.379	2084.32
427.586	1961.44
427.794	2088.42
428.001	2168.29
428.209	2213.34
428.417	2266.59
428.624	2450.91
428.832	2334.17
429.039	2452.95
429.247	2280.93
429.454	2620.89
429.662	2815.45
429.869	2711
430.076	2784.73
430.284	2622.94
430.491	2762.2
430.699	2905.56
430.906	2887.12
431.114	2971.09
431.321	3106.26
431.528	3096.02
431.736	3415.5
431.943	3694.02
432.15	3380.68
432.358	3468.75
432.565	3640.78
432.772	3657.16
432.979	3814.85
433.187	3962.31
433.394	3898.82
433.601	4165.06
433.808	4222.4
434.016	4158.91
434.223	4332.99
434.43	4670.9
434.637	4611.51
434.844	4838.84
435.052	5074.35
435.259	4976.05
435.466	5033.4
435.673	4947.38
435.88	5266.86
436.087	5598.63
436.294	5512.62
436.501	5465.52
436.708	5393.84
436.915	5754.28
437.122	6000.04
437.329	5791.14
437.537	6012.32
437.743	6100.39
437.95	6131.11
438.157	6630.81
438.364	6548.89
438.571	6630.81
438.778	6741.4
438.985	7335.31
439.192	7052.69
439.399	7325.07
439.606	6780.31
439.813	7437.71
440.02	8017.29
440.227	7855.5
440.433	7814.54
440.64	8123.78
440.847	7908.74
441.054	8068.48
441.261	8621.44
441.467	8574.33
441.674	8783.23
441.881	9045.37
442.088	8822.14
442.294	9004.41
442.501	9221.49
442.708	9489.78
442.914	9889.13
443.121	10100.07
443.328	9874.79
443.534	10337.63
443.741	10243.43
443.948	9948.52
444.154	10857.82
444.361	10777.95
444.568	10788.19
444.774	10880.35
444.981	10982.74
445.187	11322.71
445.394	11828.56
445.6	11609.42
445.807	12973.37
446.013	12260.68
446.22	12504.39
446.426	12666.17
446.633	12799.29
446.839	13495.6
447.046	12993.85
447.252	13600.05
447.459	13724.97
447.665	13622.58
447.871	14282.02
448.078	14918.94
448.284	14372.13
448.491	14646.56
448.697	15119.64
448.903	15459.6
449.11	15371.54
449.316	14986.52
449.522	15369.49
449.728	15865.1
449.935	15918.35
450.141	15846.67
450.347	16127.24
450.553	15764.75
450.76	15930.64
450.966	16749.82
451.172	16358.66
451.378	16723.2
451.584	16360.71
451.791	16901.37
451.997	17032.44
452.203	17091.84
452.409	17116.41
452.615	17218.81
452.821	16278.79
453.027	16100.62
453.233	17138.94
453.44	16553.22
453.646	16551.17
453.852	16864.51
454.058	17024.25
454.264	16399.62
454.47	16678.15
454.676	16272.65
454.882	16975.1
455.088	15412.5
455.294	15842.57
455.5	15928.59
455.705	16110.86
455.911	15426.84
456.117	14959.9
456.323	14929.18
456.529	14148.9
456.735	14751.01
456.941	14583.07
457.147	14079.27
457.352	13686.06
457.558	13647.15
457.764	13747.5
457.97	13274.42
458.176	12997.95
458.381	12911.93
458.587	12352.84
458.793	12426.56
458.999	11873.61
459.204	12672.32
459.41	12465.47
459.616	11263.32
459.821	11634
460.027	11298.13
460.233	11136.34
460.438	10784.09
460.644	10800.48
460.85	10306.91
461.055	10048.87
461.261	10030.44
461.466	9395.57
461.672	9209.2
461.878	9715.05
462.083	9026.93
462.289	8760.7
462.494	8656.25
462.7	8514.94
462.905	8142.21
463.111	8418.69
463.316	8318.34
463.522	8340.86
463.727	8312.19
463.932	8473.98
464.138	8195.46
464.343	8265.09
464.549	8043.91
464.754	8220.03
464.959	8113.54
465.165	8095.11
465.37	7935.37
465.575	7619.98
465.781	7898.5
465.986	8109.44
466.191	7628.17
466.397	7509.39
466.602	7099.8
466.807	7388.56
467.012	7488.91
467.218	7409.04
467.423	7431.57
467.628	7282.06
467.833	7660.94
468.038	7357.84
468.244	7183.76
468.449	7392.66
468.654	7421.33
468.859	7048.6
469.064	6999.45
469.269	6768.02
469.474	6802.84
469.679	7169.43
469.885	6927.77
470.09	6813.08
470.295	6870.42
470.5	6610.33
470.705	6895
470.91	6540.7
471.115	6458.78
471.32	6645.15
471.525	6426.01
471.73	6247.84
471.935	6376.86
472.139	6208.93
472.344	6106.53
472.549	6071.72
472.754	6135.2
472.959	5907.88
473.164	5850.53
473.369	5850.53
473.574	5991.84
473.778	6069.67
473.983	5842.34
474.188	5858.73
474.393	5477.8
474.598	5565.87
474.802	5658.03
475.007	5486
475.212	5662.12
475.417	5281.2
475.621	5330.35
475.826	5344.69
476.031	5160.37
476.235	5234.1
476.44	5227.95
476.645	5211.57
476.849	5293.49
477.054	5178.8
477.259	5154.23
477.463	4931
477.668	4922.8
477.872	5068.21
478.077	4724.15
478.282	4707.77
478.486	4750.78
478.691	4660.66
478.895	4617.66
479.1	4631.99
479.304	4525.5
479.509	4488.64
479.713	4586.94
479.918	4511.16
480.122	4316.61
480.326	4425.15
480.531	4406.72
480.735	4451.77
480.94	4302.27
481.144	4588.99
481.348	4246.98
481.553	4437.44
481.757	4261.31
481.961	4390.33
482.166	4355.52
482.37	4437.44
482.574	4208.06
482.778	4210.11
482.983	4302.27
483.187	4457.92
483.391	4292.03
483.595	4238.78
483.8	4214.21
484.004	4335.04
484.208	4361.66
484.412	4351.42
484.616	4384.19
484.821	4287.93
485.025	4339.13
485.229	4144.58
485.433	4203.97
485.637	4220.35
485.841	4371.9
486.045	4249.02
486.249	4318.65
486.453	4199.87
486.657	4449.72
486.861	4279.74
487.065	4234.69
487.269	4160.96
487.473	4169.15
487.677	4306.37
487.881	4322.75
488.085	4353.47
488.289	4322.75
488.493	4220.35
488.697	4382.14
488.901	4230.59
489.105	4255.17
489.309	4249.02
489.512	4275.65
489.716	4226.5
489.92	4269.5
490.124	4285.89
490.328	4429.24
490.531	4373.95
490.735	4457.92
490.939	4404.67
491.143	4599.23
491.346	4312.51
491.55	4527.55
491.754	4468.16
491.958	4398.52
492.161	4517.31
492.365	4513.21
492.569	4480.44
492.772	4486.59
492.976	4521.4
493.18	4623.8
493.383	4681.14
493.587	4623.8
493.79	4658.62
493.994	4656.57
494.197	4765.11
494.401	4773.3
494.605	4808.12
494.808	4824.5
495.012	4744.63
495.215	4697.53
495.419	4783.54
495.622	4797.88
495.825	4963.76
496.029	4926.9
496.232	5053.87
496.436	4949.43
496.639	5113.27
496.843	5033.4
497.046	5213.62
497.249	5117.36
497.453	5283.25
497.656	5328.3
497.859	5219.76
498.063	5375.41
498.266	5438.89
498.469	5408.17
498.673	5565.87
498.876	5670.31
499.079	5631.4
499.282	5678.51
499.485	5875.11
499.689	5807.53
499.892	5961.13
500.095	5864.87
500.298	6041
500.501	6141.35
500.705	6184.35
500.908	6253.98
501.111	6251.94
501.314	6331.81
501.517	6485.41
501.72	6452.64
501.923	6540.7
502.126	6571.42
502.329	6765.98
502.532	6641.05
502.735	6718.87
502.938	7249.3
503.141	6938.01
503.344	7085.46
503.547	7097.75
503.75	7126.42
503.953	7196.05
504.156	7280.02
504.359	7312.78
504.562	7488.91
504.765	7437.71
504.968	7697.8
505.17	7896.46
505.373	7951.75
505.576	7894.41
505.779	8205.7
505.982	8041.86
506.185	8340.86
506.387	8265.09
506.59	8490.37
506.793	8435.07
506.996	8582.53
507.198	8766.84
507.401	8629.63
507.604	8732.03
507.807	8916.34
508.009	9051.51
508.212	9274.74
508.415	9225.59
508.617	9385.33
508.82	9411.95
509.022	9385.33
509.225	9663.85
509.428	9731.44
509.63	9733.48
509.833	9751.92
510.035	9952.62
510.238	10069.35
510.44	10163.56
510.643	10265.96
510.845	10261.86
511.048	10351.97
511.25	10583.39
511.453	10585.44
511.655	10829.15
511.858	10827.1
512.06	11023.7
512.262	11087.19
512.465	11001.18
512.667	11255.12
512.87	11443.54
513.072	11566.42
513.274	11683.15
513.477	11752.78
513.679	11781.45
513.881	11844.94
514.084	12102.98
514.286	12205.38
514.488	12156.23
514.69	12426.56
514.893	12463.43
515.095	12576.06
515.297	12750.14
515.499	12868.92
515.701	13004.09
515.904	13020.47
516.106	13374.77
516.308	13299
516.51	13399.35
516.712	13602.1
516.914	13810.99
517.116	13843.76
517.318	14077.23
517.52	14308.65
517.722	14306.6
517.925	14320.93
518.127	14361.89
518.329	14751.01
518.531	14736.67
518.733	15107.35
518.935	15115.55
519.136	15027.48
519.338	15607.06
519.54	15465.75
519.742	15531.28
519.944	15602.96
520.146	16084.23
520.348	16117
520.55	16297.22
520.752	16114.95
520.954	16542.98
521.155	16489.73
521.357	16463.11
521.559	16819.46
521.761	17052.92
521.963	17026.3
522.164	17202.43
522.366	17216.76
522.568	17769.71
522.77	17612.02
522.971	17919.21
523.173	17929.45
523.375	18115.82
523.576	18150.64
523.778	18001.13
523.98	18549.99
524.181	18611.43
524.383	18744.55
524.584	18885.86
524.786	18848.99
524.988	18943.2
525.189	19217.63
525.391	19207.39
525.592	19426.52
525.794	19612.88
525.995	19631.32
526.197	19465.43
526.398	19459.29
526.6	19786.96
526.801	19948.75
527.003	20161.74
527.204	20163.79
527.406	20264.14
527.607	20286.67
527.808	20559.05
528.01	20434.12
528.211	20094.16
528.412	20667.59
528.614	20899.01
528.815	20919.49
529.016	20962.5
529.218	20759.75
529.419	20978.88
529.62	21437.62
529.822	20985.02
530.023	20999.36
530.224	21429.43
530.425	21011.65
530.626	21191.87
530.828	21445.82
531.029	21564.6
531.23	21552.31
531.431	21187.77
531.632	21886.13
531.833	21492.92
532.035	21787.83
532.236	21859.51
532.437	21699.76
532.638	21888.18
532.839	21890.23
533.04	21980.34
533.241	21550.26
533.442	22176.94
533.643	22013.1
533.844	22123.69
534.045	22187.18
534.246	21922.99
534.447	22082.74
534.648	21765.3
534.849	22076.59
535.05	21968.05
535.251	22455.47
535.451	22054.06
535.652	22480.04
535.853	22062.26
536.054	22348.97
536.255	22308.01
536.456	22006.96
536.657	22314.16
536.857	22328.49
537.058	22078.64
537.259	22287.53
537.46	22320.3
537.66	22275.24
537.861	22328.49
538.062	22271.15
538.263	22238.38
538.463	22162.61
538.664	22193.33
538.865	22541.48
539.065	22295.72
539.266	22234.28
539.466	22324.4
539.667	21873.84
539.868	22434.99
540.068	22125.74
540.269	22080.69
540.469	22086.83
540.67	22013.1
540.87	22371.5
541.071	22195.37
541.271	22258.86
541.472	22420.65
541.672	22240.43
541.873	22281.39
542.073	21951.67
542.274	22062.26
542.474	22121.65
542.675	21972.14
542.875	22142.13
543.075	22365.35
543.276	21830.83
543.476	22463.66
543.676	22129.84
543.877	22285.48
544.077	22297.77
544.277	22224.04
544.478	22351.02
544.678	22365.35
544.878	22129.84
545.078	22279.34
545.279	22025.39
545.479	22160.56
545.679	22484.14
545.879	22342.83
546.079	22195.37
546.28	22252.72
546.48	21963.95
546.68	22351.02
546.88	22090.93
547.08	22576.3
547.28	22314.16
547.48	22140.08
547.68	21914.8
547.88	22156.46
548.081	22314.16
548.281	22262.96
548.481	22113.45
548.681	22101.17
548.881	22178.99
549.081	22232.24
549.28	22152.37
549.48	22328.49
549.68	22011.06
549.88	22353.07
550.08	22058.16
550.28	22252.72
550.48	22129.84
550.68	21851.31
550.88	22023.34
551.08	21957.81
551.279	22125.74
551.479	21941.43
551.679	22148.27
551.879	21857.46
552.079	22054.06
552.278	22037.68
552.478	22404.27
552.678	21777.59
552.878	22195.37
553.077	22211.76
553.277	21533.88
553.477	22328.49
553.676	21738.68
553.876	21978.29
554.076	21707.96
554.275	21863.6
554.475	21873.84
554.674	21808.31
554.874	21857.46
555.074	21818.55
555.273	21824.69
555.473	21619.89
555.672	21654.71
555.872	21922.99
556.071	22162.61
556.271	22127.79
556.47	21900.47
556.67	21302.46
556.869	21503.16
557.068	21707.96
557.268	21488.82
557.467	21759.16
557.667	21632.18
557.866	21505.21
558.065	21501.11
558.265	21185.72
558.464	21400.76
558.663	21437.62
558.863	21093.57
559.062	21474.49
559.261	21015.74
559.461	21662.9
559.66	20874.43
559.859	21372.09
560.058	20804.8
560.258	21345.47
560.457	20739.27
560.656	20808.9
560.855	20970.69
561.054	20894.91
561.253	20681.92
561.453	20653.25
561.652	21046.46
561.851	20681.92
562.05	20872.39
562.249	20425.93
562.448	20784.32
562.647	20638.92
562.846	20391.11
563.045	20485.32
563.244	20196.56
563.443	20417.74
563.642	19905.74
563.841	20141.26
564.04	20008.14
564.239	20143.31
564.438	19764.43
564.637	19924.18
564.836	20153.55
565.035	19731.67
565.234	19782.87
565.432	19619.03
565.631	19598.55
565.83	19662.04
566.029	19524.82
566.228	19547.35
566.427	19360.98
566.625	19260.63
566.824	19360.98
567.023	19320.03
567.222	18879.71
567.42	19447
567.619	19131.61
567.818	18820.32
568.016	18900.19
568.215	19248.35
568.414	19033.31
568.612	19035.36
568.811	18724.07
569.01	18928.86
569.208	18617.57
569.407	18748.64
569.605	18549.99
569.804	18664.68
570.002	18207.98
570.201	18535.65
570.4	18191.59
570.598	18138.35
570.797	18150.64
570.995	18287.85
571.193	17947.89
571.392	18281.71
571.59	17933.55
571.789	17999.09
571.987	17810.67
572.186	17757.43
572.384	17466.61
572.582	17614.07
572.781	17947.89
572.979	17394.93
573.177	17491.19
573.376	17605.88
573.574	17304.82
573.772	17638.64
573.971	17245.43
574.169	17136.89
574.367	16891.13
574.565	17093.88
574.763	17159.42
574.962	16989.44
575.16	16854.27
575.358	17083.64
575.556	16958.72
575.754	16887.04
575.952	16487.68
576.151	16743.68
576.349	16332.04
576.547	16473.35
576.745	16569.6
576.943	16573.7
577.141	16452.87
577.339	16565.51
577.537	16354.57
577.735	16426.25
577.933	16117
578.131	16340.23
578.329	16102.67
578.527	16207.11
578.725	16076.04
578.923	16045.32
579.121	15842.57
579.319	15750.42
579.516	15848.72
579.714	15703.31
579.912	15963.4
580.11	15480.08
580.308	15826.19
580.506	15658.26
580.704	15119.64
580.901	15490.32
581.099	15764.75
581.297	15146.26
581.495	15318.29
581.692	15414.55
581.89	15230.23
582.088	15412.5
582.285	15283.48
582.483	15258.9
582.681	15338.77
582.878	14880.03
583.076	14929.18
583.274	15138.07
583.471	14617.89
583.669	14964
583.866	14873.89
584.064	14818.59
584.262	14751.01
584.459	14834.97
584.657	14521.63
584.854	14703.9
585.052	14497.06
585.249	14497.06
585.447	14449.96
585.644	14353.7
585.841	14626.08
586.039	14462.24
586.236	14212.39
586.434	13985.07
586.631	14290.21
586.828	14228.77
587.026	14032.17
587.223	14058.79
587.42	14032.17
587.618	14161.19
587.815	13888.81
588.012	13876.52
588.21	14093.61
588.407	13851.95
588.604	13825.33
588.801	13759.79
588.999	13679.92
589.196	13886.76
589.393	13731.12
589.59	13397.3
589.787	13346.1
589.984	13505.84
590.182	13450.55
590.379	13671.73
590.576	13210.93
590.773	13219.13
590.97	13514.03
591.167	13284.66
591.364	13212.98
591.561	13407.54
591.758	13147.45
591.955	12995.9
592.152	13133.11
592.349	12975.42
592.546	13002.04
592.743	12944.7
592.94	12909.88
593.137	12750.14
593.334	12959.03
593.531	12629.31
593.727	12936.51
593.924	12981.56
594.121	12631.36
594.318	12780.86
594.515	12504.39
594.712	12576.06
594.908	12561.73
595.105	12729.66
595.302	12232.01
595.499	12277.06
595.696	12354.88
595.892	12346.69
596.089	12145.99
596.286	12260.68
596.482	12180.81
596.679	12320.07
596.876	12256.58
597.072	12211.53
597.269	12275.01
597.466	12170.57
597.662	11896.14
597.859	11853.13
598.055	11990.35
598.252	11969.87
598.448	11900.23
598.645	11748.68
598.841	11752.78
599.038	11734.35
599.234	11787.6
599.431	11550.03
599.627	11566.42
599.824	11781.45
600.02	11502.93
600.217	11664.72
600.413	11695.44
600.609	11537.74
600.806	11337.04
601.002	11554.13
601.198	11353.43
601.395	11433.3
601.591	11285.84
601.787	11210.07
601.984	11353.43
602.18	11369.81
602.376	11111.77
602.572	11048.28
602.769	11195.73
602.965	11222.36
603.161	11066.71
603.357	10947.93
603.553	10947.93
603.75	10945.88
603.946	10964.31
604.142	10780
604.338	10806.62
604.534	10833.24
604.73	10675.55
604.926	10702.17
605.122	10550.62
605.318	10691.93
605.514	10675.55
605.71	10526.05
605.906	10556.77
606.102	10607.97
606.298	10603.87
606.494	10634.59
606.69	10503.52
606.886	10407.27
607.082	10339.68
607.278	10440.03
607.474	10138.98
607.67	10435.94
607.866	10220.9
608.062	10321.25
608.257	10323.3
608.453	10089.83
608.649	10286.44
608.845	10169.7
609.041	10106.21
609.236	10196.32
609.432	10007.91
609.628	10274.15
609.824	10050.92
610.019	10026.34
610.215	9966.95
610.411	9991.53
610.606	9854.31
610.802	9909.61
610.998	9846.12
611.193	10069.35
611.389	9782.63
611.584	10046.82
611.78	9610.61
611.976	9801.07
612.171	9694.57
612.367	9893.23
612.562	9737.58
612.758	9520.49
612.953	9676.14
613.149	9694.57
613.344	9487.73
613.539	9729.39
613.735	9629.04
613.93	9581.93
614.126	9594.22
614.321	9504.11
614.517	9614.7
614.712	9489.78
614.907	9543.02
615.103	9502.06
615.298	9364.85
615.493	9454.96
615.688	9319.79
615.884	9364.85
616.079	9284.98
616.274	9334.13
616.47	9246.07
616.665	9153.91
616.86	9330.03
617.055	9383.28
617.25	9041.27
617.445	9424.24
617.641	9153.91
617.836	9280.88
618.031	8922.49
618.226	9330.03
618.421	9067.89
618.616	9039.22
618.811	8914.3
619.006	9018.74
619.201	8955.26
619.396	8793.47
619.591	8920.44
619.786	8934.78
619.981	8930.68
620.176	8813.95
620.371	8770.94
620.566	8856.95
620.761	8572.29
620.956	8635.77
621.151	8603
621.346	8347.01
621.541	8281.47
621.735	8584.57
621.93	8402.3
622.125	8314.24
622.32	8410.5
622.515	8349.06
622.709	8301.95
622.904	8217.99
623.099	8193.41
623.294	8113.54
623.488	8054.15
623.683	8140.16
623.878	8099.2
624.072	8013.19
624.267	7906.7
624.462	7984.52
624.656	7816.58
624.851	7951.75
625.046	7724.43
625.24	7761.29
625.435	7650.7
625.629	7554.44
625.824	7617.93
626.018	7443.85
626.213	7320.98
626.407	7644.56
626.602	7378.32
626.796	7320.98
626.991	7251.35
627.185	7404.94
627.38	7208.34
627.574	7099.8
627.768	7237.01
627.963	6954.39
628.157	7040.4
628.352	7220.63
628.546	6966.68
628.74	7163.28
628.935	7038.36
629.129	6954.39
629.323	6856.09
629.517	6913.43
629.712	6657.43
629.906	6849.94
630.1	6733.21
630.294	6763.93
630.489	6827.42
630.683	6768.02
630.877	6505.88
631.071	6426.01
631.265	6520.22
631.459	6596
631.653	6612.38
631.848	6509.98
632.042	6405.53
632.236	6512.03
632.43	6346.14
632.624	6296.99
632.818	6299.04
633.012	6167.97
633.206	6180.26
633.4	6165.92
633.594	5944.74
633.788	6100.39
633.982	6133.15
634.176	6190.5
634.369	5957.03
634.563	5858.73
634.757	6002.08
634.951	5893.54
635.145	5879.21
635.339	5764.52
635.533	5651.88
635.726	5805.48
635.92	5719.46
636.114	5789.1
636.308	5791.14
636.501	5617.07
636.695	5647.79
636.889	5711.27
637.083	5502.38
637.276	5494.19
637.47	5535.15
637.664	5502.38
637.857	5606.83
638.051	5516.72
638.244	5535.15
638.438	5465.52
638.632	5268.91
638.825	5291.44
639.019	5424.56
639.212	5232.05
639.406	5318.06
639.599	5213.62
639.793	5225.9
639.986	5113.27
640.18	5135.79
640.373	5205.42
640.567	5064.11
640.76	5064.11
640.954	5039.54
641.147	4916.66
641.34	5076.4
641.534	4879.8
641.727	4810.17
641.92	4822.45
642.114	4873.65
642.307	4853.17
642.5	4685.24
642.694	4625.85
642.887	4738.49
643.08	4828.6
643.273	4793.78
643.467	4734.39
643.66	4675
643.853	4646.33
644.046	4591.03
644.239	4566.46
644.432	4550.07
644.626	4586.94
644.819	4289.98
645.012	4488.64
645.205	4488.64
645.398	4388.29
645.591	4564.41
645.784	4363.71
645.977	4263.36
646.17	4351.42
646.363	4353.47
646.556	4312.51
646.749	4222.4
646.942	4271.55
647.135	4302.27
647.328	4283.84
647.521	4267.45
647.714	4101.57
647.907	4279.74
648.099	4050.37
648.292	4134.34
648.485	4085.19
648.678	3980.74
648.871	4109.76
649.064	4007.36
649.256	4079.04
649.449	4079.04
649.642	3947.97
649.835	3935.68
650.027	3907.01
650.22	3857.86
650.413	3952.07
650.605	3857.86
650.798	3984.84
650.991	3773.89
651.183	3886.53
651.376	3679.69
651.568	3702.22
651.761	3714.5
651.954	3628.49
652.146	3804.61
652.339	3624.39
652.531	3665.35
652.724	3595.72
652.916	3829.19
653.109	3575.24
653.301	3515.85
653.494	3620.3
653.686	3573.19
653.879	3679.69
654.071	3577.29
654.263	3526.09
654.456	3519.95
654.648	3444.17
654.84	3550.67
655.033	3331.53
655.225	3376.59
655.417	3423.69
655.61	3524.04
655.802	3329.49
655.994	3468.75
656.186	3421.64
656.379	3429.84
656.571	3241.42
656.763	3343.82
656.955	3409.36
657.148	3329.49
657.34	3315.15
657.532	3167.7
657.724	3116.5
657.916	3118.54
658.108	3153.36
658.3	3272.14
658.492	3147.22
658.684	3167.7
658.876	3087.82
659.068	3143.12
659.26	3069.39
659.452	3069.39
659.644	3243.47
659.836	3044.82
660.028	3059.15
660.22	3077.59
660.412	3044.82
660.604	2903.51
660.796	3091.92
660.988	2926.04
661.18	2919.89
661.372	3026.39
661.563	2907.6
661.755	2901.46
661.947	2831.83
662.139	2928.08
662.331	2887.12
662.522	2680.28
662.714	2803.16
662.906	2737.62
663.097	2862.55
663.289	2764.25
663.481	2706.9
663.673	2702.81
663.864	2756.05
664.056	2762.2
664.247	2698.71
664.439	2674.14
664.631	2604.5
664.822	2762.2
665.014	2733.53
665.205	2581.98
665.397	2614.74
665.588	2702.81
665.78	2575.83
665.971	2594.26
666.163	2620.89
666.354	2622.94
666.546	2495.96
666.737	2618.84
666.929	2612.7
667.12	2538.97
667.311	2481.63
667.503	2608.6
667.694	2516.44
667.885	2469.34
668.077	2604.5
668.268	2457.05
668.459	2559.45
668.651	2528.73
668.842	2547.16
669.033	2440.67
669.224	2514.39
669.416	2508.25
669.607	2477.53
669.798	2432.47
669.989	2534.87
670.18	2426.33
670.371	2504.15
670.563	2426.33
670.754	2397.66
670.945	2520.54
671.136	2383.32
671.327	2371.04
671.518	2364.89
671.709	2416.09
671.9	2442.71
672.091	2457.05
672.282	2479.58
672.473	2319.84
672.664	2440.67
672.855	2360.8
673.046	2364.89
673.237	2336.22
673.428	2313.69
673.619	2252.25
673.809	2227.68
674	2401.76
674.191	2211.29
674.382	2350.56
674.573	2188.77
674.764	2387.42
674.954	2303.45
675.145	2184.67
675.336	2174.43
675.527	2237.92
675.717	2325.98
675.908	2258.4
676.099	2184.67
676.289	2252.25
676.48	2250.21
676.671	2233.82
676.861	2356.7
677.052	2256.35
677.243	2225.63
677.433	2317.79
677.624	2299.36
677.814	2266.59
678.005	2242.01
678.195	2260.45
678.386	2203.1
678.576	2321.88
678.767	2317.79
678.957	2260.45
679.148	2211.29
679.338	2252.25
679.529	2233.82
679.719	2237.92
679.909	2242.01
680.1	2262.49
680.29	2201.05
680.481	2268.64
680.671	2258.4
680.861	2254.3
681.052	2239.97
681.242	2235.87
681.432	2264.54
681.622	2256.35
681.813	2311.64
682.003	2266.59
682.193	2282.97
682.383	2227.68
682.573	2282.97
682.764	2233.82
682.954	2082.27
683.144	2260.45
683.334	2164.19
683.524	2282.97
683.714	2301.4
683.904	2266.59
684.094	2297.31
684.284	2364.89
684.474	2270.69
684.664	2215.39
684.854	2094.56
685.044	2233.82
685.234	2102.75
685.424	2194.91
685.614	2242.01
685.804	2248.16
685.994	2100.7
686.184	2180.57
686.374	2207.2
686.564	2139.62
686.753	2244.06
686.943	2117.09
687.133	2139.62
687.323	2244.06
687.513	2162.14
687.702	2076.13
687.892	2041.31
688.082	2174.43
688.272	2055.65
688.461	2151.9
688.651	2127.33
688.841	2014.69
689.03	2037.22
689.22	2123.23
689.41	2029.03
689.599	2014.69
689.789	2053.6
689.979	2117.09
690.168	2047.46
690.358	1854.95
690.547	2035.17
690.737	1934.82
690.926	1953.25
691.116	1992.16
691.305	1967.59
691.495	1887.72
691.684	1895.91
691.874	1904.1
692.063	1971.68
692.252	1848.8
692.442	1871.33
692.631	1934.82
692.82	1820.13
693.01	1830.37
693.199	1926.63
693.388	1951.2
693.578	1793.51
693.767	1850.85
693.956	1781.22
694.146	1963.49
694.335	1861.09
694.524	1811.94
694.713	1826.28
694.902	1914.34
695.092	1867.24
695.281	1891.81
695.47	1766.89
695.659	1734.12
695.848	1703.4
696.037	1857
696.226	1811.94
696.415	1695.21
696.604	1717.73
696.793	1699.3
696.982	1658.34
697.171	1824.23
697.36	1709.54
697.549	1740.26
697.738	1768.93
697.927	1719.78
698.116	1732.07
698.305	1820.13
698.494	1865.19
698.683	1670.63
698.872	1795.56
699.061	1859.04
699.25	1770.98
699.438	1820.13
699.627	1744.36
699.816	1758.69
700.005	1836.52
700.193	1826.28
700.382	1719.78
700.571	1756.65
700.76	1893.86
700.948	1744.36
701.137	1877.48
701.326	1764.84
701.514	1822.18
701.703	1816.04
701.892	1754.6
702.08	1842.66
702.269	1883.62
702.457	1777.12
702.646	1766.89
702.834	1738.21
703.023	1734.12
703.212	1803.75
703.4	1789.41
703.589	1758.69
703.777	1879.52
703.965	1809.89
704.154	1795.56
704.342	1818.08
704.531	1813.99
704.719	1748.45
704.907	1787.36
705.096	1684.97
705.284	1840.61
705.472	1781.22
705.661	1803.75
705.849	1852.9
706.037	1830.37
706.226	1893.86
706.414	1881.57
706.602	1826.28
706.79	1883.62
706.979	1889.76
707.167	1811.94
707.355	1793.51
707.543	1900
707.731	1863.14
707.919	1875.43
708.107	1879.52
708.296	1777.12
708.484	1877.48
708.672	1920.48
708.86	1852.9
709.048	1818.08
709.236	1816.04
709.424	1744.36
709.612	1936.87
709.8	1871.33
709.988	1805.8
710.176	1844.71
710.364	1883.62
710.551	1852.9
710.739	1975.78
710.927	1973.73
711.115	1900
711.303	1981.92
711.491	2000.35
711.679	1746.41
711.866	1830.37
712.054	1902.05
712.242	1830.37
712.43	1936.87
712.617	1813.99
712.805	1957.35
712.993	1828.32
713.181	1883.62
713.368	1861.09
713.556	1936.87
713.744	1895.91
713.931	1918.43
714.119	2004.45
714.306	1844.71
714.494	1838.56
714.682	1842.66
714.869	1949.15
715.057	1857
715.244	1883.62
715.432	1981.92
715.619	2014.69
715.807	1842.66
715.994	1936.87
716.182	1842.66
716.369	1895.91
716.556	1969.63
716.744	1922.53
716.931	1914.34
717.119	2012.64
717.306	1992.16
717.493	1914.34
717.681	1990.11
717.868	1940.96
718.055	2082.27
718.242	2059.74
718.43	2067.94
718.617	2002.4
718.804	1990.11
718.991	1936.87
719.179	1961.44
719.366	1990.11
719.553	1955.3
719.74	2039.26
719.927	2078.18
720.114	2049.5
720.301	1975.78
720.488	1945.06
720.676	1967.59
720.863	2074.08
721.05	2059.74
721.237	2108.9
721.424	2096.61
721.611	2055.65
721.798	1947.11
721.985	1996.26
722.172	2131.42
722.358	2037.22
722.545	2117.09
722.732	2004.45
722.919	2045.41
723.106	2063.84
723.293	2143.71
723.48	2069.98
723.667	2117.09
723.853	2002.4
724.04	2192.86
724.227	2069.98
724.414	2018.79
724.6	2024.93
724.787	2133.47
724.974	2170.33
725.161	2057.7
725.347	2096.61
725.534	2225.63
725.72	2137.57
725.907	2117.09
726.094	2135.52
726.28	2139.62
726.467	2076.13
726.653	2115.04
726.84	2026.98
727.027	2209.25
727.213	2129.38
727.4	2115.04
727.586	2196.96
727.773	2211.29
727.959	2199.01
728.145	2100.7
728.332	2160.1
728.518	2221.53
728.705	2153.95
728.891	2219.49
729.077	2078.18
729.264	2170.33
729.45	2225.63
729.636	2221.53
729.823	2276.83
730.009	2229.73
730.195	2213.34
730.382	2233.82
730.568	2160.1
730.754	2203.1
730.94	2338.27
731.126	2282.97
731.313	2182.62
731.499	2225.63
731.685	2219.49
731.871	2184.67
732.057	2225.63
732.243	2258.4
732.429	2285.02
732.615	2299.36
732.801	2209.25
732.987	2207.2
733.173	2293.21
733.359	2209.25
733.545	2225.63
733.731	2229.73
733.917	2344.41
734.103	2260.45
734.289	2305.5
734.475	2244.06
734.661	2325.98
734.847	2246.11
735.033	2305.5
735.219	2366.94
735.404	2350.56
735.59	2348.51
735.776	2282.97
735.962	2235.87
736.148	2192.86
736.333	2313.69
736.519	2309.6
736.705	2217.44
736.89	2205.15
737.076	2246.11
737.262	2256.35
737.447	2280.93
737.633	2176.48
737.819	2258.4
738.004	2260.45
738.19	2309.6
738.375	2340.32
738.561	2319.84
738.747	2231.77
738.932	2356.7
739.118	2319.84
739.303	2239.97
739.489	2186.72
739.674	2137.57
739.859	2305.5
740.045	2264.54
740.23	2334.17
740.416	2098.66
740.601	2268.64
740.786	2211.29
740.972	2233.82
741.157	2278.88
741.342	2129.38
741.528	2156
741.713	2192.86
741.898	2215.39
742.084	2151.9
742.269	2151.9
742.454	2219.49
742.639	2192.86
742.824	2123.23
743.01	2192.86
743.195	2162.14
743.38	2192.86
743.565	2141.66
743.75	2250.21
743.935	2184.67
744.12	2153.95
744.305	2088.42
744.49	2045.41
744.675	2108.9
744.86	2069.98
745.045	2008.55
745.23	2084.32
745.415	2008.55
745.6	2004.45
745.785	2094.56
745.97	2090.46
746.155	2047.46
746.34	2057.7
746.525	2141.66
746.71	2031.07
746.895	2012.64
747.079	2082.27
747.264	1951.2
747.449	1906.15
747.634	1961.44
747.819	1955.3
748.003	1926.63
748.188	1951.2
748.373	1990.11
748.557	1879.52
748.742	1885.67
748.927	1908.19
749.111	1867.24
749.296	1822.18
749.481	1875.43
749.665	1854.95
749.85	1897.96
750.034	1897.96
750.219	1881.57
750.404	1844.71
750.588	1705.45
750.773	1713.64
750.957	1750.5
751.141	1748.45
751.326	1781.22
751.51	1711.59
751.695	1902.05
751.879	1752.55
752.064	1871.33
752.248	1635.82
752.432	1740.26
752.617	1621.48
752.801	1609.19
752.985	1601
753.17	1586.66
753.354	1598.95
753.538	1697.25
753.722	1601
753.907	1605.1
754.091	1570.28
754.275	1586.66
754.459	1478.12
754.643	1486.31
754.828	1541.61
755.012	1537.51
755.196	1510.89
755.38	1418.73
755.564	1531.37
755.748	1537.51
755.932	1381.87
756.116	1428.97
756.3	1433.07
756.484	1494.51
756.668	1457.64
756.852	1408.49
757.036	1326.57
757.22	1408.49
757.404	1420.78
757.588	1357.29
757.772	1402.35
757.956	1412.59
758.14	1383.91
758.323	1371.63
758.507	1256.94
758.691	1373.68
758.875	1295.85
759.059	1330.67
759.242	1302
759.426	1324.52
759.61	1304.04
759.794	1234.41
759.977	1242.61
760.161	1279.47
760.345	1197.55
760.528	1248.75
760.712	1332.72
760.895	1207.79
761.079	1218.03
761.263	1170.93
761.446	1336.81
761.63	1195.5
761.813	1285.61
761.997	1091.06
762.18	1224.17
762.364	1193.45
762.547	1080.82
762.731	1199.6
762.914	1097.2
763.098	1109.49
763.281	1115.63
763.464	1162.73
763.648	1162.73
763.831	1125.87
764.015	1115.63
764.198	1091.06
764.381	1140.21
764.564	1105.39
764.748	1158.64
764.931	1148.4
765.114	1084.91
765.297	1164.78
765.481	1117.68
765.664	1152.49
765.847	1097.2
766.03	1140.21
766.213	1035.76
766.397	1111.54
766.58	1031.66
766.763	992.75
766.946	1035.76
767.129	1091.06
767.312	1039.86
767.495	1031.66
767.678	1107.44
767.861	1093.1
768.044	1005.04
768.227	1035.76
768.41	959.99
768.593	1050.1
768.776	988.66
768.959	966.13
769.142	890.35
769.324	1039.86
769.507	900.59
769.69	888.31
769.873	931.31
770.056	957.94
770.239	931.31
770.421	994.8
770.604	1017.33
770.787	921.07
770.97	998.9
771.152	824.82
771.335	916.98
771.518	867.83
771.7	966.13
771.883	886.26
772.066	980.47
772.248	978.42
772.431	812.53
772.613	767.48
772.796	857.59
772.978	806.39
773.161	923.12
773.343	873.97
773.526	900.59
773.708	828.92
773.891	851.44
774.073	761.33
774.256	753.14
774.438	896.5
774.621	841.2
774.803	790
774.985	824.82
775.168	728.56
775.35	675.32
775.532	761.33
775.715	685.56
775.897	810.48
776.079	761.33
776.261	769.52
776.444	734.71
776.626	712.18
776.808	724.47
776.99	726.52
777.173	712.18
777.355	656.89
777.537	761.33
777.719	722.42
777.901	620.02
778.083	712.18
778.265	708.09
778.447	681.46
778.629	564.73
778.811	663.03
778.993	753.14
779.175	622.07
779.357	712.18
779.539	652.79
779.721	597.49
779.903	658.93
780.085	622.07
780.267	630.26
780.449	636.41
780.631	587.26
780.812	581.11
780.994	523.77
781.176	620.02
781.358	673.27
781.54	572.92
781.721	585.21
781.903	542.2
782.085	617.97
782.267	488.95
782.448	687.61
782.63	558.58
782.812	579.06
782.993	534.01
783.175	550.39
783.357	538.1
783.538	505.34
783.72	462.33
783.901	411.13
784.083	470.52
784.264	591.35
784.446	493.05
784.627	445.95
784.809	486.9
784.99	495.1
785.172	511.48
785.353	470.52
785.535	445.95
785.716	515.58
785.897	525.82
786.079	447.99
786.26	474.62
786.441	429.56
786.623	413.18
786.804	523.77
786.985	407.03
787.167	441.85
787.348	452.09
787.529	439.8
787.71	474.62
787.891	454.14
788.073	386.55
788.254	404.99
788.435	400.89
788.616	443.9
788.797	423.42
788.978	407.03
789.159	374.27
789.34	421.37
789.522	431.61
789.703	364.03
789.884	400.89
790.065	368.12
790.246	433.66
790.427	306.68
790.607	376.31
790.788	353.79
790.969	325.12
791.15	370.17
791.331	376.31
791.512	359.93
791.693	415.23
791.874	398.84
792.054	376.31
792.235	380.41
792.416	376.31
792.597	364.03
792.778	357.88
792.958	355.83
793.139	382.46
793.32	380.41
793.5	304.64
793.681	374.27
793.862	394.75
794.042	263.68
794.223	325.12
794.404	349.69
794.584	327.16
794.765	243.2
794.945	357.88
795.126	310.78
795.306	269.82
795.487	286.2
795.667	275.96
795.848	351.74
796.028	284.16
796.209	245.24
796.389	314.88
796.57	259.58
796.75	265.72
796.93	359.93
797.111	275.96
797.291	314.88
797.471	275.96
797.652	280.06
797.832	194.05
798.012	269.82
798.192	312.83
798.373	286.2
798.553	265.72
798.733	296.44
798.913	232.96
799.093	267.77
799.274	298.49
799.454	265.72
799.634	284.16
799.814	243.2
799.994	255.48
800.174	271.87
800.354	302.59
800.534	239.1
800.714	214.52
800.894	220.67
801.074	312.83
801.254	267.77
801.434	169.47
801.614	243.2
801.794	189.95
801.974	599.54
802.154	200.19
802.334	228.86
802.514	228.86
802.693	200.19
802.873	243.2
803.053	271.87
803.233	189.95
803.413	275.96
803.592	192
803.772	235
803.952	241.15
804.131	130.56
804.311	194.05
804.491	304.64
804.67	198.14
804.85	226.81
805.03	183.81
805.209	179.71
805.389	247.29
805.568	230.91
805.748	171.52
805.928	206.33
806.107	245.24
806.287	171.52
806.466	243.2
806.646	151.04
806.825	153.09
807.004	251.39
807.184	230.91
807.363	187.9
807.543	261.63
807.722	239.1
807.901	239.1
808.081	73.21
808.26	114.17
808.439	118.27
808.619	138.75
808.798	175.61
808.977	173.57
809.156	235
809.336	171.52
809.515	157.18
809.694	146.94
809.873	157.18
810.052	208.38
810.231	278.01
810.411	161.28
810.59	214.52
810.769	148.99
810.948	214.52
811.127	108.03
811.306	202.24
811.485	192
811.664	210.43
811.843	194.05
812.022	230.91
812.201	157.18
812.38	171.52
812.559	187.9
812.737	151.04
812.916	118.27
813.095	202.24
813.274	148.99
813.453	243.2
813.632	189.95
813.811	110.08
813.989	194.05
814.168	173.57
814.347	136.7
814.526	212.48
814.704	103.93
814.883	179.71
815.062	153.09
815.24	175.61
815.419	108.03
815.598	146.94
815.776	89.6
815.955	173.57
816.133	71.17
816.312	181.76
816.49	124.41
816.669	142.85
816.847	120.32
817.026	161.28
817.204	171.52
817.383	159.23
817.561	155.13
817.74	142.85
817.918	132.61
818.097	105.98
818.275	97.79
818.453	155.13
818.632	153.09
818.81	52.74
818.988	79.36
819.167	124.41
819.345	99.84
819.523	122.37
819.701	128.51
819.879	83.45
820.058	122.37
820.236	151.04
820.414	161.28
820.592	101.89
820.77	167.42
820.948	71.17
821.127	151.04
821.305	185.85
821.483	165.37
821.661	101.89
821.839	120.32
822.017	91.65
822.195	81.41
822.373	171.52
822.551	65.02
822.729	136.7
822.907	159.23
823.085	118.27
823.262	99.84
823.44	65.02
823.618	97.79
823.796	142.85
823.974	105.98
824.152	120.32
824.329	169.47
824.507	138.75
824.685	97.79
824.863	130.56
825.04	134.65
825.218	54.78
825.396	67.07
825.574	91.65
825.751	110.08
825.929	62.98
826.107	44.54
826.284	124.41
826.462	214.52
826.639	134.65
826.817	1.54
826.994	89.6
827.172	101.89
827.349	89.6
827.527	136.7
827.704	48.64
827.882	136.7
828.059	124.41
828.237	171.52
828.414	105.98
828.591	120.32
828.769	62.98
828.946	60.93
829.124	95.74
829.301	130.56
829.478	67.07
829.655	58.88
829.833	81.41
830.01	99.84
830.187	69.12
830.364	91.65
830.542	134.65
830.719	91.65
830.896	65.02
831.073	128.51
831.25	69.12
831.427	126.46
831.604	103.93
831.782	114.17
831.959	105.98
832.136	167.42
832.313	128.51
832.49	36.35
832.667	97.79
832.844	79.36
833.021	142.85
833.198	101.89
833.374	56.83
833.551	83.45
833.728	97.79
833.905	75.26
834.082	93.69
834.259	65.02
834.436	93.69
834.612	128.51
834.789	9.73
834.966	54.78
835.143	38.4
835.319	5.63
835.496	34.3
835.673	122.37
835.85	112.13
836.026	32.26
836.203	116.22
836.38	108.03
836.556	65.02
836.733	73.21
836.909	122.37
837.086	52.74
837.262	99.84
837.439	54.78
837.616	71.17
837.792	67.07
837.968	83.45
838.145	36.35
838.321	46.59
838.498	62.98
838.674	85.5
838.851	46.59
839.027	42.5
839.203	34.3
839.38	32.26
839.556	-49.66
839.732	81.41
839.909	56.83
840.085	17.92
840.261	65.02
840.437	60.93
840.614	30.21
840.79	50.69
840.966	44.54
841.142	11.78
841.318	22.02
841.494	77.31
841.671	103.93
841.847	50.69
842.023	58.88
842.199	87.55
842.375	116.22
842.551	26.11
842.727	44.54
842.903	7.68
843.079	46.59
843.255	56.83
843.431	46.59
843.607	101.89
843.783	24.06
843.959	91.65
844.134	-12.8
844.31	122.37
844.486	26.11
844.662	-0.51
844.838	19.97
845.013	75.26
845.189	-35.33
845.365	9.73
845.541	28.16
845.716	50.69
845.892	99.84
846.068	52.74
846.244	67.07
846.419	67.07
846.595	62.98
846.77	32.26
846.946	136.7
847.122	24.06
847.297	44.54
847.473	146.94
847.648	144.89
847.824	-51.71
847.999	-10.75
848.175	81.41
848.35	77.31
848.526	112.13
848.701	79.36
848.876	99.84
849.052	110.08
849.227	32.26
849.403	77.31
849.578	65.02
849.753	5.63
849.929	69.12
850.104	32.26
850.279	32.26
850.454	108.03
850.63	38.4
850.805	34.3
850.98	44.54
851.155	50.69
851.33	67.07
851.505	19.97
851.681	32.26
851.856	3.58
852.031	77.31
852.206	54.78
852.381	15.87
852.556	11.78
852.731	69.12
852.906	65.02
853.081	30.21
853.256	54.78
853.431	91.65
853.606	87.55
853.781	13.82
853.956	79.36
854.131	44.54
854.305	1.54
854.48	77.31
854.655	40.45
854.83	11.78
855.005	24.06
855.18	-2.56
855.354	56.83
855.529	38.4
855.704	-16.9
855.879	34.3
856.053	36.35
856.228	75.26
856.403	3.58
856.577	19.97
856.752	65.02
856.926	62.98
857.101	32.26
857.276	-27.14
857.45	65.02
857.625	-25.09
857.799	44.54
857.974	19.97
858.148	-2.56
858.323	36.35
858.497	124.41
858.672	24.06
858.846	-8.7
859.02	79.36
859.195	-12.8
859.369	81.41
859.543	-2.56
859.718	97.79
859.892	36.35
860.066	30.21
860.241	-12.8
860.415	7.68
860.589	77.31
860.763	52.74
860.938	81.41
861.112	28.16
861.286	26.11
861.46	34.3
861.634	85.5
861.808	46.59
861.982	-45.57
862.157	58.88
862.331	5.63
862.505	48.64
862.679	7.68
862.853	30.21
863.027	26.11
863.201	11.78
863.375	30.21
863.549	1.54
863.722	28.16
863.896	108.03
864.07	-41.47
864.244	32.26
864.418	60.93
864.592	50.69
864.766	-10.75
864.939	28.16
865.113	-2.56
865.287	-39.42
865.461	85.5
865.634	-4.61
865.808	73.21
865.982	-12.8
866.156	-14.85
866.329	9.73
866.503	32.26
866.676	24.06
866.85	-12.8
867.024	19.97
867.197	34.3
867.371	24.06
867.544	65.02
867.718	-31.23
867.891	26.11
868.065	34.3
868.238	-41.47
868.412	75.26
868.585	40.45
868.759	36.35
868.932	-33.28
869.105	-33.28
869.279	-14.85
869.452	-18.94
869.625	83.45
869.799	48.64
869.972	-12.8
870.145	32.26
870.319	95.74
870.492	13.82
870.665	26.11
870.838	54.78
871.011	-10.75
871.185	3.58
871.358	58.88
871.531	-4.61
871.704	19.97
871.877	11.78
872.05	-0.51
872.223	-10.75
872.396	-57.86
872.569	34.3
872.742	24.06
872.915	30.21
873.088	38.4
873.261	32.26
873.434	60.93
873.607	38.4
873.78	19.97
873.953	54.78
874.126	-27.14
874.299	13.82
874.471	44.54
874.644	17.92
874.817	-20.99
874.99	-14.85
875.163	-29.18
875.335	13.82
875.508	56.83
875.681	71.17
875.853	-10.75
876.026	42.5
876.199	3.58
876.371	5.63
876.544	-78.33
876.717	9.73
876.889	24.06
877.062	-12.8
877.234	11.78
877.407	-14.85
877.579	-29.18
877.752	-20.99
877.924	77.31
878.097	11.78
878.269	50.69
878.442	-45.57
878.614	46.59
878.786	34.3
878.959	-12.8
879.131	-0.51
879.303	1.54
879.476	67.07
879.648	93.69
879.82	67.07
879.993	1.54
880.165	-12.8
880.337	56.83
880.509	7.68
880.681	38.4
880.854	1.54
881.026	-53.76
881.198	87.55
881.37	52.74
881.542	56.83
881.714	-27.14
881.886	-4.61
882.058	-12.8
882.23	11.78
882.402	-16.9
882.574	73.21
882.746	22.02
882.918	40.45
883.09	17.92
883.262	56.83
883.434	52.74
883.606	-23.04
883.778	-8.7
883.95	-43.52
884.122	32.26
884.293	7.68
884.465	79.36
884.637	26.11
884.809	24.06
884.98	30.21
885.152	32.26
885.324	1.54
885.496	-35.33
885.667	-10.75
885.839	5.63
886.011	-27.14
886.182	79.36
886.354	85.5
886.525	-0.51
886.697	17.92
886.869	-12.8
887.04	19.97
887.212	99.84
887.383	1.54
887.555	3.58
887.726	5.63
887.897	-25.09
888.069	38.4
888.24	46.59
888.412	38.4
888.583	3.58
888.754	7.68
888.926	-43.52
889.097	-14.85
889.268	-10.75
889.44	-47.62
889.611	-66.05
889.782	22.02
889.953	15.87
890.125	32.26
890.296	-49.66
890.467	46.59
890.638	-4.61
890.809	-2.56
890.98	87.55
891.151	32.26
891.323	-59.9
891.494	19.97
891.665	17.92
891.836	-25.09
892.007	9.73
892.178	-29.18
892.349	-8.7
892.52	22.02
892.691	-31.23
892.862	-16.9
893.032	-4.61
893.203	28.16
893.374	54.78
893.545	7.68
893.716	-29.18
893.887	-37.38
894.057	-74.24
894.228	-25.09
894.399	-16.9
894.57	48.64
894.74	-51.71
894.911	-27.14
895.082	-43.52
895.253	5.63
895.423	17.92
895.594	15.87
895.764	-68.09
895.935	-61.95
896.106	69.12
896.276	3.58
896.447	65.02
896.617	56.83
896.788	-29.18
896.958	-2.56
897.129	26.11
897.299	62.98
897.47	75.26
897.64	54.78
897.81	11.78
897.981	15.87
898.151	-49.66
898.322	34.3
898.492	-45.57
898.662	-41.47
898.832	11.78
899.003	5.63
899.173	-10.75
899.343	13.82
899.513	26.11
