Data from USB4F104151__57__11-45-15-589.txt Node

Date: Fri Mar 14 11:45:15 EDT 2025
User: louis
Spectrometer: USB4F10415
Trigger mode: 4
Integration Time (sec): 2.000000E-2
Scans to average: 1
Electric dark correction enabled: true
Nonlinearity correction enabled: false
Boxcar width: 0
XAxis mode: Wavelengths
Number of Pixels in Spectrum: 3648
>>>>>Begin Spectral Data<<<<<
178.204	-109.05
178.424	-109.05
178.644	-109.05
178.864	-72.19
179.084	-68.09
179.304	3.58
179.524	-41.47
179.744	-10.75
179.964	69.12
180.184	-64
180.404	-31.23
180.624	-37.38
180.844	26.11
181.064	46.59
181.283	36.35
181.503	-10.75
181.723	13.82
181.943	-10.75
182.163	38.4
182.383	40.45
182.602	36.35
182.822	40.45
183.042	-14.85
183.262	-2.56
183.482	32.26
183.701	34.3
183.921	13.82
184.141	-2.56
184.361	67.07
184.58	17.92
184.8	-59.9
185.02	65.02
185.239	7.68
185.459	-37.38
185.679	13.82
185.898	-43.52
186.118	65.02
186.338	81.41
186.557	83.45
186.777	50.69
186.997	44.54
187.216	-29.18
187.436	34.3
187.655	19.97
187.875	42.5
188.095	-0.51
188.314	28.16
188.534	13.82
188.753	-16.9
188.973	-29.18
189.192	22.02
189.412	44.54
189.631	17.92
189.851	65.02
190.07	15.87
190.29	5.63
190.509	17.92
190.729	42.5
190.948	42.5
191.168	105.98
191.387	73.21
191.607	-47.62
191.826	26.11
192.045	52.74
192.265	7.68
192.484	67.07
192.704	48.64
192.923	-39.42
193.142	77.31
193.362	132.61
193.581	60.93
193.8	-33.28
194.02	54.78
194.239	-12.8
194.458	5.63
194.678	40.45
194.897	36.35
195.116	26.11
195.335	-6.66
195.555	91.65
195.774	38.4
195.993	30.21
196.212	60.93
196.432	77.31
196.651	126.46
196.87	-25.09
197.089	95.74
197.308	-33.28
197.528	-0.51
197.747	-72.19
197.966	28.16
198.185	46.59
198.404	91.65
198.623	-10.75
198.842	79.36
199.062	-10.75
199.281	103.93
199.5	42.5
199.719	24.06
199.938	54.78
200.157	52.74
200.376	-6.66
200.595	38.4
200.814	40.45
201.033	105.98
201.252	50.69
201.471	46.59
201.69	34.3
201.909	54.78
202.128	-0.51
202.347	60.93
202.566	52.74
202.785	11.78
203.004	-14.85
203.223	50.69
203.442	5.63
203.661	85.5
203.879	-14.85
204.098	93.69
204.317	11.78
204.536	69.12
204.755	46.59
204.974	138.75
205.193	32.26
205.411	65.02
205.63	28.16
205.849	62.98
206.068	-2.56
206.287	13.82
206.505	56.83
206.724	91.65
206.943	36.35
207.162	30.21
207.381	48.64
207.599	60.93
207.818	-16.9
208.037	54.78
208.255	58.88
208.474	15.87
208.693	-37.38
208.911	5.63
209.13	91.65
209.349	24.06
209.567	54.78
209.786	-2.56
210.005	-29.18
210.223	-2.56
210.442	-25.09
210.661	-12.8
210.879	87.55
211.098	71.17
211.316	15.87
211.535	62.98
211.753	28.16
211.972	77.31
212.191	38.4
212.409	87.55
212.628	54.78
212.846	73.21
213.065	-70.14
213.283	91.65
213.502	28.16
213.72	93.69
213.938	15.87
214.157	5.63
214.375	7.68
214.594	26.11
214.812	73.21
215.031	-16.9
215.249	26.11
215.467	28.16
215.686	95.74
215.904	101.89
216.122	17.92
216.341	138.75
216.559	-41.47
216.778	67.07
216.996	42.5
217.214	30.21
217.432	42.5
217.651	54.78
217.869	75.26
218.087	1.54
218.306	44.54
218.524	3.58
218.742	32.26
218.96	-43.52
219.179	11.78
219.397	38.4
219.615	54.78
219.833	26.11
220.051	40.45
220.27	7.68
220.488	52.74
220.706	44.54
220.924	-39.42
221.142	54.78
221.36	32.26
221.578	54.78
221.796	-16.9
222.015	-33.28
222.233	3.58
222.451	40.45
222.669	13.82
222.887	5.63
223.105	-41.47
223.323	60.93
223.541	-10.75
223.759	19.97
223.977	28.16
224.195	87.55
224.413	-10.75
224.631	26.11
224.849	-2.56
225.067	95.74
225.285	77.31
225.503	60.93
225.721	56.83
225.939	58.88
226.157	50.69
226.375	56.83
226.592	36.35
226.81	46.59
227.028	105.98
227.246	-8.7
227.464	-0.51
227.682	15.87
227.9	83.45
228.117	22.02
228.335	60.93
228.553	114.17
228.771	87.55
228.989	11.78
229.206	60.93
229.424	17.92
229.642	50.69
229.86	17.92
230.077	38.4
230.295	1.54
230.513	24.06
230.731	91.65
230.948	81.41
231.166	22.02
231.384	42.5
231.601	32.26
231.819	99.84
232.037	28.16
232.254	58.88
232.472	7.68
232.689	15.87
232.907	83.45
233.125	1.54
233.342	11.78
233.56	-43.52
233.777	-14.85
233.995	34.3
234.213	142.85
234.43	36.35
234.648	-2.56
234.865	17.92
235.083	22.02
235.3	-2.56
235.518	38.4
235.735	52.74
235.953	-14.85
236.17	-8.7
236.388	30.21
236.605	36.35
236.822	17.92
237.04	48.64
237.257	50.69
237.475	60.93
237.692	97.79
237.909	-8.7
238.127	38.4
238.344	17.92
238.562	69.12
238.779	5.63
238.996	36.35
239.214	-16.9
239.431	60.93
239.648	-37.38
239.865	42.5
240.083	38.4
240.3	-39.42
240.517	7.68
240.735	112.13
240.952	32.26
241.169	24.06
241.386	5.63
241.603	30.21
241.821	28.16
242.038	69.12
242.255	73.21
242.472	22.02
242.689	60.93
242.907	44.54
243.124	17.92
243.341	44.54
243.558	36.35
243.775	1.54
243.992	5.63
244.209	7.68
244.426	56.83
244.643	67.07
244.86	19.97
245.078	79.36
245.295	85.5
245.512	30.21
245.729	38.4
245.946	28.16
246.163	52.74
246.38	93.69
246.597	15.87
246.814	-39.42
247.031	91.65
247.248	42.5
247.464	24.06
247.681	28.16
247.898	-6.66
248.115	13.82
248.332	-6.66
248.549	38.4
248.766	52.74
248.983	5.63
249.2	48.64
249.417	40.45
249.633	77.31
249.85	1.54
250.067	-43.52
250.284	83.45
250.501	52.74
250.717	-6.66
250.934	54.78
251.151	103.93
251.368	28.16
251.585	48.64
251.801	36.35
252.018	13.82
252.235	56.83
252.451	3.58
252.668	99.84
252.885	38.4
253.102	11.78
253.318	60.93
253.535	-20.99
253.752	7.68
253.968	24.06
254.185	13.82
254.401	71.17
254.618	62.98
254.835	-18.94
255.051	60.93
255.268	22.02
255.484	58.88
255.701	7.68
255.917	93.69
256.134	40.45
256.351	-8.7
256.567	17.92
256.784	44.54
257	-33.28
257.217	3.58
257.433	87.55
257.65	24.06
257.866	26.11
258.082	15.87
258.299	32.26
258.515	11.78
258.732	11.78
258.948	9.73
259.165	56.83
259.381	62.98
259.597	48.64
259.814	71.17
260.03	62.98
260.246	58.88
260.463	52.74
260.679	58.88
260.895	11.78
261.112	58.88
261.328	24.06
261.544	5.63
261.761	103.93
261.977	15.87
262.193	36.35
262.409	81.41
262.626	48.64
262.842	32.26
263.058	89.6
263.274	69.12
263.49	-0.51
263.707	-31.23
263.923	136.7
264.139	-6.66
264.355	-4.61
264.571	124.41
264.787	-10.75
265.004	97.79
265.22	83.45
265.436	19.97
265.652	91.65
265.868	15.87
266.084	30.21
266.3	69.12
266.516	-6.66
266.732	124.41
266.948	91.65
267.164	22.02
267.38	-6.66
267.596	56.83
267.812	97.79
268.028	42.5
268.244	71.17
268.46	24.06
268.676	-10.75
268.892	75.26
269.108	62.98
269.324	48.64
269.54	-37.38
269.756	19.97
269.972	5.63
270.188	54.78
270.403	24.06
270.619	9.73
270.835	19.97
271.051	62.98
271.267	1.54
271.483	26.11
271.698	50.69
271.914	56.83
272.13	32.26
272.346	5.63
272.562	-47.62
272.777	22.02
272.993	56.83
273.209	40.45
273.425	79.36
273.64	1.54
273.856	36.35
274.072	24.06
274.287	9.73
274.503	79.36
274.719	38.4
274.934	52.74
275.15	-33.28
275.366	101.89
275.581	-23.04
275.797	69.12
276.012	22.02
276.228	56.83
276.444	58.88
276.659	134.65
276.875	24.06
277.09	69.12
277.306	40.45
277.521	67.07
277.737	89.6
277.952	50.69
278.168	120.32
278.383	50.69
278.599	22.02
278.814	46.59
279.03	-4.61
279.245	99.84
279.461	87.55
279.676	9.73
279.892	3.58
280.107	56.83
280.322	99.84
280.538	5.63
280.753	19.97
280.969	48.64
281.184	13.82
281.399	42.5
281.615	73.21
281.83	17.92
282.045	65.02
282.26	22.02
282.476	-8.7
282.691	34.3
282.906	24.06
283.122	-27.14
283.337	26.11
283.552	56.83
283.767	9.73
283.983	73.21
284.198	75.26
284.413	-16.9
284.628	60.93
284.843	22.02
285.058	83.45
285.274	24.06
285.489	99.84
285.704	93.69
285.919	36.35
286.134	46.59
286.349	75.26
286.564	60.93
286.779	91.65
286.995	42.5
287.21	-41.47
287.425	34.3
287.64	-23.04
287.855	50.69
288.07	13.82
288.285	11.78
288.5	40.45
288.715	114.17
288.93	1.54
289.145	24.06
289.36	26.11
289.575	13.82
289.79	46.59
290.004	3.58
290.219	15.87
290.434	-10.75
290.649	-27.14
290.864	19.97
291.079	17.92
291.294	71.17
291.509	9.73
291.724	40.45
291.938	22.02
292.153	36.35
292.368	83.45
292.583	30.21
292.798	38.4
293.012	79.36
293.227	-2.56
293.442	38.4
293.657	34.3
293.871	87.55
294.086	40.45
294.301	103.93
294.516	56.83
294.73	50.69
294.945	5.63
295.16	40.45
295.374	71.17
295.589	105.98
295.804	-37.38
296.018	15.87
296.233	79.36
296.447	38.4
296.662	56.83
296.877	7.68
297.091	58.88
297.306	56.83
297.52	22.02
297.735	32.26
297.949	30.21
298.164	58.88
298.378	75.26
298.593	81.41
298.807	26.11
299.022	101.89
299.236	95.74
299.451	24.06
299.665	-10.75
299.88	103.93
300.094	62.98
300.309	73.21
300.523	30.21
300.737	73.21
300.952	42.5
301.166	50.69
301.381	17.92
301.595	75.26
301.809	26.11
302.024	81.41
302.238	24.06
302.452	28.16
302.667	19.97
302.881	58.88
303.095	-29.18
303.309	69.12
303.524	-27.14
303.738	114.17
303.952	46.59
304.166	65.02
304.381	-43.52
304.595	99.84
304.809	65.02
305.023	38.4
305.237	7.68
305.452	13.82
305.666	36.35
305.88	77.31
306.094	58.88
306.308	69.12
306.522	79.36
306.736	17.92
306.95	83.45
307.164	48.64
307.379	22.02
307.593	40.45
307.807	69.12
308.021	42.5
308.235	58.88
308.449	7.68
308.663	19.97
308.877	28.16
309.091	-0.51
309.305	17.92
309.519	97.79
309.733	-2.56
309.947	1.54
310.161	46.59
310.374	-55.81
310.588	54.78
310.802	15.87
311.016	69.12
311.23	71.17
311.444	42.5
311.658	52.74
311.872	50.69
312.085	48.64
312.299	87.55
312.513	69.12
312.727	38.4
312.941	42.5
313.154	-0.51
313.368	99.84
313.582	95.74
313.796	50.69
314.009	89.6
314.223	24.06
314.437	22.02
314.651	17.92
314.864	103.93
315.078	69.12
315.292	19.97
315.505	36.35
315.719	83.45
315.933	112.13
316.146	40.45
316.36	-8.7
316.573	122.37
316.787	65.02
317.001	87.55
317.214	-6.66
317.428	46.59
317.641	-18.94
317.855	60.93
318.068	19.97
318.282	-6.66
318.495	1.54
318.709	103.93
318.922	19.97
319.136	48.64
319.349	62.98
319.563	34.3
319.776	1.54
319.99	46.59
320.203	-31.23
320.417	77.31
320.63	85.5
320.843	108.03
321.057	17.92
321.27	7.68
321.483	13.82
321.697	22.02
321.91	1.54
322.124	91.65
322.337	-31.23
322.55	73.21
322.763	69.12
322.977	34.3
323.19	34.3
323.403	62.98
323.617	46.59
323.83	32.26
324.043	44.54
324.256	32.26
324.469	-64
324.683	85.5
324.896	17.92
325.109	99.84
325.322	32.26
325.535	81.41
325.748	52.74
325.962	9.73
326.175	11.78
326.388	118.27
326.601	65.02
326.814	-10.75
327.027	30.21
327.24	58.88
327.453	69.12
327.666	56.83
327.879	22.02
328.092	36.35
328.305	17.92
328.518	38.4
328.731	81.41
328.944	50.69
329.157	75.26
329.37	73.21
329.583	91.65
329.796	77.31
330.009	-41.47
330.222	54.78
330.435	-0.51
330.648	65.02
330.861	1.54
331.073	67.07
331.286	101.89
331.499	69.12
331.712	-20.99
331.925	48.64
332.138	3.58
332.35	87.55
332.563	1.54
332.776	83.45
332.989	-33.28
333.202	99.84
333.414	73.21
333.627	126.46
333.84	42.5
334.053	-14.85
334.265	17.92
334.478	28.16
334.691	-59.9
334.903	75.26
335.116	108.03
335.329	85.5
335.541	52.74
335.754	179.71
335.966	38.4
336.179	34.3
336.392	38.4
336.604	85.5
336.817	54.78
337.029	89.6
337.242	54.78
337.454	103.93
337.667	89.6
337.88	71.17
338.092	65.02
338.305	32.26
338.517	48.64
338.729	62.98
338.942	9.73
339.154	67.07
339.367	24.06
339.579	46.59
339.792	44.54
340.004	26.11
340.217	-0.51
340.429	30.21
340.641	7.68
340.854	48.64
341.066	58.88
341.278	67.07
341.491	69.12
341.703	91.65
341.915	-14.85
342.128	28.16
342.34	75.26
342.552	9.73
342.764	50.69
342.977	34.3
343.189	36.35
343.401	46.59
343.613	9.73
343.826	28.16
344.038	30.21
344.25	30.21
344.462	77.31
344.674	110.08
344.886	77.31
345.099	36.35
345.311	26.11
345.523	56.83
345.735	73.21
345.947	79.36
346.159	-10.75
346.371	42.5
346.583	67.07
346.795	128.51
347.007	85.5
347.219	67.07
347.431	124.41
347.643	26.11
347.855	112.13
348.067	42.5
348.279	36.35
348.491	5.63
348.703	44.54
348.915	60.93
349.127	9.73
349.339	15.87
349.551	85.5
349.763	99.84
349.975	77.31
350.187	83.45
350.399	38.4
350.61	87.55
350.822	-2.56
351.034	34.3
351.246	-14.85
351.458	28.16
351.669	13.82
351.881	122.37
352.093	77.31
352.305	22.02
352.517	54.78
352.728	79.36
352.94	87.55
353.152	26.11
353.363	7.68
353.575	67.07
353.787	30.21
353.999	67.07
354.21	81.41
354.422	83.45
354.633	-25.09
354.845	-0.51
355.057	65.02
355.268	73.21
355.48	60.93
355.692	34.3
355.903	42.5
356.115	1.54
356.326	5.63
356.538	34.3
356.749	67.07
356.961	32.26
357.172	30.21
357.384	58.88
357.595	67.07
357.807	103.93
358.018	56.83
358.23	81.41
358.441	42.5
358.653	44.54
358.864	7.68
359.075	36.35
359.287	103.93
359.498	36.35
359.709	85.5
359.921	69.12
360.132	79.36
360.344	83.45
360.555	130.56
360.766	50.69
360.977	34.3
361.189	-2.56
361.4	50.69
361.611	116.22
361.823	26.11
362.034	97.79
362.245	65.02
362.456	42.5
362.667	93.69
362.879	-0.51
363.09	62.98
363.301	130.56
363.512	81.41
363.723	54.78
363.935	52.74
364.146	7.68
364.357	50.69
364.568	71.17
364.779	17.92
364.99	28.16
365.201	9.73
365.412	116.22
365.623	17.92
365.834	15.87
366.045	26.11
366.256	52.74
366.467	46.59
366.678	112.13
366.889	-18.94
367.1	93.69
367.311	24.06
367.522	54.78
367.733	32.26
367.944	62.98
368.155	69.12
368.366	-8.7
368.577	65.02
368.788	24.06
368.999	30.21
369.209	103.93
369.42	79.36
369.631	24.06
369.842	65.02
370.053	50.69
370.264	1.54
370.474	-49.66
370.685	85.5
370.896	79.36
371.107	97.79
371.317	-8.7
371.528	11.78
371.739	44.54
371.95	105.98
372.16	48.64
372.371	54.78
372.582	5.63
372.792	85.5
373.003	101.89
373.214	85.5
373.424	40.45
373.635	81.41
373.846	26.11
374.056	54.78
374.267	-31.23
374.477	32.26
374.688	71.17
374.898	7.68
375.109	22.02
375.319	-4.61
375.53	62.98
375.74	71.17
375.951	81.41
376.161	17.92
376.372	103.93
376.582	-14.85
376.793	71.17
377.003	85.5
377.214	103.93
377.424	103.93
377.635	128.51
377.845	15.87
378.055	120.32
378.266	136.7
378.476	-6.66
378.686	122.37
378.897	85.5
379.107	50.69
379.317	77.31
379.528	99.84
379.738	22.02
379.948	36.35
380.158	103.93
380.369	79.36
380.579	126.46
380.789	46.59
380.999	103.93
381.21	19.97
381.42	105.98
381.63	54.78
381.84	48.64
382.05	62.98
382.261	89.6
382.471	116.22
382.681	89.6
382.891	97.79
383.101	105.98
383.311	65.02
383.521	81.41
383.731	112.13
383.941	112.13
384.151	24.06
384.361	118.27
384.571	83.45
384.781	99.84
384.991	67.07
385.201	95.74
385.411	103.93
385.621	65.02
385.831	1.54
386.041	95.74
386.251	110.08
386.461	103.93
386.671	132.61
386.881	60.93
387.091	87.55
387.301	26.11
387.511	69.12
387.72	34.3
387.93	40.45
388.14	83.45
388.35	-23.04
388.56	7.68
388.769	52.74
388.979	110.08
389.189	54.78
389.399	34.3
389.609	69.12
389.818	52.74
390.028	87.55
390.238	87.55
390.447	71.17
390.657	77.31
390.867	56.83
391.076	69.12
391.286	71.17
391.496	101.89
391.705	124.41
391.915	87.55
392.125	142.85
392.334	50.69
392.544	122.37
392.753	65.02
392.963	91.65
393.172	42.5
393.382	81.41
393.591	103.93
393.801	30.21
394.01	108.03
394.22	91.65
394.429	79.36
394.639	54.78
394.848	136.7
395.058	91.65
395.267	85.5
395.477	120.32
395.686	189.95
395.895	153.09
396.105	132.61
396.314	91.65
396.524	83.45
396.733	62.98
396.942	132.61
397.152	62.98
397.361	126.46
397.57	91.65
397.78	87.55
397.989	130.56
398.198	95.74
398.407	155.13
398.617	67.07
398.826	132.61
399.035	130.56
399.244	77.31
399.453	-12.8
399.663	101.89
399.872	132.61
400.081	161.28
400.29	165.37
400.499	108.03
400.708	157.18
400.917	167.42
401.127	108.03
401.336	77.31
401.545	116.22
401.754	175.61
401.963	167.42
402.172	81.41
402.381	128.51
402.59	99.84
402.799	151.04
403.008	157.18
403.217	183.81
403.426	161.28
403.635	126.46
403.844	67.07
404.053	226.81
404.262	159.23
404.471	165.37
404.68	110.08
404.888	165.37
405.097	192
405.306	239.1
405.515	253.44
405.724	151.04
405.933	255.48
406.142	331.26
406.35	218.62
406.559	198.14
406.768	228.86
406.977	206.33
407.185	245.24
407.394	214.52
407.603	304.64
407.812	267.77
408.02	300.54
408.229	366.07
408.438	353.79
408.646	318.97
408.855	226.81
409.064	425.47
409.272	316.92
409.481	378.36
409.69	402.94
409.898	364.03
410.107	345.59
410.315	382.46
410.524	368.12
410.733	407.03
410.941	359.93
411.15	499.19
411.358	447.99
411.567	427.51
411.775	437.75
411.984	556.54
412.192	523.77
412.401	560.63
412.609	568.82
412.818	554.49
413.026	591.35
413.234	636.41
413.443	560.63
413.651	587.26
413.86	708.09
414.068	706.04
414.276	712.18
414.485	759.28
414.693	744.95
414.901	873.97
415.11	830.96
415.318	910.83
415.526	906.74
415.734	867.83
415.943	953.84
416.151	1117.68
416.359	939.51
416.567	1002.99
416.776	1021.42
416.984	1218.03
417.192	1310.19
417.4	1291.76
417.608	1193.45
417.817	1240.56
418.025	1312.24
418.233	1332.72
418.441	1420.78
418.649	1564.14
418.857	1539.56
419.065	1545.7
419.273	1560.04
419.481	1617.38
419.689	1799.65
419.897	1764.84
420.105	1857
420.313	1861.09
420.521	2049.5
420.729	1992.16
420.937	2094.56
421.145	2172.38
421.353	2291.17
421.561	2358.75
421.769	2332.12
421.977	2534.87
422.185	2475.48
422.393	2692.57
422.601	2848.21
422.809	2823.64
423.017	2823.64
423.224	2895.32
423.432	3091.92
423.64	3018.19
423.848	3411.4
424.056	3171.79
424.263	3534.28
424.471	3509.71
424.679	3505.61
424.887	3696.07
425.094	3900.87
425.302	3913.16
425.51	4023.75
425.718	4138.43
425.925	4261.31
426.133	4359.61
426.341	4631.99
426.548	4799.93
426.756	4828.6
426.964	4918.71
427.171	5193.14
427.379	5313.97
427.586	5283.25
427.794	5551.53
428.001	5737.9
428.209	6061.48
428.417	5940.65
428.624	6198.69
428.832	6514.08
429.039	6247.84
429.247	6253.98
429.454	7015.83
429.662	7505.29
429.869	6761.88
430.076	7525.77
430.284	7325.07
430.491	7597.45
430.699	7984.52
430.906	7873.93
431.114	8056.2
431.321	8377.73
431.528	8457.6
431.736	9004.41
431.943	9428.34
432.15	9250.16
432.358	9180.53
432.565	9858.41
432.772	9694.57
432.979	10360.16
433.187	10390.88
433.394	10509.66
433.601	11079
433.808	11158.87
434.016	11216.21
434.223	11449.68
434.43	12318.02
434.637	12234.05
434.844	12891.45
435.052	13196.6
435.259	13022.52
435.466	13028.67
435.673	13045.05
435.88	14011.69
436.087	14398.76
436.294	14603.55
436.501	14155.05
436.708	14667.04
436.915	14796.06
437.122	15707.41
437.329	15623.44
437.537	16424.2
437.743	16366.85
437.95	16319.75
438.157	17358.07
438.364	17831.15
438.571	17818.86
438.778	17788.14
438.985	19526.87
439.192	18691.3
439.399	19322.07
439.606	19045.6
439.813	20079.82
440.02	21408.95
440.227	21025.98
440.433	20579.53
440.64	21232.83
440.847	21390.52
441.054	21777.59
441.261	22805.67
441.467	22877.35
441.674	23231.65
441.881	24290.45
442.088	24192.14
442.294	23938.19
442.501	24628.36
442.708	25187.46
442.914	25955.44
443.121	27092.07
443.328	26406
443.534	28443.73
443.741	27190.37
443.948	27090.02
444.154	29142.08
444.361	28759.11
444.568	28918.85
444.774	29015.11
444.981	29320.26
445.187	30274.61
445.394	31366.18
445.6	31202.34
445.807	34206.71
446.013	32887.82
446.22	33414.15
446.426	34759.66
446.633	34630.64
446.839	35650.53
447.046	34530.29
447.252	36740.05
447.459	36445.14
447.665	36692.94
447.871	38353.85
448.078	39768.99
448.284	37940.16
448.491	38753.2
448.697	40065.95
448.903	40735.63
449.11	40792.98
449.316	40434.58
449.522	40932.24
449.728	42357.63
449.935	42480.5
450.141	42306.43
450.347	43301.74
450.553	42161.02
450.76	42527.61
450.966	43866.98
451.172	43432.81
451.378	44313.44
451.584	43486.06
451.791	44800.85
451.997	44436.31
452.203	45415.24
452.409	45683.53
452.615	45239.12
452.821	43428.71
453.027	42931.06
453.233	45099.86
453.44	43594.6
453.646	43629.41
453.852	44110.69
454.058	44737.37
454.264	43436.91
454.47	44079.97
454.676	43148.14
454.882	44680.02
455.088	40741.78
455.294	41474.95
455.5	41767.81
455.705	42369.91
455.911	40995.73
456.117	40158.11
456.323	39197.61
456.529	37381.06
456.735	39189.42
456.941	38271.93
457.147	37374.92
457.352	36363.22
457.558	36047.83
457.764	36008.92
457.97	35732.45
458.176	34827.24
458.381	34255.86
458.587	32783.37
458.793	32932.87
458.999	31067.17
459.204	33475.59
459.41	32570.38
459.616	30401.58
459.821	30424.11
460.027	30434.35
460.233	30082.1
460.438	28290.13
460.644	28726.35
460.85	27272.29
461.055	26891.37
461.261	26821.73
461.466	25162.88
461.672	24188.05
461.878	25826.42
462.083	24224.91
462.289	23633.05
462.494	23653.53
462.7	22529.19
462.905	21941.43
463.111	22518.95
463.316	22607.02
463.522	22041.78
463.727	22219.95
463.932	22162.61
464.138	21757.11
464.343	21963.95
464.549	20894.91
464.754	22127.79
464.959	21773.49
465.165	21628.09
465.37	20753.6
465.575	20214.99
465.781	21058.75
465.986	21091.52
466.191	20264.14
466.397	19899.6
466.602	19064.03
466.807	19795.15
467.012	19850.45
467.218	19829.97
467.423	19305.69
467.628	19471.57
467.833	20243.66
468.038	19655.89
468.244	19279.07
468.449	19803.35
468.654	19305.69
468.859	19043.55
469.064	18570.47
469.269	18199.79
469.474	18201.83
469.679	18552.04
469.885	18128.11
470.09	18492.65
470.295	18396.39
470.5	17480.95
470.705	18015.47
470.91	17341.69
471.115	17179.9
471.32	17730.8
471.525	17556.72
471.73	17145.08
471.935	17014.01
472.139	16373
472.344	16512.26
472.549	16387.33
472.754	16514.31
472.959	15934.73
473.164	15871.25
473.369	15420.69
473.574	16045.32
473.778	15568.15
473.983	15389.97
474.188	15586.58
474.393	14828.83
474.598	14890.27
474.802	14882.08
475.007	14708
475.212	14808.35
475.417	14230.82
475.621	14212.39
475.826	14247.21
476.031	14089.51
476.235	13712.69
476.44	13927.72
476.645	13616.43
476.849	13913.39
477.054	13569.33
477.259	13112.63
477.463	13278.52
477.668	13040.95
477.872	13270.33
478.077	12760.38
478.282	12602.69
478.486	12557.63
478.691	12412.23
478.895	12473.67
479.1	12350.79
479.304	12342.6
479.509	12047.69
479.713	12305.73
479.918	11826.51
480.122	11846.99
480.326	11900.23
480.531	11900.23
480.735	11619.66
480.94	11543.89
481.144	12045.64
481.348	11335
481.553	11707.73
481.757	11373.91
481.961	11457.87
482.166	11627.85
482.37	11535.7
482.574	11402.58
482.778	11414.87
482.983	11537.74
483.187	11404.63
483.391	11570.51
483.595	11150.68
483.8	11369.81
484.004	11435.35
484.208	11472.21
484.412	11255.12
484.616	11466.07
484.821	11498.83
485.025	11140.44
485.229	11318.61
485.433	11214.16
485.637	11447.63
485.841	11248.98
486.045	11255.12
486.249	11296.08
486.453	11271.51
486.657	11222.36
486.861	11408.72
487.065	11177.3
487.269	11326.8
487.473	11162.97
487.677	11382.1
487.881	11625.81
488.085	11402.58
488.289	11406.67
488.493	11498.83
488.697	11486.54
488.901	11275.6
489.105	11365.71
489.309	11513.17
489.512	11472.21
489.716	11380.05
489.92	11437.39
490.124	11660.62
490.328	11887.95
490.531	11681.1
490.735	11615.57
490.939	11523.41
491.143	11660.62
491.346	11517.26
491.55	12244.29
491.754	11648.33
491.958	11861.32
492.161	11916.62
492.365	11994.44
492.569	11820.36
492.772	11734.35
492.976	12035.4
493.18	12242.25
493.383	12059.98
493.587	12264.77
493.79	12361.03
493.994	12129.61
494.197	12195.14
494.401	12590.4
494.605	12545.34
494.808	12735.81
495.012	12768.57
495.215	12987.71
495.419	12840.25
495.622	13012.28
495.825	13243.7
496.029	13090.1
496.232	13335.86
496.436	13331.76
496.639	13630.77
496.843	13389.11
497.046	13804.85
497.249	13929.77
497.453	14095.66
497.656	14185.77
497.859	13976.87
498.063	14253.35
498.266	14624.03
498.469	14464.29
498.673	14710.05
498.876	15140.12
499.079	15215.9
499.282	15035.67
499.485	15492.37
499.689	15394.07
499.892	15768.85
500.095	15764.75
500.298	16139.53
500.501	15744.27
500.705	16459.01
500.908	16692.48
501.111	16524.55
501.314	16829.7
501.517	17030.4
501.72	17249.53
501.923	17276.15
502.126	17630.45
502.329	17841.39
502.532	18040.04
502.735	18150.64
502.938	18332.9
503.141	18474.21
503.344	18838.75
503.547	18746.59
503.75	19109.08
503.953	19442.9
504.156	19508.44
504.359	19739.86
504.562	19815.63
504.765	20264.14
504.968	20315.34
505.17	20757.7
505.373	20686.02
505.576	21140.67
505.779	21394.62
505.982	21392.57
506.185	21738.68
506.387	21714.1
506.59	21933.23
506.793	22443.18
506.996	22250.67
507.198	23022.75
507.401	22830.24
507.604	23217.31
507.807	23512.22
508.009	23692.44
508.212	23829.65
508.415	23835.8
508.617	24241.29
508.82	23975.06
509.022	24544.39
509.225	25029.76
509.428	25216.13
509.63	25351.29
509.833	25318.53
510.035	26135.67
510.238	26016.88
510.44	26086.51
510.643	26455.15
510.845	26948.71
511.048	26758.25
511.25	27094.11
511.453	27368.54
511.655	28150.87
511.858	27712.6
512.06	28281.94
512.262	28572.75
512.465	28339.28
512.667	28855.37
512.87	29369.41
513.072	29502.53
513.274	29723.71
513.477	29822.01
513.679	30325.81
513.881	30737.45
514.084	31196.2
514.286	30909.48
514.488	31177.76
514.69	32117.78
514.893	32300.05
515.095	32119.83
515.297	32789.52
515.499	32836.62
515.701	32640.01
515.904	33088.52
516.106	33446.91
516.308	33569.79
516.51	34057.21
516.712	34253.81
516.914	34509.81
517.116	34989.03
517.318	35648.48
517.52	35431.4
517.722	35400.68
517.925	36178.9
518.127	36291.54
518.329	36764.62
518.531	36414.42
518.733	36928.46
518.935	37381.06
519.136	37194.7
519.338	37954.49
519.54	38265.78
519.742	38163.39
519.944	38714.29
520.146	39005.1
520.348	39515.05
520.55	39291.82
520.752	39615.4
520.954	40135.58
521.155	39926.69
521.357	40653.72
521.559	40975.25
521.761	41581.45
521.963	41284.49
522.164	41644.93
522.366	41667.46
522.568	42283.9
522.77	42267.52
522.971	42808.18
523.173	42707.83
523.375	42902.39
523.576	43092.85
523.778	43309.93
523.98	44014.43
524.181	43871.07
524.383	43879.27
524.584	44100.45
524.786	44501.85
524.988	44837.72
525.189	44792.66
525.391	45413.2
525.592	45374.28
525.794	45632.33
525.995	45689.67
526.197	45982.53
526.398	45628.23
526.6	45890.37
526.801	46199.62
527.003	46578.49
527.204	46226.24
527.406	46822.2
527.607	46814.01
527.808	47166.26
528.01	46400.32
528.211	47041.33
528.412	47635.24
528.614	47485.74
528.815	47596.33
529.016	48122.66
529.218	47346.48
529.419	47622.95
529.62	48458.52
529.822	47909.67
530.023	48151.33
530.224	48206.62
530.425	48022.31
530.626	47960.87
530.828	47719.21
531.029	48900.89
531.23	48161.57
531.431	48339.74
531.632	48366.37
531.833	48712.47
532.035	48438.04
532.236	48806.68
532.437	48898.84
532.638	48610.07
532.839	48739.1
533.04	49027.86
533.241	48605.98
533.442	49535.76
533.643	49038.1
533.844	49249.04
534.045	49302.29
534.246	48616.22
534.447	49234.7
534.648	48640.79
534.849	49519.37
535.05	48319.26
535.251	49070.87
535.451	48571.16
535.652	49632.01
535.853	48710.42
536.054	49269.52
536.255	49068.82
536.456	48638.75
536.657	49914.63
536.857	49652.49
537.058	49054.48
537.259	49441.55
537.46	49601.29
537.66	48696.09
537.861	49361.68
538.062	49203.99
538.263	49371.92
538.463	48966.42
538.664	48851.73
538.865	48669.47
539.065	49128.21
539.266	48845.59
539.466	49281.81
539.667	48759.58
539.868	49447.69
540.068	49079.06
540.269	49242.9
540.469	49439.5
540.67	48587.55
540.87	48933.65
541.071	49120.02
541.271	49271.57
541.472	49044.24
541.672	48847.64
541.873	48223.01
542.073	48798.49
542.274	49236.75
542.474	48593.69
542.675	48433.95
542.875	49347.34
543.075	49052.44
543.276	48628.51
543.476	49453.84
543.676	48696.09
543.877	48847.64
544.077	49136.4
544.277	48810.78
544.478	48802.58
544.678	48892.69
544.878	48491.29
545.078	48974.61
545.279	48493.34
545.479	48532.25
545.679	48368.41
545.879	48462.62
546.079	49036.05
546.28	48481.05
546.48	48257.82
546.68	48470.81
546.88	49269.52
547.08	48554.78
547.28	48526.11
547.48	47694.63
547.68	48577.31
547.88	48476.96
548.081	48544.54
548.281	48898.84
548.481	48358.17
548.681	48980.76
548.881	48352.03
549.081	48511.77
549.28	48233.25
549.48	48911.13
549.68	48583.45
549.88	49085.2
550.08	47854.37
550.28	48370.46
550.48	48380.7
550.68	48321.31
550.88	48163.62
551.08	47797.03
551.279	48259.87
551.479	47586.09
551.679	48233.25
551.879	48399.13
552.079	48003.88
552.278	47872.81
552.478	47909.67
552.678	48337.69
552.878	48184.1
553.077	48044.83
553.277	47872.81
553.477	48603.93
553.676	47897.38
553.876	47756.07
554.076	47696.68
554.275	47661.86
554.475	47315.76
554.674	48145.19
554.874	47960.87
555.074	47620.91
555.273	47934.24
555.473	47860.52
555.672	47625
555.872	47518.51
556.071	47721.26
556.271	47827.75
556.47	47328.05
556.67	47106.87
556.869	47158.06
557.068	47477.55
557.268	47117.11
557.467	47399.72
557.667	46932.79
557.866	47141.68
558.065	47043.38
558.265	46895.92
558.464	46762.81
558.663	47090.48
558.863	46043.97
559.062	47135.54
559.261	46113.6
559.461	47330.09
559.66	46566.2
559.859	46840.63
560.058	46082.88
560.258	46711.61
560.457	45734.73
560.656	46070.59
560.855	46199.62
561.054	46656.31
561.253	45992.77
561.453	45830.98
561.652	46359.36
561.851	46428.99
562.05	46254.91
562.249	45841.22
562.448	45972.29
562.647	45781.83
562.846	45648.71
563.045	45710.15
563.244	45165.39
563.443	45708.1
563.642	45181.77
563.841	45349.71
564.04	45278.03
564.239	45869.89
564.438	45146.96
564.637	45296.46
564.836	45216.59
565.035	44620.63
565.234	44997.46
565.432	44784.47
565.631	44276.57
565.83	44749.65
566.029	44352.35
566.228	44378.97
566.427	44352.35
566.625	44403.55
566.824	44153.69
567.023	44276.57
567.222	43279.21
567.42	44221.28
567.619	43840.36
567.818	43936.61
568.016	43801.44
568.215	43840.36
568.414	43610.98
568.612	43787.11
568.811	43352.94
569.01	43864.93
569.208	43180.91
569.407	43340.65
569.605	42716.02
569.804	43314.03
570.002	42523.51
570.201	43064.17
570.4	42695.54
570.598	42961.78
570.797	42408.82
570.995	42519.42
571.193	42187.64
571.392	42742.64
571.59	41724.8
571.789	42222.46
571.987	41882.5
572.186	41974.66
572.384	41849.73
572.582	41882.5
572.781	41898.88
572.979	41280.39
573.177	41802.63
573.376	41880.45
573.574	41114.51
573.772	41382.79
573.971	41495.43
574.169	40962.96
574.367	41020.3
574.565	41104.27
574.763	40539.03
574.962	40987.53
575.16	40143.77
575.358	40565.65
575.556	40098.72
575.754	40285.08
575.952	39863.2
576.151	40283.03
576.349	39873.44
576.547	40049.56
576.745	40031.13
576.943	39715.75
577.141	39852.96
577.339	39807.9
577.537	39183.27
577.735	39216.04
577.933	39089.07
578.131	39701.41
578.329	39107.5
578.527	39001
578.725	39039.92
578.923	39320.49
579.121	38589.36
579.319	38861.74
579.516	38822.83
579.714	38728.63
579.912	38265.78
580.11	38396.85
580.308	38425.53
580.506	38337.46
580.704	37868.48
580.901	38058.94
581.099	38491.06
581.297	37739.46
581.495	38085.56
581.692	38091.71
581.89	37645.25
582.088	38005.69
582.285	37655.49
582.483	37630.91
582.681	37450.69
582.878	37200.84
583.076	36981.71
583.274	36938.7
583.471	36819.92
583.669	36840.4
583.866	36672.46
584.064	37123.02
584.262	36502.48
584.459	36615.12
584.657	36404.18
584.854	36721.62
585.052	35652.58
585.249	36516.82
585.447	36359.13
585.644	35814.37
585.841	35847.13
586.039	36332.5
586.236	35507.17
586.434	35396.58
586.631	35220.45
586.828	35517.41
587.026	35140.58
587.223	35265.51
587.42	35437.54
587.618	35044.33
587.815	35007.47
588.012	34892.78
588.21	34862.06
588.407	34696.17
588.604	34307.06
588.801	34458.61
588.999	34073.59
589.196	34278.39
589.393	34331.64
589.59	34401.27
589.787	33805.31
589.984	34001.91
590.182	33393.67
590.379	33516.54
590.576	33707.01
590.773	33629.18
590.97	33405.95
591.167	33719.29
591.364	33143.81
591.561	33395.71
591.758	33094.66
591.955	33321.99
592.152	33238.02
592.349	32697.36
592.546	32863.24
592.743	33111.05
592.94	32345.11
593.137	33106.95
593.334	32576.53
593.531	32324.63
593.727	32144.41
593.924	32119.83
594.121	32115.73
594.318	32085.01
594.515	31732.76
594.712	32291.86
594.908	31597.6
595.105	31892.51
595.302	31431.71
595.499	31593.5
595.696	31470.62
595.892	31073.32
596.089	31525.92
596.286	31357.99
596.482	31255.59
596.679	31052.84
596.876	30821.42
597.072	30876.71
597.269	30594.09
597.466	30213.17
597.662	30657.58
597.859	30542.89
598.055	30383.15
598.252	30141.49
598.448	30262.32
598.645	29897.78
598.841	29744.19
599.038	29754.43
599.234	30131.25
599.431	29594.68
599.627	29432.89
599.824	29981.75
600.02	29115.46
600.217	29582.4
600.413	29555.77
600.609	29207.62
600.806	28988.49
601.002	28890.18
601.198	28945.48
601.395	28744.78
601.591	28871.75
601.787	28732.49
601.984	28568.65
602.18	28486.73
602.376	28838.98
602.572	28449.87
602.769	28275.79
602.965	28126.29
603.161	28453.97
603.357	27937.88
603.553	27927.64
603.75	28163.15
603.946	27483.23
604.142	28030.04
604.338	27624.54
604.534	27618.39
604.73	27354.21
604.926	27505.76
605.122	27376.73
605.318	26748.01
605.514	27126.88
605.71	27090.02
605.906	27020.39
606.102	26995.81
606.298	26653.8
606.494	27208.8
606.69	26893.41
606.886	26979.43
607.082	26815.59
607.278	26803.3
607.474	26379.37
607.67	26623.08
607.866	26092.66
608.062	26487.92
608.257	26209.39
608.453	26352.75
608.649	26238.06
608.845	25967.73
609.041	25807.99
609.236	26117.23
609.432	26047.6
609.628	26141.81
609.824	25812.09
610.019	25697.4
610.215	25818.23
610.411	25642.1
610.606	25468.03
610.802	25646.2
610.998	25760.89
611.193	25662.58
611.389	25095.3
611.584	25296
611.78	25224.32
611.976	25394.3
612.171	25736.31
612.367	25166.98
612.562	25181.31
612.758	24999.04
612.953	24560.78
613.149	25541.75
613.344	24624.26
613.539	25181.31
613.735	25148.54
613.93	24919.17
614.126	24798.34
614.321	24894.6
614.517	24751.24
614.712	24652.94
614.907	24915.08
615.103	24523.91
615.298	24663.18
615.493	24374.41
615.688	24048.79
615.884	24702.09
616.079	24165.52
616.274	24384.65
616.47	24382.6
616.665	24638.6
616.86	24296.59
617.055	24050.83
617.25	23958.67
617.445	24247.44
617.641	23655.58
617.836	24327.31
618.031	23489.69
618.226	23784.6
618.421	23717.01
618.616	23968.91
618.811	23772.31
619.006	23917.72
619.201	23049.38
619.396	23540.89
619.591	23053.47
619.786	23248.03
619.981	22891.68
620.176	23102.62
620.371	22801.57
620.566	22992.03
620.761	22727.85
620.956	22623.4
621.151	22373.55
621.346	22457.51
621.541	22068.4
621.735	22283.44
621.93	22156.46
622.125	22054.06
622.32	21757.11
622.515	22127.79
622.709	21623.99
622.904	21691.57
623.099	21494.97
623.294	21445.82
623.488	21212.35
623.683	21494.97
623.878	21058.75
624.072	21206.2
624.267	20997.31
624.462	20872.39
624.656	20518.09
624.851	20806.85
625.046	20323.53
625.24	20464.84
625.435	19961.04
625.629	20135.12
625.824	19948.75
626.018	19881.17
626.213	19565.78
626.407	20176.08
626.602	19530.97
626.796	19483.86
626.991	19584.21
627.185	19172.57
627.38	19008.73
627.574	18914.53
627.768	18728.16
627.963	18724.07
628.157	18646.24
628.352	18892
628.546	18533.61
628.74	18705.63
628.935	18472.17
629.129	18296.04
629.323	18228.46
629.517	18083.05
629.712	17886.45
629.906	17712.37
630.1	17601.78
630.294	17775.86
630.489	17665.27
630.683	17517.81
630.877	17470.71
631.071	17261.82
631.265	17331.45
631.459	17179.9
631.653	16958.72
631.848	16921.85
632.042	16946.43
632.236	17255.67
632.43	16884.99
632.624	16817.41
632.818	16483.59
633.012	16577.8
633.206	16327.94
633.4	16559.36
633.594	16098.57
633.788	16039.18
633.982	15873.29
634.176	15942.92
634.369	16100.62
634.563	15598.87
634.757	15715.6
634.951	15983.88
635.145	15750.42
635.339	15557.91
635.533	15275.29
635.726	15338.77
635.92	15047.96
636.114	15330.58
636.308	15076.63
636.501	14877.98
636.695	15115.55
636.889	15054.11
637.083	14871.84
637.276	14753.05
637.47	14656.8
637.664	14802.21
637.857	14570.79
638.051	14720.29
638.244	14349.61
638.438	14380.32
638.632	14228.77
638.825	14241.06
639.019	13839.66
639.212	13942.06
639.406	14036.27
639.599	14052.65
639.793	13892.91
639.986	13544.75
640.18	13569.33
640.373	13593.9
640.567	13448.5
640.76	13452.59
640.954	13118.78
641.147	13086.01
641.34	13225.27
641.534	13182.26
641.727	13190.45
641.92	12895.55
642.114	13094.2
642.307	12952.89
642.5	12784.96
642.694	12688.7
642.887	12561.73
643.08	12756.29
643.273	12803.39
643.467	12303.68
643.66	12404.03
643.853	12195.14
644.046	12229.96
644.239	12215.62
644.432	12016.97
644.626	12092.74
644.819	12064.07
645.012	12059.98
645.205	12080.46
645.398	11720.01
645.591	11830.6
645.784	11679.05
645.977	11674.96
646.17	11668.81
646.363	11513.17
646.556	11351.38
646.749	11562.32
646.942	11285.84
647.135	11261.27
647.328	11392.34
647.521	11425.11
647.714	11005.27
647.907	11162.97
648.099	11105.62
648.292	11128.15
648.485	10933.59
648.678	10929.5
648.871	10806.62
649.064	10728.8
649.256	10788.19
649.449	10698.08
649.642	10605.92
649.835	10679.65
650.027	10358.11
650.22	10487.14
650.413	10394.98
650.605	10132.84
650.798	10218.85
650.991	9995.62
651.183	10122.6
651.376	10147.17
651.568	10173.8
651.761	9895.27
651.954	10134.89
652.146	9950.57
652.339	9846.12
652.531	9762.16
652.724	9823.59
652.916	9598.32
653.109	9633.13
653.301	9749.87
653.494	9626.99
653.686	9416.05
653.879	9383.28
654.071	9305.46
654.263	9420.14
654.456	9483.63
654.648	9385.33
654.84	9115
655.033	9063.8
655.225	9123.19
655.417	8981.88
655.61	9137.52
655.802	8969.59
655.994	8934.78
656.186	9020.79
656.379	8916.34
656.571	8836.47
656.763	8590.72
656.955	8684.92
657.148	8770.94
657.34	8646.01
657.532	8433.02
657.724	8467.84
657.916	8570.24
658.108	8484.22
658.3	8430.98
658.492	8287.62
658.684	8095.11
658.876	8336.77
659.068	8179.08
659.26	8136.07
659.452	8295.81
659.644	8000.9
659.836	7949.7
660.028	8101.25
660.22	8017.29
660.412	8095.11
660.604	7839.11
660.796	7896.46
660.988	7779.72
661.18	7886.22
661.372	7474.57
661.563	7718.28
661.755	7554.44
661.947	7601.55
662.139	7597.45
662.331	7421.33
662.522	7607.69
662.714	7540.11
662.906	7406.99
663.097	7505.29
663.289	7165.33
663.481	7402.9
663.673	7220.63
663.864	7128.47
664.056	7114.13
664.247	7253.39
664.439	6981.01
664.631	6938.01
664.822	7116.18
665.014	7157.14
665.205	6974.87
665.397	7112.08
665.588	7026.07
665.78	6938.01
665.971	6784.41
666.163	6786.46
666.354	6661.53
666.546	6841.75
666.737	6811.03
666.929	6825.37
667.12	6620.57
667.311	6704.54
667.503	6604.19
667.694	6665.63
667.885	6593.95
668.077	6591.9
668.268	6421.92
668.459	6391.2
668.651	6526.36
668.842	6167.97
669.033	6282.66
669.224	6397.34
669.416	6335.9
669.607	6294.94
669.798	6221.22
669.989	6204.83
670.18	6096.29
670.371	6196.64
670.563	6229.41
670.754	5979.56
670.945	5776.81
671.136	5995.94
671.327	6073.76
671.518	5944.74
671.709	5914.02
671.9	6053.28
672.091	5903.78
672.282	5797.29
672.473	5770.66
672.664	5928.36
672.855	5774.76
673.046	5770.66
673.237	5737.9
673.428	5565.87
673.619	5698.99
673.809	5610.92
674	5631.4
674.191	5596.59
674.382	5490.09
674.573	5615.02
674.764	5526.96
674.954	5555.63
675.145	5492.14
675.336	5402.03
675.527	5455.28
675.717	5428.65
675.908	5541.29
676.099	5399.98
676.289	5326.25
676.48	5512.62
676.671	5399.98
676.861	5461.42
677.052	5115.31
677.243	5248.43
677.433	5148.08
677.624	5197.23
677.814	5340.59
678.005	5182.9
678.195	5270.96
678.386	5148.08
678.576	5117.36
678.767	5119.41
678.957	5051.83
679.148	5080.5
679.338	5086.64
679.529	5039.54
679.719	5006.77
679.909	5025.2
680.1	4951.48
680.29	5045.68
680.481	4994.48
680.671	4924.85
680.861	4838.84
681.052	5170.61
681.242	4920.76
681.432	5078.45
681.622	4865.46
681.813	4738.49
682.003	4931
682.193	4801.97
682.383	4789.69
682.573	4693.43
682.764	4824.5
682.954	4896.18
683.144	4703.67
683.334	4752.82
683.524	4654.52
683.714	4662.71
683.904	4519.36
684.094	4693.43
684.284	4660.66
684.474	4746.68
684.664	4599.23
684.854	4732.34
685.044	4550.07
685.234	4529.59
685.424	4539.83
685.614	4595.13
685.804	4507.07
685.994	4570.55
686.184	4513.21
686.374	4599.23
686.564	4402.62
686.753	4482.49
686.943	4560.31
687.133	4490.68
687.323	4500.92
687.513	4488.64
687.702	4502.97
687.892	4496.83
688.082	4355.52
688.272	4326.85
688.461	4279.74
688.651	4292.03
688.841	4216.26
689.03	4142.53
689.22	4269.5
689.41	4093.38
689.599	4025.79
689.789	4238.78
689.979	4294.08
690.168	4087.23
690.358	4070.85
690.547	3968.45
690.737	4031.94
690.926	4017.6
691.116	3884.48
691.305	4044.23
691.495	4050.37
691.684	3931.59
691.874	3872.2
692.063	3958.21
692.252	3921.35
692.442	3814.85
692.631	3683.78
692.82	3780.04
693.01	3788.23
693.199	3868.1
693.388	3747.27
693.578	3943.88
693.767	3784.13
693.956	3663.3
694.146	3673.54
694.335	3663.3
694.524	3704.26
694.713	3618.25
694.902	3722.7
695.092	3759.56
695.281	3632.58
695.47	3413.45
695.659	3579.34
695.848	3605.96
696.037	3694.02
696.226	3352.01
696.415	3472.84
696.604	3644.87
696.793	3517.9
696.982	3507.66
697.171	3448.27
697.36	3435.98
697.549	3591.63
697.738	3442.12
697.927	3476.94
698.116	3427.79
698.305	3417.55
698.494	3276.24
698.683	3206.61
698.872	3407.31
699.061	3397.07
699.25	3323.34
699.438	3366.35
699.627	3376.59
699.816	3358.16
700.005	3366.35
700.193	3259.85
700.382	3298.77
700.571	3268.05
700.76	3247.57
700.948	3282.38
701.137	3405.26
701.326	3358.16
701.514	3321.29
701.703	3384.78
701.892	3292.62
702.08	3335.63
702.269	3259.85
702.457	3100.11
702.646	3204.56
702.834	3212.75
703.023	3292.62
703.212	3212.75
703.4	3214.8
703.589	3206.61
703.777	3177.94
703.965	3053.01
704.154	3093.97
704.342	3114.45
704.531	3177.94
704.719	3171.79
704.907	3233.23
705.096	3063.25
705.284	3165.65
705.472	3151.31
705.661	3136.98
705.849	3206.61
706.037	3171.79
706.226	3151.31
706.414	3139.02
706.602	3085.78
706.79	3339.73
706.979	3143.12
707.167	3087.82
707.355	3046.87
707.543	3057.11
707.731	3102.16
707.919	3089.87
708.107	3061.2
708.296	3075.54
708.484	3108.3
708.672	3161.55
708.86	3024.34
709.048	2969.04
709.236	2905.56
709.424	3042.77
709.612	3096.02
709.8	3106.26
709.988	3085.78
710.176	2930.13
710.364	3081.68
710.551	3089.87
710.739	3044.82
710.927	3050.96
711.115	3038.67
711.303	3128.78
711.491	3022.29
711.679	3010
711.866	2903.51
712.054	3001.81
712.242	3028.43
712.43	3016.15
712.617	3003.86
712.805	3005.91
712.993	2944.47
713.181	2893.27
713.368	2940.37
713.556	3075.54
713.744	2876.88
713.931	3065.3
714.119	2983.38
714.306	2971.09
714.494	2858.45
714.682	2973.14
714.869	3012.05
715.057	2999.76
715.244	2934.23
715.432	3110.35
715.619	2934.23
715.807	2977.23
715.994	2977.23
716.182	2932.18
716.369	3022.29
716.556	3065.3
716.744	2999.76
716.931	3042.77
717.119	2936.28
717.306	2964.95
717.493	2784.73
717.681	2889.17
717.868	3007.95
718.055	2733.53
718.242	2946.52
718.43	2885.08
718.617	3018.19
718.804	2760.15
718.991	2778.58
719.179	2940.37
719.366	2833.88
719.553	2846.16
719.74	2846.16
719.927	2954.71
720.114	2887.12
720.301	2819.54
720.488	2860.5
720.676	2911.7
720.863	2827.73
721.05	2950.61
721.237	2895.32
721.424	2856.4
721.611	2917.84
721.798	2885.08
721.985	2907.6
722.172	2878.93
722.358	2799.06
722.545	2842.07
722.732	2909.65
722.919	2905.56
723.106	2837.97
723.293	2835.92
723.48	2876.88
723.667	2868.69
723.853	2905.56
724.04	2975.19
724.227	2762.2
724.414	2979.28
724.6	2899.41
724.787	2833.88
724.974	2878.93
725.161	2817.49
725.347	2801.11
725.534	2956.75
725.72	2971.09
725.907	2874.84
726.094	2725.33
726.28	2887.12
726.467	2850.26
726.653	2827.73
726.84	2858.45
727.027	2854.36
727.213	2749.91
727.4	2891.22
727.586	2852.31
727.773	2790.87
727.959	2893.27
728.145	2774.49
728.332	2858.45
728.518	2784.73
728.705	2901.46
728.891	2840.02
729.077	2878.93
729.264	2897.36
729.45	2840.02
729.636	2856.4
729.823	2815.45
730.009	2827.73
730.195	2878.93
730.382	2878.93
730.568	2778.58
730.754	2885.08
730.94	2790.87
731.126	2915.8
731.313	3012.05
731.499	2858.45
731.685	2923.99
731.871	2905.56
732.057	2819.54
732.243	2878.93
732.429	2790.87
732.615	2862.55
732.801	2729.43
732.987	2747.86
733.173	2815.45
733.359	2966.99
733.545	2770.39
733.731	2803.16
733.917	2883.03
734.103	2872.79
734.289	2891.22
734.475	2811.35
734.661	2885.08
734.847	2895.32
735.033	2819.54
735.219	2790.87
735.404	2887.12
735.59	2854.36
735.776	2760.15
735.962	2756.05
736.148	2751.96
736.333	2764.25
736.519	2784.73
736.705	2831.83
736.89	2825.68
737.076	2725.33
737.262	2801.11
737.447	2698.71
737.633	2815.45
737.819	2835.92
738.004	2661.85
738.19	2678.23
738.375	2643.42
738.561	2737.62
738.747	2741.72
738.932	2702.81
739.118	2854.36
739.303	2790.87
739.489	2702.81
739.674	2694.61
739.859	2620.89
740.045	2737.62
740.23	2756.05
740.416	2694.61
740.601	2573.78
740.786	2590.17
740.972	2616.79
741.157	2749.91
741.342	2596.31
741.528	2653.66
741.713	2704.85
741.898	2606.55
742.084	2686.42
742.269	2606.55
742.454	2569.69
742.639	2602.46
742.824	2588.12
743.01	2618.84
743.195	2608.6
743.38	2565.59
743.565	2516.44
743.75	2598.36
743.935	2457.05
744.12	2586.07
744.305	2502.11
744.49	2506.2
744.675	2444.76
744.86	2469.34
745.045	2551.26
745.23	2432.47
745.415	2405.85
745.6	2436.57
745.785	2360.8
745.97	2457.05
746.155	2526.68
746.34	2461.15
746.525	2348.51
746.71	2348.51
746.895	2407.9
747.079	2414.04
747.264	2389.47
747.449	2260.45
747.634	2282.97
747.819	2264.54
748.003	2319.84
748.188	2272.73
748.373	2328.03
748.557	2250.21
748.742	2153.95
748.927	2274.78
749.111	2280.93
749.296	2217.44
749.481	2246.11
749.665	2162.14
749.85	2151.9
750.034	2184.67
750.219	2117.09
750.404	2094.56
750.588	2108.9
750.773	2162.14
750.957	1998.31
751.141	2133.47
751.326	2102.75
751.51	2074.08
751.695	2006.5
751.879	2086.37
752.064	2014.69
752.248	2061.79
752.432	2090.46
752.617	1979.87
752.801	1877.48
752.985	1963.49
753.17	1891.81
753.354	1998.31
753.538	1859.04
753.722	1768.93
753.907	1787.36
754.091	1924.58
754.275	1801.7
754.459	1861.09
754.643	1709.54
754.828	1889.76
755.012	1857
755.196	1795.56
755.38	1734.12
755.564	1760.74
755.748	1742.31
755.932	1818.08
756.116	1699.3
756.3	1723.88
756.484	1705.45
756.668	1709.54
756.852	1627.62
757.036	1658.34
757.22	1764.84
757.404	1580.52
757.588	1682.92
757.772	1641.96
757.956	1633.77
758.14	1652.2
758.323	1592.81
758.507	1633.77
758.691	1506.79
758.875	1566.18
759.059	1519.08
759.242	1527.27
759.426	1535.46
759.61	1539.56
759.794	1527.27
759.977	1521.13
760.161	1551.85
760.345	1496.55
760.528	1557.99
760.712	1437.16
760.895	1529.32
761.079	1490.41
761.263	1443.31
761.446	1465.83
761.63	1514.98
761.813	1449.45
761.997	1390.06
762.18	1476.07
762.364	1379.82
762.547	1428.97
762.731	1347.05
762.914	1404.39
763.098	1398.25
763.281	1340.91
763.464	1330.67
763.648	1334.76
763.831	1312.24
764.015	1304.04
764.198	1388.01
764.381	1390.06
764.564	1365.48
764.748	1379.82
764.931	1289.71
765.114	1369.58
765.297	1351.15
765.481	1195.5
765.664	1312.24
765.847	1215.98
766.03	1209.84
766.213	1261.04
766.397	1246.7
766.58	1299.95
766.763	1275.37
766.946	1209.84
767.129	1172.97
767.312	1156.59
767.495	1265.13
767.678	1267.18
767.861	1121.77
768.044	1177.07
768.227	1228.27
768.41	1140.21
768.593	1258.99
768.776	1132.01
768.959	1226.22
769.142	1232.37
769.324	1179.12
769.507	1070.58
769.69	1213.93
769.873	1109.49
770.056	1175.02
770.239	1140.21
770.421	1215.98
770.604	1125.87
770.787	1068.53
770.97	1119.73
771.152	994.8
771.335	1119.73
771.518	1113.58
771.7	1134.06
771.883	1021.42
772.066	1082.86
772.248	1060.34
772.431	1068.53
772.613	1103.34
772.796	1041.9
772.978	1097.2
773.161	1039.86
773.343	1058.29
773.526	1043.95
773.708	871.92
773.891	945.65
774.073	888.31
774.256	968.18
774.438	1007.09
774.621	949.75
774.803	1089.01
774.985	951.79
775.168	972.27
775.35	1052.14
775.532	959.99
775.715	833.01
775.897	1023.47
776.079	867.83
776.261	873.97
776.444	890.35
776.626	882.16
776.808	925.17
776.99	833.01
777.173	855.54
777.355	818.68
777.537	912.88
777.719	964.08
777.901	863.73
778.083	857.59
778.265	841.2
778.447	916.98
778.629	779.76
778.811	816.63
778.993	718.33
779.175	847.35
779.357	841.2
779.539	744.95
779.721	814.58
779.903	828.92
780.085	677.37
780.267	722.42
780.449	886.26
780.631	765.43
780.812	759.28
780.994	730.61
781.176	804.34
781.358	753.14
781.54	781.81
781.721	769.52
781.903	757.24
782.085	753.14
782.267	708.09
782.448	683.51
782.63	703.99
782.812	654.84
782.993	726.52
783.175	728.56
783.357	740.85
783.538	685.56
783.72	632.31
783.901	681.46
784.083	640.5
784.264	595.45
784.446	607.73
784.627	654.84
784.809	534.01
784.99	669.17
785.172	632.31
785.353	663.03
785.535	673.27
785.716	589.3
785.897	523.77
786.079	525.82
786.26	583.16
786.441	595.45
786.623	536.06
786.804	566.78
786.985	472.57
787.167	587.26
787.348	587.26
787.529	536.06
787.71	443.9
787.891	566.78
788.073	517.62
788.254	460.28
788.435	525.82
788.616	507.38
788.797	548.34
788.978	486.9
789.159	491
789.34	472.57
789.522	538.1
789.703	523.77
789.884	577.02
790.065	529.91
790.246	570.87
790.427	466.42
790.607	431.61
790.788	513.53
790.969	468.47
791.15	478.71
791.331	499.19
791.512	454.14
791.693	409.08
791.874	474.62
792.054	466.42
792.235	472.57
792.416	390.65
792.597	456.19
792.778	484.86
792.958	488.95
793.139	429.56
793.32	452.09
793.5	384.51
793.681	497.14
793.862	450.04
794.042	382.46
794.223	374.27
794.404	421.37
794.584	417.27
794.765	388.6
794.945	480.76
795.126	497.14
795.306	464.38
795.487	361.98
795.667	376.31
795.848	382.46
796.028	364.03
796.209	339.45
796.389	327.16
796.57	339.45
796.75	349.69
796.93	402.94
797.111	407.03
797.291	314.88
797.471	378.36
797.652	413.18
797.832	396.79
798.012	429.56
798.192	394.75
798.373	325.12
798.553	296.44
798.733	306.68
798.913	435.71
799.093	359.93
799.274	382.46
799.454	398.84
799.634	329.21
799.814	271.87
799.994	290.3
800.174	329.21
800.354	284.16
800.534	329.21
800.714	351.74
800.894	333.31
801.074	273.92
801.254	392.7
801.434	343.55
801.614	304.64
801.794	325.12
801.974	742.9
802.154	312.83
802.334	327.16
802.514	280.06
802.693	269.82
802.873	232.96
803.053	333.31
803.233	288.25
803.413	245.24
803.592	249.34
803.772	267.77
803.952	237.05
804.131	267.77
804.311	321.02
804.491	296.44
804.67	263.68
804.85	241.15
805.03	288.25
805.209	288.25
805.389	259.58
805.568	290.3
805.748	239.1
805.928	275.96
806.107	247.29
806.287	255.48
806.466	259.58
806.646	251.39
806.825	157.18
807.004	177.66
807.184	290.3
807.363	239.1
807.543	267.77
807.722	278.01
807.901	335.35
808.081	239.1
808.26	269.82
808.439	204.28
808.619	243.2
808.798	243.2
808.977	185.85
809.156	169.47
809.336	157.18
809.515	245.24
809.694	202.24
809.873	194.05
810.052	196.09
810.231	310.78
810.411	187.9
810.59	222.72
810.769	163.33
810.948	185.85
811.127	151.04
811.306	194.05
811.485	206.33
811.664	239.1
811.843	241.15
812.022	241.15
812.201	251.39
812.38	235
812.559	198.14
812.737	247.29
812.916	212.48
813.095	198.14
813.274	189.95
813.453	202.24
813.632	132.61
813.811	212.48
813.989	179.71
814.168	245.24
814.347	140.8
814.526	198.14
814.704	148.99
814.883	288.25
815.062	202.24
815.24	249.34
815.419	83.45
815.598	224.76
815.776	208.38
815.955	194.05
816.133	187.9
816.312	200.19
816.49	206.33
816.669	169.47
816.847	185.85
817.026	192
817.204	206.33
817.383	132.61
817.561	202.24
817.74	192
817.918	232.96
818.097	230.91
818.275	171.52
818.453	204.28
818.632	165.37
818.81	167.42
818.988	159.23
819.167	155.13
819.345	235
819.523	153.09
819.701	165.37
819.879	91.65
820.058	175.61
820.236	228.86
820.414	153.09
820.592	128.51
820.77	177.66
820.948	204.28
821.127	69.12
821.305	179.71
821.483	181.76
821.661	196.09
821.839	161.28
822.017	151.04
822.195	95.74
822.373	144.89
822.551	144.89
822.729	204.28
822.907	214.52
823.085	103.93
823.262	126.46
823.44	79.36
823.618	132.61
823.796	151.04
823.974	132.61
824.152	148.99
824.329	110.08
824.507	189.95
824.685	116.22
824.863	116.22
825.04	62.98
825.218	159.23
825.396	175.61
825.574	130.56
825.751	112.13
825.929	108.03
826.107	116.22
826.284	173.57
826.462	216.57
826.639	105.98
826.817	83.45
826.994	124.41
827.172	101.89
827.349	112.13
827.527	118.27
827.704	159.23
827.882	101.89
828.059	130.56
828.237	148.99
828.414	112.13
828.591	75.26
828.769	142.85
828.946	69.12
829.124	112.13
829.301	171.52
829.478	79.36
829.655	75.26
829.833	118.27
830.01	134.65
830.187	126.46
830.364	118.27
830.542	216.57
830.719	89.6
830.896	171.52
831.073	110.08
831.25	132.61
831.427	112.13
831.604	128.51
831.782	134.65
831.959	112.13
832.136	175.61
832.313	157.18
832.49	91.65
832.667	101.89
832.844	87.55
833.021	175.61
833.198	157.18
833.374	179.71
833.551	69.12
833.728	148.99
833.905	28.16
834.082	73.21
834.259	87.55
834.436	75.26
834.612	122.37
834.789	124.41
834.966	118.27
835.143	120.32
835.319	105.98
835.496	146.94
835.673	75.26
835.85	105.98
836.026	108.03
836.203	134.65
836.38	50.69
836.556	54.78
836.733	73.21
836.909	97.79
837.086	42.5
837.262	54.78
837.439	116.22
837.616	146.94
837.792	75.26
837.968	97.79
838.145	71.17
838.321	56.83
838.498	122.37
838.674	52.74
838.851	62.98
839.027	124.41
839.203	108.03
839.38	77.31
839.556	85.5
839.732	99.84
839.909	52.74
840.085	79.36
840.261	65.02
840.437	97.79
840.614	22.02
840.79	97.79
840.966	140.8
841.142	13.82
841.318	75.26
841.494	58.88
841.671	67.07
841.847	56.83
842.023	75.26
842.199	122.37
842.375	40.45
842.551	148.99
842.727	44.54
842.903	87.55
843.079	24.06
843.255	79.36
843.431	132.61
843.607	73.21
843.783	58.88
843.959	85.5
844.134	67.07
844.31	112.13
844.486	85.5
844.662	50.69
844.838	56.83
845.013	103.93
845.189	130.56
845.365	-10.75
845.541	30.21
845.716	75.26
845.892	71.17
846.068	-0.51
846.244	93.69
846.419	83.45
846.595	-2.56
846.77	28.16
846.946	50.69
847.122	52.74
847.297	79.36
847.473	75.26
847.648	28.16
847.824	54.78
847.999	13.82
848.175	167.42
848.35	112.13
848.526	34.3
848.701	140.8
848.876	97.79
849.052	7.68
849.227	-27.14
849.403	44.54
849.578	101.89
849.753	15.87
849.929	52.74
850.104	40.45
850.279	114.17
850.454	62.98
850.63	62.98
850.805	67.07
850.98	15.87
851.155	36.35
851.33	19.97
851.505	-25.09
851.681	75.26
851.856	62.98
852.031	54.78
852.206	24.06
852.381	32.26
852.556	32.26
852.731	75.26
852.906	19.97
853.081	65.02
853.256	89.6
853.431	54.78
853.606	62.98
853.781	-6.66
853.956	-4.61
854.131	58.88
854.305	-4.61
854.48	69.12
854.655	101.89
854.83	34.3
855.005	69.12
855.18	67.07
855.354	13.82
855.529	48.64
855.704	26.11
855.879	44.54
856.053	67.07
856.228	40.45
856.403	50.69
856.577	42.5
856.752	1.54
856.926	19.97
857.101	5.63
857.276	-39.42
857.45	48.64
857.625	34.3
857.799	97.79
857.974	22.02
858.148	15.87
858.323	44.54
858.497	34.3
858.672	65.02
858.846	48.64
859.02	-4.61
859.195	71.17
859.369	56.83
859.543	126.46
859.718	-12.8
859.892	5.63
860.066	58.88
860.241	105.98
860.415	48.64
860.589	17.92
860.763	56.83
860.938	81.41
861.112	44.54
861.286	42.5
861.46	40.45
861.634	58.88
861.808	67.07
861.982	46.59
862.157	22.02
862.331	7.68
862.505	-4.61
862.679	-2.56
862.853	52.74
863.027	9.73
863.201	54.78
863.375	-2.56
863.549	36.35
863.722	48.64
863.896	46.59
864.07	7.68
864.244	30.21
864.418	65.02
864.592	-8.7
864.766	77.31
864.939	-14.85
865.113	9.73
865.287	71.17
865.461	50.69
865.634	-12.8
865.808	36.35
865.982	28.16
866.156	-41.47
866.329	17.92
866.503	-25.09
866.676	73.21
866.85	58.88
867.024	46.59
867.197	67.07
867.371	9.73
867.544	-25.09
867.718	-14.85
867.891	22.02
868.065	-20.99
868.238	58.88
868.412	48.64
868.585	-12.8
868.759	52.74
868.932	81.41
869.105	-27.14
869.279	56.83
869.452	-10.75
869.625	11.78
869.799	56.83
869.972	-20.99
870.145	67.07
870.319	7.68
870.492	50.69
870.665	3.58
870.838	28.16
871.011	48.64
871.185	38.4
871.358	1.54
871.531	73.21
871.704	17.92
871.877	-47.62
872.05	7.68
872.223	7.68
872.396	1.54
872.569	69.12
872.742	34.3
872.915	38.4
873.088	-12.8
873.261	36.35
873.434	62.98
873.607	-4.61
873.78	79.36
873.953	-16.9
874.126	26.11
874.299	-6.66
874.471	58.88
874.644	-14.85
874.817	24.06
874.99	116.22
875.163	15.87
875.335	26.11
875.508	28.16
875.681	101.89
875.853	28.16
876.026	-66.05
876.199	71.17
876.371	77.31
876.544	-0.51
876.717	62.98
876.889	-16.9
877.062	54.78
877.234	-31.23
877.407	44.54
877.579	24.06
877.752	65.02
877.924	46.59
878.097	24.06
878.269	-8.7
878.442	38.4
878.614	24.06
878.786	62.98
878.959	71.17
879.131	-23.04
879.303	-27.14
879.476	22.02
879.648	38.4
879.82	1.54
879.993	108.03
880.165	42.5
880.337	48.64
880.509	46.59
880.681	-2.56
880.854	26.11
881.026	9.73
881.198	-23.04
881.37	83.45
881.542	71.17
881.714	83.45
881.886	38.4
882.058	3.58
882.23	5.63
882.402	-35.33
882.574	-23.04
882.746	19.97
882.918	19.97
883.09	62.98
883.262	24.06
883.434	60.93
883.606	-45.57
883.778	30.21
883.95	17.92
884.122	-31.23
884.293	54.78
884.465	19.97
884.637	13.82
884.809	3.58
884.98	52.74
885.152	22.02
885.324	36.35
885.496	1.54
885.667	9.73
885.839	-23.04
886.011	116.22
886.182	52.74
886.354	11.78
886.525	-6.66
886.697	36.35
886.869	-10.75
887.04	-4.61
887.212	-33.28
887.383	50.69
887.555	40.45
887.726	38.4
887.897	36.35
888.069	56.83
888.24	36.35
888.412	87.55
888.583	99.84
888.754	58.88
888.926	11.78
889.097	44.54
889.268	-12.8
889.44	28.16
889.611	-14.85
889.782	-27.14
889.953	28.16
890.125	9.73
890.296	52.74
890.467	30.21
890.638	19.97
890.809	28.16
890.98	-0.51
891.151	13.82
891.323	42.5
891.494	44.54
891.665	11.78
891.836	67.07
892.007	-16.9
892.178	48.64
892.349	17.92
892.52	13.82
892.691	38.4
892.862	44.54
893.032	-80.38
893.203	46.59
893.374	26.11
893.545	-4.61
893.716	11.78
893.887	13.82
894.057	-18.94
894.228	38.4
894.399	-51.71
894.57	5.63
894.74	26.11
894.911	120.32
895.082	-14.85
895.253	-31.23
895.423	26.11
895.594	71.17
895.764	-12.8
895.935	-43.52
896.106	-4.61
896.276	95.74
896.447	-10.75
896.617	-10.75
896.788	7.68
896.958	-55.81
897.129	-8.7
897.299	5.63
897.47	34.3
897.64	93.69
897.81	11.78
897.981	-25.09
898.151	-23.04
898.322	36.35
898.492	34.3
898.662	-59.9
898.832	-0.51
899.003	83.45
899.173	-23.04
899.343	5.63
899.513	-20.99
