Data from USB4F104151__43__11-45-04-710.txt Node

Date: Fri Mar 14 11:45:04 EDT 2025
User: louis
Spectrometer: USB4F10415
Trigger mode: 4
Integration Time (sec): 2.000000E-2
Scans to average: 1
Electric dark correction enabled: true
Nonlinearity correction enabled: false
Boxcar width: 0
XAxis mode: Wavelengths
Number of Pixels in Spectrum: 3648
>>>>>Begin Spectral Data<<<<<
178.204	-76.8
178.424	-76.8
178.644	-76.8
178.864	-70.65
179.084	-68.61
179.304	-46.08
179.524	-15.36
179.744	41.98
179.964	54.27
180.184	-25.6
180.404	-76.8
180.624	-17.41
180.844	39.94
181.064	41.98
181.283	5.12
181.503	3.07
181.723	-5.12
181.943	-66.56
182.163	44.03
182.383	3.07
182.602	33.79
182.822	-9.22
183.042	33.79
183.262	60.42
183.482	-1.02
183.701	23.55
183.921	13.31
184.141	-15.36
184.361	56.32
184.58	7.17
184.8	-21.5
185.02	-17.41
185.239	23.55
185.459	-19.46
185.679	1.02
185.898	-35.84
186.118	15.36
186.338	-3.07
186.557	-13.31
186.777	-9.22
186.997	-27.65
187.216	-13.31
187.436	-35.84
187.655	27.65
187.875	29.7
188.095	-31.74
188.314	52.22
188.534	-1.02
188.753	68.61
188.973	-37.89
189.192	50.18
189.412	-29.7
189.631	27.65
189.851	60.42
190.07	52.22
190.29	-5.12
190.509	-60.42
190.729	5.12
190.948	56.32
191.168	111.61
191.387	15.36
191.607	-25.6
191.826	-66.56
192.045	23.55
192.265	-54.27
192.484	-1.02
192.704	44.03
192.923	-39.94
193.142	58.37
193.362	35.84
193.581	56.32
193.8	7.17
194.02	101.37
194.239	-11.26
194.458	-23.55
194.678	29.7
194.897	15.36
195.116	41.98
195.335	27.65
195.555	-48.13
195.774	31.74
195.993	-23.55
196.212	-17.41
196.432	60.42
196.651	37.89
196.87	-105.47
197.089	95.23
197.308	-39.94
197.528	-23.55
197.747	91.13
197.966	-19.46
198.185	44.03
198.404	21.5
198.623	80.89
198.842	-29.7
199.062	25.6
199.281	-25.6
199.5	29.7
199.719	11.26
199.938	5.12
200.157	58.37
200.376	-15.36
200.595	66.56
200.814	-7.17
201.033	-27.65
201.252	33.79
201.471	21.5
201.69	31.74
201.909	-58.37
202.128	52.22
202.347	11.26
202.566	-5.12
202.785	-11.26
203.004	19.46
203.223	-1.02
203.442	-35.84
203.661	-21.5
203.879	17.41
204.098	91.13
204.317	44.03
204.536	-11.26
204.755	58.37
204.974	-5.12
205.193	19.46
205.411	19.46
205.63	7.17
205.849	11.26
206.068	5.12
206.287	-5.12
206.505	-15.36
206.724	-68.61
206.943	27.65
207.162	29.7
207.381	37.89
207.599	82.94
207.818	-5.12
208.037	3.07
208.255	64.51
208.474	39.94
208.693	29.7
208.911	17.41
209.13	-58.37
209.349	13.31
209.567	-44.03
209.786	50.18
210.005	84.99
210.223	7.17
210.442	-21.5
210.661	39.94
210.879	52.22
211.098	9.22
211.316	-39.94
211.535	58.37
211.753	-54.27
211.972	3.07
212.191	-25.6
212.409	3.07
212.628	5.12
212.846	37.89
213.065	-17.41
213.283	50.18
213.502	-9.22
213.72	41.98
213.938	9.22
214.157	-35.84
214.375	35.84
214.594	101.37
214.812	56.32
215.031	-1.02
215.249	23.55
215.467	35.84
215.686	11.26
215.904	29.7
216.122	-13.31
216.341	-3.07
216.559	64.51
216.778	72.7
216.996	27.65
217.214	-7.17
217.432	-41.98
217.651	76.8
217.869	-31.74
218.087	31.74
218.306	-13.31
218.524	29.7
218.742	19.46
218.96	11.26
219.179	44.03
219.397	37.89
219.615	54.27
219.833	23.55
220.051	54.27
220.27	48.13
220.488	68.61
220.706	58.37
220.924	-5.12
221.142	27.65
221.36	56.32
221.578	70.65
221.796	46.08
222.015	-25.6
222.233	142.33
222.451	1.02
222.669	-41.98
222.887	58.37
223.105	7.17
223.323	3.07
223.541	-68.61
223.759	70.65
223.977	9.22
224.195	48.13
224.413	-1.02
224.631	27.65
224.849	3.07
225.067	13.31
225.285	-46.08
225.503	15.36
225.721	-27.65
225.939	48.13
226.157	19.46
226.375	119.81
226.592	-9.22
226.81	-5.12
227.028	-9.22
227.246	56.32
227.464	-29.7
227.682	60.42
227.9	-11.26
228.117	60.42
228.335	-21.5
228.553	33.79
228.771	27.65
228.989	27.65
229.206	103.42
229.424	11.26
229.642	7.17
229.86	27.65
230.077	-21.5
230.295	-35.84
230.513	37.89
230.731	48.13
230.948	25.6
231.166	41.98
231.384	27.65
231.601	-31.74
231.819	13.31
232.037	-17.41
232.254	-95.23
232.472	130.05
232.689	74.75
232.907	52.22
233.125	62.46
233.342	-23.55
233.56	-21.5
233.777	-29.7
233.995	99.33
234.213	41.98
234.43	52.22
234.648	46.08
234.865	19.46
235.083	23.55
235.3	48.13
235.518	-21.5
235.735	23.55
235.953	101.37
236.17	-15.36
236.388	35.84
236.605	-5.12
236.822	48.13
237.04	33.79
237.257	64.51
237.475	-29.7
237.692	23.55
237.909	66.56
238.127	-19.46
238.344	-46.08
238.562	93.18
238.779	58.37
238.996	3.07
239.214	113.66
239.431	-15.36
239.648	-15.36
239.865	56.32
240.083	21.5
240.3	-7.17
240.517	52.22
240.735	80.89
240.952	58.37
241.169	29.7
241.386	-15.36
241.603	37.89
241.821	17.41
242.038	23.55
242.255	50.18
242.472	60.42
242.689	-7.17
242.907	-3.07
243.124	-21.5
243.341	111.61
243.558	39.94
243.775	-1.02
243.992	-7.17
244.209	-37.89
244.426	93.18
244.643	74.75
244.86	89.09
245.078	37.89
245.295	46.08
245.512	29.7
245.729	-39.94
245.946	-3.07
246.163	46.08
246.38	60.42
246.597	-31.74
246.814	109.57
247.031	-13.31
247.248	-41.98
247.464	39.94
247.681	62.46
247.898	-27.65
248.115	29.7
248.332	-1.02
248.549	15.36
248.766	35.84
248.983	46.08
249.2	17.41
249.417	56.32
249.633	-1.02
249.85	15.36
250.067	50.18
250.284	50.18
250.501	35.84
250.717	39.94
250.934	-3.07
251.151	-31.74
251.368	7.17
251.585	80.89
251.801	13.31
252.018	31.74
252.235	-56.32
252.451	31.74
252.668	29.7
252.885	33.79
253.102	27.65
253.318	76.8
253.535	44.03
253.752	11.26
253.968	-41.98
254.185	52.22
254.401	-11.26
254.618	-25.6
254.835	9.22
255.051	17.41
255.268	11.26
255.484	19.46
255.701	23.55
255.917	39.94
256.134	-1.02
256.351	15.36
256.567	-39.94
256.784	-5.12
257	-5.12
257.217	-39.94
257.433	-7.17
257.65	76.8
257.866	-25.6
258.082	58.37
258.299	-76.8
258.515	48.13
258.732	-33.79
258.948	27.65
259.165	-15.36
259.381	-11.26
259.597	64.51
259.814	-37.89
260.03	37.89
260.246	15.36
260.463	50.18
260.679	41.98
260.895	64.51
261.112	107.52
261.328	31.74
261.544	35.84
261.761	-27.65
261.977	66.56
262.193	-9.22
262.409	60.42
262.626	5.12
262.842	-82.94
263.058	-7.17
263.274	87.04
263.49	11.26
263.707	76.8
263.923	-25.6
264.139	-46.08
264.355	27.65
264.571	82.94
264.787	48.13
265.004	11.26
265.22	-23.55
265.436	-15.36
265.652	5.12
265.868	-37.89
266.084	-1.02
266.3	48.13
266.516	11.26
266.732	35.84
266.948	-11.26
267.164	31.74
267.38	-70.65
267.596	74.75
267.812	62.46
268.028	17.41
268.244	-11.26
268.46	39.94
268.676	39.94
268.892	25.6
269.108	3.07
269.324	-54.27
269.54	7.17
269.756	72.7
269.972	54.27
270.188	87.04
270.403	-27.65
270.619	80.89
270.835	33.79
271.051	-3.07
271.267	17.41
271.483	-9.22
271.698	72.7
271.914	76.8
272.13	27.65
272.346	-1.02
272.562	-1.02
272.777	5.12
272.993	-39.94
273.209	66.56
273.425	-11.26
273.64	-7.17
273.856	44.03
274.072	-13.31
274.287	39.94
274.503	50.18
274.719	-21.5
274.934	29.7
275.15	-64.51
275.366	31.74
275.581	-5.12
275.797	31.74
276.012	35.84
276.228	3.07
276.444	64.51
276.659	35.84
276.875	-7.17
277.09	-19.46
277.306	-1.02
277.521	39.94
277.737	3.07
277.952	82.94
278.168	-9.22
278.383	48.13
278.599	58.37
278.814	-23.55
279.03	62.46
279.245	41.98
279.461	-41.98
279.676	44.03
279.892	-13.31
280.107	68.61
280.322	-41.98
280.538	13.31
280.753	1.02
280.969	-37.89
281.184	-3.07
281.399	52.22
281.615	23.55
281.83	21.5
282.045	-3.07
282.26	-1.02
282.476	3.07
282.691	52.22
282.906	-44.03
283.122	46.08
283.337	27.65
283.552	3.07
283.767	-3.07
283.983	33.79
284.198	72.7
284.413	9.22
284.628	21.5
284.843	60.42
285.058	41.98
285.274	11.26
285.489	41.98
285.704	44.03
285.919	-113.66
286.134	52.22
286.349	25.6
286.564	58.37
286.779	44.03
286.995	62.46
287.21	5.12
287.425	62.46
287.64	58.37
287.855	48.13
288.07	-84.99
288.285	23.55
288.5	3.07
288.715	46.08
288.93	7.17
289.145	-31.74
289.36	37.89
289.575	41.98
289.79	41.98
290.004	27.65
290.219	74.75
290.434	113.66
290.649	21.5
290.864	54.27
291.079	41.98
291.294	56.32
291.509	9.22
291.724	-15.36
291.938	-58.37
292.153	-1.02
292.368	35.84
292.583	50.18
292.798	50.18
293.012	62.46
293.227	25.6
293.442	35.84
293.657	54.27
293.871	35.84
294.086	27.65
294.301	-44.03
294.516	11.26
294.73	29.7
294.945	7.17
295.16	44.03
295.374	89.09
295.589	-39.94
295.804	52.22
296.018	56.32
296.233	5.12
296.447	5.12
296.662	52.22
296.877	11.26
297.091	27.65
297.306	37.89
297.52	-5.12
297.735	-9.22
297.949	119.81
298.164	33.79
298.378	25.6
298.593	93.18
298.807	52.22
299.022	33.79
299.236	23.55
299.451	27.65
299.665	-31.74
299.88	74.75
300.094	-7.17
300.309	5.12
300.523	41.98
300.737	29.7
300.952	31.74
301.166	13.31
301.381	19.46
301.595	19.46
301.809	-27.65
302.024	5.12
302.238	17.41
302.452	-5.12
302.667	11.26
302.881	21.5
303.095	29.7
303.309	76.8
303.524	-5.12
303.738	60.42
303.952	27.65
304.166	7.17
304.381	-23.55
304.595	33.79
304.809	11.26
305.023	-7.17
305.237	-3.07
305.452	-13.31
305.666	44.03
305.88	-15.36
306.094	56.32
306.308	31.74
306.522	64.51
306.736	91.13
306.95	-1.02
307.164	-3.07
307.379	17.41
307.593	152.57
307.807	62.46
308.021	23.55
308.235	-1.02
308.449	-29.7
308.663	13.31
308.877	50.18
309.091	5.12
309.305	87.04
309.519	-7.17
309.733	72.7
309.947	-60.42
310.161	31.74
310.374	35.84
310.588	-5.12
310.802	44.03
311.016	19.46
311.23	74.75
311.444	35.84
311.658	72.7
311.872	56.32
312.085	1.02
312.299	-37.89
312.513	9.22
312.727	48.13
312.941	68.61
313.154	35.84
313.368	-15.36
313.582	72.7
313.796	-17.41
314.009	-25.6
314.223	87.04
314.437	39.94
314.651	-5.12
314.864	21.5
315.078	64.51
315.292	-27.65
315.505	-44.03
315.719	46.08
315.933	44.03
316.146	33.79
316.36	-17.41
316.573	27.65
316.787	11.26
317.001	58.37
317.214	25.6
317.428	68.61
317.641	5.12
317.855	-37.89
318.068	-17.41
318.282	3.07
318.495	109.57
318.709	56.32
318.922	-82.94
319.136	48.13
319.349	48.13
319.563	56.32
319.776	58.37
319.99	23.55
320.203	-29.7
320.417	80.89
320.63	52.22
320.843	-13.31
321.057	-23.55
321.27	-64.51
321.483	7.17
321.697	-19.46
321.91	44.03
322.124	68.61
322.337	19.46
322.55	9.22
322.763	17.41
322.977	56.32
323.19	21.5
323.403	11.26
323.617	68.61
323.83	46.08
324.043	-5.12
324.256	132.09
324.469	19.46
324.683	37.89
324.896	64.51
325.109	37.89
325.322	-35.84
325.535	-3.07
325.748	58.37
325.962	29.7
326.175	29.7
326.388	37.89
326.601	50.18
326.814	27.65
327.027	97.28
327.24	84.99
327.453	41.98
327.666	-21.5
327.879	-7.17
328.092	-5.12
328.305	64.51
328.518	76.8
328.731	11.26
328.944	-13.31
329.157	7.17
329.37	19.46
329.583	115.71
329.796	123.9
330.009	68.61
330.222	9.22
330.435	29.7
330.648	54.27
330.861	25.6
331.073	35.84
331.286	52.22
331.499	17.41
331.712	3.07
331.925	1.02
332.138	-25.6
332.35	48.13
332.563	41.98
332.776	15.36
332.989	44.03
333.202	46.08
333.414	68.61
333.627	74.75
333.84	-33.79
334.053	52.22
334.265	-15.36
334.478	111.61
334.691	-5.12
334.903	82.94
335.116	-15.36
335.329	19.46
335.541	-11.26
335.754	119.81
335.966	62.46
336.179	-3.07
336.392	62.46
336.604	-39.94
336.817	60.42
337.029	93.18
337.242	72.7
337.454	62.46
337.667	19.46
337.88	50.18
338.092	-29.7
338.305	-15.36
338.517	5.12
338.729	-29.7
338.942	50.18
339.154	50.18
339.367	48.13
339.579	29.7
339.792	66.56
340.004	109.57
340.217	-3.07
340.429	-13.31
340.641	13.31
340.854	50.18
341.066	48.13
341.278	33.79
341.491	99.33
341.703	54.27
341.915	64.51
342.128	58.37
342.34	50.18
342.552	13.31
342.764	27.65
342.977	27.65
343.189	9.22
343.401	33.79
343.613	31.74
343.826	54.27
344.038	-41.98
344.25	9.22
344.462	5.12
344.674	87.04
344.886	78.85
345.099	-29.7
345.311	25.6
345.523	60.42
345.735	-76.8
345.947	84.99
346.159	7.17
346.371	41.98
346.583	89.09
346.795	48.13
347.007	19.46
347.219	-3.07
347.431	78.85
347.643	48.13
347.855	13.31
348.067	7.17
348.279	-70.65
348.491	5.12
348.703	111.61
348.915	52.22
349.127	29.7
349.339	-1.02
349.551	50.18
349.763	-3.07
349.975	93.18
350.187	70.65
350.399	113.66
350.61	48.13
350.822	60.42
351.034	31.74
351.246	89.09
351.458	19.46
351.669	35.84
351.881	76.8
352.093	58.37
352.305	11.26
352.517	48.13
352.728	44.03
352.94	-19.46
353.152	44.03
353.363	54.27
353.575	11.26
353.787	107.52
353.999	64.51
354.21	105.47
354.422	31.74
354.633	80.89
354.845	91.13
355.057	19.46
355.268	138.24
355.48	-13.31
355.692	54.27
355.903	48.13
356.115	74.75
356.326	3.07
356.538	27.65
356.749	78.85
356.961	103.42
357.172	-21.5
357.384	21.5
357.595	62.46
357.807	39.94
358.018	-39.94
358.23	-13.31
358.441	11.26
358.653	56.32
358.864	66.56
359.075	33.79
359.287	68.61
359.498	15.36
359.709	56.32
359.921	33.79
360.132	66.56
360.344	140.29
360.555	17.41
360.766	56.32
360.977	58.37
361.189	33.79
361.4	-31.74
361.611	46.08
361.823	70.65
362.034	84.99
362.245	-87.04
362.456	44.03
362.667	64.51
362.879	-21.5
363.09	66.56
363.301	-3.07
363.512	-17.41
363.723	87.04
363.935	-11.26
364.146	39.94
364.357	-25.6
364.568	-5.12
364.779	-33.79
364.99	74.75
365.201	-13.31
365.412	58.37
365.623	48.13
365.834	68.61
366.045	13.31
366.256	52.22
366.467	60.42
366.678	64.51
366.889	31.74
367.1	39.94
367.311	25.6
367.522	64.51
367.733	99.33
367.944	35.84
368.155	3.07
368.366	33.79
368.577	82.94
368.788	66.56
368.999	-21.5
369.209	1.02
369.42	99.33
369.631	93.18
369.842	31.74
370.053	3.07
370.264	52.22
370.474	13.31
370.685	37.89
370.896	99.33
371.107	-5.12
371.317	13.31
371.528	89.09
371.739	44.03
371.95	70.65
372.16	52.22
372.371	39.94
372.582	1.02
372.792	111.61
373.003	78.85
373.214	76.8
373.424	19.46
373.635	56.32
373.846	60.42
374.056	-3.07
374.267	64.51
374.477	52.22
374.688	19.46
374.898	58.37
375.109	44.03
375.319	-5.12
375.53	-7.17
375.74	50.18
375.951	60.42
376.161	91.13
376.372	54.27
376.582	-62.46
376.793	111.61
377.003	74.75
377.214	-21.5
377.424	-33.79
377.635	68.61
377.845	78.85
378.055	25.6
378.266	74.75
378.476	93.18
378.686	105.47
378.897	52.22
379.107	50.18
379.317	37.89
379.528	46.08
379.738	70.65
379.948	-3.07
380.158	48.13
380.369	11.26
380.579	62.46
380.789	25.6
380.999	89.09
381.21	87.04
381.42	33.79
381.63	74.75
381.84	54.27
382.05	19.46
382.261	13.31
382.471	66.56
382.681	-11.26
382.891	23.55
383.101	54.27
383.311	1.02
383.521	23.55
383.731	44.03
383.941	66.56
384.151	13.31
384.361	56.32
384.571	17.41
384.781	74.75
384.991	93.18
385.201	68.61
385.411	13.31
385.621	3.07
385.831	111.61
386.041	-1.02
386.251	62.46
386.461	19.46
386.671	-13.31
386.881	107.52
387.091	89.09
387.301	-27.65
387.511	35.84
387.72	97.28
387.93	84.99
388.14	35.84
388.35	44.03
388.56	13.31
388.769	62.46
388.979	95.23
389.189	72.7
389.399	17.41
389.609	17.41
389.818	27.65
390.028	68.61
390.238	39.94
390.447	78.85
390.657	74.75
390.867	37.89
391.076	-1.02
391.286	70.65
391.496	64.51
391.705	97.28
391.915	31.74
392.125	60.42
392.334	41.98
392.544	82.94
392.753	27.65
392.963	7.17
393.172	101.37
393.382	13.31
393.591	144.38
393.801	54.27
394.01	76.8
394.22	74.75
394.429	64.51
394.639	35.84
394.848	-9.22
395.058	35.84
395.267	50.18
395.477	76.8
395.686	68.61
395.895	93.18
396.105	76.8
396.314	52.22
396.524	66.56
396.733	66.56
396.942	125.95
397.152	130.05
397.361	101.37
397.57	64.51
397.78	111.61
397.989	121.85
398.198	136.19
398.407	76.8
398.617	74.75
398.826	103.42
399.035	144.38
399.244	105.47
399.453	121.85
399.663	66.56
399.872	160.77
400.081	103.42
400.29	103.42
400.499	103.42
400.708	164.86
400.917	60.42
401.127	101.37
401.336	134.14
401.545	166.91
401.754	148.48
401.963	99.33
402.172	101.37
402.381	130.05
402.59	68.61
402.799	103.42
403.008	121.85
403.217	37.89
403.426	109.57
403.635	134.14
403.844	105.47
404.053	78.85
404.262	128
404.471	207.87
404.68	134.14
404.888	160.77
405.097	128
405.306	62.46
405.515	152.57
405.724	171.01
405.933	101.37
406.142	130.05
406.35	132.09
406.559	228.35
406.768	185.34
406.977	168.96
407.185	224.25
407.394	236.54
407.603	228.35
407.812	257.02
408.02	267.26
408.229	265.21
408.438	257.02
408.646	218.11
408.855	302.08
409.064	326.65
409.272	310.27
409.481	281.6
409.69	265.21
409.898	300.03
410.107	322.56
410.315	338.94
410.524	357.37
410.733	324.6
410.941	326.65
411.15	371.71
411.358	304.12
411.567	414.71
411.775	443.39
411.984	373.75
412.192	513.02
412.401	418.81
412.609	623.61
412.818	494.58
413.026	535.54
413.234	699.38
413.443	490.49
413.651	613.37
413.86	607.22
414.068	631.8
414.276	707.57
414.485	693.24
414.693	723.96
414.901	697.33
415.11	730.1
415.318	840.69
415.526	818.16
415.734	846.84
415.943	795.64
416.151	875.51
416.359	881.65
416.567	975.86
416.776	1027.06
416.984	1108.98
417.192	1059.82
417.4	1098.74
417.608	1072.11
417.817	1149.93
418.025	1207.28
418.233	1215.47
418.441	1295.34
418.649	1283.05
418.857	1397.74
419.065	1340.4
419.273	1407.98
419.481	1459.18
419.689	1514.47
419.897	1696.74
420.105	1567.72
420.313	1616.87
420.521	1842.15
420.729	1731.56
420.937	1956.83
421.145	2046.94
421.353	2016.23
421.561	2116.58
421.769	2200.54
421.977	2235.36
422.185	2132.96
422.393	2251.74
422.601	2483.16
422.809	2483.16
423.017	2530.27
423.224	2530.27
423.432	2683.86
423.64	2696.15
423.848	2948.05
424.056	2866.13
424.263	3044.31
424.471	3195.86
424.679	3345.36
424.887	3455.95
425.094	3486.67
425.302	3544.01
425.51	3513.29
425.718	3746.76
425.925	3781.57
426.133	3865.54
426.341	4051.91
426.548	4225.98
426.756	4422.59
426.964	4369.34
427.171	4637.63
427.379	4670.39
427.586	4850.61
427.794	5094.32
428.001	5172.15
428.209	5387.18
428.417	5252.02
428.624	5677.99
428.832	5637.03
429.039	5721
429.247	5729.19
429.454	6194.08
429.662	6474.65
429.869	6298.53
430.076	6654.87
430.284	6321.06
430.491	6757.27
430.699	7121.81
430.906	6978.45
431.114	7433.1
431.321	7435.15
431.528	7603.08
431.736	8149.89
431.943	8616.83
432.15	8287.11
432.358	8397.7
432.565	8989.56
432.772	8856.44
432.979	9257.84
433.187	9403.25
433.394	9493.36
433.601	10222.44
433.808	10142.57
434.016	9925.48
434.223	10201.96
434.43	11180.89
434.637	11039.58
434.844	11410.26
435.052	11750.22
435.259	11895.63
435.466	11871.05
435.673	11662.16
435.88	12487.49
436.087	13235
436.294	13148.98
436.501	12884.8
436.708	13175.61
436.915	13454.13
437.122	13982.51
437.329	14246.69
437.537	14775.07
437.743	14672.67
437.95	14811.93
438.157	15639.31
438.364	16003.85
438.571	15858.45
438.778	16096.01
438.985	17527.54
439.192	16892.67
439.399	17304.31
439.606	17132.28
439.813	17961.71
440.02	19088.09
440.227	18670.31
440.433	18707.17
440.64	19389.14
440.847	18760.42
441.054	19557.08
441.261	20787.91
441.467	20316.87
441.674	20927.17
441.881	21947.06
442.088	21689.01
442.294	21414.59
442.501	22135.47
442.708	22401.71
442.914	23554.71
443.121	24122
443.328	23921.3
443.534	25707.13
443.741	24824.45
443.948	24371.85
444.154	26083.95
444.361	25805.43
444.568	26038.9
444.774	26174.06
444.981	26600.04
445.187	27155.04
445.394	27986.52
445.6	28078.68
445.807	30646.83
446.013	29395.52
446.22	29930.04
446.426	31117.86
446.633	31904.28
446.839	32584.21
447.046	31275.55
447.252	33051.14
447.459	32670.22
447.665	32438.8
447.871	34017.78
448.078	35459.55
448.284	33954.3
448.491	34738.67
448.697	36669.9
448.903	36811.21
449.11	36907.47
449.316	36534.74
449.522	36989.39
449.728	37935.55
449.935	38728.11
450.141	38126.01
450.347	38941.1
450.553	37603.78
450.76	38390.2
450.966	39600.55
451.172	39199.15
451.378	40249.75
451.584	39158.19
451.791	40141.21
451.997	40153.5
452.203	40591.76
452.409	40825.23
452.615	40763.79
452.821	39461.29
453.027	39072.17
453.233	40909.2
453.44	39203.24
453.646	39676.32
453.852	40014.24
454.058	40665.49
454.264	39113.13
454.47	40448.41
454.676	39080.36
454.882	40489.37
455.088	36979.15
455.294	37509.57
455.5	38076.86
455.705	38525.36
455.911	37054.92
456.117	35981.79
456.323	35713.5
456.529	33964.54
456.735	35377.64
456.941	34449.91
457.147	33954.3
457.352	32913.93
457.558	32811.53
457.764	32782.86
457.97	31906.33
458.176	31189.54
458.381	31265.31
458.587	29450.81
458.793	29745.72
458.999	28324.43
459.204	29993.53
459.41	29463.1
459.616	27255.39
459.821	27875.93
460.027	27370.08
460.233	26856.04
460.438	25422.46
460.644	25809.53
460.85	24547.98
461.055	24081.04
461.261	24343.18
461.466	22506.15
461.672	21613.24
461.878	23370.4
462.083	21758.64
462.289	21600.95
462.494	21134.01
462.7	20464.33
462.905	19307.23
463.111	20576.97
463.316	20167.37
463.522	19716.82
463.727	19827.41
463.932	19960.53
464.138	19870.42
464.343	20036.3
464.549	18909.92
464.754	19774.16
464.959	19536.6
465.165	19815.12
465.37	18531.05
465.575	18461.41
465.781	18807.52
465.986	19043.04
466.191	18459.37
466.397	18021.1
466.602	17232.63
466.807	17857.26
467.012	17761.01
467.218	17625.84
467.423	17480.44
467.628	17574.64
467.833	18277.1
468.038	17674.99
468.244	17031.93
468.449	17806.06
468.654	17183.48
468.859	17027.84
469.064	17214.2
469.269	16403.21
469.474	16384.77
469.679	16796.42
469.885	16372.49
470.09	16388.87
470.295	16716.54
470.5	16100.11
470.705	16169.74
470.91	15534.87
471.115	15721.23
471.32	15987.47
471.525	15766.29
471.73	15407.89
471.935	15387.41
472.139	14895.9
472.344	14979.87
472.549	15022.87
472.754	14600.99
472.959	14400.29
473.164	14074.67
473.369	13888.3
473.574	14551.84
473.778	14285.61
473.983	14129.96
474.188	14097.19
474.393	13456.18
474.598	13552.43
474.802	13237.05
475.007	13437.75
475.212	13273.91
475.417	12766.01
475.621	12852.03
475.826	12954.43
476.031	12571.46
476.235	12364.61
476.44	12432.19
476.645	12149.57
476.849	12424
477.054	12180.29
477.259	12092.23
477.463	12043.08
477.668	11541.33
477.872	11807.56
478.077	11635.53
478.282	11379.54
478.486	11496.27
478.691	11326.29
478.895	11137.88
479.1	11135.83
479.304	10996.57
479.509	10851.16
479.713	10953.56
479.918	10652.51
480.122	10546.02
480.326	10724.19
480.531	10605.41
480.735	10552.16
480.94	10308.45
481.144	10759
481.348	10435.42
481.553	10496.86
481.757	10470.24
481.961	10599.26
482.166	10355.55
482.37	10642.27
482.574	10343.27
482.778	10398.56
482.983	10394.47
483.187	10341.22
483.391	10462.05
483.595	10292.07
483.8	9978.73
484.004	10296.16
484.208	10605.41
484.412	10189.67
484.616	10320.74
484.821	10140.52
485.025	10138.47
485.229	10371.94
485.433	10105.7
485.637	10189.67
485.841	10163.04
486.045	10212.2
486.249	10263.4
486.453	10283.88
486.657	10285.92
486.861	10283.88
487.065	9905
487.269	10330.98
487.473	10060.65
487.677	10206.05
487.881	10201.96
488.085	10277.73
488.289	10392.42
488.493	10154.85
488.697	10414.95
488.901	10253.16
489.105	10298.21
489.309	10249.06
489.512	10400.61
489.716	10097.51
489.92	10294.11
490.124	10214.24
490.328	10527.58
490.531	10234.72
490.735	10386.27
490.939	10527.58
491.143	10402.66
491.346	10486.62
491.55	10720.09
491.754	10578.78
491.958	10531.68
492.161	10668.89
492.365	10855.26
492.569	10830.68
492.772	10681.18
492.976	10916.7
493.18	10865.5
493.383	10881.88
493.587	11146.07
493.79	11164.5
493.994	11096.92
494.197	11352.91
494.401	11383.63
494.605	11416.4
494.808	11397.97
495.012	11498.32
495.215	11723.6
495.419	11866.95
495.622	11703.12
495.825	12053.32
496.029	11856.72
496.232	12254.02
496.436	12022.6
496.639	12403.52
496.843	12317.51
497.046	12510.02
497.249	12524.35
497.453	12727.1
497.656	12903.23
497.859	12804.92
498.063	13003.58
498.266	13241.14
498.469	13013.82
498.673	13486.9
498.876	13681.46
499.079	13527.86
499.282	13497.14
499.485	13921.07
499.689	13986.6
499.892	14224.17
500.095	14129.96
500.298	14523.17
500.501	14115.62
500.705	14895.9
500.908	14916.38
501.111	14891.8
501.314	15457.04
501.517	15481.62
501.72	15827.73
501.923	15508.24
502.126	16192.26
502.329	16118.54
502.532	16122.63
502.735	16309
502.938	16583.43
503.141	16816.9
503.344	17208.06
503.547	17136.38
503.75	17259.26
503.953	17476.34
504.156	17392.37
504.359	17924.85
504.562	18119.4
504.765	18457.32
504.968	18479.85
505.17	18668.26
505.373	18641.64
505.576	19184.35
505.779	19374.81
505.982	19561.17
506.185	19911.38
506.387	19542.74
506.59	19819.22
506.793	20224.72
506.996	20269.77
507.198	20949.7
507.401	20556.49
507.604	20806.34
507.807	21123.77
508.009	21334.71
508.212	21453.5
508.415	21633.72
508.617	22110.89
508.82	22194.86
509.022	22315.69
509.225	22848.16
509.428	22907.55
509.63	22938.27
509.833	23157.41
510.035	23642.78
510.238	23599.77
510.44	23888.53
510.643	24271.5
510.845	24271.5
511.048	23888.53
511.25	24535.69
511.453	24914.56
511.655	25463.42
511.858	25311.87
512.06	25496.19
512.262	25961.08
512.465	25832.05
512.667	25977.46
512.87	26434.16
513.072	26571.37
513.274	27112.03
513.477	27402.85
513.679	27468.38
513.881	27886.17
514.084	27986.52
514.286	28033.62
514.488	28097.11
514.69	29178.43
514.893	28605
515.095	28893.77
515.297	29399.62
515.499	29579.84
515.701	29901.37
515.904	30149.17
516.106	30601.77
516.308	30603.82
516.51	30925.35
516.712	30964.26
516.914	31435.3
517.116	31912.47
517.318	32045.59
517.52	32191
517.722	32080.41
517.925	32764.43
518.127	32674.32
518.329	33395.2
518.531	33038.86
518.733	33690.11
518.935	34257.4
519.136	34169.33
519.338	34537.97
519.54	34730.48
519.742	35158.5
519.944	35205.61
520.146	35885.53
520.348	35828.19
520.55	35764.7
520.752	36262.36
520.954	36948.43
521.155	36438.48
521.357	37020.11
521.559	37259.72
521.761	37642.69
521.963	37712.32
522.164	37474.76
522.366	37927.36
522.568	38457.78
522.77	38742.45
522.971	38795.7
523.173	38543.8
523.375	39057.84
523.576	39145.9
523.778	39338.41
523.98	39868.83
524.181	39940.51
524.383	39997.85
524.584	40573.33
524.786	40974.73
524.988	40432.02
525.189	40976.78
525.391	41040.27
525.592	41472.39
525.794	41894.27
525.995	41634.18
526.197	41513.35
526.398	41693.57
526.6	42168.7
526.801	41918.85
527.003	42230.14
527.204	42600.82
527.406	42660.21
527.607	42768.76
527.808	42881.39
528.01	42606.97
528.211	43268.46
528.412	43985.25
528.614	43340.14
528.815	43004.27
529.016	43518.31
529.218	43510.12
529.419	43856.23
529.62	43966.82
529.822	43518.31
530.023	43725.16
530.224	44292.44
530.425	44081.5
530.626	44130.65
530.828	44140.89
531.029	44487
531.23	43962.72
531.431	44349.79
531.632	44607.83
531.833	44433.75
532.035	44786
532.236	44400.99
532.437	44900.69
532.638	44622.17
532.839	44962.13
533.04	45234.51
533.241	44810.58
533.442	45599.05
533.643	44786
533.844	44982.61
534.045	45117.78
534.246	44802.39
534.447	45072.72
534.648	44693.85
534.849	45197.65
535.05	45164.88
535.251	45085.01
535.451	45031.76
535.652	45162.83
535.853	45113.68
536.054	45062.48
536.255	45396.3
536.456	44810.58
536.657	45666.63
536.857	44835.16
537.058	44898.64
537.259	45257.04
537.46	45197.65
537.66	45166.93
537.861	45320.52
538.062	45146.45
538.263	44988.75
538.463	44683.61
538.664	44962.13
538.865	44865.88
539.065	45470.03
539.266	44650.84
539.466	45406.54
539.667	44437.85
539.868	45556.04
540.068	44974.42
540.269	45142.35
540.469	45281.61
540.67	45037.9
540.87	45019.47
541.071	44941.65
541.271	45183.31
541.472	44511.58
541.672	44403.03
541.873	44458.33
542.073	44452.19
542.274	45472.07
542.474	45168.97
542.675	44501.34
542.875	45148.5
543.075	44994.9
543.276	44577.11
543.476	45250.89
543.676	44368.22
543.877	44857.68
544.077	44765.52
544.277	44491.1
544.478	44587.35
544.678	44730.71
544.878	44798.29
545.078	44792.15
545.279	44147.04
545.479	44476.76
545.679	44618.07
545.879	44679.51
546.079	44511.58
546.28	44728.66
546.48	44120.41
546.68	44548.44
546.88	44650.84
547.08	44888.4
547.28	44646.74
547.48	44243.29
547.68	44228.96
547.88	44099.94
548.081	44400.99
548.281	44382.55
548.481	44097.89
548.681	44691.8
548.881	44826.96
549.081	44519.77
549.28	43848.03
549.48	44638.55
549.68	44421.47
549.88	44831.06
550.08	44360.03
550.28	44589.4
550.48	44347.74
550.68	44855.64
550.88	44433.75
551.08	44106.08
551.279	44398.94
551.479	44005.73
551.679	44274.01
551.879	44034.4
552.079	44343.64
552.278	43716.96
552.478	44224.86
552.678	44196.19
552.878	44355.93
553.077	44101.98
553.277	44013.92
553.477	44380.51
553.676	43764.07
553.876	44030.3
554.076	43538.79
554.275	43778.4
554.475	43401.58
554.674	43903.33
554.874	43774.31
555.074	43573.61
555.273	43895.14
555.473	43776.36
555.672	43626.85
555.872	43841.89
556.071	43413.87
556.271	43911.52
556.47	43522.41
556.67	43098.48
556.869	43176.3
557.068	43942.24
557.268	43096.43
557.467	43381.1
557.667	42930.54
557.866	42973.55
558.065	43448.68
558.265	43014.51
558.464	43157.87
558.663	43823.46
558.863	42686.84
559.062	43577.7
559.261	42504.57
559.461	43508.07
559.66	42465.66
559.859	43049.33
560.058	42856.82
560.258	42643.83
560.457	42097.02
560.656	42754.42
560.855	42140.03
561.054	42709.36
561.253	42269.05
561.453	42586.49
561.652	42414.46
561.851	42547.57
562.05	41976.19
562.249	41861.51
562.448	42412.41
562.647	42086.78
562.846	41937.28
563.045	42213.76
563.244	41828.74
563.443	41980.29
563.642	41572.74
563.841	41656.71
564.04	41589.13
564.239	41734.53
564.438	41128.33
564.637	41439.62
564.836	41525.64
565.035	41222.54
565.234	41175.44
565.432	40907.15
565.631	40960.4
565.83	41079.18
566.029	40786.32
566.228	40710.55
566.427	40739.22
566.625	40642.96
566.824	39588.26
567.023	40698.26
567.222	40169.88
567.42	40444.31
567.619	40382.87
567.818	40151.45
568.016	40010.14
568.215	40436.12
568.414	40286.62
568.612	40288.67
568.811	39553.44
569.01	39739.81
569.208	39444.9
569.407	40038.81
569.605	39285.16
569.804	39547.3
570.002	39055.79
570.201	39432.61
570.4	39006.64
570.598	38850.99
570.797	38754.74
570.995	38934.96
571.193	38551.99
571.392	39233.96
571.59	38502.84
571.789	38498.74
571.987	38691.25
572.186	38599.09
572.384	38085.05
572.582	38392.25
572.781	38521.27
572.979	37697.98
573.177	37976.51
573.376	37718.46
573.574	37808.58
573.772	38113.72
573.971	37315.01
574.169	37456.32
574.367	37257.67
574.565	37597.63
574.763	37413.32
574.962	37140.94
575.16	36989.39
575.358	37306.82
575.556	36950.48
575.754	37214.66
575.952	36790.73
576.151	37099.98
576.349	36577.75
576.547	36587.99
576.745	36694.48
576.943	36573.65
577.141	35994.07
577.339	36549.07
577.537	36405.72
577.735	36467.16
577.933	35922.4
578.131	36243.93
578.329	35809.76
578.527	35697.12
578.725	35830.24
578.923	35254.76
579.121	35541.47
579.319	35494.37
579.516	35791.33
579.714	35209.7
579.912	35379.68
580.11	34568.69
580.308	35308.01
580.506	35095.02
580.704	34591.22
580.901	34976.23
581.099	34732.53
581.297	34642.42
581.495	34351.6
581.692	34439.67
581.89	34357.75
582.088	34865.64
582.285	34308.6
582.483	34116.09
582.681	34202.1
582.878	33978.87
583.076	34017.78
583.274	34302.45
583.471	33454.59
583.669	33716.73
583.866	33487.36
584.064	33655.29
584.262	33178.12
584.459	33626.62
584.657	33227.27
584.854	33731.07
585.052	32985.61
585.249	33159.69
585.447	33210.89
585.644	32889.35
585.841	32938.51
586.039	32854.54
586.236	32619.02
586.434	32469.52
586.631	32225.81
586.828	32510.48
587.026	32782.86
587.223	32506.38
587.42	31726.11
587.618	32659.98
587.815	31810.07
588.012	31883.8
588.21	31666.72
588.407	31851.03
588.604	31963.67
588.801	31513.12
588.999	31322.66
589.196	31357.47
589.393	31570.46
589.59	31148.58
589.787	31443.49
589.984	30704.17
590.182	30968.36
590.379	31246.88
590.576	30407.22
590.773	30896.68
590.97	30536.24
591.167	31009.32
591.364	30652.97
591.561	30732.84
591.758	30007.86
591.955	29835.83
592.152	30507.57
592.349	29911.61
592.546	30003.77
592.743	30145.08
592.94	29444.67
593.137	29432.38
593.334	29876.79
593.531	29762.11
593.727	29465.15
593.924	29663.8
594.121	29266.5
594.318	29565.5
594.515	28766.79
594.712	29184.58
594.908	28781.13
595.105	29018.69
595.302	28748.36
595.499	28895.82
595.696	28750.41
595.892	28590.67
596.089	28633.68
596.286	28469.84
596.482	28232.27
596.679	28359.25
596.876	28465.74
597.072	28219.99
597.269	28162.64
597.466	27929.17
597.662	27742.81
597.859	27804.25
598.055	27787.86
598.252	27562.59
598.448	27871.83
598.645	27742.81
598.841	27642.46
599.038	27454.05
599.234	27355.74
599.431	26825.32
599.627	27036.26
599.824	27386.46
600.02	27202.14
600.217	27251.3
600.413	26946.15
600.609	26548.84
600.806	26540.65
601.002	26741.35
601.198	26565.23
601.395	26372.72
601.591	26423.92
601.787	26514.03
601.984	26069.62
602.18	26561.13
602.376	25934.45
602.572	26008.18
602.769	25969.27
602.965	25836.15
603.161	26024.56
603.357	25545.34
603.553	25614.97
603.75	25645.69
603.946	25461.37
604.142	25852.53
604.338	25119.36
604.534	25283.2
604.73	24863.36
604.926	25145.98
605.122	25326.21
605.318	24867.46
605.514	24820.36
605.71	24822.41
605.906	24367.76
606.102	24904.32
606.298	24703.62
606.494	24552.07
606.69	24492.68
606.886	24494.73
607.082	24679.05
607.278	24564.36
607.474	24195.73
607.67	24558.22
607.866	23872.15
608.062	24302.22
608.257	24105.62
608.453	24081.04
608.649	23728.79
608.845	23777.94
609.041	24236.69
609.236	23900.82
609.432	23745.17
609.628	23935.63
609.824	23798.42
610.019	23499.42
610.215	23698.07
610.411	23646.87
610.606	23313.05
610.802	23661.21
610.998	23376.54
611.193	23458.46
611.389	23077.54
611.584	23392.92
611.78	22901.41
611.976	22981.28
612.171	23024.29
612.367	23390.88
612.562	23132.83
612.758	22690.47
612.953	22829.73
613.149	22934.18
613.344	22563.5
613.539	23145.12
613.735	23022.24
613.93	22848.16
614.126	22506.15
614.321	22964.9
614.517	22626.98
614.712	22676.13
614.907	22434.47
615.103	22618.79
615.298	22291.12
615.493	22538.92
615.688	22178.48
615.884	22887.07
616.079	22258.35
616.274	22502.06
616.47	22278.83
616.665	22364.84
616.86	21985.97
617.055	21809.84
617.25	22031.02
617.445	22168.24
617.641	21824.18
617.836	22098.61
618.031	21885.62
618.226	21932.72
618.421	21732.02
618.616	21750.45
618.811	21351.1
619.006	21818.04
619.201	21254.84
619.396	21422.78
619.591	20703.94
619.786	21336.76
619.981	20941.5
620.176	20945.6
620.371	20980.42
620.566	20886.21
620.761	20611.78
620.956	20888.26
621.151	20572.87
621.346	20550.34
621.541	20079.31
621.735	20318.92
621.93	20157.13
622.125	20120.27
622.32	20034.25
622.515	20064.97
622.709	19933.9
622.904	19745.49
623.099	19653.33
623.294	19598.04
623.488	19458.78
623.683	19464.92
623.878	19385.05
624.072	19426.01
624.267	18905.82
624.462	19288.79
624.656	18715.36
624.851	18942.69
625.046	18623.2
625.24	18623.2
625.435	18381.54
625.629	18557.67
625.824	18342.63
626.018	18508.52
626.213	17703.67
626.407	18123.5
626.602	17740.53
626.796	18143.98
626.991	17980.14
627.185	17765.1
627.38	17771.25
627.574	17535.73
627.768	17404.66
627.963	17054.46
628.157	16997.12
628.352	17220.35
628.546	16990.97
628.74	17203.96
628.935	16972.54
629.129	16888.57
629.323	16311.05
629.517	16468.74
629.712	16362.25
629.906	16438.02
630.1	16184.07
630.294	16313.1
630.489	15870.73
630.683	16159.5
630.877	15958.8
631.071	15786.77
631.265	15735.57
631.459	15528.72
631.653	15741.71
631.848	15657.75
632.042	15422.23
632.236	15538.96
632.43	15176.47
632.624	15508.24
632.818	15299.35
633.012	15012.63
633.206	14852.89
633.4	14912.28
633.594	14994.2
633.788	14883.61
633.982	14783.26
634.176	14764.83
634.369	14588.71
634.563	14490.4
634.757	14463.78
634.951	14488.35
635.145	14398.24
635.339	14381.86
635.533	14172.97
635.726	14242.6
635.92	13962.03
636.114	14037.8
636.308	13761.33
636.501	13847.34
636.695	13773.61
636.889	13538.1
637.083	13552.43
637.276	13509.43
637.47	13445.94
637.664	13476.66
637.857	13464.37
638.051	13441.84
638.244	13290.29
638.438	13155.13
638.632	13161.27
638.825	13179.7
639.019	13013.82
639.212	12901.18
639.406	12747.58
639.599	12600.13
639.793	12929.85
639.986	12436.29
640.18	12686.14
640.373	12655.42
640.567	12579.65
640.76	12374.85
640.954	12237.64
641.147	12032.84
641.34	12057.42
641.534	12051.27
641.727	11936.59
641.92	12059.46
642.114	11621.2
642.307	12217.16
642.5	11770.7
642.694	11785.04
642.887	11625.29
643.08	11578.19
643.273	11660.11
643.467	11539.28
643.66	11526.99
643.853	11361.11
644.046	11133.78
644.239	11266.9
644.432	11182.93
644.626	11209.56
644.819	11096.92
645.012	10863.45
645.205	11103.06
645.398	10793.82
645.591	10826.59
645.784	10834.78
645.977	10724.19
646.17	10836.83
646.363	10302.31
646.556	10660.7
646.749	10539.87
646.942	10718.04
647.135	10343.27
647.328	10486.62
647.521	10357.6
647.714	10240.87
647.907	10097.51
648.099	10257.25
648.292	10210.15
648.485	9948.01
648.678	9808.75
648.871	9995.11
649.064	9792.36
649.256	9993.06
649.449	9749.36
649.642	9743.21
649.835	9583.47
650.027	9618.29
650.22	9626.48
650.413	9560.94
650.605	9718.64
650.798	9454.45
650.991	9327.47
651.183	9331.57
651.376	9122.68
651.568	9345.91
651.761	9333.62
651.954	9255.79
652.146	9313.14
652.339	9407.34
652.531	9100.15
652.724	8928.12
652.916	8854.39
653.109	8975.22
653.301	8838.01
653.494	8907.64
653.686	8741.75
653.879	8856.44
654.071	8766.33
654.263	8590.2
654.456	8809.34
654.648	8620.92
654.84	8481.66
655.033	8465.28
655.225	8430.46
655.417	8364.93
655.61	8522.62
655.802	8117.12
655.994	8211.33
656.186	8123.27
656.379	8108.93
656.571	8364.93
656.763	8270.72
656.955	8004.49
657.148	7975.81
657.34	7971.72
657.532	7799.69
657.724	7893.9
657.916	7838.6
658.108	7768.97
658.3	7715.72
658.492	7691.15
658.684	7635.85
658.876	7543.69
659.068	7484.3
659.26	7535.5
659.452	7629.71
659.644	7474.06
659.836	7455.63
660.028	7435.15
660.22	7248.79
660.412	7142.29
660.604	7299.98
660.796	7209.87
660.988	7115.67
661.18	7095.19
661.372	7068.56
661.563	7091.09
661.755	6906.77
661.947	6962.07
662.139	7062.42
662.331	6740.89
662.522	6802.33
662.714	6871.96
662.906	6706.07
663.097	6935.45
663.289	6701.98
663.481	6554.52
663.673	6632.35
663.864	6671.26
664.056	6511.52
664.247	6638.49
664.439	6529.95
664.631	6554.52
664.822	6652.83
665.014	6497.18
665.205	6427.55
665.397	6310.82
665.588	6382.49
665.78	6372.25
665.971	6370.21
666.163	6239.14
666.354	6325.15
666.546	6187.94
666.737	6329.25
666.929	6237.09
667.12	6239.14
667.311	6136.74
667.503	6093.73
667.694	6181.79
667.885	5958.57
668.077	6001.57
668.268	6032.29
668.459	5835.69
668.651	5981.09
668.842	5811.11
669.033	6007.72
669.224	5624.75
669.416	5759.91
669.607	5764.01
669.798	5796.78
669.989	5784.49
670.18	5778.34
670.371	5794.73
670.563	5624.75
670.754	5606.31
670.945	5696.43
671.136	5641.13
671.327	5587.88
671.518	5643.18
671.709	5616.55
671.9	5499.82
672.091	5524.4
672.282	5307.31
672.473	5354.41
672.664	5346.22
672.855	5333.93
673.046	5475.24
673.237	5397.42
673.428	5346.22
673.619	5485.48
673.809	5209.01
674	5209.01
674.191	5258.16
674.382	5313.45
674.573	5221.3
674.764	5274.54
674.954	5172.15
675.145	5041.08
675.336	5295.02
675.527	5018.55
675.717	5045.17
675.908	4979.64
676.099	5049.27
676.289	5067.7
676.48	4987.83
676.671	4869.05
676.861	4930.48
677.052	4950.96
677.243	4905.91
677.433	4758.46
677.624	4895.67
677.814	4756.41
678.005	4955.06
678.195	4946.87
678.386	4885.43
678.576	4766.65
678.767	4840.37
678.957	4705.21
679.148	4672.44
679.338	4791.22
679.529	4819.89
679.719	4776.89
679.909	4910.01
680.1	4809.65
680.29	4664.25
680.481	4799.41
680.671	4617.15
680.861	4621.24
681.052	4692.92
681.242	4641.72
681.432	4557.75
681.622	4551.61
681.813	4481.98
682.003	4535.23
682.193	4537.27
682.383	4711.35
682.573	4492.22
682.764	4502.46
682.954	4598.71
683.144	4465.6
683.334	4500.41
683.524	4475.84
683.714	4496.32
683.904	4469.69
684.094	4301.76
684.284	4387.77
684.474	4441.02
684.664	4430.78
684.854	4393.92
685.044	4291.52
685.234	4262.85
685.424	4137.92
685.614	4365.25
685.804	4209.6
685.994	4283.33
686.184	4189.12
686.374	4324.29
686.564	4133.82
686.753	4238.27
686.943	4256.7
687.133	4277.18
687.323	4203.46
687.513	4066.24
687.702	4139.97
687.892	3955.65
688.082	4113.35
688.272	4107.2
688.461	4084.67
688.651	4254.66
688.841	3967.94
689.03	3972.04
689.22	3933.12
689.41	4002.75
689.599	3814.34
689.789	3937.22
689.979	3947.46
690.168	3926.98
690.358	3779.53
690.547	3726.28
690.737	3759.05
690.926	3748.81
691.116	3744.71
691.305	3826.63
691.495	3703.75
691.684	3582.92
691.874	3732.42
692.063	3697.61
692.252	3675.08
692.442	3599.31
692.631	3576.78
692.82	3607.5
693.01	3482.57
693.199	3509.19
693.388	3535.82
693.578	3558.35
693.767	3527.63
693.956	3492.81
694.146	3369.93
694.335	3482.57
694.524	3310.54
694.713	3363.79
694.902	3400.65
695.092	3337.17
695.281	3365.84
695.47	3507.15
695.659	3251.15
695.848	3371.98
696.037	3302.35
696.226	3378.12
696.415	3337.17
696.604	3224.53
696.793	3404.75
696.982	3234.77
697.171	3414.99
697.36	3310.54
697.549	3345.36
697.738	3218.38
697.927	3197.9
698.116	3335.12
698.305	3191.76
698.494	3199.95
698.683	3179.47
698.872	3210.19
699.061	3179.47
699.25	3191.76
699.438	3324.88
699.627	3265.49
699.816	3191.76
700.005	3242.96
700.193	3075.03
700.382	3156.94
700.571	3224.53
700.76	2962.39
700.948	2935.76
701.137	3027.92
701.326	3060.69
701.514	3101.65
701.703	3036.11
701.892	3056.59
702.08	3066.83
702.269	3034.07
702.457	3081.17
702.646	3109.84
702.834	3021.78
703.023	2956.24
703.212	3021.78
703.4	3042.26
703.589	2935.76
703.777	2843.6
703.965	3036.11
704.154	3056.59
704.342	3091.41
704.531	2968.53
704.719	2894.8
704.907	2952.15
705.096	2927.57
705.284	2943.96
705.472	2880.47
705.661	3027.92
705.849	3083.22
706.037	3001.3
706.226	2939.86
706.414	2960.34
706.602	2894.8
706.79	2929.62
706.979	2976.72
707.167	2868.18
707.355	2980.82
707.543	2878.42
707.731	2980.82
707.919	2765.78
708.107	2857.94
708.296	2743.25
708.484	2798.55
708.672	2886.61
708.86	2853.84
709.048	2853.84
709.236	2847.7
709.424	2911.19
709.612	2956.24
709.8	2784.21
709.988	2792.41
710.176	2946
710.364	2941.91
710.551	2769.88
710.739	2966.48
710.927	2864.08
711.115	2927.57
711.303	2966.48
711.491	2868.18
711.679	2720.73
711.866	2878.42
712.054	2794.45
712.242	2888.66
712.43	2835.41
712.617	2800.6
712.805	2843.6
712.993	2773.97
713.181	2751.45
713.368	2831.32
713.556	2780.12
713.744	2739.16
713.931	2921.43
714.119	2714.58
714.306	2816.98
714.494	2776.02
714.682	2743.25
714.869	2825.17
715.057	2845.65
715.244	2753.49
715.432	2929.62
715.619	2806.74
715.807	2810.84
715.994	2913.24
716.182	3007.44
716.369	2835.41
716.556	2997.2
716.744	2765.78
716.931	2765.78
717.119	2792.41
717.306	2835.41
717.493	2876.37
717.681	2831.32
717.868	2798.55
718.055	2913.24
718.242	2673.62
718.43	2722.77
718.617	2788.31
718.804	2749.4
718.991	2806.74
719.179	2851.8
719.366	2769.88
719.553	2747.35
719.74	2763.73
719.927	2692.05
720.114	2769.88
720.301	2829.27
720.488	2694.1
720.676	2804.69
720.863	2741.21
721.05	2730.97
721.237	2745.3
721.424	2769.88
721.611	2794.45
721.798	2718.68
721.985	2655.19
722.172	2714.58
722.358	2714.58
722.545	2796.5
722.732	2640.86
722.919	2743.25
723.106	2710.49
723.293	2757.59
723.48	2782.17
723.667	2722.77
723.853	2759.64
724.04	2802.65
724.227	2700.25
724.414	2696.15
724.6	2724.82
724.787	2671.58
724.974	2796.5
725.161	2730.97
725.347	2804.69
725.534	2798.55
725.72	2710.49
725.907	2800.6
726.094	2739.16
726.28	2780.12
726.467	2710.49
726.653	2632.66
726.84	2757.59
727.027	2857.94
727.213	2698.2
727.4	2692.05
727.586	2823.12
727.773	2737.11
727.959	2900.95
728.145	2771.93
728.332	2835.41
728.518	2753.49
728.705	2780.12
728.891	2718.68
729.077	2857.94
729.264	2767.83
729.45	2743.25
729.636	2804.69
729.823	2739.16
730.009	2788.31
730.195	2710.49
730.382	2778.07
730.568	2763.73
730.754	2647
730.94	2808.79
731.126	2757.59
731.313	2714.58
731.499	2733.01
731.685	2808.79
731.871	2843.6
732.057	2874.32
732.243	2853.84
732.429	2823.12
732.615	2743.25
732.801	2819.03
732.987	2687.96
733.173	2747.35
733.359	2794.45
733.545	2636.76
733.731	2839.51
733.917	2849.75
734.103	2685.91
734.289	2831.32
734.475	2784.21
734.661	2872.28
734.847	2679.77
735.033	2857.94
735.219	2776.02
735.404	2796.5
735.59	2640.86
735.776	2685.91
735.962	2831.32
736.148	2749.4
736.333	2892.76
736.519	2710.49
736.705	2718.68
736.89	2700.25
737.076	2771.93
737.262	2671.58
737.447	2622.42
737.633	2665.43
737.819	2665.43
738.004	2733.01
738.19	2720.73
738.375	2702.29
738.561	2851.8
738.747	2737.11
738.932	2706.39
739.118	2833.36
739.303	2644.95
739.489	2776.02
739.674	2671.58
739.859	2771.93
740.045	2710.49
740.23	2708.44
740.416	2606.04
740.601	2644.95
740.786	2601.94
740.972	2591.7
741.157	2622.42
741.342	2675.67
741.528	2634.71
741.713	2659.29
741.898	2694.1
742.084	2558.94
742.269	2565.08
742.454	2593.75
742.639	2595.8
742.824	2563.03
743.01	2493.4
743.195	2560.98
743.38	2517.98
743.565	2634.71
743.75	2565.08
743.935	2487.26
744.12	2489.31
744.305	2692.05
744.49	2571.22
744.675	2540.51
744.86	2477.02
745.045	2444.25
745.23	2493.4
745.415	2565.08
745.6	2434.01
745.785	2454.49
745.97	2544.6
746.155	2356.19
746.34	2243.55
746.525	2364.38
746.71	2405.34
746.895	2360.28
747.079	2376.67
747.264	2366.43
747.449	2341.85
747.634	2376.67
747.819	2261.98
748.003	2304.99
748.188	2352.09
748.373	2282.46
748.557	2327.52
748.742	2241.5
748.927	2229.21
749.111	2190.3
749.296	2135.01
749.481	2245.6
749.665	2210.78
749.85	2175.97
750.034	2163.68
750.219	2085.86
750.404	2196.45
750.588	2001.89
750.773	2110.43
750.957	2178.01
751.141	2190.3
751.326	2096.1
751.51	2016.23
751.695	2173.92
751.879	1967.07
752.064	2120.67
752.248	1936.35
752.432	2012.13
752.617	2022.37
752.801	1926.11
752.985	1936.35
753.17	1928.16
753.354	1950.69
753.538	1924.07
753.722	1768.42
753.907	1876.96
754.091	1786.85
754.275	1946.59
754.459	1772.52
754.643	1811.43
754.828	1752.04
755.012	1823.72
755.196	1817.57
755.38	1772.52
755.564	1768.42
755.748	1862.63
755.932	1690.6
756.116	1758.18
756.3	1739.75
756.484	1727.46
756.668	1698.79
756.852	1616.87
757.036	1653.73
757.22	1653.73
757.404	1768.42
757.588	1715.17
757.772	1629.16
757.956	1532.9
758.14	1698.79
758.323	1639.4
758.507	1588.2
758.691	1577.96
758.875	1614.82
759.059	1508.33
759.242	1549.29
759.426	1549.29
759.61	1514.47
759.794	1534.95
759.977	1592.3
760.161	1649.64
760.345	1465.32
760.528	1448.94
760.712	1463.27
760.895	1416.17
761.079	1496.04
761.263	1455.08
761.446	1453.03
761.63	1420.27
761.813	1453.03
761.997	1428.46
762.18	1416.17
762.364	1328.11
762.547	1362.92
762.731	1381.35
762.914	1436.65
763.098	1283.05
763.281	1305.58
763.464	1317.87
763.648	1350.64
763.831	1340.4
764.015	1356.78
764.198	1395.69
764.381	1321.96
764.564	1371.12
764.748	1299.44
764.931	1248.24
765.114	1336.3
765.297	1309.68
765.481	1334.25
765.664	1336.3
765.847	1297.39
766.03	1291.24
766.213	1274.86
766.397	1254.38
766.58	1244.14
766.763	1219.57
766.946	1188.85
767.129	1254.38
767.312	1213.42
767.495	1227.76
767.678	1098.74
767.861	1281
768.044	1213.42
768.227	1225.71
768.41	1184.75
768.593	1170.41
768.776	1207.28
768.959	1238
769.142	1217.52
769.324	1106.93
769.507	1201.13
769.69	1151.98
769.873	1164.27
770.056	1174.51
770.239	1133.55
770.421	1098.74
770.604	1131.5
770.787	1072.11
770.97	1119.21
771.152	1072.11
771.335	1133.55
771.518	1143.79
771.7	1065.97
771.883	1106.93
772.066	1088.5
772.248	1078.26
772.431	1117.17
772.613	1037.3
772.796	967.67
772.978	1018.86
773.161	1154.03
773.343	1008.62
773.526	1051.63
773.708	1022.96
773.891	1006.58
774.073	988.14
774.256	1022.96
774.438	973.81
774.621	861.17
774.803	1025.01
774.985	908.27
775.168	928.75
775.35	949.23
775.532	961.52
775.715	855.03
775.897	930.8
776.079	857.07
776.261	838.64
776.444	836.6
776.626	887.79
776.808	959.47
776.99	938.99
777.173	848.88
777.355	902.13
777.537	785.4
777.719	861.17
777.901	861.17
778.083	846.84
778.265	836.6
778.447	822.26
778.629	771.06
778.811	773.11
778.993	787.44
779.175	852.98
779.357	812.02
779.539	814.07
779.721	781.3
779.903	822.26
780.085	785.4
780.267	754.68
780.449	709.62
780.631	771.06
780.812	803.83
780.994	701.43
781.176	736.24
781.358	691.19
781.54	709.62
781.721	750.58
781.903	769.01
782.085	683
782.267	680.95
782.448	695.29
782.63	605.17
782.812	752.63
782.993	683
783.175	570.36
783.357	601.08
783.538	699.38
783.72	576.5
783.901	666.61
784.083	558.07
784.264	625.65
784.446	633.85
784.627	631.8
784.809	676.85
784.99	633.85
785.172	683
785.353	586.74
785.535	654.33
785.716	658.42
785.897	586.74
786.079	558.07
786.26	668.66
786.441	560.12
786.623	498.68
786.804	490.49
786.985	535.54
787.167	547.83
787.348	601.08
787.529	574.46
787.71	517.11
787.891	562.17
788.073	420.86
788.254	517.11
788.435	494.58
788.616	504.82
788.797	455.67
788.978	533.5
789.159	427
789.34	517.11
789.522	410.62
789.703	437.24
789.884	474.1
790.065	568.31
790.246	519.16
790.427	400.38
790.607	459.77
790.788	465.91
790.969	371.71
791.15	521.21
791.331	338.94
791.512	476.15
791.693	355.32
791.874	459.77
792.054	429.05
792.235	510.97
792.416	441.34
792.597	357.37
792.778	349.18
792.958	375.8
793.139	390.14
793.32	357.37
793.5	420.86
793.681	414.71
793.862	402.43
794.042	416.76
794.223	338.94
794.404	375.8
794.584	439.29
794.765	345.08
794.945	433.15
795.126	394.23
795.306	310.27
795.487	441.34
795.667	269.31
795.848	400.38
796.028	361.47
796.209	285.69
796.389	400.38
796.57	443.39
796.75	312.32
796.93	295.93
797.111	334.84
797.291	328.7
797.471	390.14
797.652	279.55
797.832	369.66
798.012	343.03
798.192	297.98
798.373	363.51
798.553	320.51
798.733	287.74
798.913	205.82
799.093	445.43
799.274	336.89
799.454	351.23
799.634	326.65
799.814	383.99
799.994	257.02
800.174	365.56
800.354	263.16
800.534	261.12
800.714	209.92
800.894	283.64
801.074	259.07
801.254	365.56
801.434	386.04
801.614	283.64
801.794	220.16
801.974	652.28
802.154	379.9
802.334	259.07
802.514	343.03
802.693	304.12
802.873	273.4
803.053	242.68
803.233	306.17
803.413	324.6
803.592	291.84
803.772	263.16
803.952	205.82
804.131	261.12
804.311	218.11
804.491	275.45
804.67	199.68
804.85	216.06
805.03	236.54
805.209	285.69
805.389	230.4
805.568	269.31
805.748	291.84
805.928	279.55
806.107	187.39
806.287	154.62
806.466	214.01
806.646	281.6
806.825	291.84
807.004	283.64
807.184	177.15
807.363	156.67
807.543	273.4
807.722	136.19
807.901	183.29
808.081	297.98
808.26	187.39
808.439	269.31
808.619	222.2
808.798	232.44
808.977	244.73
809.156	242.68
809.336	257.02
809.515	226.3
809.694	183.29
809.873	283.64
810.052	230.4
810.231	193.53
810.411	267.26
810.59	216.06
810.769	191.49
810.948	318.46
811.127	117.76
811.306	216.06
811.485	168.96
811.664	326.65
811.843	187.39
812.022	158.72
812.201	244.73
812.38	160.77
812.559	160.77
812.737	222.2
812.916	119.81
813.095	117.76
813.274	162.81
813.453	220.16
813.632	183.29
813.811	101.37
813.989	222.2
814.168	128
814.347	152.57
814.526	181.25
814.704	150.53
814.883	238.59
815.062	195.58
815.24	216.06
815.419	148.48
815.598	199.68
815.776	211.96
815.955	154.62
816.133	123.9
816.312	171.01
816.49	113.66
816.669	130.05
816.847	148.48
817.026	220.16
817.204	203.77
817.383	93.18
817.561	181.25
817.74	148.48
817.918	177.15
818.097	175.1
818.275	125.95
818.453	177.15
818.632	150.53
818.81	130.05
818.988	103.42
819.167	144.38
819.345	150.53
819.523	138.24
819.701	168.96
819.879	207.87
820.058	218.11
820.236	144.38
820.414	158.72
820.592	84.99
820.77	7.17
820.948	115.71
821.127	166.91
821.305	181.25
821.483	125.95
821.661	130.05
821.839	140.29
822.017	89.09
822.195	99.33
822.373	226.3
822.551	136.19
822.729	156.67
822.907	82.94
823.085	152.57
823.262	132.09
823.44	138.24
823.618	101.37
823.796	226.3
823.974	134.14
824.152	138.24
824.329	117.76
824.507	158.72
824.685	117.76
824.863	179.2
825.04	66.56
825.218	187.39
825.396	103.42
825.574	99.33
825.751	160.77
825.929	148.48
826.107	134.14
826.284	52.22
826.462	103.42
826.639	144.38
826.817	119.81
826.994	152.57
827.172	15.36
827.349	123.9
827.527	125.95
827.704	78.85
827.882	93.18
828.059	93.18
828.237	82.94
828.414	146.43
828.591	101.37
828.769	74.75
828.946	121.85
829.124	119.81
829.301	113.66
829.478	72.7
829.655	89.09
829.833	54.27
830.01	84.99
830.187	97.28
830.364	54.27
830.542	132.09
830.719	138.24
830.896	115.71
831.073	148.48
831.25	109.57
831.427	97.28
831.604	128
831.782	142.33
831.959	72.7
832.136	109.57
832.313	150.53
832.49	95.23
832.667	-21.5
832.844	111.61
833.021	66.56
833.198	68.61
833.374	123.9
833.551	115.71
833.728	97.28
833.905	109.57
834.082	62.46
834.259	15.36
834.436	58.37
834.612	50.18
834.789	76.8
834.966	128
835.143	62.46
835.319	33.79
835.496	142.33
835.673	52.22
835.85	72.7
836.026	115.71
836.203	82.94
836.38	115.71
836.556	74.75
836.733	23.55
836.909	95.23
837.086	121.85
837.262	-23.55
837.439	119.81
837.616	109.57
837.792	56.32
837.968	125.95
838.145	113.66
838.321	148.48
838.498	78.85
838.674	50.18
838.851	39.94
839.027	-13.31
839.203	132.09
839.38	13.31
839.556	56.32
839.732	76.8
839.909	27.65
840.085	80.89
840.261	27.65
840.437	95.23
840.614	87.04
840.79	84.99
840.966	68.61
841.142	89.09
841.318	41.98
841.494	123.9
841.671	35.84
841.847	68.61
842.023	74.75
842.199	33.79
842.375	48.13
842.551	68.61
842.727	91.13
842.903	130.05
843.079	103.42
843.255	58.37
843.431	74.75
843.607	48.13
843.783	37.89
843.959	89.09
844.134	35.84
844.31	82.94
844.486	35.84
844.662	72.7
844.838	-17.41
845.013	78.85
845.189	84.99
845.365	15.36
845.541	56.32
845.716	99.33
845.892	39.94
846.068	17.41
846.244	39.94
846.419	142.33
846.595	41.98
846.77	11.26
846.946	91.13
847.122	66.56
847.297	-1.02
847.473	107.52
847.648	-5.12
847.824	37.89
847.999	5.12
848.175	39.94
848.35	3.07
848.526	68.61
848.701	5.12
848.876	93.18
849.052	130.05
849.227	-11.26
849.403	-7.17
849.578	39.94
849.753	68.61
849.929	3.07
850.104	29.7
850.279	107.52
850.454	62.46
850.63	19.46
850.805	-27.65
850.98	95.23
851.155	23.55
851.33	27.65
851.505	54.27
851.681	119.81
851.856	11.26
852.031	-31.74
852.206	29.7
852.381	-15.36
852.556	44.03
852.731	60.42
852.906	87.04
853.081	-35.84
853.256	52.22
853.431	-27.65
853.606	87.04
853.781	84.99
853.956	46.08
854.131	62.46
854.305	-5.12
854.48	15.36
854.655	11.26
854.83	95.23
855.005	27.65
855.18	56.32
855.354	-5.12
855.529	76.8
855.704	15.36
855.879	35.84
856.053	52.22
856.228	121.85
856.403	-33.79
856.577	39.94
856.752	68.61
856.926	62.46
857.101	-17.41
857.276	44.03
857.45	62.46
857.625	46.08
857.799	39.94
857.974	27.65
858.148	48.13
858.323	33.79
858.497	29.7
858.672	97.28
858.846	60.42
859.02	58.37
859.195	80.89
859.369	-21.5
859.543	35.84
859.718	27.65
859.892	48.13
860.066	-5.12
860.241	21.5
860.415	9.22
860.589	107.52
860.763	-9.22
860.938	-52.22
861.112	62.46
861.286	-15.36
861.46	-1.02
861.634	31.74
861.808	3.07
861.982	15.36
862.157	37.89
862.331	17.41
862.505	-11.26
862.679	29.7
862.853	-23.55
863.027	25.6
863.201	54.27
863.375	-29.7
863.549	52.22
863.722	13.31
863.896	66.56
864.07	-70.65
864.244	87.04
864.418	29.7
864.592	58.37
864.766	11.26
864.939	-68.61
865.113	48.13
865.287	82.94
865.461	19.46
865.634	60.42
865.808	52.22
865.982	44.03
866.156	-68.61
866.329	-44.03
866.503	-35.84
866.676	11.26
866.85	31.74
867.024	50.18
867.197	-64.51
867.371	44.03
867.544	-23.55
867.718	70.65
867.891	-11.26
868.065	25.6
868.238	-21.5
868.412	128
868.585	17.41
868.759	109.57
868.932	-7.17
869.105	27.65
869.279	-17.41
869.452	7.17
869.625	44.03
869.799	-35.84
869.972	17.41
870.145	44.03
870.319	-1.02
870.492	33.79
870.665	27.65
870.838	-1.02
871.011	3.07
871.185	46.08
871.358	-58.37
871.531	33.79
871.704	-5.12
871.877	54.27
872.05	39.94
872.223	7.17
872.396	-29.7
872.569	70.65
872.742	23.55
872.915	-9.22
873.088	-3.07
873.261	-33.79
873.434	56.32
873.607	-15.36
873.78	27.65
873.953	9.22
874.126	-37.89
874.299	-89.09
874.471	-46.08
874.644	-29.7
874.817	-5.12
874.99	41.98
875.163	41.98
875.335	35.84
875.508	-7.17
875.681	3.07
875.853	-9.22
876.026	5.12
876.199	-35.84
876.371	15.36
876.544	15.36
876.717	103.42
876.889	101.37
877.062	-29.7
877.234	60.42
877.407	-39.94
877.579	11.26
877.752	41.98
877.924	1.02
878.097	23.55
878.269	27.65
878.442	-21.5
878.614	3.07
878.786	60.42
878.959	-29.7
879.131	-27.65
879.303	-50.18
879.476	99.33
879.648	-25.6
879.82	46.08
879.993	13.31
880.165	27.65
880.337	9.22
880.509	21.5
880.681	68.61
880.854	-17.41
881.026	9.22
881.198	13.31
881.37	-25.6
881.542	-66.56
881.714	-5.12
881.886	-60.42
882.058	25.6
882.23	-17.41
882.402	41.98
882.574	-25.6
882.746	-9.22
882.918	97.28
883.09	-46.08
883.262	-68.61
883.434	76.8
883.606	60.42
883.778	35.84
883.95	80.89
884.122	-5.12
884.293	15.36
884.465	-11.26
884.637	-68.61
884.809	58.37
884.98	50.18
885.152	-11.26
885.324	78.85
885.496	1.02
885.667	3.07
885.839	-7.17
886.011	-7.17
886.182	-52.22
886.354	56.32
886.525	-17.41
886.697	82.94
886.869	-19.46
887.04	-15.36
887.212	21.5
887.383	3.07
887.555	-15.36
887.726	15.36
887.897	1.02
888.069	-1.02
888.24	-7.17
888.412	13.31
888.583	70.65
888.754	-17.41
888.926	33.79
889.097	3.07
889.268	-70.65
889.44	-27.65
889.611	7.17
889.782	-31.74
889.953	-11.26
890.125	-13.31
890.296	-91.13
890.467	-19.46
890.638	56.32
890.809	-9.22
890.98	-21.5
891.151	48.13
891.323	1.02
891.494	-23.55
891.665	-25.6
891.836	13.31
892.007	-64.51
892.178	7.17
892.349	1.02
892.52	-21.5
892.691	-37.89
892.862	-25.6
893.032	-9.22
893.203	37.89
893.374	-39.94
893.545	39.94
893.716	-19.46
893.887	25.6
894.057	-21.5
894.228	82.94
894.399	-89.09
894.57	15.36
894.74	-35.84
894.911	89.09
895.082	11.26
895.253	5.12
895.423	-76.8
895.594	7.17
895.764	-29.7
895.935	-101.37
896.106	80.89
896.276	-1.02
896.447	27.65
896.617	-13.31
896.788	11.26
896.958	-7.17
897.129	-54.27
897.299	-58.37
897.47	60.42
897.64	-29.7
897.81	-44.03
897.981	52.22
898.151	-68.61
898.322	58.37
898.492	-5.12
898.662	72.7
898.832	-3.07
899.003	-5.12
899.173	27.65
899.343	-37.89
899.513	21.5
