Data from USB4F104151__24__11-44-40-873.txt Node

Date: Fri Mar 14 11:44:40 EDT 2025
User: louis
Spectrometer: USB4F10415
Trigger mode: 4
Integration Time (sec): 2.000000E-2
Scans to average: 1
Electric dark correction enabled: true
Nonlinearity correction enabled: false
Boxcar width: 0
XAxis mode: Wavelengths
Number of Pixels in Spectrum: 3648
>>>>>Begin Spectral Data<<<<<
178.204	-101.03
178.424	-101.03
178.644	-101.03
178.864	-92.84
179.084	-41.64
179.304	42.32
179.524	-10.92
179.744	-41.64
179.964	1.37
180.184	11.61
180.404	5.46
180.624	-68.27
180.844	36.18
181.064	-72.36
181.283	13.65
181.503	40.28
181.723	42.32
181.943	-84.65
182.163	23.89
182.383	152.92
182.602	-35.5
182.822	7.51
183.042	36.18
183.262	1.37
183.482	-21.16
183.701	56.66
183.921	60.76
184.141	50.52
184.361	79.19
184.58	-51.88
184.8	85.33
185.02	15.7
185.239	34.13
185.459	-4.78
185.679	17.75
185.898	9.56
186.118	9.56
186.338	9.56
186.557	60.76
186.777	40.28
186.997	54.61
187.216	15.7
187.436	54.61
187.655	34.13
187.875	17.75
188.095	-15.02
188.314	-12.97
188.534	46.42
188.753	36.18
188.973	19.8
189.192	56.66
189.412	17.75
189.631	36.18
189.851	19.8
190.07	93.52
190.29	36.18
190.509	73.04
190.729	-8.87
190.948	130.39
191.168	105.81
191.387	13.65
191.607	-23.21
191.826	36.18
192.045	17.75
192.265	64.85
192.484	54.61
192.704	-35.5
192.923	-12.97
193.142	5.46
193.362	64.85
193.581	5.46
193.8	21.85
194.02	3.41
194.239	15.7
194.458	130.39
194.678	79.19
194.897	-39.59
195.116	62.8
195.335	25.94
195.555	-33.45
195.774	13.65
195.993	27.99
196.212	58.71
196.432	-33.45
196.651	3.41
196.87	46.42
197.089	111.96
197.308	73.04
197.528	25.94
197.747	-41.64
197.966	-6.83
198.185	15.7
198.404	71
198.623	68.95
198.842	46.42
199.062	77.14
199.281	38.23
199.5	15.7
199.719	34.13
199.938	105.81
200.157	89.43
200.376	44.37
200.595	73.04
200.814	89.43
201.033	58.71
201.252	-8.87
201.471	19.8
201.69	7.51
201.909	66.9
202.128	27.99
202.347	161.11
202.566	105.81
202.785	75.09
203.004	-2.73
203.223	38.23
203.442	85.33
203.661	25.94
203.879	-33.45
204.098	77.14
204.317	32.08
204.536	68.95
204.755	5.46
204.974	21.85
205.193	62.8
205.411	97.62
205.63	71
205.849	58.71
206.068	56.66
206.287	75.09
206.505	9.56
206.724	52.56
206.943	56.66
207.162	19.8
207.381	9.56
207.599	58.71
207.818	19.8
208.037	58.71
208.255	19.8
208.474	23.89
208.693	83.28
208.911	85.33
209.13	13.65
209.349	38.23
209.567	5.46
209.786	95.57
210.005	-19.11
210.223	83.28
210.442	-43.69
210.661	38.23
210.879	-66.22
211.098	13.65
211.316	116.05
211.535	73.04
211.753	11.61
211.972	109.91
212.191	97.62
212.409	27.99
212.628	66.9
212.846	5.46
213.065	44.37
213.283	23.89
213.502	5.46
213.72	66.9
213.938	93.52
214.157	5.46
214.375	81.24
214.594	34.13
214.812	60.76
215.031	25.94
215.249	-6.83
215.467	-21.16
215.686	9.56
215.904	101.72
216.122	-27.31
216.341	3.41
216.559	50.52
216.778	81.24
216.996	109.91
217.214	-21.16
217.432	9.56
217.651	36.18
217.869	54.61
218.087	25.94
218.306	83.28
218.524	62.8
218.742	9.56
218.96	50.52
219.179	85.33
219.397	42.32
219.615	64.85
219.833	46.42
220.051	13.65
220.27	56.66
220.488	23.89
220.706	36.18
220.924	-2.73
221.142	50.52
221.36	56.66
221.578	62.8
221.796	9.56
222.015	42.32
222.233	1.37
222.451	62.8
222.669	19.8
222.887	30.04
223.105	62.8
223.323	62.8
223.541	-31.4
223.759	-4.78
223.977	56.66
224.195	71
224.413	64.85
224.631	7.51
224.849	25.94
225.067	62.8
225.285	7.51
225.503	-31.4
225.721	7.51
225.939	40.28
226.157	1.37
226.375	21.85
226.592	-21.16
226.81	3.41
227.028	44.37
227.246	-15.02
227.464	42.32
227.682	132.44
227.9	27.99
228.117	83.28
228.335	13.65
228.553	50.52
228.771	40.28
228.989	91.48
229.206	42.32
229.424	-4.78
229.642	73.04
229.86	3.41
230.077	93.52
230.295	87.38
230.513	17.75
230.731	71
230.948	79.19
231.166	42.32
231.384	5.46
231.601	11.61
231.819	36.18
232.037	25.94
232.254	3.41
232.472	11.61
232.689	17.75
232.907	116.05
233.125	44.37
233.342	87.38
233.56	52.56
233.777	73.04
233.995	15.7
234.213	91.48
234.43	-19.11
234.648	-0.68
234.865	66.9
235.083	30.04
235.3	68.95
235.518	103.76
235.735	91.48
235.953	73.04
236.17	77.14
236.388	85.33
236.605	50.52
236.822	58.71
237.04	21.85
237.257	89.43
237.475	-17.07
237.692	36.18
237.909	36.18
238.127	5.46
238.344	89.43
238.562	66.9
238.779	21.85
238.996	-29.35
239.214	38.23
239.431	7.51
239.648	-17.07
239.865	-27.31
240.083	50.52
240.3	-21.16
240.517	17.75
240.735	9.56
240.952	-27.31
241.169	7.51
241.386	48.47
241.603	3.41
241.821	21.85
242.038	101.72
242.255	38.23
242.472	21.85
242.689	-19.11
242.907	42.32
243.124	48.47
243.341	25.94
243.558	66.9
243.775	11.61
243.992	36.18
244.209	23.89
244.426	85.33
244.643	58.71
244.86	46.42
245.078	48.47
245.295	-2.73
245.512	85.33
245.729	-15.02
245.946	5.46
246.163	-12.97
246.38	21.85
246.597	73.04
246.814	73.04
247.031	5.46
247.248	-2.73
247.464	11.61
247.681	44.37
247.898	34.13
248.115	101.72
248.332	23.89
248.549	79.19
248.766	111.96
248.983	132.44
249.2	7.51
249.417	40.28
249.633	93.52
249.85	40.28
250.067	36.18
250.284	44.37
250.501	34.13
250.717	71
250.934	25.94
251.151	21.85
251.368	81.24
251.585	97.62
251.801	58.71
252.018	-19.11
252.235	-6.83
252.451	9.56
252.668	23.89
252.885	85.33
253.102	36.18
253.318	30.04
253.535	73.04
253.752	-23.21
253.968	56.66
254.185	-12.97
254.401	62.8
254.618	81.24
254.835	23.89
255.051	73.04
255.268	40.28
255.484	56.66
255.701	9.56
255.917	52.56
256.134	38.23
256.351	71
256.567	5.46
256.784	27.99
257	-4.78
257.217	38.23
257.433	66.9
257.65	40.28
257.866	42.32
258.082	25.94
258.299	93.52
258.515	68.95
258.732	7.51
258.948	11.61
259.165	95.57
259.381	52.56
259.597	9.56
259.814	54.61
260.03	-31.4
260.246	50.52
260.463	17.75
260.679	46.42
260.895	42.32
261.112	58.71
261.328	79.19
261.544	-8.87
261.761	130.39
261.977	13.65
262.193	75.09
262.409	50.52
262.626	68.95
262.842	40.28
263.058	21.85
263.274	68.95
263.49	68.95
263.707	40.28
263.923	9.56
264.139	11.61
264.355	5.46
264.571	124.24
264.787	40.28
265.004	97.62
265.22	30.04
265.436	118.1
265.652	32.08
265.868	85.33
266.084	-0.68
266.3	46.42
266.516	38.23
266.732	50.52
266.948	23.89
267.164	73.04
267.38	3.41
267.596	38.23
267.812	83.28
268.028	75.09
268.244	17.75
268.46	64.85
268.676	-2.73
268.892	23.89
269.108	73.04
269.324	3.41
269.54	73.04
269.756	111.96
269.972	54.61
270.188	1.37
270.403	-17.07
270.619	11.61
270.835	36.18
271.051	101.72
271.267	13.65
271.483	17.75
271.698	189.78
271.914	116.05
272.13	36.18
272.346	7.51
272.562	-8.87
272.777	52.56
272.993	60.76
273.209	9.56
273.425	17.75
273.64	15.7
273.856	15.7
274.072	58.71
274.287	46.42
274.503	50.52
274.719	64.85
274.934	21.85
275.15	40.28
275.366	60.76
275.581	34.13
275.797	17.75
276.012	87.38
276.228	13.65
276.444	95.57
276.659	48.47
276.875	23.89
277.09	77.14
277.306	32.08
277.521	56.66
277.737	-29.35
277.952	54.61
278.168	58.71
278.383	107.86
278.599	-37.55
278.814	85.33
279.03	50.52
279.245	46.42
279.461	91.48
279.676	56.66
279.892	34.13
280.107	42.32
280.322	19.8
280.538	27.99
280.753	34.13
280.969	50.52
281.184	77.14
281.399	21.85
281.615	68.95
281.83	93.52
282.045	83.28
282.26	79.19
282.476	23.89
282.691	36.18
282.906	71
283.122	60.76
283.337	-6.83
283.552	77.14
283.767	95.57
283.983	25.94
284.198	42.32
284.413	93.52
284.628	-47.79
284.843	71
285.058	15.7
285.274	58.71
285.489	30.04
285.704	54.61
285.919	34.13
286.134	77.14
286.349	62.8
286.564	71
286.779	21.85
286.995	54.61
287.21	-15.02
287.425	93.52
287.64	15.7
287.855	56.66
288.07	68.95
288.285	-12.97
288.5	42.32
288.715	58.71
288.93	85.33
289.145	68.95
289.36	34.13
289.575	66.9
289.79	38.23
290.004	83.28
290.219	23.89
290.434	-12.97
290.649	-60.07
290.864	93.52
291.079	99.67
291.294	36.18
291.509	46.42
291.724	50.52
291.938	7.51
292.153	116.05
292.368	46.42
292.583	7.51
292.798	9.56
293.012	93.52
293.227	62.8
293.442	46.42
293.657	103.76
293.871	-12.97
294.086	128.34
294.301	54.61
294.516	114
294.73	89.43
294.945	40.28
295.16	44.37
295.374	99.67
295.589	95.57
295.804	36.18
296.018	25.94
296.233	56.66
296.447	54.61
296.662	54.61
296.877	15.7
297.091	87.38
297.306	-4.78
297.52	48.47
297.735	60.76
297.949	42.32
298.164	32.08
298.378	27.99
298.593	40.28
298.807	-8.87
299.022	52.56
299.236	109.91
299.451	44.37
299.665	79.19
299.88	30.04
300.094	56.66
300.309	38.23
300.523	-2.73
300.737	36.18
300.952	30.04
301.166	71
301.381	7.51
301.595	11.61
301.809	52.56
302.024	42.32
302.238	-10.92
302.452	52.56
302.667	66.9
302.881	111.96
303.095	83.28
303.309	40.28
303.524	77.14
303.738	75.09
303.952	48.47
304.166	64.85
304.381	40.28
304.595	99.67
304.809	25.94
305.023	66.9
305.237	42.32
305.452	81.24
305.666	34.13
305.88	79.19
306.094	54.61
306.308	81.24
306.522	83.28
306.736	85.33
306.95	73.04
307.164	36.18
307.379	62.8
307.593	109.91
307.807	7.51
308.021	48.47
308.235	99.67
308.449	-15.02
308.663	17.75
308.877	77.14
309.091	132.44
309.305	136.53
309.519	75.09
309.733	134.48
309.947	68.95
310.161	97.62
310.374	52.56
310.588	71
310.802	58.71
311.016	50.52
311.23	-0.68
311.444	7.51
311.658	50.52
311.872	66.9
312.085	73.04
312.299	105.81
312.513	3.41
312.727	68.95
312.941	23.89
313.154	83.28
313.368	68.95
313.582	-31.4
313.796	75.09
314.009	99.67
314.223	64.85
314.437	99.67
314.651	93.52
314.864	138.58
315.078	56.66
315.292	56.66
315.505	62.8
315.719	19.8
315.933	105.81
316.146	99.67
316.36	21.85
316.573	56.66
316.787	81.24
317.001	107.86
317.214	56.66
317.428	54.61
317.641	38.23
317.855	58.71
318.068	58.71
318.282	52.56
318.495	97.62
318.709	68.95
318.922	-25.26
319.136	68.95
319.349	68.95
319.563	21.85
319.776	48.47
319.99	46.42
320.203	-27.31
320.417	91.48
320.63	89.43
320.843	122.2
321.057	42.32
321.27	27.99
321.483	58.71
321.697	95.57
321.91	38.23
322.124	54.61
322.337	-62.12
322.55	81.24
322.763	66.9
322.977	27.99
323.19	34.13
323.403	34.13
323.617	54.61
323.83	42.32
324.043	68.95
324.256	91.48
324.469	97.62
324.683	73.04
324.896	15.7
325.109	73.04
325.322	15.7
325.535	99.67
325.748	71
325.962	73.04
326.175	38.23
326.388	44.37
326.601	132.44
326.814	36.18
327.027	46.42
327.24	95.57
327.453	17.75
327.666	38.23
327.879	27.99
328.092	62.8
328.305	68.95
328.518	140.63
328.731	161.11
328.944	52.56
329.157	46.42
329.37	-10.92
329.583	30.04
329.796	58.71
330.009	-2.73
330.222	60.76
330.435	118.1
330.648	73.04
330.861	58.71
331.073	46.42
331.286	105.81
331.499	23.89
331.712	-2.73
331.925	44.37
332.138	32.08
332.35	152.92
332.563	38.23
332.776	25.94
332.989	73.04
333.202	5.46
333.414	58.71
333.627	66.9
333.84	19.8
334.053	71
334.265	103.76
334.478	93.52
334.691	15.7
334.903	101.72
335.116	15.7
335.329	66.9
335.541	75.09
335.754	130.39
335.966	64.85
336.179	30.04
336.392	9.56
336.604	103.76
336.817	38.23
337.029	54.61
337.242	85.33
337.454	48.47
337.667	15.7
337.88	48.47
338.092	15.7
338.305	114
338.517	71
338.729	44.37
338.942	75.09
339.154	21.85
339.367	87.38
339.579	97.62
339.792	58.71
340.004	64.85
340.217	34.13
340.429	89.43
340.641	17.75
340.854	44.37
341.066	71
341.278	111.96
341.491	111.96
341.703	-10.92
341.915	64.85
342.128	105.81
342.34	77.14
342.552	114
342.764	38.23
342.977	44.37
343.189	36.18
343.401	79.19
343.613	21.85
343.826	99.67
344.038	38.23
344.25	81.24
344.462	1.37
344.674	79.19
344.886	68.95
345.099	21.85
345.311	42.32
345.523	27.99
345.735	13.65
345.947	-21.16
346.159	138.58
346.371	111.96
346.583	21.85
346.795	81.24
347.007	-4.78
347.219	77.14
347.431	64.85
347.643	75.09
347.855	-6.83
348.067	122.2
348.279	50.52
348.491	75.09
348.703	81.24
348.915	5.46
349.127	-35.5
349.339	81.24
349.551	-6.83
349.763	79.19
349.975	9.56
350.187	75.09
350.399	-6.83
350.61	75.09
350.822	64.85
351.034	38.23
351.246	97.62
351.458	103.76
351.669	103.76
351.881	58.71
352.093	85.33
352.305	101.72
352.517	38.23
352.728	114
352.94	56.66
353.152	126.29
353.363	87.38
353.575	68.95
353.787	58.71
353.999	66.9
354.21	130.39
354.422	52.56
354.633	21.85
354.845	118.1
355.057	32.08
355.268	107.86
355.48	101.72
355.692	73.04
355.903	128.34
356.115	89.43
356.326	-8.87
356.538	34.13
356.749	81.24
356.961	62.8
357.172	62.8
357.384	116.05
357.595	132.44
357.807	101.72
358.018	83.28
358.23	38.23
358.441	56.66
358.653	138.58
358.864	79.19
359.075	68.95
359.287	64.85
359.498	114
359.709	38.23
359.921	54.61
360.132	-6.83
360.344	116.05
360.555	83.28
360.766	64.85
360.977	68.95
361.189	134.48
361.4	13.65
361.611	136.53
361.823	75.09
362.034	95.57
362.245	58.71
362.456	66.9
362.667	58.71
362.879	101.72
363.09	71
363.301	52.56
363.512	73.04
363.723	93.52
363.935	13.65
364.146	68.95
364.357	134.48
364.568	116.05
364.779	32.08
364.99	140.63
365.201	62.8
365.412	148.82
365.623	44.37
365.834	56.66
366.045	30.04
366.256	81.24
366.467	58.71
366.678	83.28
366.889	75.09
367.1	187.73
367.311	23.89
367.522	68.95
367.733	30.04
367.944	46.42
368.155	-0.68
368.366	128.34
368.577	105.81
368.788	81.24
368.999	21.85
369.209	83.28
369.42	103.76
369.631	111.96
369.842	101.72
370.053	64.85
370.264	46.42
370.474	64.85
370.685	-2.73
370.896	89.43
371.107	150.87
371.317	103.76
371.528	99.67
371.739	60.76
371.95	56.66
372.16	81.24
372.371	58.71
372.582	77.14
372.792	1.37
373.003	91.48
373.214	87.38
373.424	-0.68
373.635	50.52
373.846	50.52
374.056	32.08
374.267	136.53
374.477	89.43
374.688	9.56
374.898	50.52
375.109	120.15
375.319	95.57
375.53	130.39
375.74	85.33
375.951	136.53
376.161	97.62
376.372	89.43
376.582	9.56
376.793	107.86
377.003	46.42
377.214	42.32
377.424	75.09
377.635	23.89
377.845	116.05
378.055	107.86
378.266	-6.83
378.476	66.9
378.686	77.14
378.897	46.42
379.107	13.65
379.317	25.94
379.528	-33.45
379.738	99.67
379.948	54.61
380.158	99.67
380.369	68.95
380.579	138.58
380.789	75.09
380.999	118.1
381.21	134.48
381.42	128.34
381.63	50.52
381.84	154.96
382.05	1.37
382.261	99.67
382.471	7.51
382.681	75.09
382.891	38.23
383.101	93.52
383.311	50.52
383.521	50.52
383.731	111.96
383.941	54.61
384.151	118.1
384.361	101.72
384.571	75.09
384.781	126.29
384.991	134.48
385.201	114
385.411	11.61
385.621	132.44
385.831	71
386.041	107.86
386.251	107.86
386.461	114
386.671	54.61
386.881	42.32
387.091	130.39
387.301	91.48
387.511	126.29
387.72	130.39
387.93	118.1
388.14	60.76
388.35	140.63
388.56	130.39
388.769	118.1
388.979	64.85
389.189	17.75
389.399	93.52
389.609	71
389.818	-12.97
390.028	99.67
390.238	130.39
390.447	58.71
390.657	89.43
390.867	40.28
391.076	58.71
391.286	136.53
391.496	101.72
391.705	101.72
391.915	91.48
392.125	54.61
392.334	27.99
392.544	138.58
392.753	77.14
392.963	58.71
393.172	62.8
393.382	64.85
393.591	146.77
393.801	75.09
394.01	109.91
394.22	175.44
394.429	34.13
394.639	173.39
394.848	58.71
395.058	91.48
395.267	142.68
395.477	81.24
395.686	103.76
395.895	124.24
396.105	202.07
396.314	157.01
396.524	75.09
396.733	56.66
396.942	202.07
397.152	181.59
397.361	185.68
397.57	171.35
397.78	146.77
397.989	204.11
398.198	210.26
398.407	163.15
398.617	189.78
398.826	124.24
399.035	140.63
399.244	114
399.453	85.33
399.663	191.83
399.872	175.44
400.081	130.39
400.29	183.63
400.499	130.39
400.708	150.87
400.917	171.35
401.127	163.15
401.336	134.48
401.545	251.22
401.754	206.16
401.963	136.53
402.172	247.12
402.381	171.35
402.59	130.39
402.799	177.49
403.008	236.88
403.217	173.39
403.426	130.39
403.635	95.57
403.844	177.49
404.053	181.59
404.262	152.92
404.471	208.21
404.68	185.68
404.888	212.31
405.097	230.74
405.306	253.27
405.515	304.46
405.724	218.45
405.933	206.16
406.142	193.87
406.35	238.93
406.559	288.08
406.768	232.79
406.977	300.37
407.185	214.35
407.394	335.18
407.603	191.83
407.812	247.12
408.02	370
408.229	386.38
408.438	341.33
408.646	331.09
408.855	312.66
409.064	341.33
409.272	394.58
409.481	435.53
409.69	402.77
409.898	460.11
410.107	404.82
410.315	386.38
410.524	431.44
410.733	458.06
410.941	441.68
411.15	423.25
411.358	552.27
411.567	505.17
411.775	640.33
411.984	535.89
412.192	638.28
412.401	654.67
412.609	664.91
412.818	640.33
413.026	750.92
413.234	671.05
413.443	677.19
413.651	681.29
413.86	798.03
414.068	830.79
414.276	808.27
414.485	820.55
414.693	822.6
414.901	916.81
415.11	974.15
415.318	957.77
415.526	1031.49
415.734	1013.06
415.943	1140.04
416.151	1176.9
416.359	1170.76
416.567	1168.71
416.776	1246.53
416.984	1324.35
417.192	1293.63
417.4	1424.7
417.608	1402.18
417.817	1367.36
418.025	1531.2
418.233	1602.88
418.441	1471.81
418.649	1660.22
418.857	1760.57
419.065	1738.04
419.273	1772.86
419.481	1787.19
419.689	1965.37
419.897	2125.11
420.105	2178.36
420.313	2172.21
420.521	2262.32
420.729	2342.19
420.937	2309.43
421.145	2342.19
421.353	2585.9
421.561	2590
421.769	2737.45
421.977	2862.38
422.185	2835.75
422.393	3122.47
422.601	3136.81
422.809	3061.03
423.017	3169.57
423.224	3323.17
423.432	3482.91
423.64	3433.76
423.848	3800.35
424.056	3585.31
424.263	4013.34
424.471	4013.34
424.679	3841.31
424.887	4228.37
425.094	4312.34
425.302	4429.07
425.51	4541.71
425.718	4828.43
425.925	4721.93
426.133	4928.78
426.341	5201.16
426.548	5444.87
426.756	5569.79
426.964	5602.56
427.171	5938.43
427.379	5956.86
427.586	6118.65
427.794	6237.43
428.001	6554.87
428.209	6857.96
428.417	6728.94
428.624	7126.25
428.832	7316.71
429.039	7288.04
429.247	7185.64
429.454	7918.81
429.662	8414.42
429.869	7949.53
430.076	8502.48
430.284	8422.61
430.491	8645.84
430.699	9049.29
430.906	9024.72
431.114	9176.27
431.321	9678.02
431.528	9800.9
431.736	10163.39
431.943	10951.85
432.15	10353.85
432.358	10548.4
432.565	11091.12
432.772	11072.68
432.979	11451.56
433.187	11988.13
433.394	12149.92
433.601	12702.87
433.808	12729.49
434.016	12803.22
434.223	13096.08
434.43	14029.95
434.637	13581.45
434.844	14681.21
435.052	15064.18
435.259	14640.25
435.466	14881.91
435.673	15055.98
435.88	15926.37
436.087	16759.89
436.294	16675.93
436.501	16215.13
436.708	16657.5
436.915	17263.69
437.122	18146.37
437.329	18093.12
437.537	18621.5
437.743	18992.18
437.95	18635.83
438.157	19649.58
438.364	20227.1
438.571	20132.9
438.778	20349.98
438.985	22119.43
439.192	21298.19
439.399	22176.77
439.606	21453.84
439.813	22834.17
440.02	24232.93
440.227	23733.23
440.433	23561.2
440.64	24447.97
440.847	24282.08
441.054	24816.6
441.261	26538.94
441.467	26112.97
441.674	26561.47
441.881	27384.76
442.088	27493.3
442.294	26774.46
442.501	27911.08
442.708	28343.2
442.914	29815.69
443.121	30622.59
443.328	30163.85
443.534	32285.54
443.741	31310.71
443.948	30987.13
444.154	32998.24
444.361	33051.48
444.568	33377.11
444.774	32938.85
444.981	33651.54
445.187	34566.98
445.394	35683.12
445.6	35463.99
445.807	38855.43
446.013	36803.36
446.22	37999.38
446.426	39287.55
446.633	39820.02
446.839	41183.97
447.046	39398.14
447.252	41429.73
447.459	41259.74
447.665	41421.53
447.871	42971.85
448.078	44839.59
448.284	42814.15
448.491	44040.89
448.697	46011.03
448.903	46205.59
449.11	46422.67
449.316	45783.71
449.522	46340.75
449.728	47727.23
449.935	48247.41
450.141	47764.09
450.347	48872.04
450.553	47723.13
450.76	48151.16
450.966	49597.02
451.172	49146.47
451.378	50530.9
451.584	49570.4
451.791	50522.71
451.997	50604.63
452.203	51085.9
452.409	50897.48
452.615	51300.93
452.821	49367.65
453.027	48527.98
453.233	51038.79
453.44	49402.47
453.646	50023
453.852	49726.05
454.058	50768.46
454.264	49250.92
454.47	50678.35
454.676	49287.78
454.882	50911.82
455.088	46062.23
455.294	47049.35
455.5	47848.06
455.705	48222.84
455.911	46828.17
456.117	45501.09
456.323	45001.38
456.529	42984.13
456.735	44585.64
456.941	42959.56
457.147	42756.81
457.352	41792.22
457.558	41003.75
457.764	41085.67
457.97	40338.16
458.176	39353.08
458.381	39359.23
458.587	37663.51
458.793	37630.74
458.999	35662.65
459.204	37899.03
459.41	36881.19
459.616	34638.66
459.821	34642.76
460.027	34444.1
460.233	33682.26
460.438	32172.91
460.644	32846.69
460.85	31210.36
461.055	30548.87
461.261	30362.5
461.466	28314.53
461.672	27165.62
461.878	29295.51
462.083	27237.3
462.289	27079.61
462.494	26696.64
462.7	25437.14
462.905	24726.49
463.111	25580.49
463.316	25578.45
463.522	24986.58
463.727	25220.05
463.932	25033.69
464.138	24824.79
464.343	25320.4
464.549	24200.16
464.754	24906.71
464.959	25000.92
465.165	24728.54
465.37	23604.21
465.575	23118.84
465.781	23976.94
465.986	24286.18
466.191	23110.64
466.397	22725.63
466.602	21439.5
466.807	22363.14
467.012	22572.03
467.218	22150.15
467.423	21781.51
467.628	22373.38
467.833	23200.76
468.038	22207.49
468.244	21824.52
468.449	22490.11
468.654	21656.59
468.859	21556.24
469.064	21703.69
469.269	20706.33
469.474	20739.1
469.679	21255.18
469.885	20407.33
470.09	20943.89
470.295	20648.99
470.5	20159.52
470.705	20282.4
470.91	19842.09
471.115	19833.89
471.32	20073.51
471.525	19788.84
471.73	19375.15
471.935	19297.33
472.139	18607.16
472.344	19180.59
472.549	18814.01
472.754	18797.62
472.959	18011.2
473.164	17884.23
473.369	17673.29
473.574	18224.19
473.778	18089.03
473.983	17595.46
474.188	17974.34
474.393	16936.02
474.598	17269.84
474.802	16862.29
475.007	16927.83
475.212	16714.84
475.417	16317.53
475.621	16086.11
475.826	16323.68
476.031	16030.82
476.235	15592.55
476.44	16125.02
476.645	15467.63
476.849	15621.22
477.054	15436.91
477.259	15338.6
477.463	15004.78
477.668	14740.6
477.872	14965.87
478.077	14654.58
478.282	14335.1
478.486	14048.38
478.691	14343.29
478.895	14363.77
479.1	14197.88
479.304	13898.88
479.509	13698.18
479.713	14056.57
479.918	13565.06
480.122	13517.96
480.326	13800.58
480.531	13507.72
480.735	13472.9
480.94	13120.65
481.144	13986.94
481.348	13091.98
481.553	13446.28
481.757	12907.66
481.961	13085.84
482.166	13280.39
482.37	13020.3
482.574	12946.58
482.778	12938.38
482.983	13259.91
483.187	13149.32
483.391	13071.5
483.595	12874.9
483.8	12774.55
484.004	13175.95
484.208	12940.43
484.412	12792.98
484.616	12874.9
484.821	13010.06
485.025	12604.57
485.229	13061.26
485.433	12784.79
485.637	12909.71
485.841	13038.73
486.045	12745.87
486.249	13200.52
486.453	12795.03
486.657	12989.58
486.861	13028.49
487.065	12586.13
487.269	12831.89
487.473	12827.79
487.677	12862.61
487.881	12770.45
488.085	12694.68
488.289	12905.62
488.493	12825.75
488.697	13110.41
488.901	12956.82
489.105	12967.06
489.309	12958.86
489.512	13116.56
489.716	13120.65
489.92	13143.18
490.124	13061.26
490.328	13354.12
490.531	13081.74
490.735	13094.03
490.939	13384.84
491.143	12981.39
491.346	13171.85
491.55	13532.29
491.754	13573.25
491.958	13448.33
492.161	13587.59
492.365	13585.54
492.569	13816.96
492.772	13677.7
492.976	13788.29
493.18	13773.96
493.383	13941.89
493.587	13993.09
493.79	14046.33
493.994	13806.72
494.197	14029.95
494.401	14285.95
494.605	14388.35
494.808	14521.46
495.012	14572.66
495.215	14468.22
495.419	14668.92
495.622	14656.63
495.825	14972.02
496.029	14773.36
496.232	15260.78
496.436	15228.01
496.639	15574.12
496.843	15529.06
497.046	15797.35
497.249	15866.98
497.453	15955.04
497.656	16043.1
497.859	16182.37
498.063	16303.2
498.266	16403.55
498.469	16600.15
498.673	16749.65
498.876	17036.37
499.079	17247.31
499.282	17255.5
499.485	17462.35
499.689	17558.6
499.892	18050.11
500.095	18289.73
500.298	18447.42
500.501	18201.66
500.705	18816.05
500.908	18822.2
501.111	19106.87
501.314	19203.12
501.517	19242.03
501.72	19649.58
501.923	19733.54
502.126	19893.29
502.329	20329.5
502.532	20442.14
502.735	20403.23
502.938	20925.46
503.141	21066.77
503.344	21367.82
503.547	21277.71
503.75	21634.06
503.953	21871.62
504.156	22301.7
504.359	22248.45
504.562	22299.65
504.765	22901.75
504.968	22948.86
505.17	23227.38
505.373	23475.18
505.576	24019.94
505.779	24202.21
505.982	24239.08
506.185	24630.24
506.387	24763.36
506.59	24949.72
506.793	25557.97
506.996	25142.23
507.198	26287.04
507.401	25908.17
507.604	26334.15
507.807	26784.7
508.009	27009.98
508.212	26676.16
508.415	27386.8
508.617	27593.65
508.82	27579.31
509.022	27841.45
509.225	28046.25
509.428	28652.45
509.63	28873.63
509.833	29146.01
510.035	29442.96
510.238	29289.37
510.44	29997.96
510.643	30143.37
510.845	30794.62
511.048	30122.89
511.25	30923.65
511.453	30983.04
511.655	31955.82
511.858	31884.14
512.06	32283.5
512.262	32211.82
512.465	32346.98
512.667	33082.2
512.87	32955.23
513.072	33209.18
513.274	33790.8
513.477	34087.76
513.679	33928.02
513.881	34249.55
514.084	35035.97
514.286	35083.07
514.488	35074.88
514.69	35586.87
514.893	36059.95
515.095	36195.12
515.297	36361
515.499	36619.05
515.701	37145.37
515.904	37227.29
516.106	37460.76
516.308	37817.11
516.51	38259.47
516.712	38492.94
516.914	38722.31
517.116	39312.13
517.318	39107.33
517.52	39240.45
517.722	39967.48
517.925	40483.56
518.127	40837.86
518.329	40749.8
518.531	40614.63
518.733	41790.17
518.935	41579.23
519.136	41874.13
519.338	42011.35
519.54	42693.32
519.742	43180.74
519.944	42611.4
520.146	43532.99
520.348	43807.42
520.55	43766.46
520.752	44219.06
520.954	44929.7
521.155	44622.51
521.357	44956.33
521.559	45245.09
521.761	45675.16
521.963	45683.36
522.164	45965.98
522.366	45935.26
522.568	46461.58
522.77	47125.13
522.971	47233.67
523.173	46881.42
523.375	47348.35
523.576	47434.37
523.778	47690.37
523.98	47819.39
524.181	48204.41
524.383	47669.89
524.584	48415.35
524.786	48724.59
524.988	48589.42
525.189	48863.85
525.391	49703.52
525.592	49506.91
525.794	49805.92
525.995	49678.94
526.197	49754.72
526.398	49906.27
526.6	50293.33
526.801	50510.42
527.003	50348.63
527.204	50135.64
527.406	51006.03
527.607	51366.47
527.808	51112.52
528.01	50451.03
528.211	51051.08
528.412	52181.56
528.614	51726.91
528.815	51989.05
529.016	51892.8
529.218	51475.01
529.419	51882.56
529.62	51792.45
529.822	51784.26
530.023	51898.94
530.224	51853.89
530.425	52167.23
530.626	51931.71
530.828	51712.58
531.029	52445.75
531.23	51819.07
531.431	52161.08
531.632	52431.41
531.833	52728.37
532.035	52230.71
532.236	52730.42
532.437	52855.34
532.638	52724.27
532.839	52607.54
533.04	53150.25
533.241	52060.73
533.442	53105.19
533.643	52535.86
533.844	52664.88
534.045	52730.42
534.246	52447.8
534.447	52709.94
534.648	52750.9
534.849	52922.93
535.05	52003.39
535.251	52679.22
535.451	52359.73
535.652	52804.14
535.853	52683.31
536.054	52953.65
536.255	52316.73
536.456	52392.5
536.657	53180.97
536.857	52619.83
537.058	52439.61
537.259	52816.43
537.46	52466.23
537.66	52017.72
537.861	52933.17
538.062	52697.65
538.263	52611.63
538.463	52507.19
538.664	52697.65
538.865	52843.05
539.065	52746.8
539.266	52281.91
539.466	52816.43
539.667	52204.09
539.868	53045.8
540.068	52427.32
540.269	52359.73
540.469	52775.47
540.67	52636.21
540.87	52128.31
541.071	52501.04
541.271	52357.69
541.472	51829.31
541.672	52060.73
541.873	52185.66
542.073	51784.26
542.274	52851.25
542.474	51950.14
542.675	51378.76
542.875	52400.69
543.075	52720.18
543.276	51530.31
543.476	52376.12
543.676	51941.95
543.877	52451.89
544.077	52134.46
544.277	52089.4
544.478	51978.81
544.678	52064.83
544.878	51923.52
545.078	52048.44
545.279	52224.57
545.479	51800.64
545.679	51890.75
545.879	51890.75
546.079	52085.31
546.28	51690.05
546.48	51200.58
546.68	52091.45
546.88	51823.17
547.08	51712.58
547.28	51411.52
547.48	51118.67
547.68	51677.76
547.88	51247.69
548.081	51720.77
548.281	51513.92
548.481	51681.86
548.681	51776.06
548.881	51747.39
549.081	51731.01
549.28	51163.72
549.48	51696.19
549.68	51661.38
549.88	51960.38
550.08	51235.4
550.28	51706.43
550.48	51526.21
550.68	51681.86
550.88	51057.23
551.08	51393.09
551.279	51452.48
551.479	51042.89
551.679	51497.54
551.879	51192.39
552.079	51358.28
552.278	51456.58
552.478	51124.81
552.678	50971.21
552.878	51173.96
553.077	51130.95
553.277	50727.5
553.477	51296.84
553.676	51223.11
553.876	51196.49
554.076	50932.3
554.275	50907.72
554.475	50932.3
554.674	51249.74
554.874	50758.22
555.074	50920.01
555.273	50854.48
555.473	51051.08
555.672	50877
555.872	50371.16
556.071	50848.33
556.271	51145.29
556.47	50514.51
556.67	50231.89
556.869	50442.84
557.068	50707.02
557.268	50303.57
557.467	50614.86
557.667	50385.49
557.866	50797.13
558.065	50375.25
558.265	49971.8
558.464	50141.78
558.663	50563.67
558.863	49838.68
559.062	50621.01
559.261	49488.48
559.461	50569.81
559.66	49265.25
559.859	50162.26
560.058	49457.76
560.258	49721.95
560.457	49605.22
560.656	50066.01
560.855	49308.26
561.054	49951.32
561.253	49259.11
561.453	49519.2
561.652	49627.74
561.851	49488.48
562.05	49203.81
562.249	48693.87
562.448	49627.74
562.647	49451.62
562.846	49478.24
563.045	49017.45
563.244	48351.86
563.443	49443.43
563.642	48667.25
563.841	48714.35
564.04	48822.89
564.239	49433.19
564.438	48898.67
564.637	48444.02
564.836	48720.49
565.035	48147.06
565.234	48497.27
565.432	48345.72
565.631	47987.32
565.83	48704.11
566.029	48048.76
566.228	47889.02
566.427	48097.91
566.625	47932.03
566.824	47391.36
567.023	48228.98
567.222	47436.42
567.42	48253.56
567.619	47600.25
567.818	47610.49
568.016	47385.22
568.215	47878.78
568.414	47211.14
568.612	47655.55
568.811	47377.03
569.01	47471.23
569.208	46799.5
569.407	47428.23
569.605	46752.4
569.804	47362.69
570.002	47065.74
570.201	46654.09
570.4	46561.93
570.598	46428.82
570.797	46563.98
570.995	46494.35
571.193	46394
571.392	46258.84
571.59	46205.59
571.789	46152.34
571.987	45767.32
572.186	46095
572.384	45890.2
572.582	46058.13
572.781	45877.91
572.979	45744.8
573.177	45445.79
573.376	45697.69
573.574	45062.82
573.772	45912.73
573.971	45152.93
574.169	45163.17
574.367	44384.94
574.565	45296.29
574.763	44788.39
574.962	44671.66
575.16	44223.15
575.358	44927.66
575.556	44061.36
575.754	45005.48
575.952	44262.07
576.151	44534.45
576.349	44145.33
576.547	44571.31
576.745	44516.01
576.943	44006.07
577.141	43879.1
577.339	43913.91
577.537	43764.41
577.735	43913.91
577.933	43330.24
578.131	43717.31
578.329	43547.32
578.527	43203.27
578.725	43098.82
578.923	43291.33
579.121	43021
579.319	42543.82
579.516	43373.25
579.714	43121.35
579.912	42820.3
580.11	42609.36
580.308	42650.31
580.506	42480.33
580.704	41603.8
580.901	42261.2
581.099	42539.72
581.297	41945.81
581.495	42314.45
581.692	42140.37
581.89	41444.06
582.088	42169.04
582.285	41550.56
582.483	42210
582.681	41767.64
582.878	41253.6
583.076	41122.53
583.274	41661.15
583.471	40987.36
583.669	41089.76
583.866	41104.1
584.064	41138.91
584.262	40774.38
584.459	40880.87
584.657	40524.52
584.854	40680.17
585.052	40004.34
585.249	40379.12
585.447	40465.13
585.644	39539.45
585.841	40395.5
586.039	40434.41
586.236	39856.89
586.434	39662.33
586.631	39414.52
586.828	39490.3
587.026	39492.35
587.223	39893.75
587.42	39322.37
587.618	39424.76
587.815	39136
588.012	38734.6
588.21	38966.02
588.407	38869.76
588.604	38759.17
588.801	38146.83
588.999	38898.44
589.196	38314.76
589.393	38275.85
589.59	38234.89
589.787	38200.08
589.984	37780.24
590.182	37800.72
590.379	38390.54
590.576	37501.72
590.773	37782.29
590.97	37604.12
591.167	37929.75
591.364	37309.21
591.561	37354.27
591.758	36868.9
591.955	37223.2
592.152	37186.33
592.349	36985.63
592.546	37120.8
592.743	36657.96
592.94	36076.33
593.137	36485.93
593.334	36655.91
593.531	35978.03
593.727	36414.25
593.924	36209.45
594.121	35867.44
594.318	35783.48
594.515	35552.05
594.712	35949.36
594.908	35312.44
595.105	35750.71
595.302	35201.85
595.499	35425.08
595.696	35273.53
595.892	34915.14
596.089	35447.61
596.286	35230.52
596.482	34853.7
596.679	34530.12
596.876	34814.79
597.072	34618.18
597.269	34368.33
597.466	34288.46
597.662	34413.38
597.859	34048.85
598.055	34356.04
598.252	34286.41
598.448	34073.42
598.645	33815.38
598.841	33184.6
599.038	33885.01
599.234	33502.04
599.431	33461.08
599.627	33088.35
599.824	33362.78
600.02	33295.19
600.217	33186.65
600.413	32998.24
600.609	32764.77
600.806	32805.73
601.002	32772.96
601.198	32703.33
601.395	32324.46
601.591	32246.63
601.787	32467.81
601.984	31861.62
602.18	32672.61
602.376	32185.19
602.572	31871.85
602.769	31992.69
602.965	31640.43
603.161	31861.62
603.357	31361.91
603.553	31673.2
603.75	31779.7
603.946	31085.43
604.142	31257.46
604.338	31120.25
604.534	31126.39
604.73	30901.12
604.926	30763.9
605.122	30872.45
605.318	30657.41
605.514	30704.51
605.71	30342.02
605.906	30391.17
606.102	30505.86
606.298	30538.63
606.494	30360.45
606.69	30163.85
606.886	30413.7
607.082	30129.03
607.278	30135.18
607.474	29660.05
607.67	29914
607.866	29582.23
608.062	29621.14
608.257	29698.96
608.453	29877.13
608.649	29995.92
608.845	29533.07
609.041	29434.77
609.236	29510.55
609.432	29275.03
609.628	29326.23
609.824	29207.45
610.019	29184.92
610.215	29111.19
610.411	29121.43
610.606	28871.58
610.802	28980.12
610.998	28816.29
611.193	28988.31
611.389	28945.31
611.584	28810.14
611.78	28400.55
611.976	28715.94
612.171	29010.84
612.367	28656.54
612.562	28439.46
612.758	28267.43
612.953	28271.53
613.149	28500.9
613.344	28042.15
613.539	28773.28
613.735	28251.05
613.93	28507.04
614.126	28101.54
614.321	28453.8
614.517	28550.05
614.712	27945.9
614.907	27757.49
615.103	28036.01
615.298	27888.56
615.493	28216.23
615.688	27751.34
615.884	28056.49
616.079	27737.01
616.274	27564.98
616.47	27524.02
616.665	27433.91
616.86	27505.59
617.055	27536.31
617.25	27425.71
617.445	27343.8
617.641	27028.41
617.836	27052.98
618.031	26581.95
618.226	27130.81
618.421	26772.41
618.616	27231.16
618.811	26481.6
619.006	27091.9
619.201	26352.58
619.396	26467.27
619.591	26162.12
619.786	26461.12
619.981	26039.24
620.176	26555.33
620.371	25908.17
620.566	25752.52
620.761	25744.33
620.956	26072.01
621.151	25484.24
621.346	25588.69
621.541	25377.75
621.735	25347.03
621.93	25183.19
622.125	25187.28
622.32	24617.95
622.515	25033.69
622.709	24472.54
622.904	24939.48
623.099	24613.85
623.294	24370.15
623.488	24130.53
623.683	24249.32
623.878	23630.83
624.072	24128.49
624.267	23995.37
624.462	23563.25
624.656	23454.7
624.851	23684.08
625.046	23041.01
625.24	23292.91
625.435	23116.79
625.629	22762.49
625.824	22924.28
626.018	22801.4
626.213	22277.12
626.407	22717.43
626.602	21775.37
626.796	22182.91
626.991	22348.8
627.185	22168.58
627.38	21996.55
627.574	21758.99
627.768	21437.45
627.963	21314.58
628.157	21392.4
628.352	21367.82
628.546	20972.57
628.74	21234.71
628.935	20573.21
629.129	20726.81
629.323	20739.1
629.517	20704.28
629.712	20427.81
629.906	20329.5
630.1	19901.48
630.294	20173.86
630.489	19807.27
630.683	20446.24
630.877	19811.37
631.071	19797.03
631.265	19694.63
631.459	19586.09
631.653	19242.03
631.848	19661.87
632.042	19049.52
632.236	19162.16
632.43	18906.16
632.624	18930.74
632.818	18764.85
633.012	18525.24
633.206	18779.19
633.4	18541.63
633.594	18508.86
633.788	18480.19
633.982	18361.41
634.176	18170.94
634.369	17949.76
634.563	18279.49
634.757	17839.17
634.951	18033.73
635.145	17873.99
635.339	17912.9
635.533	17577.03
635.726	17435.72
635.92	17120.34
636.114	17362
636.308	17114.19
636.501	17093.71
636.695	17222.73
636.889	16884.82
637.083	16993.36
637.276	16585.82
637.47	16507.99
637.664	16616.54
637.857	16833.62
638.051	16487.51
638.244	16225.37
638.438	16311.39
638.632	16114.78
638.825	16028.77
639.019	15809.64
639.212	15801.44
639.406	15625.32
639.599	15705.19
639.793	15719.53
639.986	15504.49
640.18	15453.29
640.373	15457.39
640.567	15277.16
640.76	15383.66
640.954	15113.33
641.147	15047.79
641.34	15019.12
641.534	14838.9
641.727	15185.01
641.92	15060.08
642.114	14597.24
642.307	14939.25
642.5	14662.77
642.694	14294.14
642.887	14298.24
643.08	14636.15
643.273	14625.91
643.467	14238.84
643.66	14283.9
643.853	14175.36
644.046	13808.77
644.239	14234.75
644.432	13931.65
644.626	13896.83
644.819	13929.6
645.012	13786.24
645.205	13700.23
645.398	13311.11
645.591	13585.54
645.784	13501.58
645.977	13317.26
646.17	13188.24
646.363	13194.38
646.556	13038.73
646.749	13175.95
646.942	12844.18
647.135	12952.72
647.328	12946.58
647.521	12680.34
647.714	12547.22
647.907	12721.3
648.099	12547.22
648.292	12747.92
648.485	12412.06
648.678	12268.7
648.871	12375.19
649.064	12137.63
649.256	12303.51
649.449	12141.72
649.642	12209.31
649.835	11938.98
650.027	11834.53
650.22	12082.33
650.413	11635.88
650.605	11734.18
650.798	11791.52
650.991	11652.26
651.183	11601.06
651.376	11439.27
651.568	11807.91
651.761	11246.76
651.954	11533.48
652.146	11205.8
652.339	11302.06
652.531	11244.71
652.724	11146.41
652.916	10831.02
653.109	11164.84
653.301	11211.95
653.494	11228.33
653.686	10925.23
653.879	11001.01
654.071	10638.51
654.263	10628.28
654.456	10593.46
654.648	10767.54
654.84	10495.16
655.033	10486.97
655.225	10376.38
655.417	10319.03
655.61	10194.11
655.802	10431.67
655.994	10192.06
656.186	10286.26
656.379	10153.15
656.571	10122.43
656.763	9757.89
656.955	10030.27
657.148	10052.8
657.34	9936.06
657.532	9759.94
657.724	9684.16
657.916	9780.42
658.108	9438.41
658.3	9667.78
658.492	9479.36
658.684	9538.76
658.876	9411.78
659.068	9215.18
659.26	9200.84
659.452	9426.12
659.644	9436.36
659.836	9145.55
660.028	9174.22
660.22	9153.74
660.412	9059.53
660.604	9127.11
660.796	9108.68
660.988	8828.11
661.18	8774.86
661.372	8692.94
661.563	8758.48
661.755	8467.67
661.947	8639.7
662.139	8701.14
662.331	8649.94
662.522	8553.68
662.714	8496.34
662.906	8525.01
663.097	8295.64
663.289	8238.3
663.481	8395.99
663.673	8254.68
663.864	8146.14
664.056	8250.58
664.247	8185.05
664.439	7812.32
664.631	8121.56
664.822	8244.44
665.014	8107.23
665.205	8049.88
665.397	7892.19
665.588	7812.32
665.78	7779.55
665.971	7920.86
666.163	7832.8
666.354	7937.24
666.546	7761.12
666.737	7736.54
666.929	7767.26
667.12	7750.88
667.311	7523.55
667.503	7548.13
667.694	7433.44
667.885	7353.57
668.077	7349.48
668.268	7294.18
668.459	7398.63
668.651	7384.29
668.842	7269.61
669.033	7202.02
669.224	7095.53
669.416	7130.34
669.607	7183.59
669.798	6952.17
669.989	7032.04
670.18	6970.6
670.371	6974.7
670.563	6915.31
670.754	7040.23
670.945	6896.88
671.136	6857.96
671.327	6825.2
671.518	6763.76
671.709	6733.04
671.9	6839.53
672.091	6692.08
672.282	6616.3
672.473	6450.42
672.664	6536.43
672.855	6675.7
673.046	6780.14
673.237	6565.11
673.428	6491.38
673.619	6657.26
673.809	6434.04
674	6491.38
674.191	6413.56
674.382	6391.03
674.573	6429.94
674.764	6382.84
674.954	6204.66
675.145	6225.14
675.336	6245.62
675.527	6464.75
675.717	6262.01
675.908	6145.27
676.099	6235.38
676.289	6216.95
676.48	6106.36
676.671	6151.42
676.861	6081.78
677.052	6010.11
677.243	5965.05
677.433	6034.68
677.624	5926.14
677.814	5965.05
678.005	6055.16
678.195	6003.96
678.386	5919.99
678.576	6006.01
678.767	5823.74
678.957	5817.6
679.148	5948.67
679.338	5762.3
679.529	5729.53
679.719	5680.38
679.909	5643.52
680.1	5743.87
680.29	5694.72
680.481	5592.32
680.671	5801.21
680.861	5612.8
681.052	5577.98
681.242	5412.1
681.432	5625.09
681.622	5395.72
681.813	5502.21
682.003	5584.13
682.193	5524.74
682.383	5553.41
682.573	5504.26
682.764	5358.85
682.954	5571.84
683.144	5508.35
683.334	5328.13
683.524	5319.94
683.714	5528.83
683.904	5389.57
684.094	5332.23
684.284	5121.29
684.474	5088.52
684.664	5217.54
684.854	5305.6
685.044	5119.24
685.234	5166.34
685.424	5248.26
685.614	5141.77
685.804	5217.54
685.994	4928.78
686.184	5172.49
686.374	5164.29
686.564	5006.6
686.753	5020.94
686.943	4883.72
687.133	4914.44
687.323	4830.48
687.513	4861.2
687.702	4971.79
687.892	4840.72
688.082	4828.43
688.272	4785.42
688.461	4779.28
688.651	4867.34
688.841	4791.56
689.03	4771.08
689.22	4744.46
689.41	4701.45
689.599	4824.33
689.789	4617.49
689.979	4609.3
690.168	4582.67
690.358	4459.79
690.547	4570.38
690.737	4367.63
690.926	4361.49
691.116	4410.64
691.305	4449.55
691.495	4431.12
691.684	4252.95
691.874	4232.47
692.063	4363.54
692.252	4158.74
692.442	4273.43
692.631	4275.48
692.82	4119.83
693.01	4265.24
693.199	4158.74
693.388	4072.73
693.578	4035.86
693.767	4125.97
693.956	4093.21
694.146	4021.53
694.335	4007.19
694.524	4123.93
694.713	4074.78
694.902	4017.43
695.092	4058.39
695.281	3996.95
695.47	3904.79
695.659	3931.42
695.848	3902.75
696.037	3896.6
696.226	4029.72
696.415	3792.16
696.604	3933.47
696.793	3851.55
696.982	3773.72
697.171	3718.43
697.36	3792.16
697.549	3659.04
697.738	3616.03
697.927	3683.61
698.116	3681.57
698.305	3630.37
698.494	3738.91
698.683	3536.16
698.872	3593.5
699.061	3648.8
699.25	3511.58
699.438	3570.97
699.627	3577.12
699.816	3511.58
700.005	3620.13
700.193	3546.4
700.382	3599.65
700.571	3466.53
700.76	3431.71
700.948	3560.74
701.137	3380.51
701.326	3544.35
701.514	3513.63
701.703	3460.38
701.892	3400.99
702.08	3419.43
702.269	3380.51
702.457	3347.75
702.646	3415.33
702.834	3319.07
703.023	3282.21
703.212	3312.93
703.4	3214.63
703.589	3284.26
703.777	3341.6
703.965	3171.62
704.154	3472.67
704.342	3386.66
704.531	3216.68
704.719	3343.65
704.907	3302.69
705.096	3132.71
705.284	3249.44
705.472	3222.82
705.661	3347.75
705.849	3237.16
706.037	3200.29
706.226	3247.4
706.414	3069.22
706.602	3077.41
706.79	3173.67
706.979	3140.9
707.167	3145
707.355	3036.45
707.543	3218.72
707.731	3181.86
707.919	3095.85
708.107	3058.98
708.296	3009.83
708.484	2923.82
708.672	3038.5
708.86	3091.75
709.048	3079.46
709.236	2942.25
709.424	3079.46
709.612	3220.77
709.8	3001.64
709.988	3075.37
710.176	2972.97
710.364	3093.8
710.551	2997.54
710.739	2899.24
710.927	2997.54
711.115	2970.92
711.303	2972.97
711.491	2977.06
711.679	3009.83
711.866	3024.17
712.054	3007.78
712.242	2925.86
712.43	3044.65
712.617	2907.43
712.805	2852.14
712.993	2938.15
713.181	2932.01
713.368	2970.92
713.556	3044.65
713.744	2839.85
713.931	2907.43
714.119	2823.47
714.306	2899.24
714.494	2903.34
714.682	2856.23
714.869	2743.6
715.057	2882.86
715.244	2868.52
715.432	2997.54
715.619	2856.23
715.807	2835.75
715.994	2946.34
716.182	2927.91
716.369	2821.42
716.556	2819.37
716.744	2805.03
716.931	2860.33
717.119	2960.68
717.306	2923.82
717.493	2864.43
717.681	2850.09
717.868	2811.18
718.055	2831.66
718.242	2874.67
718.43	2927.91
718.617	2784.55
718.804	2866.47
718.991	2811.18
719.179	2864.43
719.366	2813.23
719.553	2755.88
719.74	2794.79
719.927	2825.51
720.114	2936.1
720.301	2764.08
720.488	2841.9
720.676	2778.41
720.863	2905.39
721.05	2823.47
721.237	2749.74
721.424	2845.99
721.611	2774.32
721.798	2678.06
721.985	2772.27
722.172	2649.39
722.358	2829.61
722.545	2731.31
722.732	2850.09
722.919	2809.13
723.106	2782.51
723.293	2745.64
723.48	2780.46
723.667	2635.05
723.853	2802.99
724.04	2827.56
724.227	2782.51
724.414	2706.73
724.6	2684.2
724.787	2743.6
724.974	2798.89
725.161	2802.99
725.347	2747.69
725.534	2719.02
725.72	2755.88
725.907	2649.39
726.094	2870.57
726.28	2737.45
726.467	2805.03
726.653	2733.36
726.84	2778.41
727.027	2716.97
727.213	2735.4
727.4	2733.36
727.586	2772.27
727.773	2866.47
727.959	2839.85
728.145	2866.47
728.332	2843.95
728.518	2745.64
728.705	2792.75
728.891	2862.38
729.077	2710.83
729.264	2809.13
729.45	2731.31
729.636	2772.27
729.823	2848.04
730.009	2788.65
730.195	2845.99
730.382	2794.79
730.568	2831.66
730.754	2759.98
730.94	2790.7
731.126	2831.66
731.313	2934.06
731.499	2800.94
731.685	2864.43
731.871	2764.08
732.057	2835.75
732.243	2766.12
732.429	2889
732.615	2811.18
732.801	2741.55
732.987	2792.75
733.173	2837.8
733.359	2905.39
733.545	2811.18
733.731	2819.37
733.917	2821.42
734.103	2856.23
734.289	2882.86
734.475	2802.99
734.661	2807.08
734.847	2762.03
735.033	2757.93
735.219	2774.32
735.404	2850.09
735.59	2817.32
735.776	2889
735.962	2870.57
736.148	2850.09
736.333	2786.6
736.519	2831.66
736.705	2819.37
736.89	2821.42
737.076	2878.76
737.262	2968.87
737.447	2759.98
737.633	2870.57
737.819	2778.41
738.004	2809.13
738.19	2831.66
738.375	2864.43
738.561	2829.61
738.747	2780.46
738.932	2837.8
739.118	2839.85
739.303	2723.12
739.489	2686.25
739.674	2788.65
739.859	2854.19
740.045	2749.74
740.23	2637.1
740.416	2657.58
740.601	2821.42
740.786	2671.92
740.972	2569.52
741.157	2762.03
741.342	2647.34
741.528	2719.02
741.713	2651.44
741.898	2774.32
742.084	2751.79
742.269	2602.29
742.454	2704.68
742.639	2680.11
742.824	2663.72
743.01	2768.17
743.195	2712.88
743.38	2643.24
743.565	2729.26
743.75	2663.72
743.935	2635.05
744.12	2696.49
744.305	2534.7
744.49	2706.73
744.675	2563.37
744.86	2604.33
745.045	2565.42
745.23	2479.41
745.415	2540.85
745.6	2626.86
745.785	2546.99
745.97	2471.22
746.155	2544.94
746.34	2565.42
746.525	2594.09
746.71	2411.82
746.895	2503.98
747.079	2512.18
747.264	2563.37
747.449	2446.64
747.634	2311.47
747.819	2286.9
748.003	2512.18
748.188	2374.96
748.373	2368.82
748.557	2286.9
748.742	2350.39
748.927	2309.43
749.111	2383.15
749.296	2331.95
749.481	2366.77
749.665	2352.43
749.85	2389.3
750.034	2286.9
750.219	2229.56
750.404	2178.36
750.588	2217.27
750.773	2200.88
750.957	2262.32
751.141	2186.55
751.326	2129.2
751.51	2043.19
751.695	2221.36
751.879	2241.84
752.064	2121.01
752.248	2141.49
752.432	2102.58
752.617	2035
752.801	2147.64
752.985	2016.57
753.17	2041.14
753.354	2065.72
753.538	1989.94
753.722	1955.13
753.907	1985.85
754.091	2008.37
754.275	1893.69
754.459	1930.55
754.643	1914.17
754.828	1979.7
755.012	1951.03
755.196	1871.16
755.38	1881.4
755.564	1908.02
755.748	1760.57
755.932	1838.39
756.116	1908.02
756.3	1811.77
756.484	1838.39
756.668	1785.15
756.852	1676.6
757.036	1729.85
757.22	1670.46
757.404	1813.82
757.588	1752.38
757.772	1619.26
757.956	1717.56
758.14	1725.75
758.323	1688.89
758.507	1692.99
758.691	1682.75
758.875	1725.75
759.059	1707.32
759.242	1637.69
759.426	1758.52
759.61	1584.45
759.794	1682.75
759.977	1613.12
760.161	1719.61
760.345	1617.21
760.528	1566.01
760.712	1475.9
760.895	1539.39
761.079	1504.57
761.263	1514.81
761.446	1453.38
761.63	1559.87
761.813	1568.06
761.997	1570.11
762.18	1629.5
762.364	1463.62
762.547	1387.84
762.731	1422.66
762.914	1416.51
763.098	1383.74
763.281	1393.98
763.464	1381.7
763.648	1404.22
763.831	1414.46
764.015	1363.26
764.198	1471.81
764.381	1467.71
764.564	1344.83
764.748	1385.79
764.931	1426.75
765.114	1353.02
765.297	1385.79
765.481	1416.51
765.664	1389.89
765.847	1375.55
766.03	1344.83
766.213	1350.98
766.397	1432.9
766.58	1346.88
766.763	1297.73
766.946	1310.02
767.129	1348.93
767.312	1236.29
767.495	1346.88
767.678	1193.28
767.861	1334.59
768.044	1293.63
768.227	1330.5
768.41	1248.58
768.593	1385.79
768.776	1252.67
768.959	1234.24
769.142	1291.59
769.324	1295.68
769.507	1248.58
769.69	1301.83
769.873	1152.32
770.056	1291.59
770.239	1189.19
770.421	1170.76
770.604	1195.33
770.787	1230.15
770.97	1183.04
771.152	1158.47
771.335	1238.34
771.518	1158.47
771.7	1250.63
771.883	1156.42
772.066	1111.36
772.248	1183.04
772.431	1135.94
772.613	1078.6
772.796	1027.4
772.978	1168.71
773.161	1047.88
773.343	1144.13
773.526	1090.88
773.708	1013.06
773.891	1066.31
774.073	1070.4
774.256	984.39
774.438	1045.83
774.621	1111.36
774.803	1072.45
774.985	984.39
775.168	1066.31
775.35	996.68
775.532	955.72
775.715	1013.06
775.897	935.24
776.079	925
776.261	965.96
776.444	896.33
776.626	1080.64
776.808	927.05
776.99	955.72
777.173	935.24
777.355	873.8
777.537	1008.97
777.719	1004.87
777.901	1025.35
778.083	888.14
778.265	810.31
778.447	976.2
778.629	779.59
778.811	873.8
778.993	939.34
779.175	820.55
779.357	841.03
779.539	781.64
779.721	836.94
779.903	859.46
780.085	818.5
780.267	740.68
780.449	783.69
780.631	894.28
780.812	802.12
780.994	820.55
781.176	718.15
781.358	689.48
781.54	701.77
781.721	724.3
781.903	734.54
782.085	714.06
782.267	783.69
782.448	718.15
782.63	732.49
782.812	703.82
782.993	732.49
783.175	679.24
783.357	701.77
783.538	734.54
783.72	709.96
783.901	648.52
784.083	712.01
784.264	685.39
784.446	636.24
784.627	648.52
784.809	619.85
784.99	576.84
785.172	724.3
785.353	716.11
785.535	636.24
785.716	671.05
785.897	656.72
786.079	613.71
786.26	632.14
786.441	615.76
786.623	574.8
786.804	664.91
786.985	560.46
787.167	677.19
787.348	599.37
787.529	595.28
787.71	593.23
787.891	531.79
788.073	580.94
788.254	539.98
788.435	611.66
788.616	562.51
788.797	521.55
788.978	619.85
789.159	531.79
789.34	527.69
789.522	539.98
789.703	548.17
789.884	494.93
790.065	531.79
790.246	517.45
790.427	505.17
790.607	533.84
790.788	527.69
790.969	435.53
791.15	509.26
791.331	492.88
791.512	509.26
791.693	470.35
791.874	443.73
792.054	544.08
792.235	451.92
792.416	476.49
792.597	486.73
792.778	505.17
792.958	472.4
793.139	509.26
793.32	470.35
793.5	347.47
793.681	427.34
793.862	456.01
794.042	456.01
794.223	402.77
794.404	453.97
794.584	372.05
794.765	472.4
794.945	511.31
795.126	451.92
795.306	447.82
795.487	394.58
795.667	400.72
795.848	451.92
796.028	351.57
796.209	466.25
796.389	374.1
796.57	423.25
796.75	400.72
796.93	431.44
797.111	341.33
797.291	388.43
797.471	361.81
797.652	386.38
797.832	337.23
798.012	361.81
798.192	419.15
798.373	396.62
798.553	363.86
798.733	386.38
798.913	347.47
799.093	288.08
799.274	310.61
799.454	294.22
799.634	419.15
799.814	408.91
799.994	316.75
800.174	406.86
800.354	372.05
800.534	320.85
800.714	324.94
800.894	335.18
801.074	349.52
801.254	324.94
801.434	392.53
801.614	382.29
801.794	310.61
801.974	755.02
802.154	335.18
802.334	355.66
802.514	288.08
802.693	357.71
802.873	355.66
803.053	400.72
803.233	357.71
803.413	322.9
803.592	259.41
803.772	306.51
803.952	353.62
804.131	281.94
804.311	349.52
804.491	271.7
804.67	306.51
804.85	347.47
805.03	275.79
805.209	345.42
805.389	257.36
805.568	271.7
805.748	304.46
805.928	288.08
806.107	324.94
806.287	157.01
806.466	349.52
806.646	281.94
806.825	263.51
807.004	251.22
807.184	337.23
807.363	300.37
807.543	269.65
807.722	224.59
807.901	279.89
808.081	281.94
808.26	286.03
808.439	267.6
808.619	251.22
808.798	245.07
808.977	322.9
809.156	269.65
809.336	333.14
809.515	275.79
809.694	275.79
809.873	292.18
810.052	245.07
810.231	298.32
810.411	333.14
810.59	251.22
810.769	283.99
810.948	247.12
811.127	95.57
811.306	243.03
811.485	245.07
811.664	251.22
811.843	232.79
812.022	218.45
812.201	163.15
812.38	257.36
812.559	177.49
812.737	210.26
812.916	236.88
813.095	204.11
813.274	302.42
813.453	245.07
813.632	175.44
813.811	234.83
813.989	179.54
814.168	247.12
814.347	171.35
814.526	202.07
814.704	249.17
814.883	208.21
815.062	120.15
815.24	161.11
815.419	191.83
815.598	226.64
815.776	163.15
815.955	165.2
816.133	157.01
816.312	210.26
816.49	228.69
816.669	175.44
816.847	195.92
817.026	181.59
817.204	173.39
817.383	214.35
817.561	169.3
817.74	185.68
817.918	189.78
818.097	243.03
818.275	159.06
818.453	195.92
818.632	218.45
818.81	163.15
818.988	177.49
819.167	120.15
819.345	183.63
819.523	142.68
819.701	261.46
819.879	265.55
820.058	157.01
820.236	206.16
820.414	148.82
820.592	144.72
820.77	148.82
820.948	142.68
821.127	167.25
821.305	208.21
821.483	77.14
821.661	136.53
821.839	159.06
822.017	177.49
822.195	175.44
822.373	136.53
822.551	204.11
822.729	177.49
822.907	197.97
823.085	62.8
823.262	95.57
823.44	181.59
823.618	150.87
823.796	142.68
823.974	140.63
824.152	97.62
824.329	97.62
824.507	187.73
824.685	175.44
824.863	183.63
825.04	152.92
825.218	154.96
825.396	169.3
825.574	116.05
825.751	165.2
825.929	144.72
826.107	202.07
826.284	177.49
826.462	116.05
826.639	85.33
826.817	105.81
826.994	148.82
827.172	75.09
827.349	193.87
827.527	148.82
827.704	126.29
827.882	105.81
828.059	105.81
828.237	107.86
828.414	175.44
828.591	91.48
828.769	150.87
828.946	177.49
829.124	134.48
829.301	148.82
829.478	122.2
829.655	218.45
829.833	179.54
830.01	111.96
830.187	95.57
830.364	193.87
830.542	159.06
830.719	97.62
830.896	130.39
831.073	175.44
831.25	148.82
831.427	169.3
831.604	95.57
831.782	99.67
831.959	85.33
832.136	91.48
832.313	161.11
832.49	13.65
832.667	142.68
832.844	146.77
833.021	107.86
833.198	142.68
833.374	114
833.551	152.92
833.728	52.56
833.905	124.24
834.082	52.56
834.259	154.96
834.436	173.39
834.612	54.61
834.789	122.2
834.966	77.14
835.143	122.2
835.319	118.1
835.496	122.2
835.673	68.95
835.85	81.24
836.026	140.63
836.203	109.91
836.38	73.04
836.556	95.57
836.733	134.48
836.909	120.15
837.086	91.48
837.262	126.29
837.439	132.44
837.616	71
837.792	169.3
837.968	36.18
838.145	120.15
838.321	101.72
838.498	46.42
838.674	107.86
838.851	150.87
839.027	134.48
839.203	85.33
839.38	138.58
839.556	138.58
839.732	161.11
839.909	38.23
840.085	136.53
840.261	32.08
840.437	157.01
840.614	46.42
840.79	120.15
840.966	73.04
841.142	103.76
841.318	118.1
841.494	77.14
841.671	64.85
841.847	148.82
842.023	52.56
842.199	89.43
842.375	148.82
842.551	42.32
842.727	91.48
842.903	81.24
843.079	46.42
843.255	62.8
843.431	128.34
843.607	83.28
843.783	56.66
843.959	71
844.134	46.42
844.31	103.76
844.486	111.96
844.662	83.28
844.838	71
845.013	62.8
845.189	132.44
845.365	77.14
845.541	71
845.716	62.8
845.892	23.89
846.068	87.38
846.244	111.96
846.419	124.24
846.595	34.13
846.77	130.39
846.946	71
847.122	58.71
847.297	25.94
847.473	73.04
847.648	95.57
847.824	134.48
847.999	75.09
848.175	122.2
848.35	159.06
848.526	95.57
848.701	56.66
848.876	62.8
849.052	126.29
849.227	52.56
849.403	132.44
849.578	64.85
849.753	60.76
849.929	56.66
850.104	81.24
850.279	34.13
850.454	64.85
850.63	99.67
850.805	46.42
850.98	89.43
851.155	83.28
851.33	3.41
851.505	85.33
851.681	89.43
851.856	9.56
852.031	130.39
852.206	-23.21
852.381	81.24
852.556	89.43
852.731	81.24
852.906	148.82
853.081	169.3
853.256	111.96
853.431	85.33
853.606	-17.07
853.781	52.56
853.956	13.65
854.131	50.52
854.305	27.99
854.48	-27.31
854.655	42.32
854.83	21.85
855.005	46.42
855.18	48.47
855.354	-6.83
855.529	99.67
855.704	44.37
855.879	99.67
856.053	15.7
856.228	56.66
856.403	81.24
856.577	87.38
856.752	-10.92
856.926	38.23
857.101	30.04
857.276	9.56
857.45	91.48
857.625	95.57
857.799	89.43
857.974	-49.83
858.148	-17.07
858.323	64.85
858.497	66.9
858.672	97.62
858.846	38.23
859.02	25.94
859.195	42.32
859.369	5.46
859.543	50.52
859.718	50.52
859.892	40.28
860.066	99.67
860.241	30.04
860.415	1.37
860.589	95.57
860.763	111.96
860.938	-10.92
861.112	15.7
861.286	66.9
861.46	1.37
861.634	44.37
861.808	21.85
861.982	54.61
862.157	91.48
862.331	-33.45
862.505	52.56
862.679	44.37
862.853	128.34
863.027	128.34
863.201	83.28
863.375	-15.02
863.549	54.61
863.722	46.42
863.896	87.38
864.07	32.08
864.244	99.67
864.418	38.23
864.592	68.95
864.766	21.85
864.939	38.23
865.113	-21.16
865.287	3.41
865.461	-25.26
865.634	122.2
865.808	75.09
865.982	3.41
866.156	-47.79
866.329	-23.21
866.503	21.85
866.676	50.52
866.85	13.65
867.024	58.71
867.197	34.13
867.371	5.46
867.544	-21.16
867.718	56.66
867.891	89.43
868.065	11.61
868.238	-55.98
868.412	25.94
868.585	5.46
868.759	-15.02
868.932	71
869.105	89.43
869.279	97.62
869.452	-8.87
869.625	-43.69
869.799	21.85
869.972	17.75
870.145	5.46
870.319	5.46
870.492	-4.78
870.665	34.13
870.838	3.41
871.011	-29.35
871.185	46.42
871.358	-17.07
871.531	142.68
871.704	52.56
871.877	13.65
872.05	95.57
872.223	34.13
872.396	50.52
872.569	44.37
872.742	-2.73
872.915	54.61
873.088	-19.11
873.261	-21.16
873.434	105.81
873.607	23.89
873.78	66.9
873.953	-15.02
874.126	62.8
874.299	-15.02
874.471	77.14
874.644	36.18
874.817	5.46
874.99	97.62
875.163	11.61
875.335	50.52
875.508	30.04
875.681	-12.97
875.853	-33.45
876.026	5.46
876.199	7.51
876.371	77.14
876.544	25.94
876.717	44.37
876.889	36.18
877.062	30.04
877.234	36.18
877.407	17.75
877.579	54.61
877.752	46.42
877.924	3.41
878.097	87.38
878.269	101.72
878.442	50.52
878.614	83.28
878.786	56.66
878.959	40.28
879.131	60.76
879.303	99.67
879.476	56.66
879.648	81.24
879.82	13.65
879.993	-8.87
880.165	17.75
880.337	-10.92
880.509	34.13
880.681	23.89
880.854	87.38
881.026	25.94
881.198	30.04
881.37	25.94
881.542	-47.79
881.714	54.61
881.886	-15.02
882.058	54.61
882.23	-12.97
882.402	21.85
882.574	-8.87
882.746	34.13
882.918	23.89
883.09	89.43
883.262	32.08
883.434	21.85
883.606	11.61
883.778	50.52
883.95	66.9
884.122	-55.98
884.293	27.99
884.465	9.56
884.637	36.18
884.809	21.85
884.98	17.75
885.152	38.23
885.324	56.66
885.496	-31.4
885.667	56.66
885.839	-17.07
886.011	64.85
886.182	15.7
886.354	79.19
886.525	11.61
886.697	21.85
886.869	21.85
887.04	75.09
887.212	-8.87
887.383	46.42
887.555	-0.68
887.726	107.86
887.897	-25.26
888.069	36.18
888.24	34.13
888.412	-72.36
888.583	21.85
888.754	-64.17
888.926	-64.17
889.097	-25.26
889.268	-15.02
889.44	68.95
889.611	25.94
889.782	30.04
889.953	-31.4
890.125	54.61
890.296	27.99
890.467	42.32
890.638	23.89
890.809	19.8
890.98	11.61
891.151	56.66
891.323	128.34
891.494	-6.83
891.665	46.42
891.836	40.28
892.007	83.28
892.178	62.8
892.349	87.38
892.52	21.85
892.691	17.75
892.862	27.99
893.032	-25.26
893.203	99.67
893.374	5.46
893.545	42.32
893.716	15.7
893.887	58.71
894.057	-45.74
894.228	62.8
894.399	25.94
894.57	62.8
894.74	-35.5
894.911	-15.02
895.082	-8.87
895.253	21.85
895.423	62.8
895.594	34.13
895.764	3.41
895.935	-12.97
896.106	40.28
896.276	15.7
896.447	25.94
896.617	13.65
896.788	34.13
896.958	52.56
897.129	-6.83
897.299	11.61
897.47	25.94
897.64	77.14
897.81	17.75
897.981	54.61
898.151	-31.4
898.322	-2.73
898.492	-39.59
898.662	-8.87
898.832	5.46
899.003	32.08
899.173	-27.31
899.343	-47.79
899.513	-2.73
