Data from USB4F104151__2__11-44-22-195.txt Node

Date: Fri Mar 14 11:44:22 EDT 2025
User: louis
Spectrometer: USB4F10415
Trigger mode: 4
Integration Time (sec): 2.000000E-2
Scans to average: 1
Electric dark correction enabled: true
Nonlinearity correction enabled: false
Boxcar width: 0
XAxis mode: Wavelengths
Number of Pixels in Spectrum: 3648
>>>>>Begin Spectral Data<<<<<
178.204	-75.77
178.424	-75.77
178.644	-75.77
178.864	-69.63
179.084	-34.82
179.304	-2.05
179.524	-16.38
179.744	10.24
179.964	75.77
180.184	-2.05
180.404	2.05
180.624	26.62
180.844	-14.34
181.064	28.67
181.283	-14.34
181.503	-63.49
181.723	-30.72
181.943	-18.43
182.163	16.38
182.383	22.53
182.602	24.58
182.822	20.48
183.042	61.44
183.262	75.77
183.482	51.2
183.701	-63.49
183.921	45.06
184.141	-36.86
184.361	28.67
184.58	26.62
184.8	0
185.02	43.01
185.239	57.34
185.459	40.96
185.679	26.62
185.898	-63.49
186.118	2.05
186.338	40.96
186.557	28.67
186.777	-4.1
186.997	26.62
187.216	45.06
187.436	6.14
187.655	26.62
187.875	20.48
188.095	-12.29
188.314	12.29
188.534	26.62
188.753	-8.19
188.973	67.58
189.192	79.87
189.412	32.77
189.631	88.06
189.851	28.67
190.07	57.34
190.29	-14.34
190.509	20.48
190.729	22.53
190.948	20.48
191.168	55.3
191.387	-6.14
191.607	94.21
191.826	-20.48
192.045	32.77
192.265	-6.14
192.484	40.96
192.704	47.1
192.923	-26.62
193.142	90.11
193.362	-14.34
193.581	120.83
193.8	57.34
194.02	36.86
194.239	-6.14
194.458	22.53
194.678	-59.39
194.897	36.86
195.116	-2.05
195.335	28.67
195.555	-6.14
195.774	65.54
195.993	71.68
196.212	8.19
196.432	10.24
196.651	30.72
196.87	47.1
197.089	24.58
197.308	47.1
197.528	-26.62
197.747	-14.34
197.966	-2.05
198.185	55.3
198.404	0
198.623	32.77
198.842	-2.05
199.062	57.34
199.281	81.92
199.5	4.1
199.719	4.1
199.938	71.68
200.157	77.82
200.376	6.14
200.595	-14.34
200.814	-2.05
201.033	22.53
201.252	104.45
201.471	34.82
201.69	32.77
201.909	28.67
202.128	10.24
202.347	32.77
202.566	32.77
202.785	-10.24
203.004	18.43
203.223	96.25
203.442	-32.77
203.661	-28.67
203.879	0
204.098	8.19
204.317	18.43
204.536	10.24
204.755	-22.53
204.974	12.29
205.193	0
205.411	14.34
205.63	10.24
205.849	36.86
206.068	8.19
206.287	16.38
206.505	45.06
206.724	96.25
206.943	-51.2
207.162	28.67
207.381	6.14
207.599	14.34
207.818	-4.1
208.037	22.53
208.255	-18.43
208.474	28.67
208.693	49.15
208.911	10.24
209.13	-8.19
209.349	-22.53
209.567	0
209.786	6.14
210.005	26.62
210.223	51.2
210.442	0
210.661	20.48
210.879	40.96
211.098	-16.38
211.316	14.34
211.535	67.58
211.753	0
211.972	67.58
212.191	77.82
212.409	32.77
212.628	-24.58
212.846	-34.82
213.065	-26.62
213.283	67.58
213.502	8.19
213.72	6.14
213.938	-24.58
214.157	36.86
214.375	-12.29
214.594	6.14
214.812	20.48
215.031	-10.24
215.249	45.06
215.467	38.91
215.686	-20.48
215.904	-10.24
216.122	18.43
216.341	55.3
216.559	49.15
216.778	-2.05
216.996	43.01
217.214	51.2
217.432	0
217.651	4.1
217.869	4.1
218.087	34.82
218.306	40.96
218.524	81.92
218.742	10.24
218.96	26.62
219.179	-18.43
219.397	10.24
219.615	38.91
219.833	61.44
220.051	14.34
220.27	88.06
220.488	96.25
220.706	14.34
220.924	45.06
221.142	-6.14
221.36	8.19
221.578	0
221.796	22.53
222.015	71.68
222.233	-32.77
222.451	53.25
222.669	8.19
222.887	-22.53
223.105	14.34
223.323	30.72
223.541	-88.06
223.759	4.1
223.977	-22.53
224.195	51.2
224.413	40.96
224.631	40.96
224.849	63.49
225.067	16.38
225.285	120.83
225.503	-12.29
225.721	-12.29
225.939	-16.38
226.157	-18.43
226.375	32.77
226.592	6.14
226.81	65.54
227.028	40.96
227.246	86.01
227.464	49.15
227.682	47.1
227.9	77.82
228.117	94.21
228.335	49.15
228.553	22.53
228.771	67.58
228.989	38.91
229.206	40.96
229.424	8.19
229.642	69.63
229.86	38.91
230.077	-53.25
230.295	14.34
230.513	-57.34
230.731	8.19
230.948	34.82
231.166	83.97
231.384	51.2
231.601	67.58
231.819	28.67
232.037	53.25
232.254	90.11
232.472	40.96
232.689	-71.68
232.907	-6.14
233.125	0
233.342	2.05
233.56	-57.34
233.777	-2.05
233.995	-43.01
234.213	-104.45
234.43	94.21
234.648	40.96
234.865	-4.1
235.083	90.11
235.3	47.1
235.518	47.1
235.735	38.91
235.953	10.24
236.17	63.49
236.388	-12.29
236.605	10.24
236.822	77.82
237.04	-30.72
237.257	88.06
237.475	14.34
237.692	18.43
237.909	-4.1
238.127	47.1
238.344	43.01
238.562	-47.1
238.779	45.06
238.996	34.82
239.214	65.54
239.431	14.34
239.648	16.38
239.865	34.82
240.083	10.24
240.3	0
240.517	-65.53
240.735	-14.34
240.952	-34.82
241.169	38.91
241.386	-18.43
241.603	90.11
241.821	-22.53
242.038	8.19
242.255	6.14
242.472	32.77
242.689	30.72
242.907	40.96
243.124	30.72
243.341	14.34
243.558	4.1
243.775	38.91
243.992	-4.1
244.209	40.96
244.426	124.93
244.643	-14.34
244.86	38.91
245.078	22.53
245.295	38.91
245.512	-30.72
245.729	16.38
245.946	34.82
246.163	49.15
246.38	106.49
246.597	51.2
246.814	-32.77
247.031	24.58
247.248	69.63
247.464	55.3
247.681	-30.72
247.898	-30.72
248.115	22.53
248.332	38.91
248.549	16.38
248.766	51.2
248.983	6.14
249.2	-28.67
249.417	75.77
249.633	-32.77
249.85	40.96
250.067	34.82
250.284	-2.05
250.501	79.87
250.717	96.25
250.934	22.53
251.151	-26.62
251.368	-55.3
251.585	67.58
251.801	32.77
252.018	100.35
252.235	108.54
252.451	-45.06
252.668	10.24
252.885	49.15
253.102	40.96
253.318	6.14
253.535	24.58
253.752	63.49
253.968	-32.77
254.185	26.62
254.401	49.15
254.618	51.2
254.835	-22.53
255.051	26.62
255.268	38.91
255.484	24.58
255.701	83.97
255.917	51.2
256.134	22.53
256.351	45.06
256.567	-43.01
256.784	28.67
257	63.49
257.217	38.91
257.433	22.53
257.65	30.72
257.866	79.87
258.082	-10.24
258.299	26.62
258.515	14.34
258.732	22.53
258.948	-73.73
259.165	57.34
259.381	79.87
259.597	20.48
259.814	8.19
260.03	28.67
260.246	2.05
260.463	67.58
260.679	30.72
260.895	-38.91
261.112	-34.82
261.328	51.2
261.544	-8.19
261.761	69.63
261.977	12.29
262.193	0
262.409	59.39
262.626	-18.43
262.842	114.69
263.058	20.48
263.274	20.48
263.49	47.1
263.707	55.3
263.923	-38.91
264.139	-30.72
264.355	36.86
264.571	32.77
264.787	45.06
265.004	24.58
265.22	45.06
265.436	-6.14
265.652	4.1
265.868	92.16
266.084	-45.06
266.3	-26.62
266.516	-47.1
266.732	28.67
266.948	40.96
267.164	32.77
267.38	75.77
267.596	26.62
267.812	-6.14
268.028	45.06
268.244	2.05
268.46	32.77
268.676	14.34
268.892	30.72
269.108	-43.01
269.324	-49.15
269.54	38.91
269.756	6.14
269.972	-38.91
270.188	4.1
270.403	2.05
270.619	34.82
270.835	-14.34
271.051	47.1
271.267	40.96
271.483	129.02
271.698	133.12
271.914	57.34
272.13	32.77
272.346	16.38
272.562	14.34
272.777	-24.58
272.993	0
273.209	14.34
273.425	-40.96
273.64	18.43
273.856	77.82
274.072	4.1
274.287	49.15
274.503	22.53
274.719	-38.91
274.934	22.53
275.15	-6.14
275.366	24.58
275.581	26.62
275.797	12.29
276.012	32.77
276.228	-6.14
276.444	26.62
276.659	38.91
276.875	-14.34
277.09	2.05
277.306	51.2
277.521	14.34
277.737	67.58
277.952	-6.14
278.168	69.63
278.383	65.54
278.599	-32.77
278.814	14.34
279.03	26.62
279.245	90.11
279.461	0
279.676	-36.86
279.892	16.38
280.107	-49.15
280.322	77.82
280.538	26.62
280.753	0
280.969	-4.1
281.184	59.39
281.399	45.06
281.615	-4.1
281.83	32.77
282.045	-67.58
282.26	16.38
282.476	0
282.691	32.77
282.906	-47.1
283.122	67.58
283.337	26.62
283.552	94.21
283.767	26.62
283.983	6.14
284.198	2.05
284.413	26.62
284.628	10.24
284.843	28.67
285.058	-14.34
285.274	-18.43
285.489	22.53
285.704	61.44
285.919	-4.1
286.134	34.82
286.349	-22.53
286.564	6.14
286.779	65.54
286.995	18.43
287.21	32.77
287.425	10.24
287.64	92.16
287.855	55.3
288.07	-6.14
288.285	40.96
288.5	53.25
288.715	63.49
288.93	16.38
289.145	6.14
289.36	16.38
289.575	43.01
289.79	26.62
290.004	22.53
290.219	-49.15
290.434	38.91
290.649	8.19
290.864	26.62
291.079	2.05
291.294	38.91
291.509	-51.2
291.724	71.68
291.938	20.48
292.153	8.19
292.368	4.1
292.583	18.43
292.798	59.39
293.012	22.53
293.227	38.91
293.442	26.62
293.657	-16.38
293.871	55.3
294.086	59.39
294.301	32.77
294.516	51.2
294.73	110.59
294.945	-40.96
295.16	63.49
295.374	98.3
295.589	55.3
295.804	-24.58
296.018	-30.72
296.233	28.67
296.447	38.91
296.662	63.49
296.877	45.06
297.091	47.1
297.306	-2.05
297.52	-14.34
297.735	20.48
297.949	38.91
298.164	57.34
298.378	18.43
298.593	34.82
298.807	10.24
299.022	45.06
299.236	77.82
299.451	49.15
299.665	-4.1
299.88	81.92
300.094	34.82
300.309	38.91
300.523	69.63
300.737	-10.24
300.952	34.82
301.166	81.92
301.381	-32.77
301.595	6.14
301.809	-32.77
302.024	51.2
302.238	-14.34
302.452	83.97
302.667	14.34
302.881	6.14
303.095	12.29
303.309	-18.43
303.524	67.58
303.738	30.72
303.952	20.48
304.166	36.86
304.381	38.91
304.595	65.54
304.809	18.43
305.023	59.39
305.237	-12.29
305.452	55.3
305.666	34.82
305.88	61.44
306.094	28.67
306.308	38.91
306.522	-8.19
306.736	51.2
306.95	43.01
307.164	0
307.379	26.62
307.593	65.54
307.807	32.77
308.021	4.1
308.235	14.34
308.449	26.62
308.663	-4.1
308.877	53.25
309.091	77.82
309.305	26.62
309.519	45.06
309.733	36.86
309.947	-14.34
310.161	-2.05
310.374	-10.24
310.588	-6.14
310.802	32.77
311.016	55.3
311.23	18.43
311.444	6.14
311.658	57.34
311.872	110.59
312.085	20.48
312.299	16.38
312.513	59.39
312.727	32.77
312.941	0
313.154	141.31
313.368	90.11
313.582	-16.38
313.796	75.77
314.009	-12.29
314.223	86.01
314.437	-34.82
314.651	49.15
314.864	59.39
315.078	100.35
315.292	-12.29
315.505	-10.24
315.719	12.29
315.933	-26.62
316.146	43.01
316.36	69.63
316.573	16.38
316.787	55.3
317.001	10.24
317.214	38.91
317.428	-6.14
317.641	75.77
317.855	-30.72
318.068	-32.77
318.282	8.19
318.495	0
318.709	-24.58
318.922	-20.48
319.136	24.58
319.349	-16.38
319.563	69.63
319.776	36.86
319.99	43.01
320.203	30.72
320.417	65.54
320.63	100.35
320.843	83.97
321.057	18.43
321.27	36.86
321.483	-47.1
321.697	55.3
321.91	47.1
322.124	14.34
322.337	47.1
322.55	-14.34
322.763	-104.45
322.977	-20.48
323.19	108.54
323.403	6.14
323.617	47.1
323.83	26.62
324.043	34.82
324.256	55.3
324.469	-18.43
324.683	96.25
324.896	90.11
325.109	30.72
325.322	22.53
325.535	22.53
325.748	40.96
325.962	4.1
326.175	30.72
326.388	102.4
326.601	61.44
326.814	53.25
327.027	69.63
327.24	83.97
327.453	-16.38
327.666	88.06
327.879	40.96
328.092	94.21
328.305	34.82
328.518	63.49
328.731	26.62
328.944	-6.14
329.157	-2.05
329.37	69.63
329.583	51.2
329.796	12.29
330.009	-38.91
330.222	49.15
330.435	65.54
330.648	38.91
330.861	16.38
331.073	22.53
331.286	67.58
331.499	30.72
331.712	75.77
331.925	65.54
332.138	-26.62
332.35	102.4
332.563	-43.01
332.776	55.3
332.989	-67.58
333.202	4.1
333.414	77.82
333.627	38.91
333.84	71.68
334.053	94.21
334.265	98.3
334.478	-32.77
334.691	49.15
334.903	75.77
335.116	-22.53
335.329	51.2
335.541	30.72
335.754	92.16
335.966	-6.14
336.179	22.53
336.392	-20.48
336.604	28.67
336.817	79.87
337.029	61.44
337.242	10.24
337.454	-28.67
337.667	-26.62
337.88	49.15
338.092	24.58
338.305	16.38
338.517	120.83
338.729	8.19
338.942	59.39
339.154	51.2
339.367	-2.05
339.579	8.19
339.792	38.91
340.004	34.82
340.217	53.25
340.429	79.87
340.641	98.3
340.854	47.1
341.066	-32.77
341.278	61.44
341.491	45.06
341.703	20.48
341.915	51.2
342.128	10.24
342.34	34.82
342.552	26.62
342.764	20.48
342.977	22.53
343.189	67.58
343.401	47.1
343.613	10.24
343.826	55.3
344.038	-6.14
344.25	55.3
344.462	32.77
344.674	-32.77
344.886	43.01
345.099	40.96
345.311	73.73
345.523	-18.43
345.735	-20.48
345.947	55.3
346.159	120.83
346.371	-77.82
346.583	6.14
346.795	98.3
347.007	53.25
347.219	-22.53
347.431	28.67
347.643	22.53
347.855	20.48
348.067	67.58
348.279	18.43
348.491	67.58
348.703	65.54
348.915	45.06
349.127	20.48
349.339	79.87
349.551	0
349.763	67.58
349.975	71.68
350.187	20.48
350.399	61.44
350.61	8.19
350.822	40.96
351.034	59.39
351.246	22.53
351.458	86.01
351.669	71.68
351.881	24.58
352.093	8.19
352.305	96.25
352.517	24.58
352.728	94.21
352.94	94.21
353.152	83.97
353.363	-6.14
353.575	129.02
353.787	34.82
353.999	-14.34
354.21	106.49
354.422	38.91
354.633	-22.53
354.845	-26.62
355.057	-22.53
355.268	116.73
355.48	51.2
355.692	-47.1
355.903	88.06
356.115	106.49
356.326	83.97
356.538	6.14
356.749	73.73
356.961	92.16
357.172	65.54
357.384	53.25
357.595	65.54
357.807	10.24
358.018	30.72
358.23	-55.3
358.441	92.16
358.653	6.14
358.864	51.2
359.075	40.96
359.287	8.19
359.498	38.91
359.709	79.87
359.921	100.35
360.132	2.05
360.344	-22.53
360.555	83.97
360.766	116.73
360.977	22.53
361.189	83.97
361.4	20.48
361.611	6.14
361.823	88.06
362.034	75.77
362.245	59.39
362.456	18.43
362.667	81.92
362.879	63.49
363.09	45.06
363.301	38.91
363.512	102.4
363.723	12.29
363.935	45.06
364.146	110.59
364.357	10.24
364.568	126.97
364.779	18.43
364.99	55.3
365.201	-30.72
365.412	43.01
365.623	34.82
365.834	55.3
366.045	-4.1
366.256	69.63
366.467	47.1
366.678	38.91
366.889	79.87
367.1	51.2
367.311	40.96
367.522	122.88
367.733	18.43
367.944	67.58
368.155	28.67
368.366	43.01
368.577	43.01
368.788	122.88
368.999	34.82
369.209	65.54
369.42	110.59
369.631	118.78
369.842	-26.62
370.053	12.29
370.264	8.19
370.474	38.91
370.685	45.06
370.896	51.2
371.107	55.3
371.317	106.49
371.528	53.25
371.739	-8.19
371.95	63.49
372.16	83.97
372.371	18.43
372.582	-8.19
372.792	-20.48
373.003	49.15
373.214	-12.29
373.424	59.39
373.635	-30.72
373.846	71.68
374.056	14.34
374.267	-34.82
374.477	-2.05
374.688	-36.86
374.898	22.53
375.109	49.15
375.319	-22.53
375.53	73.73
375.74	73.73
375.951	26.62
376.161	45.06
376.372	77.82
376.582	32.77
376.793	90.11
377.003	30.72
377.214	-14.34
377.424	67.58
377.635	57.34
377.845	73.73
378.055	73.73
378.266	61.44
378.476	137.21
378.686	49.15
378.897	69.63
379.107	53.25
379.317	63.49
379.528	-22.53
379.738	28.67
379.948	-20.48
380.158	63.49
380.369	14.34
380.579	43.01
380.789	77.82
380.999	59.39
381.21	20.48
381.42	55.3
381.63	10.24
381.84	86.01
382.05	129.02
382.261	4.1
382.471	83.97
382.681	47.1
382.891	61.44
383.101	83.97
383.311	12.29
383.521	14.34
383.731	88.06
383.941	110.59
384.151	61.44
384.361	124.93
384.571	4.1
384.781	145.41
384.991	120.83
385.201	77.82
385.411	81.92
385.621	79.87
385.831	34.82
386.041	51.2
386.251	112.64
386.461	-4.1
386.671	-20.48
386.881	43.01
387.091	110.59
387.301	20.48
387.511	14.34
387.72	51.2
387.93	24.58
388.14	88.06
388.35	61.44
388.56	77.82
388.769	18.43
388.979	51.2
389.189	43.01
389.399	28.67
389.609	135.17
389.818	38.91
390.028	75.77
390.238	120.83
390.447	59.39
390.657	65.54
390.867	79.87
391.076	-16.38
391.286	45.06
391.496	18.43
391.705	79.87
391.915	65.54
392.125	65.54
392.334	57.34
392.544	104.45
392.753	81.92
392.963	88.06
393.172	47.1
393.382	40.96
393.591	94.21
393.801	36.86
394.01	143.36
394.22	24.58
394.429	86.01
394.639	75.77
394.848	106.49
395.058	43.01
395.267	53.25
395.477	69.63
395.686	100.35
395.895	92.16
396.105	75.77
396.314	47.1
396.524	71.68
396.733	124.93
396.942	18.43
397.152	83.97
397.361	124.93
397.57	90.11
397.78	129.02
397.989	55.3
398.198	141.31
398.407	83.97
398.617	43.01
398.826	124.93
399.035	77.82
399.244	100.35
399.453	59.39
399.663	92.16
399.872	141.31
400.081	98.3
400.29	104.45
400.499	110.59
400.708	176.13
400.917	151.55
401.127	118.78
401.336	75.77
401.545	133.12
401.754	90.11
401.963	120.83
402.172	67.58
402.381	129.02
402.59	100.35
402.799	126.97
403.008	118.78
403.217	129.02
403.426	202.75
403.635	159.74
403.844	47.1
404.053	120.83
404.262	36.86
404.471	155.65
404.68	120.83
404.888	129.02
405.097	141.31
405.306	77.82
405.515	102.4
405.724	149.5
405.933	129.02
406.142	174.08
406.35	182.27
406.559	137.21
406.768	157.69
406.977	159.74
407.185	163.84
407.394	212.99
407.603	151.55
407.812	243.71
408.02	176.13
408.229	241.66
408.438	276.48
408.646	219.13
408.855	184.32
409.064	235.52
409.272	227.32
409.481	301.05
409.69	227.32
409.898	202.75
410.107	286.72
410.315	315.39
410.524	274.43
410.733	323.58
410.941	296.96
411.15	329.72
411.358	333.82
411.567	382.97
411.775	428.03
411.984	378.87
412.192	417.79
412.401	376.83
412.609	483.32
412.818	485.37
413.026	546.81
413.234	485.37
413.443	481.27
413.651	501.75
413.86	583.67
414.068	591.86
414.276	606.2
414.485	544.76
414.693	626.68
414.901	661.49
415.11	647.16
415.318	622.58
415.526	677.88
415.734	772.08
415.943	655.35
416.151	782.32
416.359	751.6
416.567	772.08
416.776	794.61
416.984	937.97
417.192	882.67
417.4	972.79
417.608	921.59
417.817	862.19
418.025	980.98
418.233	1001.46
418.441	1107.95
418.649	1103.86
418.857	1136.62
419.065	1282.03
419.273	1193.97
419.481	1267.69
419.689	1292.27
419.897	1314.8
420.105	1413.1
420.313	1456.11
420.521	1529.83
420.729	1626.09
420.937	1593.32
421.145	1574.89
421.353	1714.15
421.561	1837.03
421.769	1890.28
421.977	1972.19
422.185	1990.63
422.393	1961.95
422.601	2281.44
422.809	2160.61
423.017	2230.24
423.224	2226.14
423.432	2379.74
423.64	2357.21
423.848	2486.23
424.056	2398.17
424.263	2674.65
424.471	2590.68
424.679	2770.9
424.887	2955.22
425.094	3102.67
425.302	3049.43
425.51	3131.34
425.718	3196.88
425.925	3282.89
426.133	3469.26
426.341	3641.29
426.548	3659.72
426.756	3708.87
426.964	3928
427.171	3958.72
427.379	4118.47
427.586	4177.86
427.794	4315.07
428.001	4480.96
428.209	4695.99
428.417	4673.46
428.624	4882.36
428.832	4921.27
429.039	4972.47
429.247	4988.85
429.454	5306.29
429.662	5740.46
429.869	5359.53
430.076	5762.98
430.284	5824.42
430.491	5873.57
430.699	6191.01
430.906	6180.77
431.114	6262.69
431.321	6565.79
431.528	6522.78
431.736	7047.06
431.943	7557
432.15	7258
432.358	7223.19
432.565	7677.83
432.772	7595.92
432.979	7933.83
433.187	7894.92
433.394	8038.28
433.601	8554.37
433.808	8841.08
434.016	8619.9
434.223	9154.42
434.43	9729.9
434.637	9303.92
434.844	10012.52
435.052	10188.64
435.259	10090.34
435.466	10301.28
435.673	10301.28
435.88	10983.26
436.087	11507.54
436.294	11403.09
436.501	10981.21
436.708	11360.08
436.915	11876.17
437.122	12253
437.329	12257.09
437.537	12705.6
437.743	12773.18
437.95	12775.23
438.157	13596.46
438.364	13981.48
438.571	13969.19
438.778	13885.23
438.985	15058.71
439.192	14645.02
439.399	15097.63
439.606	14614.31
439.813	15582.99
440.02	16729.86
440.227	16322.31
440.433	16082.7
440.64	16602.88
440.847	16654.08
441.054	16875.26
441.261	18013.93
441.467	17952.49
441.674	18495.21
441.881	18716.39
442.088	18624.23
442.294	18665.19
442.501	19103.45
442.708	19797.71
442.914	20293.32
443.121	21255.87
443.328	20612.81
443.534	22097.58
443.741	21475
443.948	21096.13
444.154	23008.93
444.361	22466.22
444.568	22957.73
444.774	22824.61
444.981	23226.01
445.187	23531.16
445.394	24829.57
445.6	24280.72
445.807	26922.6
446.013	25601.66
446.22	26003.06
446.426	27127.39
446.633	27158.11
446.839	27713.11
447.046	27065.95
447.252	28509.77
447.459	28544.59
447.665	28130.9
447.871	29615.68
448.078	30942.76
448.284	29075.01
448.491	30084.66
448.697	31325.73
448.903	32218.64
449.11	31637.02
449.316	31643.17
449.522	32255.51
449.728	33060.36
449.935	33267.2
450.141	33476.1
450.347	33869.31
450.553	32716.3
450.76	33435.14
450.966	34436.59
451.172	33875.45
451.378	35007.98
451.584	34190.84
451.791	35040.75
451.997	34952.68
452.203	35380.71
452.409	35448.29
452.615	35524.07
452.821	33975.8
453.027	33871.36
453.233	35100.14
453.44	34074.1
453.646	34434.55
453.852	34678.25
454.058	35067.37
454.264	34121.21
454.47	35227.11
454.676	33656.32
454.882	35100.14
455.088	31958.55
455.294	32531.98
455.5	33027.59
455.705	33476.1
455.911	31993.37
456.117	31055.4
456.323	30877.22
456.529	29095.49
456.735	30529.07
456.941	29849.14
457.147	29048.39
457.352	28460.62
457.558	28431.95
457.764	27926.1
457.97	27739.74
458.176	26818.15
458.381	26895.97
458.587	25628.28
458.793	25736.82
458.999	24438.41
459.204	26402.41
459.41	25282.17
459.616	23985.81
459.821	23617.18
460.027	23551.64
460.233	23068.32
460.438	22212.27
460.644	22167.21
460.85	21311.16
461.055	20928.19
461.261	20946.62
461.466	19396.31
461.672	18601.7
461.878	19867.34
462.083	18898.66
462.289	18722.53
462.494	18118.38
462.7	17379.06
462.905	16914.17
463.111	17512.18
463.316	17573.62
463.522	17291
463.727	17383.16
463.932	17114.87
464.138	16971.52
464.343	17131.26
464.549	16512.77
464.754	17139.45
464.959	16840.45
465.165	16891.65
465.37	16289.54
465.575	15449.88
465.781	16447.24
465.986	16369.41
466.191	16049.93
466.397	15654.67
466.602	14554.91
466.807	15449.88
467.012	15519.51
467.218	15271.7
467.423	15177.5
467.628	15073.05
467.833	15693.58
468.038	15224.6
468.244	14825.25
468.449	15415.06
468.654	15099.67
468.859	14796.57
469.064	14741.28
469.269	14106.41
469.474	14360.36
469.679	14460.71
469.885	13985.58
470.09	14526.24
470.295	14352.17
470.5	13784.88
470.705	13883.18
470.91	13524.79
471.115	13774.64
471.32	13573.94
471.525	13768.49
471.73	13311.8
471.935	13393.72
472.139	12787.52
472.344	12990.27
472.549	12767.04
472.754	12656.45
472.959	12328.77
473.164	12283.72
473.369	11906.89
473.574	12377.92
473.778	12285.76
473.983	12158.79
474.188	11992.91
474.393	11712.33
474.598	11702.09
474.802	11638.61
475.007	11390.8
475.212	11603.79
475.417	11009.88
475.621	11095.89
475.826	11198.29
476.031	10962.78
476.235	10858.33
476.44	10901.34
476.645	10741.6
476.849	10766.17
477.054	10489.7
477.259	10260.32
477.463	10301.28
477.668	10190.69
477.872	10241.89
478.077	9975.66
478.282	9668.46
478.486	9697.13
478.691	9750.38
478.895	9762.67
479.1	9703.28
479.304	9676.65
479.509	9285.49
479.713	9789.29
479.918	9332.59
480.122	9131.89
480.326	9271.15
480.531	9457.52
480.735	9056.12
480.94	9015.16
481.144	9572.21
481.348	8859.51
481.553	9215.86
481.757	8970.1
481.961	8972.15
482.166	8957.82
482.37	8988.53
482.574	8714.11
482.778	8691.58
482.983	9088.89
483.187	9164.66
483.391	9095.03
483.595	8845.18
483.8	8828.79
484.004	8890.23
484.208	9086.84
484.412	8836.99
484.616	8927.1
484.821	8914.81
485.025	8673.15
485.229	8970.1
485.433	8765.31
485.637	8859.51
485.841	8750.97
486.045	8855.42
486.249	8939.38
486.453	8908.66
486.657	8722.3
486.861	9099.13
487.065	8585.09
487.269	8982.39
487.473	8621.95
487.677	8785.79
487.881	8843.13
488.085	8681.34
488.289	8793.98
488.493	8871.8
488.697	8836.99
488.901	8906.62
489.105	8746.87
489.309	8939.38
489.512	8902.52
489.716	8941.43
489.92	9049.97
490.124	8896.38
490.328	9045.88
490.531	9017.21
490.735	9168.76
490.939	9256.82
491.143	8888.18
491.346	8998.77
491.55	9224.05
491.754	9219.96
491.958	9240.43
492.161	9312.11
492.365	9406.32
492.569	9232.24
492.772	9465.71
492.976	9609.07
493.18	9703.28
493.383	9666.41
493.587	9623.41
493.79	9660.27
493.994	9539.44
494.197	9789.29
494.401	9699.18
494.605	9785.19
494.808	9914.22
495.012	9762.67
495.215	10266.47
495.419	10045.29
495.622	10073.96
495.825	10440.54
496.029	10403.68
496.232	10334.05
496.436	10192.74
496.639	10643.29
496.843	10807.13
497.046	10833.75
497.249	10813.27
497.453	10684.25
497.656	11206.49
497.859	11118.42
498.063	11347.79
498.266	11433.81
498.469	11415.38
498.673	11640.65
498.876	11794.25
499.079	11732.81
499.282	11925.32
499.485	11964.23
499.689	12117.83
499.892	12197.7
500.095	12334.92
500.298	12662.59
500.501	12545.86
500.705	12732.22
500.908	12803.9
501.111	13080.38
501.314	12998.46
501.517	13532.98
501.72	13287.22
501.923	13553.46
502.126	13807.41
502.329	14034.73
502.532	14083.88
502.735	14225.19
502.938	14257.96
503.141	14536.48
503.344	14759.71
503.547	14767.9
503.75	14710.56
503.953	14944.03
504.156	15302.42
504.359	15298.33
504.562	15312.66
504.765	15888.14
504.968	15972.11
505.17	16168.71
505.373	16398.09
505.576	16363.27
505.779	16498.44
505.982	16629.51
506.185	17116.92
506.387	16987.9
506.59	17188.6
506.793	17583.86
506.996	17483.51
507.198	17972.97
507.401	17741.55
507.604	17942.25
507.807	18362.09
508.009	18394.86
508.212	18550.5
508.415	18849.5
508.617	19064.54
508.82	19160.8
509.022	19097.31
509.225	19660.5
509.428	19400.41
509.63	19924.69
509.833	20004.56
510.035	20491.98
510.238	20221.64
510.44	20467.4
510.643	20942.53
510.845	21110.46
511.048	20782.79
511.25	21171.9
511.453	21431.99
511.655	22177.45
511.858	21913.27
512.06	21866.16
512.262	22220.46
512.465	22355.63
512.667	22718.12
512.87	23072.42
513.072	22662.82
513.274	23385.76
513.477	23821.97
513.679	23768.73
513.881	23879.32
514.084	24163.98
514.286	23998.1
514.488	24172.18
514.69	25007.75
514.893	24845.96
515.095	24934.02
515.297	25273.98
515.499	25671.29
515.701	25841.27
515.904	26181.23
516.106	26117.75
516.308	26306.16
516.51	26496.62
516.712	26656.36
516.914	27319.9
517.116	27506.27
517.318	27311.71
517.52	27639.39
517.722	27704.92
517.925	27776.6
518.127	28210.77
518.329	28839.5
518.531	28259.92
518.733	28753.48
518.935	29093.44
519.136	29212.23
519.338	29472.32
519.54	29670.97
519.742	29795.9
519.944	30060.09
520.146	30498.35
520.348	30682.67
520.55	30897.7
520.752	30928.42
520.954	31587.87
521.155	31188.52
521.357	31708.7
521.559	31821.34
521.761	32003.61
521.963	31948.31
522.164	32063
522.366	32349.71
522.568	32777.74
522.77	32738.83
522.971	33230.34
523.173	32777.74
523.375	33549.82
523.576	33390.08
523.778	33824.25
523.98	33879.55
524.181	34027
524.383	34008.57
524.584	34577.9
524.786	34502.13
524.988	34319.86
525.189	34813.42
525.391	34942.44
525.592	34954.73
525.794	35149.29
525.995	34694.64
526.197	35390.95
526.398	35282.41
526.6	35702.24
526.801	35655.14
527.003	36003.29
527.204	35929.56
527.406	36175.32
527.607	36113.88
527.808	36296.15
528.01	35671.52
528.211	35786.21
528.412	37035.47
528.614	36765.13
528.815	36662.74
529.016	36998.6
529.218	36879.82
529.419	36617.68
529.62	37045.71
529.822	36853.2
530.023	36859.34
530.224	37064.14
530.425	37287.37
530.626	37006.8
530.828	37064.14
531.029	37723.58
531.23	37264.84
531.431	37328.33
531.632	37578.18
531.833	37479.88
532.035	37639.62
532.236	37629.38
532.437	37619.14
532.638	37295.56
532.839	37709.25
533.04	37727.68
533.241	37524.93
533.442	37860.8
533.643	37678.53
533.844	37375.43
534.045	37641.67
534.246	37588.42
534.447	37723.58
534.648	37668.29
534.849	37821.89
535.05	37678.53
535.251	37531.08
535.451	37352.9
535.652	38186.43
535.853	37801.41
536.054	37737.92
536.255	38002.11
536.456	37641.67
536.657	38219.19
536.857	37553.6
537.058	37449.16
537.259	37815.74
537.46	37940.67
537.66	37563.84
537.861	37858.75
538.062	37819.84
538.263	37856.7
538.463	37901.76
538.664	37676.48
538.865	37989.82
539.065	38000.06
539.266	37346.76
539.466	38034.88
539.667	37432.77
539.868	37957.05
540.068	37821.89
540.269	37150.15
540.469	37899.71
540.67	37477.83
540.87	37596.61
541.071	37518.79
541.271	37985.72
541.472	37637.57
541.672	37148.11
541.873	37414.34
542.073	37567.94
542.274	38065.6
542.474	37463.49
542.675	37363.14
542.875	37780.93
543.075	37586.37
543.276	37033.42
543.476	37903.81
543.676	37340.61
543.877	37576.13
544.077	37684.67
544.277	37412.29
544.478	37606.85
544.678	37744.06
544.878	37422.53
545.078	37707.2
545.279	37221.83
545.479	37043.66
545.679	37277.13
545.879	37580.23
546.079	37187.02
546.28	37287.37
546.48	37004.75
546.68	37639.62
546.88	37260.74
547.08	37158.34
547.28	37133.77
547.48	36775.37
547.68	37121.48
547.88	36947.4
548.081	37047.75
548.281	37287.37
548.481	36599.25
548.681	37379.53
548.881	36875.73
549.081	37357
549.28	37107.15
549.48	37551.56
549.68	37152.2
549.88	37520.84
550.08	37277.13
550.28	37035.47
550.48	36697.55
550.68	37121.48
550.88	36802
551.08	36965.84
551.279	36842.96
551.479	36730.32
551.679	36935.12
551.879	36758.99
552.079	37340.61
552.278	36910.54
552.478	37156.3
552.678	36498.9
552.878	36996.56
553.077	36945.36
553.277	36480.47
553.477	37336.52
553.676	36945.36
553.876	36896.2
554.076	36662.74
554.275	36589.01
554.475	36654.54
554.674	36845.01
554.874	36728.27
555.074	36648.4
555.273	36486.61
555.473	36679.12
555.672	36480.47
555.872	36720.08
556.071	36728.27
556.271	36699.6
556.47	36060.63
556.67	36167.13
556.869	36386.26
557.068	36449.75
557.268	35835.36
557.467	36365.78
557.667	36146.65
557.866	36163.03
558.065	36296.15
558.265	35665.38
558.464	35907.04
558.663	36371.92
558.863	35372.52
559.062	36369.88
559.261	35642.85
559.461	36048.35
559.66	35491.3
559.859	35642.85
560.058	35466.72
560.258	35952.09
560.457	35665.38
560.656	35929.56
560.855	35755.49
561.054	35747.29
561.253	35411.43
561.453	35704.29
561.652	35730.91
561.851	35565.03
562.05	35040.75
562.249	35110.38
562.448	35479.01
562.647	35257.83
562.846	35169.77
563.045	35331.56
563.244	35245.54
563.443	35528.16
563.642	34682.35
563.841	34924.01
564.04	34827.76
564.239	35225.06
564.438	34569.71
564.637	34770.41
564.836	35114.47
565.035	34711.02
565.234	34569.71
565.432	34485.75
565.631	34293.24
565.83	34414.07
566.029	34190.84
566.228	34389.49
566.427	33924.6
566.625	33975.8
566.824	33584.64
567.023	34498.03
567.222	33336.84
567.42	34254.33
567.619	34065.91
567.818	33922.55
568.016	34008.57
568.215	33994.23
568.414	33553.92
568.612	33840.64
568.811	33328.64
569.01	33580.54
569.208	33551.87
569.407	33467.91
569.605	33091.08
569.804	33877.5
570.002	32949.77
570.201	33363.46
570.4	33031.69
570.598	32955.91
570.797	32644.62
570.995	32876.04
571.193	32476.69
571.392	33089.03
571.59	32202.26
571.789	32904.71
571.987	32550.42
572.186	32355.86
572.384	32445.97
572.582	32646.67
572.781	32613.9
572.979	32120.34
573.177	32001.56
573.376	32515.6
573.574	32280.08
573.772	32454.16
573.971	31997.46
574.169	31620.64
574.367	31690.27
574.565	32083.48
574.763	31612.45
574.962	31628.83
575.16	31309.35
575.358	31589.92
575.556	31344.16
575.754	31714.84
575.952	31186.47
576.151	31211.04
576.349	31020.58
576.547	31034.92
576.745	31118.89
576.943	31419.94
577.141	31127.08
577.339	30940.71
577.537	30615.08
577.735	30766.63
577.933	31090.21
578.131	30701.1
578.329	30737.96
578.527	30185.01
578.725	30322.23
578.923	30248.5
579.121	30099
579.319	30285.36
579.516	30381.62
579.714	30264.88
579.912	30252.59
580.11	29869.62
580.308	30109.24
580.506	30101.04
580.704	29257.28
580.901	29474.37
581.099	29853.24
581.297	29255.23
581.495	29523.52
581.692	30008.89
581.89	29242.95
582.088	29773.37
582.285	29371.97
582.483	29486.65
582.681	29212.23
582.878	29124.16
583.076	28575.31
583.274	28941.89
583.471	28493.39
583.669	28759.63
583.866	28728.91
584.064	28538.44
584.262	28270.16
584.459	28622.41
584.657	28198.48
584.854	28784.2
585.052	28048.98
585.249	28298.83
585.447	28042.84
585.644	28214.87
585.841	28030.55
586.039	28132.95
586.236	27696.73
586.434	27534.94
586.631	27553.37
586.828	27879
587.026	27725.4
587.223	27367.01
587.42	27252.32
587.618	27450.97
587.815	27287.14
588.012	27291.23
588.21	26904.17
588.407	27383.39
588.604	27149.92
588.801	26844.77
588.999	26656.36
589.196	26762.86
589.393	26828.39
589.59	26635.88
589.787	26730.09
589.984	26498.67
590.182	26310.25
590.379	26478.19
590.576	26457.71
590.773	26080.88
590.97	26127.99
591.167	26115.7
591.364	26031.73
591.561	26093.17
591.758	25742.97
591.955	25800.31
592.152	26125.94
592.349	25517.69
592.546	25851.51
592.743	25613.95
592.94	25314.94
593.137	25286.27
593.334	25357.95
593.531	25104
593.727	25380.48
593.924	25316.99
594.121	24942.21
594.318	25116.29
594.515	25026.18
594.712	25210.5
594.908	24505.99
595.105	24862.34
595.302	24561.29
595.499	24501.9
595.696	24686.22
595.892	24264.33
596.089	24317.58
596.286	24411.79
596.482	24366.73
596.679	24286.86
596.876	24356.49
597.072	24022.67
597.269	23996.05
597.466	24059.54
597.662	23768.73
597.859	23766.68
598.055	23701.14
598.252	23666.33
598.448	23762.58
598.645	23588.5
598.841	23361.18
599.038	23492.25
599.234	23152.29
599.431	23107.23
599.627	23164.57
599.824	23260.83
600.02	22863.52
600.217	23266.97
600.413	22544.04
600.609	22841
600.806	22601.38
601.002	22787.75
601.198	22574.76
601.395	22646.44
601.591	22541.99
601.787	22320.81
601.984	22355.63
602.18	22597.29
602.376	22464.17
602.572	22445.74
602.769	22245.04
602.965	21903.03
603.161	22296.24
603.357	21687.99
603.553	21833.39
603.75	22185.65
603.946	21739.19
604.142	22159.02
604.338	21499.58
604.534	21505.72
604.73	21515.96
604.926	21298.87
605.122	21212.86
605.318	21081.79
605.514	21401.27
605.71	21132.99
605.906	21292.73
606.102	21110.46
606.298	21173.95
606.494	21147.33
606.69	21034.69
606.886	21163.71
607.082	20629.19
607.278	20903.62
607.474	20569.8
607.67	20848.32
607.866	20625.09
608.062	20864.71
608.257	20551.37
608.453	20489.93
608.649	20811.46
608.845	20188.88
609.041	20283.08
609.236	20547.27
609.432	20383.43
609.628	20500.17
609.824	20029.13
610.019	20051.66
610.215	20090.57
610.411	20272.84
610.606	19973.84
610.802	20213.45
610.998	19971.79
611.193	20379.34
611.389	19969.74
611.584	19812.05
611.78	19730.13
611.976	19748.56
612.171	19994.32
612.367	19680.98
612.562	19619.54
612.758	19529.43
612.953	19580.63
613.149	19891.92
613.344	19357.4
613.539	19758.8
613.735	19412.7
613.93	19551.96
614.126	19488.47
614.321	19611.35
614.517	19521.24
614.712	19252.95
614.907	19293.91
615.103	19273.43
615.298	19277.53
615.493	19562.2
615.688	19216.09
615.884	19441.37
616.079	19048.16
616.274	19193.56
616.47	19068.64
616.665	19021.53
616.86	19117.79
617.055	19052.25
617.25	18738.91
617.445	19103.45
617.641	18411.24
617.836	18693.86
618.031	18552.55
618.226	18912.99
618.421	18822.88
618.616	18667.24
618.811	18374.38
619.006	18468.58
619.201	18294.5
619.396	18562.79
619.591	18036.46
619.786	18388.71
619.981	18079.47
620.176	18284.26
620.371	17981.17
620.566	17972.97
620.761	17710.83
620.956	17792.75
621.151	17620.72
621.346	17794.8
621.541	17241.85
621.735	17702.64
621.93	17297.14
622.125	17454.84
622.32	17141.5
622.515	17280.76
622.709	16959.23
622.904	17176.31
623.099	16840.45
623.294	16836.35
623.488	16557.83
623.683	16676.61
623.878	16176.91
624.072	16391.94
624.267	16424.71
624.462	16281.35
624.656	16076.55
624.851	16269.06
625.046	15965.96
625.24	15955.72
625.435	15695.63
625.629	15808.27
625.824	15472.4
626.018	15480.6
626.213	15202.07
626.407	15449.88
626.602	15357.72
626.796	14960.41
626.991	15380.25
627.185	15220.5
627.38	14941.98
627.574	15099.67
627.768	14796.57
627.963	15079.19
628.157	14720.8
628.352	14815.01
628.546	14444.32
628.74	14661.41
628.935	14382.88
629.129	14305.06
629.323	13903.66
629.517	14239.53
629.712	14022.44
629.906	14247.72
630.1	13555.51
630.294	14130.98
630.489	13799.21
630.683	13942.57
630.877	13494.07
631.071	13606.7
631.265	13713.2
631.459	13356.85
631.653	13330.23
631.848	13420.34
632.042	13248.31
632.236	13408.05
632.43	13117.24
632.624	13096.76
632.818	12977.98
633.012	12924.73
633.206	13020.99
633.4	12826.43
633.594	12633.92
633.788	12693.31
633.982	12812.09
634.176	12803.9
634.369	12437.31
634.563	12609.34
634.757	12177.22
634.951	12574.53
635.145	12156.74
635.339	12216.13
635.533	12242.76
635.726	11906.89
635.92	11949.9
636.114	11970.38
636.308	11775.82
636.501	11859.79
636.695	12017.48
636.889	11630.41
637.083	11683.66
637.276	11528.02
637.47	11505.49
637.664	11470.67
637.857	11364.18
638.051	11276.12
638.244	11251.54
638.438	11061.08
638.632	11050.84
638.825	11065.18
639.019	11073.37
639.212	11071.32
639.406	11028.31
639.599	10887
639.793	10719.07
639.986	10631.01
640.18	10708.83
640.373	10813.27
640.567	10428.26
640.76	10616.67
640.954	10649.44
641.147	10588
641.34	10391.39
641.534	10299.23
641.727	10307.43
641.92	10264.42
642.114	10188.64
642.307	10180.45
642.5	10239.84
642.694	9953.13
642.887	10198.88
643.08	9822.06
643.273	9820.01
643.467	9727.85
643.66	9811.82
643.853	9662.32
644.046	9688.94
644.239	9824.11
644.432	9525.1
644.626	9371.51
644.819	9305.97
645.012	9500.53
645.205	9226.1
645.398	9459.57
645.591	9346.93
645.784	9281.39
645.977	9054.07
646.17	9205.62
646.363	8994.68
646.556	9090.93
646.749	9072.5
646.942	9131.89
647.135	8980.34
647.328	8845.18
647.521	8943.48
647.714	8746.87
647.907	8806.27
648.099	8769.4
648.292	8673.15
648.485	8755.07
648.678	8497.02
648.871	8540.03
649.064	8331.14
649.256	8427.39
649.449	8490.88
649.642	8566.65
649.835	8101.76
650.027	8206.21
650.22	8204.16
650.413	8198.02
650.605	8134.53
650.798	8114.05
650.991	8183.68
651.183	8062.85
651.376	8105.86
651.568	7980.93
651.761	7868.3
651.954	7978.89
652.146	7757.71
652.339	7600.01
652.531	7724.94
652.724	7544.72
652.916	7511.95
653.109	7669.64
653.301	7389.07
653.494	7411.6
653.686	7258
653.879	7423.89
654.071	7563.15
654.263	7241.62
654.456	7380.88
654.648	7235.47
654.84	7133.08
655.033	7182.23
655.225	7206.8
655.417	7145.36
655.61	7110.55
655.802	7051.16
655.994	7008.15
656.186	6985.62
656.379	7061.4
656.571	6897.56
656.763	6797.21
656.955	6913.94
657.148	6868.89
657.34	6731.67
657.532	6764.44
657.724	6692.76
657.916	6688.67
658.108	6551.45
658.3	6639.51
658.492	6645.66
658.684	6553.5
658.876	6381.47
659.068	6477.73
659.26	6311.84
659.452	6586.27
659.644	6479.77
659.836	6385.57
660.028	6258.59
660.22	6270.88
660.412	6299.55
660.604	6100.9
660.796	6094.75
660.988	6219.68
661.18	6215.59
661.372	6066.08
661.563	6094.75
661.755	5945.25
661.947	6016.93
662.139	6094.75
662.331	5926.82
662.522	5863.33
662.714	5691.31
662.906	5851.05
663.097	5679.02
663.289	5826.47
663.481	5783.46
663.673	5959.59
663.864	5775.27
664.056	5619.63
664.247	5486.51
664.439	5486.51
664.631	5760.94
664.822	5554.09
665.014	5558.19
665.205	5437.36
665.397	5482.41
665.588	5527.47
665.78	5298.1
665.971	5382.06
666.163	5373.87
666.354	5484.46
666.546	5322.67
666.737	5164.98
666.929	5267.38
667.12	5273.52
667.311	5203.89
667.503	5222.32
667.694	5126.07
667.885	5171.12
668.077	5054.39
668.268	4980.66
668.459	5267.38
668.651	5078.96
668.842	4929.46
669.033	5119.92
669.224	5054.39
669.416	5005.24
669.607	5017.52
669.798	4894.65
669.989	4923.32
670.18	4882.36
670.371	4878.26
670.563	4863.93
670.754	4822.97
670.945	4734.9
671.136	4775.86
671.327	4820.92
671.518	4810.68
671.709	4851.64
671.9	4734.9
672.091	4786.1
672.282	4579.26
672.473	4579.26
672.664	4657.08
672.855	4478.91
673.046	4517.82
673.237	4536.25
673.428	4601.79
673.619	4536.25
673.809	4501.44
674	4605.88
674.191	4562.87
674.382	4368.32
674.573	4501.44
674.764	4513.72
674.954	4566.97
675.145	4335.55
675.336	4386.75
675.527	4261.82
675.717	4194.24
675.908	4341.69
676.099	4368.32
676.289	4372.41
676.48	4186.05
676.671	4243.39
676.861	4292.54
677.052	4149.18
677.243	4175.81
677.433	4204.48
677.624	4315.07
677.814	4003.78
678.005	4351.93
678.195	4136.9
678.386	4245.44
678.576	4007.87
678.767	4042.69
678.957	4120.51
679.148	4132.8
679.338	4001.73
679.529	4161.47
679.719	4095.94
679.909	3968.96
680.1	3983.3
680.29	4042.69
680.481	3915.72
680.671	4036.55
680.861	3938.24
681.052	3952.58
681.242	3964.87
681.432	3936.2
681.622	3903.43
681.813	3928
682.003	3940.29
682.193	3880.9
682.383	3864.52
682.573	3794.89
682.764	3932.1
682.954	3991.49
683.144	3856.33
683.334	3717.06
683.524	3837.89
683.714	3815.37
683.904	3719.11
684.094	3805.13
684.284	3782.6
684.474	3833.8
684.664	3778.5
684.854	3829.7
685.044	3846.09
685.234	3608.52
685.424	3694.54
685.614	3753.93
685.804	3715.02
685.994	3583.95
686.184	3698.63
686.374	3553.23
686.564	3577.8
686.753	3598.28
686.943	3518.41
687.133	3631.05
687.323	3446.73
687.513	3530.7
687.702	3348.43
687.892	3385.29
688.082	3485.64
688.272	3454.92
688.461	3370.96
688.651	3542.99
688.841	3409.87
689.03	3327.95
689.22	3358.67
689.41	3401.68
689.599	3352.52
689.789	3487.69
689.979	3332.05
690.168	3401.68
690.358	3209.17
690.547	3338.19
690.737	3198.93
690.926	3307.47
691.116	3289.04
691.305	3295.18
691.495	3270.61
691.684	3123.15
691.874	3106.77
692.063	3057.62
692.252	3141.58
692.442	3049.43
692.631	3137.49
692.82	3071.95
693.01	3084.24
693.199	3141.58
693.388	2994.13
693.578	2983.89
693.767	2938.84
693.956	2928.6
694.146	3047.38
694.335	2836.44
694.524	2805.72
694.713	2873.3
694.902	2922.45
695.092	2922.45
695.281	2912.21
695.47	2867.16
695.659	2781.14
695.848	2887.64
696.037	2863.06
696.226	2830.29
696.415	2852.82
696.604	2805.72
696.793	2824.15
696.982	2848.72
697.171	2873.3
697.36	2666.46
697.549	2809.81
697.738	2746.33
697.927	2553.82
698.116	2764.76
698.305	2740.18
698.494	2695.13
698.683	2709.46
698.872	2666.46
699.061	2535.39
699.25	2611.16
699.438	2662.36
699.627	2588.63
699.816	2494.43
700.005	2744.28
700.193	2645.98
700.382	2588.63
700.571	2678.74
700.76	2533.34
700.948	2598.87
701.137	2432.99
701.326	2572.25
701.514	2508.76
701.703	2617.3
701.892	2494.43
702.08	2537.43
702.269	2557.91
702.457	2490.33
702.646	2537.43
702.834	2605.02
703.023	2555.86
703.212	2469.85
703.4	2553.82
703.589	2523.1
703.777	2494.43
703.965	2498.52
704.154	2451.42
704.342	2555.86
704.531	2459.61
704.719	2492.38
704.907	2480.09
705.096	2490.33
705.284	2451.42
705.472	2418.65
705.661	2424.8
705.849	2457.56
706.037	2443.23
706.226	2557.91
706.414	2486.23
706.602	2430.94
706.79	2568.15
706.979	2402.27
707.167	2500.57
707.355	2389.98
707.543	2449.37
707.731	2406.36
707.919	2394.08
708.107	2439.13
708.296	2394.08
708.484	2377.69
708.672	2394.08
708.86	2463.71
709.048	2396.12
709.236	2496.47
709.424	2375.64
709.612	2357.21
709.8	2385.88
709.988	2408.41
710.176	2367.45
710.364	2308.06
710.551	2371.55
710.739	2408.41
710.927	2301.92
711.115	2320.35
711.303	2428.89
711.491	2389.98
711.679	2406.36
711.866	2314.2
712.054	2385.88
712.242	2365.4
712.43	2424.8
712.617	2428.89
712.805	2277.34
712.993	2340.83
713.181	2451.42
713.368	2332.64
713.556	2406.36
713.744	2346.97
713.931	2351.07
714.119	2414.56
714.306	2396.12
714.494	2287.58
714.682	2373.6
714.869	2334.68
715.057	2326.49
715.244	2285.53
715.432	2283.49
715.619	2373.6
715.807	2402.27
715.994	2387.93
716.182	2351.07
716.369	2375.64
716.556	2404.32
716.744	2459.61
716.931	2332.64
717.119	2363.36
717.306	2324.44
717.493	2351.07
717.681	2422.75
717.868	2275.29
718.055	2318.3
718.242	2453.47
718.43	2346.97
718.617	2381.79
718.804	2428.89
718.991	2285.53
719.179	2349.02
719.366	2316.25
719.553	2379.74
719.74	2289.63
719.927	2359.26
720.114	2314.2
720.301	2402.27
720.488	2422.75
720.676	2400.22
720.863	2377.69
721.05	2430.94
721.237	2373.6
721.424	2353.12
721.611	2406.36
721.798	2285.53
721.985	2349.02
722.172	2267.1
722.358	2353.12
722.545	2369.5
722.732	2441.18
722.919	2287.58
723.106	2236.38
723.293	2346.97
723.48	2359.26
723.667	2420.7
723.853	2295.77
724.04	2381.79
724.227	2326.49
724.414	2293.73
724.6	2463.71
724.787	2326.49
724.974	2414.56
725.161	2338.78
725.347	2447.32
725.534	2437.08
725.72	2432.99
725.907	2383.84
726.094	2349.02
726.28	2242.53
726.467	2469.85
726.653	2392.03
726.84	2443.23
727.027	2408.41
727.213	2416.6
727.4	2359.26
727.586	2402.27
727.773	2484.19
727.959	2414.56
728.145	2306.01
728.332	2283.49
728.518	2303.96
728.705	2416.6
728.891	2410.46
729.077	2420.7
729.264	2502.62
729.45	2420.7
729.636	2461.66
729.823	2338.78
730.009	2529.24
730.195	2385.88
730.382	2463.71
730.568	2408.41
730.754	2267.1
730.94	2525.15
731.126	2340.83
731.313	2445.27
731.499	2502.62
731.685	2443.23
731.871	2420.7
732.057	2484.19
732.243	2396.12
732.429	2494.43
732.615	2469.85
732.801	2562.01
732.987	2451.42
733.173	2488.28
733.359	2471.9
733.545	2519
733.731	2490.33
733.917	2447.32
734.103	2543.58
734.289	2590.68
734.475	2492.38
734.661	2541.53
734.847	2480.09
735.033	2469.85
735.219	2435.03
735.404	2387.93
735.59	2484.19
735.776	2342.88
735.962	2475.99
736.148	2453.47
736.333	2430.94
736.519	2367.45
736.705	2549.72
736.89	2428.89
737.076	2494.43
737.262	2555.86
737.447	2430.94
737.633	2516.95
737.819	2451.42
738.004	2453.47
738.19	2451.42
738.375	2484.19
738.561	2508.76
738.747	2453.47
738.932	2326.49
739.118	2392.03
739.303	2410.46
739.489	2467.8
739.674	2492.38
739.859	2379.74
740.045	2465.75
740.23	2361.31
740.416	2455.51
740.601	2455.51
740.786	2404.32
740.972	2494.43
741.157	2414.56
741.342	2385.88
741.528	2424.8
741.713	2541.53
741.898	2332.64
742.084	2285.53
742.269	2363.36
742.454	2250.72
742.639	2435.03
742.824	2340.83
743.01	2334.68
743.195	2365.4
743.38	2353.12
743.565	2287.58
743.75	2338.78
743.935	2322.4
744.12	2314.2
744.305	2152.42
744.49	2295.77
744.675	2244.57
744.86	2328.54
745.045	2183.13
745.23	2191.33
745.415	2277.34
745.6	2330.59
745.785	2187.23
745.97	2160.61
746.155	2185.18
746.34	2213.85
746.525	2230.24
746.71	2275.29
746.895	2199.52
747.079	2191.33
747.264	2213.85
747.449	2297.82
747.634	2189.28
747.819	2150.37
748.003	1972.19
748.188	2105.31
748.373	2084.83
748.557	2039.78
748.742	2140.13
748.927	2004.96
749.111	2082.78
749.296	1976.29
749.481	2035.68
749.665	2066.4
749.85	2007.01
750.034	2045.92
750.219	1951.71
750.404	2027.49
750.588	1918.95
750.773	1945.57
750.957	1974.24
751.141	1914.85
751.326	1966.05
751.51	1869.8
751.695	1867.75
751.879	1789.92
752.064	1959.91
752.248	1718.25
752.432	1859.56
752.617	1810.4
752.801	1886.18
752.985	1843.17
753.17	1781.73
753.354	1755.11
753.538	1918.95
753.722	1685.48
753.907	1751.01
754.091	1621.99
754.275	1677.29
754.459	1705.96
754.643	1736.68
754.828	1712.1
755.012	1669.09
755.196	1673.19
755.38	1640.42
755.564	1630.18
755.748	1599.46
755.932	1595.37
756.116	1556.46
756.3	1597.42
756.484	1503.21
756.668	1595.37
756.852	1574.89
757.036	1484.78
757.22	1591.27
757.404	1527.78
757.588	1566.7
757.772	1585.13
757.956	1411.05
758.14	1411.05
758.323	1437.67
758.507	1443.82
758.691	1490.92
758.875	1462.25
759.059	1363.95
759.242	1380.33
759.426	1456.11
759.61	1468.39
759.794	1359.85
759.977	1429.48
760.161	1447.91
760.345	1331.18
760.528	1429.48
760.712	1384.43
760.895	1339.37
761.079	1259.5
761.263	1296.36
761.446	1394.67
761.63	1347.56
761.813	1322.99
761.997	1306.6
762.18	1355.76
762.364	1228.78
762.547	1259.5
762.731	1320.94
762.914	1423.34
763.098	1210.35
763.281	1255.4
763.464	1214.45
763.648	1249.26
763.831	1273.84
764.015	1277.93
764.198	1224.69
764.381	1234.93
764.564	1292.27
764.748	1230.83
764.931	1212.4
765.114	1179.63
765.297	1191.92
765.481	1124.33
765.664	1216.49
765.847	1165.29
766.03	1183.73
766.213	1222.64
766.397	1165.29
766.58	1202.16
766.763	1196.01
766.946	1079.28
767.129	1046.51
767.312	1153.01
767.495	1062.9
767.678	1220.59
767.861	1210.35
768.044	1189.87
768.227	1114.1
768.41	1060.85
768.593	1150.96
768.776	1028.08
768.959	1054.7
769.142	1136.62
769.324	1107.95
769.507	1048.56
769.69	1107.95
769.873	1003.5
770.056	1118.19
770.239	1032.18
770.421	1081.33
770.604	1095.66
770.787	1075.18
770.97	1052.66
771.152	1077.23
771.335	954.35
771.518	1015.79
771.7	1023.98
771.883	1081.33
772.066	968.69
772.248	1107.95
772.431	1087.47
772.613	1079.28
772.796	950.26
772.978	1046.51
773.161	962.55
773.343	968.69
773.526	948.21
773.708	923.63
773.891	890.87
774.073	915.44
774.256	923.63
774.438	1009.65
774.621	837.62
774.803	948.21
774.985	819.19
775.168	913.39
775.35	817.14
775.532	960.5
775.715	925.68
775.897	800.76
776.079	864.24
776.261	923.63
776.444	835.57
776.626	790.52
776.808	792.56
776.99	854
777.173	722.93
777.355	806.9
777.537	870.39
777.719	821.24
777.901	788.47
778.083	837.62
778.265	710.65
778.447	798.71
778.629	825.33
778.811	806.9
778.993	741.36
779.175	792.56
779.357	747.51
779.539	616.44
779.721	767.99
779.903	692.21
780.085	784.37
780.267	794.61
780.449	727.03
780.631	733.17
780.812	720.88
780.994	665.59
781.176	673.78
781.358	731.12
781.54	745.46
781.721	694.26
781.903	649.21
782.085	749.56
782.267	686.07
782.448	624.63
782.63	616.44
782.812	667.64
782.993	602.1
783.175	649.21
783.357	591.86
783.538	577.53
783.72	600.05
783.901	604.15
784.083	583.67
784.264	638.97
784.446	501.75
784.627	561.14
784.809	565.24
784.99	620.53
785.172	606.2
785.353	559.1
785.535	593.91
785.716	511.99
785.897	479.22
786.079	462.84
786.26	505.85
786.441	571.38
786.623	544.76
786.804	548.86
786.985	460.79
787.167	526.33
787.348	473.08
787.529	489.46
787.71	593.91
787.891	526.33
788.073	505.85
788.254	503.8
788.435	483.32
788.616	514.04
788.797	477.18
788.978	458.75
789.159	466.94
789.34	520.18
789.522	466.94
789.703	419.83
789.884	489.46
790.065	491.51
790.246	405.5
790.427	462.84
790.607	481.27
790.788	413.69
790.969	423.93
791.15	487.42
791.331	415.74
791.512	438.27
791.693	327.68
791.874	452.6
792.054	473.08
792.235	366.59
792.416	395.26
792.597	360.44
792.778	417.79
792.958	434.17
793.139	346.11
793.32	409.59
793.5	417.79
793.681	288.76
793.862	358.39
794.042	348.15
794.223	294.91
794.404	382.97
794.584	346.11
794.765	372.73
794.945	397.31
795.126	434.17
795.306	428.03
795.487	303.1
795.667	323.58
795.848	284.67
796.028	405.5
796.209	339.96
796.389	415.74
796.57	270.33
796.75	354.3
796.93	337.91
797.111	315.39
797.291	362.49
797.471	342.01
797.652	354.3
797.832	251.9
798.012	288.76
798.192	276.48
798.373	333.82
798.553	303.1
798.733	352.25
798.913	376.83
799.093	311.29
799.274	319.48
799.454	335.87
799.634	346.11
799.814	309.24
799.994	247.8
800.174	337.91
800.354	268.28
800.534	309.24
800.714	360.44
800.894	313.34
801.074	247.8
801.254	288.76
801.434	331.77
801.614	339.96
801.794	276.48
801.974	604.15
802.154	202.75
802.334	278.52
802.514	296.96
802.693	260.09
802.873	321.53
803.053	294.91
803.233	319.48
803.413	247.8
803.592	190.46
803.772	262.14
803.952	290.81
804.131	305.15
804.311	305.15
804.491	296.96
804.67	296.96
804.85	227.32
805.03	270.33
805.209	233.47
805.389	282.62
805.568	188.41
805.748	256
805.928	221.18
806.107	290.81
806.287	180.22
806.466	188.41
806.646	194.56
806.825	247.8
807.004	219.13
807.184	251.9
807.363	210.94
807.543	264.19
807.722	284.67
807.901	231.42
808.081	258.04
808.26	243.71
808.439	245.76
808.619	260.09
808.798	167.93
808.977	278.52
809.156	188.41
809.336	231.42
809.515	258.04
809.694	225.28
809.873	288.76
810.052	241.66
810.231	280.57
810.411	233.47
810.59	219.13
810.769	258.04
810.948	266.24
811.127	182.27
811.306	219.13
811.485	206.84
811.664	215.04
811.843	161.79
812.022	155.65
812.201	235.52
812.38	204.8
812.559	208.89
812.737	202.75
812.916	129.02
813.095	180.22
813.274	98.3
813.453	180.22
813.632	206.84
813.811	178.17
813.989	141.31
814.168	155.65
814.347	104.45
814.526	210.94
814.704	215.04
814.883	151.55
815.062	169.98
815.24	149.5
815.419	174.08
815.598	231.42
815.776	151.55
815.955	157.69
816.133	155.65
816.312	100.35
816.49	129.02
816.669	159.74
816.847	206.84
817.026	114.69
817.204	188.41
817.383	141.31
817.561	141.31
817.74	165.89
817.918	210.94
818.097	124.93
818.275	184.32
818.453	100.35
818.632	108.54
818.81	180.22
818.988	96.25
819.167	141.31
819.345	120.83
819.523	133.12
819.701	182.27
819.879	157.69
820.058	167.93
820.236	182.27
820.414	137.21
820.592	208.89
820.77	169.98
820.948	149.5
821.127	126.97
821.305	192.51
821.483	172.03
821.661	198.65
821.839	137.21
822.017	153.6
822.195	106.49
822.373	141.31
822.551	165.89
822.729	141.31
822.907	100.35
823.085	184.32
823.262	133.12
823.44	67.58
823.618	116.73
823.796	73.73
823.974	83.97
824.152	124.93
824.329	71.68
824.507	165.89
824.685	120.83
824.863	182.27
825.04	38.91
825.218	141.31
825.396	112.64
825.574	112.64
825.751	133.12
825.929	114.69
826.107	38.91
826.284	79.87
826.462	92.16
826.639	96.25
826.817	34.82
826.994	157.69
827.172	94.21
827.349	180.22
827.527	202.75
827.704	88.06
827.882	65.54
828.059	149.5
828.237	98.3
828.414	145.41
828.591	34.82
828.769	157.69
828.946	67.58
829.124	106.49
829.301	129.02
829.478	139.26
829.655	108.54
829.833	137.21
830.01	110.59
830.187	114.69
830.364	59.39
830.542	51.2
830.719	172.03
830.896	92.16
831.073	88.06
831.25	94.21
831.427	102.4
831.604	96.25
831.782	73.73
831.959	30.72
832.136	104.45
832.313	94.21
832.49	49.15
832.667	81.92
832.844	57.34
833.021	67.58
833.198	77.82
833.374	112.64
833.551	122.88
833.728	106.49
833.905	120.83
834.082	51.2
834.259	133.12
834.436	122.88
834.612	81.92
834.789	169.98
834.966	92.16
835.143	135.17
835.319	86.01
835.496	133.12
835.673	143.36
835.85	73.73
836.026	51.2
836.203	129.02
836.38	94.21
836.556	116.73
836.733	59.39
836.909	110.59
837.086	86.01
837.262	110.59
837.439	159.74
837.616	126.97
837.792	47.1
837.968	147.45
838.145	34.82
838.321	67.58
838.498	141.31
838.674	94.21
838.851	73.73
839.027	190.46
839.203	26.62
839.38	79.87
839.556	92.16
839.732	92.16
839.909	45.06
840.085	118.78
840.261	49.15
840.437	124.93
840.614	28.67
840.79	79.87
840.966	59.39
841.142	65.54
841.318	102.4
841.494	75.77
841.671	-12.29
841.847	67.58
842.023	73.73
842.199	45.06
842.375	63.49
842.551	86.01
842.727	98.3
842.903	112.64
843.079	47.1
843.255	118.78
843.431	147.45
843.607	45.06
843.783	47.1
843.959	28.67
844.134	77.82
844.31	120.83
844.486	112.64
844.662	88.06
844.838	94.21
845.013	71.68
845.189	61.44
845.365	26.62
845.541	51.2
845.716	92.16
845.892	86.01
846.068	0
846.244	53.25
846.419	86.01
846.595	40.96
846.77	36.86
846.946	100.35
847.122	59.39
847.297	43.01
847.473	92.16
847.648	-18.43
847.824	61.44
847.999	32.77
848.175	59.39
848.35	20.48
848.526	129.02
848.701	18.43
848.876	20.48
849.052	10.24
849.227	28.67
849.403	51.2
849.578	94.21
849.753	65.54
849.929	94.21
850.104	51.2
850.279	28.67
850.454	49.15
850.63	8.19
850.805	43.01
850.98	63.49
851.155	8.19
851.33	55.3
851.505	18.43
851.681	22.53
851.856	67.58
852.031	-14.34
852.206	14.34
852.381	69.63
852.556	96.25
852.731	102.4
852.906	86.01
853.081	69.63
853.256	38.91
853.431	53.25
853.606	10.24
853.781	-4.1
853.956	-8.19
854.131	43.01
854.305	20.48
854.48	67.58
854.655	55.3
854.83	77.82
855.005	79.87
855.18	51.2
855.354	57.34
855.529	57.34
855.704	55.3
855.879	-30.72
856.053	22.53
856.228	8.19
856.403	6.14
856.577	53.25
856.752	51.2
856.926	12.29
857.101	-2.05
857.276	-38.91
857.45	55.3
857.625	22.53
857.799	51.2
857.974	16.38
858.148	30.72
858.323	-10.24
858.497	-18.43
858.672	-16.38
858.846	77.82
859.02	18.43
859.195	79.87
859.369	53.25
859.543	71.68
859.718	-40.96
859.892	-4.1
860.066	28.67
860.241	26.62
860.415	57.34
860.589	-30.72
860.763	34.82
860.938	40.96
861.112	71.68
861.286	22.53
861.46	2.05
861.634	-63.49
861.808	51.2
861.982	10.24
862.157	57.34
862.331	43.01
862.505	-16.38
862.679	-4.1
862.853	22.53
863.027	28.67
863.201	49.15
863.375	65.54
863.549	2.05
863.722	28.67
863.896	124.93
864.07	-18.43
864.244	-18.43
864.418	92.16
864.592	67.58
864.766	118.78
864.939	12.29
865.113	2.05
865.287	30.72
865.461	12.29
865.634	-47.1
865.808	24.58
865.982	12.29
866.156	20.48
866.329	55.3
866.503	32.77
866.676	-4.1
866.85	65.54
867.024	-28.67
867.197	-2.05
867.371	51.2
867.544	51.2
867.718	55.3
867.891	14.34
868.065	-4.1
868.238	40.96
868.412	69.63
868.585	69.63
868.759	-2.05
868.932	-14.34
869.105	43.01
869.279	38.91
869.452	59.39
869.625	-10.24
869.799	110.59
869.972	49.15
870.145	90.11
870.319	57.34
870.492	53.25
870.665	20.48
870.838	24.58
871.011	-18.43
871.185	61.44
871.358	-32.77
871.531	22.53
871.704	-2.05
871.877	34.82
872.05	24.58
872.223	-30.72
872.396	71.68
872.569	55.3
872.742	-4.1
872.915	16.38
873.088	-40.96
873.261	63.49
873.434	26.62
873.607	-10.24
873.78	53.25
873.953	36.86
874.126	98.3
874.299	59.39
874.471	45.06
874.644	6.14
874.817	26.62
874.99	100.35
875.163	-22.53
875.335	12.29
875.508	45.06
875.681	6.14
875.853	-20.48
876.026	65.54
876.199	-22.53
876.371	69.63
876.544	14.34
876.717	10.24
876.889	34.82
877.062	22.53
877.234	22.53
877.407	-79.87
877.579	0
877.752	67.58
877.924	-14.34
878.097	34.82
878.269	4.1
878.442	71.68
878.614	22.53
878.786	-8.19
878.959	43.01
879.131	14.34
879.303	-16.38
879.476	20.48
879.648	32.77
879.82	36.86
879.993	-92.16
880.165	92.16
880.337	-22.53
880.509	-6.14
880.681	43.01
880.854	34.82
881.026	57.34
881.198	114.69
881.37	-30.72
881.542	4.1
881.714	51.2
881.886	43.01
882.058	-28.67
882.23	65.54
882.402	-4.1
882.574	83.97
882.746	16.38
882.918	22.53
883.09	-10.24
883.262	14.34
883.434	-4.1
883.606	38.91
883.778	36.86
883.95	16.38
884.122	12.29
884.293	59.39
884.465	2.05
884.637	61.44
884.809	-14.34
884.98	40.96
885.152	34.82
885.324	-4.1
885.496	22.53
885.667	14.34
885.839	-26.62
886.011	106.49
886.182	-14.34
886.354	26.62
886.525	77.82
886.697	26.62
886.869	24.58
887.04	26.62
887.212	-18.43
887.383	61.44
887.555	24.58
887.726	-16.38
887.897	51.2
888.069	79.87
888.24	67.58
888.412	6.14
888.583	30.72
888.754	28.67
888.926	-32.77
889.097	59.39
889.268	-63.49
889.44	10.24
889.611	18.43
889.782	-30.72
889.953	71.68
890.125	65.54
890.296	43.01
890.467	65.54
890.638	47.1
890.809	-43.01
890.98	57.34
891.151	-2.05
891.323	2.05
891.494	-28.67
891.665	-36.86
891.836	47.1
892.007	0
892.178	32.77
892.349	73.73
892.52	4.1
892.691	20.48
892.862	59.39
893.032	-51.2
893.203	26.62
893.374	75.77
893.545	-26.62
893.716	28.67
893.887	-77.82
894.057	18.43
894.228	53.25
894.399	-28.67
894.57	-79.87
894.74	26.62
894.911	-28.67
895.082	-43.01
895.253	16.38
895.423	43.01
895.594	45.06
895.764	61.44
895.935	-2.05
896.106	-14.34
896.276	47.1
896.447	-12.29
896.617	69.63
896.788	-55.3
896.958	-75.77
897.129	-10.24
897.299	49.15
897.47	-2.05
897.64	-38.91
897.81	16.38
897.981	-98.3
898.151	36.86
898.322	38.91
898.492	-8.19
898.662	22.53
898.832	20.48
899.003	32.77
899.173	65.54
899.343	-2.05
899.513	-14.34
