Data from USB4F104151__59__11-45-16-172.txt Node

Date: Fri Mar 14 11:45:16 EDT 2025
User: louis
Spectrometer: USB4F10415
Trigger mode: 4
Integration Time (sec): 2.000000E-2
Scans to average: 1
Electric dark correction enabled: true
Nonlinearity correction enabled: false
Boxcar width: 0
XAxis mode: Wavelengths
Number of Pixels in Spectrum: 3648
>>>>>Begin Spectral Data<<<<<
178.204	-85.84
178.424	-85.84
178.644	-85.84
178.864	-106.32
179.084	-55.12
179.304	37.03
179.524	-8.02
179.744	20.65
179.964	12.46
180.184	-20.31
180.404	6.31
180.624	-36.69
180.844	-20.31
181.064	-12.12
181.283	-10.07
181.503	18.6
181.723	12.46
181.943	-30.55
182.163	32.94
182.383	4.27
182.602	4.27
182.822	41.13
183.042	65.71
183.262	4.27
183.482	57.51
183.701	6.31
183.921	26.79
184.141	-30.55
184.361	125.1
184.58	-36.69
184.8	43.18
185.02	45.23
185.239	12.46
185.459	-26.45
185.679	18.6
185.898	0.17
186.118	63.66
186.338	45.23
186.557	22.7
186.777	6.31
186.997	32.94
187.216	-40.79
187.436	6.31
187.655	-48.98
187.875	39.08
188.095	43.18
188.314	55.47
188.534	100.52
188.753	57.51
188.973	41.13
189.192	39.08
189.412	14.51
189.631	24.75
189.851	43.18
190.07	34.99
190.29	12.46
190.509	20.65
190.729	20.65
190.948	104.62
191.168	98.47
191.387	63.66
191.607	24.75
191.826	20.65
192.045	118.95
192.265	51.37
192.484	-3.93
192.704	-8.02
192.923	-61.27
193.142	61.61
193.362	116.9
193.581	102.57
193.8	41.13
194.02	41.13
194.239	10.41
194.458	75.95
194.678	67.75
194.897	-22.36
195.116	-5.97
195.335	82.09
195.555	69.8
195.774	-24.4
195.993	94.38
196.212	22.7
196.432	4.27
196.651	28.84
196.87	12.46
197.089	30.89
197.308	-3.93
197.528	-8.02
197.747	32.94
197.966	34.99
198.185	108.71
198.404	-44.88
198.623	24.75
198.842	-32.6
199.062	2.22
199.281	94.38
199.5	41.13
199.719	-18.26
199.938	94.38
200.157	77.99
200.376	2.22
200.595	26.79
200.814	-1.88
201.033	63.66
201.252	-3.93
201.471	104.62
201.69	61.61
201.909	65.71
202.128	30.89
202.347	47.27
202.566	53.42
202.785	59.56
203.004	57.51
203.223	96.43
203.442	-10.07
203.661	37.03
203.879	96.43
204.098	-48.98
204.317	24.75
204.536	16.55
204.755	49.32
204.974	2.22
205.193	110.76
205.411	108.71
205.63	-10.07
205.849	-5.97
206.068	28.84
206.287	32.94
206.505	-14.17
206.724	47.27
206.943	69.8
207.162	51.37
207.381	2.22
207.599	-57.17
207.818	30.89
208.037	51.37
208.255	53.42
208.474	24.75
208.693	63.66
208.911	16.55
209.13	65.71
209.349	32.94
209.567	-18.26
209.786	67.75
210.005	37.03
210.223	-3.93
210.442	37.03
210.661	49.32
210.879	55.47
211.098	45.23
211.316	-1.88
211.535	77.99
211.753	57.51
211.972	34.99
212.191	-32.6
212.409	6.31
212.628	90.28
212.846	24.75
213.065	67.75
213.283	32.94
213.502	43.18
213.72	-44.88
213.938	53.42
214.157	53.42
214.375	43.18
214.594	-44.88
214.812	53.42
215.031	90.28
215.249	43.18
215.467	4.27
215.686	69.8
215.904	24.75
216.122	77.99
216.341	30.89
216.559	-12.12
216.778	106.67
216.996	98.47
217.214	59.56
217.432	-38.74
217.651	10.41
217.869	39.08
218.087	57.51
218.306	-20.31
218.524	-5.97
218.742	100.52
218.96	65.71
219.179	45.23
219.397	-12.12
219.615	80.04
219.833	98.47
220.051	39.08
220.27	112.81
220.488	92.33
220.706	53.42
220.924	2.22
221.142	22.7
221.36	-8.02
221.578	26.79
221.796	10.41
222.015	65.71
222.233	55.47
222.451	51.37
222.669	71.85
222.887	22.7
223.105	-14.17
223.323	-22.36
223.541	-10.07
223.759	28.84
223.977	77.99
224.195	92.33
224.413	34.99
224.631	34.99
224.849	65.71
225.067	37.03
225.285	57.51
225.503	98.47
225.721	8.36
225.939	8.36
226.157	22.7
226.375	159.91
226.592	55.47
226.81	43.18
227.028	75.95
227.246	57.51
227.464	-57.17
227.682	94.38
227.9	65.71
228.117	61.61
228.335	86.19
228.553	59.56
228.771	37.03
228.989	37.03
229.206	47.27
229.424	51.37
229.642	43.18
229.86	-5.97
230.077	-20.31
230.295	41.13
230.513	108.71
230.731	61.61
230.948	118.95
231.166	12.46
231.384	-46.93
231.601	65.71
231.819	20.65
232.037	39.08
232.254	-16.21
232.472	-14.17
232.689	61.61
232.907	47.27
233.125	-24.4
233.342	24.75
233.56	-8.02
233.777	-16.21
233.995	-5.97
234.213	71.85
234.43	-34.64
234.648	57.51
234.865	-26.45
235.083	8.36
235.3	6.31
235.518	32.94
235.735	43.18
235.953	102.57
236.17	26.79
236.388	14.51
236.605	39.08
236.822	80.04
237.04	88.23
237.257	69.8
237.475	4.27
237.692	34.99
237.909	12.46
238.127	32.94
238.344	102.57
238.562	100.52
238.779	24.75
238.996	28.84
239.214	-36.69
239.431	26.79
239.648	61.61
239.865	71.85
240.083	24.75
240.3	37.03
240.517	61.61
240.735	63.66
240.952	28.84
241.169	67.75
241.386	61.61
241.603	-38.74
241.821	71.85
242.038	-8.02
242.255	100.52
242.472	28.84
242.689	121
242.907	84.14
243.124	-14.17
243.341	47.27
243.558	-36.69
243.775	12.46
243.992	-1.88
244.209	77.99
244.426	63.66
244.643	-26.45
244.86	80.04
245.078	43.18
245.295	8.36
245.512	75.95
245.729	-16.21
245.946	80.04
246.163	16.55
246.38	57.51
246.597	-36.69
246.814	0.17
247.031	12.46
247.248	24.75
247.464	8.36
247.681	32.94
247.898	80.04
248.115	2.22
248.332	8.36
248.549	32.94
248.766	123.05
248.983	55.47
249.2	-1.88
249.417	104.62
249.633	2.22
249.85	8.36
250.067	2.22
250.284	-3.93
250.501	61.61
250.717	104.62
250.934	22.7
251.151	8.36
251.368	2.22
251.585	8.36
251.801	98.47
252.018	49.32
252.235	65.71
252.451	41.13
252.668	77.99
252.885	82.09
253.102	75.95
253.318	-8.02
253.535	73.9
253.752	47.27
253.968	61.61
254.185	69.8
254.401	61.61
254.618	37.03
254.835	30.89
255.051	104.62
255.268	-16.21
255.484	59.56
255.701	45.23
255.917	12.46
256.134	67.75
256.351	51.37
256.567	-38.74
256.784	53.42
257	14.51
257.217	100.52
257.433	98.47
257.65	32.94
257.866	65.71
258.082	47.27
258.299	57.51
258.515	77.99
258.732	-3.93
258.948	-22.36
259.165	43.18
259.381	0.17
259.597	4.27
259.814	20.65
260.03	45.23
260.246	2.22
260.463	43.18
260.679	121
260.895	-28.5
261.112	84.14
261.328	34.99
261.544	53.42
261.761	123.05
261.977	47.27
262.193	-40.79
262.409	12.46
262.626	57.51
262.842	127.14
263.058	102.57
263.274	18.6
263.49	37.03
263.707	90.28
263.923	80.04
264.139	28.84
264.355	34.99
264.571	41.13
264.787	-5.97
265.004	30.89
265.22	73.9
265.436	24.75
265.652	12.46
265.868	53.42
266.084	37.03
266.3	30.89
266.516	34.99
266.732	49.32
266.948	65.71
267.164	-5.97
267.38	10.41
267.596	26.79
267.812	-32.6
268.028	71.85
268.244	69.8
268.46	39.08
268.676	30.89
268.892	61.61
269.108	-18.26
269.324	8.36
269.54	-20.31
269.756	71.85
269.972	10.41
270.188	112.81
270.403	10.41
270.619	63.66
270.835	41.13
271.051	28.84
271.267	88.23
271.483	-12.12
271.698	12.46
271.914	61.61
272.13	-16.21
272.346	18.6
272.562	28.84
272.777	28.84
272.993	104.62
273.209	53.42
273.425	57.51
273.64	-14.17
273.856	88.23
274.072	123.05
274.287	41.13
274.503	28.84
274.719	-3.93
274.934	24.75
275.15	2.22
275.366	26.79
275.581	30.89
275.797	14.51
276.012	65.71
276.228	26.79
276.444	86.19
276.659	116.9
276.875	41.13
277.09	6.31
277.306	69.8
277.521	30.89
277.737	45.23
277.952	75.95
278.168	59.56
278.383	6.31
278.599	-12.12
278.814	-26.45
279.03	26.79
279.245	112.81
279.461	39.08
279.676	133.29
279.892	45.23
280.107	41.13
280.322	41.13
280.538	63.66
280.753	53.42
280.969	12.46
281.184	0.17
281.399	77.99
281.615	18.6
281.83	61.61
282.045	49.32
282.26	37.03
282.476	67.75
282.691	32.94
282.906	37.03
283.122	73.9
283.337	-18.26
283.552	57.51
283.767	8.36
283.983	-20.31
284.198	8.36
284.413	53.42
284.628	22.7
284.843	-5.97
285.058	-67.41
285.274	114.86
285.489	12.46
285.704	51.37
285.919	92.33
286.134	39.08
286.349	-1.88
286.564	53.42
286.779	43.18
286.995	88.23
287.21	69.8
287.425	26.79
287.64	28.84
287.855	67.75
288.07	-32.6
288.285	18.6
288.5	53.42
288.715	121
288.93	110.76
289.145	51.37
289.36	80.04
289.575	69.8
289.79	34.99
290.004	30.89
290.219	92.33
290.434	45.23
290.649	67.75
290.864	32.94
291.079	26.79
291.294	133.29
291.509	69.8
291.724	77.99
291.938	-3.93
292.153	94.38
292.368	-30.55
292.583	2.22
292.798	80.04
293.012	18.6
293.227	71.85
293.442	18.6
293.657	0.17
293.871	18.6
294.086	73.9
294.301	69.8
294.516	0.17
294.73	-12.12
294.945	65.71
295.16	4.27
295.374	26.79
295.589	65.71
295.804	0.17
296.018	110.76
296.233	32.94
296.447	63.66
296.662	-32.6
296.877	71.85
297.091	110.76
297.306	53.42
297.52	10.41
297.735	20.65
297.949	-18.26
298.164	-5.97
298.378	51.37
298.593	-44.88
298.807	94.38
299.022	12.46
299.236	45.23
299.451	8.36
299.665	53.42
299.88	30.89
300.094	26.79
300.309	-1.88
300.523	47.27
300.737	55.47
300.952	22.7
301.166	47.27
301.381	39.08
301.595	65.71
301.809	67.75
302.024	-12.12
302.238	80.04
302.452	37.03
302.667	37.03
302.881	118.95
303.095	80.04
303.309	30.89
303.524	45.23
303.738	24.75
303.952	94.38
304.166	67.75
304.381	20.65
304.595	86.19
304.809	-10.07
305.023	75.95
305.237	86.19
305.452	30.89
305.666	-22.36
305.88	10.41
306.094	94.38
306.308	12.46
306.522	80.04
306.736	18.6
306.95	6.31
307.164	41.13
307.379	75.95
307.593	53.42
307.807	-18.26
308.021	61.61
308.235	55.47
308.449	8.36
308.663	47.27
308.877	59.56
309.091	18.6
309.305	71.85
309.519	55.47
309.733	116.9
309.947	-14.17
310.161	77.99
310.374	24.75
310.588	61.61
310.802	-12.12
311.016	67.75
311.23	10.41
311.444	30.89
311.658	59.56
311.872	43.18
312.085	116.9
312.299	39.08
312.513	28.84
312.727	102.57
312.941	65.71
313.154	6.31
313.368	20.65
313.582	69.8
313.796	100.52
314.009	12.46
314.223	100.52
314.437	18.6
314.651	80.04
314.864	94.38
315.078	-5.97
315.292	39.08
315.505	-20.31
315.719	63.66
315.933	114.86
316.146	24.75
316.36	-40.79
316.573	100.52
316.787	84.14
317.001	96.43
317.214	8.36
317.428	49.32
317.641	26.79
317.855	30.89
318.068	37.03
318.282	-18.26
318.495	-3.93
318.709	41.13
318.922	18.6
319.136	28.84
319.349	16.55
319.563	30.89
319.776	53.42
319.99	-1.88
320.203	67.75
320.417	45.23
320.63	82.09
320.843	110.76
321.057	32.94
321.27	57.51
321.483	57.51
321.697	69.8
321.91	125.1
322.124	77.99
322.337	55.47
322.55	8.36
322.763	49.32
322.977	86.19
323.19	108.71
323.403	63.66
323.617	77.99
323.83	77.99
324.043	6.31
324.256	133.29
324.469	102.57
324.683	100.52
324.896	32.94
325.109	43.18
325.322	77.99
325.535	67.75
325.748	55.47
325.962	47.27
326.175	51.37
326.388	110.76
326.601	24.75
326.814	34.99
327.027	-18.26
327.24	121
327.453	-34.64
327.666	53.42
327.879	28.84
328.092	28.84
328.305	10.41
328.518	16.55
328.731	104.62
328.944	12.46
329.157	51.37
329.37	86.19
329.583	86.19
329.796	57.51
330.009	41.13
330.222	22.7
330.435	26.79
330.648	22.7
330.861	100.52
331.073	90.28
331.286	92.33
331.499	71.85
331.712	18.6
331.925	10.41
332.138	30.89
332.35	104.62
332.563	75.95
332.776	90.28
332.989	47.27
333.202	164.01
333.414	-8.02
333.627	37.03
333.84	-12.12
334.053	30.89
334.265	34.99
334.478	71.85
334.691	112.81
334.903	69.8
335.116	47.27
335.329	75.95
335.541	-8.02
335.754	94.38
335.966	53.42
336.179	34.99
336.392	-10.07
336.604	59.56
336.817	73.9
337.029	161.96
337.242	53.42
337.454	-26.45
337.667	14.51
337.88	88.23
338.092	102.57
338.305	41.13
338.517	6.31
338.729	-1.88
338.942	63.66
339.154	10.41
339.367	28.84
339.579	24.75
339.792	37.03
340.004	110.76
340.217	73.9
340.429	82.09
340.641	30.89
340.854	164.01
341.066	59.56
341.278	51.37
341.491	20.65
341.703	73.9
341.915	22.7
342.128	98.47
342.34	-48.98
342.552	67.75
342.764	26.79
342.977	6.31
343.189	18.6
343.401	8.36
343.613	45.23
343.826	-28.5
344.038	57.51
344.25	73.9
344.462	98.47
344.674	129.19
344.886	61.61
345.099	127.14
345.311	108.71
345.523	53.42
345.735	77.99
345.947	104.62
346.159	63.66
346.371	118.95
346.583	84.14
346.795	59.56
347.007	39.08
347.219	94.38
347.431	-51.03
347.643	73.9
347.855	20.65
348.067	88.23
348.279	75.95
348.491	32.94
348.703	86.19
348.915	6.31
349.127	110.76
349.339	86.19
349.551	100.52
349.763	75.95
349.975	34.99
350.187	32.94
350.399	131.24
350.61	49.32
350.822	16.55
351.034	75.95
351.246	26.79
351.458	30.89
351.669	73.9
351.881	41.13
352.093	67.75
352.305	86.19
352.517	92.33
352.728	73.9
352.94	63.66
353.152	118.95
353.363	127.14
353.575	84.14
353.787	84.14
353.999	98.47
354.21	102.57
354.422	30.89
354.633	6.31
354.845	98.47
355.057	73.9
355.268	51.37
355.48	90.28
355.692	10.41
355.903	104.62
356.115	116.9
356.326	28.84
356.538	24.75
356.749	61.61
356.961	153.77
357.172	67.75
357.384	63.66
357.595	28.84
357.807	61.61
358.018	18.6
358.23	30.89
358.441	84.14
358.653	71.85
358.864	100.52
359.075	98.47
359.287	6.31
359.498	45.23
359.709	-1.88
359.921	-24.4
360.132	28.84
360.344	28.84
360.555	39.08
360.766	77.99
360.977	98.47
361.189	102.57
361.4	82.09
361.611	0.17
361.823	39.08
362.034	57.51
362.245	34.99
362.456	67.75
362.667	20.65
362.879	59.56
363.09	37.03
363.301	8.36
363.512	106.67
363.723	41.13
363.935	43.18
364.146	98.47
364.357	34.99
364.568	53.42
364.779	26.79
364.99	69.8
365.201	63.66
365.412	155.82
365.623	118.95
365.834	41.13
366.045	47.27
366.256	51.37
366.467	53.42
366.678	28.84
366.889	57.51
367.1	143.53
367.311	98.47
367.522	145.58
367.733	82.09
367.944	53.42
368.155	75.95
368.366	110.76
368.577	67.75
368.788	147.62
368.999	34.99
369.209	88.23
369.42	69.8
369.631	125.1
369.842	151.72
370.053	49.32
370.264	118.95
370.474	-53.08
370.685	73.9
370.896	129.19
371.107	106.67
371.317	39.08
371.528	34.99
371.739	114.86
371.95	32.94
372.16	34.99
372.371	90.28
372.582	55.47
372.792	14.51
373.003	32.94
373.214	98.47
373.424	82.09
373.635	18.6
373.846	39.08
374.056	98.47
374.267	123.05
374.477	37.03
374.688	55.47
374.898	49.32
375.109	69.8
375.319	94.38
375.53	98.47
375.74	26.79
375.951	32.94
376.161	55.47
376.372	110.76
376.582	80.04
376.793	51.37
377.003	67.75
377.214	32.94
377.424	80.04
377.635	102.57
377.845	-30.55
378.055	45.23
378.266	-46.93
378.476	51.37
378.686	63.66
378.897	45.23
379.107	86.19
379.317	57.51
379.528	47.27
379.738	112.81
379.948	90.28
380.158	65.71
380.369	82.09
380.579	80.04
380.789	39.08
380.999	28.84
381.21	82.09
381.42	90.28
381.63	32.94
381.84	75.95
382.05	39.08
382.261	98.47
382.471	75.95
382.681	22.7
382.891	32.94
383.101	37.03
383.311	102.57
383.521	77.99
383.731	108.71
383.941	-8.02
384.151	100.52
384.361	32.94
384.571	82.09
384.781	59.56
384.991	135.34
385.201	102.57
385.411	106.67
385.621	71.85
385.831	82.09
386.041	39.08
386.251	112.81
386.461	118.95
386.671	45.23
386.881	51.37
387.091	90.28
387.301	26.79
387.511	2.22
387.72	92.33
387.93	121
388.14	80.04
388.35	80.04
388.56	137.38
388.769	106.67
388.979	98.47
389.189	121
389.399	135.34
389.609	94.38
389.818	57.51
390.028	53.42
390.238	61.61
390.447	114.86
390.657	43.18
390.867	59.56
391.076	37.03
391.286	41.13
391.496	65.71
391.705	49.32
391.915	106.67
392.125	94.38
392.334	121
392.544	96.43
392.753	98.47
392.963	110.76
393.172	73.9
393.382	100.52
393.591	80.04
393.801	110.76
394.01	114.86
394.22	57.51
394.429	86.19
394.639	184.49
394.848	135.34
395.058	135.34
395.267	80.04
395.477	141.48
395.686	59.56
395.895	172.2
396.105	188.58
396.314	102.57
396.524	157.86
396.733	125.1
396.942	108.71
397.152	166.06
397.361	104.62
397.57	135.34
397.78	155.82
397.989	151.72
398.198	184.49
398.407	153.77
398.617	121
398.826	157.86
399.035	200.87
399.244	118.95
399.453	116.9
399.663	186.54
399.872	133.29
400.081	131.24
400.29	172.2
400.499	88.23
400.708	108.71
400.917	221.35
401.127	204.97
401.336	80.04
401.545	164.01
401.754	141.48
401.963	188.58
402.172	143.53
402.381	106.67
402.59	188.58
402.799	129.19
403.008	172.2
403.217	141.48
403.426	172.2
403.635	166.06
403.844	153.77
404.053	147.62
404.262	143.53
404.471	192.68
404.68	182.44
404.888	184.49
405.097	198.82
405.306	182.44
405.515	196.78
405.724	196.78
405.933	170.15
406.142	188.58
406.35	207.02
406.559	268.45
406.768	180.39
406.977	266.41
407.185	237.74
407.394	305.32
407.603	256.17
407.812	178.34
408.02	231.59
408.229	282.79
408.438	299.17
408.646	262.31
408.855	299.17
409.064	282.79
409.272	325.8
409.481	352.42
409.69	272.55
409.898	352.42
410.107	366.76
410.315	422.05
410.524	340.13
410.733	434.34
410.941	442.53
411.15	434.34
411.358	483.49
411.567	434.34
411.775	460.96
411.984	493.73
412.192	530.59
412.401	522.4
412.609	536.74
412.818	600.23
413.026	577.7
413.234	651.42
413.443	643.23
413.651	657.57
413.86	710.82
414.068	751.78
414.276	802.97
414.485	792.73
414.693	747.68
414.901	862.37
415.11	884.89
415.318	870.56
415.526	884.89
415.734	975
415.943	983.2
416.151	1040.54
416.359	948.38
416.567	1024.16
416.776	1101.98
416.984	1120.41
417.192	1136.79
417.4	1216.66
417.608	1169.56
417.817	1153.18
418.025	1323.16
418.233	1415.32
418.441	1372.31
418.649	1446.04
418.857	1630.35
419.065	1620.11
419.273	1519.76
419.481	1730.7
419.689	1697.94
419.897	1810.58
420.105	1826.96
420.313	1869.97
420.521	1876.11
420.729	1998.99
420.937	2085
421.145	2232.46
421.353	2193.55
421.561	2422.92
421.769	2381.96
421.977	2533.51
422.185	2570.37
422.393	2633.86
422.601	2859.14
422.809	2748.54
423.017	2904.19
423.224	2965.63
423.432	3076.22
423.64	3061.88
423.848	3350.65
424.056	3160.19
424.263	3416.18
424.471	3461.24
424.679	3563.64
424.887	3612.79
425.094	3745.91
425.302	3838.06
425.51	3887.22
425.718	4208.75
425.925	4247.66
426.133	4391.02
426.341	4683.88
426.548	4667.49
426.756	4935.78
426.964	4829.28
427.171	5197.92
427.379	5386.33
427.586	5351.51
427.794	5427.29
428.001	5836.88
428.209	5931.09
428.417	6023.25
428.624	6467.66
428.832	6447.18
429.039	6324.3
429.247	6463.56
429.454	6971.46
429.662	7452.73
429.869	6881.35
430.076	7411.77
430.284	7014.46
430.491	7512.12
430.699	7895.09
430.906	7874.61
431.114	8007.73
431.321	8402.99
431.528	8429.61
431.736	9031.71
431.943	9351.2
432.15	9144.35
432.358	9351.2
432.565	9877.52
432.772	9674.78
432.979	10342.41
433.187	10418.19
433.394	10450.96
433.601	11188.22
433.808	11235.33
434.016	11153.41
434.223	11515.9
434.43	12449.77
434.637	12287.98
434.844	12728.3
435.052	12845.03
435.259	13168.61
435.466	13393.89
435.673	13201.38
435.88	13897.69
436.087	14649.29
436.294	14671.82
436.501	14327.76
436.708	14532.56
436.915	14841.8
437.122	15853.5
437.329	15765.43
437.537	16388.02
437.743	16533.42
437.95	16142.26
438.157	17274.79
438.364	17790.88
438.571	17577.89
438.778	17928.09
438.985	19521.41
439.192	18773.9
439.399	19455.87
439.606	18784.14
439.813	20176.76
440.02	21323.62
440.227	21026.67
440.433	20469.62
440.64	21311.33
440.847	21391.2
441.054	21825.37
441.261	23136.07
441.467	23127.88
441.674	23351.11
441.881	24100.67
442.088	24289.08
442.294	24037.18
442.501	24512.31
442.708	25159.47
442.914	25937.69
443.121	27006.73
443.328	26013.47
443.534	28047.1
443.741	27647.75
443.948	27064.08
444.154	29003.5
444.361	28524.28
444.568	28892.91
444.774	29077.23
444.981	29630.18
445.187	30353.12
445.394	31383.24
445.6	31319.76
445.807	34408.09
446.013	32513.72
446.22	33304.24
446.426	34467.48
446.633	34821.78
446.839	35993.22
447.046	34696.86
447.252	36789.88
447.459	36478.59
447.665	36150.92
447.871	37994.09
448.078	39302.74
448.284	37721.71
448.491	38497.89
448.697	40267.33
448.903	40830.52
449.11	41023.03
449.316	40257.09
449.522	40869.44
449.728	42030.63
449.935	42210.85
450.141	42272.29
450.347	43308.57
450.553	41889.32
450.76	42790.43
450.966	44199.43
451.172	43771.41
451.378	44328.45
451.584	43419.16
451.791	44488.2
451.997	44488.2
452.203	45002.24
452.409	45116.92
452.615	45108.73
452.821	43499.03
453.027	42595.87
453.233	45487.6
453.44	43357.72
453.646	43865.61
453.852	43537.94
454.058	44920.32
454.264	43410.96
454.47	44461.57
454.676	43302.42
454.882	44805.63
455.088	40803.9
455.294	41268.79
455.5	42321.44
455.705	42743.33
455.911	40855.1
456.117	40222.28
456.323	39597.65
456.529	37475.95
456.735	38993.5
456.941	38110.82
457.147	37643.88
457.352	36124.29
457.558	36306.56
457.764	35886.73
457.97	35231.38
458.176	34236.06
458.381	34616.99
458.587	33111.73
458.793	32939.7
458.999	31305.42
459.204	33535.66
459.41	32640.7
459.616	30512.86
459.821	30377.69
460.027	30547.67
460.233	29671.14
460.438	28411.64
460.644	28589.81
460.85	27297.55
461.055	26834.71
461.261	27012.88
461.466	24622.9
461.672	23885.63
461.878	25659.17
462.083	24035.13
462.289	23695.17
462.494	23377.73
462.7	22134.62
462.905	21901.15
463.111	22501.2
463.316	22734.67
463.522	21909.34
463.727	21954.4
463.932	21856.09
464.138	21864.29
464.343	22120.28
464.549	21196.65
464.754	21919.58
464.959	21901.15
465.165	21362.53
465.37	20750.19
465.575	20166.52
465.781	20850.54
465.986	21303.14
466.191	20426.61
466.397	20045.69
466.602	18780.04
466.807	19619.71
467.012	19736.45
467.218	19529.6
467.423	19359.62
467.628	19349.38
467.833	20262.77
468.038	19464.07
468.244	18937.74
468.449	19646.33
468.654	18960.27
468.859	18857.87
469.064	18974.6
469.269	18296.72
469.474	18241.43
469.679	18714.51
469.885	18038.68
470.09	18411.41
470.295	18108.31
470.5	17852.31
470.705	18147.22
470.91	17233.83
471.115	17129.38
471.32	17530.78
471.525	17588.13
471.73	17090.47
471.935	16965.54
472.139	16215.99
472.344	16605.1
472.549	16471.98
472.754	16404.4
472.959	15826.87
473.164	15687.61
473.369	15806.39
473.574	15998.9
473.778	15867.83
473.983	15511.49
474.188	15439.81
474.393	14815.18
474.598	14903.24
474.802	14843.85
475.007	14702.54
475.212	14792.65
475.417	14258.13
475.621	14272.46
475.826	14237.65
476.031	13891.54
476.235	13799.38
476.44	14026.71
476.645	13676.51
476.849	13660.12
477.054	13426.65
477.259	13174.75
477.463	13443.04
477.668	12906.47
477.872	13074.4
478.077	12697.58
478.282	12535.79
478.486	12537.84
478.691	12380.14
478.895	12423.15
479.1	12304.37
479.304	12437.48
479.509	11974.64
479.713	12326.89
479.918	11798.52
480.122	11722.74
480.326	11939.83
480.531	11857.91
480.735	11644.92
480.94	11644.92
481.144	12074.99
481.348	11618.3
481.553	11540.47
481.757	11350.01
481.961	11442.17
482.166	11540.47
482.37	11495.42
482.574	11395.07
482.778	11433.98
482.983	11632.63
483.187	11397.12
483.391	11571.19
483.595	11274.24
483.8	11315.2
484.004	11368.45
484.208	11591.67
484.412	11415.55
484.616	11294.72
484.821	11341.82
485.025	11081.73
485.229	11628.54
485.433	11145.22
485.637	11333.63
485.841	11106.31
486.045	11075.59
486.249	11225.09
486.453	11182.08
486.657	11163.65
486.861	11444.22
487.065	11014.15
487.269	11188.22
487.473	11243.52
487.677	11479.04
487.881	11442.17
488.085	11264
488.289	11270.14
488.493	11202.56
488.697	11333.63
488.901	11487.23
489.105	11407.36
489.309	11565.05
489.512	11376.64
489.716	11534.33
489.92	11376.64
490.124	11581.43
490.328	11700.22
490.531	11307.01
490.735	11466.75
490.939	11423.74
491.143	11556.86
491.346	11452.41
491.55	11747.32
491.754	11816.95
491.958	11870.2
492.161	11569.15
492.365	12103.67
492.569	11819
492.772	11929.59
492.976	12009.46
493.18	12042.23
493.383	12414.96
493.587	12074.99
493.79	12314.61
493.994	12154.87
494.197	12412.91
494.401	12533.74
494.605	12404.72
494.808	12701.67
495.012	12820.46
495.215	12576.75
495.419	12912.61
495.622	12779.5
495.825	13221.86
496.029	13006.82
496.232	13723.61
496.436	13410.27
496.639	13613.02
496.843	13336.54
497.046	13651.93
497.249	13871.06
497.453	13942.74
497.656	14256.08
497.859	14137.3
498.063	14278.61
498.266	14938.05
498.469	14739.4
498.673	14587.85
498.876	15134.66
499.079	14927.81
499.282	15165.38
499.485	15335.36
499.689	15382.46
499.892	15833.02
500.095	15802.3
500.298	16166.84
500.501	16148.4
500.705	16261.04
500.908	16629.68
501.111	16521.13
501.314	16854.95
501.517	17106.85
501.72	17260.45
501.923	17215.4
502.126	17790.88
502.329	17934.23
502.532	17917.85
502.735	18030.49
502.938	18261.91
503.141	18511.76
503.344	18894.73
503.547	18831.24
503.75	18982.79
503.953	19232.65
504.156	19228.55
504.359	19472.26
504.562	19847.04
504.765	20346.74
504.968	20514.67
505.17	20492.15
505.373	20428.66
505.576	21157.74
505.779	21262.18
505.982	21440.36
506.185	21626.72
506.387	21929.82
506.59	21919.58
506.793	22302.55
506.996	22146.9
507.198	22824.78
507.401	22880.08
507.604	23211.85
507.807	23676.74
508.009	23619.39
508.212	23584.58
508.415	24115
508.617	24231.74
508.82	24459.06
509.022	24403.77
509.225	25130.8
509.428	25298.73
509.63	25249.58
509.833	25757.47
510.035	26134.3
510.238	25952.03
510.44	26398.49
510.643	26275.61
510.845	27240.2
511.048	26455.83
511.25	27115.28
511.453	27483.91
511.655	28165.88
511.858	28049.15
512.06	27952.9
512.262	28573.43
512.465	28245.76
512.667	28788.47
512.87	29101.81
513.072	29681.38
513.274	30043.87
513.477	30252.77
513.679	30676.69
513.881	30326.49
514.084	30856.92
514.286	30936.79
514.488	31121.1
514.69	32081.6
514.893	31971.01
515.095	32104.13
515.297	32499.39
515.499	32218.82
515.701	33312.43
515.904	33162.93
516.106	33343.15
516.308	33873.57
516.51	34172.58
516.712	34334.37
516.914	34678.43
517.116	35057.3
517.318	35169.94
517.52	35292.82
517.722	35964.55
517.925	35989.13
518.127	36230.79
518.329	36611.71
518.531	37011.06
518.733	36992.63
518.935	37230.19
519.136	36980.34
519.338	37756.52
519.54	38100.58
519.742	38233.7
519.944	38641.25
520.146	39431.76
520.348	39097.94
520.55	39278.16
520.752	39974.47
520.954	39974.47
521.155	40240.71
521.357	40508.99
521.559	40902.2
521.761	41559.6
521.963	41559.6
522.164	41997.87
522.366	42024.49
522.568	41866.8
522.77	42329.64
522.971	43169.3
523.173	42370.6
523.375	42894.88
523.576	43114.01
523.778	43060.76
523.98	44275.21
524.181	43908.62
524.383	44246.54
524.584	44424.71
524.786	44353.03
524.988	44484.1
525.189	44826.11
525.391	45121.02
525.592	45467.12
525.794	45301.24
525.995	45772.27
526.197	45585.91
526.398	45211.13
526.6	46345.7
526.801	46231.02
527.003	46433.77
527.204	46454.25
527.406	46663.14
527.607	47326.68
527.808	47191.51
528.01	46181.87
528.211	46931.42
528.412	47842.77
528.614	47412.7
528.815	47519.19
529.016	47824.34
529.218	47343.06
529.419	47908.3
529.62	47742.42
529.822	47822.29
530.023	48256.46
530.224	48039.37
530.425	48205.26
530.626	48272.84
530.828	48117.2
531.029	49354.17
531.23	48217.55
531.431	48379.34
531.632	48401.86
531.833	48373.19
532.035	48647.62
532.236	48602.57
532.437	48891.33
532.638	48653.76
532.839	49194.43
533.04	49235.39
533.241	48621
533.442	49610.17
533.643	48956.86
533.844	49337.79
534.045	48958.91
534.246	48700.87
534.447	49141.18
534.648	48756.16
534.849	49362.36
535.05	49003.97
535.251	49255.87
535.451	49178.04
535.652	49280.44
535.853	48653.76
536.054	49345.98
536.255	49337.79
536.456	48711.11
536.657	49513.91
536.857	49042.88
537.058	48983.49
537.259	49233.34
537.46	49440.18
537.66	49280.44
537.861	49104.32
538.062	49233.34
538.263	49276.35
538.463	49049.02
538.664	48887.23
538.865	49624.5
539.065	49370.55
539.266	48672.2
539.466	49423.8
539.667	48567.75
539.868	49640.89
540.068	49038.78
540.269	49071.55
540.469	49216.96
540.67	49059.26
540.87	49010.11
541.071	48827.84
541.271	48846.27
541.472	49006.01
541.672	48483.78
541.873	48704.96
542.073	48156.11
542.274	49464.76
542.474	48657.86
542.675	48340.43
542.875	49227.2
543.075	48784.83
543.276	48426.44
543.476	48991.68
543.676	48438.73
543.877	48854.47
544.077	49059.26
544.277	48586.18
544.478	48584.13
544.678	49135.04
544.878	48444.87
545.078	48575.94
545.279	48600.52
545.479	48641.48
545.679	48813.51
545.879	48530.89
546.079	48682.44
546.28	48588.23
546.48	48002.51
546.68	49159.61
546.88	48586.18
547.08	48848.32
547.28	48096.72
547.48	48137.68
547.68	48555.46
547.88	48555.46
548.081	48547.27
548.281	48522.69
548.481	48158.16
548.681	48776.64
548.881	48340.43
549.081	48262.6
549.28	48137.68
549.48	48815.55
549.68	48317.9
549.88	48621
550.08	48043.47
550.28	48188.88
550.48	48426.44
550.68	48305.61
550.88	48014.8
551.08	48539.08
551.279	48559.56
551.479	47816.15
551.679	48109
551.879	48129.48
552.079	48747.97
552.278	48295.37
552.478	47816.15
552.678	48123.34
552.878	48518.6
553.077	47898.06
553.277	47758.8
553.477	48723.4
553.676	47865.3
553.876	47797.71
554.076	47793.62
554.275	47605.2
554.475	47289.82
554.674	47896.02
554.874	47728.08
555.074	47474.13
555.273	47861.2
555.473	47728.08
555.672	47216.09
555.872	47263.19
556.071	48012.75
556.271	47891.92
556.47	47074.78
556.67	46992.86
556.869	46734.82
557.068	47123.93
557.268	47216.09
557.467	46974.43
557.667	47379.93
557.866	47408.6
558.065	47011.29
558.265	46708.19
558.464	47005.15
558.663	47187.42
558.863	46536.16
559.062	47652.31
559.261	46437.86
559.461	47033.82
559.66	46220.78
559.859	46462.44
560.058	46360.04
560.258	46357.99
560.457	46185.96
560.656	46706.15
560.855	46196.2
561.054	46560.74
561.253	45663.73
561.453	46159.34
561.652	46347.75
561.851	46271.98
562.05	46192.11
562.249	45350.39
562.448	46132.71
562.647	45770.22
562.846	45622.77
563.045	46175.72
563.244	45432.31
563.443	45895.15
563.642	44998.14
563.841	45020.67
564.04	45307.38
564.239	45321.72
564.438	45030.91
564.637	45192.7
564.836	45037.05
565.035	44373.51
565.234	45268.47
565.432	44520.96
565.631	44365.32
565.83	44774.91
566.029	44453.38
566.228	44303.88
566.427	44211.72
566.625	43943.44
566.824	43918.86
567.023	44613.12
567.222	43873.81
567.42	44281.35
567.619	43933.2
567.818	43709.97
568.016	43423.25
568.215	43851.28
568.414	43591.19
568.612	44017.16
568.811	43437.59
569.01	43296.28
569.208	42901.02
569.407	43492.88
569.605	42878.49
569.804	43220.5
570.002	42735.13
570.201	43310.61
570.4	42843.68
570.598	42597.92
570.797	42176.04
570.995	42460.71
571.193	42081.83
571.392	42927.64
571.59	41698.86
571.789	41770.54
571.987	41956.91
572.186	41774.64
572.384	41612.85
572.582	42038.83
572.781	41510.45
572.979	41303.6
573.177	41424.43
573.376	41729.58
573.574	41367.09
573.772	41629.23
573.971	40975.93
574.169	41125.43
574.367	40805.95
574.565	41147.96
574.763	40990.27
574.962	40793.66
575.16	40287.81
575.358	40431.17
575.556	39802.44
575.754	40474.18
575.952	40040.01
576.151	40142.41
576.349	39583.31
576.547	40396.35
576.745	40306.24
576.943	39822.92
577.141	39663.18
577.339	39691.85
577.537	39435.86
577.735	39462.48
577.933	39118.42
578.131	39319.12
578.329	39038.55
578.527	39063.13
578.725	38852.19
578.923	39321.17
579.121	38665.82
579.319	38647.39
579.516	38688.35
579.714	38643.29
579.912	38432.35
580.11	38590.05
580.308	38483.55
580.506	38291.04
580.704	37807.72
580.901	38151.78
581.099	38217.32
581.297	37379.7
581.495	37697.13
581.692	37955.18
581.89	37369.46
582.088	37711.47
582.285	37312.11
582.483	37355.12
582.681	37471.85
582.878	37275.25
583.076	36970.1
583.274	37623.4
583.471	36662.91
583.669	36701.82
583.866	36521.6
584.064	37078.64
584.262	36437.63
584.459	36935.29
584.657	36392.58
584.854	36345.47
585.052	35966.6
585.249	36406.91
585.447	36112
585.644	35970.69
585.841	36152.96
586.039	35886.73
586.236	35133.07
586.434	35268.24
586.631	35268.24
586.828	35591.82
587.026	35387.02
587.223	35401.36
587.42	35100.31
587.618	34969.24
587.815	34899.61
588.012	34694.81
588.21	34444.96
588.407	35120.79
588.604	34672.28
588.801	34586.27
588.999	34234.02
589.196	34207.39
589.393	34166.43
589.59	33896.1
589.787	33814.18
589.984	34074.27
590.182	33953.44
590.379	33781.42
590.576	33582.76
590.773	33816.23
590.97	33324.72
591.167	33187.5
591.364	32911.03
591.561	33095.35
591.758	32900.79
591.955	33124.02
592.152	33132.21
592.349	32734.9
592.546	32736.95
592.743	32675.51
592.94	32165.57
593.137	32579.26
593.334	32433.85
593.531	32120.51
593.727	32569.02
593.924	32179.9
594.121	32124.61
594.318	32120.51
594.515	31741.64
594.712	31889.09
594.908	31540.94
595.105	31551.18
595.302	31588.04
595.499	31413.96
595.696	31559.37
595.892	31084.24
596.089	31213.26
596.286	31151.82
596.482	30965.46
596.679	30832.34
596.876	30660.31
597.072	30670.55
597.269	30801.62
597.466	30652.12
597.662	30338.78
597.859	30744.28
598.055	30545.62
598.252	29689.57
598.448	30250.72
598.645	30226.14
598.841	29912.8
599.038	29882.08
599.234	29812.45
599.431	29722.34
599.627	29392.62
599.824	30047.97
600.02	29435.63
600.217	29468.39
600.413	29253.36
600.609	29232.88
600.806	28788.47
601.002	28940.02
601.198	28792.56
601.395	28876.53
601.591	28948.21
601.787	28884.72
601.984	28708.6
602.18	28808.95
602.376	28258.04
602.572	28407.55
602.769	28376.83
602.965	27893.51
603.161	28131.07
603.357	27991.81
603.553	27721.48
603.75	28055.29
603.946	27696.9
604.142	27875.07
604.338	27457.29
604.534	27520.77
604.73	27473.67
604.926	27305.74
605.122	27514.63
605.318	27383.56
605.514	27139.85
605.71	26576.66
605.906	27031.31
606.102	27203.34
606.298	26920.72
606.494	26738.45
606.69	26801.94
606.886	27078.41
607.082	26572.57
607.278	26916.62
607.474	26117.92
607.67	26715.92
607.866	26308.38
608.062	26429.21
608.257	26294.04
608.453	26248.99
608.649	26373.91
608.845	26081.05
609.041	25911.07
609.236	26062.62
609.432	26140.44
609.628	26242.84
609.824	25937.69
610.019	25923.36
610.215	25931.55
610.411	25874.21
610.606	25593.64
610.802	25597.73
610.998	25505.57
611.193	25743.14
611.389	25311.02
611.584	25503.53
611.78	25231.15
611.976	25405.22
612.171	25380.65
612.367	25157.42
612.562	25311.02
612.758	24844.08
612.953	24796.98
613.149	25202.47
613.344	24743.73
613.539	25165.61
613.735	24954.67
613.93	25085.74
614.126	24680.24
614.321	24766.26
614.517	24713.01
614.712	24698.67
614.907	24534.84
615.103	24913.71
615.298	24524.6
615.493	24831.79
615.688	24252.22
615.884	24895.28
616.079	24203.07
616.274	24278.84
616.47	24067.9
616.665	24493.88
616.86	24223.55
617.055	24072
617.25	23996.22
617.445	24092.48
617.641	23768.9
617.836	24008.51
618.031	23758.66
618.226	23820.1
618.421	23619.39
618.616	23975.74
618.811	23359.3
619.006	23664.45
619.201	23193.42
619.396	23584.58
619.591	22839.12
619.786	23125.83
619.981	22525.78
620.176	22912.85
620.371	22640.47
620.566	23201.61
620.761	22349.65
620.956	22830.93
621.151	22341.46
621.346	22572.88
621.541	21938.01
621.735	22503.25
621.93	22069.08
622.125	22087.51
622.32	21673.82
622.515	21821.28
622.709	21872.48
622.904	21677.92
623.099	21737.31
623.294	21311.33
623.488	21340.01
623.683	21026.67
623.878	20838.25
624.072	21133.16
624.267	20916.08
624.462	20981.61
624.656	20221.81
624.851	20432.75
625.046	20221.81
625.24	20266.87
625.435	20133.75
625.629	20162.42
625.824	20344.69
626.018	20039.54
626.213	19406.72
626.407	19867.52
626.602	19265.41
626.796	19355.52
626.991	19398.53
627.185	19562.37
627.38	19077
627.574	19107.72
627.768	19025.8
627.963	18839.44
628.157	18800.52
628.352	18796.43
628.546	18251.67
628.74	18730.89
628.935	18319.25
629.129	18442.13
629.323	18081.69
629.517	18155.41
629.712	18184.09
629.906	17969.05
630.1	17512.35
630.294	17729.44
630.489	17561.5
630.683	17627.04
630.877	17270.69
631.071	17473.44
631.265	17473.44
631.459	17285.03
631.653	16947.11
631.848	16836.52
632.042	16846.76
632.236	16916.39
632.43	16547.76
632.624	16578.48
632.818	16420.78
633.012	16361.39
633.206	16209.84
633.4	16465.84
633.594	16043.96
633.788	16258.99
633.982	16316.34
634.176	15820.73
634.369	16015.29
634.563	15636.41
634.757	15722.43
634.951	15689.66
635.145	15589.31
635.339	15570.88
635.533	15341.5
635.726	15409.09
635.92	15155.14
636.114	15361.98
636.308	15077.32
636.501	15130.56
636.695	15153.09
636.889	14860.23
637.083	14776.27
637.276	14424.01
637.47	14905.29
637.664	14637
637.857	14419.92
638.051	14485.45
638.244	14479.31
638.438	14340.05
638.632	14139.35
638.825	13971.41
639.019	14137.3
639.212	13995.99
639.406	13852.63
639.599	13694.94
639.793	13934.55
639.986	13737.95
640.18	13694.94
640.373	13533.15
640.567	13606.88
640.76	13471.71
640.954	13228
641.147	13180.9
641.34	13090.79
641.534	13240.29
641.727	13164.51
641.92	12890.09
642.114	12957.67
642.307	12836.84
642.5	12627.95
642.694	12634.09
642.887	12711.91
643.08	12748.78
643.273	12673
643.467	12511.21
643.66	12236.78
643.853	12214.26
644.046	12353.52
644.239	12140.53
644.432	12099.57
644.626	11839.48
644.819	12003.32
645.012	12023.8
645.205	12040.18
645.398	11997.17
645.591	11868.15
645.784	11755.51
645.977	11620.35
646.17	11810.81
646.363	11618.3
646.556	11507.71
646.749	11313.15
646.942	11421.69
647.135	11272.19
647.328	11431.93
647.521	11319.29
647.714	11053.06
647.907	10983.43
648.099	10948.61
648.292	11051.01
648.485	11104.26
648.678	10723.34
648.871	11026.43
649.064	10805.25
649.256	10852.36
649.449	10637.32
649.642	10557.45
649.835	10620.94
650.027	10446.86
650.22	10461.2
650.413	10301.45
650.605	10453
650.798	10418.19
650.991	10154
651.183	10113.04
651.376	10168.34
651.568	10203.15
651.761	10164.24
651.954	9779.22
652.146	9820.18
652.339	9773.08
652.531	9785.37
652.724	9781.27
652.916	9562.14
653.109	9691.16
653.301	9789.46
653.494	9568.28
653.686	9531.42
653.879	9461.79
654.071	9336.86
654.263	9369.63
654.456	9275.42
654.648	9209.89
654.84	9181.21
655.033	9080.86
655.225	9261.09
655.417	9119.78
655.61	8998.95
655.802	8788
655.994	8947.75
656.186	8970.27
656.379	8923.17
656.571	8888.36
656.763	8556.58
656.955	8669.22
657.148	8611.88
657.34	8681.51
657.532	8452.14
657.724	8613.93
657.916	8441.9
658.108	8603.69
658.3	8509.48
658.492	8280.11
658.684	8261.68
658.876	8288.3
659.068	8165.42
659.26	8304.68
659.452	8206.38
659.644	8071.22
659.836	7956.53
660.028	8007.73
660.22	7856.18
660.412	7931.95
660.604	7872.56
660.796	7850.03
660.988	7880.75
661.18	7776.31
661.372	7823.41
661.563	7641.14
661.755	7688.25
661.947	7548.98
662.139	7426.11
662.331	7503.93
662.522	7589.94
662.714	7374.91
662.906	7452.73
663.097	7555.13
663.289	7335.99
663.481	7268.41
663.673	7282.75
663.864	7313.47
664.056	7186.49
664.247	7342.14
664.439	7065.66
664.631	7151.68
664.822	7061.57
665.014	7090.24
665.205	7051.33
665.397	6903.87
665.588	6897.73
665.78	6783.04
665.971	6840.39
666.163	6893.63
666.354	6828.1
666.546	6774.85
666.737	6791.24
666.929	6725.7
667.12	6664.26
667.311	6651.97
667.503	6639.69
667.694	6649.93
667.885	6465.61
668.077	6389.83
668.268	6447.18
668.459	6496.33
668.651	6383.69
668.842	6342.73
669.033	6289.48
669.224	6324.3
669.416	6316.11
669.607	6363.21
669.798	6236.24
669.989	6289.48
670.18	6326.35
670.371	6256.72
670.563	6060.11
670.754	5924.94
670.945	5953.62
671.136	6092.88
671.327	6068.3
671.518	5904.46
671.709	6074.45
671.9	6086.73
672.091	5896.27
672.282	5924.94
672.473	5910.61
672.664	5787.73
672.855	5888.08
673.046	5918.8
673.237	5869.65
673.428	5736.53
673.619	5752.91
673.809	5634.13
674	5593.17
674.191	5572.69
674.382	5627.99
674.573	5599.32
674.764	5503.06
674.954	5642.32
675.145	5552.21
675.336	5607.51
675.527	5521.49
675.717	5527.64
675.908	5474.39
676.099	5453.91
676.289	5216.35
676.48	5400.66
676.671	5249.11
676.861	5347.42
677.052	5242.97
677.243	5277.79
677.433	5218.4
677.624	5351.51
677.814	5304.41
678.005	5177.44
678.195	5226.59
678.386	5242.97
678.576	5232.73
678.767	5130.33
678.957	5222.49
679.148	5175.39
679.338	4958.3
679.529	5085.28
679.719	5130.33
679.909	5060.7
680.1	5001.31
680.29	5079.13
680.481	5050.46
680.671	5103.71
680.861	4997.21
681.052	5089.37
681.242	4972.64
681.432	4948.06
681.622	4903.01
681.813	4810.85
682.003	4913.25
682.193	4819.04
682.383	5040.22
682.573	5089.37
682.764	4755.55
682.954	4794.47
683.144	4851.81
683.334	4776.03
683.524	4872.29
683.714	4706.4
683.904	4538.47
684.094	4733.03
684.284	4722.79
684.474	4782.18
684.664	4687.97
684.854	4726.88
685.044	4628.58
685.234	4589.67
685.424	4618.34
685.614	4579.43
685.804	4503.65
685.994	4612.2
686.184	4593.76
686.374	4505.7
686.564	4522.09
686.753	4567.14
686.943	4454.5
687.133	4333.67
687.323	4403.3
687.513	4354.15
687.702	4358.25
687.892	4368.49
688.082	4278.38
688.272	4386.92
688.461	4255.85
688.651	4225.13
688.841	4208.75
689.03	4360.3
689.22	4282.47
689.41	4196.46
689.599	4128.88
689.789	4243.56
689.979	4227.18
690.168	3956.85
690.358	4046.96
690.547	3975.28
690.737	4124.78
690.926	3993.71
691.116	4036.72
691.305	4057.2
691.495	3960.94
691.684	4016.24
691.874	3971.18
692.063	3793.01
692.252	3965.04
692.442	4051.05
692.631	3770.48
692.82	4077.68
693.01	3833.97
693.199	3760.24
693.388	3717.23
693.578	3833.97
693.767	3711.09
693.956	3709.04
694.146	3776.63
694.335	3672.18
694.524	3721.33
694.713	3608.69
694.902	3575.92
695.092	3674.23
695.281	3686.51
695.47	3635.32
695.659	3549.3
695.848	3606.64
696.037	3518.58
696.226	3633.27
696.415	3438.71
696.604	3569.78
696.793	3590.26
696.982	3475.57
697.171	3508.34
697.36	3385.46
697.549	3475.57
697.738	3451
697.927	3483.77
698.116	3324.02
698.305	3467.38
698.494	3461.24
698.683	3369.08
698.872	3446.9
699.061	3494.01
699.25	3317.88
699.438	3389.56
699.627	3268.73
699.816	3471.48
700.005	3440.76
700.193	3399.8
700.382	3424.37
700.571	3428.47
700.76	3256.44
700.948	3231.87
701.137	3373.18
701.326	3309.69
701.514	3442.81
701.703	3364.98
701.892	3278.97
702.08	3330.17
702.269	3246.2
702.457	3190.91
702.646	3367.03
702.834	3211.39
703.023	3287.16
703.212	3291.26
703.4	3238.01
703.589	3141.75
703.777	3260.54
703.965	3154.04
704.154	3190.91
704.342	3248.25
704.531	3129.47
704.719	3166.33
704.907	3209.34
705.096	3068.03
705.284	3172.47
705.472	3113.08
705.661	3215.48
705.849	3199.1
706.037	3186.81
706.226	3076.22
706.414	3334.26
706.602	3031.16
706.79	3164.28
706.979	3102.84
707.167	3244.15
707.355	2979.97
707.543	3086.46
707.731	3176.57
707.919	3084.41
708.107	3139.71
708.296	3055.74
708.484	2998.4
708.672	3211.39
708.86	3135.61
709.048	3041.4
709.236	3164.28
709.424	3082.36
709.612	3072.12
709.8	3143.8
709.988	3072.12
710.176	3000.44
710.364	2988.16
710.551	2904.19
710.739	3051.64
710.927	3031.16
711.115	2994.3
711.303	3086.46
711.491	2998.4
711.679	3002.49
711.866	2902.14
712.054	2936.96
712.242	2982.01
712.43	3006.59
712.617	2910.33
712.805	3098.75
712.993	3104.89
713.181	3004.54
713.368	2982.01
713.556	3039.36
713.744	3012.73
713.931	2996.35
714.119	2904.19
714.306	3025.02
714.494	2922.62
714.682	2908.29
714.869	2982.01
715.057	2955.39
715.244	2852.99
715.432	2951.29
715.619	2898.05
715.807	2986.11
715.994	2973.82
716.182	2977.92
716.369	2973.82
716.556	2955.39
716.744	2852.99
716.931	2951.29
717.119	2902.14
717.306	2963.58
717.493	2852.99
717.681	2920.57
717.868	2994.3
718.055	2844.8
718.242	2904.19
718.43	2969.73
718.617	2984.06
718.804	2879.61
718.991	2977.92
719.179	2969.73
719.366	2850.94
719.553	2945.15
719.74	2949.25
719.927	2982.01
720.114	2914.43
720.301	2893.95
720.488	2904.19
720.676	2889.85
720.863	3074.17
721.05	2891.9
721.237	2924.67
721.424	2852.99
721.611	2863.23
721.798	2939.01
721.985	2922.62
722.172	2910.33
722.358	2877.57
722.545	2818.18
722.732	2836.61
722.919	2734.21
723.106	2910.33
723.293	2902.14
723.48	2852.99
723.667	2904.19
723.853	2945.15
724.04	2887.81
724.227	2887.81
724.414	2793.6
724.6	2824.32
724.787	2852.99
724.974	2812.03
725.161	2771.07
725.347	2824.32
725.534	2795.65
725.72	2873.47
725.907	2779.26
726.094	2975.87
726.28	2863.23
726.467	2857.09
726.653	2838.66
726.84	2900.09
727.027	2711.68
727.213	2699.39
727.4	3004.54
727.586	3008.64
727.773	2840.7
727.959	2855.04
728.145	2830.46
728.332	2883.71
728.518	2887.81
728.705	2916.48
728.891	2859.14
729.077	2873.47
729.264	2764.93
729.45	2789.5
729.636	2977.92
729.823	2828.42
730.009	2848.9
730.195	2906.24
730.382	2859.14
730.568	2818.18
730.754	2873.47
730.94	2822.27
731.126	2883.71
731.313	2830.46
731.499	3029.12
731.685	2865.28
731.871	3006.59
732.057	2818.18
732.243	2744.45
732.429	2830.46
732.615	2893.95
732.801	2871.42
732.987	2791.55
733.173	2883.71
733.359	2783.36
733.545	2916.48
733.731	2805.89
733.917	2881.66
734.103	2965.63
734.289	2787.46
734.475	2711.68
734.661	2975.87
734.847	2834.56
735.033	2850.94
735.219	2885.76
735.404	2875.52
735.59	2758.78
735.776	2801.79
735.962	2859.14
736.148	2869.37
736.333	2842.75
736.519	2769.02
736.705	2936.96
736.89	2742.4
737.076	2902.14
737.262	2816.13
737.447	2777.22
737.633	2738.3
737.819	2781.31
738.004	2699.39
738.19	2699.39
738.375	2715.78
738.561	2764.93
738.747	2801.79
738.932	2691.2
739.118	2723.97
739.303	2797.7
739.489	2744.45
739.674	2705.54
739.859	2709.63
740.045	2746.5
740.23	2658.43
740.416	2697.35
740.601	2728.07
740.786	2855.04
740.972	2642.05
741.157	2701.44
741.342	2644.1
741.528	2570.37
741.713	2576.52
741.898	2711.68
742.084	2775.17
742.269	2650.24
742.454	2594.95
742.639	2721.92
742.824	2482.31
743.01	2549.89
743.195	2691.2
743.38	2529.41
743.565	2539.65
743.75	2551.94
743.935	2506.88
744.12	2599.04
744.305	2496.64
744.49	2588.8
744.675	2515.08
744.86	2566.28
745.045	2470.02
745.23	2525.32
745.415	2433.16
745.6	2463.88
745.785	2513.03
745.97	2480.26
746.155	2457.73
746.34	2486.4
746.525	2431.11
746.71	2408.58
746.895	2326.66
747.079	2433.16
747.264	2341
747.449	2375.81
747.634	2322.57
747.819	2351.24
748.003	2283.66
748.188	2281.61
748.373	2187.4
748.557	2328.71
748.742	2308.23
748.927	2246.79
749.111	2328.71
749.296	2332.81
749.481	2218.12
749.665	2199.69
749.85	2211.98
750.034	2193.55
750.219	2062.48
750.404	2259.08
750.588	2154.63
750.773	2138.25
750.957	2091.15
751.141	2175.11
751.326	2005.13
751.51	2103.43
751.695	1939.6
751.879	1990.8
752.064	2074.76
752.248	2029.71
752.432	1898.64
752.617	1943.69
752.801	1904.78
752.985	1917.07
753.17	1896.59
753.354	2072.72
753.538	1917.07
753.722	1902.73
753.907	1853.58
754.091	2011.28
754.275	1927.31
754.459	1872.01
754.643	1783.95
754.828	1888.4
755.012	1843.34
755.196	1786
755.38	1843.34
755.564	1814.67
755.748	1763.47
755.932	1779.86
756.116	1843.34
756.3	1796.24
756.484	1730.7
756.668	1794.19
756.852	1685.65
757.036	1613.97
757.22	1685.65
757.404	1683.6
757.588	1591.44
757.772	1546.39
757.956	1689.74
758.14	1597.59
758.323	1532.05
758.507	1546.39
758.691	1556.63
758.875	1521.81
759.059	1603.73
759.242	1536.15
759.426	1525.91
759.61	1593.49
759.794	1376.41
759.977	1525.91
760.161	1558.67
760.345	1548.44
760.528	1364.12
760.712	1499.28
760.895	1384.6
761.079	1484.95
761.263	1448.08
761.446	1480.85
761.63	1427.6
761.813	1468.56
761.997	1331.35
762.18	1417.37
762.364	1476.76
762.547	1415.32
762.731	1390.74
762.914	1439.89
763.098	1394.84
763.281	1317.01
763.464	1378.45
763.648	1384.6
763.831	1345.69
764.015	1415.32
764.198	1339.54
764.381	1241.24
764.564	1351.83
764.748	1323.16
764.931	1368.21
765.114	1278.1
765.297	1345.69
765.481	1312.92
765.664	1300.63
765.847	1372.31
766.03	1335.45
766.213	1169.56
766.397	1276.06
766.58	1220.76
766.763	1271.96
766.946	1300.63
767.129	1327.25
767.312	1163.42
767.495	1187.99
767.678	1208.47
767.861	1249.43
768.044	1251.48
768.227	1157.27
768.41	1171.61
768.593	1222.81
768.776	1204.38
768.959	1163.42
769.142	1159.32
769.324	1167.51
769.507	1235.1
769.69	1165.46
769.873	1161.37
770.056	1134.75
770.239	1061.02
770.421	1118.36
770.604	1261.72
770.787	1136.79
770.97	1026.2
771.152	1120.41
771.335	1106.07
771.518	1104.03
771.7	1128.6
771.883	1153.18
772.066	1038.49
772.248	1009.82
772.431	1089.69
772.613	1069.21
772.796	1106.07
772.978	1134.75
773.161	1118.36
773.343	942.24
773.526	919.71
773.708	966.81
773.891	970.91
774.073	1065.11
774.256	991.39
774.438	1009.82
774.621	868.51
774.803	1054.87
774.985	999.58
775.168	925.85
775.35	1085.59
775.532	948.38
775.715	1028.25
775.897	927.9
776.079	919.71
776.261	1005.72
776.444	884.89
776.626	884.89
776.808	893.09
776.99	895.13
777.173	876.7
777.355	897.18
777.537	848.03
777.719	792.73
777.901	811.17
778.083	1020.06
778.265	899.23
778.447	927.9
778.629	786.59
778.811	895.13
778.993	827.55
779.175	823.45
779.357	817.31
779.539	868.51
779.721	813.21
779.903	776.35
780.085	815.26
780.267	858.27
780.449	729.25
780.631	729.25
780.812	723.1
780.994	729.25
781.176	751.78
781.358	860.32
781.54	727.2
781.721	807.07
781.903	723.1
782.085	729.25
782.267	737.44
782.448	727.2
782.63	657.57
782.812	637.09
782.993	661.66
783.175	694.43
783.357	686.24
783.538	721.06
783.72	802.97
783.901	663.71
784.083	680.1
784.264	676
784.446	667.81
784.627	639.14
784.809	622.75
784.99	651.42
785.172	641.18
785.353	618.66
785.535	594.08
785.716	671.9
785.897	583.84
786.079	563.36
786.26	641.18
786.441	573.6
786.623	526.5
786.804	571.55
786.985	606.37
787.167	536.74
787.348	598.18
787.529	542.88
787.71	587.94
787.891	573.6
788.073	534.69
788.254	440.48
788.435	544.93
788.616	526.5
788.797	540.83
788.978	491.68
789.159	549.03
789.34	501.92
789.522	518.31
789.703	440.48
789.884	514.21
790.065	469.16
790.246	491.68
790.427	536.74
790.607	522.4
790.788	475.3
790.969	458.92
791.15	446.63
791.331	465.06
791.512	432.29
791.693	508.07
791.874	383.14
792.054	448.68
792.235	450.72
792.416	360.61
792.597	413.86
792.778	430.24
792.958	407.72
793.139	446.63
793.32	454.82
793.5	501.92
793.681	448.68
793.862	417.96
794.042	374.95
794.223	407.72
794.404	385.19
794.584	483.49
794.765	403.62
794.945	391.33
795.126	487.59
795.306	374.95
795.487	352.42
795.667	366.76
795.848	399.52
796.028	436.39
796.209	401.57
796.389	350.37
796.57	352.42
796.75	268.45
796.93	364.71
797.111	381.09
797.291	422.05
797.471	395.43
797.652	348.33
797.832	319.65
798.012	403.62
798.192	336.04
798.373	336.04
798.553	342.18
798.733	323.75
798.913	372.9
799.093	299.17
799.274	391.33
799.454	368.81
799.634	329.89
799.814	319.65
799.994	297.13
800.174	311.46
800.354	350.37
800.534	340.13
800.714	293.03
800.894	338.09
801.074	319.65
801.254	297.13
801.434	286.89
801.614	379.04
801.794	299.17
801.974	737.44
802.154	319.65
802.334	262.31
802.514	352.42
802.693	327.85
802.873	319.65
803.053	313.51
803.233	368.81
803.413	239.78
803.592	354.47
803.772	288.93
803.952	270.5
804.131	235.69
804.311	305.32
804.491	352.42
804.67	295.08
804.85	381.09
805.03	338.09
805.209	354.47
805.389	280.74
805.568	225.45
805.748	233.64
805.928	200.87
806.107	247.97
806.287	323.75
806.466	200.87
806.646	252.07
806.825	231.59
807.004	237.74
807.184	290.98
807.363	184.49
807.543	221.35
807.722	235.69
807.901	293.03
808.081	243.88
808.26	213.16
808.439	299.17
808.619	223.4
808.798	239.78
808.977	209.06
809.156	325.8
809.336	182.44
809.515	256.17
809.694	221.35
809.873	262.31
810.052	190.63
810.231	258.21
810.411	213.16
810.59	254.12
810.769	223.4
810.948	284.84
811.127	215.21
811.306	196.78
811.485	196.78
811.664	264.36
811.843	231.59
812.022	250.02
812.201	204.97
812.38	204.97
812.559	217.26
812.737	225.45
812.916	213.16
813.095	168.1
813.274	215.21
813.453	198.82
813.632	286.89
813.811	198.82
813.989	149.67
814.168	223.4
814.347	176.3
814.526	170.15
814.704	168.1
814.883	262.31
815.062	164.01
815.24	225.45
815.419	215.21
815.598	170.15
815.776	213.16
815.955	180.39
816.133	114.86
816.312	188.58
816.49	161.96
816.669	217.26
816.847	211.11
817.026	247.97
817.204	194.73
817.383	180.39
817.561	182.44
817.74	217.26
817.918	139.43
818.097	176.3
818.275	186.54
818.453	168.1
818.632	233.64
818.81	139.43
818.988	215.21
819.167	96.43
819.345	129.19
819.523	202.92
819.701	155.82
819.879	155.82
820.058	250.02
820.236	166.06
820.414	225.45
820.592	172.2
820.77	215.21
820.948	118.95
821.127	184.49
821.305	157.86
821.483	139.43
821.661	184.49
821.839	184.49
822.017	164.01
822.195	188.58
822.373	172.2
822.551	127.14
822.729	198.82
822.907	127.14
823.085	174.25
823.262	143.53
823.44	96.43
823.618	86.19
823.796	145.58
823.974	71.85
824.152	116.9
824.329	229.54
824.507	143.53
824.685	96.43
824.863	172.2
825.04	143.53
825.218	102.57
825.396	149.67
825.574	63.66
825.751	65.71
825.929	127.14
826.107	110.76
826.284	176.3
826.462	147.62
826.639	137.38
826.817	188.58
826.994	98.47
827.172	149.67
827.349	172.2
827.527	121
827.704	118.95
827.882	123.05
828.059	108.71
828.237	129.19
828.414	221.35
828.591	106.67
828.769	180.39
828.946	125.1
829.124	82.09
829.301	141.48
829.478	73.9
829.655	164.01
829.833	86.19
830.01	145.58
830.187	125.1
830.364	217.26
830.542	102.57
830.719	184.49
830.896	63.66
831.073	180.39
831.25	143.53
831.427	133.29
831.604	139.43
831.782	104.62
831.959	96.43
832.136	116.9
832.313	80.04
832.49	28.84
832.667	82.09
832.844	88.23
833.021	125.1
833.198	137.38
833.374	37.03
833.551	155.82
833.728	141.48
833.905	90.28
834.082	121
834.259	102.57
834.436	16.55
834.612	84.14
834.789	164.01
834.966	151.72
835.143	133.29
835.319	49.32
835.496	16.55
835.673	96.43
835.85	116.9
836.026	110.76
836.203	170.15
836.38	63.66
836.556	149.67
836.733	75.95
836.909	84.14
837.086	100.52
837.262	34.99
837.439	116.9
837.616	164.01
837.792	92.33
837.968	137.38
838.145	41.13
838.321	118.95
838.498	118.95
838.674	112.81
838.851	32.94
839.027	116.9
839.203	39.08
839.38	41.13
839.556	149.67
839.732	65.71
839.909	63.66
840.085	73.9
840.261	84.14
840.437	84.14
840.614	41.13
840.79	127.14
840.966	106.67
841.142	77.99
841.318	45.23
841.494	112.81
841.671	84.14
841.847	34.99
842.023	45.23
842.199	67.75
842.375	67.75
842.551	22.7
842.727	69.8
842.903	61.61
843.079	100.52
843.255	26.79
843.431	45.23
843.607	80.04
843.783	22.7
843.959	14.51
844.134	57.51
844.31	116.9
844.486	37.03
844.662	135.34
844.838	84.14
845.013	116.9
845.189	100.52
845.365	123.05
845.541	43.18
845.716	65.71
845.892	57.51
846.068	16.55
846.244	32.94
846.419	92.33
846.595	57.51
846.77	57.51
846.946	61.61
847.122	51.37
847.297	90.28
847.473	63.66
847.648	98.47
847.824	73.9
847.999	75.95
848.175	82.09
848.35	53.42
848.526	73.9
848.701	47.27
848.876	135.34
849.052	82.09
849.227	92.33
849.403	32.94
849.578	75.95
849.753	96.43
849.929	32.94
850.104	75.95
850.279	104.62
850.454	14.51
850.63	63.66
850.805	55.47
850.98	55.47
851.155	102.57
851.33	43.18
851.505	88.23
851.681	102.57
851.856	22.7
852.031	2.22
852.206	37.03
852.381	67.75
852.556	51.37
852.731	22.7
852.906	139.43
853.081	125.1
853.256	100.52
853.431	49.32
853.606	34.99
853.781	69.8
853.956	8.36
854.131	116.9
854.305	-26.45
854.48	10.41
854.655	-16.21
854.83	20.65
855.005	-22.36
855.18	32.94
855.354	57.51
855.529	98.47
855.704	24.75
855.879	92.33
856.053	4.27
856.228	-3.93
856.403	34.99
856.577	71.85
856.752	69.8
856.926	43.18
857.101	41.13
857.276	53.42
857.45	116.9
857.625	118.95
857.799	94.38
857.974	61.61
858.148	82.09
858.323	28.84
858.497	82.09
858.672	98.47
858.846	-1.88
859.02	22.7
859.195	34.99
859.369	69.8
859.543	57.51
859.718	47.27
859.892	-44.88
860.066	-1.88
860.241	61.61
860.415	14.51
860.589	-3.93
860.763	43.18
860.938	102.57
861.112	20.65
861.286	43.18
861.46	28.84
861.634	-28.5
861.808	18.6
861.982	0.17
862.157	84.14
862.331	69.8
862.505	4.27
862.679	-30.55
862.853	-14.17
863.027	28.84
863.201	28.84
863.375	12.46
863.549	102.57
863.722	41.13
863.896	73.9
864.07	16.55
864.244	59.56
864.418	10.41
864.592	53.42
864.766	4.27
864.939	41.13
865.113	-14.17
865.287	10.41
865.461	-5.97
865.634	4.27
865.808	-1.88
865.982	12.46
866.156	-32.6
866.329	-18.26
866.503	4.27
866.676	24.75
866.85	8.36
867.024	49.32
867.197	14.51
867.371	61.61
867.544	75.95
867.718	-24.4
867.891	77.99
868.065	12.46
868.238	-16.21
868.412	100.52
868.585	47.27
868.759	41.13
868.932	-38.74
869.105	88.23
869.279	-44.88
869.452	-28.5
869.625	24.75
869.799	32.94
869.972	4.27
870.145	47.27
870.319	-34.64
870.492	57.51
870.665	2.22
870.838	-5.97
871.011	41.13
871.185	55.47
871.358	6.31
871.531	-22.36
871.704	-65.36
871.877	77.99
872.05	67.75
872.223	6.31
872.396	59.56
872.569	4.27
872.742	-16.21
872.915	-10.07
873.088	37.03
873.261	41.13
873.434	-5.97
873.607	51.37
873.78	80.04
873.953	-8.02
874.126	16.55
874.299	104.62
874.471	-34.64
874.644	12.46
874.817	-8.02
874.99	129.19
875.163	39.08
875.335	-10.07
875.508	-28.5
875.681	22.7
875.853	43.18
876.026	-1.88
876.199	26.79
876.371	77.99
876.544	-16.21
876.717	45.23
876.889	-3.93
877.062	80.04
877.234	69.8
877.407	80.04
877.579	39.08
877.752	77.99
877.924	-34.64
878.097	92.33
878.269	4.27
878.442	28.84
878.614	34.99
878.786	20.65
878.959	45.23
879.131	51.37
879.303	-57.17
879.476	-14.17
879.648	57.51
879.82	12.46
879.993	69.8
880.165	-1.88
880.337	-44.88
880.509	18.6
880.681	18.6
880.854	49.32
881.026	67.75
881.198	-3.93
881.37	71.85
881.542	45.23
881.714	2.22
881.886	-30.55
882.058	6.31
882.23	67.75
882.402	24.75
882.574	53.42
882.746	-34.64
882.918	24.75
883.09	20.65
883.262	6.31
883.434	32.94
883.606	16.55
883.778	0.17
883.95	73.9
884.122	47.27
884.293	2.22
884.465	10.41
884.637	71.85
884.809	-12.12
884.98	65.71
885.152	53.42
885.324	24.75
885.496	59.56
885.667	47.27
885.839	30.89
886.011	88.23
886.182	14.51
886.354	8.36
886.525	61.61
886.697	-46.93
886.869	-28.5
887.04	4.27
887.212	41.13
887.383	86.19
887.555	-3.93
887.726	37.03
887.897	-1.88
888.069	32.94
888.24	22.7
888.412	63.66
888.583	37.03
888.754	51.37
888.926	90.28
889.097	12.46
889.268	-36.69
889.44	24.75
889.611	-34.64
889.782	0.17
889.953	53.42
890.125	37.03
890.296	-34.64
890.467	18.6
890.638	57.51
890.809	30.89
890.98	30.89
891.151	82.09
891.323	10.41
891.494	51.37
891.665	39.08
891.836	14.51
892.007	34.99
892.178	37.03
892.349	18.6
892.52	-14.17
892.691	-3.93
892.862	53.42
893.032	-16.21
893.203	30.89
893.374	61.61
893.545	0.17
893.716	53.42
893.887	73.9
894.057	-14.17
894.228	39.08
894.399	32.94
894.57	26.79
894.74	-26.45
894.911	22.7
895.082	24.75
895.253	0.17
895.423	-12.12
895.594	88.23
895.764	41.13
895.935	-10.07
896.106	51.37
896.276	2.22
896.447	12.46
896.617	8.36
896.788	-36.69
896.958	-28.5
897.129	49.32
897.299	49.32
897.47	123.05
897.64	67.75
897.81	6.31
897.981	30.89
898.151	20.65
898.322	47.27
898.492	49.32
898.662	16.55
898.832	-28.5
899.003	6.31
899.173	-51.03
899.343	-3.93
899.513	12.46
