Data from USB4F104151__33__11-44-53-553.txt Node

Date: Fri Mar 14 11:44:53 EDT 2025
User: louis
Spectrometer: USB4F10415
Trigger mode: 4
Integration Time (sec): 2.000000E-2
Scans to average: 1
Electric dark correction enabled: true
Nonlinearity correction enabled: false
Boxcar width: 0
XAxis mode: Wavelengths
Number of Pixels in Spectrum: 3648
>>>>>Begin Spectral Data<<<<<
178.204	-54.1
178.424	-54.1
178.644	-54.1
178.864	-142.16
179.084	-17.24
179.304	7.34
179.524	-2.9
179.744	-13.14
179.964	13.48
180.184	25.77
180.404	21.67
180.624	3.24
180.844	25.77
181.064	-27.48
181.283	-7
181.503	-78.68
181.723	31.91
181.943	-74.58
182.163	83.11
182.383	33.96
182.602	68.78
182.822	3.24
183.042	-11.09
183.262	17.58
183.482	-39.76
183.701	-7
183.921	48.3
184.141	-17.24
184.361	11.43
184.58	7.34
184.8	-0.85
185.02	36.01
185.239	-9.05
185.459	-17.24
185.679	-0.85
185.898	21.67
186.118	38.06
186.338	64.68
186.557	36.01
186.777	-39.76
186.997	31.91
187.216	25.77
187.436	11.43
187.655	-11.09
187.875	93.35
188.095	5.29
188.314	81.07
188.534	29.87
188.753	-43.86
188.973	-2.9
189.192	48.3
189.412	-29.52
189.631	-15.19
189.851	-21.33
190.07	-4.95
190.29	-60.24
190.509	70.83
190.729	91.31
190.948	87.21
191.168	128.17
191.387	48.3
191.607	3.24
191.826	19.63
192.045	33.96
192.265	-9.05
192.484	-25.43
192.704	40.11
192.923	-23.38
193.142	62.63
193.362	64.68
193.581	-7
193.8	13.48
194.02	48.3
194.239	25.77
194.458	-4.95
194.678	9.39
194.897	-2.9
195.116	-15.19
195.335	11.43
195.555	-0.85
195.774	83.11
195.993	7.34
196.212	25.77
196.432	-37.72
196.651	29.87
196.87	15.53
197.089	36.01
197.308	42.15
197.528	33.96
197.747	3.24
197.966	13.48
198.185	36.01
198.404	1.19
198.623	93.35
198.842	-7
199.062	13.48
199.281	-27.48
199.5	-17.24
199.719	-25.43
199.938	33.96
200.157	50.35
200.376	-15.19
200.595	19.63
200.814	-54.1
201.033	-37.72
201.252	13.48
201.471	62.63
201.69	-7
201.909	-11.09
202.128	52.39
202.347	33.96
202.566	19.63
202.785	-0.85
203.004	25.77
203.223	105.64
203.442	-56.15
203.661	27.82
203.879	56.49
204.098	48.3
204.317	-11.09
204.536	33.96
204.755	-15.19
204.974	58.54
205.193	15.53
205.411	66.73
205.63	7.34
205.849	23.72
206.068	-66.39
206.287	23.72
206.505	-11.09
206.724	64.68
206.943	54.44
207.162	-54.1
207.381	-0.85
207.599	-25.43
207.818	42.15
208.037	5.29
208.255	70.83
208.474	81.07
208.693	50.35
208.911	21.67
209.13	-2.9
209.349	11.43
209.567	48.3
209.786	144.55
210.005	-15.19
210.223	-15.19
210.442	-62.29
210.661	60.59
210.879	-0.85
211.098	-7
211.316	60.59
211.535	56.49
211.753	29.87
211.972	-45.91
212.191	-7
212.409	-9.05
212.628	-25.43
212.846	-33.62
213.065	23.72
213.283	54.44
213.502	52.39
213.72	36.01
213.938	48.3
214.157	-0.85
214.375	25.77
214.594	13.48
214.812	27.82
215.031	13.48
215.249	62.63
215.467	50.35
215.686	54.44
215.904	107.69
216.122	74.92
216.341	54.44
216.559	38.06
216.778	79.02
216.996	44.2
217.214	44.2
217.432	13.48
217.651	9.39
217.869	-25.43
218.087	17.58
218.306	40.11
218.524	-19.29
218.742	-13.14
218.96	60.59
219.179	21.67
219.397	27.82
219.615	48.3
219.833	103.59
220.051	-27.48
220.27	-0.85
220.488	25.77
220.706	-9.05
220.924	60.59
221.142	62.63
221.36	72.87
221.578	31.91
221.796	13.48
222.015	-13.14
222.233	-35.67
222.451	3.24
222.669	11.43
222.887	9.39
223.105	3.24
223.323	29.87
223.541	-7
223.759	42.15
223.977	68.78
224.195	29.87
224.413	15.53
224.631	-7
224.849	21.67
225.067	119.98
225.285	76.97
225.503	66.73
225.721	-2.9
225.939	31.91
226.157	74.92
226.375	36.01
226.592	-9.05
226.81	-17.24
227.028	48.3
227.246	74.92
227.464	40.11
227.682	5.29
227.9	101.55
228.117	64.68
228.335	13.48
228.553	40.11
228.771	-70.48
228.989	13.48
229.206	40.11
229.424	3.24
229.642	48.3
229.86	-2.9
230.077	70.83
230.295	11.43
230.513	27.82
230.731	64.68
230.948	74.92
231.166	31.91
231.384	40.11
231.601	25.77
231.819	85.16
232.037	-82.77
232.254	1.19
232.472	48.3
232.689	36.01
232.907	87.21
233.125	9.39
233.342	27.82
233.56	15.53
233.777	42.15
233.995	-64.34
234.213	11.43
234.43	-25.43
234.648	9.39
234.865	13.48
235.083	38.06
235.3	89.26
235.518	-2.9
235.735	50.35
235.953	21.67
236.17	21.67
236.388	33.96
236.605	54.44
236.822	1.19
237.04	13.48
237.257	50.35
237.475	5.29
237.692	23.72
237.909	3.24
238.127	-2.9
238.344	-7
238.562	38.06
238.779	13.48
238.996	19.63
239.214	13.48
239.431	-25.43
239.648	-21.33
239.865	3.24
240.083	-0.85
240.3	29.87
240.517	52.39
240.735	-50
240.952	79.02
241.169	83.11
241.386	56.49
241.603	68.78
241.821	42.15
242.038	-17.24
242.255	48.3
242.472	23.72
242.689	11.43
242.907	115.88
243.124	-45.91
243.341	111.78
243.558	-60.24
243.775	31.91
243.992	25.77
244.209	62.63
244.426	19.63
244.643	54.44
244.86	1.19
245.078	60.59
245.295	27.82
245.512	13.48
245.729	44.2
245.946	-52.05
246.163	25.77
246.38	-41.81
246.597	-11.09
246.814	-11.09
247.031	-72.53
247.248	72.87
247.464	27.82
247.681	62.63
247.898	7.34
248.115	-0.85
248.332	-27.48
248.549	64.68
248.766	76.97
248.983	48.3
249.2	36.01
249.417	46.25
249.633	-21.33
249.85	21.67
250.067	-7
250.284	17.58
250.501	87.21
250.717	17.58
250.934	-7
251.151	54.44
251.368	1.19
251.585	-35.67
251.801	-27.48
252.018	-39.76
252.235	89.26
252.451	3.24
252.668	31.91
252.885	38.06
253.102	124.07
253.318	62.63
253.535	-47.96
253.752	-13.14
253.968	50.35
254.185	72.87
254.401	60.59
254.618	29.87
254.835	68.78
255.051	1.19
255.268	17.58
255.484	60.59
255.701	-4.95
255.917	-17.24
256.134	38.06
256.351	38.06
256.567	1.19
256.784	62.63
257	-45.91
257.217	79.02
257.433	40.11
257.65	46.25
257.866	-58.2
258.082	38.06
258.299	-95.06
258.515	3.24
258.732	3.24
258.948	-9.05
259.165	-9.05
259.381	9.39
259.597	5.29
259.814	40.11
260.03	-68.44
260.246	-9.05
260.463	1.19
260.679	109.74
260.895	11.43
261.112	79.02
261.328	36.01
261.544	-50
261.761	36.01
261.977	3.24
262.193	-37.72
262.409	70.83
262.626	17.58
262.842	36.01
263.058	-45.91
263.274	31.91
263.49	-37.72
263.707	7.34
263.923	60.59
264.139	29.87
264.355	7.34
264.571	60.59
264.787	117.93
265.004	40.11
265.22	-70.48
265.436	31.91
265.652	13.48
265.868	25.77
266.084	-2.9
266.3	81.07
266.516	38.06
266.732	21.67
266.948	-33.62
267.164	36.01
267.38	-7
267.596	68.78
267.812	25.77
268.028	50.35
268.244	-39.76
268.46	23.72
268.676	-35.67
268.892	-13.14
269.108	-101.2
269.324	25.77
269.54	5.29
269.756	52.39
269.972	3.24
270.188	62.63
270.403	-13.14
270.619	-4.95
270.835	19.63
271.051	13.48
271.267	-21.33
271.483	50.35
271.698	19.63
271.914	11.43
272.13	15.53
272.346	15.53
272.562	-58.2
272.777	66.73
272.993	-45.91
273.209	64.68
273.425	31.91
273.64	74.92
273.856	-37.72
274.072	64.68
274.287	58.54
274.503	-9.05
274.719	23.72
274.934	19.63
275.15	58.54
275.366	40.11
275.581	9.39
275.797	-29.52
276.012	-35.67
276.228	19.63
276.444	85.16
276.659	85.16
276.875	17.58
277.09	3.24
277.306	42.15
277.521	-11.09
277.737	-0.85
277.952	1.19
278.168	11.43
278.383	11.43
278.599	21.67
278.814	23.72
279.03	7.34
279.245	31.91
279.461	58.54
279.676	72.87
279.892	31.91
280.107	-11.09
280.322	42.15
280.538	36.01
280.753	81.07
280.969	21.67
281.184	-27.48
281.399	42.15
281.615	29.87
281.83	40.11
282.045	-17.24
282.26	58.54
282.476	54.44
282.691	36.01
282.906	46.25
283.122	66.73
283.337	38.06
283.552	54.44
283.767	54.44
283.983	17.58
284.198	50.35
284.413	1.19
284.628	-43.86
284.843	36.01
285.058	1.19
285.274	11.43
285.489	11.43
285.704	46.25
285.919	11.43
286.134	-33.62
286.349	66.73
286.564	29.87
286.779	29.87
286.995	-7
287.21	-41.81
287.425	95.4
287.64	-13.14
287.855	27.82
288.07	-27.48
288.285	3.24
288.5	42.15
288.715	64.68
288.93	48.3
289.145	-11.09
289.36	36.01
289.575	-52.05
289.79	19.63
290.004	-27.48
290.219	5.29
290.434	29.87
290.649	-45.91
290.864	-27.48
291.079	36.01
291.294	48.3
291.509	-47.96
291.724	7.34
291.938	52.39
292.153	97.45
292.368	-2.9
292.583	46.25
292.798	15.53
293.012	-13.14
293.227	64.68
293.442	23.72
293.657	76.97
293.871	68.78
294.086	-4.95
294.301	33.96
294.516	64.68
294.73	64.68
294.945	3.24
295.16	-33.62
295.374	81.07
295.589	54.44
295.804	9.39
296.018	68.78
296.233	72.87
296.447	-11.09
296.662	36.01
296.877	50.35
297.091	76.97
297.306	23.72
297.52	99.5
297.735	7.34
297.949	-13.14
298.164	3.24
298.378	40.11
298.593	-27.48
298.807	-54.1
299.022	33.96
299.236	9.39
299.451	15.53
299.665	-7
299.88	21.67
300.094	31.91
300.309	44.2
300.523	9.39
300.737	-29.52
300.952	38.06
301.166	-11.09
301.381	38.06
301.595	68.78
301.809	64.68
302.024	50.35
302.238	-25.43
302.452	48.3
302.667	-15.19
302.881	119.98
303.095	60.59
303.309	3.24
303.524	9.39
303.738	-62.29
303.952	-0.85
304.166	-29.52
304.381	-39.76
304.595	25.77
304.809	11.43
305.023	66.73
305.237	46.25
305.452	31.91
305.666	33.96
305.88	140.46
306.094	119.98
306.308	48.3
306.522	54.44
306.736	85.16
306.95	-4.95
307.164	25.77
307.379	-7
307.593	46.25
307.807	66.73
308.021	15.53
308.235	64.68
308.449	-27.48
308.663	17.58
308.877	52.39
309.091	-25.43
309.305	23.72
309.519	-23.38
309.733	1.19
309.947	-39.76
310.161	27.82
310.374	60.59
310.588	-2.9
310.802	-45.91
311.016	48.3
311.23	33.96
311.444	33.96
311.658	81.07
311.872	62.63
312.085	87.21
312.299	50.35
312.513	23.72
312.727	46.25
312.941	29.87
313.154	50.35
313.368	-0.85
313.582	46.25
313.796	36.01
314.009	-23.38
314.223	7.34
314.437	42.15
314.651	21.67
314.864	17.58
315.078	-0.85
315.292	5.29
315.505	9.39
315.719	97.45
315.933	33.96
316.146	-21.33
316.36	7.34
316.573	119.98
316.787	52.39
317.001	23.72
317.214	-4.95
317.428	83.11
317.641	25.77
317.855	38.06
318.068	27.82
318.282	103.59
318.495	62.63
318.709	44.2
318.922	36.01
319.136	93.35
319.349	58.54
319.563	48.3
319.776	-7
319.99	-0.85
320.203	42.15
320.417	60.59
320.63	7.34
320.843	42.15
321.057	5.29
321.27	76.97
321.483	105.64
321.697	83.11
321.91	-15.19
322.124	46.25
322.337	31.91
322.55	3.24
322.763	46.25
322.977	9.39
323.19	74.92
323.403	-29.52
323.617	38.06
323.83	68.78
324.043	-43.86
324.256	66.73
324.469	-23.38
324.683	25.77
324.896	19.63
325.109	9.39
325.322	40.11
325.535	29.87
325.748	19.63
325.962	81.07
326.175	48.3
326.388	-4.95
326.601	119.98
326.814	29.87
327.027	23.72
327.24	-21.33
327.453	-39.76
327.666	25.77
327.879	85.16
328.092	-7
328.305	52.39
328.518	21.67
328.731	-29.52
328.944	58.54
329.157	-68.44
329.37	29.87
329.583	1.19
329.796	23.72
330.009	3.24
330.222	44.2
330.435	99.5
330.648	25.77
330.861	42.15
331.073	46.25
331.286	64.68
331.499	21.67
331.712	7.34
331.925	76.97
332.138	27.82
332.35	103.59
332.563	52.39
332.776	21.67
332.989	25.77
333.202	58.54
333.414	33.96
333.627	13.48
333.84	97.45
334.053	56.49
334.265	48.3
334.478	-4.95
334.691	9.39
334.903	42.15
335.116	9.39
335.329	17.58
335.541	1.19
335.754	13.48
335.966	38.06
336.179	13.48
336.392	99.5
336.604	38.06
336.817	44.2
337.029	50.35
337.242	52.39
337.454	42.15
337.667	5.29
337.88	25.77
338.092	85.16
338.305	60.59
338.517	-0.85
338.729	87.21
338.942	62.63
339.154	11.43
339.367	48.3
339.579	-29.52
339.792	76.97
340.004	89.26
340.217	17.58
340.429	60.59
340.641	-78.68
340.854	48.3
341.066	25.77
341.278	146.6
341.491	48.3
341.703	42.15
341.915	-23.38
342.128	15.53
342.34	-11.09
342.552	15.53
342.764	17.58
342.977	38.06
343.189	19.63
343.401	-0.85
343.613	66.73
343.826	64.68
344.038	76.97
344.25	27.82
344.462	76.97
344.674	-0.85
344.886	72.87
345.099	52.39
345.311	36.01
345.523	56.49
345.735	44.2
345.947	87.21
346.159	42.15
346.371	29.87
346.583	7.34
346.795	99.5
347.007	-2.9
347.219	40.11
347.431	19.63
347.643	50.35
347.855	-7
348.067	-27.48
348.279	46.25
348.491	36.01
348.703	87.21
348.915	60.59
349.127	89.26
349.339	103.59
349.551	15.53
349.763	42.15
349.975	56.49
350.187	54.44
350.399	3.24
350.61	56.49
350.822	1.19
351.034	29.87
351.246	25.77
351.458	3.24
351.669	64.68
351.881	19.63
352.093	31.91
352.305	66.73
352.517	66.73
352.728	91.31
352.94	5.29
353.152	50.35
353.363	-7
353.575	42.15
353.787	-4.95
353.999	48.3
354.21	7.34
354.422	21.67
354.633	-17.24
354.845	64.68
355.057	40.11
355.268	19.63
355.48	50.35
355.692	-4.95
355.903	99.5
356.115	19.63
356.326	-33.62
356.538	81.07
356.749	11.43
356.961	17.58
357.172	31.91
357.384	21.67
357.595	97.45
357.807	3.24
358.018	48.3
358.23	64.68
358.441	70.83
358.653	60.59
358.864	1.19
359.075	-2.9
359.287	-25.43
359.498	58.54
359.709	33.96
359.921	9.39
360.132	3.24
360.344	9.39
360.555	33.96
360.766	15.53
360.977	5.29
361.189	1.19
361.4	-54.1
361.611	93.35
361.823	36.01
362.034	9.39
362.245	15.53
362.456	11.43
362.667	62.63
362.879	58.54
363.09	29.87
363.301	46.25
363.512	72.87
363.723	-4.95
363.935	42.15
364.146	25.77
364.357	-4.95
364.568	23.72
364.779	74.92
364.99	52.39
365.201	-25.43
365.412	29.87
365.623	17.58
365.834	44.2
366.045	9.39
366.256	83.11
366.467	42.15
366.678	50.35
366.889	76.97
367.1	50.35
367.311	74.92
367.522	-4.95
367.733	62.63
367.944	19.63
368.155	17.58
368.366	79.02
368.577	52.39
368.788	68.78
368.999	36.01
369.209	7.34
369.42	54.44
369.631	64.68
369.842	-7
370.053	29.87
370.264	72.87
370.474	44.2
370.685	23.72
370.896	85.16
371.107	29.87
371.317	76.97
371.528	101.55
371.739	109.74
371.95	13.48
372.16	150.7
372.371	1.19
372.582	66.73
372.792	76.97
373.003	74.92
373.214	54.44
373.424	40.11
373.635	19.63
373.846	40.11
374.056	25.77
374.267	119.98
374.477	83.11
374.688	-0.85
374.898	36.01
375.109	122.02
375.319	31.91
375.53	105.64
375.74	36.01
375.951	23.72
376.161	9.39
376.372	79.02
376.582	-9.05
376.793	44.2
377.003	50.35
377.214	62.63
377.424	23.72
377.635	101.55
377.845	-9.05
378.055	93.35
378.266	52.39
378.476	44.2
378.686	111.78
378.897	7.34
379.107	105.64
379.317	89.26
379.528	83.11
379.738	89.26
379.948	-82.77
380.158	42.15
380.369	40.11
380.579	87.21
380.789	-17.24
380.999	66.73
381.21	-13.14
381.42	154.79
381.63	-19.29
381.84	21.67
382.05	97.45
382.261	50.35
382.471	56.49
382.681	38.06
382.891	111.78
383.101	42.15
383.311	33.96
383.521	-11.09
383.731	50.35
383.941	44.2
384.151	46.25
384.361	40.11
384.571	130.22
384.781	48.3
384.991	17.58
385.201	70.83
385.411	36.01
385.621	64.68
385.831	52.39
386.041	85.16
386.251	13.48
386.461	87.21
386.671	-21.33
386.881	58.54
387.091	36.01
387.301	64.68
387.511	62.63
387.72	56.49
387.93	66.73
388.14	7.34
388.35	105.64
388.56	60.59
388.769	48.3
388.979	68.78
389.189	58.54
389.399	11.43
389.609	-19.29
389.818	72.87
390.028	5.29
390.238	128.17
390.447	33.96
390.657	50.35
390.867	-50
391.076	74.92
391.286	79.02
391.496	27.82
391.705	50.35
391.915	70.83
392.125	79.02
392.334	81.07
392.544	15.53
392.753	56.49
392.963	-41.81
393.172	81.07
393.382	56.49
393.591	72.87
393.801	58.54
394.01	72.87
394.22	124.07
394.429	68.78
394.639	33.96
394.848	119.98
395.058	74.92
395.267	68.78
395.477	64.68
395.686	87.21
395.895	79.02
396.105	162.98
396.314	158.89
396.524	64.68
396.733	56.49
396.942	64.68
397.152	107.69
397.361	146.6
397.57	85.16
397.78	3.24
397.989	42.15
398.198	171.18
398.407	140.46
398.617	79.02
398.826	132.26
399.035	76.97
399.244	132.26
399.453	52.39
399.663	79.02
399.872	119.98
400.081	74.92
400.29	197.8
400.499	152.74
400.708	158.89
400.917	74.92
401.127	113.83
401.336	124.07
401.545	95.4
401.754	150.7
401.963	142.5
402.172	167.08
402.381	38.06
402.59	107.69
402.799	85.16
403.008	128.17
403.217	162.98
403.426	117.93
403.635	187.56
403.844	124.07
404.053	148.65
404.262	179.37
404.471	205.99
404.68	58.54
404.888	130.22
405.097	148.65
405.306	158.89
405.515	179.37
405.724	212.14
405.933	162.98
406.142	130.22
406.35	183.46
406.559	208.04
406.768	132.26
406.977	251.05
407.185	167.08
407.394	165.03
407.603	117.93
407.812	224.42
408.02	275.62
408.229	232.62
408.438	253.09
408.646	205.99
408.855	279.72
409.064	246.95
409.272	210.09
409.481	253.09
409.69	294.05
409.898	298.15
410.107	306.34
410.315	312.49
410.524	369.83
410.733	359.59
410.941	339.11
411.15	337.06
411.358	349.35
411.567	412.84
411.775	408.74
411.984	373.92
412.192	390.31
412.401	464.04
412.609	408.74
412.818	459.94
413.026	429.22
413.234	494.76
413.443	498.85
413.651	525.47
413.86	611.49
414.068	601.25
414.276	621.73
414.485	717.98
414.693	691.36
414.901	740.51
415.11	732.32
415.318	685.22
415.526	717.98
415.734	738.46
415.943	867.49
416.151	793.76
416.359	861.34
416.567	832.67
416.776	1053.85
416.984	861.34
417.192	914.59
417.4	1082.52
417.608	947.36
417.817	1115.29
418.025	1137.82
418.233	1180.82
418.441	1078.43
418.649	1184.92
418.857	1268.89
419.065	1272.98
419.273	1303.7
419.481	1322.13
419.689	1467.54
419.897	1434.77
420.105	1465.49
420.313	1655.95
420.521	1682.58
420.729	1658
420.937	1737.87
421.145	1776.78
421.353	1762.45
421.561	1993.87
421.769	1918.09
421.977	2063.5
422.185	2000.01
422.393	2268.3
422.601	2256.01
422.809	2368.65
423.017	2313.35
423.224	2552.96
423.432	2520.2
423.64	2641.03
423.848	2854.02
424.056	2665.6
424.263	2843.78
424.471	2888.83
424.679	2960.51
424.887	3107.96
425.094	3212.41
425.302	3325.05
425.51	3300.47
425.718	3562.61
425.925	3513.46
426.133	3675.25
426.341	3794.03
426.548	3957.87
426.756	3900.53
426.964	4002.93
427.171	4342.89
427.379	4412.52
427.586	4385.9
427.794	4510.82
428.001	4861.02
428.209	5004.38
428.417	5024.86
428.624	5282.91
428.832	5262.43
429.039	5243.99
429.247	5348.44
429.454	5997.65
429.662	6130.77
429.869	5766.23
430.076	6134.86
430.284	5950.54
430.491	6427.72
430.699	6693.96
430.906	6597.7
431.114	6671.43
431.321	6984.77
431.528	7023.68
431.736	7511.1
431.943	7834.68
432.15	7537.72
432.358	7654.45
432.565	8074.29
432.772	8211.5
432.979	8469.55
433.187	8653.86
433.394	8875.04
433.601	9311.26
433.808	9417.75
434.016	9161.76
434.223	9757.72
434.43	10333.2
434.637	10126.35
434.844	10515.47
435.052	10910.72
435.259	10679.3
435.466	10933.25
435.673	10796.04
435.88	11514.87
436.087	11971.57
436.294	12295.15
436.501	11918.32
436.708	12270.58
436.915	12495.85
437.122	13112.29
437.329	13317.09
437.537	13558.75
437.743	13482.97
437.95	13419.49
438.157	14027.73
438.364	14853.06
438.571	14779.34
438.778	14752.71
438.985	16235.44
439.192	15571.9
439.399	15958.97
439.606	15915.96
439.813	16561.07
440.02	17603.49
440.227	17216.42
440.433	17238.95
440.64	17724.32
440.847	17638.3
441.054	18189.21
441.261	19092.36
441.467	18740.11
441.674	19434.37
441.881	20085.62
442.088	20054.9
442.294	19708.8
442.501	20431.73
442.708	20810.61
442.914	21787.49
443.121	22420.31
443.328	21951.32
443.534	23481.16
443.741	22573.91
443.948	22467.41
444.154	24066.88
444.361	24081.21
444.568	24054.59
444.774	24083.26
444.981	24525.62
445.187	24916.78
445.394	26233.63
445.6	25754.4
445.807	28261.12
446.013	27329.29
446.22	27493.13
446.426	28601.08
446.633	28689.14
446.839	29864.67
447.046	28668.66
447.252	30122.72
447.459	30165.73
447.665	30425.82
447.871	31328.97
448.078	32801.46
448.284	31032.02
448.491	31896.26
448.697	33495.72
448.903	34038.44
449.11	33845.93
449.316	33325.74
449.522	34020
449.728	34714.26
449.935	35363.47
450.141	35418.77
450.347	35826.31
450.553	34880.15
450.76	34874.01
450.966	36586.11
451.172	35742.35
451.378	36919.93
451.584	36262.53
451.791	36811.38
451.997	37259.89
452.203	37573.23
452.409	37542.51
452.615	37343.86
452.821	36088.45
453.027	35408.53
453.233	37374.58
453.44	35805.83
453.646	36242.05
453.852	36414.08
454.058	37194.36
454.264	35871.37
454.47	37151.35
454.676	36113.03
454.882	36934.26
455.088	33819.3
455.294	34316.96
455.5	34980.5
455.705	35420.81
455.911	34001.57
456.117	33141.42
456.323	33131.19
456.529	31298.25
456.735	32281.28
456.941	31451.85
457.147	31136.46
457.352	30247.65
457.558	29760.23
457.764	30067.42
457.97	29627.11
458.176	28820.21
458.381	28799.73
458.587	27364.11
458.793	27343.63
458.999	26032.93
459.204	27810.56
459.41	27112.2
459.616	25355.05
459.821	25193.26
460.027	25301.8
460.233	24619.83
460.438	23335.75
460.644	23358.28
460.85	22799.18
461.055	22260.57
461.261	22086.49
461.466	20450.16
461.672	19753.85
461.878	21238.63
462.083	19954.55
462.289	19608.45
462.494	19196.81
462.7	18359.19
462.905	17787.8
463.111	18398.1
463.316	18512.78
463.522	18117.53
463.727	18289.56
463.932	18166.68
464.138	17943.45
464.343	18051.99
464.549	17564.57
464.754	18168.73
464.959	18170.77
465.165	17763.23
465.37	17251.24
465.575	16802.73
465.781	17593.25
465.986	17275.81
466.191	16825.26
466.397	16417.71
466.602	15776.7
466.807	16204.72
467.012	16122.8
467.218	16235.44
467.423	15907.77
467.628	15956.92
467.833	16817.07
468.038	16194.48
468.244	15504.32
468.449	16391.09
468.654	15647.68
468.859	15725.5
469.064	15590.33
469.269	15010.76
469.474	15207.36
469.679	15385.54
469.885	14957.51
470.09	15002.57
470.295	14922.69
470.5	14705.61
470.705	14642.12
470.91	14392.27
471.115	14117.84
471.32	14320.59
471.525	14384.08
471.73	14138.32
471.935	13894.61
472.139	13515.74
472.344	13806.55
472.549	13626.33
472.754	13405.15
472.959	13229.02
473.164	12862.44
473.369	12493.8
473.574	13220.83
473.778	12948.45
473.983	12872.68
474.188	12659.69
474.393	12411.89
474.598	12405.74
474.802	11981.81
475.007	12151.79
475.212	12135.41
475.417	11901.94
475.621	11783.16
475.826	11639.8
476.031	11494.4
476.235	11305.98
476.44	11555.83
476.645	11172.86
476.849	11152.38
477.054	11359.23
477.259	10890.24
477.463	10857.48
477.668	10750.98
477.872	10607.62
478.077	10456.08
478.282	10363.92
478.486	10286.09
478.691	10341.39
478.895	10241.04
479.1	10238.99
479.304	10101.78
479.509	9727
479.713	9954.32
479.918	9810.96
480.122	9499.67
480.326	9737.24
480.531	9761.81
480.735	9618.46
480.94	9483.29
481.144	9849.88
481.348	9497.63
481.553	9602.07
481.757	9296.92
481.961	9372.7
482.166	9665.56
482.37	9497.63
482.574	9325.6
482.778	9309.21
482.983	9534.49
483.187	9561.11
483.391	9346.08
483.595	9329.69
483.8	9155.61
484.004	9491.48
484.208	9360.41
484.412	9204.77
484.616	9403.42
484.821	9413.66
485.025	9063.46
485.229	9260.06
485.433	9454.62
485.637	9282.59
485.841	9350.17
486.045	9188.38
486.249	9438.23
486.453	9190.43
486.657	9298.97
486.861	9448.47
487.065	9145.38
487.269	9141.28
487.473	9090.08
487.677	9161.76
487.881	9237.53
488.085	9370.65
488.289	9516.06
488.493	9339.93
488.697	9419.8
488.901	9262.11
489.105	9274.4
489.309	9350.17
489.512	9288.73
489.716	9268.25
489.92	9376.8
490.124	9249.82
490.328	9483.29
490.531	9305.12
490.735	9550.87
490.939	9804.82
491.143	9444.38
491.346	9600.02
491.55	9595.93
491.754	9681.94
491.958	9780.25
492.161	9692.18
492.365	10013.71
492.569	9774.1
492.772	9767.96
492.976	10038.29
493.18	9985.04
493.383	10185.74
493.587	10177.55
493.79	10251.28
493.994	9948.18
494.197	10245.13
494.401	10130.45
494.605	10230.8
494.808	10402.83
495.012	10511.37
495.215	10697.74
495.419	10509.32
495.622	10445.84
495.825	10701.83
496.029	10740.74
496.232	10877.96
496.436	10857.48
496.639	11197.44
496.843	11283.45
497.046	11396.09
497.249	11226.11
497.453	11580.41
497.656	11660.28
497.859	11711.48
498.063	11731.96
498.266	12018.68
498.469	11832.31
498.673	12114.93
498.876	12340.21
499.079	12370.93
499.282	12434.41
499.485	12991.46
499.689	12667.88
499.892	12944.36
500.095	12899.3
500.298	13292.51
500.501	13022.18
500.705	13519.84
500.908	13736.92
501.111	13622.23
501.314	13804.5
501.517	13876.18
501.72	14275.54
501.923	14025.68
502.126	14455.76
502.329	14701.51
502.532	14846.92
502.735	14660.55
502.938	15197.12
503.141	15287.23
503.344	15289.28
503.547	15467.45
503.75	15514.56
503.953	15877.05
504.156	15915.96
504.359	16145.33
504.562	16169.91
504.765	16735.15
504.968	16870.31
505.17	16755.63
505.373	17003.43
505.576	17193.89
505.779	17341.35
505.982	17529.76
506.185	17601.44
506.387	17935.26
506.59	17984.41
506.793	18328.47
506.996	18123.67
507.198	18678.67
507.401	18862.99
507.604	18969.48
507.807	19002.25
508.009	19491.71
508.212	19409.79
508.415	19604.35
508.617	20147.06
508.82	20126.58
509.022	20263.8
509.225	20722.54
509.428	20788.08
509.63	20847.47
509.833	20761.45
510.035	21619.55
510.238	21394.28
510.44	21336.93
510.643	21853.02
510.845	22078.3
511.048	22084.44
511.25	22485.84
511.453	22537.04
511.655	23284.55
511.858	23165.77
512.06	23255.88
512.262	23411.53
512.465	23487.3
512.667	23780.16
512.87	24253.24
513.072	23864.13
513.274	24521.52
513.477	24654.64
513.679	25203.5
513.881	25176.87
514.084	25441.06
514.286	25557.8
514.488	25662.24
514.69	26293.02
514.893	26336.02
515.095	26293.02
515.297	27126.54
515.499	26751.76
515.701	27261.71
515.904	27415.3
516.106	27366.15
516.308	27851.52
516.51	28300.03
516.712	28207.87
516.914	28619.51
517.116	28615.41
517.318	29334.25
517.52	28906.23
517.722	28873.46
517.925	29491.94
518.127	29762.28
518.329	30251.74
518.531	29813.48
518.733	30376.67
518.935	30859.99
519.136	30651.09
519.338	31480.52
519.54	31646.41
519.742	31689.42
519.944	31814.34
520.146	32369.34
520.348	32279.23
520.55	32471.74
520.752	32617.14
520.954	32838.33
521.155	32666.3
521.357	33591.98
521.559	33755.82
521.761	33850.02
521.963	34030.24
522.164	34263.71
522.366	34245.28
522.568	34853.53
522.77	34751.13
522.971	35011.22
523.173	35160.72
523.375	35377.81
523.576	35584.65
523.778	35512.97
523.98	36037.25
524.181	36442.75
524.383	36082.31
524.584	37016.18
524.786	36379.26
524.988	36786.81
525.189	37044.85
525.391	37149.3
525.592	37243.51
525.794	37472.88
525.995	37345.9
526.197	37737.07
526.398	37376.62
526.6	38079.08
526.801	38279.78
527.003	38226.53
527.204	38462.05
527.406	38425.18
527.607	38730.33
527.808	39311.95
528.01	38423.14
528.211	39066.2
528.412	39807.56
528.614	39420.5
528.815	39383.63
529.016	39606.86
529.218	39256.66
529.419	39631.44
529.62	39572.05
529.822	39682.64
530.023	39602.77
530.224	39414.35
530.425	39955.02
530.626	39404.11
530.828	39510.61
531.029	40550.98
531.23	39678.54
531.431	39709.26
531.632	40110.66
531.833	40280.64
532.035	40045.13
532.236	40376.9
532.437	40415.81
532.638	40143.43
532.839	40563.26
533.04	40624.7
533.241	40366.66
533.442	40997.43
533.643	40593.98
533.844	40405.57
534.045	40426.05
534.246	40286.79
534.447	40806.97
534.648	40882.75
534.849	40591.94
535.05	40475.2
535.251	40710.72
535.451	40706.62
535.652	40751.68
535.853	40596.03
536.054	40921.66
536.255	40706.62
536.456	40161.86
536.657	41019.96
536.857	40530.5
537.058	40424
537.259	41167.41
537.46	40825.4
537.66	40835.64
537.861	40919.61
538.062	40272.45
538.263	40839.74
538.463	40286.79
538.664	40192.58
538.865	40864.32
539.065	40727.1
539.266	40344.13
539.466	41222.71
539.667	40587.84
539.868	40890.94
540.068	40901.18
540.269	40759.87
540.469	41243.19
540.67	40278.6
540.87	40847.93
541.071	40387.14
541.271	40585.79
541.472	40514.11
541.672	40292.93
541.873	40288.84
542.073	40053.32
542.274	40706.62
542.474	40354.37
542.675	39842.38
542.875	40935.99
543.075	40501.82
543.276	39860.81
543.476	40712.77
543.676	40284.74
543.877	40368.71
544.077	40510.02
544.277	40581.7
544.478	40247.88
544.678	40405.57
544.878	40391.23
545.078	40622.65
545.279	40321.6
545.479	40211.01
545.679	40548.93
545.879	40301.12
546.079	40346.18
546.28	40239.68
546.48	40135.24
546.68	40047.18
546.88	40178.25
547.08	40469.06
547.28	40319.56
547.48	39774.8
547.68	40321.6
547.88	39754.32
548.081	40170.05
548.281	39875.15
548.481	40053.32
548.681	39903.82
548.881	40125
549.081	40157.77
549.28	39664.21
549.48	40020.55
549.68	39711.31
549.88	40448.58
550.08	39924.3
550.28	40368.71
550.48	39852.62
550.68	40149.57
550.88	40057.42
551.08	40354.37
551.279	39848.52
551.479	39539.28
551.679	39807.56
551.879	39797.32
552.079	40081.99
552.278	39750.22
552.478	39768.65
552.678	39563.85
552.878	39846.47
553.077	39815.76
553.277	39123.54
553.477	40157.77
553.676	39799.37
553.876	39672.4
554.076	39404.11
554.275	39334.48
554.475	39690.83
554.674	39350.87
554.874	39465.55
555.074	39545.42
555.273	39625.29
555.473	39567.95
555.672	39111.25
555.872	39240.28
556.071	39232.08
556.271	39580.24
556.47	39096.92
556.67	38748.76
556.869	39070.29
557.068	39264.85
557.268	38484.58
557.467	39146.07
557.667	38832.73
557.866	39334.48
558.065	38537.82
558.265	38652.51
558.464	39017.05
558.663	39062.1
558.863	38103.65
559.062	39002.71
559.261	38408.8
559.461	38871.64
559.66	37937.77
559.859	38691.42
560.058	38361.7
560.258	38675.04
560.457	38042.21
560.656	38113.89
560.855	38144.61
561.054	37984.87
561.253	38085.22
561.453	37956.2
561.652	38115.94
561.851	38265.44
562.05	37802.6
562.249	37632.62
562.448	37958.25
562.647	37562.99
562.846	37644.91
563.045	38173.28
563.244	37327.47
563.443	37679.72
563.642	37032.57
563.841	37044.85
564.04	37245.55
564.239	37696.11
564.438	36928.12
564.637	37051
564.836	37063.29
565.035	36674.17
565.234	36594.3
565.432	36946.55
565.631	36483.71
565.83	36649.6
566.029	36545.15
566.228	36639.36
566.427	36559.48
566.625	36459.13
566.824	36369.02
567.023	36131.46
567.222	35971.72
567.42	36600.44
567.619	35975.81
567.818	35986.05
568.016	35838.6
568.215	36039.3
568.414	35912.33
568.612	36446.85
568.811	35623.56
569.01	35760.78
569.208	35213.97
569.407	35558.03
569.605	35400.33
569.804	35545.74
570.002	35154.58
570.201	35263.12
570.4	34882.2
570.598	34773.66
570.797	34890.39
570.995	34888.34
571.193	34695.83
571.392	34929.3
571.59	34431.65
571.789	34325.15
571.987	34505.37
572.186	34407.07
572.384	34097.83
572.582	34214.56
572.781	34243.23
572.979	33839.78
573.177	33923.75
573.376	34222.75
573.574	33432.24
573.772	34302.62
573.971	33622.7
574.169	33473.2
574.367	33819.3
574.565	33346.22
574.763	33600.17
574.962	33434.28
575.16	33018.55
575.358	33221.3
575.556	32723.64
575.754	33563.31
575.952	32500.41
576.151	33098.42
576.349	32658.1
576.547	32981.68
576.745	32715.45
576.943	32959.16
577.141	32506.55
577.339	32699.06
577.537	32176.83
577.735	32443.07
577.933	32111.3
578.131	32281.28
578.329	32144.06
578.527	31726.28
578.725	31787.72
578.923	31873.73
579.121	31781.57
579.319	31859.4
579.516	31804.1
579.714	31904.45
579.912	31453.9
580.11	31318.73
580.308	31609.54
580.506	31556.3
580.704	30806.74
580.901	30921.43
581.099	31290.06
581.297	30724.82
581.495	30909.14
581.692	30792.4
581.89	30823.12
582.088	30675.67
582.285	30470.87
582.483	30884.56
582.681	30788.31
582.878	30288.6
583.076	30290.65
583.274	30558.94
583.471	29752.04
583.669	30241.5
583.866	29881.06
584.064	30122.72
584.262	29559.53
584.459	30282.46
584.657	29821.67
584.854	29600.49
585.052	29655.78
585.249	29489.9
585.447	29731.56
585.644	29305.58
585.841	29240.04
586.039	29405.93
586.236	29121.26
586.434	28830.45
586.631	29186.8
586.828	28979.95
587.026	28914.42
587.223	28482.3
587.42	29143.79
587.618	29012.72
587.815	28082.94
588.012	27978.5
588.21	28412.67
588.407	28723.96
588.604	28320.51
588.801	27976.45
588.999	28140.29
589.196	28005.12
589.393	28048.13
589.59	28199.68
589.787	27732.74
589.984	27855.62
590.182	27421.45
590.379	27945.73
590.576	27276.04
590.773	27554.57
590.97	27476.74
591.167	27468.55
591.364	26843.92
591.561	27112.2
591.758	27083.53
591.955	26977.04
592.152	27122.44
592.349	26856.21
592.546	26573.59
592.743	26917.65
592.94	26221.34
593.137	26831.63
593.334	26991.37
593.531	26059.55
593.727	26657.56
593.924	26211.1
594.121	26094.36
594.318	26104.6
594.515	25686.82
594.712	26149.66
594.908	25897.76
595.105	26002.21
595.302	25422.63
595.499	25912.1
595.696	25500.45
595.892	25359.14
596.089	25561.89
596.286	25199.4
596.482	25379.62
596.679	25277.22
596.876	25148.2
597.072	25070.38
597.269	25004.85
597.466	25099.05
597.662	25101.1
597.859	24929.07
598.055	24695.6
598.252	24728.37
598.448	24668.98
598.645	24490.8
598.841	24175.42
599.038	24447.8
599.234	24531.76
599.431	23872.32
599.627	24138.55
599.824	24259.38
600.02	23886.65
600.217	23909.18
600.413	23999.29
600.609	23550.79
600.806	23788.35
601.002	23800.64
601.198	23456.58
601.395	23413.57
601.591	23333.7
601.787	23587.65
601.984	23309.13
602.18	23606.08
602.376	23087.95
602.572	23024.46
602.769	23264.07
602.965	22842.19
603.161	23255.88
603.357	22633.3
603.553	22924.11
603.75	22942.54
603.946	22541.14
604.142	22750.03
604.338	22299.48
604.534	22465.36
604.73	22283.09
604.926	22242.14
605.122	22303.57
605.318	22260.57
605.514	22178.65
605.71	22100.83
605.906	21771.1
606.102	21918.56
606.298	22176.6
606.494	21787.49
606.69	21748.57
606.886	21887.84
607.082	21568.35
607.278	21789.53
607.474	21582.69
607.67	21347.17
607.866	21343.08
608.062	21453.67
608.257	21191.53
608.453	21218.15
608.649	21560.16
608.845	21076.84
609.041	21160.81
609.236	21420.9
609.432	21111.66
609.628	20968.3
609.824	20939.63
610.019	20816.75
610.215	20835.18
610.411	20824.94
610.606	20960.11
610.802	20931.44
610.998	20927.34
611.193	20614
611.389	20499.31
611.584	20609.9
611.78	20329.33
611.976	20589.42
612.171	20530.03
612.367	20446.07
612.562	20263.8
612.758	20235.13
612.953	20433.78
613.149	20482.93
613.344	20247.41
613.539	20458.35
613.735	20274.04
613.93	20075.38
614.126	19962.75
614.321	20478.83
614.517	20116.34
614.712	19964.79
614.907	20130.68
615.103	19968.89
615.298	19940.22
615.493	20181.88
615.688	19514.24
615.884	20071.29
616.079	19501.95
616.274	19872.64
616.47	19508.1
616.665	19819.39
616.86	19438.47
617.055	19415.94
617.25	19346.31
617.445	19497.86
617.641	19256.2
617.836	19409.79
618.031	18992.01
618.226	19202.95
618.421	19282.82
618.616	19149.7
618.811	18803.6
619.006	19231.62
619.201	18578.32
619.396	18715.53
619.591	18561.94
619.786	19006.34
619.981	18568.08
620.176	18711.44
620.371	18338.71
620.566	18385.81
620.761	18301.84
620.956	18484.11
621.151	18013.08
621.346	18103.19
621.541	17945.5
621.735	18250.64
621.93	18035.61
622.125	17738.65
622.32	17408.93
622.515	17433.5
622.709	17568.67
622.904	17490.85
623.099	17423.26
623.294	17365.92
623.488	17118.12
623.683	17327.01
623.878	16700.33
624.072	17202.08
624.267	16989.1
624.462	16880.55
624.656	16622.51
624.851	16427.95
625.046	16655.28
625.24	16499.63
625.435	16182.2
625.629	16010.17
625.824	16085.94
626.018	16147.38
626.213	15805.37
626.407	15875
626.602	15741.88
626.796	15842.23
626.991	15815.61
627.185	15881.14
627.38	15586.24
627.574	15420.35
627.768	15444.93
627.963	15498.17
628.157	15309.76
628.352	15352.77
628.546	14912.46
628.74	15023.05
628.935	14945.22
629.129	14838.73
629.323	14853.06
629.517	14754.76
629.712	14523.34
629.906	14588.88
630.1	14519.25
630.294	14496.72
630.489	14029.78
630.683	14306.26
630.877	13921.24
631.071	13997.01
631.265	14070.74
631.459	13976.53
631.653	13865.94
631.848	13837.27
632.042	13798.36
632.236	13695.96
632.43	13585.37
632.624	13579.23
632.818	13597.66
633.012	13347.81
633.206	13202.4
633.4	13265.89
633.594	13269.98
633.788	13165.54
633.982	13057
634.176	13048.8
634.369	12870.63
634.563	12936.17
634.757	12925.93
634.951	12755.94
635.145	12745.7
635.339	12624.87
635.533	12536.81
635.726	12588.01
635.92	12350.45
636.114	12219.38
636.308	12155.89
636.501	12078.07
636.695	12356.59
636.889	11955.19
637.083	12008.44
637.276	11953.14
637.47	12151.79
637.664	11920.37
637.857	11791.35
638.051	11803.64
638.244	11467.77
638.438	11498.49
638.632	11490.3
638.825	11265.02
639.019	11492.35
639.212	11312.13
639.406	11518.97
639.599	11217.92
639.793	11166.72
639.986	11080.71
640.18	11168.77
640.373	11049.99
640.567	11043.84
640.76	10847.24
640.954	10888.2
641.147	10806.28
641.34	10804.23
641.534	10642.44
641.727	10656.78
641.92	10632.2
642.114	10497.03
642.307	10411.02
642.5	10388.49
642.694	10431.5
642.887	10062.87
643.08	10341.39
643.273	10292.24
643.467	10214.41
643.66	9942.03
643.853	10089.49
644.046	9837.59
644.239	10073.1
644.432	9905.17
644.626	9790.49
644.819	9921.56
645.012	9765.91
645.205	9784.34
645.398	9780.25
645.591	9581.59
645.784	9604.12
645.977	9442.33
646.17	9333.79
646.363	9495.58
646.556	9384.99
646.749	9200.67
646.942	9301.02
647.135	9141.28
647.328	9217.05
647.521	9243.68
647.714	8940.58
647.907	8999.97
648.099	9067.55
648.292	8786.98
648.485	9065.5
648.678	8768.55
648.871	8723.49
649.064	8700.97
649.256	8850.47
649.449	8653.86
649.642	8520.74
649.835	8502.31
650.027	8422.44
650.22	8334.38
650.413	8455.21
650.605	8375.34
650.798	8453.16
650.991	8131.63
651.183	8217.65
651.376	8268.84
651.568	8070.19
651.761	8170.54
651.954	8184.88
652.146	8172.59
652.339	8141.87
652.531	8088.62
652.724	7990.32
652.916	7826.48
653.109	7877.68
653.301	7750.71
653.494	7922.74
653.686	7685.17
653.879	7832.63
654.071	7588.92
654.263	7611.45
654.456	7650.36
654.648	7660.6
654.84	7324.73
655.033	7588.92
655.225	7402.55
655.417	7236.67
655.61	7384.12
655.802	7316.54
655.994	7263.29
656.186	7242.81
656.379	7130.17
656.571	7224.38
656.763	7128.13
656.955	7011.39
657.148	7146.56
657.34	6982.72
657.532	6853.7
657.724	6706.24
657.916	6890.56
658.108	6927.42
658.3	6908.99
658.492	6775.88
658.684	6689.86
658.876	6704.2
659.068	6497.35
659.26	6593.61
659.452	6634.57
659.644	6632.52
659.836	6437.96
660.028	6571.08
660.22	6425.67
660.412	6646.85
660.604	6294.6
660.796	6470.73
660.988	6444.1
661.18	6374.47
661.372	5997.65
661.563	6278.22
661.755	6114.38
661.947	6073.42
662.139	5940.3
662.331	6149.2
662.522	6044.75
662.714	6063.18
662.906	5997.65
663.097	6108.24
663.289	5850.19
663.481	5743.7
663.673	5764.18
663.864	5753.94
664.056	5868.63
664.247	5913.68
664.439	5758.03
664.631	5717.08
664.822	5776.47
665.014	5717.08
665.205	5731.41
665.397	5643.35
665.588	5649.49
665.78	5563.48
665.971	5616.72
666.163	5481.56
666.354	5583.96
666.546	5528.66
666.737	5491.8
666.929	5487.7
667.12	5407.83
667.311	5350.49
667.503	5280.86
667.694	5385.3
667.885	5330.01
668.077	5280.86
668.268	5166.17
668.459	5309.53
668.651	5291.1
668.842	5178.46
669.033	5350.49
669.224	5153.88
669.416	5076.06
669.607	5045.34
669.798	4979.81
669.989	5221.47
670.18	5010.53
670.371	5123.16
670.563	4936.8
670.754	5008.48
670.945	4818.02
671.136	4887.65
671.327	4879.46
671.518	4869.22
671.709	4799.59
671.9	4832.35
672.091	4867.17
672.282	4852.83
672.473	4725.86
672.664	4766.82
672.855	4832.35
673.046	4854.88
673.237	4674.66
673.428	4641.89
673.619	4715.62
673.809	4732
674	4537.45
674.191	4566.12
674.382	4582.5
674.573	4564.07
674.764	4584.55
674.954	4586.6
675.145	4451.43
675.336	4531.3
675.527	4492.39
675.717	4459.62
675.908	4379.75
676.099	4404.33
676.289	4486.25
676.48	4424.81
676.671	4484.2
676.861	4422.76
677.052	4435.05
677.243	4254.83
677.433	4183.15
677.624	4240.49
677.814	4342.89
678.005	4336.74
678.195	4197.48
678.386	4127.85
678.576	4211.82
678.767	4332.65
678.957	4242.54
679.148	4246.63
679.338	4134
679.529	4222.06
679.719	4097.13
679.909	4150.38
680.1	4203.63
680.29	4359.27
680.481	4041.84
680.671	4097.13
680.861	4234.35
681.052	4064.36
681.242	4070.51
681.432	4078.7
681.622	4009.07
681.813	4029.55
682.003	3953.77
682.193	4039.79
682.383	3906.67
682.573	3931.25
682.764	4045.93
682.954	4084.84
683.144	4050.03
683.334	4025.45
683.524	3921.01
683.714	3959.92
683.904	3990.64
684.094	4029.55
684.284	3902.58
684.474	3894.38
684.664	4007.02
684.854	3878
685.044	3849.33
685.234	3757.17
685.424	3890.29
685.614	3658.87
685.804	3818.61
685.994	3660.91
686.184	3796.08
686.374	3761.27
686.564	3687.54
686.753	3742.83
686.943	3636.34
687.133	3742.83
687.323	3576.95
687.513	3617.91
687.702	3701.87
687.892	3589.24
688.082	3607.67
688.272	3607.67
688.461	3542.13
688.651	3634.29
688.841	3458.17
689.03	3497.08
689.22	3556.47
689.41	3624.05
689.599	3404.92
689.789	3431.54
689.979	3368.06
690.168	3495.03
690.358	3312.76
690.547	3261.56
690.737	3370.1
690.926	3497.08
691.116	3341.43
691.305	3335.29
691.495	3312.76
691.684	3296.38
691.874	3173.5
692.063	3245.18
692.252	3241.08
692.442	3275.9
692.631	3193.98
692.82	3189.88
693.01	3148.92
693.199	3218.55
693.388	3146.87
693.578	3075.2
693.767	3202.17
693.956	2954.37
694.146	3120.25
694.335	3193.98
694.524	3028.09
694.713	3058.81
694.902	2946.17
695.092	3001.47
695.281	3054.72
695.47	2868.35
695.659	3013.76
695.848	2790.53
696.037	3056.76
696.226	2864.25
696.415	2858.11
696.604	2929.79
696.793	2966.65
696.982	2851.97
697.171	2929.79
697.36	3036.28
697.549	2923.65
697.738	2718.85
697.927	2761.86
698.116	2868.35
698.305	2808.96
698.494	2737.28
698.683	2829.44
698.872	2876.54
699.061	2854.02
699.25	2821.25
699.438	2788.48
699.627	2753.66
699.816	2872.45
700.005	2847.87
700.193	2659.46
700.382	2804.86
700.571	2604.16
700.76	2841.73
700.948	2733.18
701.137	2604.16
701.326	2782.34
701.514	2708.61
701.703	2667.65
701.892	2718.85
702.08	2735.23
702.269	2714.75
702.457	2643.07
702.646	2692.23
702.834	2776.19
703.023	2616.45
703.212	2671.75
703.4	2731.14
703.589	2718.85
703.777	2641.03
703.965	2651.27
704.154	2643.07
704.342	2735.23
704.531	2679.94
704.719	2612.35
704.907	2727.04
705.096	2632.83
705.284	2665.6
705.472	2587.78
705.661	2671.75
705.849	2663.55
706.037	2583.68
706.226	2684.03
706.414	2622.59
706.602	2561.16
706.79	2598.02
706.979	2514.05
707.167	2677.89
707.355	2616.45
707.543	2671.75
707.731	2655.36
707.919	2616.45
708.107	2638.98
708.296	2555.01
708.484	2606.21
708.672	2555.01
708.86	2477.19
709.048	2587.78
709.236	2571.4
709.424	2618.5
709.612	2518.15
709.8	2583.68
709.988	2651.27
710.176	2589.83
710.364	2567.3
710.551	2454.66
710.739	2636.93
710.927	2544.77
711.115	2509.96
711.303	2604.16
711.491	2497.67
711.679	2501.76
711.866	2450.57
712.054	2624.64
712.242	2475.14
712.43	2546.82
712.617	2516.1
712.805	2469
712.993	2555.01
713.181	2395.27
713.368	2583.68
713.556	2583.68
713.744	2499.72
713.931	2577.54
714.119	2563.2
714.306	2593.92
714.494	2618.5
714.682	2514.05
714.869	2466.95
715.057	2464.9
715.244	2444.42
715.432	2550.92
715.619	2454.66
715.807	2509.96
715.994	2391.17
716.182	2526.34
716.369	2507.91
716.556	2507.91
716.744	2485.38
716.931	2509.96
717.119	2542.72
717.306	2509.96
717.493	2571.4
717.681	2430.09
717.868	2600.07
718.055	2630.79
718.242	2438.28
718.43	2507.91
718.617	2501.76
718.804	2512
718.991	2466.95
719.179	2626.69
719.366	2512
719.553	2583.68
719.74	2509.96
719.927	2497.67
720.114	2585.73
720.301	2602.11
720.488	2493.57
720.676	2479.24
720.863	2518.15
721.05	2481.28
721.237	2499.72
721.424	2374.79
721.611	2575.49
721.798	2534.53
721.985	2458.76
722.172	2532.48
722.358	2456.71
722.545	2610.31
722.732	2575.49
722.919	2417.8
723.106	2550.92
723.293	2602.11
723.48	2501.76
723.667	2432.13
723.853	2356.36
724.04	2428.04
724.227	2440.33
724.414	2524.29
724.6	2577.54
724.787	2483.33
724.974	2456.71
725.161	2413.7
725.347	2401.41
725.534	2598.02
725.72	2575.49
725.907	2491.52
726.094	2473.09
726.28	2544.77
726.467	2485.38
726.653	2518.15
726.84	2514.05
727.027	2505.86
727.213	2466.95
727.4	2669.7
727.586	2555.01
727.773	2571.4
727.959	2522.24
728.145	2575.49
728.332	2419.85
728.518	2469
728.705	2614.4
728.891	2624.64
729.077	2479.24
729.264	2528.39
729.45	2485.38
729.636	2585.73
729.823	2550.92
730.009	2610.31
730.195	2462.85
730.382	2571.4
730.568	2505.86
730.754	2548.87
730.94	2526.34
731.126	2602.11
731.313	2583.68
731.499	2552.96
731.685	2600.07
731.871	2737.28
732.057	2501.76
732.243	2548.87
732.429	2581.64
732.615	2573.44
732.801	2534.53
732.987	2493.57
733.173	2561.16
733.359	2530.44
733.545	2573.44
733.731	2522.24
733.917	2518.15
734.103	2569.35
734.289	2665.6
734.475	2518.15
734.661	2538.63
734.847	2634.88
735.033	2669.7
735.219	2669.7
735.404	2557.06
735.59	2526.34
735.776	2571.4
735.962	2524.29
736.148	2632.83
736.333	2595.97
736.519	2555.01
736.705	2688.13
736.89	2569.35
737.076	2649.22
737.262	2645.12
737.447	2589.83
737.633	2448.52
737.819	2573.44
738.004	2591.88
738.19	2462.85
738.375	2413.7
738.561	2499.72
738.747	2380.93
738.932	2501.76
739.118	2555.01
739.303	2589.83
739.489	2550.92
739.674	2479.24
739.859	2538.63
740.045	2473.09
740.23	2458.76
740.416	2395.27
740.601	2493.57
740.786	2464.9
740.972	2409.61
741.157	2450.57
741.342	2514.05
741.528	2561.16
741.713	2532.48
741.898	2555.01
742.084	2491.52
742.269	2421.89
742.454	2432.13
742.639	2489.48
742.824	2497.67
743.01	2325.64
743.195	2452.61
743.38	2436.23
743.565	2325.64
743.75	2401.41
743.935	2303.11
744.12	2389.13
744.305	2389.13
744.49	2364.55
744.675	2270.34
744.86	2303.11
745.045	2296.97
745.23	2360.45
745.415	2294.92
745.6	2299.02
745.785	2167.95
745.97	2303.11
746.155	2331.78
746.34	2305.16
746.525	2305.16
746.71	2151.56
746.895	2151.56
747.079	2149.51
747.264	2137.23
747.449	2219.14
747.634	2235.53
747.819	2247.82
748.003	2116.75
748.188	2141.32
748.373	2053.26
748.557	2131.08
748.742	2065.55
748.927	2120.84
749.111	2104.46
749.296	2047.12
749.481	2110.6
749.665	2102.41
749.85	1965.2
750.034	2030.73
750.219	1948.81
750.404	1914
750.588	1944.72
750.773	1926.29
750.957	1991.82
751.141	1903.76
751.326	2018.44
751.51	1916.05
751.695	1969.29
751.879	1856.65
752.064	1885.33
752.248	1946.76
752.432	1866.89
752.617	1827.98
752.801	1946.76
752.985	1764.5
753.17	1723.54
753.354	1817.74
753.538	1959.05
753.722	1868.94
753.907	1768.59
754.091	1766.54
754.275	1780.88
754.459	1825.93
754.643	1690.77
754.828	1672.34
755.012	1705.1
755.196	1664.15
755.38	1670.29
755.564	1705.1
755.748	1627.28
755.932	1631.38
756.116	1672.34
756.3	1625.23
756.484	1664.15
756.668	1596.56
756.852	1594.51
757.036	1535.12
757.22	1541.27
757.404	1602.71
757.588	1477.78
757.772	1496.21
757.956	1588.37
758.14	1514.64
758.323	1500.31
758.507	1528.98
758.691	1518.74
758.875	1535.12
759.059	1473.68
759.242	1430.68
759.426	1363.09
759.61	1485.97
759.794	1451.16
759.977	1389.72
760.161	1496.21
760.345	1459.35
760.528	1424.53
760.712	1434.77
760.895	1307.8
761.079	1383.57
761.263	1303.7
761.446	1311.89
761.63	1445.01
761.813	1402.01
761.997	1299.61
762.18	1322.13
762.364	1303.7
762.547	1305.75
762.731	1328.28
762.914	1307.8
763.098	1170.58
763.281	1291.41
763.464	1281.18
763.648	1260.7
763.831	1260.7
764.015	1264.79
764.198	1291.41
764.381	1289.37
764.564	1287.32
764.748	1342.61
764.931	1281.18
765.114	1162.39
765.297	1229.98
765.481	1205.4
765.664	1189.02
765.847	1178.78
766.03	1254.55
766.213	1160.34
766.397	1242.26
766.58	1131.67
766.763	1176.73
766.946	1133.72
767.129	1238.17
767.312	1174.68
767.495	1191.06
767.678	1051.8
767.861	1172.63
768.044	1193.11
768.227	1109.15
768.41	1086.62
768.593	1088.67
768.776	1107.1
768.959	1043.61
769.142	1109.15
769.324	1092.76
769.507	1047.71
769.69	1053.85
769.873	1047.71
770.056	1100.95
770.239	998.56
770.421	1121.43
770.604	1074.33
770.787	1064.09
770.97	1111.19
771.152	1006.75
771.335	1092.76
771.518	1002.65
771.7	1064.09
771.883	967.84
772.066	984.22
772.248	1070.23
772.431	920.73
772.613	1045.66
772.796	988.32
772.978	973.98
773.161	980.12
773.343	986.27
773.526	967.84
773.708	965.79
773.891	906.4
774.073	908.44
774.256	902.3
774.438	926.88
774.621	863.39
774.803	867.49
774.985	887.97
775.168	926.88
775.35	820.38
775.532	943.26
775.715	867.49
775.897	834.72
776.079	885.92
776.261	916.64
776.444	912.54
776.626	812.19
776.808	808.09
776.99	709.79
777.173	709.79
777.355	834.72
777.537	801.95
777.719	820.38
777.901	808.09
778.083	810.14
778.265	736.42
778.447	849.05
778.629	720.03
778.811	724.13
778.993	740.51
779.175	783.52
779.357	814.24
779.539	666.78
779.721	748.7
779.903	758.94
780.085	748.7
780.267	687.26
780.449	668.83
780.631	744.61
780.812	629.92
780.994	720.03
781.176	644.26
781.358	615.59
781.54	601.25
781.721	625.83
781.903	711.84
782.085	666.78
782.267	662.69
782.448	599.2
782.63	687.26
782.812	564.39
782.993	662.69
783.175	527.52
783.357	511.14
783.538	558.24
783.72	494.76
783.901	607.39
784.083	611.49
784.264	576.67
784.446	550.05
784.627	494.76
784.809	545.95
784.99	523.43
785.172	591.01
785.353	447.65
785.535	543.91
785.716	572.58
785.897	511.14
786.079	539.81
786.26	507.04
786.441	521.38
786.623	535.71
786.804	507.04
786.985	429.22
787.167	494.76
787.348	568.48
787.529	507.04
787.71	488.61
787.891	539.81
788.073	457.89
788.254	511.14
788.435	466.08
788.616	488.61
788.797	412.84
788.978	439.46
789.159	431.27
789.34	500.9
789.522	496.8
789.703	535.71
789.884	474.28
790.065	439.46
790.246	500.9
790.427	416.93
790.607	425.12
790.788	447.65
790.969	437.41
791.15	412.84
791.331	396.45
791.512	447.65
791.693	425.12
791.874	427.17
792.054	408.74
792.235	435.36
792.416	412.84
792.597	369.83
792.778	398.5
792.958	412.84
793.139	335.01
793.32	414.88
793.5	406.69
793.681	400.55
793.862	384.16
794.042	328.87
794.223	345.25
794.404	396.45
794.584	388.26
794.765	423.08
794.945	394.4
795.126	367.78
795.306	335.01
795.487	263.33
795.667	310.44
795.848	341.16
796.028	330.92
796.209	384.16
796.389	289.96
796.57	355.49
796.75	320.68
796.93	267.43
797.111	353.45
797.291	349.35
797.471	341.16
797.652	312.49
797.832	316.58
798.012	265.38
798.192	349.35
798.373	216.23
798.553	269.48
798.733	273.57
798.913	285.86
799.093	335.01
799.274	335.01
799.454	310.44
799.634	267.43
799.814	289.96
799.994	314.53
800.174	320.68
800.354	332.97
800.534	244.9
800.714	287.91
800.894	308.39
801.074	173.22
801.254	347.3
801.434	310.44
801.614	269.48
801.794	273.57
801.974	572.58
802.154	326.82
802.334	335.01
802.514	261.29
802.693	269.48
802.873	205.99
803.053	265.38
803.233	232.62
803.413	240.81
803.592	244.9
803.772	195.75
803.952	294.05
804.131	212.14
804.311	322.73
804.491	261.29
804.67	199.85
804.85	218.28
805.03	249
805.209	244.9
805.389	253.09
805.568	226.47
805.748	244.9
805.928	281.77
806.107	183.46
806.287	218.28
806.466	259.24
806.646	212.14
806.825	302.25
807.004	199.85
807.184	230.57
807.363	212.14
807.543	220.33
807.722	201.9
807.901	226.47
808.081	257.19
808.26	167.08
808.439	240.81
808.619	251.05
808.798	171.18
808.977	212.14
809.156	201.9
809.336	263.33
809.515	212.14
809.694	171.18
809.873	205.99
810.052	150.7
810.231	246.95
810.411	222.38
810.59	210.09
810.769	244.9
810.948	214.18
811.127	203.94
811.306	177.32
811.485	273.57
811.664	210.09
811.843	187.56
812.022	175.27
812.201	165.03
812.38	74.92
812.559	185.51
812.737	187.56
812.916	126.12
813.095	255.14
813.274	162.98
813.453	212.14
813.632	132.26
813.811	228.52
813.989	156.84
814.168	122.02
814.347	162.98
814.526	156.84
814.704	136.36
814.883	216.23
815.062	177.32
815.24	199.85
815.419	97.45
815.598	246.95
815.776	95.4
815.955	115.88
816.133	132.26
816.312	212.14
816.49	214.18
816.669	140.46
816.847	152.74
817.026	142.5
817.204	93.35
817.383	218.28
817.561	205.99
817.74	119.98
817.918	154.79
818.097	158.89
818.275	199.85
818.453	197.8
818.632	222.38
818.81	140.46
818.988	79.02
819.167	214.18
819.345	144.55
819.523	167.08
819.701	148.65
819.879	87.21
820.058	136.36
820.236	199.85
820.414	146.6
820.592	208.04
820.77	160.94
820.948	154.79
821.127	203.94
821.305	201.9
821.483	85.16
821.661	91.31
821.839	79.02
822.017	89.26
822.195	109.74
822.373	148.65
822.551	126.12
822.729	144.55
822.907	85.16
823.085	152.74
823.262	70.83
823.44	136.36
823.618	48.3
823.796	150.7
823.974	44.2
824.152	124.07
824.329	138.41
824.507	109.74
824.685	142.5
824.863	76.97
825.04	160.94
825.218	85.16
825.396	150.7
825.574	101.55
825.751	97.45
825.929	160.94
826.107	101.55
826.284	148.65
826.462	130.22
826.639	81.07
826.817	113.83
826.994	132.26
827.172	79.02
827.349	134.31
827.527	128.17
827.704	68.78
827.882	42.15
828.059	189.61
828.237	91.31
828.414	132.26
828.591	107.69
828.769	152.74
828.946	124.07
829.124	138.41
829.301	64.68
829.478	85.16
829.655	107.69
829.833	74.92
830.01	99.5
830.187	56.49
830.364	64.68
830.542	124.07
830.719	146.6
830.896	138.41
831.073	134.31
831.25	91.31
831.427	126.12
831.604	117.93
831.782	70.83
831.959	85.16
832.136	103.59
832.313	136.36
832.49	52.39
832.667	64.68
832.844	134.31
833.021	154.79
833.198	103.59
833.374	76.97
833.551	66.73
833.728	115.88
833.905	124.07
834.082	25.77
834.259	134.31
834.436	64.68
834.612	33.96
834.789	130.22
834.966	83.11
835.143	87.21
835.319	95.4
835.496	107.69
835.673	119.98
835.85	85.16
836.026	38.06
836.203	175.27
836.38	60.59
836.556	11.43
836.733	42.15
836.909	74.92
837.086	11.43
837.262	52.39
837.439	68.78
837.616	21.67
837.792	68.78
837.968	91.31
838.145	-23.38
838.321	66.73
838.498	-13.14
838.674	89.26
838.851	54.44
839.027	93.35
839.203	-2.9
839.38	27.82
839.556	60.59
839.732	83.11
839.909	48.3
840.085	93.35
840.261	46.25
840.437	97.45
840.614	44.2
840.79	117.93
840.966	70.83
841.142	136.36
841.318	83.11
841.494	62.63
841.671	68.78
841.847	66.73
842.023	109.74
842.199	58.54
842.375	27.82
842.551	46.25
842.727	40.11
842.903	156.84
843.079	46.25
843.255	25.77
843.431	7.34
843.607	36.01
843.783	91.31
843.959	111.78
844.134	50.35
844.31	126.12
844.486	-37.72
844.662	46.25
844.838	27.82
845.013	109.74
845.189	76.97
845.365	87.21
845.541	29.87
845.716	46.25
845.892	107.69
846.068	56.49
846.244	70.83
846.419	38.06
846.595	-56.15
846.77	15.53
846.946	50.35
847.122	85.16
847.297	76.97
847.473	144.55
847.648	107.69
847.824	70.83
847.999	70.83
848.175	36.01
848.35	140.46
848.526	119.98
848.701	76.97
848.876	21.67
849.052	15.53
849.227	72.87
849.403	40.11
849.578	27.82
849.753	83.11
849.929	13.48
850.104	36.01
850.279	72.87
850.454	68.78
850.63	76.97
850.805	76.97
850.98	95.4
851.155	7.34
851.33	48.3
851.505	50.35
851.681	74.92
851.856	11.43
852.031	-2.9
852.206	31.91
852.381	38.06
852.556	111.78
852.731	29.87
852.906	91.31
853.081	31.91
853.256	91.31
853.431	44.2
853.606	122.02
853.781	3.24
853.956	50.35
854.131	134.31
854.305	3.24
854.48	52.39
854.655	3.24
854.83	60.59
855.005	9.39
855.18	7.34
855.354	60.59
855.529	-31.57
855.704	68.78
855.879	52.39
856.053	-4.95
856.228	38.06
856.403	19.63
856.577	23.72
856.752	-41.81
856.926	111.78
857.101	68.78
857.276	-11.09
857.45	21.67
857.625	36.01
857.799	1.19
857.974	56.49
858.148	-23.38
858.323	9.39
858.497	46.25
858.672	48.3
858.846	42.15
859.02	-33.62
859.195	83.11
859.369	50.35
859.543	-17.24
859.718	38.06
859.892	36.01
860.066	-9.05
860.241	38.06
860.415	7.34
860.589	25.77
860.763	48.3
860.938	21.67
861.112	25.77
861.286	36.01
861.46	36.01
861.634	-2.9
861.808	95.4
861.982	81.07
862.157	7.34
862.331	38.06
862.505	-2.9
862.679	-17.24
862.853	56.49
863.027	-2.9
863.201	38.06
863.375	-4.95
863.549	5.29
863.722	29.87
863.896	21.67
864.07	11.43
864.244	-21.33
864.418	-2.9
864.592	48.3
864.766	-0.85
864.939	13.48
865.113	91.31
865.287	50.35
865.461	33.96
865.634	5.29
865.808	-0.85
865.982	31.91
866.156	44.2
866.329	17.58
866.503	38.06
866.676	50.35
866.85	101.55
867.024	13.48
867.197	64.68
867.371	56.49
867.544	7.34
867.718	52.39
867.891	40.11
868.065	-23.38
868.238	74.92
868.412	36.01
868.585	38.06
868.759	19.63
868.932	56.49
869.105	-33.62
869.279	72.87
869.452	27.82
869.625	-7
869.799	3.24
869.972	25.77
870.145	29.87
870.319	40.11
870.492	46.25
870.665	-74.58
870.838	19.63
871.011	-29.52
871.185	83.11
871.358	40.11
871.531	23.72
871.704	-9.05
871.877	21.67
872.05	-13.14
872.223	91.31
872.396	17.58
872.569	3.24
872.742	36.01
872.915	81.07
873.088	-39.76
873.261	-27.48
873.434	56.49
873.607	19.63
873.78	27.82
873.953	40.11
874.126	-50
874.299	-45.91
874.471	27.82
874.644	-7
874.817	-11.09
874.99	68.78
875.163	31.91
875.335	31.91
875.508	-43.86
875.681	48.3
875.853	23.72
876.026	-7
876.199	23.72
876.371	13.48
876.544	-11.09
876.717	42.15
876.889	-23.38
877.062	-27.48
877.234	-33.62
877.407	21.67
877.579	23.72
877.752	-19.29
877.924	50.35
878.097	66.73
878.269	109.74
878.442	3.24
878.614	31.91
878.786	95.4
878.959	36.01
879.131	-17.24
879.303	48.3
879.476	21.67
879.648	79.02
879.82	25.77
879.993	50.35
880.165	-25.43
880.337	-0.85
880.509	-33.62
880.681	-13.14
880.854	-25.43
881.026	11.43
881.198	83.11
881.37	83.11
881.542	48.3
881.714	-33.62
881.886	-88.92
882.058	-25.43
882.23	-45.91
882.402	52.39
882.574	64.68
882.746	-0.85
882.918	74.92
883.09	-19.29
883.262	9.39
883.434	27.82
883.606	23.72
883.778	29.87
883.95	70.83
884.122	19.63
884.293	21.67
884.465	-0.85
884.637	-25.43
884.809	38.06
884.98	52.39
885.152	27.82
885.324	-70.48
885.496	33.96
885.667	99.5
885.839	38.06
886.011	15.53
886.182	-4.95
886.354	21.67
886.525	50.35
886.697	5.29
886.869	-15.19
887.04	27.82
887.212	79.02
887.383	85.16
887.555	62.63
887.726	58.54
887.897	-11.09
888.069	-25.43
888.24	-64.34
888.412	-21.33
888.583	-19.29
888.754	-78.68
888.926	7.34
889.097	-27.48
889.268	-27.48
889.44	-19.29
889.611	58.54
889.782	-27.48
889.953	-21.33
890.125	9.39
890.296	-45.91
890.467	-29.52
890.638	52.39
890.809	85.16
890.98	-19.29
891.151	-31.57
891.323	76.97
891.494	3.24
891.665	21.67
891.836	-0.85
892.007	-19.29
892.178	68.78
892.349	-29.52
892.52	31.91
892.691	-17.24
892.862	27.82
893.032	-23.38
893.203	17.58
893.374	-23.38
893.545	-7
893.716	-52.05
893.887	-45.91
894.057	-60.24
894.228	23.72
894.399	-31.57
894.57	27.82
894.74	36.01
894.911	-39.76
895.082	17.58
895.253	13.48
895.423	1.19
895.594	36.01
895.764	-52.05
895.935	-37.72
896.106	-0.85
896.276	7.34
896.447	-11.09
896.617	-7
896.788	25.77
896.958	-29.52
897.129	7.34
897.299	29.87
897.47	-27.48
897.64	31.91
897.81	11.43
897.981	105.64
898.151	-15.19
898.322	21.67
898.492	23.72
898.662	-7
898.832	40.11
899.003	25.77
899.173	-17.24
899.343	-11.09
899.513	-33.62
