Data from USB4F104151__97__11-45-47-745.txt Node

Date: Fri Mar 14 11:45:47 EDT 2025
User: louis
Spectrometer: USB4F10415
Trigger mode: 4
Integration Time (sec): 2.000000E-2
Scans to average: 1
Electric dark correction enabled: true
Nonlinearity correction enabled: false
Boxcar width: 0
XAxis mode: Wavelengths
Number of Pixels in Spectrum: 3648
>>>>>Begin Spectral Data<<<<<
178.204	-44.71
178.424	-44.71
178.644	-44.71
178.864	-54.95
179.084	-104.11
179.304	-28.33
179.524	-38.57
179.744	-48.81
179.964	2.39
180.184	-11.95
180.404	20.82
180.624	57.68
180.844	33.11
181.064	-20.14
181.283	20.82
181.503	-26.28
181.723	39.25
181.943	2.39
182.163	67.92
182.383	-16.04
182.602	-52.91
182.822	-7.85
183.042	53.59
183.262	49.49
183.482	-1.71
183.701	53.59
183.921	-7.85
184.141	0.34
184.361	37.2
184.58	-59.05
184.8	82.26
185.02	65.88
185.239	16.73
185.459	16.73
185.679	22.87
185.898	-26.28
186.118	61.78
186.338	12.63
186.557	61.78
186.777	-34.47
186.997	16.73
187.216	76.12
187.436	29.01
187.655	16.73
187.875	61.78
188.095	-26.28
188.314	137.56
188.534	51.54
188.753	-22.19
188.973	18.77
189.192	90.45
189.412	2.39
189.631	-3.75
189.851	22.87
190.07	55.64
190.29	-77.48
190.509	2.39
190.729	67.92
190.948	57.68
191.168	88.4
191.387	69.97
191.607	-24.23
191.826	63.83
192.045	-9.9
192.265	24.92
192.484	-48.81
192.704	-3.75
192.923	41.3
193.142	72.02
193.362	22.87
193.581	59.73
193.8	33.11
194.02	35.16
194.239	-7.85
194.458	78.16
194.678	26.96
194.897	-38.57
195.116	-9.9
195.335	-16.04
195.555	16.73
195.774	2.39
195.993	55.64
196.212	-3.75
196.432	6.49
196.651	31.06
196.87	37.2
197.089	39.25
197.308	29.01
197.528	10.58
197.747	-48.81
197.966	49.49
198.185	125.27
198.404	-5.8
198.623	8.53
198.842	4.44
199.062	55.64
199.281	45.4
199.5	20.82
199.719	69.97
199.938	82.26
200.157	129.36
200.376	47.44
200.595	-24.23
200.814	6.49
201.033	6.49
201.252	29.01
201.471	29.01
201.69	43.35
201.909	-7.85
202.128	12.63
202.347	80.21
202.566	-18.09
202.785	26.96
203.004	76.12
203.223	51.54
203.442	65.88
203.661	-11.95
203.879	41.3
204.098	49.49
204.317	-13.99
204.536	61.78
204.755	-16.04
204.974	33.11
205.193	45.4
205.411	43.35
205.63	4.44
205.849	24.92
206.068	14.68
206.287	33.11
206.505	6.49
206.724	-48.81
206.943	-44.71
207.162	31.06
207.381	4.44
207.599	29.01
207.818	10.58
208.037	-13.99
208.255	22.87
208.474	-9.9
208.693	-24.23
208.911	-42.67
209.13	-13.99
209.349	-30.38
209.567	43.35
209.786	104.79
210.005	-50.86
210.223	41.3
210.442	37.2
210.661	6.49
210.879	-38.57
211.098	98.64
211.316	-20.14
211.535	0.34
211.753	-7.85
211.972	12.63
212.191	53.59
212.409	49.49
212.628	-34.47
212.846	35.16
213.065	92.5
213.283	57.68
213.502	63.83
213.72	10.58
213.938	67.92
214.157	-61.1
214.375	67.92
214.594	14.68
214.812	41.3
215.031	-7.85
215.249	-28.33
215.467	65.88
215.686	-5.8
215.904	22.87
216.122	43.35
216.341	26.96
216.559	37.2
216.778	67.92
216.996	41.3
217.214	-26.28
217.432	12.63
217.651	12.63
217.869	24.92
218.087	10.58
218.306	90.45
218.524	-24.23
218.742	26.96
218.96	20.82
219.179	33.11
219.397	49.49
219.615	12.63
219.833	12.63
220.051	-7.85
220.27	14.68
220.488	41.3
220.706	-34.47
220.924	-24.23
221.142	18.77
221.36	-16.04
221.578	6.49
221.796	-52.91
222.015	35.16
222.233	-18.09
222.451	39.25
222.669	-13.99
222.887	-1.71
223.105	72.02
223.323	43.35
223.541	55.64
223.759	14.68
223.977	33.11
224.195	72.02
224.413	-5.8
224.631	-30.38
224.849	31.06
225.067	-26.28
225.285	-38.57
225.503	98.64
225.721	8.53
225.939	82.26
226.157	51.54
226.375	65.88
226.592	24.92
226.81	29.01
227.028	47.44
227.246	76.12
227.464	-57
227.682	18.77
227.9	29.01
228.117	59.73
228.335	-57
228.553	-3.75
228.771	8.53
228.989	92.5
229.206	-18.09
229.424	-3.75
229.642	-3.75
229.86	6.49
230.077	88.4
230.295	41.3
230.513	43.35
230.731	57.68
230.948	-3.75
231.166	102.74
231.384	-5.8
231.601	6.49
231.819	121.17
232.037	-16.04
232.254	22.87
232.472	31.06
232.689	22.87
232.907	10.58
233.125	2.39
233.342	41.3
233.56	10.58
233.777	6.49
233.995	-36.52
234.213	45.4
234.43	74.07
234.648	-24.23
234.865	-36.52
235.083	16.73
235.3	-57
235.518	-3.75
235.735	43.35
235.953	35.16
236.17	57.68
236.388	-20.14
236.605	-9.9
236.822	100.69
237.04	16.73
237.257	-7.85
237.475	10.58
237.692	-28.33
237.909	82.26
238.127	22.87
238.344	37.2
238.562	31.06
238.779	-40.62
238.996	4.44
239.214	8.53
239.431	76.12
239.648	4.44
239.865	39.25
240.083	31.06
240.3	37.2
240.517	4.44
240.735	59.73
240.952	57.68
241.169	59.73
241.386	72.02
241.603	31.06
241.821	-26.28
242.038	33.11
242.255	-36.52
242.472	-40.62
242.689	69.97
242.907	88.4
243.124	37.2
243.341	59.73
243.558	-16.04
243.775	65.88
243.992	16.73
244.209	29.01
244.426	90.45
244.643	45.4
244.86	-81.58
245.078	67.92
245.295	47.44
245.512	29.01
245.729	39.25
245.946	4.44
246.163	33.11
246.38	20.82
246.597	24.92
246.814	61.78
247.031	-38.57
247.248	24.92
247.464	33.11
247.681	14.68
247.898	-16.04
248.115	82.26
248.332	14.68
248.549	59.73
248.766	76.12
248.983	47.44
249.2	10.58
249.417	74.07
249.633	33.11
249.85	29.01
250.067	31.06
250.284	63.83
250.501	-30.38
250.717	65.88
250.934	-38.57
251.151	2.39
251.368	6.49
251.585	45.4
251.801	18.77
252.018	-20.14
252.235	8.53
252.451	-11.95
252.668	-18.09
252.885	-18.09
253.102	-24.23
253.318	59.73
253.535	45.4
253.752	49.49
253.968	14.68
254.185	92.5
254.401	-50.86
254.618	61.78
254.835	53.59
255.051	20.82
255.268	-67.24
255.484	43.35
255.701	0.34
255.917	57.68
256.134	14.68
256.351	45.4
256.567	24.92
256.784	-7.85
257	-3.75
257.217	35.16
257.433	16.73
257.65	47.44
257.866	74.07
258.082	29.01
258.299	94.55
258.515	29.01
258.732	-24.23
258.948	26.96
259.165	4.44
259.381	-16.04
259.597	-1.71
259.814	12.63
260.03	22.87
260.246	-3.75
260.463	55.64
260.679	-20.14
260.895	65.88
261.112	33.11
261.328	4.44
261.544	-20.14
261.761	45.4
261.977	-11.95
262.193	-7.85
262.409	-32.43
262.626	57.68
262.842	59.73
263.058	-1.71
263.274	59.73
263.49	16.73
263.707	72.02
263.923	16.73
264.139	20.82
264.355	18.77
264.571	63.83
264.787	41.3
265.004	8.53
265.22	-13.99
265.436	78.16
265.652	-13.99
265.868	61.78
266.084	41.3
266.3	-52.91
266.516	20.82
266.732	-28.33
266.948	4.44
267.164	-26.28
267.38	53.59
267.596	16.73
267.812	53.59
268.028	24.92
268.244	67.92
268.46	82.26
268.676	2.39
268.892	-54.95
269.108	10.58
269.324	16.73
269.54	-3.75
269.756	90.45
269.972	4.44
270.188	45.4
270.403	-57
270.619	90.45
270.835	12.63
271.051	-7.85
271.267	-83.63
271.483	45.4
271.698	-30.38
271.914	39.25
272.13	92.5
272.346	-3.75
272.562	-7.85
272.777	102.74
272.993	-36.52
273.209	31.06
273.425	18.77
273.64	-7.85
273.856	-1.71
274.072	-11.95
274.287	31.06
274.503	-22.19
274.719	45.4
274.934	2.39
275.15	-30.38
275.366	35.16
275.581	41.3
275.797	-16.04
276.012	-38.57
276.228	-5.8
276.444	45.4
276.659	31.06
276.875	22.87
277.09	-48.81
277.306	33.11
277.521	43.35
277.737	65.88
277.952	35.16
278.168	-22.19
278.383	61.78
278.599	20.82
278.814	33.11
279.03	74.07
279.245	35.16
279.461	51.54
279.676	45.4
279.892	41.3
280.107	-59.05
280.322	53.59
280.538	33.11
280.753	12.63
280.969	47.44
281.184	12.63
281.399	-7.85
281.615	-26.28
281.83	115.03
282.045	-40.62
282.26	26.96
282.476	53.59
282.691	-20.14
282.906	-52.91
283.122	-38.57
283.337	-32.43
283.552	69.97
283.767	-32.43
283.983	39.25
284.198	-7.85
284.413	39.25
284.628	47.44
284.843	10.58
285.058	63.83
285.274	33.11
285.489	53.59
285.704	2.39
285.919	-63.15
286.134	31.06
286.349	43.35
286.564	-20.14
286.779	22.87
286.995	24.92
287.21	-22.19
287.425	-5.8
287.64	-65.19
287.855	88.4
288.07	-7.85
288.285	55.64
288.5	43.35
288.715	8.53
288.93	12.63
289.145	47.44
289.36	14.68
289.575	-22.19
289.79	16.73
290.004	29.01
290.219	33.11
290.434	26.96
290.649	-44.71
290.864	14.68
291.079	33.11
291.294	49.49
291.509	-1.71
291.724	55.64
291.938	-22.19
292.153	-22.19
292.368	0.34
292.583	-26.28
292.798	55.64
293.012	72.02
293.227	72.02
293.442	16.73
293.657	39.25
293.871	31.06
294.086	18.77
294.301	76.12
294.516	43.35
294.73	57.68
294.945	51.54
295.16	-34.47
295.374	86.36
295.589	37.2
295.804	-34.47
296.018	-13.99
296.233	45.4
296.447	35.16
296.662	35.16
296.877	59.73
297.091	37.2
297.306	47.44
297.52	26.96
297.735	0.34
297.949	6.49
298.164	72.02
298.378	29.01
298.593	88.4
298.807	94.55
299.022	84.31
299.236	45.4
299.451	2.39
299.665	-1.71
299.88	6.49
300.094	37.2
300.309	-7.85
300.523	72.02
300.737	-42.67
300.952	4.44
301.166	-3.75
301.381	14.68
301.595	84.31
301.809	22.87
302.024	41.3
302.238	6.49
302.452	12.63
302.667	41.3
302.881	20.82
303.095	-50.86
303.309	6.49
303.524	-26.28
303.738	112.98
303.952	-9.9
304.166	43.35
304.381	-38.57
304.595	47.44
304.809	74.07
305.023	90.45
305.237	18.77
305.452	76.12
305.666	-26.28
305.88	29.01
306.094	-73.39
306.308	63.83
306.522	59.73
306.736	14.68
306.95	100.69
307.164	-5.8
307.379	-1.71
307.593	108.88
307.807	35.16
308.021	12.63
308.235	49.49
308.449	12.63
308.663	-28.33
308.877	123.22
309.091	-13.99
309.305	49.49
309.519	-20.14
309.733	61.78
309.947	43.35
310.161	82.26
310.374	2.39
310.588	61.78
310.802	57.68
311.016	-22.19
311.23	74.07
311.444	41.3
311.658	92.5
311.872	82.26
312.085	22.87
312.299	10.58
312.513	127.32
312.727	59.73
312.941	12.63
313.154	4.44
313.368	-18.09
313.582	6.49
313.796	-9.9
314.009	-28.33
314.223	76.12
314.437	86.36
314.651	-1.71
314.864	29.01
315.078	-7.85
315.292	6.49
315.505	84.31
315.719	53.59
315.933	47.44
316.146	12.63
316.36	-36.52
316.573	-18.09
316.787	16.73
317.001	16.73
317.214	12.63
317.428	22.87
317.641	16.73
317.855	-30.38
318.068	-1.71
318.282	53.59
318.495	84.31
318.709	57.68
318.922	-26.28
319.136	14.68
319.349	72.02
319.563	10.58
319.776	10.58
319.99	33.11
320.203	90.45
320.417	43.35
320.63	86.36
320.843	6.49
321.057	41.3
321.27	-13.99
321.483	74.07
321.697	61.78
321.91	-24.23
322.124	8.53
322.337	88.4
322.55	29.01
322.763	4.44
322.977	92.5
323.19	39.25
323.403	57.68
323.617	18.77
323.83	47.44
324.043	-20.14
324.256	51.54
324.469	-20.14
324.683	74.07
324.896	82.26
325.109	29.01
325.322	-16.04
325.535	0.34
325.748	33.11
325.962	18.77
326.175	39.25
326.388	16.73
326.601	-3.75
326.814	-1.71
327.027	39.25
327.24	8.53
327.453	-9.9
327.666	-3.75
327.879	53.59
328.092	16.73
328.305	47.44
328.518	78.16
328.731	2.39
328.944	100.69
329.157	72.02
329.37	31.06
329.583	-16.04
329.796	37.2
330.009	-16.04
330.222	49.49
330.435	63.83
330.648	-26.28
330.861	-3.75
331.073	35.16
331.286	65.88
331.499	74.07
331.712	-16.04
331.925	-20.14
332.138	45.4
332.35	-36.52
332.563	24.92
332.776	88.4
332.989	86.36
333.202	10.58
333.414	41.3
333.627	14.68
333.84	82.26
334.053	49.49
334.265	-16.04
334.478	-36.52
334.691	-1.71
334.903	-38.57
335.116	57.68
335.329	49.49
335.541	57.68
335.754	29.01
335.966	14.68
336.179	-20.14
336.392	55.64
336.604	-24.23
336.817	117.08
337.029	39.25
337.242	39.25
337.454	67.92
337.667	-5.8
337.88	80.21
338.092	26.96
338.305	-1.71
338.517	-9.9
338.729	10.58
338.942	-13.99
339.154	31.06
339.367	39.25
339.579	29.01
339.792	39.25
340.004	45.4
340.217	90.45
340.429	4.44
340.641	65.88
340.854	16.73
341.066	74.07
341.278	63.83
341.491	-24.23
341.703	72.02
341.915	-11.95
342.128	-16.04
342.34	43.35
342.552	78.16
342.764	43.35
342.977	49.49
343.189	6.49
343.401	67.92
343.613	-73.39
343.826	2.39
344.038	-5.8
344.25	-79.53
344.462	119.12
344.674	43.35
344.886	55.64
345.099	90.45
345.311	26.96
345.523	61.78
345.735	41.3
345.947	-24.23
346.159	-7.85
346.371	4.44
346.583	-32.43
346.795	67.92
347.007	-18.09
347.219	29.01
347.431	16.73
347.643	39.25
347.855	-22.19
348.067	57.68
348.279	8.53
348.491	67.92
348.703	10.58
348.915	53.59
349.127	-9.9
349.339	69.97
349.551	8.53
349.763	-18.09
349.975	82.26
350.187	33.11
350.399	-16.04
350.61	-16.04
350.822	-36.52
351.034	18.77
351.246	-24.23
351.458	55.64
351.669	-7.85
351.881	20.82
352.093	49.49
352.305	33.11
352.517	22.87
352.728	102.74
352.94	61.78
353.152	74.07
353.363	26.96
353.575	6.49
353.787	55.64
353.999	61.78
354.21	55.64
354.422	33.11
354.633	6.49
354.845	-34.47
355.057	82.26
355.268	-7.85
355.48	92.5
355.692	-9.9
355.903	8.53
356.115	-24.23
356.326	-40.62
356.538	45.4
356.749	49.49
356.961	55.64
357.172	-3.75
357.384	104.79
357.595	8.53
357.807	31.06
358.018	29.01
358.23	57.68
358.441	29.01
358.653	33.11
358.864	35.16
359.075	29.01
359.287	45.4
359.498	55.64
359.709	-3.75
359.921	51.54
360.132	88.4
360.344	65.88
360.555	37.2
360.766	8.53
360.977	65.88
361.189	49.49
361.4	8.53
361.611	45.4
361.823	61.78
362.034	78.16
362.245	26.96
362.456	37.2
362.667	78.16
362.879	92.5
363.09	53.59
363.301	86.36
363.512	8.53
363.723	-1.71
363.935	8.53
364.146	22.87
364.357	-50.86
364.568	100.69
364.779	-13.99
364.99	41.3
365.201	43.35
365.412	26.96
365.623	41.3
365.834	57.68
366.045	88.4
366.256	135.51
366.467	31.06
366.678	39.25
366.889	55.64
367.1	29.01
367.311	67.92
367.522	110.93
367.733	41.3
367.944	16.73
368.155	24.92
368.366	43.35
368.577	74.07
368.788	37.2
368.999	18.77
369.209	4.44
369.42	72.02
369.631	119.12
369.842	119.12
370.053	16.73
370.264	8.53
370.474	59.73
370.685	112.98
370.896	53.59
371.107	-1.71
371.317	26.96
371.528	76.12
371.739	74.07
371.95	92.5
372.16	55.64
372.371	84.31
372.582	14.68
372.792	24.92
373.003	12.63
373.214	16.73
373.424	12.63
373.635	-48.81
373.846	86.36
374.056	43.35
374.267	26.96
374.477	-1.71
374.688	43.35
374.898	84.31
375.109	37.2
375.319	41.3
375.53	-24.23
375.74	14.68
375.951	-61.1
376.161	74.07
376.372	45.4
376.582	12.63
376.793	20.82
377.003	29.01
377.214	61.78
377.424	88.4
377.635	84.31
377.845	74.07
378.055	102.74
378.266	88.4
378.476	86.36
378.686	33.11
378.897	-50.86
379.107	57.68
379.317	41.3
379.528	31.06
379.738	51.54
379.948	0.34
380.158	35.16
380.369	-7.85
380.579	45.4
380.789	33.11
380.999	100.69
381.21	-16.04
381.42	104.79
381.63	16.73
381.84	12.63
382.05	-9.9
382.261	26.96
382.471	33.11
382.681	-11.95
382.891	84.31
383.101	51.54
383.311	-38.57
383.521	22.87
383.731	108.88
383.941	61.78
384.151	-3.75
384.361	24.92
384.571	35.16
384.781	51.54
384.991	24.92
385.201	55.64
385.411	12.63
385.621	33.11
385.831	55.64
386.041	20.82
386.251	-26.28
386.461	4.44
386.671	31.06
386.881	47.44
387.091	108.88
387.301	104.79
387.511	98.64
387.72	35.16
387.93	-3.75
388.14	-3.75
388.35	61.78
388.56	55.64
388.769	94.55
388.979	55.64
389.189	78.16
389.399	53.59
389.609	102.74
389.818	39.25
390.028	4.44
390.238	57.68
390.447	-13.99
390.657	108.88
390.867	61.78
391.076	82.26
391.286	100.69
391.496	20.82
391.705	98.64
391.915	100.69
392.125	151.89
392.334	100.69
392.544	94.55
392.753	88.4
392.963	49.49
393.172	-7.85
393.382	26.96
393.591	57.68
393.801	2.39
394.01	63.83
394.22	47.44
394.429	33.11
394.639	47.44
394.848	59.73
395.058	47.44
395.267	86.36
395.477	102.74
395.686	125.27
395.895	41.3
396.105	149.84
396.314	18.77
396.524	119.12
396.733	86.36
396.942	98.64
397.152	74.07
397.361	72.02
397.57	123.22
397.78	37.2
397.989	55.64
398.198	176.47
398.407	65.88
398.617	82.26
398.826	47.44
399.035	-1.71
399.244	125.27
399.453	24.92
399.663	117.08
399.872	110.93
400.081	65.88
400.29	123.22
400.499	119.12
400.708	69.97
400.917	82.26
401.127	53.59
401.336	45.4
401.545	137.56
401.754	129.36
401.963	127.32
402.172	72.02
402.381	41.3
402.59	12.63
402.799	139.6
403.008	145.75
403.217	119.12
403.426	92.5
403.635	92.5
403.844	127.32
404.053	72.02
404.262	96.6
404.471	147.8
404.68	82.26
404.888	149.84
405.097	125.27
405.306	127.32
405.515	135.51
405.724	162.13
405.933	139.6
406.142	100.69
406.35	203.09
406.559	190.8
406.768	131.41
406.977	168.27
407.185	98.64
407.394	188.75
407.603	121.17
407.812	194.9
408.02	182.61
408.229	196.95
408.438	153.94
408.646	170.32
408.855	211.28
409.064	219.47
409.272	221.52
409.481	252.24
409.69	205.14
409.898	141.65
410.107	307.54
410.315	256.34
410.524	295.25
410.733	235.86
410.941	383.31
411.15	379.22
411.358	336.21
411.567	385.36
411.775	405.84
411.984	366.93
412.192	297.3
412.401	424.27
412.609	418.13
412.818	434.51
413.026	436.56
413.234	477.52
413.443	418.13
413.651	446.8
413.86	436.56
414.068	469.33
414.276	536.91
414.485	512.33
414.693	516.43
414.901	584.01
415.11	614.73
415.318	594.25
415.526	737.61
415.734	733.51
415.943	715.08
416.151	710.99
416.359	663.88
416.567	786.76
416.776	753.99
416.984	792.91
417.192	786.76
417.4	799.05
417.608	794.95
417.817	911.69
418.025	958.79
418.233	987.46
418.441	901.45
418.649	1030.47
418.857	1124.68
419.065	1018.18
419.273	1173.83
419.481	1218.88
419.689	1190.21
419.897	1292.61
420.105	1341.76
420.313	1294.66
420.521	1354.05
420.729	1362.24
420.937	1409.34
421.145	1593.66
421.353	1597.76
421.561	1630.52
421.769	1605.95
421.977	1800.51
422.185	1845.56
422.393	1833.27
422.601	1952.06
422.809	2027.83
423.017	1943.86
423.224	1945.91
423.432	2165.04
423.64	2160.95
423.848	2312.5
424.056	2308.4
424.263	2365.75
424.471	2416.94
424.679	2507.06
424.887	2566.45
425.094	2754.86
425.302	2705.71
425.51	2830.63
425.718	2873.64
425.925	2963.75
426.133	3021.1
426.341	3225.89
426.548	3311.91
426.756	3418.4
426.964	3344.67
427.171	3627.29
427.379	3625.25
427.586	3731.74
427.794	3739.93
428.001	4090.13
428.209	4321.56
428.417	4063.51
428.624	4454.67
428.832	4378.9
429.039	4311.32
429.247	4319.51
429.454	4960.52
429.662	5189.89
429.869	4796.68
430.076	5165.32
430.284	4991.24
430.491	5187.85
430.699	5445.89
430.906	5572.86
431.114	5683.45
431.321	5755.13
431.528	5869.82
431.736	6338.8
431.943	6619.38
432.15	6486.26
432.358	6435.06
432.565	6725.87
432.772	6781.17
432.979	6996.2
433.187	7246.05
433.394	7407.84
433.601	7876.83
433.808	7749.86
434.016	7938.27
434.223	8255.7
434.43	8653.01
434.637	8605.91
434.844	9044.17
435.052	9169.1
435.259	9210.06
435.466	9257.16
435.673	9095.37
435.88	9496.77
436.087	10246.33
436.294	10188.99
436.501	10086.59
436.708	10195.13
436.915	10547.38
437.122	11096.24
437.329	11118.76
437.537	11337.9
437.743	11720.87
437.95	11194.54
438.157	12073.12
438.364	12490.9
438.571	12374.17
438.778	12435.61
438.985	13682.82
439.192	12769.43
439.399	13453.45
439.606	13234.32
439.813	14076.03
440.02	14827.64
440.227	14692.47
440.433	14397.56
440.64	14966.9
440.847	14876.79
441.054	15046.77
441.261	16177.25
441.467	15833.19
441.674	16169.05
441.881	16660.57
442.088	16937.04
442.294	16779.35
442.501	17242.19
442.708	17422.41
442.914	18153.54
443.121	19089.46
443.328	18083.91
443.534	19920.93
443.741	18929.72
443.948	18640.95
444.154	20334.62
444.361	19945.51
444.568	20328.48
444.774	20174.88
444.981	20699.16
445.187	21094.42
445.394	21745.67
445.6	21792.78
445.807	23861.23
446.013	22618.11
446.22	23255.03
446.426	24113.13
446.633	24236
446.839	25106.39
447.046	24180.71
447.252	25364.43
447.459	25669.58
447.665	25544.66
447.871	26539.97
448.078	27633.58
448.284	26466.24
448.491	27027.38
448.697	27965.35
448.903	28632.99
449.11	28422.05
449.316	28174.25
449.522	28719.01
449.728	29503.38
449.935	29861.77
450.141	29589.39
450.347	30177.16
450.553	29560.72
450.76	29697.94
450.966	30562.18
451.172	30052.23
451.378	31182.71
451.584	30586.75
451.791	31180.67
451.997	31395.7
452.203	31795.06
452.409	31651.7
452.615	31582.07
452.821	29992.84
453.027	30252.94
453.233	31786.86
453.44	30560.13
453.646	30809.98
453.852	31059.84
454.058	31500.15
454.264	30680.96
454.47	30912.38
454.676	30267.27
454.882	31588.21
455.088	28751.77
455.294	29173.66
455.5	29429.65
455.705	29671.31
455.911	28948.38
456.117	27985.83
456.323	27910.06
456.529	26132.42
456.735	27529.14
456.941	26376.13
457.147	26054.6
457.352	25544.66
457.558	25124.82
457.764	25288.66
457.97	25020.38
458.176	24268.77
458.381	24160.23
458.587	23181.3
458.793	22759.42
458.999	21776.39
459.204	23678.96
459.41	22874.1
459.616	21280.78
459.821	21565.45
460.027	21342.22
460.233	20715.55
460.438	20158.5
460.644	20256.8
460.85	19154.99
461.055	18804.79
461.261	18720.82
461.466	17293.39
461.672	16625.75
461.878	18192.45
462.083	16803.92
462.289	16506.97
462.494	16343.13
462.7	15554.66
462.905	15112.3
463.111	15906.91
463.316	15810.66
463.522	15450.22
463.727	15464.55
463.932	15501.42
464.138	15396.97
464.343	15143.02
464.549	14688.37
464.754	15466.6
464.959	15048.82
465.165	15071.34
465.37	14329.98
465.575	14057.6
465.781	14813.3
465.986	14934.13
466.191	14114.94
466.397	13848.71
466.602	13408.39
466.807	14014.59
467.012	13721.73
467.218	13566.09
467.423	13633.67
467.628	13543.56
467.833	14383.23
468.038	13844.61
468.244	13330.57
468.449	13736.07
468.654	13318.28
468.859	13201.55
469.064	13080.72
469.269	12595.35
469.474	12902.54
469.679	13002.89
469.885	12636.31
470.09	12990.61
470.295	12890.26
470.5	12628.12
470.705	12644.5
470.91	12269.72
471.115	12109.98
471.32	12040.35
471.525	12218.52
471.73	11952.29
471.935	11817.12
472.139	11561.12
472.344	11516.07
472.549	11679.91
472.754	11444.39
472.959	11266.22
473.164	10942.64
473.369	10821.81
473.574	11358.38
473.778	10922.16
473.983	11063.47
474.188	10815.66
474.393	10477.75
474.598	10326.2
474.802	10471.61
475.007	10365.11
475.212	10283.19
475.417	9920.7
475.621	9988.28
475.826	9840.83
476.031	9826.5
476.235	9597.12
476.44	9808.06
476.645	9416.9
476.849	9785.54
477.054	9349.32
477.259	9265.35
477.463	9363.65
477.668	9093.32
477.872	9085.13
478.077	9021.64
478.282	8847.57
478.486	8868.05
478.691	8640.72
478.895	8724.69
479.1	8689.87
479.304	8704.21
479.509	8249.56
479.713	8556.75
479.918	8313.05
480.122	8138.97
480.326	8323.29
480.531	8218.84
480.735	8249.56
480.94	8083.67
481.144	8315.09
481.348	8173.78
481.553	8059.1
481.757	8005.85
481.961	7829.73
482.166	8018.14
482.37	8102.11
482.574	7803.1
482.778	7936.22
482.983	7907.55
483.187	8001.76
483.391	8059.1
483.595	7946.46
483.8	7837.92
484.004	7981.28
484.208	8118.49
484.412	7944.41
484.616	8026.33
484.821	7856.35
485.025	7731.42
485.229	8069.34
485.433	7792.86
485.637	7968.99
485.841	7885.02
486.045	7825.63
486.249	7946.46
486.453	7901.4
486.657	7930.08
486.861	7962.84
487.065	7885.02
487.269	7751.9
487.473	7661.79
487.677	7985.37
487.881	8016.09
488.085	7882.97
488.289	7981.28
488.493	8016.09
488.697	7942.36
488.901	7962.84
489.105	7971.04
489.309	8050.91
489.512	7901.4
489.716	8018.14
489.92	8048.86
490.124	7995.61
490.328	8241.37
490.531	8163.54
490.735	8138.97
490.939	8173.78
491.143	8239.32
491.346	8235.22
491.55	8376.53
491.754	8212.7
491.958	8222.94
492.161	8501.46
492.365	8292.57
492.569	8337.62
492.772	8405.21
492.976	8548.56
493.18	8483.03
493.383	8544.47
493.587	8726.74
493.79	8751.31
493.994	8667.35
494.197	8638.67
494.401	8911.05
494.605	8900.81
494.808	8757.46
495.012	8923.34
495.215	8753.36
495.419	8992.97
495.622	8947.92
495.825	9091.27
496.029	9160.91
496.232	9355.46
496.436	9334.98
496.639	9404.61
496.843	9418.95
497.046	9756.86
497.249	9760.96
497.453	9795.78
497.656	9887.93
497.859	9615.55
498.063	10049.72
498.266	10242.23
498.469	10305.72
498.673	10449.08
498.876	10279.1
499.079	10504.37
499.282	10662.07
499.485	10735.79
499.689	10842.29
499.892	10959.02
500.095	11251.88
500.298	11196.59
500.501	11174.06
500.705	11501.73
500.908	11425.96
501.111	11618.47
501.314	11876.51
501.517	12044.45
501.72	12132.51
501.923	12011.68
502.126	12421.27
502.329	12628.12
502.532	12531.86
502.735	12642.45
502.938	12818.58
503.141	13031.57
503.344	13035.66
503.547	13176.97
503.75	13299.85
503.953	13760.64
504.156	13703.3
504.359	13680.77
504.562	13942.91
504.765	14184.57
504.968	14368.89
505.17	14706.8
505.373	14366.84
505.576	14686.33
505.779	14893.17
505.982	15022.19
506.185	15257.71
506.387	15603.82
506.59	15585.38
506.793	15501.42
506.996	15663.21
507.198	16115.81
507.401	15962.21
507.604	16234.59
507.807	16769.11
508.009	16642.14
508.212	16666.71
508.415	16734.29
508.617	17256.53
508.82	17160.27
509.022	17463.37
509.225	17686.6
509.428	17819.72
509.63	18065.47
509.833	18069.57
510.035	18782.26
510.238	18483.26
510.44	18647.1
510.643	18958.39
510.845	18722.87
511.048	18872.37
511.25	19544.11
511.453	19396.65
511.655	19890.21
511.858	19945.51
512.06	20039.72
512.262	20219.94
512.465	20373.53
512.667	20652.06
512.87	20574.24
513.072	21045.27
513.274	21514.25
513.477	21522.44
513.679	21721.1
513.881	22040.58
514.084	21895.18
514.286	21774.35
514.488	22487.04
514.69	22806.52
514.893	23175.16
515.095	22913.02
515.297	23267.31
515.499	23453.68
515.701	23855.08
515.904	24051.69
516.106	24231.91
516.308	24637.41
516.51	24852.44
516.712	24430.56
516.914	25032.66
517.116	25190.36
517.318	25356.24
517.52	25685.97
517.722	25751.5
517.925	26017.74
518.127	26689.47
518.329	26445.76
518.531	26443.71
518.733	26967.99
518.935	27357.11
519.136	27250.61
519.338	27494.32
519.54	27854.76
519.742	28202.92
519.944	28229.54
520.146	28759.97
520.348	28581.79
520.55	28784.54
520.752	29106.07
520.954	29517.71
521.155	29167.51
521.357	29736.85
521.559	30367.62
521.761	30541.7
521.963	30431.11
522.164	30738.3
522.366	30615.43
522.568	31332.22
522.77	31082.36
522.971	32110.44
523.173	31735.67
523.375	31688.56
523.576	31686.51
523.778	32171.88
523.98	32540.52
524.181	32628.58
524.383	32452.45
524.584	33236.83
524.786	32984.93
524.988	33001.31
525.189	33664.85
525.391	33496.92
525.592	34033.49
525.794	34252.62
525.995	34400.07
526.197	34236.23
526.398	34148.17
526.6	34555.72
526.801	34737.99
527.003	34649.92
527.204	35194.68
527.406	35239.74
527.607	35104.57
527.808	35897.14
528.01	35106.62
528.211	35555.13
528.412	36087.6
528.614	36161.33
528.815	36036.4
529.016	36558.63
529.218	36103.98
529.419	36386.6
529.62	36437.8
529.822	36261.68
530.023	36472.62
530.224	36460.33
530.425	36904.74
530.626	36171.57
530.828	36392.75
531.029	37216.03
531.23	36683.56
531.431	36630.31
531.632	37134.11
531.833	37437.21
532.035	37271.32
532.236	37197.6
532.437	37361.44
532.638	37269.28
532.839	37750.55
533.04	37429.02
533.241	36957.99
533.442	37842.71
533.643	37498.65
533.844	37490.46
534.045	37922.58
534.246	37308.19
534.447	37834.52
534.648	37543.7
534.849	37998.35
535.05	37678.87
535.251	37623.58
535.451	37619.48
535.652	37775.12
535.853	37685.01
536.054	37695.25
536.255	38194.96
536.456	37443.35
536.657	37836.56
536.857	37900.05
537.058	37670.68
537.259	37963.54
537.46	37930.77
537.66	37377.82
537.861	37996.31
538.062	38141.71
538.263	37900.05
538.463	37912.34
538.664	37787.41
538.865	37592.86
539.065	38078.22
539.266	37728.02
539.466	38233.87
539.667	37492.51
539.868	38176.53
540.068	37863.19
540.269	37613.34
540.469	37877.52
540.67	37791.51
540.87	37885.72
541.071	37697.3
541.271	38090.51
541.472	37916.43
541.672	37396.25
541.873	37721.88
542.073	37529.37
542.274	37889.81
542.474	37805.84
542.675	37521.18
542.875	38291.21
543.075	37621.53
543.276	37297.95
543.476	38102.8
543.676	37605.14
543.877	37957.39
544.077	37791.51
544.277	37555.99
544.478	37644.05
544.678	37922.58
544.878	37492.51
545.078	37594.9
545.279	37490.46
545.479	37646.1
545.679	37631.77
545.879	37621.53
546.079	37414.68
546.28	37375.77
546.48	37234.46
546.68	37732.12
546.88	37682.97
547.08	37107.49
547.28	37603.1
547.48	37123.87
547.68	37340.96
547.88	37044
548.081	37644.05
548.281	37732.12
548.481	37318.43
548.681	37713.69
548.881	37343
549.081	37664.53
549.28	37498.65
549.48	37336.86
549.68	37398.3
549.88	37588.76
550.08	37320.48
550.28	37549.85
550.48	37037.86
550.68	37547.8
550.88	37287.71
551.08	37396.25
551.279	37719.83
551.479	37003.04
551.679	37631.77
551.879	37302.04
552.079	37586.71
552.278	36874.02
552.478	37160.73
552.678	37510.94
552.878	37545.75
553.077	36976.42
553.277	36960.03
553.477	37398.3
553.676	37013.28
553.876	37197.6
554.076	37037.86
554.275	36933.41
554.475	36595.49
554.674	36914.98
554.874	36728.61
555.074	36822.82
555.273	36611.88
555.473	37209.89
555.672	36681.51
555.872	36855.59
556.071	37148.45
556.271	36759.33
556.47	36544.3
556.67	36525.86
556.869	36286.25
557.068	36575.02
557.268	36329.26
557.467	36720.42
557.667	36378.41
557.866	36636.45
558.065	36415.27
558.265	36126.51
558.464	36009.78
558.663	36237.1
558.863	36368.17
559.062	36220.72
559.261	36163.37
559.461	36261.68
559.66	35866.42
559.859	35936.05
560.058	35602.23
560.258	36126.51
560.457	35514.17
560.656	36048.69
560.855	35452.73
561.054	35606.33
561.253	35725.11
561.453	35295.03
561.652	35673.91
561.851	35831.6
562.05	35583.8
562.249	35159.87
562.448	35112.77
562.647	35417.91
562.846	34750.28
563.045	34979.65
563.244	34672.45
563.443	35116.86
563.642	34285.39
563.841	34453.32
564.04	34453.32
564.239	34600.77
564.438	34031.44
564.637	34277.19
564.836	34584.39
565.035	34101.07
565.234	34355.02
565.432	34271.05
565.631	34105.16
565.83	33879.89
566.029	33773.39
566.228	33638.23
566.427	33765.2
566.625	33546.07
566.824	33277.79
567.023	33931.09
567.222	33167.2
567.42	33423.19
567.619	33191.77
567.818	33314.65
568.016	33142.62
568.215	33402.71
568.414	32687.97
568.612	33038.17
568.811	32730.98
569.01	32638.82
569.208	32513.89
569.407	32726.88
569.605	32120.68
569.804	32386.92
570.002	32051.05
570.201	32538.47
570.4	32065.39
570.598	32036.72
570.797	31770.48
570.995	31522.68
571.193	31281.02
571.392	31647.6
571.59	31788.91
571.789	31694.71
571.987	31502.2
572.186	31180.67
572.384	31135.61
572.582	31262.58
572.781	31528.82
572.979	30873.47
573.177	30640
573.376	30834.56
573.574	30994.3
573.772	30906.24
573.971	30707.58
574.169	30482.31
574.367	30082.95
574.565	30234.5
574.763	30375.81
574.962	30257.03
575.16	30015.37
575.358	30310.28
575.556	29443.99
575.754	30267.27
575.952	29925.26
576.151	29865.87
576.349	29556.63
576.547	29380.5
576.745	29693.84
576.943	29452.18
577.141	29243.29
577.339	29446.04
577.537	29239.19
577.735	29257.62
577.933	29310.87
578.131	29054.87
578.329	29144.98
578.527	28733.34
578.725	28743.58
578.923	28780.45
579.121	28479.39
579.319	28508.07
579.516	28569.51
579.714	28782.49
579.912	28319.65
580.11	28202.92
580.308	28307.37
580.506	28188.58
580.704	27551.66
580.901	27885.48
581.099	28280.74
581.297	27908.01
581.495	27760.56
581.692	27590.58
581.89	27371.44
582.088	27670.45
582.285	27416.5
582.483	27484.08
582.681	27549.62
582.878	27303.86
583.076	26978.23
583.274	27262.9
583.471	26908.6
583.669	26824.64
583.866	26679.23
584.064	27097.02
584.262	26820.54
584.459	26777.53
584.657	26496.96
584.854	26513.34
585.052	26290.12
585.249	26470.34
585.447	26490.82
585.644	26015.69
585.841	26202.05
586.039	26232.77
586.236	25808.84
586.434	25759.69
586.631	25937.87
586.828	25735.12
587.026	25833.42
587.223	25470.93
587.42	25415.63
587.618	25485.26
587.815	25427.92
588.012	25262.04
588.21	25223.12
588.407	25337.81
588.604	24987.61
588.801	24956.89
588.999	25053.14
589.196	24905.69
589.393	24799.19
589.59	24874.97
589.787	24766.43
589.984	24448.99
590.182	24180.71
590.379	24723.42
590.576	24383.46
590.773	24465.38
590.97	23951.34
591.167	24252.39
591.364	23977.96
591.561	24272.87
591.758	23887.85
591.955	23820.27
592.152	24137.7
592.349	23572.46
592.546	24039.4
592.743	23678.96
592.94	23468.02
593.137	23617.52
593.334	23654.38
593.531	23068.66
593.727	23248.88
593.924	23394.29
594.121	22990.84
594.318	23519.21
594.515	23150.58
594.712	23158.77
594.908	22941.69
595.105	23336.95
595.302	22820.86
595.499	23189.49
595.696	22650.88
595.892	22413.31
596.089	22616.06
596.286	22626.3
596.482	22421.5
596.679	22200.32
596.876	22441.98
597.072	22214.66
597.269	22247.43
597.466	22278.15
597.662	21993.48
597.859	21997.57
598.055	21950.47
598.252	21936.13
598.448	21684.23
598.645	21864.46
598.841	21780.49
599.038	21526.54
599.234	21555.21
599.431	21200.91
599.627	21393.42
599.824	21532.68
600.02	21094.42
600.217	21254.16
600.413	21288.98
600.609	21108.76
600.806	20996.12
601.002	21258.26
601.198	20865.05
601.395	20860.95
601.591	20664.35
601.787	20574.24
601.984	20654.11
602.18	20801.56
602.376	20457.5
602.572	20688.92
602.769	20080.67
602.965	20246.56
603.161	20584.48
603.357	20439.07
603.553	20105.25
603.75	20410.4
603.946	20127.78
604.142	20135.97
604.338	19845.16
604.534	20121.63
604.73	19771.43
604.926	19632.17
605.122	19750.95
605.318	19408.94
605.514	19550.25
605.71	19703.85
605.906	19474.48
606.102	19333.17
606.298	19257.39
606.494	19394.61
606.69	19220.53
606.886	19103.79
607.082	19163.18
607.278	19259.44
607.474	18722.87
607.67	19251.25
607.866	18774.07
608.062	19025.97
608.257	18878.52
608.453	19195.95
608.649	19165.23
608.845	18847.8
609.041	18733.11
609.236	18753.59
609.432	18561.08
609.628	18837.56
609.824	18403.39
610.019	18665.53
610.215	18552.89
610.411	18513.98
610.606	18294.85
610.802	18165.82
610.998	18157.63
611.193	18493.5
611.389	18450.49
611.584	18108.48
611.78	17997.89
611.976	18321.47
612.171	18239.55
612.367	18010.18
612.562	18081.86
612.758	17745.99
612.953	17717.32
613.149	18022.47
613.344	17762.37
613.539	18057.28
613.735	17799.24
613.93	17924.16
614.126	17602.63
614.321	17690.7
614.517	17819.72
614.712	17754.18
614.907	17698.89
615.103	17569.87
615.298	17289.29
615.493	17778.76
615.688	17279.05
615.884	17760.33
616.079	17498.19
616.274	17406.03
616.47	17469.51
616.665	17307.73
616.86	17412.17
617.055	17123.41
617.25	17049.68
617.445	17528.91
617.641	17053.78
617.836	17317.97
618.031	17029.2
618.226	17008.72
618.421	16711.77
618.616	16857.17
618.811	16826.45
619.006	16756.82
619.201	16601.18
619.396	16760.92
619.591	16142.43
619.786	16570.46
619.981	16085.09
620.176	16570.46
620.371	16070.75
620.566	16412.76
620.761	16148.57
620.956	16230.49
621.151	16130.14
621.346	16095.33
621.541	15915.11
621.735	16080.99
621.93	15745.13
622.125	15728.74
622.32	15435.88
622.515	15800.42
622.709	15468.65
622.904	15423.59
623.099	15360.11
623.294	15399.02
623.488	15065.2
623.683	15267.95
623.878	15018.1
624.072	15057.01
624.267	15034.48
624.462	14977.14
624.656	14768.24
624.851	14430.33
625.046	14633.08
625.24	14459
625.435	14395.51
625.629	14540.92
625.824	14309.5
626.018	14108.8
626.213	13934.72
626.407	13996.16
626.602	13912.19
626.796	13869.19
626.991	13828.23
627.185	13789.31
627.38	13455.5
627.574	13533.32
627.768	13369.48
627.963	13428.87
628.157	13318.28
628.352	13217.93
628.546	13146.25
628.74	13351.05
628.935	13152.4
629.129	12896.4
629.323	12935.31
629.517	13019.28
629.712	12671.12
629.906	12746.9
630.1	12591.25
630.294	12400.79
630.489	12564.63
630.683	12658.84
630.877	12329.11
631.071	12204.19
631.265	12163.23
631.459	12163.23
631.653	12165.28
631.848	12013.73
632.042	11991.2
632.236	12001.44
632.43	11737.25
632.624	11800.74
632.818	11684
633.012	11851.94
633.206	11620.52
633.4	11780.26
633.594	11497.64
633.788	11499.69
633.982	11489.45
634.176	11329.7
634.369	11341.99
634.563	11198.63
634.757	11069.61
634.951	11423.91
635.145	11174.06
635.339	11151.53
635.533	11051.18
635.726	10842.29
635.92	10754.23
636.114	10715.31
636.308	10684.59
636.501	10533.04
636.695	10508.47
636.889	10563.76
637.083	10502.33
637.276	10311.86
637.47	10416.31
637.664	10266.81
637.857	10471.61
638.051	10299.58
638.244	10021.05
638.438	10125.5
638.632	10205.37
638.825	10191.03
639.019	9926.85
639.212	9777.34
639.406	9840.83
639.599	9754.82
639.793	9738.43
639.986	9701.57
640.18	9502.92
640.373	9570.5
640.567	9582.79
640.76	9441.48
640.954	9130.19
641.147	9402.57
641.34	9353.41
641.534	9091.27
641.727	9279.69
641.92	9165
642.114	9132.23
642.307	9048.27
642.5	9099.47
642.694	8843.47
642.887	8937.68
643.08	9128.14
643.273	8822.99
643.467	8794.32
643.66	8722.64
643.853	8732.88
644.046	8634.58
644.239	8628.43
644.432	8497.36
644.626	8403.16
644.819	8497.36
645.012	8542.42
645.205	8620.24
645.398	8474.84
645.591	8558.8
645.784	8210.65
645.977	8265.94
646.17	8233.18
646.363	8106.2
646.556	7942.36
646.749	7938.27
646.942	8136.92
647.135	8042.71
647.328	7950.56
647.521	7794.91
647.714	7731.42
647.907	7913.69
648.099	7776.48
648.292	7661.79
648.485	7635.17
648.678	7491.81
648.871	7497.95
649.064	7465.19
649.256	7690.46
649.449	7471.33
649.642	7493.86
649.835	7575.78
650.027	7426.28
650.22	7413.99
650.413	7264.49
650.605	7373.03
650.798	7428.32
650.991	7260.39
651.183	7358.69
651.376	7063.79
651.568	7315.69
651.761	7205.1
651.954	7043.31
652.146	6904.04
652.339	6914.28
652.531	6830.32
652.724	6836.46
652.916	6637.81
653.109	6754.54
653.301	6779.12
653.494	6879.47
653.686	6629.62
653.879	6801.65
654.071	6650.1
654.263	6359.28
654.456	6467.83
654.648	6594.8
654.84	6504.69
655.033	6404.34
655.225	6492.4
655.417	6433.01
655.61	6461.68
655.802	6236.41
655.994	6355.19
656.186	6265.08
656.379	6181.11
656.571	6279.41
656.763	6134.01
656.955	6217.97
657.148	6183.16
657.34	6115.58
657.532	5959.93
657.724	5998.84
657.916	5812.48
658.108	5961.98
658.3	5763.33
658.492	6060.28
658.684	5896.44
658.876	5826.81
659.068	5857.53
659.26	5761.28
659.452	5828.86
659.644	5734.65
659.836	5583.1
660.028	5634.3
660.22	5601.54
660.412	5628.16
660.604	5626.11
660.796	5462.27
660.988	5646.59
661.18	5599.49
661.372	5447.94
661.563	5536
661.755	5253.38
661.947	5370.12
662.139	5368.07
662.331	5394.69
662.522	5447.94
662.714	5380.36
662.906	5134.6
663.097	5261.57
663.289	5026.06
663.481	5265.67
663.673	5079.3
663.864	5099.78
664.056	5124.36
664.247	4981
664.439	4856.08
664.631	5169.41
664.822	5167.37
665.014	5056.78
665.205	4888.84
665.397	4927.75
665.588	4956.43
665.78	4862.22
665.971	4935.95
666.163	4919.56
666.354	4671.76
666.546	4798.73
666.737	4776.2
666.929	4743.44
667.12	4708.62
667.311	4765.96
667.503	4686.09
667.694	4743.44
667.885	4651.28
668.077	4679.95
668.268	4614.41
668.459	4704.53
668.651	4514.06
668.842	4522.26
669.033	4567.31
669.224	4487.44
669.416	4481.3
669.607	4458.77
669.798	4415.76
669.989	4520.21
670.18	4432.15
670.371	4321.56
670.563	4475.15
670.754	4432.15
670.945	4407.57
671.136	4411.67
671.327	4350.23
671.518	4301.08
671.709	4225.3
671.9	4272.4
672.091	4307.22
672.282	4233.49
672.473	4223.25
672.664	4239.64
672.855	4124.95
673.046	4188.44
673.237	4268.31
673.428	4137.24
673.619	4235.54
673.809	3975.45
674	4182.29
674.191	4049.18
674.382	4038.94
674.573	3948.83
674.764	3961.11
674.954	4016.41
675.145	4100.37
675.336	4083.99
675.527	4000.02
675.717	3922.2
675.908	3809.56
676.099	3946.78
676.289	3920.15
676.48	3842.33
676.671	3938.59
676.861	3914.01
677.052	3774.75
677.243	3959.06
677.433	3893.53
677.624	3981.59
677.814	3811.61
678.005	3903.77
678.195	3825.95
678.386	3889.43
678.576	3811.61
678.767	3756.32
678.957	3690.78
679.148	3854.62
679.338	3928.35
679.529	3602.72
679.719	3852.57
679.909	3719.45
680.1	3770.65
680.29	3805.47
680.481	3760.41
680.671	3664.16
680.861	3629.34
681.052	3703.07
681.242	3563.81
681.432	3905.82
681.622	3647.77
681.813	3739.93
682.003	3537.18
682.193	3596.57
682.383	3592.48
682.573	3692.83
682.764	3580.19
682.954	3666.21
683.144	3641.63
683.334	3709.21
683.524	3541.28
683.714	3596.57
683.904	3504.42
684.094	3535.14
684.284	3602.72
684.474	3602.72
684.664	3567.9
684.854	3514.66
685.044	3416.35
685.234	3467.55
685.424	3565.85
685.614	3426.59
685.804	3488.03
685.994	3483.94
686.184	3369.25
686.374	3526.94
686.564	3342.63
686.753	3471.65
686.943	3463.46
687.133	3457.31
687.323	3266.85
687.513	3457.31
687.702	3393.83
687.892	3340.58
688.082	3285.28
688.272	3399.97
688.461	3365.15
688.651	3496.22
688.841	3428.64
689.03	3311.91
689.22	3342.63
689.41	3105.06
689.599	3340.58
689.789	3203.36
689.979	3211.56
690.168	3154.21
690.358	3262.76
690.547	3080.49
690.737	3074.34
690.926	3236.13
691.116	3076.39
691.305	3004.71
691.495	3160.36
691.684	3105.06
691.874	3092.77
692.063	3014.95
692.252	3076.39
692.442	2941.22
692.631	2998.57
692.82	2924.84
693.01	3017
693.199	2961.7
693.388	2916.65
693.578	2914.6
693.767	2992.42
693.956	2881.83
694.146	2900.27
694.335	2789.67
694.524	2818.35
694.713	3043.62
694.902	2965.8
695.092	2842.92
695.281	2844.97
695.47	2785.58
695.659	2840.87
695.848	2797.87
696.037	2791.72
696.226	2801.96
696.415	2791.72
696.604	2720.04
696.793	2715.95
696.982	2787.63
697.171	2730.28
697.36	2763.05
697.549	2650.41
697.738	2720.04
697.927	2707.76
698.116	2756.91
698.305	2808.11
698.494	2752.81
698.683	2779.43
698.872	2814.25
699.061	2732.33
699.25	2644.27
699.438	2726.19
699.627	2674.99
699.816	2750.76
700.005	2666.8
700.193	2691.37
700.382	2812.2
700.571	2674.99
700.76	2572.59
700.948	2715.95
701.137	2787.63
701.326	2720.04
701.514	2609.45
701.703	2804.01
701.892	2615.6
702.08	2646.32
702.269	2734.38
702.457	2672.94
702.646	2789.67
702.834	2588.97
703.023	2560.3
703.212	2562.35
703.4	2629.93
703.589	2597.17
703.777	2711.85
703.965	2734.38
704.154	2595.12
704.342	2701.61
704.531	2670.89
704.719	2605.36
704.907	2562.35
705.096	2660.65
705.284	2648.36
705.472	2507.06
705.661	2654.51
705.849	2732.33
706.037	2689.32
706.226	2715.95
706.414	2660.65
706.602	2691.37
706.79	2685.23
706.979	2660.65
707.167	2724.14
707.355	2617.65
707.543	2654.51
707.731	2668.84
707.919	2646.32
708.107	2560.3
708.296	2646.32
708.484	2709.8
708.672	2580.78
708.86	2697.52
709.048	2758.96
709.236	2523.44
709.424	2720.04
709.612	2597.17
709.8	2566.45
709.988	2730.28
710.176	2621.74
710.364	2715.95
710.551	2623.79
710.739	2543.92
710.927	2505.01
711.115	2707.76
711.303	2773.29
711.491	2689.32
711.679	2674.99
711.866	2550.06
712.054	2617.65
712.242	2572.59
712.43	2629.93
712.617	2636.08
712.805	2656.56
712.993	2496.82
713.181	2609.45
713.368	2625.84
713.556	2703.66
713.744	2638.13
713.931	2674.99
714.119	2584.88
714.306	2548.01
714.494	2611.5
714.682	2466.1
714.869	2574.64
715.057	2582.83
715.244	2605.36
715.432	2668.84
715.619	2459.95
715.807	2636.08
715.994	2570.54
716.182	2525.49
716.369	2545.97
716.556	2601.26
716.744	2617.65
716.931	2660.65
717.119	2732.33
717.306	2554.16
717.493	2693.42
717.681	2672.94
717.868	2498.86
718.055	2554.16
718.242	2570.54
718.43	2580.78
718.617	2728.24
718.804	2507.06
718.991	2629.93
719.179	2746.67
719.366	2634.03
719.553	2627.89
719.74	2552.11
719.927	2699.56
720.114	2654.51
720.301	2531.63
720.488	2679.08
720.676	2605.36
720.863	2658.6
721.05	2642.22
721.237	2462
721.424	2527.53
721.611	2662.7
721.798	2603.31
721.985	2601.26
722.172	2537.77
722.358	2566.45
722.545	2572.59
722.732	2683.18
722.919	2642.22
723.106	2588.97
723.293	2617.65
723.48	2511.15
723.667	2703.66
723.853	2681.13
724.04	2701.61
724.227	2679.08
724.414	2535.73
724.6	2724.14
724.787	2597.17
724.974	2625.84
725.161	2728.24
725.347	2613.55
725.534	2593.07
725.72	2709.8
725.907	2627.89
726.094	2631.98
726.28	2599.21
726.467	2513.2
726.653	2658.6
726.84	2533.68
727.027	2591.02
727.213	2472.24
727.4	2556.21
727.586	2531.63
727.773	2625.84
727.959	2646.32
728.145	2750.76
728.332	2638.13
728.518	2636.08
728.705	2709.8
728.891	2599.21
729.077	2642.22
729.264	2652.46
729.45	2519.34
729.636	2621.74
729.823	2593.07
730.009	2525.49
730.195	2595.12
730.382	2666.8
730.568	2707.76
730.754	2572.59
730.94	2613.55
731.126	2687.28
731.313	2732.33
731.499	2685.23
731.685	2709.8
731.871	2613.55
732.057	2683.18
732.243	2754.86
732.429	2588.97
732.615	2674.99
732.801	2613.55
732.987	2627.89
733.173	2560.3
733.359	2613.55
733.545	2636.08
733.731	2586.93
733.917	2629.93
734.103	2609.45
734.289	2668.84
734.475	2627.89
734.661	2685.23
734.847	2685.23
735.033	2715.95
735.219	2574.64
735.404	2707.76
735.59	2601.26
735.776	2615.6
735.962	2627.89
736.148	2572.59
736.333	2578.73
736.519	2584.88
736.705	2552.11
736.89	2580.78
737.076	2535.73
737.262	2595.12
737.447	2599.21
737.633	2668.84
737.819	2601.26
738.004	2531.63
738.19	2629.93
738.375	2599.21
738.561	2756.91
738.747	2507.06
738.932	2509.1
739.118	2697.52
739.303	2558.25
739.489	2564.4
739.674	2588.97
739.859	2570.54
740.045	2474.29
740.23	2603.31
740.416	2576.69
740.601	2584.88
740.786	2425.14
740.972	2421.04
741.157	2435.38
741.342	2640.17
741.528	2384.18
741.713	2414.9
741.898	2529.58
742.084	2615.6
742.269	2386.22
742.454	2416.94
742.639	2474.29
742.824	2457.9
743.01	2406.7
743.195	2371.89
743.38	2529.58
743.565	2453.81
743.75	2337.07
743.935	2273.59
744.12	2459.95
744.305	2279.73
744.49	2382.13
744.675	2300.21
744.86	2314.55
745.045	2230.58
745.23	2318.64
745.415	2218.29
745.6	2261.3
745.785	2232.63
745.97	2343.22
746.155	2375.99
746.34	2138.42
746.525	2222.39
746.71	2142.52
746.895	2183.48
747.079	2113.85
747.264	2107.7
747.449	2224.44
747.634	2158.9
747.819	2283.83
748.003	2134.32
748.188	2224.44
748.373	2193.72
748.557	2138.42
748.742	2060.6
748.927	2183.48
749.111	2054.45
749.296	2009.4
749.481	2191.67
749.665	2001.21
749.85	2042.17
750.034	2046.26
750.219	2064.69
750.404	1950.01
750.588	2115.89
750.773	2003.25
750.957	2011.45
751.141	1868.09
751.326	1923.38
751.51	1919.29
751.695	1935.67
751.879	2011.45
752.064	1863.99
752.248	1861.94
752.432	1845.56
752.617	1898.81
752.801	1849.66
752.985	1720.64
753.17	1816.89
753.354	1923.38
753.538	1804.6
753.722	1665.34
753.907	1767.74
754.091	1696.06
754.275	1714.49
754.459	1808.7
754.643	1708.35
754.828	1681.72
755.012	1706.3
755.196	1661.24
755.38	1689.92
755.564	1732.92
755.748	1659.2
755.932	1712.44
756.116	1667.39
756.3	1538.37
756.484	1579.33
756.668	1626.43
756.852	1546.56
757.036	1564.99
757.22	1546.56
757.404	1548.61
757.588	1601.85
757.772	1548.61
757.956	1487.17
758.14	1515.84
758.323	1608
758.507	1491.26
758.691	1470.78
758.875	1517.89
759.059	1462.59
759.242	1419.58
759.426	1397.06
759.61	1409.34
759.794	1423.68
759.977	1261.89
760.161	1446.21
760.345	1421.63
760.528	1444.16
760.712	1423.68
760.895	1378.62
761.079	1270.08
761.263	1335.62
761.446	1308.99
761.63	1388.86
761.813	1311.04
761.997	1175.88
762.18	1304.9
762.364	1272.13
762.547	1235.27
762.731	1245.51
762.914	1290.56
763.098	1251.65
763.281	1241.41
763.464	1192.26
763.648	1229.12
763.831	1296.71
764.015	1222.98
764.198	1163.59
764.381	1216.83
764.564	1225.03
764.748	1251.65
764.931	1136.96
765.114	1225.03
765.297	1241.41
765.481	1247.55
765.664	1200.45
765.847	1261.89
766.03	1159.49
766.213	1147.2
766.397	1167.68
766.58	1126.72
766.763	1253.7
766.946	1225.03
767.129	1182.02
767.312	1126.72
767.495	1151.3
767.678	1118.53
767.861	1069.38
768.044	1153.35
768.227	1106.24
768.41	1040.71
768.593	1134.92
768.776	1155.4
768.959	1204.55
769.142	1065.29
769.324	1231.17
769.507	1030.47
769.69	1126.72
769.873	1112.39
770.056	1028.42
770.239	991.56
770.421	1069.38
770.604	1083.72
770.787	1104.2
770.97	966.98
771.152	1057.09
771.335	1003.85
771.518	1046.85
771.7	999.75
771.883	1028.42
772.066	1071.43
772.248	991.56
772.431	1036.61
772.613	1001.8
772.796	1018.18
772.978	1067.33
773.161	1012.04
773.343	930.12
773.526	966.98
773.708	969.03
773.891	915.78
774.073	981.32
774.256	942.41
774.438	932.17
774.621	885.06
774.803	897.35
774.985	971.08
775.168	1001.8
775.35	936.26
775.532	833.86
775.715	860.49
775.897	880.97
776.079	868.68
776.261	813.38
776.444	842.06
776.626	903.5
776.808	899.4
776.99	741.71
777.173	872.78
777.355	844.1
777.537	641.36
777.719	817.48
777.901	782.67
778.083	694.6
778.265	702.79
778.447	725.32
778.629	735.56
778.811	727.37
778.993	708.94
779.175	766.28
779.357	819.53
779.539	700.75
779.721	751.95
779.903	610.64
780.085	770.38
780.267	706.89
780.449	643.4
780.631	608.59
780.812	710.99
780.994	702.79
781.176	696.65
781.358	676.17
781.54	682.31
781.721	690.51
781.903	751.95
782.085	592.2
782.267	676.17
782.448	608.59
782.63	690.51
782.812	684.36
782.993	571.72
783.175	624.97
783.357	506.19
783.538	532.81
783.72	565.58
783.901	590.16
784.083	555.34
784.264	594.25
784.446	538.96
784.627	504.14
784.809	598.35
784.99	581.96
785.172	559.44
785.353	522.57
785.535	581.96
785.716	526.67
785.897	500.05
786.079	444.75
786.26	483.66
786.441	508.24
786.623	571.72
786.804	489.81
786.985	471.37
787.167	504.14
787.348	495.95
787.529	541.01
787.71	452.94
787.891	563.53
788.073	547.15
788.254	450.89
788.435	485.71
788.616	446.8
788.797	483.66
788.978	399.7
789.159	436.56
789.34	473.42
789.522	397.65
789.703	467.28
789.884	430.41
790.065	465.23
790.246	563.53
790.427	371.02
790.607	379.22
790.788	479.57
790.969	391.5
791.15	418.13
791.331	440.65
791.512	414.03
791.693	467.28
791.874	420.17
792.054	483.66
792.235	475.47
792.416	467.28
792.597	356.69
792.778	418.13
792.958	385.36
793.139	411.98
793.32	375.12
793.5	350.54
793.681	366.93
793.862	309.58
794.042	368.98
794.223	416.08
794.404	332.11
794.584	260.43
794.765	332.11
794.945	375.12
795.126	377.17
795.306	358.74
795.487	319.82
795.667	418.13
795.848	389.46
796.028	258.39
796.209	401.74
796.389	313.68
796.57	274.77
796.75	344.4
796.93	301.39
797.111	280.91
797.291	375.12
797.471	278.87
797.652	348.5
797.832	346.45
798.012	303.44
798.192	272.72
798.373	336.21
798.553	350.54
798.733	225.62
798.913	262.48
799.093	221.52
799.274	334.16
799.454	301.39
799.634	313.68
799.814	346.45
799.994	295.25
800.174	233.81
800.354	307.54
800.534	328.02
800.714	317.78
800.894	242
801.074	223.57
801.254	198.99
801.434	311.63
801.614	237.91
801.794	352.59
801.974	729.42
802.154	244.05
802.334	272.72
802.514	264.53
802.693	278.87
802.873	270.67
803.053	227.67
803.233	188.75
803.413	237.91
803.592	207.19
803.772	229.71
803.952	270.67
804.131	227.67
804.311	252.24
804.491	250.19
804.67	184.66
804.85	262.48
805.03	246.1
805.209	237.91
805.389	229.71
805.568	217.43
805.748	258.39
805.928	301.39
806.107	235.86
806.287	201.04
806.466	287.06
806.646	282.96
806.825	270.67
807.004	207.19
807.184	235.86
807.363	242
807.543	182.61
807.722	205.14
807.901	227.67
808.081	252.24
808.26	127.32
808.439	280.91
808.619	151.89
808.798	201.04
808.977	170.32
809.156	186.71
809.336	178.51
809.515	168.27
809.694	205.14
809.873	192.85
810.052	205.14
810.231	328.02
810.411	235.86
810.59	213.33
810.769	186.71
810.948	246.1
811.127	180.56
811.306	176.47
811.485	207.19
811.664	276.82
811.843	184.66
812.022	198.99
812.201	268.63
812.38	244.05
812.559	174.42
812.737	153.94
812.916	174.42
813.095	139.6
813.274	194.9
813.453	242
813.632	205.14
813.811	198.99
813.989	121.17
814.168	178.51
814.347	203.09
814.526	186.71
814.704	149.84
814.883	166.23
815.062	131.41
815.24	160.08
815.419	155.99
815.598	166.23
815.776	180.56
815.955	174.42
816.133	108.88
816.312	201.04
816.49	143.7
816.669	145.75
816.847	121.17
817.026	129.36
817.204	119.12
817.383	94.55
817.561	145.75
817.74	190.8
817.918	108.88
818.097	145.75
818.275	139.6
818.453	131.41
818.632	127.32
818.81	139.6
818.988	110.93
819.167	115.03
819.345	145.75
819.523	143.7
819.701	110.93
819.879	121.17
820.058	201.04
820.236	196.95
820.414	117.08
820.592	135.51
820.77	155.99
820.948	80.21
821.127	137.56
821.305	141.65
821.483	125.27
821.661	141.65
821.839	145.75
822.017	125.27
822.195	55.64
822.373	158.03
822.551	129.36
822.729	147.8
822.907	178.51
823.085	123.22
823.262	92.5
823.44	125.27
823.618	174.42
823.796	102.74
823.974	78.16
824.152	121.17
824.329	141.65
824.507	137.56
824.685	164.18
824.863	88.4
825.04	53.59
825.218	55.64
825.396	123.22
825.574	129.36
825.751	115.03
825.929	131.41
826.107	82.26
826.284	115.03
826.462	90.45
826.639	80.21
826.817	94.55
826.994	131.41
827.172	43.35
827.349	102.74
827.527	168.27
827.704	147.8
827.882	119.12
828.059	125.27
828.237	82.26
828.414	104.79
828.591	37.2
828.769	121.17
828.946	88.4
829.124	53.59
829.301	76.12
829.478	69.97
829.655	78.16
829.833	102.74
830.01	125.27
830.187	51.54
830.364	35.16
830.542	94.55
830.719	151.89
830.896	80.21
831.073	37.2
831.25	98.64
831.427	145.75
831.604	90.45
831.782	94.55
831.959	86.36
832.136	29.01
832.313	-7.85
832.49	102.74
832.667	57.68
832.844	78.16
833.021	88.4
833.198	-7.85
833.374	29.01
833.551	57.68
833.728	57.68
833.905	51.54
834.082	6.49
834.259	90.45
834.436	117.08
834.612	78.16
834.789	74.07
834.966	100.69
835.143	92.5
835.319	90.45
835.496	76.12
835.673	90.45
835.85	69.97
836.026	139.6
836.203	2.39
836.38	45.4
836.556	65.88
836.733	31.06
836.909	90.45
837.086	74.07
837.262	84.31
837.439	96.6
837.616	49.49
837.792	135.51
837.968	76.12
838.145	33.11
838.321	88.4
838.498	92.5
838.674	135.51
838.851	35.16
839.027	45.4
839.203	16.73
839.38	123.22
839.556	106.84
839.732	45.4
839.909	106.84
840.085	92.5
840.261	12.63
840.437	-18.09
840.614	47.44
840.79	129.36
840.966	67.92
841.142	78.16
841.318	39.25
841.494	143.7
841.671	143.7
841.847	86.36
842.023	133.46
842.199	115.03
842.375	80.21
842.551	49.49
842.727	-20.14
842.903	119.12
843.079	55.64
843.255	22.87
843.431	59.73
843.607	6.49
843.783	67.92
843.959	102.74
844.134	22.87
844.31	76.12
844.486	39.25
844.662	-7.85
844.838	47.44
845.013	59.73
845.189	49.49
845.365	61.78
845.541	90.45
845.716	63.83
845.892	41.3
846.068	26.96
846.244	39.25
846.419	61.78
846.595	69.97
846.77	26.96
846.946	100.69
847.122	22.87
847.297	10.58
847.473	14.68
847.648	63.83
847.824	57.68
847.999	-26.28
848.175	82.26
848.35	82.26
848.526	45.4
848.701	63.83
848.876	0.34
849.052	69.97
849.227	84.31
849.403	41.3
849.578	26.96
849.753	37.2
849.929	147.8
850.104	37.2
850.279	26.96
850.454	76.12
850.63	18.77
850.805	45.4
850.98	106.84
851.155	26.96
851.33	49.49
851.505	45.4
851.681	74.07
851.856	47.44
852.031	10.58
852.206	106.84
852.381	90.45
852.556	-9.9
852.731	98.64
852.906	10.58
853.081	69.97
853.256	-20.14
853.431	96.6
853.606	67.92
853.781	-5.8
853.956	51.54
854.131	24.92
854.305	-3.75
854.48	-26.28
854.655	69.97
854.83	16.73
855.005	-5.8
855.18	51.54
855.354	76.12
855.529	-5.8
855.704	0.34
855.879	102.74
856.053	4.44
856.228	12.63
856.403	31.06
856.577	59.73
856.752	22.87
856.926	49.49
857.101	20.82
857.276	-32.43
857.45	-81.58
857.625	37.2
857.799	-9.9
857.974	53.59
858.148	-48.81
858.323	51.54
858.497	-1.71
858.672	-5.8
858.846	-7.85
859.02	-9.9
859.195	-28.33
859.369	35.16
859.543	35.16
859.718	108.88
859.892	-11.95
860.066	-26.28
860.241	61.78
860.415	63.83
860.589	-24.23
860.763	49.49
860.938	37.2
861.112	4.44
861.286	-18.09
861.46	-28.33
861.634	16.73
861.808	4.44
861.982	-44.71
862.157	55.64
862.331	33.11
862.505	-32.43
862.679	61.78
862.853	20.82
863.027	-24.23
863.201	53.59
863.375	31.06
863.549	37.2
863.722	8.53
863.896	35.16
864.07	33.11
864.244	12.63
864.418	26.96
864.592	45.4
864.766	0.34
864.939	16.73
865.113	4.44
865.287	61.78
865.461	61.78
865.634	49.49
865.808	-16.04
865.982	49.49
866.156	2.39
866.329	61.78
866.503	-79.53
866.676	57.68
866.85	12.63
867.024	10.58
867.197	24.92
867.371	37.2
867.544	57.68
867.718	22.87
867.891	-1.71
868.065	59.73
868.238	-24.23
868.412	51.54
868.585	-22.19
868.759	49.49
868.932	-22.19
869.105	-65.19
869.279	41.3
869.452	16.73
869.625	45.4
869.799	8.53
869.972	22.87
870.145	20.82
870.319	53.59
870.492	43.35
870.665	-61.1
870.838	29.01
871.011	29.01
871.185	-1.71
871.358	18.77
871.531	-9.9
871.704	16.73
871.877	-20.14
872.05	47.44
872.223	47.44
872.396	12.63
872.569	-16.04
872.742	-20.14
872.915	86.36
873.088	-32.43
873.261	26.96
873.434	-18.09
873.607	10.58
873.78	76.12
873.953	-34.47
874.126	-52.91
874.299	-52.91
874.471	-18.09
874.644	-67.24
874.817	20.82
874.99	22.87
875.163	63.83
875.335	-20.14
875.508	35.16
875.681	63.83
875.853	-40.62
876.026	29.01
876.199	33.11
876.371	0.34
876.544	45.4
876.717	-9.9
876.889	-3.75
877.062	-22.19
877.234	-20.14
877.407	10.58
877.579	26.96
877.752	6.49
877.924	51.54
878.097	43.35
878.269	-73.39
878.442	-32.43
878.614	29.01
878.786	-11.95
878.959	-18.09
879.131	20.82
879.303	-46.76
879.476	2.39
879.648	-7.85
879.82	117.08
879.993	22.87
880.165	43.35
880.337	22.87
880.509	-44.71
880.681	6.49
880.854	24.92
881.026	82.26
881.198	-7.85
881.37	2.39
881.542	45.4
881.714	51.54
881.886	-24.23
882.058	-69.29
882.23	45.4
882.402	-54.95
882.574	41.3
882.746	115.03
882.918	78.16
883.09	14.68
883.262	4.44
883.434	45.4
883.606	18.77
883.778	22.87
883.95	26.96
884.122	-13.99
884.293	67.92
884.465	-36.52
884.637	45.4
884.809	-77.48
884.98	0.34
885.152	10.58
885.324	-3.75
885.496	18.77
885.667	4.44
885.839	-5.8
886.011	55.64
886.182	4.44
886.354	20.82
886.525	10.58
886.697	-22.19
886.869	-28.33
887.04	-1.71
887.212	37.2
887.383	53.59
887.555	16.73
887.726	-16.04
887.897	-44.71
888.069	-3.75
888.24	29.01
888.412	16.73
888.583	14.68
888.754	-50.86
888.926	24.92
889.097	-20.14
889.268	-1.71
889.44	41.3
889.611	-30.38
889.782	-34.47
889.953	-26.28
890.125	51.54
890.296	-40.62
890.467	20.82
890.638	-32.43
890.809	33.11
890.98	29.01
891.151	57.68
891.323	41.3
891.494	-46.76
891.665	-108.2
891.836	-102.06
892.007	-22.19
892.178	45.4
892.349	41.3
892.52	-13.99
892.691	-3.75
892.862	-11.95
893.032	-36.52
893.203	-13.99
893.374	-5.8
893.545	8.53
893.716	4.44
893.887	-28.33
894.057	4.44
894.228	31.06
894.399	51.54
894.57	20.82
894.74	49.49
894.911	33.11
895.082	-34.47
895.253	29.01
895.423	61.78
895.594	20.82
895.764	-32.43
895.935	10.58
896.106	22.87
896.276	39.25
896.447	-7.85
896.617	-3.75
896.788	-22.19
896.958	-93.87
897.129	-34.47
897.299	-11.95
897.47	90.45
897.64	41.3
897.81	-7.85
897.981	-42.67
898.151	0.34
898.322	8.53
898.492	18.77
898.662	-32.43
898.832	22.87
899.003	45.4
899.173	31.06
899.343	10.58
899.513	-85.67
