Data from USB4F104151__23__11-44-40-513.txt Node

Date: Fri Mar 14 11:44:40 EDT 2025
User: louis
Spectrometer: USB4F10415
Trigger mode: 4
Integration Time (sec): 2.000000E-2
Scans to average: 1
Electric dark correction enabled: true
Nonlinearity correction enabled: false
Boxcar width: 0
XAxis mode: Wavelengths
Number of Pixels in Spectrum: 3648
>>>>>Begin Spectral Data<<<<<
178.204	-75.09
178.424	-75.09
178.644	-75.09
178.864	-64.85
179.084	-34.13
179.304	-9.56
179.524	-71
179.744	-30.04
179.964	86.7
180.184	15.02
180.404	64.17
180.624	-15.7
180.844	-9.56
181.064	-71
181.283	23.21
181.503	-5.46
181.723	23.21
181.943	-36.18
182.163	0.68
182.383	19.11
182.602	70.31
182.822	82.6
183.042	17.07
183.262	-30.04
183.482	25.26
183.701	105.13
183.921	-40.28
184.141	-17.75
184.361	111.27
184.58	19.11
184.8	51.88
185.02	19.11
185.239	-19.8
185.459	72.36
185.679	-7.51
185.898	-58.71
186.118	58.03
186.338	43.69
186.557	0.68
186.777	12.97
186.997	-5.46
187.216	53.93
187.436	92.84
187.655	-15.7
187.875	2.73
188.095	-40.28
188.314	49.83
188.534	45.74
188.753	51.88
188.973	-7.51
189.192	78.51
189.412	6.83
189.631	-15.7
189.851	-17.75
190.07	31.4
190.29	53.93
190.509	17.07
190.729	-7.51
190.948	19.11
191.168	74.41
191.387	-48.47
191.607	35.5
191.826	-30.04
192.045	33.45
192.265	117.42
192.484	15.02
192.704	53.93
192.923	-40.28
193.142	111.27
193.362	-42.32
193.581	88.75
193.8	55.98
194.02	-7.51
194.239	27.31
194.458	19.11
194.678	55.98
194.897	27.31
195.116	74.41
195.335	53.93
195.555	64.17
195.774	21.16
195.993	8.87
196.212	74.41
196.432	10.92
196.651	29.35
196.87	-3.41
197.089	98.99
197.308	29.35
197.528	15.02
197.747	66.22
197.966	60.07
198.185	80.55
198.404	6.83
198.623	15.02
198.842	2.73
199.062	8.87
199.281	53.93
199.5	-9.56
199.719	2.73
199.938	27.31
200.157	-25.94
200.376	35.5
200.595	72.36
200.814	49.83
201.033	35.5
201.252	47.79
201.471	53.93
201.69	84.65
201.909	39.59
202.128	0.68
202.347	23.21
202.566	-23.89
202.785	-1.37
203.004	-30.04
203.223	10.92
203.442	43.69
203.661	88.75
203.879	19.11
204.098	2.73
204.317	10.92
204.536	25.26
204.755	47.79
204.974	45.74
205.193	8.87
205.411	119.46
205.63	47.79
205.849	12.97
206.068	21.16
206.287	27.31
206.505	80.55
206.724	33.45
206.943	-38.23
207.162	84.65
207.381	43.69
207.599	-27.99
207.818	62.12
208.037	23.21
208.255	39.59
208.474	-21.84
208.693	29.35
208.911	49.83
209.13	-60.76
209.349	123.56
209.567	15.02
209.786	29.35
210.005	35.5
210.223	39.59
210.442	-30.04
210.661	27.31
210.879	53.93
211.098	45.74
211.316	-58.71
211.535	51.88
211.753	70.31
211.972	21.16
212.191	21.16
212.409	35.5
212.628	33.45
212.846	43.69
213.065	29.35
213.283	76.46
213.502	45.74
213.72	82.6
213.938	29.35
214.157	27.31
214.375	-1.37
214.594	-13.65
214.812	66.22
215.031	4.78
215.249	-3.41
215.467	12.97
215.686	-17.75
215.904	119.46
216.122	43.69
216.341	92.84
216.559	4.78
216.778	49.83
216.996	31.4
217.214	-42.32
217.432	27.31
217.651	-21.84
217.869	27.31
218.087	15.02
218.306	-42.32
218.524	121.51
218.742	58.03
218.96	74.41
219.179	-23.89
219.397	17.07
219.615	64.17
219.833	80.55
220.051	-19.8
220.27	78.51
220.488	53.93
220.706	39.59
220.924	2.73
221.142	23.21
221.36	-34.13
221.578	0.68
221.796	-25.94
222.015	-3.41
222.233	2.73
222.451	33.45
222.669	12.97
222.887	-32.08
223.105	66.22
223.323	29.35
223.541	-95.57
223.759	78.51
223.977	-13.65
224.195	88.75
224.413	62.12
224.631	-34.13
224.849	-1.37
225.067	88.75
225.285	-11.61
225.503	6.83
225.721	-38.23
225.939	4.78
226.157	47.79
226.375	84.65
226.592	-15.7
226.81	51.88
227.028	51.88
227.246	6.83
227.464	-7.51
227.682	60.07
227.9	-32.08
228.117	0.68
228.335	25.26
228.553	31.4
228.771	45.74
228.989	-11.61
229.206	-42.32
229.424	-21.84
229.642	-17.75
229.86	8.87
230.077	0.68
230.295	-5.46
230.513	27.31
230.731	82.6
230.948	35.5
231.166	-32.08
231.384	-1.37
231.601	-34.13
231.819	58.03
232.037	62.12
232.254	45.74
232.472	47.79
232.689	78.51
232.907	45.74
233.125	31.4
233.342	-44.37
233.56	-25.94
233.777	17.07
233.995	-3.41
234.213	60.07
234.43	62.12
234.648	-83.28
234.865	-9.56
235.083	27.31
235.3	33.45
235.518	55.98
235.735	86.7
235.953	17.07
236.17	88.75
236.388	35.5
236.605	58.03
236.822	70.31
237.04	70.31
237.257	27.31
237.475	-21.84
237.692	-62.8
237.909	74.41
238.127	58.03
238.344	-9.56
238.562	37.55
238.779	-32.08
238.996	-23.89
239.214	19.11
239.431	80.55
239.648	-30.04
239.865	10.92
240.083	23.21
240.3	21.16
240.517	2.73
240.735	-19.8
240.952	43.69
241.169	-5.46
241.386	23.21
241.603	-3.41
241.821	-30.04
242.038	135.85
242.255	33.45
242.472	25.26
242.689	66.22
242.907	74.41
243.124	17.07
243.341	35.5
243.558	72.36
243.775	39.59
243.992	29.35
244.209	-23.89
244.426	82.6
244.643	76.46
244.86	-25.94
245.078	17.07
245.295	58.03
245.512	68.27
245.729	-46.42
245.946	41.64
246.163	-42.32
246.38	47.79
246.597	39.59
246.814	27.31
247.031	-21.84
247.248	103.08
247.464	62.12
247.681	8.87
247.898	86.7
248.115	47.79
248.332	45.74
248.549	53.93
248.766	103.08
248.983	39.59
249.2	2.73
249.417	72.36
249.633	19.11
249.85	60.07
250.067	58.03
250.284	31.4
250.501	-60.76
250.717	35.5
250.934	35.5
251.151	-40.28
251.368	17.07
251.585	-34.13
251.801	49.83
252.018	2.73
252.235	4.78
252.451	68.27
252.668	-9.56
252.885	68.27
253.102	-17.75
253.318	37.55
253.535	-58.71
253.752	17.07
253.968	58.03
254.185	49.83
254.401	8.87
254.618	-15.7
254.835	60.07
255.051	135.85
255.268	-17.75
255.484	2.73
255.701	37.55
255.917	2.73
256.134	68.27
256.351	78.51
256.567	-23.89
256.784	25.26
257	41.64
257.217	-3.41
257.433	70.31
257.65	25.26
257.866	4.78
258.082	-13.65
258.299	-62.8
258.515	27.31
258.732	43.69
258.948	109.23
259.165	-15.7
259.381	-34.13
259.597	58.03
259.814	66.22
260.03	51.88
260.246	0.68
260.463	-21.84
260.679	2.73
260.895	12.97
261.112	33.45
261.328	-9.56
261.544	-11.61
261.761	90.79
261.977	31.4
262.193	76.46
262.409	47.79
262.626	49.83
262.842	-5.46
263.058	-40.28
263.274	29.35
263.49	58.03
263.707	80.55
263.923	58.03
264.139	33.45
264.355	-30.04
264.571	35.5
264.787	39.59
265.004	41.64
265.22	-15.7
265.436	-42.32
265.652	23.21
265.868	49.83
266.084	-25.94
266.3	27.31
266.516	17.07
266.732	82.6
266.948	53.93
267.164	21.16
267.38	107.18
267.596	19.11
267.812	43.69
268.028	21.16
268.244	12.97
268.46	49.83
268.676	-5.46
268.892	6.83
269.108	55.98
269.324	-19.8
269.54	-1.37
269.756	49.83
269.972	121.51
270.188	0.68
270.403	2.73
270.619	-1.37
270.835	-15.7
271.051	76.46
271.267	6.83
271.483	-23.89
271.698	72.36
271.914	88.75
272.13	66.22
272.346	60.07
272.562	-21.84
272.777	74.41
272.993	39.59
273.209	12.97
273.425	55.98
273.64	58.03
273.856	62.12
274.072	17.07
274.287	39.59
274.503	76.46
274.719	-13.65
274.934	86.7
275.15	0.68
275.366	15.02
275.581	-32.08
275.797	60.07
276.012	60.07
276.228	43.69
276.444	8.87
276.659	58.03
276.875	53.93
277.09	8.87
277.306	58.03
277.521	35.5
277.737	80.55
277.952	29.35
278.168	-9.56
278.383	17.07
278.599	64.17
278.814	39.59
279.03	21.16
279.245	94.89
279.461	-13.65
279.676	-34.13
279.892	-17.75
280.107	-25.94
280.322	27.31
280.538	55.98
280.753	-36.18
280.969	15.02
281.184	-23.89
281.399	62.12
281.615	10.92
281.83	84.65
282.045	6.83
282.26	4.78
282.476	-7.51
282.691	35.5
282.906	-5.46
283.122	49.83
283.337	27.31
283.552	68.27
283.767	19.11
283.983	21.16
284.198	62.12
284.413	8.87
284.628	35.5
284.843	60.07
285.058	-15.7
285.274	2.73
285.489	23.21
285.704	15.02
285.919	-9.56
286.134	-3.41
286.349	62.12
286.564	12.97
286.779	66.22
286.995	76.46
287.21	-64.85
287.425	43.69
287.64	62.12
287.855	37.55
288.07	78.51
288.285	33.45
288.5	70.31
288.715	49.83
288.93	45.74
289.145	15.02
289.36	12.97
289.575	23.21
289.79	41.64
290.004	55.98
290.219	27.31
290.434	15.02
290.649	55.98
290.864	111.27
291.079	19.11
291.294	141.99
291.509	15.02
291.724	29.35
291.938	6.83
292.153	-1.37
292.368	8.87
292.583	58.03
292.798	51.88
293.012	60.07
293.227	33.45
293.442	21.16
293.657	8.87
293.871	80.55
294.086	-3.41
294.301	27.31
294.516	23.21
294.73	27.31
294.945	-30.04
295.16	55.98
295.374	12.97
295.589	51.88
295.804	55.98
296.018	35.5
296.233	96.94
296.447	76.46
296.662	29.35
296.877	-21.84
297.091	76.46
297.306	43.69
297.52	4.78
297.735	15.02
297.949	41.64
298.164	41.64
298.378	0.68
298.593	127.66
298.807	35.5
299.022	41.64
299.236	39.59
299.451	-13.65
299.665	43.69
299.88	2.73
300.094	19.11
300.309	12.97
300.523	39.59
300.737	62.12
300.952	-40.28
301.166	12.97
301.381	-15.7
301.595	-7.51
301.809	17.07
302.024	66.22
302.238	4.78
302.452	25.26
302.667	60.07
302.881	43.69
303.095	33.45
303.309	70.31
303.524	-17.75
303.738	23.21
303.952	-1.37
304.166	101.03
304.381	-60.76
304.595	35.5
304.809	-7.51
305.023	2.73
305.237	60.07
305.452	-36.18
305.666	78.51
305.88	60.07
306.094	10.92
306.308	39.59
306.522	2.73
306.736	37.55
306.95	25.26
307.164	96.94
307.379	33.45
307.593	78.51
307.807	47.79
308.021	86.7
308.235	41.64
308.449	43.69
308.663	17.07
308.877	166.57
309.091	62.12
309.305	2.73
309.519	86.7
309.733	49.83
309.947	27.31
310.161	84.65
310.374	25.26
310.588	55.98
310.802	49.83
311.016	-9.56
311.23	45.74
311.444	37.55
311.658	-11.61
311.872	-44.37
312.085	86.7
312.299	92.84
312.513	35.5
312.727	101.03
312.941	21.16
313.154	80.55
313.368	2.73
313.582	92.84
313.796	21.16
314.009	68.27
314.223	17.07
314.437	-60.76
314.651	80.55
314.864	113.32
315.078	37.55
315.292	49.83
315.505	8.87
315.719	111.27
315.933	-19.8
316.146	51.88
316.36	10.92
316.573	15.02
316.787	35.5
317.001	88.75
317.214	78.51
317.428	-7.51
317.641	39.59
317.855	66.22
318.068	21.16
318.282	88.75
318.495	41.64
318.709	21.16
318.922	-25.94
319.136	-3.41
319.349	-1.37
319.563	-36.18
319.776	107.18
319.99	55.98
320.203	37.55
320.417	25.26
320.63	-25.94
320.843	12.97
321.057	80.55
321.27	47.79
321.483	33.45
321.697	27.31
321.91	2.73
322.124	43.69
322.337	15.02
322.55	12.97
322.763	43.69
322.977	8.87
323.19	23.21
323.403	101.03
323.617	4.78
323.83	41.64
324.043	21.16
324.256	19.11
324.469	92.84
324.683	107.18
324.896	-7.51
325.109	4.78
325.322	6.83
325.535	66.22
325.748	53.93
325.962	41.64
326.175	33.45
326.388	105.13
326.601	4.78
326.814	53.93
327.027	-3.41
327.24	31.4
327.453	10.92
327.666	98.99
327.879	41.64
328.092	80.55
328.305	78.51
328.518	105.13
328.731	31.4
328.944	47.79
329.157	66.22
329.37	41.64
329.583	-11.61
329.796	68.27
330.009	0.68
330.222	66.22
330.435	23.21
330.648	47.79
330.861	-1.37
331.073	21.16
331.286	-13.65
331.499	80.55
331.712	-44.37
331.925	23.21
332.138	66.22
332.35	-23.89
332.563	27.31
332.776	98.99
332.989	25.26
333.202	29.35
333.414	-1.37
333.627	66.22
333.84	58.03
334.053	21.16
334.265	90.79
334.478	62.12
334.691	39.59
334.903	-38.23
335.116	4.78
335.329	101.03
335.541	17.07
335.754	76.46
335.966	-50.52
336.179	41.64
336.392	49.83
336.604	39.59
336.817	2.73
337.029	80.55
337.242	119.46
337.454	47.79
337.667	4.78
337.88	0.68
338.092	51.88
338.305	29.35
338.517	29.35
338.729	25.26
338.942	17.07
339.154	49.83
339.367	-11.61
339.579	-11.61
339.792	27.31
340.004	123.56
340.217	78.51
340.429	62.12
340.641	72.36
340.854	39.59
341.066	45.74
341.278	98.99
341.491	-7.51
341.703	123.56
341.915	33.45
342.128	117.42
342.34	39.59
342.552	53.93
342.764	10.92
342.977	82.6
343.189	-17.75
343.401	-1.37
343.613	47.79
343.826	53.93
344.038	-1.37
344.25	0.68
344.462	25.26
344.674	6.83
344.886	41.64
345.099	60.07
345.311	31.4
345.523	86.7
345.735	39.59
345.947	41.64
346.159	66.22
346.371	82.6
346.583	31.4
346.795	127.66
347.007	-5.46
347.219	-32.08
347.431	15.02
347.643	39.59
347.855	58.03
348.067	86.7
348.279	70.31
348.491	23.21
348.703	4.78
348.915	6.83
349.127	121.51
349.339	66.22
349.551	29.35
349.763	72.36
349.975	-9.56
350.187	66.22
350.399	62.12
350.61	29.35
350.822	23.21
351.034	53.93
351.246	51.88
351.458	80.55
351.669	62.12
351.881	4.78
352.093	39.59
352.305	35.5
352.517	25.26
352.728	43.69
352.94	105.13
353.152	55.98
353.363	41.64
353.575	-5.46
353.787	76.46
353.999	29.35
354.21	6.83
354.422	43.69
354.633	15.02
354.845	6.83
355.057	-21.84
355.268	111.27
355.48	43.69
355.692	6.83
355.903	2.73
356.115	88.75
356.326	76.46
356.538	55.98
356.749	-5.46
356.961	25.26
357.172	27.31
357.384	8.87
357.595	80.55
357.807	17.07
358.018	98.99
358.23	29.35
358.441	62.12
358.653	94.89
358.864	39.59
359.075	6.83
359.287	53.93
359.498	78.51
359.709	47.79
359.921	70.31
360.132	88.75
360.344	45.74
360.555	-5.46
360.766	17.07
360.977	35.5
361.189	58.03
361.4	21.16
361.611	-30.04
361.823	70.31
362.034	39.59
362.245	55.98
362.456	109.23
362.667	-19.8
362.879	76.46
363.09	137.9
363.301	72.36
363.512	68.27
363.723	107.18
363.935	62.12
364.146	49.83
364.357	39.59
364.568	23.21
364.779	39.59
364.99	98.99
365.201	10.92
365.412	37.55
365.623	78.51
365.834	70.31
366.045	51.88
366.256	12.97
366.467	25.26
366.678	37.55
366.889	68.27
367.1	29.35
367.311	60.07
367.522	109.23
367.733	-5.46
367.944	0.68
368.155	-1.37
368.366	-40.28
368.577	96.94
368.788	92.84
368.999	74.41
369.209	10.92
369.42	68.27
369.631	129.7
369.842	17.07
370.053	45.74
370.264	-3.41
370.474	62.12
370.685	107.18
370.896	129.7
371.107	21.16
371.317	58.03
371.528	39.59
371.739	8.87
371.95	33.45
372.16	103.08
372.371	82.6
372.582	31.4
372.792	10.92
373.003	23.21
373.214	66.22
373.424	55.98
373.635	64.17
373.846	144.04
374.056	2.73
374.267	76.46
374.477	113.32
374.688	31.4
374.898	21.16
375.109	-5.46
375.319	15.02
375.53	78.51
375.74	4.78
375.951	119.46
376.161	74.41
376.372	111.27
376.582	25.26
376.793	113.32
377.003	150.18
377.214	49.83
377.424	21.16
377.635	35.5
377.845	80.55
378.055	131.75
378.266	-34.13
378.476	86.7
378.686	86.7
378.897	45.74
379.107	76.46
379.317	12.97
379.528	80.55
379.738	45.74
379.948	37.55
380.158	101.03
380.369	98.99
380.579	76.46
380.789	80.55
380.999	80.55
381.21	31.4
381.42	39.59
381.63	12.97
381.84	15.02
382.05	21.16
382.261	47.79
382.471	35.5
382.681	74.41
382.891	17.07
383.101	78.51
383.311	23.21
383.521	86.7
383.731	92.84
383.941	66.22
384.151	84.65
384.361	88.75
384.571	-9.56
384.781	88.75
384.991	105.13
385.201	105.13
385.411	107.18
385.621	64.17
385.831	86.7
386.041	76.46
386.251	90.79
386.461	86.7
386.671	84.65
386.881	55.98
387.091	49.83
387.301	21.16
387.511	78.51
387.72	82.6
387.93	117.42
388.14	29.35
388.35	117.42
388.56	55.98
388.769	113.32
388.979	74.41
389.189	33.45
389.399	107.18
389.609	53.93
389.818	74.41
390.028	113.32
390.238	72.36
390.447	80.55
390.657	103.08
390.867	49.83
391.076	55.98
391.286	23.21
391.496	25.26
391.705	-21.84
391.915	144.04
392.125	94.89
392.334	19.11
392.544	58.03
392.753	8.87
392.963	64.17
393.172	98.99
393.382	62.12
393.591	94.89
393.801	70.31
394.01	125.61
394.22	119.46
394.429	170.66
394.639	144.04
394.848	129.7
395.058	94.89
395.267	127.66
395.477	111.27
395.686	144.04
395.895	125.61
396.105	86.7
396.314	109.23
396.524	148.14
396.733	70.31
396.942	103.08
397.152	137.9
397.361	88.75
397.57	133.8
397.78	90.79
397.989	109.23
398.198	191.14
398.407	74.41
398.617	82.6
398.826	66.22
399.035	137.9
399.244	180.9
399.453	154.28
399.663	123.56
399.872	101.03
400.081	94.89
400.29	131.75
400.499	152.23
400.708	160.42
400.917	160.42
401.127	121.51
401.336	160.42
401.545	197.29
401.754	121.51
401.963	176.81
402.172	195.24
402.381	182.95
402.59	135.85
402.799	107.18
403.008	170.66
403.217	185
403.426	209.58
403.635	137.9
403.844	154.28
404.053	195.24
404.262	139.94
404.471	225.96
404.68	230.06
404.888	246.44
405.097	197.29
405.306	254.63
405.515	252.58
405.724	244.39
405.933	164.52
406.142	271.01
406.35	156.33
406.559	307.88
406.768	195.24
406.977	258.73
407.185	248.49
407.394	336.55
407.603	324.26
407.812	289.45
408.02	297.64
408.229	271.01
408.438	303.78
408.646	350.89
408.855	336.55
409.064	346.79
409.272	397.99
409.481	402.08
409.69	352.93
409.898	385.7
410.107	408.23
410.315	432.8
410.524	445.09
410.733	473.76
410.941	469.67
411.15	473.76
411.358	563.87
411.567	549.54
411.775	461.48
411.984	623.27
412.192	572.07
412.401	576.16
412.609	608.93
412.818	563.87
413.026	666.27
413.234	643.74
413.443	656.03
413.651	705.18
413.86	772.77
414.068	813.73
414.276	920.22
414.485	858.78
414.693	819.87
414.901	938.65
415.11	946.84
415.318	885.41
415.526	1079.96
415.734	1088.15
415.943	1159.83
416.151	1131.16
416.359	1217.18
416.567	1168.02
416.776	1233.56
416.984	1315.48
417.192	1331.86
417.4	1358.49
417.608	1372.82
417.817	1393.3
418.025	1467.03
418.233	1557.14
418.441	1559.19
418.649	1753.74
418.857	1692.3
419.065	1809.04
419.273	1847.95
419.481	1868.43
419.689	2007.69
419.897	2077.32
420.105	2038.41
420.313	2142.86
420.521	2210.44
420.729	2142.86
420.937	2321.03
421.145	2435.72
421.353	2648.71
421.561	2681.47
421.769	2810.5
421.977	2812.54
422.185	2767.49
422.393	2968.19
422.601	3234.43
422.809	3144.31
423.017	3125.88
423.224	3355.26
423.432	3355.26
423.64	3445.37
423.848	3707.51
424.056	3682.93
424.263	3928.69
424.471	3940.97
424.679	4006.51
424.887	4219.5
425.094	4418.15
425.302	4452.97
425.51	4551.27
425.718	4856.42
425.925	4723.3
426.133	4940.38
426.341	5124.7
426.548	5464.66
426.756	5362.26
426.964	5605.97
427.171	5726.8
427.379	5925.46
427.586	6036.05
427.794	6263.37
428.001	6638.15
428.209	6885.95
428.417	6670.92
428.624	7324.22
428.832	7115.33
429.039	7164.48
429.247	7354.94
429.454	7803.44
429.662	8413.74
429.869	7907.89
430.076	8284.72
430.284	8204.85
430.491	8458.79
430.699	9146.91
430.906	9017.89
431.114	9243.17
431.321	9538.07
431.528	9665.05
431.736	10312.21
431.943	10699.27
432.15	10418.7
432.358	10418.7
432.565	11131.39
432.772	11115.01
432.979	11846.13
433.187	11811.32
433.394	12034.55
433.601	13011.43
433.808	12777.96
434.016	12700.14
434.223	13230.56
434.43	14074.32
434.637	13738.46
434.844	14813.64
435.052	15120.84
435.259	14932.42
435.466	15020.49
435.673	14952.9
435.88	16001.46
436.087	16564.65
436.294	16708.01
436.501	16267.7
436.708	16628.14
436.915	17082.79
437.122	18033.05
437.329	17926.55
437.537	18540.94
437.743	18729.36
437.95	18637.2
438.157	19763.58
438.364	20257.14
438.571	20081.02
438.778	20513.14
438.985	22131.03
439.192	21250.41
439.399	22137.18
439.606	21213.54
439.813	22729.04
440.02	24267.06
440.227	24037.69
440.433	23216.46
440.64	24213.82
440.847	24015.16
441.054	24674.61
441.261	26689.81
441.467	26179.87
441.674	26726.67
441.881	27390.22
442.088	27539.72
442.294	27146.51
442.501	27973.89
442.708	28221.69
442.914	29743.33
443.121	30986.45
443.328	30111.97
443.534	32037.06
443.741	31244.49
443.948	30757.08
444.154	33472.68
444.361	32874.68
444.568	33044.66
444.774	32989.36
444.981	33378.48
445.187	34529.44
445.394	35887.24
445.6	35440.78
445.807	38938.71
446.013	37466.22
446.22	37630.06
446.426	39196.76
446.633	39637.07
446.839	40810.56
447.046	39428.18
447.252	41467.95
447.459	41478.19
447.665	40908.86
447.871	43261.97
448.078	44998.65
448.284	42897.44
448.491	43814.93
448.697	45549.56
448.903	46303.21
449.11	46467.05
449.316	45848.56
449.522	46680.03
449.728	47833.04
449.935	48287.69
450.141	47896.53
450.347	48906.18
450.553	47785.94
450.76	48605.12
450.966	49465.27
451.172	49074.11
451.378	50692.01
451.584	49739.7
451.791	50614.18
451.997	50554.79
452.203	51009.44
452.409	51226.52
452.615	51238.81
452.821	49528.76
453.027	48902.08
453.233	51267.48
453.44	49643.45
453.646	50227.12
453.852	50050.99
454.058	51713.94
454.264	49100.73
454.47	50605.99
454.676	49203.13
454.882	50976.67
455.088	46258.15
455.294	47134.68
455.5	47892.43
455.705	48426.95
455.911	46512.1
456.117	45527.03
456.323	44902.4
456.529	42557.47
456.735	44709.89
456.941	43358.23
457.147	42653.73
457.352	41453.62
457.558	40900.67
457.764	41023.54
457.97	40169.54
458.176	39297.11
458.381	39305.3
458.587	37290.1
458.793	37775.47
458.999	35653.77
459.204	38017.13
459.41	36843.64
459.616	34535.58
459.821	34470.04
460.027	34697.37
460.233	33697.96
460.438	32213.18
460.644	32733.37
460.85	30888.15
461.055	30501.08
461.261	30177.5
461.466	28565.75
461.672	27529.48
461.878	29538.54
462.083	27472.14
462.289	27355.4
462.494	26964.24
462.7	25729.31
462.905	24774.96
463.111	25612.58
463.316	25547.04
463.522	24987.95
463.727	25307.43
463.932	25196.84
464.138	24746.29
464.343	25014.57
464.549	24099.13
464.754	25098.54
464.959	25180.46
465.165	24547.64
465.37	23707.97
465.575	23028.04
465.781	24037.69
465.986	24066.36
466.191	23247.18
466.397	22708.56
466.602	21655.9
466.807	22634.83
467.012	22403.41
467.218	22258.01
467.423	22012.25
467.628	22362.45
467.833	22997.32
468.038	22143.32
468.244	21696.86
468.449	22716.75
468.654	21735.77
468.859	21598.56
469.064	21563.75
469.269	20701.55
469.474	20959.59
469.679	21158.25
469.885	20423.03
470.09	21080.42
470.295	20611.44
470.5	20068.73
470.705	20130.17
470.91	19919.23
471.115	20017.53
471.32	20146.55
471.525	20113.78
471.73	19489.15
471.935	19251.59
472.139	18983.31
472.344	18737.55
472.549	18833.8
472.754	18536.85
472.959	18387.35
473.164	17723.8
473.369	17629.6
473.574	18368.91
473.778	18084.25
473.983	17670.56
474.188	17584.54
474.393	17027.49
474.598	17201.57
474.802	17238.44
475.007	16769.45
475.212	16910.76
475.417	16200.12
475.621	16083.38
475.826	16638.38
476.031	15808.95
476.235	15765.95
476.44	15856.06
476.645	15458.75
476.849	15663.55
477.054	15438.27
477.259	15006.15
477.463	14977.48
477.668	14475.73
477.872	14997.96
478.077	14610.89
478.282	14186.96
478.486	14051.8
478.691	14189.01
478.895	14168.53
479.1	14133.72
479.304	14070.23
479.509	13586.91
479.713	14059.99
479.918	13570.52
480.122	13177.31
480.326	13451.74
480.531	13564.38
480.735	13314.53
480.94	13388.25
481.144	13656.54
481.348	13246.94
481.553	13482.46
481.757	12863.97
481.961	13181.41
482.166	13285.86
482.37	13040.1
482.574	13099.49
482.778	12997.09
482.983	13173.22
483.187	12941.8
483.391	12988.9
483.595	13062.63
483.8	12771.82
484.004	12993
484.208	13068.77
484.412	12790.25
484.616	12812.78
484.821	13058.53
485.025	12839.4
485.229	13058.53
485.433	12841.45
485.637	12933.61
485.841	12876.26
486.045	12935.65
486.249	13060.58
486.453	12780.01
486.657	12825.06
486.861	13048.29
487.065	12528.11
487.269	12870.12
487.473	12777.96
487.677	13068.77
487.881	13144.55
488.085	12835.3
488.289	12956.13
488.493	12933.61
488.697	12853.73
488.901	13099.49
489.105	12843.49
489.309	13095.39
489.512	13029.86
489.716	12974.56
489.92	12911.08
490.124	12911.08
490.328	13300.19
490.531	13128.16
490.735	13265.38
490.939	13396.45
491.143	13304.29
491.346	13281.76
491.55	13588.96
491.754	13810.14
491.958	13435.36
492.161	13261.28
492.365	13715.93
492.569	13537.76
492.772	13533.66
492.976	13799.9
493.18	14019.03
493.383	13896.15
493.587	14096.85
493.79	14123.48
493.994	14180.82
494.197	14078.42
494.401	14223.83
494.605	14217.68
494.808	14528.97
495.012	14440.91
495.215	14717.39
495.419	14647.76
495.622	14535.12
495.825	15016.39
496.029	15004.1
496.232	15204.8
496.436	14952.9
496.639	15563.2
496.843	15278.53
497.046	15526.33
497.249	16071.09
497.453	15827.39
497.656	16161.2
497.859	15978.93
498.063	16445.87
498.266	16589.23
498.469	16597.42
498.673	17099.17
498.876	17140.13
499.079	17258.92
499.282	17369.51
499.485	17750.43
499.689	17582.49
499.892	17879.45
500.095	17678.75
500.298	18069.91
500.501	18100.63
500.705	18526.61
500.908	18897.29
501.111	19177.86
501.314	19220.87
501.517	19575.17
501.72	19587.46
501.923	19650.94
502.126	20322.68
502.329	20363.64
502.532	20324.72
502.735	20572.53
502.938	20795.76
503.141	21039.47
503.344	21393.76
503.547	21432.68
503.75	21500.26
503.953	21993.82
504.156	22301.01
504.359	22409.56
504.562	22671.7
504.765	23218.5
504.968	22595.92
505.17	23603.52
505.373	23337.29
505.576	23972.16
505.779	24207.67
505.982	24432.95
506.185	24908.08
506.387	24666.42
506.59	24697.14
506.793	25413.93
506.996	25364.78
507.198	26196.25
507.401	25796.9
507.604	26243.35
507.807	26550.55
508.009	26824.98
508.212	27126.03
508.415	27302.15
508.617	27666.69
508.82	27633.92
509.022	27715.84
509.225	28485.88
509.428	28584.18
509.63	28901.62
509.833	29012.21
510.035	29815.01
510.238	29479.14
510.44	29661.41
510.643	30329.05
510.845	30484.7
511.048	30423.26
511.25	30933.2
511.453	30882
511.655	31903.94
511.858	31537.35
512.06	32016.58
512.262	32559.29
512.465	32301.25
512.667	32893.11
512.87	33104.05
513.072	32966.84
513.274	33755.3
513.477	34185.38
513.679	34437.28
513.881	34492.57
514.084	34902.17
514.286	34629.79
514.488	35068.05
514.69	36051.08
514.893	35616.91
515.095	35936.39
515.297	36665.47
515.499	36550.78
515.701	37097.59
515.904	37111.92
516.106	37353.58
516.308	37720.17
516.51	38316.13
516.712	38275.17
516.914	38828.12
517.116	39102.55
517.318	39299.15
517.52	39565.39
517.722	39733.32
517.925	40325.19
518.127	40593.47
518.329	41005.11
518.531	40644.67
518.733	41285.68
518.935	41877.55
519.136	41488.43
519.338	42489.89
519.54	42723.36
519.742	42649.63
519.944	42805.28
520.146	43419.67
520.348	43534.35
520.55	43960.33
520.752	43354.13
520.954	44834.81
521.155	43898.89
521.357	44849.15
521.559	45357.05
521.761	45625.33
521.963	45637.62
522.164	45815.79
522.366	46114.79
522.568	46323.69
522.77	46479.33
522.971	47476.69
523.173	46645.22
523.375	47280.09
523.576	47261.66
523.778	47402.97
523.98	48107.47
524.181	48420.81
524.383	48015.31
524.584	48592.84
524.786	48617.41
524.988	48564.17
525.189	48955.33
525.391	49457.08
525.592	49643.45
525.794	49610.68
525.995	49805.23
526.197	49924.02
526.398	49657.78
526.6	50675.62
526.801	50212.78
527.003	50728.87
527.204	50438.06
527.406	50505.64
527.607	50927.52
527.808	51271.58
528.01	50436.01
528.211	50941.86
528.412	52113.3
528.614	51703.7
528.815	51593.11
529.016	51978.13
529.218	51560.34
529.419	51781.52
529.62	52135.82
529.822	51810.2
530.023	51883.92
530.224	52248.46
530.425	51957.65
530.626	51468.19
530.828	51384.22
531.029	52504.46
531.23	51941.27
531.431	52117.39
531.632	51869.59
531.833	52416.39
532.035	52244.37
532.236	52336.52
532.437	52537.22
532.638	52314
532.839	52422.54
533.04	52488.07
533.241	51785.62
533.442	52987.78
533.643	52666.25
533.844	52631.43
534.045	52856.71
534.246	52252.56
534.447	52813.7
534.648	52869
534.849	52520.84
535.05	52508.55
535.251	52803.46
535.451	52637.58
535.652	52780.93
535.853	52465.55
536.054	52785.03
536.255	53168
536.456	52074.38
536.657	53122.94
536.857	52692.87
537.058	52447.11
537.259	52694.92
537.46	52877.19
537.66	52391.82
537.861	53122.94
538.062	52582.28
538.263	52414.35
538.463	52381.58
538.664	52578.18
538.865	52436.87
539.065	52854.66
539.266	52330.38
539.466	52576.14
539.667	51787.67
539.868	52981.63
540.068	52402.06
540.269	52266.89
540.469	52682.63
540.67	52543.37
540.87	52365.2
541.071	52776.84
541.271	52518.79
541.472	52217.74
541.672	51808.15
541.873	52012.94
542.073	51646.36
542.274	52449.16
542.474	52291.47
542.675	51978.13
542.875	52877.19
543.075	52078.48
543.276	51529.62
543.476	52293.52
543.676	51926.93
543.877	52490.12
544.077	51971.99
544.277	52291.47
544.478	51773.33
544.678	52131.73
544.878	52096.91
545.078	52287.37
545.279	51773.33
545.479	51654.55
545.679	52297.61
545.879	52393.87
546.079	51791.76
546.28	51808.15
546.48	51498.9
546.68	51863.44
546.88	52176.78
547.08	51632.02
547.28	51810.2
547.48	51503
547.68	51879.83
547.88	51222.43
548.081	51947.41
548.281	51787.67
548.481	51230.62
548.681	51728.28
548.881	51836.82
549.081	51720.09
549.28	51220.38
549.48	51898.26
549.68	51333.02
549.88	51941.27
550.08	51836.82
550.28	52242.32
550.48	51333.02
550.68	52045.71
550.88	51505.05
551.08	51099.55
551.279	51554.2
551.479	51079.07
551.679	51267.48
551.879	51431.32
552.079	51560.34
552.278	51218.33
552.478	51316.64
552.678	51087.26
552.878	51189.66
553.077	50814.88
553.277	50778.02
553.477	51537.82
553.676	50978.72
553.876	51017.63
554.076	50843.55
554.275	50880.42
554.475	50595.75
554.674	50859.94
554.874	50735.01
555.074	50968.48
555.273	50784.16
555.473	51091.36
555.672	50921.38
555.872	50958.24
556.071	50692.01
556.271	51034.02
556.47	50694.05
556.67	50341.8
556.869	50526.12
557.068	50468.78
557.268	49940.4
557.467	50401.19
557.667	50227.12
557.866	50204.59
558.065	50345.9
558.265	50161.58
558.464	49899.44
558.663	50329.51
558.863	49655.73
559.062	50311.08
559.261	49616.82
559.461	50306.99
559.66	49758.13
559.859	49981.36
560.058	49559.48
560.258	49993.65
560.457	49332.15
560.656	50161.58
560.855	49604.53
561.054	49850.29
561.253	49743.8
561.453	49285.05
561.652	49872.82
561.851	49758.13
562.05	49567.67
562.249	48842.69
562.448	49383.35
562.647	49338.3
562.846	49137.6
563.045	48885.7
563.244	48515.01
563.443	49158.08
563.642	48576.45
563.841	48940.99
564.04	48826.31
564.239	49196.99
564.438	48359.37
564.637	48889.79
564.836	49039.29
565.035	48007.12
565.234	48451.53
565.432	48467.91
565.631	48197.58
565.83	48195.53
566.029	48267.21
566.228	47724.5
566.427	47863.76
566.625	48213.96
566.824	47482.84
567.023	47921.1
567.222	47267.8
567.42	48441.29
567.619	47312.86
567.818	47626.2
568.016	47448.02
568.215	48148.43
568.414	47302.62
568.612	47644.63
568.811	47441.88
569.01	47585.24
569.208	46530.53
569.407	47124.44
569.605	46723.04
569.804	47357.91
570.002	46698.47
570.201	47069.15
570.4	47009.76
570.598	46589.92
570.797	46811.1
570.995	46368.74
571.193	46135.27
571.392	46778.34
571.59	46045.16
571.789	46503.91
571.987	46004.2
572.186	45920.24
572.384	46008.3
572.582	45737.97
572.781	46354.41
572.979	45404.15
573.177	45948.91
573.376	45840.37
573.574	45379.57
573.772	45533.17
573.971	45273.08
574.169	44980.22
574.367	45045.76
574.565	45133.82
574.763	44767.23
574.962	44574.72
575.16	44603.39
575.358	44756.99
575.556	44161.03
575.754	44670.98
575.952	44435.46
576.151	44369.93
576.349	43833.36
576.547	44132.36
576.745	44570.63
576.943	44253.19
577.141	43962.38
577.339	43804.69
577.537	43470.87
577.735	43923.47
577.933	43028.51
578.131	43515.92
578.329	43339.8
578.527	43135
578.725	42913.82
578.923	43591.7
579.121	42969.12
579.319	43200.54
579.516	43401.24
579.714	43069.47
579.912	42911.77
580.11	42448.93
580.308	42690.59
580.506	42563.62
580.704	41928.75
580.901	42479.65
581.099	42649.63
581.297	42043.43
581.495	41965.61
581.692	42264.61
581.89	41936.94
582.088	42231.85
582.285	41310.26
582.483	41648.18
582.681	42156.07
582.878	41445.43
583.076	41465.91
583.274	41711.66
583.471	41236.53
583.669	41574.45
583.866	40820.8
584.064	40966.2
584.262	40681.53
584.459	41097.27
584.657	40861.76
584.854	40949.82
585.052	40046.66
585.249	40765.5
585.447	40503.36
585.644	39848.01
585.841	40048.71
586.039	40505.41
586.236	39419.99
586.434	39628.88
586.631	39594.06
586.828	39831.63
587.026	39667.79
587.223	39526.48
587.42	38891.61
587.618	39104.6
587.815	39143.51
588.012	38987.86
588.21	39131.22
588.407	39340.11
588.604	38795.35
588.801	38426.72
588.999	38570.08
589.196	38574.17
589.393	38711.39
589.59	38193.25
589.787	38111.33
589.984	37998.69
590.182	37765.23
590.379	38039.65
590.576	37810.28
590.773	37599.34
590.97	37533.81
591.167	37806.19
591.364	37410.93
591.561	37347.44
591.758	37161.08
591.955	37019.77
592.152	37249.14
592.349	36962.42
592.546	37038.2
592.743	37210.23
592.94	36509.82
593.137	36784.25
593.334	36382.85
593.531	36159.62
593.727	36536.45
593.924	36372.61
594.121	36262.02
594.318	36411.52
594.515	35664.01
594.712	35850.38
594.908	35698.83
595.105	36051.08
595.302	35317.9
595.499	35651.72
595.696	35258.51
595.892	34883.73
596.089	34842.77
596.286	35246.22
596.482	34928.79
596.679	35074.2
596.876	34838.68
597.072	34437.28
597.269	34658.46
597.466	34363.55
597.662	33902.76
597.859	34244.77
598.055	34236.58
598.252	33769.64
598.448	33915.05
598.645	33611.95
598.841	33650.86
599.038	33489.07
599.234	33837.22
599.431	33169.58
599.627	33126.58
599.824	33446.06
600.02	33470.64
600.217	33302.7
600.413	32948.4
600.609	32917.68
600.806	32616.63
601.002	32782.52
601.198	32516.28
601.395	32409.79
601.591	32600.25
601.787	32147.65
601.984	31910.08
602.18	32403.64
602.376	32022.72
602.572	32282.81
602.769	31916.23
602.965	31678.66
603.161	31797.45
603.357	31580.36
603.553	31428.81
603.75	31418.57
603.946	31668.42
604.142	31426.76
604.338	30709.97
604.534	30959.83
604.73	31181.01
604.926	30793.94
605.122	30974.16
605.318	30327
605.514	30621.91
605.71	30554.33
605.906	30410.97
606.102	30363.87
606.298	30552.28
606.494	30382.3
606.69	30617.82
606.886	30169.31
607.082	29724.9
607.278	30410.97
607.474	29815.01
607.67	30091.49
607.866	29343.98
608.062	29874.4
608.257	29509.86
608.453	29661.41
608.649	29331.69
608.845	29585.64
609.041	29749.48
609.236	29434.09
609.432	29692.13
609.628	29386.99
609.824	29270.25
610.019	29057.26
610.215	29196.53
610.411	29237.48
610.606	28764.4
610.802	29042.93
610.998	29020.4
611.193	29022.45
611.389	28922.1
611.584	28586.23
611.78	28528.89
611.976	28528.89
612.171	28682.49
612.367	28473.59
612.562	28270.84
612.758	28117.25
612.953	28338.43
613.149	28713.2
613.344	28039.42
613.539	28514.55
613.735	28465.4
613.93	28303.61
614.126	28481.78
614.321	28363
614.517	28102.91
614.712	27922.69
614.907	27836.67
615.103	27982.08
615.298	27543.81
615.493	28119.29
615.688	27599.11
615.884	28330.23
616.079	27425.03
616.274	27887.87
616.47	27396.36
616.665	27187.47
616.86	27390.22
617.055	27500.81
617.25	27222.28
617.445	27826.43
617.641	26988.81
617.836	27033.87
618.031	26601.75
618.226	26898.7
618.421	26835.22
618.616	27021.58
618.811	26798.35
619.006	26960.14
619.201	26190.11
619.396	26499.35
619.591	26208.54
619.786	26573.08
619.981	26132.76
620.176	26439.96
620.371	25827.62
620.566	26259.74
620.761	25592.1
620.956	25946.4
621.151	25614.63
621.346	25690.4
621.541	25219.37
621.735	25336.1
621.93	25141.55
622.125	25291.05
622.32	24934.7
622.515	25147.69
622.709	24811.82
622.904	24789.3
623.099	24346.94
623.294	24383.8
623.488	24199.48
623.683	24103.23
623.878	23884.09
624.072	23832.9
624.267	24107.32
624.462	23578.95
624.656	23501.12
624.851	23619.91
625.046	23351.62
625.24	23474.5
625.435	22999.37
625.629	23163.21
625.824	22722.9
626.018	23177.54
626.213	22024.54
626.407	22548.82
626.602	22137.18
626.796	22366.55
626.991	22427.99
627.185	21987.68
627.38	21770.59
627.574	21698.91
627.768	21430.63
627.963	21829.98
628.157	21184.87
628.352	21203.3
628.546	20998.51
628.74	21348.71
628.935	20769.13
629.129	20887.92
629.323	20607.34
629.517	20703.6
629.712	20214.13
629.906	20191.61
630.1	20158.84
630.294	20201.85
630.489	19956.09
630.683	20013.43
630.877	19841.4
631.071	19827.07
631.265	19700.09
631.459	19331.46
631.653	19552.64
631.848	19138.95
632.042	19329.41
632.236	19173.77
632.43	18979.21
632.624	19095.94
632.818	18901.39
633.012	18555.28
633.206	18708.88
633.4	18604.43
633.594	18405.78
633.788	18815.37
633.982	18530.7
634.176	18571.66
634.369	18143.64
634.563	17973.66
634.757	18026.9
634.951	18014.62
635.145	17820.06
635.339	17990.04
635.533	17502.62
635.726	17564.06
635.92	17148.33
636.114	17306.02
636.308	17197.48
636.501	17195.43
636.695	16955.82
636.889	17078.69
637.083	16964.01
637.276	16740.78
637.47	16437.68
637.664	16697.77
637.857	16437.68
638.051	16435.63
638.244	16515.5
638.438	16447.92
638.632	16126.39
638.825	15958.46
639.019	15931.83
639.212	15704.51
639.406	16050.61
639.599	15716.79
639.793	15856.06
639.986	15497.66
640.18	15714.75
640.373	15301.06
640.567	15366.59
640.76	15059.4
640.954	15100.36
641.147	15116.74
641.34	15212.99
641.534	15163.84
641.727	14764.49
641.92	14909.9
642.114	14567.88
642.307	14744.01
642.5	14549.45
642.694	14463.44
642.887	14418.38
643.08	14651.85
643.273	14127.57
643.467	14315.98
643.66	14117.33
643.853	14125.52
644.046	13816.28
644.239	13816.28
644.432	13865.43
644.626	13728.22
644.819	13832.66
645.012	13670.87
645.205	13621.72
645.398	13646.3
645.591	13490.65
645.784	13541.85
645.977	13339.1
646.17	13453.79
646.363	13091.3
646.556	13095.39
646.749	12915.17
646.942	13040.1
647.135	12923.37
647.328	12888.55
647.521	12999.14
647.714	12671.47
647.907	12487.15
648.099	12487.15
648.292	12675.56
648.485	12456.43
648.678	12464.62
648.871	12239.34
649.064	12304.88
649.256	12327.41
649.449	12313.07
649.642	12304.88
649.835	11954.68
650.027	11956.72
650.22	11784.69
650.413	11788.79
650.605	11872.76
650.798	11627
650.991	11459.07
651.183	11479.55
651.376	11438.59
651.568	11463.16
651.761	11473.4
651.954	11254.27
652.146	11467.26
652.339	11434.49
652.531	11258.37
652.724	11184.64
652.916	10973.7
653.109	10859.01
653.301	10852.87
653.494	11063.81
653.686	10650.12
653.879	10998.27
654.071	10709.51
654.263	10639.88
654.456	10918.4
654.648	10850.82
654.84	10445.32
655.033	10529.29
655.225	10437.13
655.417	10297.87
655.61	10326.54
655.802	10439.18
655.994	10234.38
656.186	10394.12
656.379	10181.14
656.571	10109.46
656.763	9835.03
656.955	9882.13
657.148	9886.23
657.34	9943.57
657.532	9572.89
657.724	9740.82
657.916	9787.93
658.108	9742.87
658.3	9556.5
658.492	9470.49
658.684	9370.14
658.876	9284.12
659.068	9374.24
659.26	9310.75
659.452	9454.11
659.644	9191.97
659.836	9275.93
660.028	9359.9
660.22	8933.92
660.412	9175.58
660.604	9087.52
660.796	8829.48
660.988	8884.77
661.18	8806.95
661.372	8819.24
661.563	8731.17
661.755	8774.18
661.947	8634.92
662.139	8483.37
662.331	8661.54
662.522	8466.99
662.714	8311.34
662.906	8512.04
663.097	8493.61
663.289	8385.07
663.481	8409.64
663.673	8442.41
663.864	8151.6
664.056	8131.12
664.247	8217.13
664.439	8114.73
664.631	7946.8
664.822	7993.9
665.014	7989.81
665.205	8065.58
665.397	7850.55
665.588	7819.83
665.78	7893.55
665.971	7825.97
666.163	7983.66
666.354	7651.89
666.546	7762.48
666.737	7488.06
666.929	7561.78
667.12	7555.64
667.311	7604.79
667.503	7373.37
667.694	7361.08
667.885	7447.1
668.077	7467.58
668.268	7416.38
668.459	7301.69
668.651	7234.11
668.842	7180.86
669.033	7178.81
669.224	7152.19
669.416	7135.81
669.607	7211.58
669.798	7162.43
669.989	7100.99
670.18	7084.61
670.371	6922.82
670.563	6859.33
670.754	6939.2
670.945	6998.59
671.136	6933.06
671.327	6908.48
671.518	6697.54
671.709	6593.09
671.9	6859.33
672.091	6734.4
672.282	6640.2
672.473	6617.67
672.664	6664.77
672.855	6625.86
673.046	6382.15
673.237	6451.78
673.428	6500.94
673.619	6603.33
673.809	6414.92
674	6380.11
674.191	6312.52
674.382	6388.3
674.573	6337.1
674.764	6136.4
674.954	6310.47
675.145	6167.12
675.336	6224.46
675.527	6253.13
675.717	6152.78
675.908	6152.78
676.099	6210.12
676.289	6099.53
676.48	6236.75
676.671	6048.33
676.861	6177.36
677.052	6011.47
677.243	5892.69
677.433	6042.19
677.624	5931.6
677.814	5915.22
678.005	5952.08
678.195	5997.14
678.386	6058.57
678.576	5937.74
678.767	5890.64
678.957	5984.85
679.148	5921.36
679.338	5698.13
679.529	5784.15
679.719	5620.31
679.909	5775.95
680.1	5687.89
680.29	5808.72
680.481	5634.64
680.671	5593.69
680.861	5522.01
681.052	5567.06
681.242	5698.13
681.432	5587.54
681.622	5683.8
681.813	5450.33
682.003	5573.21
682.193	5534.29
682.383	5509.72
682.573	5358.17
682.764	5315.16
682.954	5288.54
683.144	5386.84
683.334	5325.4
683.524	5372.5
683.714	5343.83
683.904	5315.16
684.094	5331.55
684.284	5294.68
684.474	5198.43
684.664	5290.59
684.854	5145.18
685.044	5169.76
685.234	5106.27
685.424	5261.91
685.614	5102.17
685.804	5075.55
685.994	5091.93
686.184	5040.73
686.374	5053.02
686.564	4809.31
686.753	4995.68
686.943	5022.3
687.133	4911.71
687.323	4809.31
687.513	4901.47
687.702	4790.88
687.892	4751.97
688.082	4825.7
688.272	4897.38
688.461	4758.11
688.651	4735.59
688.841	4649.57
689.03	4708.96
689.22	4825.7
689.41	4799.07
689.599	4706.91
689.789	4551.27
689.979	4547.17
690.168	4536.93
690.358	4498.02
690.547	4448.87
690.737	4455.01
690.926	4360.81
691.116	4319.85
691.305	4387.43
691.495	4309.61
691.684	4309.61
691.874	4260.46
692.063	4321.9
692.252	4287.08
692.442	4285.03
692.631	4215.4
692.82	4276.84
693.01	4049.52
693.199	4213.35
693.388	4092.52
693.578	4174.44
693.767	4051.56
693.956	4020.85
694.146	4076.14
694.335	3869.3
694.524	3897.97
694.713	4082.28
694.902	3936.88
695.092	4043.37
695.281	3873.39
695.47	4039.28
695.659	3904.11
695.848	3891.82
696.037	3828.34
696.226	3850.86
696.415	3785.33
696.604	3932.78
696.793	3857.01
696.982	3703.41
697.171	3838.58
697.36	3791.47
697.549	3607.16
697.738	3633.78
697.927	3646.07
698.116	3770.99
698.305	3584.63
698.494	3662.45
698.683	3566.2
698.872	3531.38
699.061	3533.43
699.25	3680.88
699.438	3658.35
699.627	3527.28
699.816	3615.35
700.005	3512.95
700.193	3527.28
700.382	3396.21
700.571	3535.48
700.76	3566.2
700.948	3404.41
701.137	3416.69
701.326	3398.26
701.514	3326.58
701.703	3480.18
701.892	3396.21
702.08	3291.77
702.269	3424.89
702.457	3371.64
702.646	3189.37
702.834	3334.78
703.023	3345.02
703.212	3275.38
703.4	3336.82
703.589	3246.71
703.777	3287.67
703.965	3285.62
704.154	3332.73
704.342	3164.79
704.531	3064.44
704.719	3119.74
704.907	3203.71
705.096	3234.43
705.284	3308.15
705.472	3082.88
705.661	3213.95
705.849	3207.8
706.037	3222.14
706.226	3136.12
706.414	3164.79
706.602	3193.47
706.79	3146.36
706.979	3031.68
707.167	3091.07
707.355	3119.74
707.543	3142.27
707.731	3021.44
707.919	3154.55
708.107	3111.55
708.296	3015.29
708.484	3046.01
708.672	2933.37
708.86	2966.14
709.048	3050.11
709.236	3011.2
709.424	3076.73
709.612	3005.05
709.8	2966.14
709.988	2896.51
710.176	2955.9
710.364	3121.79
710.551	3070.59
710.739	2966.14
710.927	2941.57
711.115	2990.72
711.303	2802.3
711.491	3015.29
711.679	3000.96
711.866	2929.28
712.054	2876.03
712.242	2957.95
712.43	3013.24
712.617	2906.75
712.805	2818.69
712.993	2781.82
713.181	2992.77
713.368	2882.17
713.556	3009.15
713.744	2867.84
713.931	2962.05
714.119	2927.23
714.306	2880.13
714.494	2896.51
714.682	2943.61
714.869	2925.18
715.057	2867.84
715.244	2792.06
715.432	2964.09
715.619	2820.74
715.807	2759.3
715.994	2806.4
716.182	2808.45
716.369	2794.11
716.556	2865.79
716.744	2687.62
716.931	2828.93
717.119	2873.98
717.306	2773.63
717.493	2824.83
717.681	2794.11
717.868	2880.13
718.055	2828.93
718.242	2871.93
718.43	2798.21
718.617	2865.79
718.804	2796.16
718.991	2691.71
719.179	2865.79
719.366	2607.75
719.553	2855.55
719.74	2730.62
719.927	2685.57
720.114	2744.96
720.301	2716.29
720.488	2646.66
720.676	2753.15
720.863	2683.52
721.05	2744.96
721.237	2663.04
721.424	2710.15
721.611	2732.67
721.798	2710.15
721.985	2671.23
722.172	2706.05
722.358	2681.47
722.545	2873.98
722.732	2771.58
722.919	2939.52
723.106	2884.22
723.293	2603.65
723.48	2749.06
723.667	2753.15
723.853	2691.71
724.04	2796.16
724.227	2775.68
724.414	2769.54
724.6	2542.21
724.787	2699.91
724.974	2747.01
725.161	2728.58
725.347	2822.78
725.534	2728.58
725.72	2816.64
725.907	2744.96
726.094	2822.78
726.28	2835.07
726.467	2665.09
726.653	2847.36
726.84	2708.1
727.027	2769.54
727.213	2732.67
727.4	2769.54
727.586	2806.4
727.773	2781.82
727.959	2685.57
728.145	2857.6
728.332	2839.17
728.518	2736.77
728.705	2708.1
728.891	2747.01
729.077	2810.5
729.264	2816.64
729.45	2810.5
729.636	2740.86
729.823	2833.02
730.009	2683.52
730.195	2800.26
730.382	2663.04
730.568	2804.35
730.754	2906.75
730.94	2833.02
731.126	2964.09
731.313	2714.24
731.499	2869.89
731.685	2830.98
731.871	2847.36
732.057	2714.24
732.243	2853.5
732.429	2660.99
732.615	2747.01
732.801	2765.44
732.987	2708.1
733.173	2853.5
733.359	2736.77
733.545	2663.04
733.731	2642.56
733.917	2787.97
734.103	2939.52
734.289	2798.21
734.475	2804.35
734.661	2826.88
734.847	2785.92
735.033	2626.18
735.219	2781.82
735.404	2876.03
735.59	2806.4
735.776	2751.1
735.962	2794.11
736.148	2755.2
736.333	2753.15
736.519	2740.86
736.705	2835.07
736.89	2859.65
737.076	2865.79
737.262	2773.63
737.447	2722.43
737.633	2769.54
737.819	2775.68
738.004	2728.58
738.19	2806.4
738.375	2660.99
738.561	2712.19
738.747	2701.95
738.932	2691.71
739.118	2749.06
739.303	2765.44
739.489	2701.95
739.674	2777.73
739.859	2861.7
740.045	2677.38
740.23	2689.67
740.416	2611.84
740.601	2642.56
740.786	2669.19
740.972	2712.19
741.157	2685.57
741.342	2701.95
741.528	2679.43
741.713	2769.54
741.898	2624.13
742.084	2818.69
742.269	2630.27
742.454	2671.23
742.639	2597.51
742.824	2650.75
743.01	2620.03
743.195	2693.76
743.38	2515.59
743.565	2679.43
743.75	2628.23
743.935	2589.32
744.12	2583.17
744.305	2636.42
744.49	2572.93
744.675	2597.51
744.86	2515.59
745.045	2624.13
745.23	2558.6
745.415	2640.51
745.6	2558.6
745.785	2374.28
745.97	2540.16
746.155	2570.88
746.34	2542.21
746.525	2390.66
746.71	2450.05
746.895	2314.89
747.079	2384.52
747.264	2402.95
747.449	2505.35
747.634	2368.13
747.819	2519.68
748.003	2323.08
748.188	2294.41
748.373	2351.75
748.557	2302.6
748.742	2290.31
748.927	2298.5
749.111	2292.36
749.296	2261.64
749.481	2255.5
749.665	2159.24
749.85	2206.35
750.034	2237.06
750.219	2226.82
750.404	2263.69
750.588	2192.01
750.773	2046.6
750.957	2247.3
751.141	2124.43
751.326	2161.29
751.51	2134.67
751.695	2183.82
751.879	2159.24
752.064	2138.76
752.248	2046.6
752.432	2116.23
752.617	1999.5
752.801	1954.44
752.985	2013.84
753.17	2028.17
753.354	1946.25
753.538	2073.23
753.722	1989.26
753.907	1999.5
754.091	1938.06
754.275	2028.17
754.459	1960.59
754.643	1858.19
754.828	1893.01
755.012	1872.53
755.196	1733.26
755.38	1872.53
755.564	1929.87
755.748	1806.99
755.932	1827.47
756.116	1725.07
756.3	1802.9
756.484	1845.9
756.668	1723.02
756.852	1706.64
757.036	1743.5
757.22	1735.31
757.404	1776.27
757.588	1759.89
757.772	1733.26
757.956	1630.87
758.14	1710.74
758.323	1618.58
758.507	1766.03
758.691	1614.48
758.875	1647.25
759.059	1575.57
759.242	1594
759.426	1698.45
759.61	1604.24
759.794	1624.72
759.977	1569.43
760.161	1587.86
760.345	1610.39
760.528	1565.33
760.712	1548.95
760.895	1487.51
761.079	1505.94
761.263	1538.71
761.446	1491.6
761.63	1473.17
761.813	1522.32
761.997	1419.93
762.18	1415.83
762.364	1446.55
762.547	1460.88
762.731	1514.13
762.914	1483.41
763.098	1456.79
763.281	1397.4
763.464	1510.04
763.648	1383.06
763.831	1409.69
764.015	1360.53
764.198	1405.59
764.381	1376.92
764.564	1319.57
764.748	1421.97
764.931	1438.36
765.114	1348.25
765.297	1405.59
765.481	1313.43
765.664	1338.01
765.847	1403.54
766.03	1338.01
766.213	1251.99
766.397	1417.88
766.58	1325.72
766.763	1397.4
766.946	1299.09
767.129	1317.53
767.312	1268.38
767.495	1284.76
767.678	1266.33
767.861	1280.66
768.044	1297.05
768.227	1295
768.41	1196.7
768.593	1217.18
768.776	1251.99
768.959	1172.12
769.142	1235.61
769.324	1254.04
769.507	1251.99
769.69	1241.75
769.873	1254.04
770.056	1182.36
770.239	1147.55
770.421	1176.22
770.604	1159.83
770.787	1129.11
770.97	1198.74
771.152	1090.2
771.335	1184.41
771.518	1161.88
771.7	1135.26
771.883	1092.25
772.066	1135.26
772.248	1202.84
772.431	1200.79
772.613	1073.82
772.796	1157.79
772.978	1141.4
773.161	1096.35
773.343	1104.54
773.526	983.71
773.708	1022.62
773.891	1028.76
774.073	998.04
774.256	1039
774.438	1036.95
774.621	1008.28
774.803	1075.87
774.985	1000.09
775.168	1026.72
775.35	942.75
775.532	1008.28
775.715	1026.72
775.897	916.12
776.079	959.13
776.261	944.8
776.444	899.74
776.626	975.52
776.808	842.4
776.99	875.17
777.173	793.25
777.355	930.46
777.537	914.08
777.719	1002.14
777.901	873.12
778.083	789.15
778.265	907.93
778.447	850.59
778.629	846.49
778.811	930.46
778.993	899.74
779.175	909.98
779.357	869.02
779.539	838.3
779.721	907.93
779.903	783.01
780.085	791.2
780.267	752.29
780.449	760.48
780.631	750.24
780.812	811.68
780.994	795.29
781.176	778.91
781.358	850.59
781.54	778.91
781.721	705.18
781.903	717.47
782.085	760.48
782.267	699.04
782.448	805.53
782.63	799.39
782.812	750.24
782.993	692.9
783.175	758.43
783.357	715.42
783.538	686.75
783.72	670.37
783.901	653.98
784.083	694.94
784.264	660.13
784.446	653.98
784.627	541.35
784.809	725.66
784.99	635.55
785.172	619.17
785.353	635.55
785.535	670.37
785.716	635.55
785.897	578.21
786.079	604.83
786.26	553.63
786.441	643.74
786.623	567.97
786.804	537.25
786.985	615.07
787.167	606.88
787.348	541.35
787.529	547.49
787.71	584.35
787.891	627.36
788.073	543.39
788.254	488.1
788.435	561.83
788.616	518.82
788.797	541.35
788.978	473.76
789.159	504.48
789.34	522.91
789.522	524.96
789.703	522.91
789.884	516.77
790.065	484
790.246	508.58
790.427	471.72
790.607	461.48
790.788	451.24
790.969	426.66
791.15	506.53
791.331	529.06
791.512	504.48
791.693	434.85
791.874	486.05
792.054	471.72
792.235	447.14
792.416	449.19
792.597	406.18
792.778	469.67
792.958	469.67
793.139	539.3
793.32	434.85
793.5	395.94
793.681	381.6
793.862	434.85
794.042	475.81
794.223	352.93
794.404	477.86
794.584	383.65
794.765	397.99
794.945	373.41
795.126	397.99
795.306	383.65
795.487	279.21
795.667	340.65
795.848	522.91
796.028	389.8
796.209	352.93
796.389	387.75
796.57	438.95
796.75	328.36
796.93	428.71
797.111	389.8
797.291	379.56
797.471	361.13
797.652	328.36
797.832	307.88
798.012	344.74
798.192	357.03
798.373	367.27
798.553	371.37
798.733	373.41
798.913	318.12
799.093	334.5
799.274	389.8
799.454	352.93
799.634	318.12
799.814	381.6
799.994	314.02
800.174	410.28
800.354	299.69
800.534	318.12
800.714	275.11
800.894	293.54
801.074	215.72
801.254	291.49
801.434	377.51
801.614	238.25
801.794	275.11
801.974	637.6
802.154	209.58
802.334	422.56
802.514	314.02
802.693	320.17
802.873	332.45
803.053	371.37
803.233	305.83
803.413	289.45
803.592	336.55
803.772	230.06
803.952	242.34
804.131	236.2
804.311	266.92
804.491	406.18
804.67	258.73
804.85	240.3
805.03	320.17
805.209	207.53
805.389	309.93
805.568	215.72
805.748	234.15
805.928	248.49
806.107	228.01
806.287	264.87
806.466	275.11
806.646	236.2
806.825	221.86
807.004	258.73
807.184	234.15
807.363	240.3
807.543	238.25
807.722	230.06
807.901	252.58
808.081	260.77
808.26	248.49
808.439	281.25
808.619	246.44
808.798	244.39
808.977	262.82
809.156	213.67
809.336	225.96
809.515	232.1
809.694	268.97
809.873	223.91
810.052	225.96
810.231	223.91
810.411	221.86
810.59	223.91
810.769	258.73
810.948	281.25
811.127	199.34
811.306	154.28
811.485	199.34
811.664	254.63
811.843	252.58
812.022	221.86
812.201	154.28
812.38	148.14
812.559	203.43
812.737	283.3
812.916	172.71
813.095	152.23
813.274	248.49
813.453	172.71
813.632	244.39
813.811	254.63
813.989	197.29
814.168	133.8
814.347	111.27
814.526	187.05
814.704	213.67
814.883	256.68
815.062	160.42
815.24	262.82
815.419	197.29
815.598	94.89
815.776	213.67
815.955	213.67
816.133	76.46
816.312	164.52
816.49	242.34
816.669	234.15
816.847	197.29
817.026	225.96
817.204	158.38
817.383	156.33
817.561	160.42
817.74	164.52
817.918	162.47
818.097	223.91
818.275	193.19
818.453	164.52
818.632	180.9
818.81	148.14
818.988	123.56
819.167	152.23
819.345	137.9
819.523	121.51
819.701	103.08
819.879	182.95
820.058	139.94
820.236	162.47
820.414	176.81
820.592	160.42
820.77	131.75
820.948	234.15
821.127	131.75
821.305	168.62
821.483	123.56
821.661	113.32
821.839	144.04
822.017	125.61
822.195	72.36
822.373	125.61
822.551	123.56
822.729	92.84
822.907	148.14
823.085	193.19
823.262	101.03
823.44	107.18
823.618	193.19
823.796	160.42
823.974	180.9
824.152	90.79
824.329	141.99
824.507	141.99
824.685	201.38
824.863	137.9
825.04	90.79
825.218	141.99
825.396	195.24
825.574	105.13
825.751	123.56
825.929	80.55
826.107	187.05
826.284	103.08
826.462	127.66
826.639	90.79
826.817	90.79
826.994	98.99
827.172	109.23
827.349	156.33
827.527	160.42
827.704	129.7
827.882	90.79
828.059	119.46
828.237	141.99
828.414	234.15
828.591	187.05
828.769	92.84
828.946	90.79
829.124	144.04
829.301	129.7
829.478	121.51
829.655	209.58
829.833	82.6
830.01	55.98
830.187	131.75
830.364	123.56
830.542	55.98
830.719	150.18
830.896	123.56
831.073	53.93
831.25	113.32
831.427	96.94
831.604	137.9
831.782	33.45
831.959	148.14
832.136	90.79
832.313	86.7
832.49	189.1
832.667	64.17
832.844	86.7
833.021	133.8
833.198	103.08
833.374	70.31
833.551	88.75
833.728	70.31
833.905	107.18
834.082	72.36
834.259	60.07
834.436	68.27
834.612	60.07
834.789	66.22
834.966	35.5
835.143	127.66
835.319	111.27
835.496	107.18
835.673	25.26
835.85	70.31
836.026	62.12
836.203	82.6
836.38	105.13
836.556	127.66
836.733	70.31
836.909	84.65
837.086	76.46
837.262	105.13
837.439	41.64
837.616	164.52
837.792	66.22
837.968	86.7
838.145	98.99
838.321	125.61
838.498	74.41
838.674	127.66
838.851	123.56
839.027	64.17
839.203	-15.7
839.38	47.79
839.556	125.61
839.732	82.6
839.909	29.35
840.085	64.17
840.261	49.83
840.437	53.93
840.614	94.89
840.79	51.88
840.966	19.11
841.142	-23.89
841.318	58.03
841.494	25.26
841.671	17.07
841.847	113.32
842.023	78.51
842.199	119.46
842.375	60.07
842.551	58.03
842.727	60.07
842.903	117.42
843.079	76.46
843.255	74.41
843.431	10.92
843.607	49.83
843.783	47.79
843.959	92.84
844.134	76.46
844.31	144.04
844.486	45.74
844.662	72.36
844.838	84.65
845.013	76.46
845.189	55.98
845.365	123.56
845.541	62.12
845.716	84.65
845.892	105.13
846.068	92.84
846.244	17.07
846.419	94.89
846.595	53.93
846.77	60.07
846.946	60.07
847.122	-9.56
847.297	35.5
847.473	60.07
847.648	72.36
847.824	96.94
847.999	76.46
848.175	86.7
848.35	68.27
848.526	80.55
848.701	82.6
848.876	64.17
849.052	68.27
849.227	49.83
849.403	21.16
849.578	64.17
849.753	17.07
849.929	33.45
850.104	68.27
850.279	-15.7
850.454	113.32
850.63	53.93
850.805	12.97
850.98	39.59
851.155	115.37
851.33	-13.65
851.505	-27.99
851.681	39.59
851.856	33.45
852.031	98.99
852.206	80.55
852.381	23.21
852.556	119.46
852.731	60.07
852.906	55.98
853.081	101.03
853.256	152.23
853.431	15.02
853.606	49.83
853.781	-3.41
853.956	6.83
854.131	58.03
854.305	62.12
854.48	17.07
854.655	-9.56
854.83	-15.7
855.005	92.84
855.18	117.42
855.354	33.45
855.529	62.12
855.704	4.78
855.879	29.35
856.053	-7.51
856.228	70.31
856.403	66.22
856.577	162.47
856.752	107.18
856.926	25.26
857.101	-15.7
857.276	43.69
857.45	-7.51
857.625	90.79
857.799	35.5
857.974	51.88
858.148	33.45
858.323	152.23
858.497	-1.37
858.672	6.83
858.846	19.11
859.02	64.17
859.195	-11.61
859.369	-40.28
859.543	45.74
859.718	-5.46
859.892	43.69
860.066	84.65
860.241	-7.51
860.415	2.73
860.589	29.35
860.763	23.21
860.938	39.59
861.112	39.59
861.286	6.83
861.46	-40.28
861.634	27.31
861.808	76.46
861.982	-15.7
862.157	29.35
862.331	58.03
862.505	39.59
862.679	33.45
862.853	2.73
863.027	62.12
863.201	17.07
863.375	88.75
863.549	62.12
863.722	58.03
863.896	49.83
864.07	-25.94
864.244	29.35
864.418	-11.61
864.592	0.68
864.766	8.87
864.939	29.35
865.113	-5.46
865.287	66.22
865.461	29.35
865.634	-7.51
865.808	27.31
865.982	25.26
866.156	23.21
866.329	53.93
866.503	-38.23
866.676	90.79
866.85	-48.47
867.024	82.6
867.197	-17.75
867.371	-23.89
867.544	62.12
867.718	-56.66
867.891	-62.8
868.065	4.78
868.238	41.64
868.412	15.02
868.585	49.83
868.759	8.87
868.932	45.74
869.105	10.92
869.279	-3.41
869.452	8.87
869.625	41.64
869.799	-66.9
869.972	-56.66
870.145	-3.41
870.319	-23.89
870.492	88.75
870.665	-23.89
870.838	31.4
871.011	-32.08
871.185	92.84
871.358	-32.08
871.531	55.98
871.704	45.74
871.877	-19.8
872.05	68.27
872.223	-36.18
872.396	33.45
872.569	60.07
872.742	12.97
872.915	78.51
873.088	17.07
873.261	25.26
873.434	-15.7
873.607	-36.18
873.78	4.78
873.953	49.83
874.126	47.79
874.299	10.92
874.471	-15.7
874.644	31.4
874.817	31.4
874.99	60.07
875.163	-9.56
875.335	-7.51
875.508	17.07
875.681	94.89
875.853	-48.47
876.026	58.03
876.199	15.02
876.371	66.22
876.544	51.88
876.717	19.11
876.889	31.4
877.062	88.75
877.234	-5.46
877.407	21.16
877.579	0.68
877.752	-15.7
877.924	0.68
878.097	17.07
878.269	43.69
878.442	8.87
878.614	10.92
878.786	-15.7
878.959	12.97
879.131	4.78
879.303	45.74
879.476	10.92
879.648	74.41
879.82	15.02
879.993	-19.8
880.165	29.35
880.337	-17.75
880.509	12.97
880.681	-9.56
880.854	4.78
881.026	17.07
881.198	49.83
881.37	21.16
881.542	39.59
881.714	2.73
881.886	25.26
882.058	-9.56
882.23	-1.37
882.402	10.92
882.574	-9.56
882.746	-38.23
882.918	47.79
883.09	117.42
883.262	43.69
883.434	0.68
883.606	62.12
883.778	-75.09
883.95	53.93
884.122	12.97
884.293	29.35
884.465	-7.51
884.637	58.03
884.809	-54.61
884.98	-13.65
885.152	27.31
885.324	-17.75
885.496	15.02
885.667	-13.65
885.839	-3.41
886.011	80.55
886.182	2.73
886.354	31.4
886.525	8.87
886.697	6.83
886.869	-3.41
887.04	78.51
887.212	21.16
887.383	39.59
887.555	55.98
887.726	-11.61
887.897	0.68
888.069	-105.81
888.24	60.07
888.412	62.12
888.583	-32.08
888.754	21.16
888.926	-58.71
889.097	64.17
889.268	8.87
889.44	101.03
889.611	47.79
889.782	29.35
889.953	58.03
890.125	-60.76
890.296	-23.89
890.467	-3.41
890.638	-27.99
890.809	15.02
890.98	2.73
891.151	-44.37
891.323	23.21
891.494	23.21
891.665	51.88
891.836	35.5
892.007	33.45
892.178	47.79
892.349	-19.8
892.52	-62.8
892.691	49.83
892.862	29.35
893.032	12.97
893.203	0.68
893.374	47.79
893.545	49.83
893.716	-50.52
893.887	-5.46
894.057	-32.08
894.228	-5.46
894.399	10.92
894.57	15.02
894.74	17.07
894.911	17.07
895.082	-1.37
895.253	-17.75
895.423	39.59
895.594	-5.46
895.764	-15.7
895.935	60.07
896.106	23.21
896.276	-38.23
896.447	51.88
896.617	31.4
896.788	27.31
896.958	-46.42
897.129	0.68
897.299	49.83
897.47	-5.46
897.64	15.02
897.81	23.21
897.981	4.78
898.151	17.07
898.322	-15.7
898.492	-13.65
898.662	-1.37
898.832	4.78
899.003	21.16
899.173	21.16
899.343	-30.04
899.513	-60.76
