Data from USB4F104151__35__11-44-56-239.txt Node

Date: Fri Mar 14 11:44:56 EDT 2025
User: louis
Spectrometer: USB4F10415
Trigger mode: 4
Integration Time (sec): 2.000000E-2
Scans to average: 1
Electric dark correction enabled: true
Nonlinearity correction enabled: false
Boxcar width: 0
XAxis mode: Wavelengths
Number of Pixels in Spectrum: 3648
>>>>>Begin Spectral Data<<<<<
178.204	-133.97
178.424	-133.97
178.644	-133.97
178.864	-78.68
179.084	-39.76
179.304	-29.52
179.524	5.29
179.744	21.67
179.964	25.77
180.184	1.19
180.404	44.2
180.624	31.91
180.844	-9.05
181.064	-31.57
181.283	21.67
181.503	-56.15
181.723	-25.43
181.943	-17.24
182.163	40.11
182.383	-2.9
182.602	74.92
182.822	64.68
183.042	29.87
183.262	-27.48
183.482	72.87
183.701	5.29
183.921	56.49
184.141	40.11
184.361	54.44
184.58	40.11
184.8	-25.43
185.02	36.01
185.239	33.96
185.459	79.02
185.679	9.39
185.898	-0.85
186.118	87.21
186.338	66.73
186.557	29.87
186.777	-52.05
186.997	54.44
187.216	21.67
187.436	74.92
187.655	91.31
187.875	29.87
188.095	72.87
188.314	-2.9
188.534	46.25
188.753	64.68
188.973	33.96
189.192	54.44
189.412	58.54
189.631	27.82
189.851	36.01
190.07	64.68
190.29	25.77
190.509	-11.09
190.729	-21.33
190.948	70.83
191.168	126.12
191.387	93.35
191.607	46.25
191.826	76.97
192.045	107.69
192.265	-2.9
192.484	50.35
192.704	33.96
192.923	7.34
193.142	7.34
193.362	72.87
193.581	79.02
193.8	87.21
194.02	31.91
194.239	36.01
194.458	27.82
194.678	60.59
194.897	48.3
195.116	17.58
195.335	27.82
195.555	-31.57
195.774	-9.05
195.993	109.74
196.212	52.39
196.432	-2.9
196.651	1.19
196.87	9.39
197.089	83.11
197.308	-31.57
197.528	25.77
197.747	60.59
197.966	19.63
198.185	58.54
198.404	58.54
198.623	-4.95
198.842	99.5
199.062	87.21
199.281	50.35
199.5	3.24
199.719	-21.33
199.938	113.83
200.157	23.72
200.376	52.39
200.595	66.73
200.814	23.72
201.033	44.2
201.252	7.34
201.471	11.43
201.69	21.67
201.909	64.68
202.128	58.54
202.347	19.63
202.566	44.2
202.785	50.35
203.004	44.2
203.223	85.16
203.442	56.49
203.661	-31.57
203.879	111.78
204.098	113.83
204.317	-2.9
204.536	25.77
204.755	89.26
204.974	36.01
205.193	56.49
205.411	25.77
205.63	31.91
205.849	23.72
206.068	58.54
206.287	-0.85
206.505	40.11
206.724	42.15
206.943	109.74
207.162	11.43
207.381	9.39
207.599	76.97
207.818	52.39
208.037	-37.72
208.255	-7
208.474	42.15
208.693	76.97
208.911	58.54
209.13	58.54
209.349	36.01
209.567	124.07
209.786	91.31
210.005	42.15
210.223	17.58
210.442	97.45
210.661	33.96
210.879	50.35
211.098	50.35
211.316	3.24
211.535	38.06
211.753	79.02
211.972	38.06
212.191	-29.52
212.409	-2.9
212.628	42.15
212.846	5.29
213.065	122.02
213.283	29.87
213.502	11.43
213.72	66.73
213.938	5.29
214.157	23.72
214.375	-25.43
214.594	-31.57
214.812	68.78
215.031	134.31
215.249	29.87
215.467	-11.09
215.686	25.77
215.904	64.68
216.122	5.29
216.341	-9.05
216.559	56.49
216.778	72.87
216.996	79.02
217.214	-13.14
217.432	-11.09
217.651	9.39
217.869	-41.81
218.087	42.15
218.306	-7
218.524	9.39
218.742	-21.33
218.96	27.82
219.179	3.24
219.397	27.82
219.615	87.21
219.833	-11.09
220.051	5.29
220.27	66.73
220.488	50.35
220.706	52.39
220.924	-21.33
221.142	9.39
221.36	-9.05
221.578	7.34
221.796	25.77
222.015	44.2
222.233	54.44
222.451	64.68
222.669	-7
222.887	11.43
223.105	89.26
223.323	31.91
223.541	38.06
223.759	7.34
223.977	13.48
224.195	44.2
224.413	42.15
224.631	-9.05
224.849	33.96
225.067	74.92
225.285	56.49
225.503	103.59
225.721	68.78
225.939	21.67
226.157	-25.43
226.375	60.59
226.592	48.3
226.81	15.53
227.028	48.3
227.246	79.02
227.464	38.06
227.682	27.82
227.9	81.07
228.117	70.83
228.335	27.82
228.553	-4.95
228.771	83.11
228.989	11.43
229.206	85.16
229.424	79.02
229.642	-17.24
229.86	33.96
230.077	27.82
230.295	85.16
230.513	-9.05
230.731	109.74
230.948	68.78
231.166	99.5
231.384	-47.96
231.601	68.78
231.819	91.31
232.037	40.11
232.254	64.68
232.472	-15.19
232.689	-2.9
232.907	85.16
233.125	33.96
233.342	33.96
233.56	21.67
233.777	-2.9
233.995	15.53
234.213	62.63
234.43	9.39
234.648	-2.9
234.865	27.82
235.083	38.06
235.3	-60.24
235.518	52.39
235.735	42.15
235.953	-19.29
236.17	99.5
236.388	93.35
236.605	101.55
236.822	124.07
237.04	130.22
237.257	7.34
237.475	66.73
237.692	54.44
237.909	-7
238.127	17.58
238.344	-2.9
238.562	64.68
238.779	52.39
238.996	5.29
239.214	13.48
239.431	111.78
239.648	25.77
239.865	115.88
240.083	85.16
240.3	-9.05
240.517	46.25
240.735	21.67
240.952	76.97
241.169	130.22
241.386	70.83
241.603	44.2
241.821	58.54
242.038	101.55
242.255	52.39
242.472	-0.85
242.689	5.29
242.907	111.78
243.124	-0.85
243.341	54.44
243.558	72.87
243.775	1.19
243.992	15.53
244.209	70.83
244.426	29.87
244.643	36.01
244.86	70.83
245.078	60.59
245.295	9.39
245.512	109.74
245.729	54.44
245.946	5.29
246.163	115.88
246.38	72.87
246.597	79.02
246.814	54.44
247.031	21.67
247.248	93.35
247.464	44.2
247.681	25.77
247.898	74.92
248.115	21.67
248.332	103.59
248.549	15.53
248.766	70.83
248.983	85.16
249.2	1.19
249.417	19.63
249.633	38.06
249.85	54.44
250.067	23.72
250.284	81.07
250.501	64.68
250.717	21.67
250.934	-0.85
251.151	58.54
251.368	66.73
251.585	1.19
251.801	54.44
252.018	36.01
252.235	21.67
252.451	11.43
252.668	13.48
252.885	19.63
253.102	21.67
253.318	29.87
253.535	-4.95
253.752	70.83
253.968	-7
254.185	25.77
254.401	-39.76
254.618	-4.95
254.835	42.15
255.051	38.06
255.268	38.06
255.484	46.25
255.701	-0.85
255.917	101.55
256.134	76.97
256.351	87.21
256.567	13.48
256.784	83.11
257	11.43
257.217	70.83
257.433	79.02
257.65	140.46
257.866	44.2
258.082	15.53
258.299	52.39
258.515	87.21
258.732	-25.43
258.948	5.29
259.165	58.54
259.381	79.02
259.597	36.01
259.814	109.74
260.03	87.21
260.246	25.77
260.463	58.54
260.679	17.58
260.895	33.96
261.112	66.73
261.328	23.72
261.544	68.78
261.761	103.59
261.977	21.67
262.193	25.77
262.409	-0.85
262.626	19.63
262.842	38.06
263.058	-27.48
263.274	79.02
263.49	29.87
263.707	11.43
263.923	83.11
264.139	87.21
264.355	81.07
264.571	62.63
264.787	23.72
265.004	66.73
265.22	-25.43
265.436	56.49
265.652	21.67
265.868	50.35
266.084	81.07
266.3	58.54
266.516	-60.24
266.732	93.35
266.948	111.78
267.164	60.59
267.38	23.72
267.596	54.44
267.812	46.25
268.028	40.11
268.244	79.02
268.46	50.35
268.676	42.15
268.892	119.98
269.108	29.87
269.324	68.78
269.54	-25.43
269.756	107.69
269.972	3.24
270.188	23.72
270.403	-7
270.619	-15.19
270.835	13.48
271.051	40.11
271.267	46.25
271.483	38.06
271.698	83.11
271.914	36.01
272.13	40.11
272.346	76.97
272.562	70.83
272.777	124.07
272.993	79.02
273.209	72.87
273.425	-33.62
273.64	5.29
273.856	76.97
274.072	5.29
274.287	-19.29
274.503	29.87
274.719	54.44
274.934	48.3
275.15	81.07
275.366	-19.29
275.581	-11.09
275.797	27.82
276.012	46.25
276.228	19.63
276.444	93.35
276.659	13.48
276.875	21.67
277.09	1.19
277.306	-0.85
277.521	60.59
277.737	15.53
277.952	89.26
278.168	-54.1
278.383	9.39
278.599	15.53
278.814	31.91
279.03	81.07
279.245	15.53
279.461	29.87
279.676	85.16
279.892	-13.14
280.107	21.67
280.322	11.43
280.538	5.29
280.753	-9.05
280.969	-7
281.184	21.67
281.399	115.88
281.615	74.92
281.83	56.49
282.045	-9.05
282.26	-11.09
282.476	52.39
282.691	74.92
282.906	107.69
283.122	-37.72
283.337	48.3
283.552	81.07
283.767	48.3
283.983	91.31
284.198	17.58
284.413	3.24
284.628	-4.95
284.843	48.3
285.058	87.21
285.274	17.58
285.489	5.29
285.704	17.58
285.919	48.3
286.134	97.45
286.349	91.31
286.564	48.3
286.779	119.98
286.995	70.83
287.21	126.12
287.425	81.07
287.64	91.31
287.855	38.06
288.07	109.74
288.285	56.49
288.5	66.73
288.715	119.98
288.93	13.48
289.145	46.25
289.36	91.31
289.575	-21.33
289.79	101.55
290.004	60.59
290.219	56.49
290.434	91.31
290.649	50.35
290.864	48.3
291.079	52.39
291.294	79.02
291.509	52.39
291.724	-13.14
291.938	19.63
292.153	72.87
292.368	3.24
292.583	60.59
292.798	70.83
293.012	-19.29
293.227	68.78
293.442	3.24
293.657	48.3
293.871	89.26
294.086	52.39
294.301	97.45
294.516	56.49
294.73	33.96
294.945	83.11
295.16	29.87
295.374	3.24
295.589	93.35
295.804	42.15
296.018	23.72
296.233	9.39
296.447	111.78
296.662	64.68
296.877	119.98
297.091	60.59
297.306	3.24
297.52	64.68
297.735	29.87
297.949	52.39
298.164	-4.95
298.378	46.25
298.593	40.11
298.807	-11.09
299.022	-9.05
299.236	126.12
299.451	-2.9
299.665	-11.09
299.88	68.78
300.094	64.68
300.309	66.73
300.523	27.82
300.737	93.35
300.952	128.17
301.166	38.06
301.381	15.53
301.595	36.01
301.809	3.24
302.024	7.34
302.238	27.82
302.452	40.11
302.667	64.68
302.881	83.11
303.095	48.3
303.309	89.26
303.524	27.82
303.738	36.01
303.952	9.39
304.166	-15.19
304.381	-7
304.595	111.78
304.809	-35.67
305.023	85.16
305.237	66.73
305.452	11.43
305.666	-11.09
305.88	29.87
306.094	-0.85
306.308	29.87
306.522	-7
306.736	31.91
306.95	58.54
307.164	56.49
307.379	13.48
307.593	60.59
307.807	-4.95
308.021	62.63
308.235	31.91
308.449	23.72
308.663	19.63
308.877	68.78
309.091	13.48
309.305	13.48
309.519	-31.57
309.733	52.39
309.947	-23.38
310.161	87.21
310.374	54.44
310.588	101.55
310.802	42.15
311.016	85.16
311.23	54.44
311.444	-2.9
311.658	83.11
311.872	33.96
312.085	70.83
312.299	31.91
312.513	79.02
312.727	60.59
312.941	-72.53
313.154	48.3
313.368	54.44
313.582	87.21
313.796	-25.43
314.009	48.3
314.223	76.97
314.437	33.96
314.651	60.59
314.864	68.78
315.078	5.29
315.292	52.39
315.505	64.68
315.719	25.77
315.933	101.55
316.146	15.53
316.36	81.07
316.573	62.63
316.787	29.87
317.001	9.39
317.214	-2.9
317.428	83.11
317.641	-7
317.855	44.2
318.068	-25.43
318.282	97.45
318.495	25.77
318.709	7.34
318.922	15.53
319.136	97.45
319.349	83.11
319.563	5.29
319.776	99.5
319.99	29.87
320.203	142.5
320.417	81.07
320.63	56.49
320.843	36.01
321.057	50.35
321.27	7.34
321.483	76.97
321.697	83.11
321.91	50.35
322.124	31.91
322.337	50.35
322.55	101.55
322.763	-23.38
322.977	29.87
323.19	38.06
323.403	3.24
323.617	11.43
323.83	74.92
324.043	3.24
324.256	79.02
324.469	19.63
324.683	150.7
324.896	74.92
325.109	21.67
325.322	13.48
325.535	21.67
325.748	107.69
325.962	74.92
326.175	187.56
326.388	93.35
326.601	87.21
326.814	89.26
327.027	15.53
327.24	46.25
327.453	36.01
327.666	5.29
327.879	111.78
328.092	33.96
328.305	68.78
328.518	66.73
328.731	115.88
328.944	17.58
329.157	64.68
329.37	-4.95
329.583	19.63
329.796	122.02
330.009	72.87
330.222	56.49
330.435	11.43
330.648	66.73
330.861	79.02
331.073	91.31
331.286	17.58
331.499	89.26
331.712	68.78
331.925	-7
332.138	9.39
332.35	76.97
332.563	38.06
332.776	9.39
332.989	50.35
333.202	50.35
333.414	56.49
333.627	27.82
333.84	36.01
334.053	72.87
334.265	-17.24
334.478	33.96
334.691	-21.33
334.903	91.31
335.116	134.31
335.329	50.35
335.541	27.82
335.754	68.78
335.966	-4.95
336.179	76.97
336.392	13.48
336.604	87.21
336.817	27.82
337.029	79.02
337.242	33.96
337.454	111.78
337.667	58.54
337.88	19.63
338.092	15.53
338.305	48.3
338.517	111.78
338.729	-0.85
338.942	38.06
339.154	-27.48
339.367	25.77
339.579	79.02
339.792	85.16
340.004	113.83
340.217	-2.9
340.429	33.96
340.641	68.78
340.854	11.43
341.066	27.82
341.278	76.97
341.491	93.35
341.703	1.19
341.915	29.87
342.128	56.49
342.34	52.39
342.552	72.87
342.764	13.48
342.977	-7
343.189	13.48
343.401	27.82
343.613	15.53
343.826	-11.09
344.038	9.39
344.25	-0.85
344.462	23.72
344.674	109.74
344.886	95.4
345.099	-0.85
345.311	11.43
345.523	64.68
345.735	42.15
345.947	81.07
346.159	36.01
346.371	54.44
346.583	-11.09
346.795	122.02
347.007	46.25
347.219	-17.24
347.431	29.87
347.643	76.97
347.855	29.87
348.067	79.02
348.279	87.21
348.491	31.91
348.703	7.34
348.915	17.58
349.127	111.78
349.339	111.78
349.551	1.19
349.763	83.11
349.975	68.78
350.187	107.69
350.399	76.97
350.61	89.26
350.822	19.63
351.034	130.22
351.246	-13.14
351.458	48.3
351.669	33.96
351.881	128.17
352.093	89.26
352.305	68.78
352.517	60.59
352.728	54.44
352.94	50.35
353.152	42.15
353.363	40.11
353.575	42.15
353.787	33.96
353.999	99.5
354.21	36.01
354.422	50.35
354.633	54.44
354.845	17.58
355.057	70.83
355.268	87.21
355.48	111.78
355.692	54.44
355.903	50.35
356.115	64.68
356.326	54.44
356.538	105.64
356.749	-11.09
356.961	81.07
357.172	-2.9
357.384	99.5
357.595	52.39
357.807	60.59
358.018	58.54
358.23	74.92
358.441	76.97
358.653	54.44
358.864	95.4
359.075	23.72
359.287	50.35
359.498	50.35
359.709	38.06
359.921	107.69
360.132	87.21
360.344	101.55
360.555	27.82
360.766	62.63
360.977	87.21
361.189	107.69
361.4	107.69
361.611	46.25
361.823	93.35
362.034	140.46
362.245	64.68
362.456	138.41
362.667	13.48
362.879	5.29
363.09	87.21
363.301	101.55
363.512	5.29
363.723	9.39
363.935	11.43
364.146	70.83
364.357	46.25
364.568	-7
364.779	9.39
364.99	134.31
365.201	62.63
365.412	44.2
365.623	56.49
365.834	50.35
366.045	115.88
366.256	54.44
366.467	38.06
366.678	5.29
366.889	85.16
367.1	134.31
367.311	138.41
367.522	70.83
367.733	-4.95
367.944	113.83
368.155	103.59
368.366	40.11
368.577	64.68
368.788	87.21
368.999	50.35
369.209	15.53
369.42	95.4
369.631	83.11
369.842	81.07
370.053	70.83
370.264	97.45
370.474	27.82
370.685	93.35
370.896	50.35
371.107	56.49
371.317	48.3
371.528	48.3
371.739	19.63
371.95	76.97
372.16	107.69
372.371	15.53
372.582	66.73
372.792	31.91
373.003	70.83
373.214	33.96
373.424	48.3
373.635	11.43
373.846	46.25
374.056	128.17
374.267	54.44
374.477	29.87
374.688	33.96
374.898	68.78
375.109	52.39
375.319	83.11
375.53	81.07
375.74	46.25
375.951	91.31
376.161	89.26
376.372	79.02
376.582	31.91
376.793	29.87
377.003	140.46
377.214	64.68
377.424	60.59
377.635	58.54
377.845	81.07
378.055	93.35
378.266	-47.96
378.476	-23.38
378.686	83.11
378.897	72.87
379.107	58.54
379.317	103.59
379.528	101.55
379.738	95.4
379.948	36.01
380.158	93.35
380.369	107.69
380.579	89.26
380.789	76.97
380.999	42.15
381.21	91.31
381.42	103.59
381.63	95.4
381.84	132.26
382.05	91.31
382.261	83.11
382.471	33.96
382.681	74.92
382.891	85.16
383.101	79.02
383.311	-27.48
383.521	46.25
383.731	119.98
383.941	83.11
384.151	79.02
384.361	29.87
384.571	33.96
384.781	5.29
384.991	-7
385.201	42.15
385.411	-2.9
385.621	87.21
385.831	68.78
386.041	64.68
386.251	21.67
386.461	74.92
386.671	46.25
386.881	68.78
387.091	83.11
387.301	85.16
387.511	76.97
387.72	-15.19
387.93	23.72
388.14	13.48
388.35	74.92
388.56	107.69
388.769	68.78
388.979	83.11
389.189	42.15
389.399	64.68
389.609	66.73
389.818	87.21
390.028	23.72
390.238	44.2
390.447	60.59
390.657	148.65
390.867	70.83
391.076	52.39
391.286	23.72
391.496	58.54
391.705	54.44
391.915	124.07
392.125	81.07
392.334	70.83
392.544	44.2
392.753	56.49
392.963	42.15
393.172	85.16
393.382	25.77
393.591	136.36
393.801	113.83
394.01	162.98
394.22	93.35
394.429	70.83
394.639	62.63
394.848	152.74
395.058	58.54
395.267	72.87
395.477	101.55
395.686	33.96
395.895	46.25
396.105	87.21
396.314	128.17
396.524	52.39
396.733	68.78
396.942	66.73
397.152	83.11
397.361	5.29
397.57	9.39
397.78	70.83
397.989	132.26
398.198	130.22
398.407	87.21
398.617	144.55
398.826	93.35
399.035	126.12
399.244	158.89
399.453	40.11
399.663	103.59
399.872	95.4
400.081	134.31
400.29	189.61
400.499	70.83
400.708	134.31
400.917	93.35
401.127	95.4
401.336	38.06
401.545	197.8
401.754	89.26
401.963	177.32
402.172	122.02
402.381	81.07
402.59	201.9
402.799	130.22
403.008	111.78
403.217	99.5
403.426	99.5
403.635	165.03
403.844	152.74
404.053	130.22
404.262	130.22
404.471	144.55
404.68	177.32
404.888	208.04
405.097	83.11
405.306	109.74
405.515	177.32
405.724	212.14
405.933	146.6
406.142	144.55
406.35	240.81
406.559	156.84
406.768	136.36
406.977	214.18
407.185	208.04
407.394	228.52
407.603	179.37
407.812	165.03
408.02	234.66
408.229	208.04
408.438	197.8
408.646	208.04
408.855	208.04
409.064	304.29
409.272	205.99
409.481	316.58
409.69	259.24
409.898	281.77
410.107	234.66
410.315	328.87
410.524	320.68
410.733	255.14
410.941	255.14
411.15	349.35
411.358	390.31
411.567	412.84
411.775	306.34
411.984	414.88
412.192	384.16
412.401	416.93
412.609	431.27
412.818	455.84
413.026	421.03
413.234	382.12
413.443	472.23
413.651	441.51
413.86	488.61
414.068	425.12
414.276	476.32
414.485	576.67
414.693	562.34
414.901	584.87
415.11	580.77
415.318	613.54
415.526	644.26
415.734	603.3
415.943	642.21
416.151	711.84
416.359	689.31
416.567	763.04
416.776	789.66
416.984	824.48
417.192	822.43
417.4	842.91
417.608	951.45
417.817	873.63
418.025	941.21
418.233	1012.89
418.441	1008.8
418.649	1023.13
418.857	1103
419.065	1064.09
419.273	994.46
419.481	1213.59
419.689	1289.37
419.897	1320.09
420.105	1381.53
420.313	1459.35
420.521	1410.2
420.729	1496.21
420.937	1514.64
421.145	1473.68
421.353	1537.17
421.561	1692.82
421.769	1721.49
421.977	1772.69
422.185	1664.15
422.393	1895.57
422.601	2106.51
422.809	2065.55
423.017	1922.19
423.224	2153.61
423.432	2079.88
423.64	2219.14
423.848	2382.98
424.056	2274.44
424.263	2571.4
424.471	2397.32
424.679	2616.45
424.887	2700.42
425.094	2616.45
425.302	2724.99
425.51	2712.71
425.718	2978.94
425.925	3044.48
426.133	3085.44
426.341	3294.33
426.548	3433.59
426.756	3413.11
426.964	3374.2
427.171	3671.15
427.379	3761.27
427.586	3736.69
427.794	3863.66
428.001	4035.69
428.209	4234.35
428.417	4224.11
428.624	4533.35
428.832	4584.55
429.039	4357.22
429.247	4408.42
429.454	4803.68
429.662	5188.7
429.869	4738.15
430.076	5287
430.284	5131.36
430.491	5278.81
430.699	5557.33
430.906	5502.04
431.114	5610.58
431.321	5899.34
431.528	6128.72
431.736	6276.17
431.943	6771.78
432.15	6470.73
432.358	6659.14
432.565	6980.67
432.772	7017.54
432.979	7150.65
433.187	7357.5
433.394	7441.47
433.601	7887.92
433.808	7965.75
434.016	7859.25
434.223	8213.55
434.43	8768.55
434.637	8422.44
434.844	9145.38
435.052	9309.21
435.259	9215.01
435.466	9284.64
435.673	9190.43
435.88	9804.82
436.087	10228.75
436.294	10406.92
436.501	10181.65
436.708	10212.37
436.915	10613.77
437.122	10853.38
437.329	11039.75
437.537	11187.2
437.743	11682.81
437.95	11377.66
438.157	12037.11
438.364	12487.66
438.571	12135.41
438.778	12567.53
438.985	13532.12
439.192	13151.2
439.399	13589.47
439.606	13163.49
439.813	14121.94
440.02	14844.87
440.227	14517.2
440.433	14574.54
440.64	14726.09
440.847	14932.93
441.054	15375.3
441.261	16255.92
441.467	15950.78
441.674	16313.27
441.881	17034.15
442.088	16954.28
442.294	16772.01
442.501	17124.26
442.708	17429.41
442.914	18379.67
443.121	19090.31
443.328	18590.61
443.534	19731.33
443.741	19258.24
443.948	18992.01
444.154	20435.83
444.361	20038.52
444.568	20491.12
444.774	20231.03
444.981	20355.96
445.187	21089.13
445.394	22016.86
445.6	22125.4
445.807	23984.96
446.013	22889.29
446.22	23276.36
446.426	24093.5
446.633	24472.37
446.839	25219.88
447.046	24222.52
447.252	25713.44
447.459	25572.13
447.665	25451.3
447.871	26659.6
448.078	27722.5
448.284	26385.18
448.491	27038.48
448.697	28467.96
448.903	28486.39
449.11	28750.58
449.316	28306.17
449.522	28805.88
449.728	29391.59
449.935	29700.84
450.141	29676.26
450.347	30636.76
450.553	29606.63
450.76	29901.54
450.966	30927.57
451.172	30358.24
451.378	31236.81
451.584	30685.91
451.791	31238.86
451.997	31259.34
452.203	31918.79
452.409	31986.37
452.615	31838.92
452.821	30657.24
453.027	30188.25
453.233	31687.37
453.44	30536.41
453.646	30794.45
453.852	30948.05
454.058	31898.31
454.264	30139.1
454.47	31040.21
454.676	30567.13
454.882	31507.15
455.088	28945.14
455.294	29012.72
455.5	29754.08
455.705	29967.07
455.911	28572.41
456.117	28027.65
456.323	27900.67
456.529	26325.78
456.735	27368.2
456.941	26573.59
457.147	26280.73
457.352	25682.72
457.558	25113.39
457.764	25215.79
457.97	24718.13
458.176	24277.82
458.381	24062.78
458.587	23067.47
458.793	23208.78
458.999	21795.68
459.204	23343.94
459.41	22752.08
459.616	21136.23
459.821	21459.81
460.027	21054.31
460.233	20720.49
460.438	19587.97
460.644	20091.77
460.85	18879.37
461.055	18693.01
461.261	18934.67
461.466	17513.38
461.672	16657.32
461.878	17920.92
462.083	16896.94
462.289	16448.43
462.494	16520.11
462.7	15623.1
462.905	15311.81
463.111	15582.14
463.316	15696.83
463.522	15393.73
463.727	15422.4
463.932	15326.14
464.138	15221.7
464.343	15293.38
464.549	14726.09
464.754	15190.98
464.959	15160.26
465.165	14914.5
465.37	14355.41
465.575	14152.66
465.781	14656.46
465.986	14752.71
466.191	14265.3
466.397	14058.45
466.602	13153.25
466.807	13974.49
467.012	13513.69
467.218	13759.45
467.423	13476.83
467.628	13671.39
467.833	14126.04
468.038	13642.71
468.244	13157.35
468.449	13634.52
468.654	13364.19
468.859	13202.4
469.064	12981.22
469.269	12579.82
469.474	12721.13
469.679	13175.78
469.885	12895.21
470.09	12850.15
470.295	12807.14
470.5	12372.97
470.705	12518.38
470.91	12364.78
471.115	11914.23
471.32	12168.18
471.525	12215.28
471.73	11891.7
471.935	11809.78
472.139	11551.74
472.344	11621.37
472.549	11545.59
472.754	11486.2
472.959	11162.62
473.164	11082.75
473.369	10863.62
473.574	11039.75
473.778	11117.57
473.983	10839.05
474.188	10796.04
474.393	10380.3
474.598	10624.01
474.802	10372.11
475.007	10224.65
475.212	10302.48
475.417	9802.77
475.621	9919.51
475.826	9905.17
476.031	9702.42
476.235	9602.07
476.44	9540.63
476.645	9372.7
476.849	9593.88
477.054	9212.96
477.259	9348.12
477.463	9235.49
477.668	8946.72
477.872	9002.02
478.077	9067.55
478.282	8725.54
478.486	8703.01
478.691	8545.32
478.895	8817.7
479.1	8690.73
479.304	8475.69
479.509	8354.86
479.713	8623.14
479.918	8154.16
480.122	8115.25
480.326	8201.26
480.531	8244.27
480.735	8096.82
480.94	8109.1
481.144	8258.6
481.348	7863.35
481.553	8141.87
481.757	7916.59
481.961	8021.04
482.166	8180.78
482.37	7990.32
482.574	8088.62
482.778	7765.04
482.983	8049.71
483.187	7982.13
483.391	7957.55
483.595	7783.48
483.8	7908.4
484.004	7982.13
484.208	7896.11
484.412	7844.91
484.616	7859.25
484.821	7742.52
485.025	7855.15
485.229	8000.56
485.433	7824.44
485.637	8039.47
485.841	7773.24
486.045	7849.01
486.249	7676.98
486.453	7851.06
486.657	7951.41
486.861	7943.22
487.065	7707.7
487.269	7838.77
487.473	7681.08
487.677	7781.43
487.881	7861.3
488.085	7930.93
488.289	8008.75
488.493	7826.48
488.697	8012.85
488.901	7978.03
489.105	7883.83
489.309	7889.97
489.512	7980.08
489.716	7992.37
489.92	7898.16
490.124	7943.22
490.328	8094.77
490.531	7955.51
490.735	8070.19
490.939	8162.35
491.143	7918.64
491.346	8195.12
491.55	8209.45
491.754	8256.56
491.958	8350.76
492.161	8211.5
492.365	8330.28
492.569	8188.97
492.772	8496.17
492.976	8434.73
493.18	8479.79
493.383	8559.66
493.587	8535.08
493.79	8664.1
493.994	8584.23
494.197	8645.67
494.401	8725.54
494.605	8717.35
494.808	8819.75
495.012	8934.43
495.215	8973.35
495.419	9002.02
495.622	9065.5
495.825	9169.95
496.029	9067.55
496.232	9208.86
496.436	9217.05
496.639	9499.67
496.843	9497.63
497.046	9471
497.249	9573.4
497.453	9585.69
497.656	9810.96
497.859	9939.99
498.063	9896.98
498.266	10238.99
498.469	10126.35
498.673	10304.53
498.876	10187.79
499.079	10429.45
499.282	10517.51
499.485	10869.76
499.689	10945.54
499.892	10927.11
500.095	11023.36
500.298	11074.56
500.501	11037.7
500.705	11326.46
500.908	11506.68
501.111	11762.68
501.314	11752.44
501.517	11951.09
501.72	11994.1
501.923	11893.75
502.126	12338.16
502.329	12332.01
502.532	12663.79
502.735	12614.63
502.938	12700.65
503.141	12710.89
503.344	12895.21
503.547	13229.02
503.75	13614.04
503.953	13478.88
504.156	13657.05
504.359	13556.7
504.562	13779.93
504.765	14224.34
504.968	14179.28
505.17	14482.38
505.373	14332.88
505.576	14533.58
505.779	14613.45
505.982	14891.98
506.185	15172.55
506.387	15246.27
506.59	15225.79
506.793	15588.28
506.996	15389.63
507.198	16143.28
507.401	15877.05
507.604	16372.66
507.807	16309.17
508.009	16358.32
508.212	16544.69
508.415	16950.18
508.617	17095.59
508.82	17001.38
509.022	16929.7
509.225	17566.62
509.428	17540
509.63	17656.73
509.833	17777.56
510.035	18332.56
510.238	18299.8
510.44	18291.6
510.643	18588.56
510.845	18776.97
511.048	18715.53
511.25	19018.63
511.453	18844.56
511.655	19643.26
511.858	19415.94
512.06	19755.9
512.262	19858.3
512.465	19760
512.667	20030.33
512.87	20593.52
513.072	20208.5
513.274	20994.92
513.477	21042.03
513.679	21330.79
513.881	21560.16
514.084	21363.56
514.286	21834.59
514.488	21896.03
514.69	22616.91
514.893	22504.28
515.095	22340.44
515.297	22520.66
515.499	22731.6
515.701	23173.96
515.904	23206.73
516.106	23169.87
516.308	23589.7
516.51	23964.48
516.712	24025.92
516.914	24187.71
517.116	24566.58
517.318	24439.61
517.52	24652.59
517.722	24671.03
517.925	25074.48
518.127	25346.86
518.329	25729.83
518.531	25258.79
518.733	25967.39
518.935	26264.35
519.136	26536.73
519.338	26618.64
519.54	26606.36
519.742	27067.15
519.944	27159.31
520.146	27792.13
520.348	28087.04
520.55	27785.99
520.752	27912.96
520.954	28433.14
521.155	28130.05
521.357	29160.17
521.559	28914.42
521.761	29352.68
521.963	29371.11
522.164	29168.37
522.366	29508.33
522.568	29793
522.77	29922.02
522.971	30579.42
523.173	30302.94
523.375	30231.26
523.576	30794.45
523.778	30638.81
523.98	31052.5
524.181	30675.67
524.383	31019.73
524.584	31357.64
524.786	31888.07
524.988	31265.49
525.189	31883.97
525.391	31937.22
525.592	32307.9
525.794	32479.93
525.995	32469.69
526.197	32418.49
526.398	32658.1
526.6	32811.7
526.801	32977.59
527.003	33219.25
527.204	32889.52
527.406	33499.82
527.607	33766.06
527.808	33589.93
528.01	33127.09
528.211	33354.41
528.412	34562.72
528.614	34028.2
528.815	33643.18
529.016	34783.9
529.218	34194.08
529.419	34241.18
529.62	34425.5
529.822	34101.92
530.023	34679.45
530.224	34540.19
530.425	34611.87
530.626	34474.65
530.828	34445.98
531.029	35322.51
531.23	34970.26
531.431	34759.32
531.632	34744.98
531.833	35285.65
532.035	34986.64
532.236	35058.32
532.437	34955.93
532.638	35121.81
532.839	35125.91
533.04	35121.81
533.241	34990.74
533.442	35678.86
533.643	35240.59
533.844	35160.72
534.045	35252.88
534.246	35224.21
534.447	35568.27
534.648	35218.07
534.849	35607.18
535.05	35295.89
535.251	35508.88
535.451	35582.6
535.652	35660.43
535.853	35404.43
536.054	35312.27
536.255	35715.72
536.456	35379.85
536.657	36106.88
536.857	35392.14
537.058	35183.25
537.259	35662.47
537.46	35547.79
537.66	35308.18
537.861	35545.74
538.062	35361.42
538.263	35641.99
538.463	35207.83
538.664	35431.05
538.865	35621.52
539.065	35601.04
539.266	35037.84
539.466	35345.04
539.667	34892.44
539.868	35611.28
540.068	35402.38
540.269	35580.56
540.469	35545.74
540.67	35244.69
540.87	35357.33
541.071	35631.75
541.271	35404.43
541.472	35617.42
541.672	35170.96
541.873	35279.5
542.073	34966.17
542.274	35648.14
542.474	35039.89
542.675	35039.89
542.875	35512.97
543.075	35189.39
543.276	35138.19
543.476	35439.25
543.676	35416.72
543.877	35160.72
544.077	35179.15
544.277	35332.75
544.478	35170.96
544.678	35422.86
544.878	35578.51
545.078	35263.12
545.279	35392.14
545.479	34914.97
545.679	35187.35
545.879	35263.12
546.079	35213.97
546.28	35105.43
546.48	34699.93
546.68	35211.92
546.88	34898.58
547.08	35185.3
547.28	35164.82
547.48	35027.6
547.68	35058.32
547.88	34990.74
548.081	35306.13
548.281	35181.2
548.481	35054.23
548.681	34949.78
548.881	35105.43
549.081	34751.13
549.28	34681.5
549.48	34847.38
549.68	35119.76
549.88	35672.71
550.08	34728.6
550.28	35046.04
550.48	34908.82
550.68	35076.76
550.88	34919.06
551.08	34646.68
551.279	35228.31
551.479	34679.45
551.679	34851.48
551.879	34747.03
552.079	34888.34
552.278	34661.02
552.478	34835.1
552.678	34740.89
552.878	35005.08
553.077	34585.24
553.277	34579.1
553.477	35168.91
553.676	34781.85
553.876	34757.27
554.076	34460.32
554.275	34374.3
554.475	34298.53
554.674	34677.4
554.874	34480.8
555.074	34396.83
555.273	34753.18
555.473	34787.99
555.672	34366.11
555.872	34564.76
556.071	34867.86
556.271	34466.46
556.47	34263.71
556.67	33946.28
556.869	34069.15
557.068	34216.61
557.268	34048.68
557.467	33872.55
557.667	34040.48
557.866	33907.37
558.065	34028.2
558.265	33387.18
558.464	33692.33
558.663	34118.31
558.863	33761.96
559.062	34044.58
559.261	33454.76
559.461	33774.25
559.66	33186.48
559.859	33598.12
560.058	33149.62
560.258	33340.08
560.457	33110.71
560.656	33614.51
560.855	33573.55
561.054	33252.02
561.253	33135.28
561.453	32918.2
561.652	33174.19
561.851	33219.25
562.05	32948.92
562.249	33039.03
562.448	33270.45
562.647	32811.7
562.846	32828.09
563.045	32680.63
563.244	32725.69
563.443	32895.67
563.642	32297.66
563.841	32473.79
564.04	32168.64
564.239	33096.37
564.438	32123.58
564.637	32561.85
564.836	32742.07
565.035	32416.44
565.234	31959.75
565.432	32076.48
565.631	31961.79
565.83	32150.21
566.029	31779.53
566.228	31636.17
566.427	31589.06
566.625	31374.03
566.824	31509.19
567.023	31673.03
567.222	30864.08
567.42	31316.68
567.619	31560.39
567.818	31269.58
568.016	31179.47
568.215	31273.68
568.414	30829.27
568.612	31138.51
568.811	30839.51
569.01	30903
569.208	30388.95
569.407	30786.26
569.605	30571.22
569.804	30794.45
570.002	30397.15
570.201	30681.81
570.4	30114.53
570.598	30040.8
570.797	29958.88
570.995	30087.9
571.193	29512.42
571.392	30022.37
571.59	29831.91
571.789	29637.35
571.987	29952.74
572.186	29758.18
572.384	29295.34
572.582	29754.08
572.781	29424.36
572.979	29387.5
573.177	29223.66
573.376	29338.35
573.574	29070.06
573.772	29070.06
573.971	29018.86
574.169	28523.26
574.367	28750.58
574.565	29039.34
574.763	28750.58
574.962	28513.02
575.16	28488.44
575.358	28762.87
575.556	28052.22
575.754	28621.56
575.952	28023.55
576.151	28453.62
576.349	28146.43
576.547	27931.39
576.745	27902.72
576.943	28347.13
577.141	27906.82
577.339	27943.68
577.537	27863.81
577.735	27595.53
577.933	27685.64
578.131	28001.02
578.329	27454.22
578.527	27312.91
578.725	27460.36
578.923	27599.62
579.121	27214.6
579.319	27239.18
579.516	27065.1
579.714	26944.27
579.912	27095.82
580.11	27104.01
580.308	26872.59
580.506	26581.78
580.704	26346.26
580.901	26630.93
581.099	26805.01
581.297	26497.81
581.495	26311.45
581.692	26725.14
581.89	26231.58
582.088	26190.62
582.285	26080.03
582.483	26305.31
582.681	26280.73
582.878	26061.6
583.076	25912.1
583.274	26032.93
583.471	25680.67
583.669	25934.62
583.866	25565.99
584.064	25570.08
584.262	25307.94
584.459	25428.77
584.657	25551.65
584.854	25709.35
585.052	24832.82
585.249	25123.63
585.447	25217.83
585.644	24767.28
585.841	25285.42
586.039	25019.18
586.236	24754.99
586.434	24605.49
586.631	24472.37
586.828	24714.03
587.026	24750.9
587.223	24621.87
587.42	24363.83
587.618	24318.78
587.815	24279.86
588.012	24079.16
588.21	24050.49
588.407	24632.11
588.604	23944
588.801	23798.59
588.999	23948.09
589.196	23919.42
589.393	23868.22
589.59	23765.82
589.787	23534.4
589.984	23376.71
590.182	23395.14
590.379	23374.66
590.576	23423.81
590.773	23362.37
590.97	23329.61
591.167	23554.88
591.364	23282.5
591.561	22922.06
591.758	23069.51
591.955	22684.5
592.152	23008.08
592.349	22754.13
592.546	22928.2
592.743	22684.5
592.94	22891.34
593.137	22428.5
593.334	22500.18
593.531	22416.21
593.727	22442.84
593.924	22252.38
594.121	22133.59
594.318	22205.27
594.515	21990.24
594.712	22172.5
594.908	21828.45
595.105	22172.5
595.302	21791.58
595.499	21683.04
595.696	21891.93
595.892	21752.67
596.089	21904.22
596.286	21697.38
596.482	21478.24
596.679	21238.63
596.876	21511.01
597.072	21146.47
597.269	21560.16
597.466	21074.79
597.662	20925.29
597.859	21156.71
598.055	21064.55
598.252	21255.01
598.448	20669.3
598.645	20861.8
598.841	20632.43
599.038	20704.11
599.234	20593.52
599.431	20679.54
599.627	20415.35
599.824	20458.35
600.02	20278.13
600.217	20665.2
600.413	20294.52
600.609	20241.27
600.806	20063.1
601.002	20216.69
601.198	19985.27
601.395	19891.07
601.591	19733.37
601.787	19780.48
601.984	19655.55
602.18	19907.45
602.376	19563.39
602.572	19620.74
602.769	19794.81
602.965	19360.64
603.161	19276.68
603.357	19032.97
603.553	19245.96
603.75	19477.38
603.946	19170.18
604.142	19237.77
604.338	18852.75
604.534	19110.79
604.73	19004.3
604.926	18901.9
605.122	18707.34
605.318	18742.16
605.514	18621.33
605.71	18400.15
605.906	18529.17
606.102	18596.75
606.298	18584.46
606.494	18547.6
606.69	18498.45
606.886	18396.05
607.082	18244.5
607.278	18305.94
607.474	18051.99
607.67	18299.8
607.866	17849.24
608.062	18113.43
608.257	17963.93
608.453	17855.39
608.649	18271.12
608.845	17929.11
609.041	18138.01
609.236	18045.85
609.432	18029.46
609.628	17816.47
609.824	17822.62
610.019	17505.18
610.215	17773.47
610.411	17589.15
610.606	17744.8
610.802	17492.9
610.998	17480.61
611.193	17562.53
611.389	17388.45
611.584	17736.6
611.78	17183.65
611.976	17370.02
612.171	17453.98
612.367	17062.82
612.562	17396.64
612.758	17048.49
612.953	17099.69
613.149	17408.93
613.344	17185.7
613.539	17124.26
613.735	17085.35
613.93	17052.58
614.126	16933.8
614.321	17427.36
614.517	17095.59
614.712	16845.74
614.907	16862.12
615.103	16985
615.298	16950.18
615.493	16999.34
615.688	16587.69
615.884	16798.63
616.079	16315.31
616.274	16759.72
616.47	16407.47
616.665	16454.58
616.86	16735.15
617.055	16821.16
617.25	16432.05
617.445	16538.54
617.641	16053.17
617.836	16446.38
618.031	16350.13
618.226	16432.05
618.421	16325.55
618.616	16235.44
618.811	16022.45
619.006	16044.98
619.201	16040.89
619.396	15909.82
619.591	15670.2
619.786	15944.63
619.981	15606.72
620.176	15940.54
620.371	15473.6
620.566	15719.35
620.761	15682.49
620.956	15471.55
621.151	15266.75
621.346	15324.1
621.541	14894.02
621.735	15264.71
621.93	15221.7
622.125	15139.78
622.32	14932.93
622.515	14908.36
622.709	14709.71
622.904	14515.15
623.099	14742.47
623.294	14662.6
623.488	14476.24
623.683	14500.81
623.878	14308.3
624.072	14402.51
624.267	14363.6
624.462	14144.47
624.656	13812.7
624.851	14265.3
625.046	13925.33
625.24	13808.6
625.435	13550.56
625.629	13603.8
625.824	13478.88
626.018	13591.52
626.213	13104.1
626.407	13655
626.602	13190.11
626.796	13388.77
626.991	13327.33
627.185	13106.15
627.38	12940.26
627.574	13089.76
627.768	12827.62
627.963	12905.45
628.157	12811.24
628.352	13073.38
628.546	12561.39
628.74	12774.38
628.935	12395.5
629.129	12530.67
629.323	12223.47
629.517	12452.84
629.712	12119.03
629.906	12178.42
630.1	12014.58
630.294	12334.06
630.489	11858.93
630.683	12057.59
630.877	11940.85
631.071	11717.62
631.265	11832.31
631.459	11811.83
631.653	11547.64
631.848	11578.36
632.042	11385.85
632.236	11537.4
632.43	11367.42
632.624	11308.03
632.818	11336.7
633.012	11328.51
633.206	11203.58
633.4	11219.97
633.594	10941.44
633.788	11023.36
633.982	10820.61
634.176	10773.51
634.369	10916.87
634.563	10945.54
634.757	10714.12
634.951	10570.76
635.145	10853.38
635.339	10589.19
635.533	10693.64
635.726	10515.47
635.92	10605.58
636.114	10310.67
636.308	10343.44
636.501	10275.85
636.695	10318.86
636.889	10257.42
637.083	9958.42
637.276	9935.89
637.47	9948.18
637.664	9894.93
637.857	9813.01
638.051	9935.89
638.244	9624.6
638.438	9757.72
638.632	9509.91
638.825	9622.55
639.019	9675.8
639.212	9602.07
639.406	9378.84
639.599	9606.17
639.793	9450.52
639.986	9421.85
640.18	9348.12
640.373	9438.23
640.567	9079.84
640.76	9255.97
640.954	8897.57
641.147	8995.87
641.34	8889.38
641.534	8965.15
641.727	8848.42
641.92	8793.12
642.114	8881.19
642.307	8805.41
642.5	8823.84
642.694	8565.8
642.887	8672.29
643.08	8655.91
643.273	8657.96
643.467	8588.33
643.66	8453.16
643.853	8361
644.046	8266.8
644.239	8367.15
644.432	8418.35
644.626	8254.51
644.819	8270.89
645.012	7992.37
645.205	8252.46
645.398	8180.78
645.591	8021.04
645.784	8027.18
645.977	7834.68
646.17	8045.62
646.363	7920.69
646.556	7828.53
646.749	7754.8
646.942	7959.6
647.135	7633.97
647.328	7728.18
647.521	7619.64
647.714	7332.92
647.907	7679.03
648.099	7439.42
648.292	7595.06
648.485	7396.41
648.678	7277.63
648.871	7337.02
649.064	7341.11
649.256	7517.24
649.449	7279.68
649.642	7154.75
649.835	7339.07
650.027	7128.13
650.22	7224.38
650.413	7294.01
650.605	7011.39
650.798	6949.95
650.991	6923.33
651.183	6831.17
651.376	6802.5
651.568	6911.04
651.761	6747.2
651.954	6616.13
652.146	6769.73
652.339	6761.54
652.531	6667.33
652.724	6575.17
652.916	6487.11
653.109	6523.98
653.301	6556.74
653.494	6577.22
653.686	6360.14
653.879	6603.85
654.071	6399.05
654.263	6413.38
654.456	6536.26
654.648	6450.25
654.84	6294.6
655.033	6222.92
655.225	6153.29
655.417	6267.98
655.61	6192.2
655.802	6202.44
655.994	6169.68
656.186	6116.43
656.379	5948.5
656.571	6122.57
656.763	5829.71
656.955	6007.89
657.148	5917.78
657.34	5809.23
657.532	5788.75
657.724	5825.62
657.916	5958.74
658.108	5565.53
658.3	5573.72
658.492	5717.08
658.684	5577.81
658.876	5780.56
659.068	5618.77
659.26	5489.75
659.452	5653.59
659.644	5555.29
659.836	5598.29
660.028	5536.85
660.22	5313.63
660.412	5475.42
660.604	5344.35
660.796	5317.72
660.988	5409.88
661.18	5370.97
661.372	5131.36
661.563	5264.47
661.755	5182.56
661.947	5182.56
662.139	5184.6
662.331	5188.7
662.522	4893.79
662.714	5215.32
662.906	4965.47
663.097	5063.77
663.289	4920.42
663.481	4901.98
663.673	5100.64
663.864	4832.35
664.056	4803.68
664.247	4963.42
664.439	4887.65
664.631	4944.99
664.822	5002.33
665.014	4727.91
665.205	4836.45
665.397	4822.11
665.588	4721.76
665.78	4662.37
665.971	4672.61
666.163	4613.22
666.354	4701.28
666.546	4627.56
666.737	4602.98
666.929	4547.69
667.12	4607.08
667.311	4443.24
667.503	4537.45
667.694	4510.82
667.885	4414.57
668.077	4547.69
668.268	4297.83
668.459	4314.22
668.651	4412.52
668.842	4353.13
669.033	4392.04
669.224	4361.32
669.416	4256.87
669.607	4289.64
669.798	4314.22
669.989	4291.69
670.18	4279.4
670.371	4093.04
670.563	4162.67
670.754	4260.97
670.945	4164.72
671.136	4074.6
671.327	4090.99
671.518	4090.99
671.709	4125.8
671.9	4187.24
672.091	3972.21
672.282	4111.47
672.473	4052.08
672.664	4127.85
672.855	4019.31
673.046	3912.81
673.237	3984.49
673.428	3914.86
673.619	4031.6
673.809	3867.76
674	3865.71
674.191	3957.87
674.382	3863.66
674.573	3894.38
674.764	3865.71
674.954	4043.88
675.145	3781.74
675.336	3755.12
675.527	3804.27
675.717	3761.27
675.908	3804.27
676.099	3730.55
676.289	3912.81
676.48	3847.28
676.671	3791.98
676.861	3734.64
677.052	3730.55
677.243	3708.02
677.433	3787.89
677.624	3705.97
677.814	3699.83
678.005	3667.06
678.195	3710.07
678.386	3677.3
678.576	3560.56
678.767	3585.14
678.957	3638.39
679.148	3718.26
679.338	3675.25
679.529	3662.96
679.719	3689.59
679.909	3708.02
680.1	3751.03
680.29	3644.53
680.481	3613.81
680.671	3583.09
680.861	3460.21
681.052	3521.65
681.242	3597.43
681.432	3609.72
681.622	3474.55
681.813	3400.82
682.003	3515.51
682.193	3484.79
682.383	3540.08
682.573	3456.12
682.764	3302.52
682.954	3398.77
683.144	3390.58
683.334	3378.3
683.524	3329.14
683.714	3404.92
683.904	3425.4
684.094	3437.69
684.284	3355.77
684.474	3396.73
684.664	3406.97
684.854	3499.13
685.044	3323
685.234	3208.31
685.424	3366.01
685.614	3290.23
685.804	3366.01
685.994	3220.6
686.184	3357.82
686.374	3210.36
686.564	3206.27
686.753	3230.84
686.943	3208.31
687.133	3206.27
687.323	3183.74
687.513	3212.41
687.702	3105.92
687.892	3124.35
688.082	3112.06
688.272	3155.07
688.461	3056.76
688.651	3003.52
688.841	3089.53
689.03	3122.3
689.22	3036.28
689.41	3118.2
689.599	3042.43
689.789	2927.74
689.979	2937.98
690.168	2999.42
690.358	2878.59
690.547	2907.26
690.737	2962.56
690.926	2960.51
691.116	2798.72
691.305	2933.89
691.495	2839.68
691.684	2903.17
691.874	2954.37
692.063	2808.96
692.252	2843.78
692.442	2903.17
692.631	2884.73
692.82	2749.57
693.01	2829.44
693.199	2780.29
693.388	2669.7
693.578	2804.86
693.767	2780.29
693.956	2851.97
694.146	2632.83
694.335	2563.2
694.524	2679.94
694.713	2612.35
694.902	2651.27
695.092	2600.07
695.281	2710.66
695.47	2563.2
695.659	2667.65
695.848	2645.12
696.037	2655.36
696.226	2708.61
696.415	2507.91
696.604	2567.3
696.793	2634.88
696.982	2616.45
697.171	2581.64
697.36	2610.31
697.549	2407.56
697.738	2526.34
697.927	2509.96
698.116	2532.48
698.305	2585.73
698.494	2503.81
698.683	2409.61
698.872	2495.62
699.061	2469
699.25	2559.11
699.438	2481.28
699.627	2393.22
699.816	2440.33
700.005	2479.24
700.193	2477.19
700.382	2450.57
700.571	2534.53
700.76	2405.51
700.948	2479.24
701.137	2382.98
701.326	2372.74
701.514	2282.63
701.703	2446.47
701.892	2342.02
702.08	2413.7
702.269	2374.79
702.457	2366.6
702.646	2415.75
702.834	2368.65
703.023	2434.18
703.212	2544.77
703.4	2378.89
703.589	2483.33
703.777	2446.47
703.965	2403.46
704.154	2469
704.342	2382.98
704.531	2372.74
704.719	2446.47
704.907	2378.89
705.096	2366.6
705.284	2354.31
705.472	2366.6
705.661	2411.65
705.849	2436.23
706.037	2479.24
706.226	2456.71
706.414	2423.94
706.602	2440.33
706.79	2299.02
706.979	2456.71
707.167	2282.63
707.355	2339.97
707.543	2518.15
707.731	2405.51
707.919	2434.18
708.107	2296.97
708.296	2319.5
708.484	2362.5
708.672	2303.11
708.86	2333.83
709.048	2374.79
709.236	2362.5
709.424	2395.27
709.612	2442.37
709.8	2327.69
709.988	2323.59
710.176	2409.61
710.364	2417.8
710.551	2458.76
710.739	2380.93
710.927	2339.97
711.115	2294.92
711.303	2327.69
711.491	2342.02
711.679	2401.41
711.866	2428.04
712.054	2380.93
712.242	2411.65
712.43	2352.26
712.617	2305.16
712.805	2342.02
712.993	2395.27
713.181	2301.06
713.368	2409.61
713.556	2329.74
713.744	2225.29
713.931	2382.98
714.119	2333.83
714.306	2407.56
714.494	2335.88
714.682	2391.17
714.869	2387.08
715.057	2419.85
715.244	2364.55
715.432	2428.04
715.619	2354.31
715.807	2368.65
715.994	2370.69
716.182	2294.92
716.369	2409.61
716.556	2354.31
716.744	2366.6
716.931	2358.41
717.119	2335.88
717.306	2370.69
717.493	2337.93
717.681	2307.21
717.868	2331.78
718.055	2509.96
718.242	2368.65
718.43	2331.78
718.617	2368.65
718.804	2284.68
718.991	2438.28
719.179	2421.89
719.366	2294.92
719.553	2454.66
719.74	2311.3
719.927	2303.11
720.114	2354.31
720.301	2425.99
720.488	2290.82
720.676	2313.35
720.863	2354.31
721.05	2350.21
721.237	2423.94
721.424	2387.08
721.611	2368.65
721.798	2337.93
721.985	2370.69
722.172	2442.37
722.358	2417.8
722.545	2409.61
722.732	2352.26
722.919	2407.56
723.106	2415.75
723.293	2337.93
723.48	2333.83
723.667	2442.37
723.853	2407.56
724.04	2471.04
724.227	2409.61
724.414	2458.76
724.6	2335.88
724.787	2346.12
724.974	2376.84
725.161	2475.14
725.347	2483.33
725.534	2434.18
725.72	2335.88
725.907	2364.55
726.094	2606.21
726.28	2403.46
726.467	2395.27
726.653	2364.55
726.84	2425.99
727.027	2503.81
727.213	2292.87
727.4	2446.47
727.586	2458.76
727.773	2415.75
727.959	2337.93
728.145	2348.17
728.332	2389.13
728.518	2358.41
728.705	2346.12
728.891	2471.04
729.077	2348.17
729.264	2469
729.45	2409.61
729.636	2417.8
729.823	2319.5
730.009	2460.81
730.195	2376.84
730.382	2460.81
730.568	2382.98
730.754	2415.75
730.94	2507.91
731.126	2475.14
731.313	2454.66
731.499	2456.71
731.685	2380.93
731.871	2493.57
732.057	2518.15
732.243	2475.14
732.429	2557.06
732.615	2401.41
732.801	2440.33
732.987	2507.91
733.173	2464.9
733.359	2288.78
733.545	2411.65
733.731	2452.61
733.917	2448.52
734.103	2440.33
734.289	2466.95
734.475	2395.27
734.661	2585.73
734.847	2479.24
735.033	2483.33
735.219	2473.09
735.404	2602.11
735.59	2434.18
735.776	2526.34
735.962	2423.94
736.148	2507.91
736.333	2466.95
736.519	2329.74
736.705	2403.46
736.89	2460.81
737.076	2444.42
737.262	2364.55
737.447	2425.99
737.633	2327.69
737.819	2491.52
738.004	2378.89
738.19	2397.32
738.375	2432.13
738.561	2352.26
738.747	2415.75
738.932	2479.24
739.118	2436.23
739.303	2337.93
739.489	2370.69
739.674	2378.89
739.859	2354.31
740.045	2477.19
740.23	2382.98
740.416	2364.55
740.601	2305.16
740.786	2366.6
740.972	2311.3
741.157	2305.16
741.342	2438.28
741.528	2421.89
741.713	2266.25
741.898	2382.98
742.084	2200.71
742.269	2434.18
742.454	2325.64
742.639	2360.45
742.824	2258.06
743.01	2366.6
743.195	2307.21
743.38	2325.64
743.565	2239.62
743.75	2245.77
743.935	2221.19
744.12	2319.5
744.305	2219.14
744.49	2225.29
744.675	2159.75
744.86	2149.51
745.045	2169.99
745.23	2188.43
745.415	2081.93
745.6	2200.71
745.785	2192.52
745.97	2116.75
746.155	2235.53
746.34	2159.75
746.525	2120.84
746.71	2006.16
746.895	2067.6
747.079	2112.65
747.264	2118.79
747.449	2149.51
747.634	2059.4
747.819	2059.4
748.003	2055.31
748.188	2100.36
748.373	2061.45
748.557	1973.39
748.742	1801.36
748.927	2053.26
749.111	2055.31
749.296	1983.63
749.481	1961.1
749.665	1940.62
749.85	2010.25
750.034	1944.72
750.219	1979.53
750.404	1864.85
750.588	1864.85
750.773	1789.07
750.957	1832.08
751.141	1823.89
751.326	1817.74
751.51	1778.83
751.695	1760.4
751.879	1932.43
752.064	1817.74
752.248	1733.78
752.432	1811.6
752.617	1721.49
752.801	1705.1
752.985	1744.02
753.17	1664.15
753.354	1803.41
753.538	1733.78
753.722	1688.72
753.907	1680.53
754.091	1621.14
754.275	1596.56
754.459	1623.19
754.643	1621.14
754.828	1635.47
755.012	1614.99
755.196	1637.52
755.38	1490.07
755.564	1481.88
755.748	1627.28
755.932	1598.61
756.116	1590.42
756.3	1549.46
756.484	1465.49
756.668	1459.35
756.852	1526.93
757.036	1578.13
757.22	1422.48
757.404	1422.48
757.588	1453.2
757.772	1430.68
757.956	1518.74
758.14	1387.67
758.323	1344.66
758.507	1463.44
758.691	1406.1
758.875	1442.96
759.059	1379.48
759.242	1404.05
759.426	1379.48
759.61	1414.29
759.794	1330.33
759.977	1303.7
760.161	1479.83
760.345	1377.43
760.528	1307.8
760.712	1254.55
760.895	1303.7
761.079	1377.43
761.263	1279.13
761.446	1240.22
761.63	1215.64
761.813	1367.19
761.997	1299.61
762.18	1315.99
762.364	1324.18
762.547	1287.32
762.731	1186.97
762.914	1189.02
763.098	1295.51
763.281	1180.82
763.464	1121.43
763.648	1291.41
763.831	1277.08
764.015	1232.02
764.198	1182.87
764.381	1127.58
764.564	1193.11
764.748	1094.81
764.931	1174.68
765.114	1209.5
765.297	1121.43
765.481	1219.74
765.664	1043.61
765.847	1113.24
766.03	1137.82
766.213	1096.86
766.397	1158.3
766.58	1100.95
766.763	1045.66
766.946	1068.19
767.129	1047.71
767.312	1123.48
767.495	1129.63
767.678	1119.39
767.861	1125.53
768.044	1064.09
768.227	1137.82
768.41	1090.71
768.593	1066.14
768.776	1049.75
768.959	1115.29
769.142	1146.01
769.324	980.12
769.507	1062.04
769.69	965.79
769.873	1057.95
770.056	1059.99
770.239	935.07
770.421	1062.04
770.604	1096.86
770.787	1033.37
770.97	920.73
771.152	965.79
771.335	1053.85
771.518	992.41
771.7	935.07
771.883	986.27
772.066	914.59
772.248	982.17
772.431	1025.18
772.613	965.79
772.796	965.79
772.978	996.51
773.161	918.68
773.343	900.25
773.526	992.41
773.708	961.69
773.891	916.64
774.073	1010.84
774.256	836.77
774.438	982.17
774.621	920.73
774.803	869.53
774.985	853.15
775.168	902.3
775.35	822.43
775.532	875.68
775.715	861.34
775.897	877.73
776.079	785.57
776.261	818.33
776.444	758.94
776.626	826.53
776.808	711.84
776.99	812.19
777.173	750.75
777.355	865.44
777.537	734.37
777.719	709.79
777.901	720.03
778.083	781.47
778.265	730.27
778.447	726.18
778.629	752.8
778.811	750.75
778.993	779.42
779.175	705.7
779.357	705.7
779.539	722.08
779.721	701.6
779.903	717.98
780.085	701.6
780.267	695.46
780.449	748.7
780.631	664.74
780.812	683.17
780.994	646.3
781.176	617.63
781.358	656.54
781.54	623.78
781.721	709.79
781.903	713.89
782.085	582.82
782.267	617.63
782.448	681.12
782.63	550.05
782.812	627.87
782.993	619.68
783.175	599.2
783.357	537.76
783.538	568.48
783.72	492.71
783.901	617.63
784.083	631.97
784.264	562.34
784.446	511.14
784.627	578.72
784.809	562.34
784.99	578.72
785.172	533.67
785.353	574.63
785.535	582.82
785.716	517.28
785.897	578.72
786.079	531.62
786.26	513.19
786.441	490.66
786.623	474.28
786.804	502.95
786.985	496.8
787.167	492.71
787.348	507.04
787.529	550.05
787.71	515.23
787.891	398.5
788.073	476.32
788.254	476.32
788.435	507.04
788.616	480.42
788.797	472.23
788.978	437.41
789.159	470.18
789.34	486.56
789.522	484.52
789.703	416.93
789.884	451.75
790.065	431.27
790.246	447.65
790.427	451.75
790.607	455.84
790.788	437.41
790.969	429.22
791.15	371.88
791.331	332.97
791.512	431.27
791.693	414.88
791.874	414.88
792.054	392.36
792.235	459.94
792.416	386.21
792.597	406.69
792.778	404.64
792.958	402.6
793.139	322.73
793.32	357.54
793.5	400.55
793.681	337.06
793.862	431.27
794.042	312.49
794.223	339.11
794.404	431.27
794.584	349.35
794.765	341.16
794.945	275.62
795.126	439.46
795.306	369.83
795.487	394.4
795.667	320.68
795.848	412.84
796.028	359.59
796.209	343.21
796.389	349.35
796.57	353.45
796.75	371.88
796.93	363.69
797.111	337.06
797.291	310.44
797.471	341.16
797.652	292.01
797.832	353.45
798.012	351.4
798.192	251.05
798.373	326.82
798.553	316.58
798.733	310.44
798.913	371.88
799.093	265.38
799.274	294.05
799.454	298.15
799.634	353.45
799.814	271.53
799.994	390.31
800.174	240.81
800.354	318.63
800.534	302.25
800.714	304.29
800.894	339.11
801.074	300.2
801.254	300.2
801.434	287.91
801.614	310.44
801.794	285.86
801.974	609.44
802.154	310.44
802.334	296.1
802.514	365.73
802.693	306.34
802.873	265.38
803.053	269.48
803.233	261.29
803.413	343.21
803.592	226.47
803.772	281.77
803.952	240.81
804.131	210.09
804.311	310.44
804.491	228.52
804.67	273.57
804.85	179.37
805.03	255.14
805.209	251.05
805.389	210.09
805.568	218.28
805.748	242.85
805.928	234.66
806.107	251.05
806.287	226.47
806.466	203.94
806.646	273.57
806.825	306.34
807.004	234.66
807.184	167.08
807.363	230.57
807.543	224.42
807.722	220.33
807.901	310.44
808.081	318.63
808.26	160.94
808.439	257.19
808.619	156.84
808.798	255.14
808.977	224.42
809.156	220.33
809.336	205.99
809.515	179.37
809.694	224.42
809.873	140.46
810.052	246.95
810.231	244.9
810.411	234.66
810.59	216.23
810.769	292.01
810.948	191.66
811.127	165.03
811.306	246.95
811.485	232.62
811.664	220.33
811.843	228.52
812.022	195.75
812.201	197.8
812.38	154.79
812.559	171.18
812.737	216.23
812.916	156.84
813.095	152.74
813.274	216.23
813.453	222.38
813.632	201.9
813.811	203.94
813.989	208.04
814.168	224.42
814.347	173.22
814.526	138.41
814.704	240.81
814.883	152.74
815.062	183.46
815.24	144.55
815.419	109.74
815.598	199.85
815.776	68.78
815.955	169.13
816.133	136.36
816.312	246.95
816.49	165.03
816.669	216.23
816.847	179.37
817.026	230.57
817.204	140.46
817.383	191.66
817.561	130.22
817.74	156.84
817.918	201.9
818.097	156.84
818.275	134.31
818.453	210.09
818.632	179.37
818.81	136.36
818.988	91.31
819.167	179.37
819.345	165.03
819.523	138.41
819.701	126.12
819.879	167.08
820.058	185.51
820.236	173.22
820.414	162.98
820.592	138.41
820.77	109.74
820.948	40.11
821.127	199.85
821.305	208.04
821.483	95.4
821.661	181.42
821.839	177.32
822.017	201.9
822.195	156.84
822.373	117.93
822.551	242.85
822.729	128.17
822.907	165.03
823.085	158.89
823.262	83.11
823.44	132.26
823.618	124.07
823.796	148.65
823.974	70.83
824.152	146.6
824.329	191.66
824.507	124.07
824.685	148.65
824.863	134.31
825.04	169.13
825.218	103.59
825.396	142.5
825.574	140.46
825.751	113.83
825.929	140.46
826.107	81.07
826.284	117.93
826.462	68.78
826.639	148.65
826.817	68.78
826.994	162.98
827.172	62.63
827.349	173.22
827.527	40.11
827.704	89.26
827.882	144.55
828.059	171.18
828.237	89.26
828.414	150.7
828.591	101.55
828.769	113.83
828.946	79.02
829.124	99.5
829.301	152.74
829.478	23.72
829.655	132.26
829.833	126.12
830.01	52.39
830.187	152.74
830.364	103.59
830.542	119.98
830.719	119.98
830.896	48.3
831.073	173.22
831.25	144.55
831.427	154.79
831.604	109.74
831.782	70.83
831.959	113.83
832.136	119.98
832.313	81.07
832.49	109.74
832.667	83.11
832.844	101.55
833.021	134.31
833.198	111.78
833.374	140.46
833.551	113.83
833.728	70.83
833.905	62.63
834.082	171.18
834.259	62.63
834.436	140.46
834.612	79.02
834.789	99.5
834.966	76.97
835.143	152.74
835.319	52.39
835.496	162.98
835.673	79.02
835.85	173.22
836.026	40.11
836.203	148.65
836.38	70.83
836.556	36.01
836.733	60.59
836.909	101.55
837.086	66.73
837.262	52.39
837.439	81.07
837.616	101.55
837.792	117.93
837.968	60.59
838.145	87.21
838.321	105.64
838.498	107.69
838.674	101.55
838.851	140.46
839.027	62.63
839.203	105.64
839.38	66.73
839.556	97.45
839.732	167.08
839.909	91.31
840.085	115.88
840.261	56.49
840.437	23.72
840.614	76.97
840.79	87.21
840.966	29.87
841.142	99.5
841.318	117.93
841.494	74.92
841.671	124.07
841.847	138.41
842.023	-13.14
842.199	95.4
842.375	79.02
842.551	126.12
842.727	29.87
842.903	83.11
843.079	70.83
843.255	107.69
843.431	56.49
843.607	36.01
843.783	54.44
843.959	89.26
844.134	54.44
844.31	83.11
844.486	-15.19
844.662	-2.9
844.838	19.63
845.013	99.5
845.189	138.41
845.365	38.06
845.541	52.39
845.716	17.58
845.892	64.68
846.068	126.12
846.244	44.2
846.419	99.5
846.595	93.35
846.77	25.77
846.946	81.07
847.122	83.11
847.297	99.5
847.473	68.78
847.648	36.01
847.824	23.72
847.999	60.59
848.175	11.43
848.35	38.06
848.526	89.26
848.701	87.21
848.876	17.58
849.052	56.49
849.227	3.24
849.403	56.49
849.578	52.39
849.753	27.82
849.929	136.36
850.104	44.2
850.279	44.2
850.454	50.35
850.63	58.54
850.805	95.4
850.98	144.55
851.155	103.59
851.33	136.36
851.505	7.34
851.681	5.29
851.856	5.29
852.031	130.22
852.206	33.96
852.381	38.06
852.556	93.35
852.731	109.74
852.906	74.92
853.081	68.78
853.256	29.87
853.431	33.96
853.606	-21.33
853.781	25.77
853.956	93.35
854.131	-15.19
854.305	23.72
854.48	87.21
854.655	89.26
854.83	74.92
855.005	-11.09
855.18	105.64
855.354	95.4
855.529	85.16
855.704	62.63
855.879	119.98
856.053	-43.86
856.228	33.96
856.403	70.83
856.577	38.06
856.752	64.68
856.926	-15.19
857.101	87.21
857.276	-7
857.45	72.87
857.625	95.4
857.799	-2.9
857.974	-2.9
858.148	54.44
858.323	19.63
858.497	1.19
858.672	36.01
858.846	105.64
859.02	91.31
859.195	60.59
859.369	50.35
859.543	91.31
859.718	124.07
859.892	38.06
860.066	33.96
860.241	-13.14
860.415	50.35
860.589	-21.33
860.763	-4.95
860.938	7.34
861.112	74.92
861.286	89.26
861.46	54.44
861.634	-13.14
861.808	44.2
861.982	33.96
862.157	-15.19
862.331	-35.67
862.505	-66.39
862.679	-7
862.853	33.96
863.027	29.87
863.201	17.58
863.375	23.72
863.549	27.82
863.722	62.63
863.896	66.73
864.07	7.34
864.244	-2.9
864.418	70.83
864.592	46.25
864.766	64.68
864.939	56.49
865.113	72.87
865.287	83.11
865.461	33.96
865.634	46.25
865.808	3.24
865.982	42.15
866.156	29.87
866.329	66.73
866.503	79.02
866.676	60.59
866.85	76.97
867.024	-37.72
867.197	11.43
867.371	42.15
867.544	19.63
867.718	-4.95
867.891	52.39
868.065	38.06
868.238	36.01
868.412	72.87
868.585	25.77
868.759	42.15
868.932	-15.19
869.105	11.43
869.279	36.01
869.452	23.72
869.625	89.26
869.799	70.83
869.972	9.39
870.145	29.87
870.319	19.63
870.492	-13.14
870.665	-2.9
870.838	15.53
871.011	-52.05
871.185	25.77
871.358	66.73
871.531	83.11
871.704	29.87
871.877	89.26
872.05	85.16
872.223	-41.81
872.396	101.55
872.569	19.63
872.742	-2.9
872.915	33.96
873.088	25.77
873.261	40.11
873.434	50.35
873.607	-15.19
873.78	36.01
873.953	-15.19
874.126	-9.05
874.299	21.67
874.471	-41.81
874.644	50.35
874.817	17.58
874.99	81.07
875.163	5.29
875.335	72.87
875.508	5.29
875.681	9.39
875.853	46.25
876.026	3.24
876.199	54.44
876.371	60.59
876.544	60.59
876.717	76.97
876.889	9.39
877.062	33.96
877.234	21.67
877.407	-17.24
877.579	-7
877.752	54.44
877.924	17.58
878.097	19.63
878.269	-17.24
878.442	54.44
878.614	1.19
878.786	33.96
878.959	-9.05
879.131	48.3
879.303	21.67
879.476	74.92
879.648	50.35
879.82	52.39
879.993	25.77
880.165	36.01
880.337	68.78
880.509	7.34
880.681	91.31
880.854	13.48
881.026	17.58
881.198	52.39
881.37	38.06
881.542	-9.05
881.714	36.01
881.886	38.06
882.058	38.06
882.23	3.24
882.402	79.02
882.574	128.17
882.746	79.02
882.918	-2.9
883.09	40.11
883.262	27.82
883.434	9.39
883.606	-41.81
883.778	-31.57
883.95	54.44
884.122	25.77
884.293	-35.67
884.465	-31.57
884.637	50.35
884.809	3.24
884.98	-37.72
885.152	74.92
885.324	5.29
885.496	-9.05
885.667	-0.85
885.839	56.49
886.011	76.97
886.182	72.87
886.354	11.43
886.525	29.87
886.697	38.06
886.869	68.78
887.04	70.83
887.212	42.15
887.383	97.45
887.555	25.77
887.726	29.87
887.897	25.77
888.069	27.82
888.24	83.11
888.412	103.59
888.583	-33.62
888.754	-31.57
888.926	5.29
889.097	56.49
889.268	13.48
889.44	42.15
889.611	-27.48
889.782	64.68
889.953	62.63
890.125	83.11
890.296	52.39
890.467	56.49
890.638	48.3
890.809	-17.24
890.98	-4.95
891.151	23.72
891.323	46.25
891.494	21.67
891.665	115.88
891.836	36.01
892.007	-7
892.178	-7
892.349	44.2
892.52	40.11
892.691	74.92
892.862	-29.52
893.032	-9.05
893.203	150.7
893.374	54.44
893.545	17.58
893.716	79.02
893.887	56.49
894.057	-0.85
894.228	38.06
894.399	5.29
894.57	79.02
894.74	11.43
894.911	33.96
895.082	38.06
895.253	27.82
895.423	15.53
895.594	79.02
895.764	9.39
895.935	62.63
896.106	36.01
896.276	38.06
896.447	-17.24
896.617	13.48
896.788	19.63
896.958	11.43
897.129	-62.29
897.299	50.35
897.47	66.73
897.64	79.02
897.81	56.49
897.981	48.3
898.151	31.91
898.322	25.77
898.492	17.58
898.662	-35.67
898.832	5.29
899.003	-43.86
899.173	56.49
899.343	66.73
899.513	-37.72
