Data from USB4F104151__95__11-45-47-085.txt Node

Date: Fri Mar 14 11:45:47 EDT 2025
User: louis
Spectrometer: USB4F10415
Trigger mode: 4
Integration Time (sec): 2.000000E-2
Scans to average: 1
Electric dark correction enabled: true
Nonlinearity correction enabled: false
Boxcar width: 0
XAxis mode: Wavelengths
Number of Pixels in Spectrum: 3648
>>>>>Begin Spectral Data<<<<<
178.204	-38.57
178.424	-38.57
178.644	-38.57
178.864	-128.68
179.084	-59.05
179.304	29.01
179.524	-22.19
179.744	-7.85
179.964	10.58
180.184	-3.75
180.404	12.63
180.624	2.39
180.844	-36.52
181.064	-24.23
181.283	22.87
181.503	-24.23
181.723	41.3
181.943	-28.33
182.163	94.55
182.383	-24.23
182.602	-18.09
182.822	112.98
183.042	84.31
183.262	47.44
183.482	57.68
183.701	-69.29
183.921	16.73
184.141	-28.33
184.361	49.49
184.58	72.02
184.8	-30.38
185.02	39.25
185.239	41.3
185.459	84.31
185.679	-40.62
185.898	2.39
186.118	14.68
186.338	0.34
186.557	-11.95
186.777	-44.71
186.997	-26.28
187.216	37.2
187.436	16.73
187.655	102.74
187.875	39.25
188.095	24.92
188.314	39.25
188.534	69.97
188.753	57.68
188.973	16.73
189.192	63.83
189.412	-5.8
189.631	-42.67
189.851	4.44
190.07	12.63
190.29	37.2
190.509	24.92
190.729	65.88
190.948	41.3
191.168	147.8
191.387	69.97
191.607	-24.23
191.826	-11.95
192.045	63.83
192.265	53.59
192.484	-11.95
192.704	4.44
192.923	-24.23
193.142	47.44
193.362	37.2
193.581	8.53
193.8	90.45
194.02	35.16
194.239	-3.75
194.458	20.82
194.678	-20.14
194.897	69.97
195.116	76.12
195.335	20.82
195.555	78.16
195.774	-5.8
195.993	86.36
196.212	47.44
196.432	45.4
196.651	6.49
196.87	37.2
197.089	39.25
197.308	67.92
197.528	35.16
197.747	-22.19
197.966	16.73
198.185	6.49
198.404	37.2
198.623	37.2
198.842	80.21
199.062	78.16
199.281	57.68
199.5	78.16
199.719	-16.04
199.938	104.79
200.157	51.54
200.376	-26.28
200.595	0.34
200.814	29.01
201.033	31.06
201.252	14.68
201.471	-52.91
201.69	61.78
201.909	39.25
202.128	69.97
202.347	4.44
202.566	33.11
202.785	-32.43
203.004	31.06
203.223	80.21
203.442	0.34
203.661	41.3
203.879	10.58
204.098	10.58
204.317	53.59
204.536	41.3
204.755	59.73
204.974	45.4
205.193	69.97
205.411	41.3
205.63	78.16
205.849	24.92
206.068	12.63
206.287	-16.04
206.505	26.96
206.724	-1.71
206.943	-22.19
207.162	26.96
207.381	37.2
207.599	22.87
207.818	39.25
208.037	33.11
208.255	20.82
208.474	-18.09
208.693	6.49
208.911	100.69
209.13	102.74
209.349	2.39
209.567	115.03
209.786	51.54
210.005	14.68
210.223	98.64
210.442	-5.8
210.661	12.63
210.879	31.06
211.098	74.07
211.316	100.69
211.535	65.88
211.753	18.77
211.972	57.68
212.191	35.16
212.409	29.01
212.628	63.83
212.846	100.69
213.065	24.92
213.283	43.35
213.502	63.83
213.72	37.2
213.938	74.07
214.157	37.2
214.375	37.2
214.594	98.64
214.812	16.73
215.031	-5.8
215.249	-48.81
215.467	59.73
215.686	-5.8
215.904	74.07
216.122	4.44
216.341	37.2
216.559	-38.57
216.778	33.11
216.996	2.39
217.214	26.96
217.432	10.58
217.651	41.3
217.869	-1.71
218.087	18.77
218.306	-26.28
218.524	2.39
218.742	-13.99
218.96	33.11
219.179	-75.43
219.397	6.49
219.615	12.63
219.833	20.82
220.051	24.92
220.27	80.21
220.488	45.4
220.706	59.73
220.924	45.4
221.142	-13.99
221.36	90.45
221.578	8.53
221.796	-3.75
222.015	59.73
222.233	-16.04
222.451	22.87
222.669	-44.71
222.887	29.01
223.105	-65.19
223.323	69.97
223.541	74.07
223.759	-36.52
223.977	16.73
224.195	61.78
224.413	-1.71
224.631	10.58
224.849	51.54
225.067	63.83
225.285	-26.28
225.503	20.82
225.721	55.64
225.939	72.02
226.157	74.07
226.375	76.12
226.592	55.64
226.81	59.73
227.028	-38.57
227.246	-100.01
227.464	47.44
227.682	84.31
227.9	69.97
228.117	18.77
228.335	45.4
228.553	59.73
228.771	53.59
228.989	16.73
229.206	6.49
229.424	2.39
229.642	41.3
229.86	10.58
230.077	-3.75
230.295	12.63
230.513	76.12
230.731	8.53
230.948	45.4
231.166	78.16
231.384	35.16
231.601	4.44
231.819	2.39
232.037	51.54
232.254	-18.09
232.472	-3.75
232.689	10.58
232.907	67.92
233.125	8.53
233.342	22.87
233.56	-1.71
233.777	39.25
233.995	39.25
234.213	18.77
234.43	61.78
234.648	31.06
234.865	-16.04
235.083	92.5
235.3	-5.8
235.518	45.4
235.735	4.44
235.953	61.78
236.17	4.44
236.388	41.3
236.605	41.3
236.822	96.6
237.04	43.35
237.257	125.27
237.475	49.49
237.692	43.35
237.909	-7.85
238.127	82.26
238.344	-38.57
238.562	100.69
238.779	8.53
238.996	-1.71
239.214	8.53
239.431	35.16
239.648	51.54
239.865	45.4
240.083	53.59
240.3	12.63
240.517	-65.19
240.735	78.16
240.952	55.64
241.169	35.16
241.386	26.96
241.603	16.73
241.821	26.96
242.038	35.16
242.255	22.87
242.472	14.68
242.689	45.4
242.907	37.2
243.124	76.12
243.341	-16.04
243.558	61.78
243.775	0.34
243.992	14.68
244.209	78.16
244.426	104.79
244.643	26.96
244.86	55.64
245.078	127.32
245.295	47.44
245.512	127.32
245.729	55.64
245.946	31.06
246.163	22.87
246.38	22.87
246.597	41.3
246.814	12.63
247.031	37.2
247.248	-16.04
247.464	35.16
247.681	26.96
247.898	10.58
248.115	74.07
248.332	-20.14
248.549	33.11
248.766	61.78
248.983	67.92
249.2	55.64
249.417	31.06
249.633	24.92
249.85	117.08
250.067	-5.8
250.284	16.73
250.501	-46.76
250.717	100.69
250.934	29.01
251.151	2.39
251.368	20.82
251.585	123.22
251.801	31.06
252.018	26.96
252.235	72.02
252.451	51.54
252.668	-9.9
252.885	125.27
253.102	67.92
253.318	29.01
253.535	49.49
253.752	18.77
253.968	39.25
254.185	-11.95
254.401	119.12
254.618	33.11
254.835	-7.85
255.051	53.59
255.268	24.92
255.484	53.59
255.701	31.06
255.917	14.68
256.134	-24.23
256.351	86.36
256.567	4.44
256.784	-11.95
257	26.96
257.217	24.92
257.433	26.96
257.65	4.44
257.866	51.54
258.082	-9.9
258.299	-1.71
258.515	65.88
258.732	-63.15
258.948	-48.81
259.165	53.59
259.381	22.87
259.597	22.87
259.814	20.82
260.03	-48.81
260.246	29.01
260.463	67.92
260.679	100.69
260.895	55.64
261.112	37.2
261.328	-20.14
261.544	-20.14
261.761	35.16
261.977	24.92
262.193	-32.43
262.409	47.44
262.626	4.44
262.842	-7.85
263.058	12.63
263.274	33.11
263.49	0.34
263.707	37.2
263.923	35.16
264.139	-22.19
264.355	57.68
264.571	65.88
264.787	72.02
265.004	-9.9
265.22	12.63
265.436	63.83
265.652	8.53
265.868	-7.85
266.084	-28.33
266.3	59.73
266.516	10.58
266.732	18.77
266.948	2.39
267.164	6.49
267.38	43.35
267.596	57.68
267.812	61.78
268.028	86.36
268.244	24.92
268.46	78.16
268.676	82.26
268.892	37.2
269.108	63.83
269.324	59.73
269.54	-20.14
269.756	94.55
269.972	4.44
270.188	-7.85
270.403	26.96
270.619	67.92
270.835	-1.71
271.051	0.34
271.267	-22.19
271.483	0.34
271.698	43.35
271.914	24.92
272.13	55.64
272.346	-3.75
272.562	88.4
272.777	49.49
272.993	29.01
273.209	43.35
273.425	45.4
273.64	33.11
273.856	65.88
274.072	26.96
274.287	8.53
274.503	80.21
274.719	-40.62
274.934	10.58
275.15	-20.14
275.366	110.93
275.581	49.49
275.797	69.97
276.012	-34.47
276.228	22.87
276.444	-36.52
276.659	49.49
276.875	-5.8
277.09	24.92
277.306	84.31
277.521	59.73
277.737	57.68
277.952	53.59
278.168	35.16
278.383	127.32
278.599	18.77
278.814	37.2
279.03	-11.95
279.245	59.73
279.461	80.21
279.676	49.49
279.892	37.2
280.107	72.02
280.322	-20.14
280.538	12.63
280.753	20.82
280.969	43.35
281.184	57.68
281.399	65.88
281.615	82.26
281.83	31.06
282.045	131.41
282.26	59.73
282.476	4.44
282.691	63.83
282.906	112.98
283.122	35.16
283.337	16.73
283.552	4.44
283.767	57.68
283.983	12.63
284.198	37.2
284.413	12.63
284.628	8.53
284.843	16.73
285.058	-5.8
285.274	76.12
285.489	18.77
285.704	59.73
285.919	2.39
286.134	63.83
286.349	-34.47
286.564	67.92
286.779	41.3
286.995	33.11
287.21	98.64
287.425	-28.33
287.64	88.4
287.855	33.11
288.07	12.63
288.285	16.73
288.5	2.39
288.715	33.11
288.93	45.4
289.145	26.96
289.36	41.3
289.575	8.53
289.79	33.11
290.004	-3.75
290.219	84.31
290.434	-36.52
290.649	47.44
290.864	-3.75
291.079	6.49
291.294	26.96
291.509	92.5
291.724	-7.85
291.938	39.25
292.153	82.26
292.368	8.53
292.583	86.36
292.798	67.92
293.012	74.07
293.227	-13.99
293.442	51.54
293.657	29.01
293.871	110.93
294.086	74.07
294.301	14.68
294.516	49.49
294.73	55.64
294.945	45.4
295.16	108.88
295.374	59.73
295.589	24.92
295.804	78.16
296.018	45.4
296.233	12.63
296.447	49.49
296.662	-1.71
296.877	76.12
297.091	26.96
297.306	94.55
297.52	-5.8
297.735	10.58
297.949	84.31
298.164	37.2
298.378	29.01
298.593	74.07
298.807	8.53
299.022	45.4
299.236	63.83
299.451	-52.91
299.665	24.92
299.88	2.39
300.094	102.74
300.309	65.88
300.523	110.93
300.737	49.49
300.952	43.35
301.166	84.31
301.381	24.92
301.595	51.54
301.809	4.44
302.024	72.02
302.238	37.2
302.452	20.82
302.667	-61.1
302.881	22.87
303.095	24.92
303.309	47.44
303.524	16.73
303.738	139.6
303.952	76.12
304.166	45.4
304.381	-11.95
304.595	141.65
304.809	-1.71
305.023	43.35
305.237	74.07
305.452	18.77
305.666	106.84
305.88	55.64
306.094	78.16
306.308	45.4
306.522	22.87
306.736	80.21
306.95	24.92
307.164	6.49
307.379	39.25
307.593	96.6
307.807	49.49
308.021	-7.85
308.235	88.4
308.449	49.49
308.663	0.34
308.877	69.97
309.091	41.3
309.305	31.06
309.519	26.96
309.733	22.87
309.947	26.96
310.161	37.2
310.374	29.01
310.588	76.12
310.802	92.5
311.016	65.88
311.23	4.44
311.444	6.49
311.658	61.78
311.872	18.77
312.085	104.79
312.299	49.49
312.513	-9.9
312.727	106.84
312.941	-3.75
313.154	12.63
313.368	110.93
313.582	33.11
313.796	96.6
314.009	14.68
314.223	22.87
314.437	-7.85
314.651	108.88
314.864	49.49
315.078	10.58
315.292	-22.19
315.505	-22.19
315.719	6.49
315.933	43.35
316.146	51.54
316.36	-11.95
316.573	80.21
316.787	-3.75
317.001	33.11
317.214	2.39
317.428	12.63
317.641	65.88
317.855	26.96
318.068	96.6
318.282	55.64
318.495	94.55
318.709	67.92
318.922	92.5
319.136	29.01
319.349	41.3
319.563	-44.71
319.776	12.63
319.99	-26.28
320.203	37.2
320.417	49.49
320.63	100.69
320.843	123.22
321.057	45.4
321.27	84.31
321.483	35.16
321.697	33.11
321.91	53.59
322.124	-22.19
322.337	22.87
322.55	72.02
322.763	-38.57
322.977	41.3
323.19	51.54
323.403	57.68
323.617	-28.33
323.83	18.77
324.043	14.68
324.256	127.32
324.469	4.44
324.683	33.11
324.896	45.4
325.109	55.64
325.322	6.49
325.535	6.49
325.748	72.02
325.962	-20.14
326.175	18.77
326.388	131.41
326.601	51.54
326.814	53.59
327.027	16.73
327.24	74.07
327.453	49.49
327.666	174.42
327.879	115.03
328.092	90.45
328.305	-83.63
328.518	45.4
328.731	14.68
328.944	57.68
329.157	112.98
329.37	112.98
329.583	74.07
329.796	88.4
330.009	-20.14
330.222	45.4
330.435	74.07
330.648	-3.75
330.861	41.3
331.073	-1.71
331.286	90.45
331.499	8.53
331.712	4.44
331.925	53.59
332.138	55.64
332.35	90.45
332.563	47.44
332.776	145.75
332.989	-16.04
333.202	6.49
333.414	31.06
333.627	31.06
333.84	69.97
334.053	74.07
334.265	61.78
334.478	-5.8
334.691	6.49
334.903	-36.52
335.116	18.77
335.329	55.64
335.541	35.16
335.754	49.49
335.966	16.73
336.179	35.16
336.392	14.68
336.604	78.16
336.817	96.6
337.029	49.49
337.242	12.63
337.454	35.16
337.667	41.3
337.88	18.77
338.092	-26.28
338.305	180.56
338.517	55.64
338.729	69.97
338.942	4.44
339.154	74.07
339.367	12.63
339.579	31.06
339.792	61.78
340.004	24.92
340.217	63.83
340.429	24.92
340.641	59.73
340.854	18.77
341.066	39.25
341.278	96.6
341.491	127.32
341.703	-3.75
341.915	47.44
342.128	90.45
342.34	74.07
342.552	37.2
342.764	41.3
342.977	22.87
343.189	47.44
343.401	37.2
343.613	26.96
343.826	-1.71
344.038	26.96
344.25	53.59
344.462	2.39
344.674	39.25
344.886	47.44
345.099	4.44
345.311	74.07
345.523	94.55
345.735	29.01
345.947	51.54
346.159	63.83
346.371	61.78
346.583	14.68
346.795	63.83
347.007	43.35
347.219	96.6
347.431	41.3
347.643	76.12
347.855	37.2
348.067	100.69
348.279	4.44
348.491	82.26
348.703	72.02
348.915	16.73
349.127	29.01
349.339	80.21
349.551	-54.95
349.763	61.78
349.975	-9.9
350.187	78.16
350.399	90.45
350.61	-7.85
350.822	78.16
351.034	29.01
351.246	31.06
351.458	2.39
351.669	72.02
351.881	16.73
352.093	63.83
352.305	102.74
352.517	39.25
352.728	67.92
352.94	20.82
353.152	29.01
353.363	-48.81
353.575	80.21
353.787	63.83
353.999	43.35
354.21	35.16
354.422	39.25
354.633	61.78
354.845	82.26
355.057	-24.23
355.268	63.83
355.48	82.26
355.692	-9.9
355.903	88.4
356.115	0.34
356.326	16.73
356.538	33.11
356.749	90.45
356.961	86.36
357.172	29.01
357.384	53.59
357.595	96.6
357.807	96.6
358.018	35.16
358.23	-9.9
358.441	121.17
358.653	45.4
358.864	4.44
359.075	0.34
359.287	35.16
359.498	53.59
359.709	82.26
359.921	82.26
360.132	4.44
360.344	43.35
360.555	57.68
360.766	53.59
360.977	-30.38
361.189	53.59
361.4	65.88
361.611	18.77
361.823	57.68
362.034	-5.8
362.245	-22.19
362.456	35.16
362.667	35.16
362.879	100.69
363.09	41.3
363.301	41.3
363.512	-38.57
363.723	67.92
363.935	-1.71
364.146	41.3
364.357	88.4
364.568	57.68
364.779	-7.85
364.99	20.82
365.201	35.16
365.412	80.21
365.623	0.34
365.834	22.87
366.045	47.44
366.256	76.12
366.467	63.83
366.678	41.3
366.889	31.06
367.1	72.02
367.311	59.73
367.522	-5.8
367.733	63.83
367.944	24.92
368.155	63.83
368.366	37.2
368.577	24.92
368.788	49.49
368.999	-44.71
369.209	39.25
369.42	37.2
369.631	74.07
369.842	-36.52
370.053	55.64
370.264	12.63
370.474	123.22
370.685	55.64
370.896	24.92
371.107	57.68
371.317	39.25
371.528	69.97
371.739	47.44
371.95	57.68
372.16	22.87
372.371	-36.52
372.582	-40.62
372.792	119.12
373.003	35.16
373.214	92.5
373.424	88.4
373.635	2.39
373.846	51.54
374.056	20.82
374.267	100.69
374.477	29.01
374.688	14.68
374.898	153.94
375.109	102.74
375.319	80.21
375.53	72.02
375.74	14.68
375.951	51.54
376.161	47.44
376.372	72.02
376.582	35.16
376.793	123.22
377.003	-18.09
377.214	76.12
377.424	78.16
377.635	55.64
377.845	35.16
378.055	26.96
378.266	-13.99
378.476	96.6
378.686	18.77
378.897	110.93
379.107	55.64
379.317	84.31
379.528	72.02
379.738	117.08
379.948	24.92
380.158	80.21
380.369	78.16
380.579	90.45
380.789	84.31
380.999	92.5
381.21	100.69
381.42	76.12
381.63	67.92
381.84	106.84
382.05	0.34
382.261	39.25
382.471	16.73
382.681	53.59
382.891	24.92
383.101	129.36
383.311	100.69
383.521	88.4
383.731	51.54
383.941	45.4
384.151	80.21
384.361	-20.14
384.571	94.55
384.781	41.3
384.991	45.4
385.201	106.84
385.411	80.21
385.621	24.92
385.831	88.4
386.041	57.68
386.251	39.25
386.461	90.45
386.671	63.83
386.881	137.56
387.091	41.3
387.301	102.74
387.511	82.26
387.72	67.92
387.93	63.83
388.14	74.07
388.35	20.82
388.56	51.54
388.769	100.69
388.979	53.59
389.189	16.73
389.399	-3.75
389.609	78.16
389.818	69.97
390.028	24.92
390.238	82.26
390.447	76.12
390.657	88.4
390.867	53.59
391.076	76.12
391.286	135.51
391.496	119.12
391.705	61.78
391.915	133.46
392.125	51.54
392.334	61.78
392.544	41.3
392.753	104.79
392.963	-7.85
393.172	12.63
393.382	53.59
393.591	135.51
393.801	76.12
394.01	78.16
394.22	115.03
394.429	78.16
394.639	35.16
394.848	35.16
395.058	61.78
395.267	78.16
395.477	49.49
395.686	119.12
395.895	143.7
396.105	117.08
396.314	84.31
396.524	186.71
396.733	90.45
396.942	14.68
397.152	12.63
397.361	123.22
397.57	65.88
397.78	78.16
397.989	84.31
398.198	145.75
398.407	94.55
398.617	82.26
398.826	119.12
399.035	153.94
399.244	98.64
399.453	135.51
399.663	94.55
399.872	178.51
400.081	201.04
400.29	131.41
400.499	43.35
400.708	119.12
400.917	96.6
401.127	115.03
401.336	106.84
401.545	121.17
401.754	84.31
401.963	102.74
402.172	139.6
402.381	29.01
402.59	127.32
402.799	92.5
403.008	49.49
403.217	94.55
403.426	86.36
403.635	67.92
403.844	98.64
404.053	127.32
404.262	174.42
404.471	203.09
404.68	110.93
404.888	76.12
405.097	51.54
405.306	143.7
405.515	143.7
405.724	149.84
405.933	149.84
406.142	164.18
406.35	203.09
406.559	219.47
406.768	242
406.977	235.86
407.185	246.1
407.394	155.99
407.603	178.51
407.812	184.66
408.02	194.9
408.229	164.18
408.438	153.94
408.646	194.9
408.855	258.39
409.064	209.23
409.272	225.62
409.481	272.72
409.69	235.86
409.898	248.15
410.107	295.25
410.315	252.24
410.524	246.1
410.733	301.39
410.941	250.19
411.15	317.78
411.358	344.4
411.567	325.97
411.775	364.88
411.984	305.49
412.192	385.36
412.401	430.41
412.609	500.05
412.818	452.94
413.026	399.7
413.234	434.51
413.443	512.33
413.651	424.27
413.86	444.75
414.068	530.77
414.276	536.91
414.485	502.09
414.693	524.62
414.901	618.83
415.11	604.49
415.318	565.58
415.526	717.13
415.734	655.69
415.943	747.85
416.151	713.03
416.359	713.03
416.567	790.86
416.776	780.62
416.984	823.62
417.192	899.4
417.4	893.26
417.608	840.01
417.817	837.96
418.025	1028.42
418.233	1018.18
418.441	1024.33
418.649	946.5
418.857	1065.29
419.065	1122.63
419.273	1057.09
419.481	1192.26
419.689	1265.99
419.897	1288.51
420.105	1395.01
420.313	1384.77
420.521	1456.45
420.729	1376.58
420.937	1409.34
421.145	1554.75
421.353	1630.52
421.561	1632.57
421.769	1669.44
421.977	1718.59
422.185	1810.75
422.393	1849.66
422.601	1919.29
422.809	1943.86
423.017	2085.17
423.224	2015.54
423.432	2119.99
423.64	2203.96
423.848	2343.22
424.056	2302.26
424.263	2462
424.471	2535.73
424.679	2486.58
424.887	2668.84
425.094	2799.91
425.302	2763.05
425.51	2791.72
425.718	2851.11
425.925	2963.75
426.133	3109.16
426.341	3168.55
426.548	3309.86
426.756	3393.83
426.964	3510.56
427.171	3481.89
427.379	3709.21
427.586	3672.35
427.794	3825.95
428.001	4124.95
428.209	4292.88
428.417	4149.53
428.624	4286.74
428.832	4505.87
429.039	4440.34
429.247	4450.58
429.454	4796.68
429.662	5146.89
429.869	4901.13
430.076	5261.57
430.284	5187.85
430.491	5370.12
430.699	5581.06
430.906	5603.58
431.114	5447.94
431.321	5759.23
431.528	6056.18
431.736	6443.25
431.943	6605.04
432.15	6316.28
432.358	6609.14
432.565	6863.08
432.772	6777.07
432.979	7170.28
433.187	7370.98
433.394	7387.36
433.601	7708.9
433.808	7758.05
434.016	7790.81
434.223	8157.4
434.43	8710.35
434.637	8368.34
434.844	8974.54
435.052	9205.96
435.259	9160.91
435.466	9199.82
435.673	9224.39
435.88	9844.93
436.087	10254.52
436.294	10326.2
436.501	9980.09
436.708	10184.89
436.915	10877.1
437.122	11053.23
437.329	10952.88
437.537	11272.36
437.743	11602.08
437.95	11389.1
438.157	11878.56
438.364	12378.26
438.571	12433.56
438.778	12220.57
438.985	13656.2
439.192	12814.48
439.399	13293.71
439.606	13287.56
439.813	13953.15
440.02	14770.29
440.227	14512.25
440.433	14729.33
440.64	14794.87
440.847	14667.89
441.054	15112.3
441.261	16216.16
441.467	15784.04
441.674	16255.07
441.881	16918.61
442.088	16830.55
442.294	16681.05
442.501	17033.3
442.708	17412.17
442.914	18124.86
443.121	19054.64
443.328	18356.29
443.534	19714.09
443.741	19007.54
443.948	18628.67
444.154	20375.58
444.361	20244.51
444.568	20607
444.774	20058.15
444.981	20396.06
445.187	21139.47
445.394	22110.21
445.6	21862.41
445.807	23744.49
446.013	22788.09
446.22	23220.21
446.426	24322.02
446.633	24317.92
446.839	24956.89
447.046	23918.57
447.252	25595.85
447.459	25509.84
447.665	25561.04
447.871	26427.33
448.078	27457.46
448.284	26185.67
448.491	27058.1
448.697	27971.5
448.903	28503.97
449.11	28729.25
449.316	28194.73
449.522	28782.49
449.728	29726.61
449.935	29769.62
450.141	29650.83
450.347	30510.98
450.553	29509.52
450.76	29470.61
450.966	30766.98
451.172	30375.81
451.378	31068.03
451.584	30515.08
451.791	31156.09
451.997	31147.9
452.203	32012.14
452.409	31692.66
452.615	31807.34
452.821	30394.25
453.027	30543.75
453.233	32001.9
453.44	30529.41
453.646	31074.17
453.852	31389.56
454.058	31756.14
454.264	30506.88
454.47	30922.62
454.676	30596.99
454.882	31471.48
455.088	28540.83
455.294	29357.97
455.5	29765.52
455.705	30136.2
455.911	28630.94
456.117	28137.38
456.323	27725.74
456.529	26347.46
456.735	27555.76
456.941	26945.47
457.147	26204.1
457.352	25782.22
457.558	25384.91
457.764	25290.71
457.97	24696.8
458.176	24328.16
458.381	23963.62
458.587	23126
458.793	23345.14
458.999	22083.59
459.204	23480.3
459.41	23097.33
459.616	21205.01
459.821	21418
460.027	21430.29
460.233	20469.79
460.438	19796.01
460.644	20023.33
460.85	19038.26
461.055	18960.44
461.261	18681.91
461.466	17199.18
461.672	17000.53
461.878	18094.15
462.083	17023.06
462.289	16599.13
462.494	16549.98
462.7	15503.46
462.905	15186.03
463.111	16044.13
463.316	15851.62
463.522	15480.94
463.727	15392.87
463.932	15401.07
464.138	15462.51
464.343	15298.67
464.549	15020.14
464.754	15384.68
464.959	15310.96
465.165	15028.34
465.37	14428.28
465.575	14076.03
465.781	14964.85
465.986	14917.75
466.191	14340.22
466.397	14127.23
466.602	13357.19
466.807	13691.01
467.012	13738.12
467.218	13944.96
467.423	13750.4
467.628	13635.72
467.833	13854.85
468.038	13451.4
468.244	13201.55
468.449	13856.9
468.654	13093.01
468.859	13074.57
469.064	13207.69
469.269	12728.47
469.474	12759.19
469.679	13105.29
469.885	12814.48
470.09	12753.04
470.295	12632.21
470.5	12316.83
470.705	12583.06
470.91	12152.99
471.115	12073.12
471.32	12408.98
471.525	12212.38
471.73	12101.79
471.935	11653.28
472.139	11286.7
472.344	11509.93
472.549	11473.06
472.754	11358.38
472.959	11276.46
473.164	10907.82
473.369	10913.97
473.574	10985.65
473.778	11124.91
473.983	10969.26
474.188	11020.46
474.393	10451.13
474.598	10438.84
474.802	10369.21
475.007	10352.82
475.212	10365.11
475.417	9978.05
475.621	9822.4
475.826	9926.85
476.031	9662.66
476.235	9619.65
476.44	9744.58
476.645	9572.55
476.849	9552.07
477.054	9545.92
477.259	9101.51
477.463	9220.3
477.668	9007.31
477.872	9033.93
478.077	8958.16
478.282	8849.61
478.486	8687.82
478.691	8792.27
478.895	8667.35
479.1	8704.21
479.304	8761.55
479.509	8523.99
479.713	8493.27
479.918	8284.37
480.122	8177.88
480.326	8456.4
480.531	8349.91
480.735	8147.16
480.94	8100.06
481.144	8655.06
481.348	8124.63
481.553	8157.4
481.757	7854.3
481.961	8022.23
482.166	8163.54
482.37	8079.58
482.574	7983.32
482.778	8028.38
482.983	8073.43
483.187	8089.82
483.391	8120.54
483.595	7950.56
483.8	7942.36
484.004	7981.28
484.208	8173.78
484.412	8016.09
484.616	8143.07
484.821	7842.01
485.025	7971.04
485.229	8057.05
485.433	7758.05
485.637	7891.16
485.841	7936.22
486.045	7891.16
486.249	7991.52
486.453	7833.82
486.657	7923.93
486.861	8003.8
487.065	7665.89
487.269	7946.46
487.473	7710.94
487.677	7805.15
487.881	8069.34
488.085	8018.14
488.289	8059.1
488.493	7940.32
488.697	8026.33
488.901	7997.66
489.105	8067.29
489.309	8233.18
489.512	7964.89
489.716	8048.86
489.92	8046.81
490.124	8155.35
490.328	8298.71
490.531	8106.2
490.735	8016.09
490.939	8126.68
491.143	8046.81
491.346	8104.15
491.55	8216.79
491.754	8220.89
491.958	8399.06
492.161	8237.27
492.365	8321.24
492.569	8480.98
492.772	8405.21
492.976	8448.21
493.18	8526.04
493.383	8417.49
493.587	8739.02
493.79	8696.02
493.994	8470.74
494.197	8693.97
494.401	8636.63
494.605	8845.52
494.808	8861.9
495.012	8835.28
495.215	8939.72
495.419	8911.05
495.622	8972.49
495.825	9171.15
496.029	9128.14
496.232	9371.85
496.436	9353.41
496.639	9648.32
496.843	9451.72
497.046	9697.47
497.249	9760.96
497.453	9910.46
497.656	9914.56
497.859	9992.38
498.063	10162.36
498.266	10287.29
498.469	10322.1
498.673	10268.86
498.876	10371.26
499.079	10621.11
499.282	10320.06
499.485	10815.66
499.689	10848.43
499.892	11108.52
500.095	11098.28
500.298	11354.28
500.501	10989.74
500.705	11505.83
500.908	11634.85
501.111	11833.5
501.314	11636.9
501.517	11813.03
501.72	11974.81
501.923	12118.17
502.126	12439.7
502.329	12505.24
502.532	12568.73
502.735	12759.19
502.938	13060.24
503.141	13054.09
503.344	13482.12
503.547	13121.68
503.75	13494.41
503.953	13774.98
504.156	13772.93
504.359	13734.02
504.562	13848.71
504.765	14123.13
504.968	14391.42
505.17	14436.47
505.373	14344.31
505.576	14651.51
505.779	14995.57
505.982	14993.52
506.185	15192.17
506.387	15325.29
506.59	15411.31
506.793	15857.76
506.996	15896.67
507.198	16226.4
507.401	15833.19
507.604	16273.5
507.807	16617.56
508.009	16549.98
508.212	16965.71
508.415	17158.22
508.617	17309.77
508.82	17336.4
509.022	17242.19
509.225	17674.31
509.428	17967.17
509.63	17975.36
509.833	17948.74
510.035	18583.61
510.238	18331.71
510.44	18661.43
510.643	18892.85
510.845	19136.56
511.048	19292.21
511.25	19267.63
511.453	19509.29
511.655	19927.08
511.858	20006.95
512.06	20285.47
512.262	20416.54
512.465	20195.36
512.667	20785.18
512.87	20895.77
513.072	20930.58
513.274	21071.89
513.477	21622.8
513.679	21755.91
513.881	21860.36
514.084	22233.09
514.286	22063.11
514.488	22317.06
514.69	22996.98
514.893	22937.59
515.095	23146.48
515.297	23369.71
515.499	23582.7
515.701	23975.91
515.904	24176.61
516.106	24129.51
516.308	24379.36
516.51	24512.48
516.712	24737.76
516.914	25006.04
517.116	25380.82
517.318	25569.23
517.52	25597.9
517.722	25741.26
517.925	25771.98
518.127	26435.52
518.329	26691.52
518.531	26546.11
518.733	27201.46
518.935	27365.3
519.136	27221.94
519.338	27555.76
519.54	27764.65
519.742	28278.69
519.944	28430.24
520.146	28628.9
520.348	28882.84
520.55	29095.83
520.752	28999.58
520.954	29708.18
521.155	29294.49
521.357	30048.14
521.559	30152.59
521.761	30465.92
521.963	30797.7
522.164	31080.32
522.366	30809.98
522.568	31340.41
522.77	31223.67
522.971	31975.28
523.173	31926.13
523.375	32014.19
523.576	32098.16
523.778	32061.29
523.98	32677.73
524.181	32950.11
524.383	32866.14
524.584	33222.49
524.786	33111.9
524.988	33159
525.189	33283.93
525.391	33658.71
525.592	33722.19
525.794	34436.94
525.995	34352.97
526.197	34279.24
526.398	34195.28
526.6	34805.57
526.801	34875.2
527.003	35106.62
527.204	34903.87
527.406	35438.39
527.607	35659.57
527.808	35745.59
528.01	35188.54
528.211	35694.39
528.412	36226.86
528.614	36075.31
528.815	36022.06
529.016	36351.79
529.218	36321.07
529.419	36593.45
529.62	36507.43
529.822	36402.99
530.023	36437.8
530.224	36718.37
530.425	36874.02
530.626	36222.76
530.828	36529.96
531.029	37336.86
531.23	36611.88
531.431	36714.28
531.632	37330.72
531.833	37201.69
532.035	36943.65
532.236	37394.2
532.437	37590.81
532.638	37162.78
532.839	37451.55
533.04	37701.4
533.241	37140.25
533.442	38065.94
533.643	37734.17
533.844	37588.76
534.045	37734.17
534.246	37142.3
534.447	37893.91
534.648	37861.14
534.849	37887.76
535.05	37838.61
535.251	37564.18
535.451	37996.31
535.652	38164.24
535.853	37719.83
536.054	37723.93
536.255	37955.35
536.456	37867.28
536.657	38147.86
536.857	37713.69
537.058	37760.79
537.259	37977.87
537.46	37746.45
537.66	37783.32
537.861	37746.45
538.062	37844.76
538.263	37994.26
538.463	37555.99
538.664	37764.89
538.865	37981.97
539.065	38147.86
539.266	37627.67
539.466	38233.87
539.667	37689.11
539.868	38131.47
540.068	37754.65
540.269	37795.6
540.469	37824.28
540.67	37803.8
540.87	37687.06
541.071	37611.29
541.271	38346.51
541.472	37873.43
541.672	37811.99
541.873	37777.17
542.073	37693.21
542.274	38154
542.474	38041.36
542.675	37668.63
542.875	38035.22
543.075	37949.2
543.276	37510.94
543.476	37885.72
543.676	37738.26
543.877	37836.56
544.077	37824.28
544.277	37525.27
544.478	37943.06
544.678	37836.56
544.878	37467.93
545.078	37504.79
545.279	37900.05
545.479	37410.59
545.679	37861.14
545.879	37543.7
546.079	37533.46
546.28	37760.79
546.48	37150.49
546.68	37728.02
546.88	37811.99
547.08	37512.98
547.28	37345.05
547.48	37357.34
547.68	37488.41
547.88	37484.31
548.081	37809.94
548.281	37291.8
548.481	37015.33
548.681	37601.05
548.881	38063.89
549.081	37269.28
549.28	37426.97
549.48	37766.93
549.68	37529.37
549.88	37863.19
550.08	37650.2
550.28	38117.14
550.48	37326.62
550.68	37658.39
550.88	37265.18
551.08	37254.94
551.279	37400.35
551.479	37283.61
551.679	37429.02
551.879	37345.05
552.079	37517.08
552.278	37019.42
552.478	37349.15
552.678	37164.83
552.878	37324.57
553.077	37353.24
553.277	36742.95
553.477	37627.67
553.676	37353.24
553.876	37367.58
554.076	37136.16
554.275	36722.47
554.475	36478.76
554.674	36917.03
554.874	36765.48
555.074	36964.13
555.273	36593.45
555.473	37146.4
555.672	36474.66
555.872	36665.13
556.071	36783.91
556.271	37121.82
556.47	36753.19
556.67	36532.01
556.869	36423.47
557.068	36644.65
557.268	36435.75
557.467	36345.64
557.667	36351.79
557.866	36308.78
558.065	36382.51
558.265	36114.22
558.464	35950.38
558.663	36206.38
558.863	35974.96
559.062	36990.75
559.261	36038.45
559.461	36233
559.66	35499.83
559.859	35936.05
560.058	35667.77
560.258	35862.32
560.457	35424.06
560.656	35989.3
560.855	35702.58
561.054	35673.91
561.253	35241.79
561.453	35364.67
561.652	35641.14
561.851	35680.05
562.05	35100.48
562.249	35010.37
562.448	35313.47
562.647	35104.57
562.846	34811.71
563.045	34920.26
563.244	34858.82
563.443	35125.05
563.642	34318.15
563.841	34742.08
564.04	34494.28
564.239	34973.5
564.438	34226
564.637	34611.01
564.836	34430.79
565.035	33918.8
565.234	34389.83
565.432	34164.56
565.631	34053.97
565.83	33910.61
566.029	33634.13
566.228	33685.33
566.427	33675.09
566.625	33441.62
566.824	33513.3
567.023	33808.21
567.222	33132.38
567.42	33423.19
567.619	33128.28
567.818	33281.88
568.016	33007.45
568.215	33482.58
568.414	32943.97
568.612	33159
568.811	32616.29
569.01	32833.38
569.208	32610.15
569.407	32700.26
569.605	32139.11
569.804	32581.48
570.002	32046.96
570.201	32624.48
570.4	32006
570.598	32192.36
570.797	31772.53
570.995	32114.54
571.193	31606.64
571.392	32194.41
571.59	31627.12
571.789	31463.29
571.987	31424.37
572.186	31264.63
572.384	31137.66
572.582	31471.48
572.781	31463.29
572.979	30605.19
573.177	31104.89
573.376	31108.99
573.574	30506.88
573.772	30975.87
573.971	30633.86
574.169	30801.79
574.367	30375.81
574.565	30539.65
574.763	30529.41
574.962	30271.37
575.16	30181.26
575.358	30500.74
575.556	29826.96
575.754	30128.01
575.952	29933.45
576.151	29638.55
576.349	29824.91
576.547	29523.86
576.745	29525.91
576.943	29923.21
577.141	29507.48
577.339	29349.78
577.537	29161.37
577.735	29333.4
577.933	28911.52
578.131	29222.81
578.329	28815.26
578.527	28766.11
578.725	28546.98
578.923	28719.01
579.121	28807.07
579.319	28473.25
579.516	28655.52
579.714	28286.89
579.912	28526.5
580.11	28170.15
580.308	28299.17
580.506	28143.53
580.704	27615.15
580.901	27822
581.099	28497.83
581.297	27862.96
581.495	27488.18
581.692	27770.8
581.89	27496.37
582.088	28053.42
582.285	27318.2
582.483	27561.9
582.681	27357.11
582.878	27109.3
583.076	26988.47
583.274	27252.66
583.471	26947.51
583.669	26795.96
583.866	26793.92
584.064	27248.57
584.262	26746.81
584.459	26767.29
584.657	26916.79
584.854	26519.49
585.052	26275.78
585.249	26734.53
585.447	26398.66
585.644	26046.41
585.841	26220.49
586.039	26320.84
586.236	25954.25
586.434	26152.9
586.631	25638.86
586.828	25989.06
587.026	25765.84
587.223	25683.92
587.42	25389.01
587.618	25575.38
587.815	25415.63
588.012	25323.47
588.21	25069.53
588.407	25309.14
588.604	25290.71
588.801	24977.37
588.999	25055.19
589.196	25499.6
589.393	24911.83
589.59	24670.17
589.787	24973.27
589.984	24719.32
590.182	24399.84
590.379	24768.48
590.576	24319.97
590.773	24578.01
590.97	24256.48
591.167	24442.85
591.364	23994.34
591.561	24176.61
591.758	23986.15
591.955	23848.94
592.152	24180.71
592.349	23640.04
592.546	23783.4
592.743	23531.5
592.94	23257.07
593.137	23558.13
593.334	23572.46
593.531	23226.35
593.727	23357.42
593.924	23263.22
594.121	23054.33
594.318	23578.61
594.515	23058.42
594.712	23416.82
594.908	22769.66
595.105	22921.21
595.302	22593.53
595.499	22898.68
595.696	22591.48
595.892	22480.89
596.089	22364.16
596.286	22695.93
596.482	22341.63
596.679	22364.16
596.876	22652.92
597.072	22208.51
597.269	22241.28
597.466	22056.96
597.662	22128.64
597.859	22024.2
598.055	22030.34
598.252	21772.3
598.448	22108.16
598.645	21712.91
598.841	21784.58
599.038	21538.83
599.234	21743.63
599.431	21372.94
599.627	21334.03
599.824	21493.77
600.02	21372.94
600.217	21127.19
600.413	21059.6
600.609	20895.77
600.806	21162
601.002	21129.23
601.198	20817.94
601.395	20871.19
601.591	20781.08
601.787	20475.93
601.984	20297.76
602.18	20668.44
602.376	20348.96
602.572	20744.22
602.769	20207.65
602.965	20082.72
603.161	20373.53
603.357	20486.17
603.553	20367.39
603.75	20351.01
603.946	19982.37
604.142	20088.87
604.338	19812.39
604.534	19896.36
604.73	19732.52
604.926	19818.53
605.122	19759.14
605.318	19867.69
605.514	19447.85
605.71	19353.65
605.906	19167.28
606.102	19552.3
606.298	19212.34
606.494	19445.8
606.69	19456.04
606.886	19427.37
607.082	18788.41
607.278	19222.58
607.474	18864.18
607.67	19111.99
607.866	18849.85
608.062	18960.44
608.257	18829.37
608.453	18845.75
608.649	18804.79
608.845	18733.11
609.041	18749.5
609.236	18870.33
609.432	18649.14
609.628	18296.89
609.824	18796.6
610.019	18528.31
610.215	18440.25
610.411	18634.81
610.606	18421.82
610.802	18425.92
610.998	18528.31
611.193	18352.19
611.389	18161.73
611.584	18153.54
611.78	17991.75
611.976	17928.26
612.171	18206.78
612.367	17903.68
612.562	17799.24
612.758	17778.76
612.953	18059.33
613.149	17987.65
613.344	17870.92
613.539	18079.81
613.735	17758.28
613.93	17858.63
614.126	17459.27
614.321	17571.91
614.517	17987.65
614.712	17401.93
614.907	17774.66
615.103	17682.5
615.298	17610.82
615.493	17809.48
615.688	17535.05
615.884	17715.27
616.079	17277.01
616.274	17451.08
616.47	17303.63
616.665	17653.83
616.86	17426.51
617.055	17033.3
617.25	17244.24
617.445	17166.42
617.641	16980.05
617.836	17154.13
618.031	17012.82
618.226	17064.02
618.421	16781.4
618.616	17092.69
618.811	16930.9
619.006	16828.5
619.201	16814.16
619.396	16515.16
619.591	16336.99
619.786	16812.12
619.981	16343.13
620.176	16619.61
620.371	16257.12
620.566	16431.19
620.761	16236.64
620.956	16361.56
621.151	15849.57
621.346	16162.91
621.541	15693.93
621.735	15874.15
621.93	15560.81
622.125	15833.19
622.32	15657.06
622.515	15630.44
622.709	15489.13
622.904	15538.28
623.099	15542.38
623.294	15263.85
623.488	14938.23
623.683	15149.17
623.878	14731.38
624.072	14999.66
624.267	15122.54
624.462	14817.4
624.656	14729.33
624.851	14674.04
625.046	14506.1
625.24	14381.18
625.435	14401.66
625.629	14463.1
625.824	14375.03
626.018	14215.29
626.213	13992.06
626.407	14233.72
626.602	13940.86
626.796	13944.96
626.991	14018.69
627.185	13785.22
627.38	13680.77
627.574	13697.16
627.768	13349
627.963	13359.24
628.157	13250.7
628.352	13277.32
628.546	13078.67
628.74	13123.73
628.935	13097.1
629.129	13025.42
629.323	12718.23
629.517	12755.09
629.712	12941.46
629.906	12675.22
630.1	12640.4
630.294	12712.08
630.489	12486.81
630.683	12640.4
630.877	12236.95
631.071	12298.39
631.265	12404.89
631.459	12472.47
631.653	12361.88
631.848	12060.83
632.042	11927.71
632.236	12058.78
632.43	11745.44
632.624	11786.4
632.818	11716.77
633.012	11737.25
633.206	11765.92
633.4	11694.24
633.594	11425.96
633.788	11485.35
633.982	11415.72
634.176	11503.78
634.369	11419.82
634.563	11434.15
634.757	11348.14
634.951	11081.9
635.145	11083.95
635.339	11088.04
635.533	10801.33
635.726	10971.31
635.92	10741.94
636.114	10801.33
636.308	10944.69
636.501	10690.74
636.695	10537.14
636.889	10512.56
637.083	10649.78
637.276	10236.09
637.47	10340.54
637.664	10346.68
637.857	10487.99
638.051	10084.54
638.244	10246.33
638.438	10209.47
638.632	10240.19
638.825	10043.58
639.019	9896.13
639.212	9818.3
639.406	9791.68
639.599	9918.65
639.793	9822.4
639.986	9877.69
640.18	9777.34
640.373	9552.07
640.567	9558.21
640.76	9455.81
640.954	9570.5
641.147	9273.54
641.34	9418.95
641.534	9228.49
641.727	9171.15
641.92	9232.58
642.114	9130.19
642.307	9144.52
642.5	9347.27
642.694	8874.19
642.887	8913.1
643.08	9132.23
643.273	8720.59
643.467	9013.45
643.66	8585.43
643.853	8712.4
644.046	8538.32
644.239	8444.12
644.432	8702.16
644.626	8655.06
644.819	8497.36
645.012	8564.95
645.205	8478.93
645.398	8349.91
645.591	8364.25
645.784	8224.98
645.977	8136.92
646.17	8247.51
646.363	8091.87
646.556	8110.3
646.749	8138.97
646.942	7975.13
647.135	8048.86
647.328	7891.16
647.521	7985.37
647.714	7796.96
647.907	7745.76
648.099	7966.94
648.292	7719.14
648.485	7880.93
648.678	7659.74
648.871	7514.34
649.064	7536.87
649.256	7622.88
649.449	7489.76
649.642	7522.53
649.835	7258.34
650.027	7436.52
650.22	7366.88
650.413	7325.93
650.605	7266.53
650.798	7250.15
650.991	7006.44
651.183	7239.91
651.376	7049.45
651.568	7157.99
651.761	7037.16
651.954	6959.34
652.146	6840.56
652.339	7125.22
652.531	6916.33
652.724	6865.13
652.916	6689.01
653.109	6916.33
653.301	6670.58
653.494	6846.7
653.686	6732.01
653.879	6701.3
654.071	6652.14
654.263	6609.14
654.456	6537.46
654.648	6605.04
654.84	6549.75
655.033	6398.2
655.225	6467.83
655.417	6252.79
655.61	6453.49
655.802	6392.05
655.994	6277.37
656.186	6279.41
656.379	6308.09
656.571	6314.23
656.763	6197.49
656.955	6248.69
657.148	6285.56
657.34	6127.86
657.532	5968.12
657.724	6072.57
657.916	5986.55
658.108	5869.82
658.3	5792
658.492	5984.51
658.684	5804.28
658.876	5869.82
659.068	5761.28
659.26	5730.56
659.452	5806.33
659.644	5851.39
659.836	5873.92
660.028	5611.78
660.22	5540.1
660.412	5566.72
660.604	5462.27
660.796	5574.91
660.988	5712.13
661.18	5556.48
661.372	5591.3
661.563	5400.83
661.755	5486.85
661.947	5517.57
662.139	5380.36
662.331	5374.21
662.522	5155.08
662.714	5314.82
662.906	5128.46
663.097	5095.69
663.289	5173.51
663.481	5232.9
663.673	5275.91
663.864	5110.02
664.056	5134.6
664.247	5064.97
664.439	4935.95
664.631	5030.15
664.822	5107.98
665.014	4903.18
665.205	5067.02
665.397	4923.66
665.588	4948.23
665.78	4731.15
665.971	4956.43
666.163	4774.16
666.354	4774.16
666.546	4856.08
666.737	4665.61
666.929	4671.76
667.12	4747.53
667.311	4630.8
667.503	4671.76
667.694	4573.46
667.885	4563.22
668.077	4538.64
668.268	4720.91
668.459	4610.32
668.651	4585.74
668.842	4538.64
669.033	4479.25
669.224	4401.43
669.416	4514.06
669.607	4428.05
669.798	4362.51
669.989	4409.62
670.18	4393.23
670.371	4448.53
670.563	4348.18
670.754	4219.16
670.945	4342.04
671.136	4305.17
671.327	4321.56
671.518	4311.32
671.709	4354.32
671.9	4282.64
672.091	4462.87
672.282	4139.29
672.473	4292.88
672.664	4206.87
672.855	4223.25
673.046	4184.34
673.237	4256.02
673.428	4221.2
673.619	4167.96
673.809	4098.33
674	4088.09
674.191	4100.37
674.382	3918.11
674.573	3987.74
674.764	4112.66
674.954	4151.57
675.145	4032.79
675.336	4006.17
675.527	3977.5
675.717	4038.94
675.908	3961.11
676.099	3856.67
676.289	3983.64
676.48	3991.83
676.671	3856.67
676.861	3858.71
677.052	3805.47
677.243	3911.96
677.433	3877.15
677.624	3891.48
677.814	3950.87
678.005	3907.87
678.195	3805.47
678.386	3924.25
678.576	3774.75
678.767	3727.64
678.957	3903.77
679.148	3752.22
679.338	3797.28
679.529	3803.42
679.719	3760.41
679.909	3871
680.1	3858.71
680.29	3725.6
680.481	3756.32
680.671	3721.5
680.861	3703.07
681.052	3741.98
681.242	3709.21
681.432	3789.08
681.622	3608.86
681.813	3580.19
682.003	3664.16
682.193	3596.57
682.383	3682.59
682.573	3739.93
682.764	3682.59
682.954	3617.05
683.144	3594.53
683.334	3545.38
683.524	3545.38
683.714	3653.92
683.904	3653.92
684.094	3572
684.284	3572
684.474	3602.72
684.664	3500.32
684.854	3518.75
685.044	3596.57
685.234	3598.62
685.424	3465.5
685.614	3518.75
685.804	3549.47
685.994	3541.28
686.184	3453.22
686.374	3633.44
686.564	3371.3
686.753	3445.02
686.943	3512.61
687.133	3436.83
687.323	3371.3
687.513	3395.87
687.702	3199.27
687.892	3330.34
688.082	3326.24
688.272	3227.94
688.461	3354.91
688.651	3334.43
688.841	3391.78
689.03	3373.35
689.22	3324.19
689.41	3238.18
689.599	3139.88
689.789	3111.21
689.979	3154.21
690.168	3088.68
690.358	3049.77
690.547	3182.88
690.737	3127.59
690.926	3209.51
691.116	3131.69
691.305	3244.32
691.495	3166.5
691.684	3031.34
691.874	2947.37
692.063	3012.9
692.252	3045.67
692.442	2961.7
692.631	2947.37
692.82	3010.86
693.01	2926.89
693.199	2996.52
693.388	2996.52
693.578	2799.91
693.767	2965.8
693.956	2910.5
694.146	2881.83
694.335	2789.67
694.524	2838.83
694.713	2871.59
694.902	2797.87
695.092	2842.92
695.281	2906.41
695.47	2824.49
695.659	2777.39
695.848	2752.81
696.037	2769.2
696.226	2830.63
696.415	2769.2
696.604	2822.44
696.793	2806.06
696.982	2742.57
697.171	2742.57
697.36	2730.28
697.549	2732.33
697.738	2740.52
697.927	2605.36
698.116	2738.48
698.305	2724.14
698.494	2687.28
698.683	2664.75
698.872	2679.08
699.061	2840.87
699.25	2677.04
699.438	2658.6
699.627	2814.25
699.816	2711.85
700.005	2754.86
700.193	2679.08
700.382	2715.95
700.571	2730.28
700.76	2834.73
700.948	2552.11
701.137	2730.28
701.326	2763.05
701.514	2728.24
701.703	2615.6
701.892	2646.32
702.08	2830.63
702.269	2625.84
702.457	2662.7
702.646	2750.76
702.834	2603.31
703.023	2718
703.212	2670.89
703.4	2607.41
703.589	2693.42
703.777	2738.48
703.965	2611.5
704.154	2736.43
704.342	2713.9
704.531	2679.08
704.719	2621.74
704.907	2644.27
705.096	2539.82
705.284	2691.37
705.472	2689.32
705.661	2691.37
705.849	2707.76
706.037	2611.5
706.226	2621.74
706.414	2627.89
706.602	2644.27
706.79	2570.54
706.979	2648.36
707.167	2634.03
707.355	2711.85
707.543	2597.17
707.731	2697.52
707.919	2529.58
708.107	2634.03
708.296	2695.47
708.484	2658.6
708.672	2648.36
708.86	2642.22
709.048	2625.84
709.236	2597.17
709.424	2656.56
709.612	2711.85
709.8	2609.45
709.988	2709.8
710.176	2728.24
710.364	2539.82
710.551	2535.73
710.739	2650.41
710.927	2707.76
711.115	2601.26
711.303	2631.98
711.491	2648.36
711.679	2638.13
711.866	2613.55
712.054	2517.29
712.242	2505.01
712.43	2601.26
712.617	2455.86
712.805	2611.5
712.993	2527.53
713.181	2558.25
713.368	2545.97
713.556	2650.41
713.744	2533.68
713.931	2636.08
714.119	2500.91
714.306	2582.83
714.494	2652.46
714.682	2611.5
714.869	2582.83
715.057	2578.73
715.244	2554.16
715.432	2697.52
715.619	2629.93
715.807	2627.89
715.994	2662.7
716.182	2601.26
716.369	2699.56
716.556	2668.84
716.744	2437.42
716.931	2629.93
717.119	2634.03
717.306	2672.94
717.493	2560.3
717.681	2709.8
717.868	2545.97
718.055	2679.08
718.242	2658.6
718.43	2664.75
718.617	2605.36
718.804	2642.22
718.991	2666.8
719.179	2761
719.366	2654.51
719.553	2754.86
719.74	2627.89
719.927	2566.45
720.114	2613.55
720.301	2607.41
720.488	2603.31
720.676	2554.16
720.863	2615.6
721.05	2705.71
721.237	2488.62
721.424	2640.17
721.611	2648.36
721.798	2560.3
721.985	2588.97
722.172	2664.75
722.358	2744.62
722.545	2658.6
722.732	2658.6
722.919	2627.89
723.106	2603.31
723.293	2646.32
723.48	2681.13
723.667	2576.69
723.853	2593.07
724.04	2726.19
724.227	2588.97
724.414	2660.65
724.6	2707.76
724.787	2654.51
724.974	2634.03
725.161	2474.29
725.347	2525.49
725.534	2619.69
725.72	2761
725.907	2486.58
726.094	2556.21
726.28	2683.18
726.467	2500.91
726.653	2586.93
726.84	2619.69
727.027	2609.45
727.213	2574.64
727.4	2672.94
727.586	2740.52
727.773	2597.17
727.959	2703.66
728.145	2566.45
728.332	2640.17
728.518	2638.13
728.705	2699.56
728.891	2634.03
729.077	2533.68
729.264	2656.56
729.45	2636.08
729.636	2629.93
729.823	2615.6
730.009	2564.4
730.195	2801.96
730.382	2695.47
730.568	2603.31
730.754	2642.22
730.94	2660.65
731.126	2793.77
731.313	2707.76
731.499	2615.6
731.685	2681.13
731.871	2679.08
732.057	2709.8
732.243	2670.89
732.429	2822.44
732.615	2713.9
732.801	2789.67
732.987	2640.17
733.173	2646.32
733.359	2578.73
733.545	2640.17
733.731	2654.51
733.917	2687.28
734.103	2713.9
734.289	2646.32
734.475	2662.7
734.661	2631.98
734.847	2662.7
735.033	2621.74
735.219	2703.66
735.404	2603.31
735.59	2652.46
735.776	2525.49
735.962	2697.52
736.148	2701.61
736.333	2611.5
736.519	2707.76
736.705	2531.63
736.89	2574.64
737.076	2605.36
737.262	2572.59
737.447	2636.08
737.633	2580.78
737.819	2566.45
738.004	2498.86
738.19	2552.11
738.375	2611.5
738.561	2695.47
738.747	2548.01
738.932	2502.96
739.118	2597.17
739.303	2556.21
739.489	2652.46
739.674	2613.55
739.859	2423.09
740.045	2507.06
740.23	2543.92
740.416	2556.21
740.601	2605.36
740.786	2474.29
740.972	2527.53
741.157	2584.88
741.342	2502.96
741.528	2523.44
741.713	2562.35
741.898	2539.82
742.084	2425.14
742.269	2568.49
742.454	2500.91
742.639	2361.65
742.824	2357.55
743.01	2429.23
743.195	2449.71
743.38	2468.14
743.565	2386.22
743.75	2369.84
743.935	2404.66
744.12	2378.03
744.305	2357.55
744.49	2306.35
744.675	2406.7
744.86	2312.5
745.045	2275.63
745.23	2240.82
745.415	2363.7
745.6	2281.78
745.785	2332.98
745.97	2244.92
746.155	2318.64
746.34	2222.39
746.525	2271.54
746.71	2275.63
746.895	2279.73
747.079	2267.44
747.264	2144.56
747.449	2191.67
747.634	2013.49
747.819	2144.56
748.003	2195.76
748.188	2195.76
748.373	2167.09
748.557	2072.89
748.742	2146.61
748.927	2128.18
749.111	2091.32
749.296	2156.85
749.481	2097.46
749.665	2050.36
749.85	2013.49
750.034	2117.94
750.219	2070.84
750.404	2017.59
750.588	1984.82
750.773	2074.93
750.957	1972.54
751.141	1999.16
751.326	1868.09
751.51	1921.34
751.695	1931.58
751.879	1839.42
752.064	1968.44
752.248	1868.09
752.432	1816.89
752.617	1880.38
752.801	1913.14
752.985	1798.46
753.17	1870.14
753.354	1786.17
753.538	1777.98
753.722	1794.36
753.907	1761.59
754.091	1751.35
754.275	1784.12
754.459	1775.93
754.643	1634.62
754.828	1749.31
755.012	1726.78
755.196	1681.72
755.38	1708.35
755.564	1698.11
755.748	1663.29
755.932	1698.11
756.116	1644.86
756.3	1634.62
756.484	1696.06
756.668	1581.37
756.852	1427.78
757.036	1571.13
757.22	1579.33
757.404	1628.48
757.588	1515.84
757.772	1517.89
757.956	1458.5
758.14	1493.31
758.323	1421.63
758.507	1528.13
758.691	1442.11
758.875	1485.12
759.059	1456.45
759.242	1397.06
759.426	1341.76
759.61	1567.04
759.794	1397.06
759.977	1446.21
760.161	1335.62
760.345	1503.55
760.528	1468.73
760.712	1442.11
760.895	1349.95
761.079	1405.25
761.263	1376.58
761.446	1302.85
761.63	1323.33
761.813	1329.47
761.997	1249.6
762.18	1237.31
762.364	1327.43
762.547	1216.83
762.731	1272.13
762.914	1335.62
763.098	1198.4
763.281	1216.83
763.464	1233.22
763.648	1243.46
763.831	1268.03
764.015	1214.79
764.198	1241.41
764.381	1233.22
764.564	1259.84
764.748	1247.55
764.931	1241.41
765.114	1220.93
765.297	1249.6
765.481	1227.07
765.664	1229.12
765.847	1194.31
766.03	1190.21
766.213	1192.26
766.397	1165.64
766.58	1167.68
766.763	1243.46
766.946	1210.69
767.129	1065.29
767.312	1063.24
767.495	1163.59
767.678	1218.88
767.861	1118.53
768.044	1110.34
768.227	1057.09
768.41	1151.3
768.593	1089.86
768.776	1093.96
768.959	1112.39
769.142	1159.49
769.324	1001.8
769.507	1077.57
769.69	977.22
769.873	1087.81
770.056	1155.4
770.239	1093.96
770.421	1083.72
770.604	1053
770.787	1096
770.97	1028.42
771.152	995.65
771.335	1012.04
771.518	1036.61
771.7	899.4
771.883	987.46
772.066	1085.76
772.248	1093.96
772.431	921.93
772.613	1005.89
772.796	962.89
772.978	913.74
773.161	946.5
773.343	983.37
773.526	840.01
773.708	897.35
773.891	876.87
774.073	942.41
774.256	1005.89
774.438	919.88
774.621	862.54
774.803	960.84
774.985	876.87
775.168	899.4
775.35	893.26
775.532	876.87
775.715	772.43
775.897	799.05
776.079	852.3
776.261	907.59
776.444	823.62
776.626	878.92
776.808	809.29
776.99	799.05
777.173	799.05
777.355	842.06
777.537	813.38
777.719	833.86
777.901	829.77
778.083	731.47
778.265	762.19
778.447	794.95
778.629	741.71
778.811	751.95
778.993	801.1
779.175	776.52
779.357	762.19
779.539	700.75
779.721	751.95
779.903	682.31
780.085	745.8
780.267	698.7
780.449	588.11
780.631	753.99
780.812	678.22
780.994	743.75
781.176	696.65
781.358	674.12
781.54	667.98
781.721	643.4
781.903	616.78
782.085	610.64
782.267	680.27
782.448	495.95
782.63	704.84
782.812	663.88
782.993	549.2
783.175	581.96
783.357	594.25
783.538	614.73
783.72	598.35
783.901	647.5
784.083	624.97
784.264	551.24
784.446	491.85
784.627	567.63
784.809	573.77
784.99	581.96
785.172	635.21
785.353	577.87
785.535	545.1
785.716	461.13
785.897	524.62
786.079	547.15
786.26	485.71
786.441	510.29
786.623	477.52
786.804	592.2
786.985	426.32
787.167	516.43
787.348	479.57
787.529	520.53
787.71	483.66
787.891	399.7
788.073	471.37
788.254	450.89
788.435	532.81
788.616	579.92
788.797	459.09
788.978	506.19
789.159	461.13
789.34	481.61
789.522	448.85
789.703	430.41
789.884	461.13
790.065	518.48
790.246	399.7
790.427	467.28
790.607	440.65
790.788	440.65
790.969	395.6
791.15	389.46
791.331	481.61
791.512	407.89
791.693	366.93
791.874	459.09
792.054	358.74
792.235	356.69
792.416	397.65
792.597	473.42
792.778	270.67
792.958	379.22
793.139	379.22
793.32	321.87
793.5	358.74
793.681	436.56
793.862	428.37
794.042	387.41
794.223	379.22
794.404	399.7
794.584	360.78
794.765	330.06
794.945	301.39
795.126	330.06
795.306	411.98
795.487	368.98
795.667	399.7
795.848	342.35
796.028	377.17
796.209	356.69
796.389	317.78
796.57	389.46
796.75	295.25
796.93	354.64
797.111	346.45
797.291	385.36
797.471	295.25
797.652	379.22
797.832	315.73
798.012	282.96
798.192	278.87
798.373	262.48
798.553	375.12
798.733	336.21
798.913	330.06
799.093	303.44
799.274	280.91
799.454	403.79
799.634	348.5
799.814	303.44
799.994	385.36
800.174	385.36
800.354	282.96
800.534	348.5
800.714	203.09
800.894	260.43
801.074	350.54
801.254	262.48
801.434	346.45
801.614	280.91
801.794	291.15
801.974	659.79
802.154	350.54
802.334	293.2
802.514	262.48
802.693	287.06
802.873	299.34
803.053	303.44
803.233	280.91
803.413	330.06
803.592	274.77
803.772	287.06
803.952	254.29
804.131	205.14
804.311	262.48
804.491	196.95
804.67	244.05
804.85	201.04
805.03	178.51
805.209	299.34
805.389	184.66
805.568	201.04
805.748	260.43
805.928	266.58
806.107	262.48
806.287	227.67
806.466	248.15
806.646	209.23
806.825	307.54
807.004	227.67
807.184	264.53
807.363	209.23
807.543	319.82
807.722	225.62
807.901	215.38
808.081	184.66
808.26	272.72
808.439	227.67
808.619	201.04
808.798	196.95
808.977	250.19
809.156	237.91
809.336	258.39
809.515	256.34
809.694	201.04
809.873	252.24
810.052	149.84
810.231	205.14
810.411	225.62
810.59	282.96
810.769	233.81
810.948	182.61
811.127	151.89
811.306	209.23
811.485	151.89
811.664	155.99
811.843	280.91
812.022	280.91
812.201	209.23
812.38	155.99
812.559	194.9
812.737	227.67
812.916	145.75
813.095	192.85
813.274	213.33
813.453	176.47
813.632	170.32
813.811	153.94
813.989	184.66
814.168	123.22
814.347	117.08
814.526	141.65
814.704	231.76
814.883	211.28
815.062	110.93
815.24	250.19
815.419	196.95
815.598	129.36
815.776	192.85
815.955	172.37
816.133	160.08
816.312	209.23
816.49	239.95
816.669	188.75
816.847	127.32
817.026	158.03
817.204	145.75
817.383	223.57
817.561	119.12
817.74	127.32
817.918	108.88
818.097	129.36
818.275	98.64
818.453	211.28
818.632	147.8
818.81	110.93
818.988	115.03
819.167	69.97
819.345	115.03
819.523	123.22
819.701	151.89
819.879	139.6
820.058	100.69
820.236	151.89
820.414	108.88
820.592	174.42
820.77	125.27
820.948	147.8
821.127	201.04
821.305	145.75
821.483	158.03
821.661	207.19
821.839	147.8
822.017	131.41
822.195	102.74
822.373	147.8
822.551	225.62
822.729	221.52
822.907	76.12
823.085	170.32
823.262	127.32
823.44	186.71
823.618	127.32
823.796	158.03
823.974	41.3
824.152	137.56
824.329	143.7
824.507	65.88
824.685	90.45
824.863	104.79
825.04	192.85
825.218	160.08
825.396	106.84
825.574	178.51
825.751	127.32
825.929	143.7
826.107	67.92
826.284	158.03
826.462	53.59
826.639	10.58
826.817	129.36
826.994	158.03
827.172	119.12
827.349	100.69
827.527	158.03
827.704	106.84
827.882	182.61
828.059	102.74
828.237	57.68
828.414	190.8
828.591	127.32
828.769	115.03
828.946	121.17
829.124	88.4
829.301	108.88
829.478	166.23
829.655	178.51
829.833	92.5
830.01	59.73
830.187	166.23
830.364	31.06
830.542	129.36
830.719	129.36
830.896	125.27
831.073	117.08
831.25	69.97
831.427	104.79
831.604	162.13
831.782	74.07
831.959	110.93
832.136	143.7
832.313	129.36
832.49	57.68
832.667	149.84
832.844	86.36
833.021	108.88
833.198	112.98
833.374	20.82
833.551	133.46
833.728	115.03
833.905	86.36
834.082	137.56
834.259	90.45
834.436	82.26
834.612	143.7
834.789	45.4
834.966	76.12
835.143	61.78
835.319	96.6
835.496	141.65
835.673	35.16
835.85	147.8
836.026	74.07
836.203	96.6
836.38	78.16
836.556	123.22
836.733	88.4
836.909	72.02
837.086	51.54
837.262	51.54
837.439	108.88
837.616	63.83
837.792	8.53
837.968	22.87
838.145	65.88
838.321	82.26
838.498	65.88
838.674	94.55
838.851	102.74
839.027	55.64
839.203	115.03
839.38	61.78
839.556	92.5
839.732	16.73
839.909	88.4
840.085	127.32
840.261	67.92
840.437	117.08
840.614	72.02
840.79	82.26
840.966	78.16
841.142	61.78
841.318	74.07
841.494	158.03
841.671	94.55
841.847	53.59
842.023	133.46
842.199	65.88
842.375	51.54
842.551	57.68
842.727	6.49
842.903	80.21
843.079	98.64
843.255	80.21
843.431	51.54
843.607	12.63
843.783	51.54
843.959	33.11
844.134	43.35
844.31	121.17
844.486	108.88
844.662	39.25
844.838	35.16
845.013	55.64
845.189	90.45
845.365	82.26
845.541	82.26
845.716	47.44
845.892	53.59
846.068	4.44
846.244	33.11
846.419	8.53
846.595	69.97
846.77	115.03
846.946	22.87
847.122	41.3
847.297	31.06
847.473	61.78
847.648	82.26
847.824	31.06
847.999	4.44
848.175	37.2
848.35	47.44
848.526	90.45
848.701	96.6
848.876	94.55
849.052	94.55
849.227	61.78
849.403	45.4
849.578	69.97
849.753	74.07
849.929	59.73
850.104	-16.04
850.279	-46.76
850.454	63.83
850.63	74.07
850.805	22.87
850.98	76.12
851.155	115.03
851.33	90.45
851.505	20.82
851.681	98.64
851.856	67.92
852.031	141.65
852.206	117.08
852.381	82.26
852.556	0.34
852.731	14.68
852.906	82.26
853.081	110.93
853.256	61.78
853.431	63.83
853.606	31.06
853.781	16.73
853.956	8.53
854.131	63.83
854.305	63.83
854.48	-28.33
854.655	-20.14
854.83	59.73
855.005	90.45
855.18	12.63
855.354	72.02
855.529	43.35
855.704	61.78
855.879	96.6
856.053	-42.67
856.228	94.55
856.403	16.73
856.577	-7.85
856.752	10.58
856.926	74.07
857.101	14.68
857.276	55.64
857.45	-3.75
857.625	49.49
857.799	37.2
857.974	47.44
858.148	2.39
858.323	69.97
858.497	-5.8
858.672	43.35
858.846	41.3
859.02	80.21
859.195	59.73
859.369	63.83
859.543	24.92
859.718	78.16
859.892	84.31
860.066	76.12
860.241	41.3
860.415	-30.38
860.589	26.96
860.763	31.06
860.938	41.3
861.112	76.12
861.286	35.16
861.46	-5.8
861.634	78.16
861.808	100.69
861.982	20.82
862.157	33.11
862.331	84.31
862.505	26.96
862.679	6.49
862.853	24.92
863.027	41.3
863.201	31.06
863.375	35.16
863.549	76.12
863.722	-7.85
863.896	43.35
864.07	20.82
864.244	-13.99
864.418	37.2
864.592	72.02
864.766	31.06
864.939	4.44
865.113	12.63
865.287	121.17
865.461	61.78
865.634	0.34
865.808	12.63
865.982	20.82
866.156	-1.71
866.329	-11.95
866.503	18.77
866.676	82.26
866.85	-11.95
867.024	-28.33
867.197	59.73
867.371	22.87
867.544	37.2
867.718	-1.71
867.891	-1.71
868.065	37.2
868.238	78.16
868.412	22.87
868.585	35.16
868.759	12.63
868.932	29.01
869.105	131.41
869.279	84.31
869.452	33.11
869.625	53.59
869.799	12.63
869.972	72.02
870.145	74.07
870.319	102.74
870.492	78.16
870.665	22.87
870.838	10.58
871.011	12.63
871.185	22.87
871.358	39.25
871.531	-30.38
871.704	84.31
871.877	57.68
872.05	-28.33
872.223	78.16
872.396	82.26
872.569	47.44
872.742	16.73
872.915	51.54
873.088	26.96
873.261	-40.62
873.434	-9.9
873.607	80.21
873.78	100.69
873.953	14.68
874.126	43.35
874.299	22.87
874.471	33.11
874.644	47.44
874.817	-28.33
874.99	92.5
875.163	20.82
875.335	39.25
875.508	51.54
875.681	65.88
875.853	-38.57
876.026	43.35
876.199	-50.86
876.371	45.4
876.544	12.63
876.717	0.34
876.889	-7.85
877.062	24.92
877.234	2.39
877.407	55.64
877.579	53.59
877.752	-5.8
877.924	102.74
878.097	51.54
878.269	45.4
878.442	14.68
878.614	63.83
878.786	51.54
878.959	39.25
879.131	59.73
879.303	10.58
879.476	51.54
879.648	24.92
879.82	35.16
879.993	53.59
880.165	20.82
880.337	4.44
880.509	35.16
880.681	-13.99
880.854	18.77
881.026	8.53
881.198	59.73
881.37	-9.9
881.542	92.5
881.714	2.39
881.886	51.54
882.058	-28.33
882.23	26.96
882.402	8.53
882.574	10.58
882.746	33.11
882.918	16.73
883.09	-18.09
883.262	26.96
883.434	10.58
883.606	74.07
883.778	18.77
883.95	55.64
884.122	8.53
884.293	59.73
884.465	51.54
884.637	74.07
884.809	47.44
884.98	24.92
885.152	37.2
885.324	100.69
885.496	88.4
885.667	4.44
885.839	8.53
886.011	104.79
886.182	49.49
886.354	39.25
886.525	16.73
886.697	37.2
886.869	49.49
887.04	14.68
887.212	53.59
887.383	31.06
887.555	63.83
887.726	29.01
887.897	29.01
888.069	90.45
888.24	147.8
888.412	10.58
888.583	31.06
888.754	-11.95
888.926	86.36
889.097	18.77
889.268	41.3
889.44	2.39
889.611	35.16
889.782	-20.14
889.953	102.74
890.125	67.92
890.296	41.3
890.467	29.01
890.638	-50.86
890.809	-81.58
890.98	12.63
891.151	55.64
891.323	102.74
891.494	63.83
891.665	-24.23
891.836	6.49
892.007	-30.38
892.178	10.58
892.349	20.82
892.52	-52.91
892.691	43.35
892.862	8.53
893.032	-69.29
893.203	43.35
893.374	78.16
893.545	-65.19
893.716	12.63
893.887	-32.43
894.057	-22.19
894.228	33.11
894.399	41.3
894.57	65.88
894.74	-28.33
894.911	47.44
895.082	-16.04
895.253	39.25
895.423	-26.28
895.594	69.97
895.764	0.34
895.935	-7.85
896.106	2.39
896.276	-24.23
896.447	18.77
896.617	55.64
896.788	35.16
896.958	-3.75
897.129	-1.71
897.299	57.68
897.47	74.07
897.64	47.44
897.81	6.49
897.981	33.11
898.151	-30.38
898.322	45.4
898.492	-50.86
898.662	2.39
898.832	51.54
899.003	33.11
899.173	67.92
899.343	2.39
899.513	51.54
