Data from USB4F104151__63__11-45-19-269.txt Node

Date: Fri Mar 14 11:45:19 EDT 2025
User: louis
Spectrometer: USB4F10415
Trigger mode: 4
Integration Time (sec): 2.000000E-2
Scans to average: 1
Electric dark correction enabled: true
Nonlinearity correction enabled: false
Boxcar width: 0
XAxis mode: Wavelengths
Number of Pixels in Spectrum: 3648
>>>>>Begin Spectral Data<<<<<
178.204	-109.57
178.424	-109.57
178.644	-109.57
178.864	-103.42
179.084	-117.76
179.304	80.89
179.524	-66.56
179.744	-50.18
179.964	11.26
180.184	-56.32
180.404	15.36
180.624	66.56
180.844	39.94
181.064	1.02
181.283	-9.22
181.503	-60.42
181.723	27.65
181.943	-64.51
182.163	3.07
182.383	-23.55
182.602	58.37
182.822	-11.26
183.042	15.36
183.262	-11.26
183.482	5.12
183.701	37.89
183.921	11.26
184.141	48.13
184.361	66.56
184.58	31.74
184.8	13.31
185.02	68.61
185.239	27.65
185.459	29.7
185.679	35.84
185.898	-37.89
186.118	44.03
186.338	54.27
186.557	56.32
186.777	-25.6
186.997	39.94
187.216	62.46
187.436	48.13
187.655	64.51
187.875	64.51
188.095	-74.75
188.314	33.79
188.534	68.61
188.753	-5.12
188.973	82.94
189.192	46.08
189.412	21.5
189.631	17.41
189.851	3.07
190.07	119.81
190.29	54.27
190.509	25.6
190.729	-11.26
190.948	-60.42
191.168	62.46
191.387	27.65
191.607	-70.65
191.826	31.74
192.045	-3.07
192.265	-29.7
192.484	52.22
192.704	87.04
192.923	23.55
193.142	99.33
193.362	11.26
193.581	21.5
193.8	35.84
194.02	58.37
194.239	29.7
194.458	11.26
194.678	64.51
194.897	84.99
195.116	46.08
195.335	44.03
195.555	31.74
195.774	37.89
195.993	7.17
196.212	82.94
196.432	13.31
196.651	-7.17
196.87	31.74
197.089	87.04
197.308	7.17
197.528	52.22
197.747	-84.99
197.966	-44.03
198.185	37.89
198.404	60.42
198.623	9.22
198.842	-41.98
199.062	64.51
199.281	97.28
199.5	-3.07
199.719	21.5
199.938	11.26
200.157	1.02
200.376	39.94
200.595	60.42
200.814	21.5
201.033	25.6
201.252	13.31
201.471	56.32
201.69	-3.07
201.909	21.5
202.128	21.5
202.347	19.46
202.566	-35.84
202.785	-1.02
203.004	13.31
203.223	-1.02
203.442	5.12
203.661	46.08
203.879	7.17
204.098	35.84
204.317	-7.17
204.536	3.07
204.755	25.6
204.974	-33.79
205.193	31.74
205.411	89.09
205.63	-11.26
205.849	19.46
206.068	-3.07
206.287	5.12
206.505	1.02
206.724	35.84
206.943	-5.12
207.162	17.41
207.381	13.31
207.599	-9.22
207.818	-54.27
208.037	-19.46
208.255	35.84
208.474	17.41
208.693	-9.22
208.911	23.55
209.13	-5.12
209.349	15.36
209.567	-9.22
209.786	117.76
210.005	60.42
210.223	17.41
210.442	-66.56
210.661	11.26
210.879	35.84
211.098	-25.6
211.316	-21.5
211.535	68.61
211.753	31.74
211.972	-31.74
212.191	1.02
212.409	111.61
212.628	89.09
212.846	29.7
213.065	66.56
213.283	-7.17
213.502	23.55
213.72	37.89
213.938	-15.36
214.157	-31.74
214.375	5.12
214.594	-37.89
214.812	115.71
215.031	54.27
215.249	-13.31
215.467	44.03
215.686	3.07
215.904	13.31
216.122	50.18
216.341	50.18
216.559	-11.26
216.778	-13.31
216.996	41.98
217.214	1.02
217.432	31.74
217.651	33.79
217.869	21.5
218.087	-1.02
218.306	72.7
218.524	29.7
218.742	-13.31
218.96	78.85
219.179	31.74
219.397	33.79
219.615	80.89
219.833	52.22
220.051	-44.03
220.27	35.84
220.488	37.89
220.706	11.26
220.924	23.55
221.142	58.37
221.36	44.03
221.578	48.13
221.796	52.22
222.015	-52.22
222.233	68.61
222.451	64.51
222.669	-25.6
222.887	19.46
223.105	56.32
223.323	70.65
223.541	3.07
223.759	15.36
223.977	-17.41
224.195	87.04
224.413	48.13
224.631	74.75
224.849	15.36
225.067	64.51
225.285	66.56
225.503	17.41
225.721	1.02
225.939	52.22
226.157	-19.46
226.375	31.74
226.592	60.42
226.81	3.07
227.028	21.5
227.246	76.8
227.464	-5.12
227.682	56.32
227.9	35.84
228.117	68.61
228.335	52.22
228.553	64.51
228.771	-41.98
228.989	-13.31
229.206	58.37
229.424	-50.18
229.642	9.22
229.86	5.12
230.077	15.36
230.295	29.7
230.513	37.89
230.731	35.84
230.948	35.84
231.166	125.95
231.384	-13.31
231.601	11.26
231.819	31.74
232.037	-41.98
232.254	31.74
232.472	111.61
232.689	-23.55
232.907	-25.6
233.125	13.31
233.342	80.89
233.56	-33.79
233.777	-5.12
233.995	56.32
234.213	27.65
234.43	48.13
234.648	62.46
234.865	21.5
235.083	29.7
235.3	-41.98
235.518	-33.79
235.735	95.23
235.953	9.22
236.17	29.7
236.388	11.26
236.605	101.37
236.822	5.12
237.04	25.6
237.257	27.65
237.475	19.46
237.692	7.17
237.909	-21.5
238.127	64.51
238.344	58.37
238.562	33.79
238.779	3.07
238.996	115.71
239.214	11.26
239.431	31.74
239.648	56.32
239.865	31.74
240.083	17.41
240.3	31.74
240.517	-5.12
240.735	62.46
240.952	74.75
241.169	17.41
241.386	33.79
241.603	17.41
241.821	19.46
242.038	-7.17
242.255	21.5
242.472	23.55
242.689	9.22
242.907	17.41
243.124	35.84
243.341	-3.07
243.558	56.32
243.775	74.75
243.992	27.65
244.209	29.7
244.426	-9.22
244.643	17.41
244.86	15.36
245.078	-25.6
245.295	31.74
245.512	93.18
245.729	-44.03
245.946	44.03
246.163	48.13
246.38	-5.12
246.597	39.94
246.814	33.79
247.031	1.02
247.248	-54.27
247.464	3.07
247.681	-13.31
247.898	-25.6
248.115	-1.02
248.332	15.36
248.549	39.94
248.766	11.26
248.983	-25.6
249.2	-9.22
249.417	7.17
249.633	82.94
249.85	-31.74
250.067	-39.94
250.284	27.65
250.501	31.74
250.717	31.74
250.934	31.74
251.151	13.31
251.368	17.41
251.585	50.18
251.801	48.13
252.018	11.26
252.235	33.79
252.451	37.89
252.668	62.46
252.885	21.5
253.102	11.26
253.318	48.13
253.535	11.26
253.752	-29.7
253.968	-50.18
254.185	50.18
254.401	48.13
254.618	134.14
254.835	15.36
255.051	72.7
255.268	3.07
255.484	-13.31
255.701	9.22
255.917	27.65
256.134	41.98
256.351	-5.12
256.567	-23.55
256.784	72.7
257	-25.6
257.217	23.55
257.433	3.07
257.65	27.65
257.866	62.46
258.082	89.09
258.299	21.5
258.515	-15.36
258.732	-37.89
258.948	-76.8
259.165	27.65
259.381	9.22
259.597	46.08
259.814	23.55
260.03	9.22
260.246	113.66
260.463	62.46
260.679	64.51
260.895	13.31
261.112	39.94
261.328	-46.08
261.544	41.98
261.761	87.04
261.977	15.36
262.193	3.07
262.409	56.32
262.626	3.07
262.842	-3.07
263.058	-54.27
263.274	58.37
263.49	52.22
263.707	25.6
263.923	54.27
264.139	9.22
264.355	23.55
264.571	62.46
264.787	82.94
265.004	-5.12
265.22	-19.46
265.436	17.41
265.652	-15.36
265.868	58.37
266.084	87.04
266.3	29.7
266.516	31.74
266.732	97.28
266.948	-3.07
267.164	39.94
267.38	66.56
267.596	17.41
267.812	117.76
268.028	31.74
268.244	60.42
268.46	-7.17
268.676	39.94
268.892	113.66
269.108	-17.41
269.324	-7.17
269.54	-3.07
269.756	7.17
269.972	13.31
270.188	-1.02
270.403	1.02
270.619	41.98
270.835	3.07
271.051	41.98
271.267	15.36
271.483	29.7
271.698	15.36
271.914	97.28
272.13	46.08
272.346	-11.26
272.562	23.55
272.777	35.84
272.993	17.41
273.209	27.65
273.425	-31.74
273.64	54.27
273.856	3.07
274.072	48.13
274.287	66.56
274.503	48.13
274.719	56.32
274.934	58.37
275.15	-27.65
275.366	1.02
275.581	54.27
275.797	31.74
276.012	-1.02
276.228	41.98
276.444	68.61
276.659	64.51
276.875	11.26
277.09	11.26
277.306	13.31
277.521	128
277.737	-17.41
277.952	13.31
278.168	19.46
278.383	44.03
278.599	15.36
278.814	17.41
279.03	17.41
279.245	52.22
279.461	-23.55
279.676	-17.41
279.892	-29.7
280.107	52.22
280.322	37.89
280.538	-3.07
280.753	35.84
280.969	35.84
281.184	54.27
281.399	25.6
281.615	-3.07
281.83	9.22
282.045	-23.55
282.26	-54.27
282.476	7.17
282.691	35.84
282.906	7.17
283.122	23.55
283.337	50.18
283.552	50.18
283.767	72.7
283.983	11.26
284.198	64.51
284.413	58.37
284.628	-27.65
284.843	-19.46
285.058	60.42
285.274	-48.13
285.489	-64.51
285.704	-25.6
285.919	-29.7
286.134	-15.36
286.349	15.36
286.564	11.26
286.779	99.33
286.995	31.74
287.21	13.31
287.425	37.89
287.64	-17.41
287.855	70.65
288.07	17.41
288.285	17.41
288.5	7.17
288.715	23.55
288.93	13.31
289.145	19.46
289.36	17.41
289.575	-31.74
289.79	84.99
290.004	5.12
290.219	29.7
290.434	35.84
290.649	-11.26
290.864	33.79
291.079	21.5
291.294	-23.55
291.509	21.5
291.724	-3.07
291.938	15.36
292.153	-52.22
292.368	44.03
292.583	-39.94
292.798	21.5
293.012	41.98
293.227	33.79
293.442	-17.41
293.657	17.41
293.871	15.36
294.086	44.03
294.301	17.41
294.516	-17.41
294.73	58.37
294.945	56.32
295.16	11.26
295.374	7.17
295.589	66.56
295.804	33.79
296.018	70.65
296.233	37.89
296.447	48.13
296.662	17.41
296.877	54.27
297.091	52.22
297.306	-13.31
297.52	44.03
297.735	44.03
297.949	13.31
298.164	33.79
298.378	7.17
298.593	-13.31
298.807	37.89
299.022	25.6
299.236	66.56
299.451	-33.79
299.665	-17.41
299.88	-1.02
300.094	13.31
300.309	29.7
300.523	72.7
300.737	29.7
300.952	52.22
301.166	33.79
301.381	-17.41
301.595	5.12
301.809	84.99
302.024	-15.36
302.238	44.03
302.452	-21.5
302.667	-37.89
302.881	101.37
303.095	25.6
303.309	46.08
303.524	31.74
303.738	13.31
303.952	-9.22
304.166	-35.84
304.381	-21.5
304.595	97.28
304.809	-41.98
305.023	52.22
305.237	48.13
305.452	105.47
305.666	-27.65
305.88	52.22
306.094	21.5
306.308	46.08
306.522	103.42
306.736	60.42
306.95	9.22
307.164	95.23
307.379	15.36
307.593	52.22
307.807	60.42
308.021	99.33
308.235	29.7
308.449	13.31
308.663	46.08
308.877	29.7
309.091	13.31
309.305	70.65
309.519	84.99
309.733	23.55
309.947	33.79
310.161	25.6
310.374	37.89
310.588	-19.46
310.802	11.26
311.016	-39.94
311.23	9.22
311.444	23.55
311.658	-44.03
311.872	7.17
312.085	-17.41
312.299	17.41
312.513	17.41
312.727	5.12
312.941	15.36
313.154	-5.12
313.368	44.03
313.582	17.41
313.796	-17.41
314.009	-60.42
314.223	21.5
314.437	9.22
314.651	44.03
314.864	25.6
315.078	76.8
315.292	91.13
315.505	29.7
315.719	76.8
315.933	21.5
316.146	13.31
316.36	-21.5
316.573	27.65
316.787	50.18
317.001	84.99
317.214	7.17
317.428	19.46
317.641	-1.02
317.855	21.5
318.068	-11.26
318.282	60.42
318.495	52.22
318.709	52.22
318.922	-29.7
319.136	66.56
319.349	107.52
319.563	62.46
319.776	23.55
319.99	23.55
320.203	21.5
320.417	66.56
320.63	27.65
320.843	-21.5
321.057	52.22
321.27	17.41
321.483	68.61
321.697	19.46
321.91	-1.02
322.124	46.08
322.337	-19.46
322.55	-13.31
322.763	-54.27
322.977	60.42
323.19	-46.08
323.403	76.8
323.617	-5.12
323.83	5.12
324.043	50.18
324.256	44.03
324.469	48.13
324.683	31.74
324.896	66.56
325.109	11.26
325.322	1.02
325.535	44.03
325.748	3.07
325.962	62.46
326.175	-3.07
326.388	29.7
326.601	-9.22
326.814	91.13
327.027	39.94
327.24	9.22
327.453	-15.36
327.666	19.46
327.879	-27.65
328.092	48.13
328.305	31.74
328.518	-3.07
328.731	1.02
328.944	31.74
329.157	-25.6
329.37	23.55
329.583	105.47
329.796	76.8
330.009	-23.55
330.222	46.08
330.435	7.17
330.648	84.99
330.861	1.02
331.073	44.03
331.286	31.74
331.499	82.94
331.712	13.31
331.925	-17.41
332.138	50.18
332.35	84.99
332.563	1.02
332.776	31.74
332.989	23.55
333.202	11.26
333.414	76.8
333.627	-5.12
333.84	9.22
334.053	25.6
334.265	3.07
334.478	5.12
334.691	64.51
334.903	39.94
335.116	52.22
335.329	52.22
335.541	-17.41
335.754	48.13
335.966	25.6
336.179	29.7
336.392	-21.5
336.604	-56.32
336.817	25.6
337.029	5.12
337.242	-11.26
337.454	7.17
337.667	54.27
337.88	50.18
338.092	21.5
338.305	17.41
338.517	-7.17
338.729	37.89
338.942	70.65
339.154	-13.31
339.367	-66.56
339.579	82.94
339.792	21.5
340.004	68.61
340.217	11.26
340.429	60.42
340.641	54.27
340.854	52.22
341.066	54.27
341.278	82.94
341.491	80.89
341.703	46.08
341.915	33.79
342.128	76.8
342.34	52.22
342.552	31.74
342.764	39.94
342.977	21.5
343.189	-11.26
343.401	107.52
343.613	-3.07
343.826	-25.6
344.038	-29.7
344.25	29.7
344.462	21.5
344.674	50.18
344.886	33.79
345.099	-27.65
345.311	99.33
345.523	46.08
345.735	-13.31
345.947	99.33
346.159	41.98
346.371	-21.5
346.583	17.41
346.795	117.76
347.007	19.46
347.219	5.12
347.431	-15.36
347.643	48.13
347.855	17.41
348.067	-31.74
348.279	21.5
348.491	-15.36
348.703	97.28
348.915	17.41
349.127	60.42
349.339	23.55
349.551	23.55
349.763	60.42
349.975	27.65
350.187	25.6
350.399	48.13
350.61	93.18
350.822	5.12
351.034	80.89
351.246	48.13
351.458	17.41
351.669	80.89
351.881	-7.17
352.093	39.94
352.305	29.7
352.517	68.61
352.728	93.18
352.94	74.75
353.152	54.27
353.363	3.07
353.575	48.13
353.787	62.46
353.999	74.75
354.21	44.03
354.422	33.79
354.633	23.55
354.845	64.51
355.057	56.32
355.268	25.6
355.48	113.66
355.692	31.74
355.903	103.42
356.115	60.42
356.326	60.42
356.538	66.56
356.749	-58.37
356.961	101.37
357.172	64.51
357.384	80.89
357.595	91.13
357.807	23.55
358.018	-25.6
358.23	33.79
358.441	39.94
358.653	66.56
358.864	27.65
359.075	-11.26
359.287	11.26
359.498	107.52
359.709	62.46
359.921	82.94
360.132	68.61
360.344	52.22
360.555	60.42
360.766	-37.89
360.977	7.17
361.189	70.65
361.4	105.47
361.611	72.7
361.823	52.22
362.034	41.98
362.245	-5.12
362.456	-11.26
362.667	82.94
362.879	15.36
363.09	19.46
363.301	31.74
363.512	50.18
363.723	17.41
363.935	-1.02
364.146	35.84
364.357	-9.22
364.568	60.42
364.779	-11.26
364.99	17.41
365.201	-27.65
365.412	41.98
365.623	74.75
365.834	62.46
366.045	74.75
366.256	72.7
366.467	87.04
366.678	29.7
366.889	117.76
367.1	-15.36
367.311	54.27
367.522	56.32
367.733	56.32
367.944	125.95
368.155	-21.5
368.366	-33.79
368.577	-17.41
368.788	48.13
368.999	-19.46
369.209	66.56
369.42	113.66
369.631	115.71
369.842	-13.31
370.053	48.13
370.264	84.99
370.474	-54.27
370.685	13.31
370.896	109.57
371.107	44.03
371.317	74.75
371.528	44.03
371.739	13.31
371.95	103.42
372.16	91.13
372.371	11.26
372.582	17.41
372.792	11.26
373.003	-11.26
373.214	144.38
373.424	99.33
373.635	48.13
373.846	107.52
374.056	37.89
374.267	46.08
374.477	46.08
374.688	17.41
374.898	31.74
375.109	52.22
375.319	21.5
375.53	35.84
375.74	50.18
375.951	91.13
376.161	50.18
376.372	103.42
376.582	15.36
376.793	-31.74
377.003	89.09
377.214	25.6
377.424	29.7
377.635	17.41
377.845	-31.74
378.055	117.76
378.266	21.5
378.476	39.94
378.686	23.55
378.897	56.32
379.107	87.04
379.317	74.75
379.528	41.98
379.738	56.32
379.948	-11.26
380.158	54.27
380.369	39.94
380.579	89.09
380.789	78.85
380.999	82.94
381.21	97.28
381.42	105.47
381.63	-35.84
381.84	95.23
382.05	82.94
382.261	84.99
382.471	39.94
382.681	33.79
382.891	134.14
383.101	39.94
383.311	-17.41
383.521	-3.07
383.731	93.18
383.941	97.28
384.151	-9.22
384.361	41.98
384.571	35.84
384.781	19.46
384.991	21.5
385.201	121.85
385.411	44.03
385.621	74.75
385.831	56.32
386.041	17.41
386.251	87.04
386.461	46.08
386.671	64.51
386.881	50.18
387.091	35.84
387.301	31.74
387.511	7.17
387.72	50.18
387.93	56.32
388.14	-7.17
388.35	58.37
388.56	107.52
388.769	64.51
388.979	37.89
389.189	25.6
389.399	91.13
389.609	56.32
389.818	109.57
390.028	23.55
390.238	82.94
390.447	23.55
390.657	72.7
390.867	52.22
391.076	37.89
391.286	44.03
391.496	84.99
391.705	23.55
391.915	101.37
392.125	119.81
392.334	93.18
392.544	103.42
392.753	50.18
392.963	11.26
393.172	21.5
393.382	140.29
393.591	128
393.801	125.95
394.01	115.71
394.22	103.42
394.429	58.37
394.639	80.89
394.848	87.04
395.058	50.18
395.267	48.13
395.477	52.22
395.686	41.98
395.895	91.13
396.105	95.23
396.314	89.09
396.524	91.13
396.733	21.5
396.942	142.33
397.152	115.71
397.361	105.47
397.57	52.22
397.78	64.51
397.989	62.46
398.198	132.09
398.407	107.52
398.617	82.94
398.826	68.61
399.035	89.09
399.244	171.01
399.453	87.04
399.663	191.49
399.872	101.37
400.081	72.7
400.29	154.62
400.499	76.8
400.708	128
400.917	150.53
401.127	154.62
401.336	21.5
401.545	158.72
401.754	68.61
401.963	134.14
402.172	87.04
402.381	70.65
402.59	136.19
402.799	189.44
403.008	130.05
403.217	89.09
403.426	140.29
403.635	123.9
403.844	130.05
404.053	125.95
404.262	105.47
404.471	156.67
404.68	168.96
404.888	121.85
405.097	119.81
405.306	214.01
405.515	175.1
405.724	214.01
405.933	134.14
406.142	134.14
406.35	254.97
406.559	226.3
406.768	109.57
406.977	173.05
407.185	224.25
407.394	195.58
407.603	199.68
407.812	207.87
408.02	263.16
408.229	181.25
408.438	228.35
408.646	242.68
408.855	316.41
409.064	285.69
409.272	187.39
409.481	355.32
409.69	252.92
409.898	318.46
410.107	306.17
410.315	371.71
410.524	306.17
410.733	322.56
410.941	257.02
411.15	361.47
411.358	379.9
411.567	435.19
411.775	404.47
411.984	330.75
412.192	453.63
412.401	420.86
412.609	515.06
412.818	519.16
413.026	459.77
413.234	625.65
413.443	578.55
413.651	605.17
413.86	556.02
414.068	723.96
414.276	527.35
414.485	648.18
414.693	699.38
414.901	687.09
415.11	670.71
415.318	760.82
415.526	828.4
415.734	715.77
415.943	840.69
416.151	904.18
416.359	846.84
416.567	943.09
416.776	898.03
416.984	998.38
417.192	1059.82
417.4	928.75
417.608	986.1
417.817	1108.98
418.025	1184.75
418.233	1264.62
418.441	1135.6
418.649	1233.9
418.857	1350.64
419.065	1369.07
419.273	1391.59
419.481	1354.73
419.689	1500.14
419.897	1541.1
420.105	1696.74
420.313	1627.11
420.521	1709.03
420.729	1653.73
420.937	1815.52
421.145	1813.48
421.353	1899.49
421.561	2036.7
421.769	1991.65
421.977	2159.58
422.185	2120.67
422.393	2190.3
422.601	2403.29
422.809	2409.44
423.017	2364.38
423.224	2497.5
423.432	2661.34
423.64	2515.93
423.848	2733.01
424.056	2898.9
424.263	3003.35
424.471	2984.91
424.679	3036.11
424.887	3171.28
425.094	3343.31
425.302	3292.11
425.51	3544.01
425.718	3605.45
425.925	3623.88
426.133	3634.12
426.341	3988.42
426.548	4135.87
426.756	4174.78
426.964	4248.51
427.171	4506.56
427.379	4586.43
427.586	4654.01
427.794	4611
428.001	4969.4
428.209	5168.05
428.417	5184.43
428.624	5399.47
428.832	5522.35
429.039	5352.37
429.247	5512.11
429.454	6032.29
429.662	6321.06
429.869	5989.28
430.076	6433.69
430.284	6179.75
430.491	6470.56
430.699	6787.99
430.906	6712.22
431.114	7039.89
431.321	7230.35
431.528	7261.07
431.736	7789.45
431.943	8012.68
432.15	7992.2
432.358	8008.58
432.565	8354.69
432.772	8311.68
432.979	8995.7
433.187	8995.7
433.394	9151.35
433.601	9782.12
433.808	9642.86
434.016	9671.53
434.223	10163.04
434.43	10613.6
434.637	10361.7
434.844	11174.74
435.052	11426.64
435.259	11066.2
435.466	11172.69
435.673	11299.67
435.88	11707.21
436.087	12489.54
436.294	12692.29
436.501	12297.03
436.708	12540.74
436.915	13009.72
437.122	13415.22
437.329	13450.03
437.537	14068.52
437.743	14201.64
437.95	14091.05
438.157	14861.09
438.364	15364.89
438.571	15196.95
438.778	15379.22
438.985	16878.33
439.192	16190.22
439.399	16481.03
439.606	16505.6
439.813	17163
440.02	18252.52
440.227	17986.29
440.433	17885.94
440.64	18340.58
440.847	18316.01
441.054	18694.88
441.261	20126.41
441.467	19700.44
441.674	19989.2
441.881	20716.23
442.088	20720.32
442.294	20751.04
442.501	21252.8
442.708	21742.26
442.914	22383.27
443.121	23452.31
443.328	22620.84
443.534	24224.4
443.741	23628.44
443.948	23122.59
444.154	24814.21
444.361	25217.66
444.568	25158.27
444.774	25062.02
444.981	25428.6
445.187	26305.13
445.394	27574.88
445.6	26790.5
445.807	29264.45
446.013	28398.16
446.22	28764.75
446.426	30048.82
446.633	30226.99
446.839	30687.79
447.046	29866.55
447.252	31681.05
447.459	31484.45
447.665	31293.99
447.871	32401.94
448.078	34388.47
448.284	32637.45
448.491	33360.39
448.697	34830.83
448.903	35293.67
449.11	35111.4
449.316	34945.51
449.522	35514.85
449.728	36305.37
449.935	36749.78
450.141	36860.37
450.347	37409.22
450.553	36547.03
450.76	36932.04
450.966	37804.48
451.172	37474.76
451.378	38814.13
451.584	37796.29
451.791	38613.43
451.997	38703.54
452.203	38959.53
452.409	38832.56
452.615	39029.16
452.821	37331.4
453.027	37218.76
453.233	39260.58
453.44	37773.76
453.646	38277.56
453.852	38240.7
454.058	38975.92
454.264	37519.81
454.47	38298.04
454.676	37312.97
454.882	38730.16
455.088	35523.04
455.294	35672.54
455.5	36436.44
455.705	37083.59
455.911	35570.15
456.117	34580.98
456.323	34595.31
456.529	32494.1
456.735	33833.47
456.941	33079.82
457.147	32461.33
457.352	31545.89
457.558	31244.84
457.764	31142.44
457.97	30784.04
458.176	30124.6
458.381	30143.03
458.587	28525.13
458.793	28600.91
458.999	27159.14
459.204	28924.49
459.41	28113.49
459.616	26352.24
459.821	26440.3
460.027	26241.65
460.233	25733.75
460.438	24367.76
460.644	24767.11
460.85	23552.66
461.055	23507.61
461.261	22999.71
461.466	21576.37
461.672	21156.54
461.878	22432.43
462.083	20806.34
462.289	20404.94
462.494	20191.95
462.7	19225.31
462.905	18995.93
463.111	19466.97
463.316	19403.48
463.522	18997.98
463.727	19305.18
463.932	18905.82
464.138	18991.84
464.343	19217.11
464.549	18332.39
464.754	18897.63
464.959	19065.57
465.165	18453.22
465.37	17758.96
465.575	17414.9
465.781	18244.33
465.986	18371.3
466.191	17677.04
466.397	17408.76
466.602	16253.7
466.807	17095.42
467.012	17380.09
467.218	17109.75
467.423	17074.94
467.628	16720.64
467.833	17672.95
468.038	16941.82
468.244	16384.77
468.449	17165.05
468.654	16501.51
468.859	16417.54
469.064	16161.55
469.269	15768.34
469.474	15665.94
469.679	16083.72
469.885	15807.25
470.09	16104.2
470.295	15641.36
470.5	15373.08
470.705	15455
470.91	15086.36
471.115	15069.98
471.32	15317.78
471.525	15088.41
471.73	14715.68
471.935	14766.88
472.139	14304.04
472.344	14447.4
472.549	14488.35
472.754	13935.4
472.959	14013.23
473.164	13667.12
473.369	13466.42
473.574	13894.44
473.778	13663.02
473.983	13763.37
474.188	13636.4
474.393	13073.21
474.598	12954.43
474.802	12784.44
475.007	12976.95
475.212	12890.94
475.417	12272.45
475.621	12190.53
475.826	12346.18
476.031	11918.15
476.235	11993.93
476.44	12071.75
476.645	11742.03
476.849	11860.81
477.054	11899.72
477.259	11539.28
477.463	11418.45
477.668	11281.24
477.872	11340.63
478.077	11152.21
478.282	10832.73
478.486	10771.29
478.691	10986.33
478.895	10761.05
479.1	10857.31
479.304	10763.1
479.509	10521.44
479.713	10556.25
479.918	10300.26
480.122	10296.16
480.326	10318.69
480.531	10398.56
480.735	10144.61
480.94	10109.8
481.144	10443.62
481.348	9829.23
481.553	10081.13
481.757	9767.79
481.961	9710.44
482.166	10128.23
482.37	10044.26
482.574	9753.45
482.778	10011.5
482.983	10068.84
483.187	9907.05
483.391	9923.43
483.595	9692.01
483.8	9653.1
484.004	10091.37
484.208	9999.21
484.412	9837.42
484.616	9929.58
484.821	9843.56
485.025	9732.97
485.229	9907.05
485.433	9687.92
485.637	9898.86
485.841	9780.07
486.045	9671.53
486.249	9759.6
486.453	9818.99
486.657	9747.31
486.861	10001.26
487.065	9769.83
487.269	9720.68
487.473	9620.33
487.677	9919.34
487.881	10007.4
488.085	9608.05
488.289	9841.51
488.493	9675.63
488.697	9905
488.901	9853.8
489.105	9970.54
489.309	10079.08
489.512	9849.71
489.716	10089.32
489.92	9919.34
490.124	10015.59
490.328	10238.82
490.531	9829.23
490.735	9886.57
490.939	10117.99
491.143	9880.43
491.346	9935.72
491.55	10404.71
491.754	10128.23
491.958	10255.2
492.161	10404.71
492.365	10474.34
492.569	10120.04
492.772	10324.83
492.976	10511.2
493.18	10316.64
493.383	10670.94
493.587	10656.61
493.79	10734.43
493.994	10691.42
494.197	10705.76
494.401	10814.3
494.605	10818.39
494.808	11076.44
495.012	11082.58
495.215	10883.93
495.419	11072.34
495.622	11340.63
495.825	11340.63
496.029	11211.6
496.232	11787.08
496.436	11617.1
496.639	11860.81
496.843	11952.97
497.046	12149.57
497.249	12133.19
497.453	12141.38
497.656	12409.67
497.859	11981.64
498.063	12481.35
498.266	12538.69
498.469	12581.7
498.673	12796.73
498.876	12995.39
499.079	13108.02
499.282	13251.38
499.485	13237.05
499.689	13206.33
499.892	13548.34
500.095	13771.57
500.298	13998.89
500.501	13853.48
500.705	14392.1
500.908	14514.98
501.111	14525.22
501.314	14535.46
501.517	14744.35
501.72	15039.26
501.923	15014.68
502.126	15119.13
502.329	15751.95
502.532	15700.75
502.735	15602.45
502.938	15952.65
503.141	15926.03
503.344	16378.63
503.547	16442.12
503.75	16628.48
503.953	16986.88
504.156	16843.52
504.359	17040.12
504.562	17126.14
504.765	17363.7
504.968	17718
505.17	17996.53
505.373	18098.92
505.576	18129.64
505.779	18430.69
505.982	18236.14
506.185	18887.39
506.387	18834.14
506.59	19147.48
506.793	19622.61
506.996	19213.02
507.198	19927.76
507.401	19997.39
507.604	20058.83
507.807	20501.19
508.009	20630.21
508.212	20488.9
508.415	20970.18
508.617	21050.05
508.82	21349.05
509.022	21048
509.225	21705.4
509.428	21953.2
509.63	22004.4
509.833	22223.53
510.035	22909.6
510.238	22682.28
510.44	23018.14
510.643	23177.89
510.845	23407.26
511.048	23095.97
511.25	23771.8
511.453	23771.8
511.655	24554.12
511.858	24349.32
512.06	24552.07
512.262	25037.44
512.465	24801.93
512.667	25242.24
512.87	25303.68
513.072	25596.54
513.274	26057.33
513.477	26145.39
513.679	26354.29
513.881	26593.9
514.084	27185.76
514.286	26905.19
514.488	27341.41
514.69	28011.09
514.893	28107.35
515.095	27904.6
515.297	28297.81
515.499	28406.35
515.701	28764.75
515.904	29114.95
516.106	29235.78
516.308	29534.78
516.51	30054.97
516.712	29571.64
516.914	30046.77
517.116	30677.55
517.318	30501.42
517.52	31154.72
517.722	30820.91
517.925	31418.91
518.127	32018.97
518.329	31969.82
518.531	31838.75
518.733	32676.37
518.935	32494.1
519.136	32795.15
519.338	33698.3
519.54	33366.53
519.742	33542.66
519.944	34093.56
520.146	34046.46
520.348	34607.6
520.55	34750.96
520.752	34900.46
520.954	35033.58
521.155	35068.39
521.357	35817.95
521.559	35865.05
521.761	36385.24
521.963	36331.99
522.164	36397.52
522.366	36671.95
522.568	37059.02
522.77	37216.71
522.971	38007.23
523.173	37274.06
523.375	37716.42
523.576	37749.18
523.778	38103.48
523.98	38599.09
524.181	38855.09
524.383	38965.68
524.584	39154.09
524.786	39276.97
524.988	39018.92
525.189	39657.89
525.391	39885.22
525.592	39752.1
525.794	40141.21
525.995	40223.13
526.197	40366.49
526.398	40528.28
526.6	40573.33
526.801	40853.9
527.003	40792.47
527.204	40980.88
527.406	41804.16
527.607	41365.9
527.808	41847.17
528.01	41126.28
528.211	41290.12
528.412	42342.78
528.614	41998.72
528.815	41988.48
529.016	42613.11
529.218	41978.24
529.419	42570.1
529.62	42697.08
529.822	42084.73
530.023	42473.85
530.224	42709.36
530.425	42609.01
530.626	42453.37
530.828	42602.87
531.029	43493.74
531.23	42590.58
531.431	42674.55
531.632	43182.45
531.833	42594.68
532.035	43041.14
532.236	43164.01
532.437	43452.78
532.638	42738.04
532.839	43843.94
533.04	43352.43
533.241	42918.26
533.442	43923.81
533.643	43551.08
533.844	43229.55
534.045	43741.54
534.246	43057.52
534.447	43577.7
534.648	43315.56
534.849	43899.23
535.05	43520.36
535.251	43434.35
535.451	43393.39
535.652	43845.99
535.853	43704.68
536.054	43686.25
536.255	43553.13
536.456	43102.57
536.657	44044.64
536.857	43600.23
537.058	43401.58
537.259	43872.61
537.46	43415.91
537.66	43225.45
537.861	43557.22
538.062	43768.16
538.263	43786.6
538.463	43487.59
538.664	43770.21
538.865	43884.9
539.065	43852.13
539.266	43133.29
539.466	43770.21
539.667	43168.11
539.868	44204.38
540.068	43549.03
540.269	43438.44
540.469	43975.01
540.67	43336.04
540.87	43497.83
541.071	43704.68
541.271	43848.03
541.472	43338.09
541.672	43358.57
541.873	43428.2
542.073	42930.54
542.274	43633
542.474	43409.77
542.675	43286.89
542.875	43731.3
543.075	43452.78
543.276	43172.21
543.476	43587.94
543.676	43200.88
543.877	43397.48
544.077	43272.56
544.277	42985.84
544.478	43290.99
544.678	43622.76
544.878	43219.31
545.078	43333.99
545.279	43102.57
545.479	42635.64
545.679	43436.39
545.879	43200.88
546.079	42973.55
546.28	43043.18
546.48	42912.11
546.68	43444.59
546.88	43372.91
547.08	43147.63
547.28	43137.39
547.48	43012.46
547.68	43377
547.88	43106.67
548.081	42926.45
548.281	43233.64
548.481	42858.87
548.681	43168.11
548.881	43446.63
549.081	43151.73
549.28	42459.51
549.48	43264.36
549.68	42824.05
549.88	43305.32
550.08	42520.95
550.28	43078
550.48	43209.07
550.68	42979.7
550.88	42641.78
551.08	42922.35
551.279	42762.61
551.479	42510.71
551.679	42633.59
551.879	42551.67
552.079	42557.81
552.278	42363.26
552.478	42582.39
552.678	43159.92
552.878	42959.22
553.077	43049.33
553.277	42381.69
553.477	43145.58
553.676	42764.66
553.876	42795.38
554.076	42201.47
554.275	42584.44
554.475	42381.69
554.674	42572.15
554.874	42611.06
555.074	42115.45
555.273	42733.94
555.473	42639.73
555.672	42043.77
555.872	42279.29
556.071	42226.04
556.271	42371.45
556.47	41881.98
556.67	41759.11
556.869	42178.94
557.068	42082.69
557.268	42160.51
557.467	42000.77
557.667	41462.15
557.866	42072.45
558.065	41920.9
558.265	41234.83
558.464	41507.21
558.663	41734.53
558.863	41251.21
559.062	42074.49
559.261	41361.8
559.461	41933.18
559.66	41396.62
559.859	41195.92
560.058	41388.42
560.258	41343.37
560.457	41050.51
560.656	41496.97
560.855	41140.62
561.054	41314.7
561.253	40825.23
561.453	41521.54
561.652	40853.9
561.851	41329.03
562.05	40780.18
562.249	40638.87
562.448	41165.2
562.647	40753.55
562.846	40579.48
563.045	40677.78
563.244	40366.49
563.443	40669.59
563.642	39979.42
563.841	40384.92
564.04	40438.17
564.239	40151.45
564.438	39776.67
564.637	40042.91
564.836	40012.19
565.035	39479.72
565.234	39702.95
565.432	39735.71
565.631	39463.33
565.83	39600.55
566.029	39502.25
566.228	39666.08
566.427	39532.96
566.625	39092.65
566.824	38500.79
567.023	39141.8
567.222	38615.47
567.42	39086.51
567.619	39027.12
567.818	38896.05
568.016	38298.04
568.215	38785.46
568.414	38807.98
568.612	38941.1
568.811	38537.65
569.01	38480.31
569.208	37960.12
569.407	38287.8
569.605	38132.15
569.804	38199.74
570.002	37718.46
570.201	38171.07
570.4	37544.39
570.598	37976.51
570.797	37605.83
570.995	37620.16
571.193	37261.77
571.392	37953.98
571.59	37206.47
571.789	37136.84
571.987	37286.34
572.186	36993.48
572.384	36870.61
572.582	37337.54
572.781	36995.53
572.979	36413.91
573.177	36542.93
573.376	36618.71
573.574	36678.1
573.772	36456.92
573.971	36334.04
574.169	36317.65
574.367	36022.75
574.565	36047.32
574.763	35916.25
574.962	36075.99
575.16	35559.91
575.358	35889.63
575.556	35443.17
575.754	36075.99
575.952	35119.59
576.151	35709.41
576.349	35269.09
576.547	35414.5
576.745	35322.34
576.943	35129.83
577.141	35017.19
577.339	35068.39
577.537	35039.72
577.735	34525.68
577.933	34693.61
578.131	34791.92
578.329	34390.52
578.527	34417.14
578.725	34873.84
578.923	34513.39
579.121	34064.89
579.319	34173.43
579.516	34404.85
579.714	33751.55
579.912	33942.01
580.11	34036.22
580.308	33769.98
580.506	33804.8
580.704	33253.89
580.901	33497.6
581.099	34017.78
581.297	33245.7
581.495	33374.72
581.692	33645.05
581.89	33266.18
582.088	33683.97
582.285	33227.27
582.483	33182.21
582.681	32866.83
582.878	32829.96
583.076	32471.57
583.274	32981.51
583.471	32297.49
583.669	32408.08
583.866	32373.27
584.064	32561.68
584.262	32197.14
584.459	32000.54
584.657	32266.77
584.854	32524.82
585.052	31713.82
585.249	32154.13
585.447	31724.06
585.644	31447.58
585.841	31853.08
586.039	31672.86
586.236	31187.49
586.434	31556.13
586.631	31154.72
586.828	31341.09
587.026	30960.17
587.223	30966.31
587.42	30994.98
587.618	30974.5
587.815	31132.2
588.012	30753.32
588.21	30747.18
588.407	30900.78
588.604	30417.46
588.801	30573.1
588.999	30233.14
589.196	30204.47
589.393	30659.12
589.59	30229.04
589.787	30226.99
589.984	29764.15
590.182	29620.8
590.379	29862.46
590.576	29778.49
590.773	29569.6
590.97	29336.13
591.167	29794.87
591.364	29166.15
591.561	29334.08
591.758	29119.04
591.955	28777.03
592.152	29450.81
592.349	29100.61
592.546	29037.12
592.743	28834.38
592.94	28320.34
593.137	28668.49
593.334	28768.84
593.531	28205.65
593.727	28521.04
593.924	28402.25
594.121	28201.55
594.318	28396.11
594.515	27929.17
594.712	28109.4
594.908	27943.51
595.105	28193.36
595.302	27781.72
595.499	27707.99
595.696	27648.6
595.892	27284.06
596.089	27798.1
596.286	27400.8
596.482	27419.23
596.679	27581.02
596.876	27431.52
597.072	26831.46
597.269	27232.86
597.466	26948.2
597.662	26841.7
597.859	26964.58
598.055	27097.7
598.252	26866.28
598.448	26786.41
598.645	26765.93
598.841	26092.15
599.038	26505.84
599.234	26546.79
599.431	26387.05
599.627	25973.36
599.824	26403.44
600.02	25860.73
600.217	25952.88
600.413	25817.72
600.609	26157.68
600.806	25465.47
601.002	25463.42
601.198	25475.71
601.395	25277.05
601.591	25332.35
601.787	25244.29
601.984	25029.25
602.18	25383.55
602.376	25084.55
602.572	24844.93
602.769	24746.63
602.965	24713.86
603.161	25010.82
603.357	24935.04
603.553	24533.64
603.75	24990.34
603.946	24437.39
604.142	24527.5
604.338	24263.31
604.534	24238.73
604.73	23825.04
604.926	24070.8
605.122	24421
605.318	23837.33
605.514	23882.39
605.71	23999.12
605.906	23859.86
606.102	23655.06
606.298	23528.09
606.494	23583.38
606.69	23669.4
606.886	23560.86
607.082	23466.65
607.278	23761.56
607.474	23255.71
607.67	23798.42
607.866	22923.94
608.062	23487.13
608.257	22979.23
608.453	23020.19
608.649	23210.65
608.845	22801.06
609.041	23327.39
609.236	23214.75
609.432	23122.59
609.628	22966.95
609.824	22762.15
610.019	22616.74
610.215	22540.97
610.411	22473.39
610.606	22506.15
610.802	22545.06
610.998	22672.04
611.193	22516.39
611.389	22235.82
611.584	22170.29
611.78	22276.78
611.976	22336.17
612.171	22258.35
612.367	22413.99
612.562	22074.03
612.758	21858.99
612.953	21748.4
613.149	22104.75
613.344	22008.5
613.539	22319.79
613.735	22170.29
613.93	21801.65
614.126	21545.66
614.321	22139.57
614.517	21807.8
614.712	21672.63
614.907	21557.94
615.103	21519.03
615.298	21564.09
615.493	21490.36
615.688	20982.46
615.884	21768.88
616.079	21203.64
616.274	21420.73
616.47	21252.8
616.665	21459.64
616.86	21351.1
617.055	21111.49
617.25	21170.88
617.445	21105.34
617.641	20814.53
617.836	21357.24
618.031	20742.85
618.226	21117.63
618.421	20828.87
618.616	21084.86
618.811	20587.21
619.006	21111.49
619.201	20472.52
619.396	20980.42
619.591	20294.35
619.786	20722.37
619.981	20265.67
620.176	20245.2
620.371	20181.71
620.566	20064.97
620.761	19899.09
620.956	20034.25
621.151	19741.39
621.346	19786.45
621.541	19403.48
621.735	19727.06
621.93	19202.78
622.125	19426.01
622.32	19104.48
622.515	19292.89
622.709	19219.16
622.904	19358.42
623.099	18914.02
623.294	18916.06
623.488	18733.79
623.683	18774.75
623.878	18277.1
624.072	18406.12
624.267	18373.35
624.462	18010.86
624.656	17976.05
624.851	18209.51
625.046	18043.63
625.24	17980.14
625.435	17773.3
625.629	17664.75
625.824	17763.06
626.018	17425.14
626.213	17134.33
626.407	17525.49
626.602	17203.96
626.796	17273.59
626.991	17058.56
627.185	17019.64
627.38	16831.23
627.574	16655.11
627.768	16691.97
627.963	16556.8
628.157	16429.83
628.352	16737.02
628.546	16218.89
628.74	16399.11
628.935	16132.87
629.129	16034.57
629.323	15723.28
629.517	15909.65
629.712	15780.62
629.906	15819.53
630.1	15567.63
630.294	15704.85
630.489	15309.59
630.683	15452.95
630.877	15246.1
631.071	15219.48
631.265	15221.53
631.459	15074.07
631.653	14955.29
631.848	14838.56
632.042	14887.71
632.236	14906.14
632.43	14547.75
632.624	14902.04
632.818	14721.82
633.012	14553.89
633.206	14609.19
633.4	14388
633.594	14244.65
633.788	13992.75
633.982	14195.5
634.176	14091.05
634.369	13904.68
634.563	14150.44
634.757	13624.11
634.951	13931.31
635.145	13794.09
635.339	13855.53
635.533	13630.26
635.726	13644.59
635.92	13232.95
636.114	13376.31
636.308	13284.15
636.501	13290.29
636.695	13210.42
636.889	13019.96
637.083	13067.06
637.276	12956.47
637.47	13028.15
637.664	12702.53
637.857	12882.75
638.051	12790.59
638.244	12770.11
638.438	12573.5
638.632	12510.02
638.825	12284.74
639.019	12399.43
639.212	12102.47
639.406	12213.06
639.599	12196.68
639.793	12282.69
639.986	11979.59
640.18	12086.09
640.373	12028.74
640.567	12000.07
640.76	11836.24
640.954	11551.57
641.147	11504.46
641.34	11465.55
641.534	11627.34
641.727	11553.62
641.92	11553.62
642.114	11389.78
642.307	11316.05
642.5	11432.79
642.694	11326.29
642.887	11064.15
643.08	11268.95
643.273	11025.24
643.467	11094.87
643.66	11119.45
643.853	10933.08
644.046	10709.85
644.239	10699.61
644.432	10765.15
644.626	10677.09
644.819	10509.15
645.012	10720.09
645.205	10462.05
645.398	10638.17
645.591	10324.83
645.784	10312.55
645.977	10079.08
646.17	10193.76
646.363	10197.86
646.556	9999.21
646.749	10218.34
646.942	10226.53
647.135	9866.09
647.328	10027.88
647.521	9900.9
647.714	9818.99
647.907	9798.51
648.099	9759.6
648.292	9630.57
648.485	9624.43
648.678	9489.26
648.871	9485.17
649.064	9532.27
649.256	9591.66
649.449	9366.39
649.642	9180.02
649.835	9382.77
650.027	9304.95
650.22	9151.35
650.413	9100.15
650.605	9249.65
650.798	9169.78
650.991	8985.46
651.183	8903.54
651.376	9051
651.568	8936.31
651.761	8743.8
651.954	8727.42
652.146	8698.75
652.339	8676.22
652.531	8782.71
652.724	8579.97
652.916	8504.19
653.109	8434.56
653.301	8342.4
653.494	8620.92
653.686	8194.95
653.879	8178.56
654.071	8332.16
654.263	8158.08
654.456	8274.82
654.648	8262.53
654.84	7846.79
655.033	8178.56
655.225	8033.16
655.417	7891.85
655.61	7938.95
655.802	7943.05
655.994	7910.28
656.186	7818.12
656.379	7732.11
656.571	7910.28
656.763	7644.04
656.955	7728.01
657.148	7617.42
657.34	7566.22
657.532	7650.19
657.724	7420.81
657.916	7478.16
658.108	7142.29
658.3	7324.56
658.492	7306.13
658.684	7330.7
658.876	7363.47
659.068	7246.74
659.26	7248.79
659.452	7087
659.644	7074.71
659.836	7150.48
660.028	7033.75
660.22	6888.34
660.412	7066.52
660.604	6968.21
660.796	6972.31
660.988	6867.86
661.18	6871.96
661.372	6679.45
661.563	7027.6
661.755	6896.53
661.947	6771.61
662.139	6628.25
662.331	6794.14
662.522	6661.02
662.714	6425.5
662.906	6439.84
663.097	6529.95
663.289	6439.84
663.481	6376.35
663.673	6497.18
663.864	6529.95
664.056	6325.15
664.247	6237.09
664.439	6108.07
664.631	6347.68
664.822	6341.54
665.014	6345.63
665.205	5974.95
665.397	6153.12
665.588	6128.55
665.78	6052.77
665.971	6077.35
666.163	6065.06
666.354	5985.19
666.546	6028.2
666.737	5837.73
666.929	5882.79
667.12	5981.09
667.311	5729.19
667.503	5639.08
667.694	5792.68
667.885	5737.38
668.077	5624.75
668.268	5782.44
668.459	5831.59
668.651	5694.38
668.842	5532.59
669.033	5669.8
669.224	5499.82
669.416	5639.08
669.607	5327.79
669.798	5356.46
669.989	5505.96
670.18	5538.73
670.371	5297.07
670.563	5508.01
670.754	5180.34
670.945	5288.88
671.136	5391.28
671.327	5372.85
671.518	5204.91
671.709	5335.98
671.9	5364.65
672.091	5313.45
672.282	5305.26
672.473	5225.39
672.664	5190.58
672.855	5137.33
673.046	5084.08
673.237	5184.43
673.428	5043.12
673.619	5125.04
673.809	5131.19
674	5069.75
674.191	4928.44
674.382	5000.12
674.573	4957.11
674.764	4957.11
674.954	4946.87
675.145	4924.34
675.336	4834.23
675.527	4862.9
675.717	4832.18
675.908	4801.46
676.099	4711.35
676.289	4637.63
676.48	4746.17
676.671	4731.83
676.861	4883.38
677.052	4787.13
677.243	4613.05
677.433	4711.35
677.624	4711.35
677.814	4613.05
678.005	4680.63
678.195	4512.7
678.386	4649.91
678.576	4594.62
678.767	4664.25
678.957	4559.8
679.148	4608.95
679.338	4596.67
679.529	4664.25
679.719	4518.84
679.909	4713.4
680.1	4533.18
680.29	4475.84
680.481	4563.9
680.671	4512.7
680.861	4621.24
681.052	4518.84
681.242	4391.87
681.432	4389.82
681.622	4404.16
681.813	4381.63
682.003	4365.25
682.193	4154.3
682.383	4432.83
682.573	4291.52
682.764	4252.61
682.954	4357.05
683.144	4199.36
683.334	4219.84
683.524	4291.52
683.714	4232.13
683.904	4275.13
684.094	4195.26
684.284	4295.61
684.474	4309.95
684.664	4113.35
684.854	4105.15
685.044	4049.86
685.234	4178.88
685.424	4047.81
685.614	4025.28
685.804	4025.28
685.994	3972.04
686.184	4072.39
686.374	4076.48
686.564	3931.08
686.753	4074.43
686.943	4045.76
687.133	3949.51
687.323	3951.56
687.513	4027.33
687.702	4025.28
687.892	3863.49
688.082	4002.75
688.272	3939.27
688.461	3832.77
688.651	3777.48
688.841	3638.22
689.03	3853.25
689.22	3722.18
689.41	3670.98
689.599	3693.51
689.789	3849.16
689.979	3709.9
690.168	3695.56
690.358	3664.84
690.547	3539.91
690.737	3603.4
690.926	3640.26
691.116	3498.95
691.305	3732.42
691.495	3601.35
691.684	3599.31
691.874	3580.87
692.063	3531.72
692.252	3439.56
692.442	3609.54
692.631	3539.91
692.82	3464.14
693.01	3410.89
693.199	3161.04
693.388	3238.86
693.578	3316.69
693.767	3296.21
693.956	3257.29
694.146	3302.35
694.335	3322.83
694.524	3240.91
694.713	3320.78
694.902	3152.85
695.092	3171.28
695.281	3222.48
695.47	3265.49
695.659	3075.03
695.848	3226.57
696.037	3173.33
696.226	3300.3
696.415	3120.08
696.604	3154.9
696.793	2999.25
696.982	3103.7
697.171	3113.94
697.36	3085.26
697.549	3228.62
697.738	3058.64
697.927	3054.55
698.116	3017.68
698.305	3077.07
698.494	3038.16
698.683	3040.21
698.872	3101.65
699.061	2993.11
699.25	3097.55
699.438	2915.28
699.627	2948.05
699.816	3023.83
700.005	3107.79
700.193	3021.78
700.382	3099.6
700.571	2982.87
700.76	2939.86
700.948	3060.69
701.137	2962.39
701.326	2892.76
701.514	2892.76
701.703	2911.19
701.892	2900.95
702.08	2923.48
702.269	3005.39
702.457	2960.34
702.646	2923.48
702.834	2845.65
703.023	2882.52
703.212	2939.86
703.4	2857.94
703.589	2882.52
703.777	3038.16
703.965	2896.85
704.154	2821.08
704.342	2726.87
704.531	2771.93
704.719	2911.19
704.907	2720.73
705.096	2835.41
705.284	2921.43
705.472	2956.24
705.661	2974.67
705.849	2810.84
706.037	2923.48
706.226	2819.03
706.414	2741.21
706.602	2816.98
706.79	2845.65
706.979	2839.51
707.167	2677.72
707.355	2851.8
707.543	2923.48
707.731	2841.56
707.919	2827.22
708.107	2765.78
708.296	2827.22
708.484	2737.11
708.672	2726.87
708.86	2782.17
709.048	2868.18
709.236	2794.45
709.424	2790.36
709.612	2751.45
709.8	2728.92
709.988	2737.11
710.176	2751.45
710.364	2868.18
710.551	2583.51
710.739	2819.03
710.927	2788.31
711.115	2690.01
711.303	2841.56
711.491	2804.69
711.679	2780.12
711.866	2737.11
712.054	2735.06
712.242	2679.77
712.43	2886.61
712.617	2782.17
712.805	2616.28
712.993	2808.79
713.181	2722.77
713.368	2773.97
713.556	2831.32
713.744	2651.1
713.931	2776.02
714.119	2683.86
714.306	2694.1
714.494	2741.21
714.682	2702.29
714.869	2745.3
715.057	2655.19
715.244	2694.1
715.432	2743.25
715.619	2657.24
715.807	2708.44
715.994	2700.25
716.182	2773.97
716.369	2728.92
716.556	2651.1
716.744	2653.14
716.931	2681.82
717.119	2690.01
717.306	2608.09
717.493	2657.24
717.681	2778.07
717.868	2704.34
718.055	2784.21
718.242	2673.62
718.43	2704.34
718.617	2671.58
718.804	2720.73
718.991	2628.57
719.179	2745.3
719.366	2642.9
719.553	2681.82
719.74	2700.25
719.927	2718.68
720.114	2507.74
720.301	2640.86
720.488	2716.63
720.676	2503.64
720.863	2640.86
721.05	2749.4
721.237	2614.23
721.424	2733.01
721.611	2702.29
721.798	2595.8
721.985	2653.14
722.172	2638.81
722.358	2595.8
722.545	2644.95
722.732	2700.25
722.919	2726.87
723.106	2563.03
723.293	2782.17
723.48	2767.83
723.667	2610.14
723.853	2657.24
724.04	2708.44
724.227	2692.05
724.414	2587.61
724.6	2675.67
724.787	2558.94
724.974	2653.14
725.161	2653.14
725.347	2665.43
725.534	2724.82
725.72	2649.05
725.907	2655.19
726.094	2735.06
726.28	2690.01
726.467	2702.29
726.653	2616.28
726.84	2712.53
727.027	2671.58
727.213	2511.83
727.4	2692.05
727.586	2608.09
727.773	2597.85
727.959	2642.9
728.145	2608.09
728.332	2536.41
728.518	2720.73
728.705	2679.77
728.891	2620.38
729.077	2659.29
729.264	2683.86
729.45	2708.44
729.636	2681.82
729.823	2710.49
730.009	2581.46
730.195	2712.53
730.382	2647
730.568	2702.29
730.754	2763.73
730.94	2747.35
731.126	2532.31
731.313	2636.76
731.499	2599.9
731.685	2741.21
731.871	2610.14
732.057	2845.65
732.243	2735.06
732.429	2724.82
732.615	2653.14
732.801	2685.91
732.987	2665.43
733.173	2747.35
733.359	2626.52
733.545	2653.14
733.731	2538.46
733.917	2622.42
734.103	2665.43
734.289	2778.07
734.475	2630.62
734.661	2829.27
734.847	2683.86
735.033	2606.04
735.219	2753.49
735.404	2640.86
735.59	2669.53
735.776	2679.77
735.962	2704.34
736.148	2644.95
736.333	2644.95
736.519	2544.6
736.705	2796.5
736.89	2610.14
737.076	2669.53
737.262	2603.99
737.447	2687.96
737.633	2769.88
737.819	2628.57
738.004	2622.42
738.19	2599.9
738.375	2491.35
738.561	2687.96
738.747	2595.8
738.932	2665.43
739.118	2589.66
739.303	2499.55
739.489	2603.99
739.674	2497.5
739.859	2616.28
740.045	2591.7
740.23	2622.42
740.416	2550.75
740.601	2495.45
740.786	2560.98
740.972	2378.72
741.157	2544.6
741.342	2403.29
741.528	2427.87
741.713	2558.94
741.898	2550.75
742.084	2575.32
742.269	2499.55
742.454	2534.36
742.639	2440.15
742.824	2548.7
743.01	2491.35
743.195	2450.39
743.38	2423.77
743.565	2427.87
743.75	2350.04
743.935	2417.63
744.12	2409.44
744.305	2491.35
744.49	2274.27
744.675	2603.99
744.86	2360.28
745.045	2380.76
745.23	2356.19
745.415	2360.28
745.6	2345.95
745.785	2309.08
745.97	2358.24
746.155	2403.29
746.34	2227.17
746.525	2274.27
746.71	2261.98
746.895	2239.45
747.079	2233.31
747.264	2161.63
747.449	2352.09
747.634	2292.7
747.819	2331.61
748.003	2104.29
748.188	2132.96
748.373	2122.72
748.557	2274.27
748.742	2100.19
748.927	2186.21
749.111	2161.63
749.296	2106.34
749.481	2063.33
749.665	2141.15
749.85	2055.14
750.034	2153.44
750.219	2116.58
750.404	2026.47
750.588	1971.17
750.773	2061.28
750.957	2016.23
751.141	2055.14
751.326	2085.86
751.51	1985.51
751.695	2018.27
751.879	2046.94
752.064	1985.51
752.248	1915.87
752.432	1944.55
752.617	1813.48
752.801	1821.67
752.985	1846.24
753.17	1811.43
753.354	1862.63
753.538	1833.96
753.722	1813.48
753.907	1776.61
754.091	1731.56
754.275	1788.9
754.459	1797.09
754.643	1698.79
754.828	1731.56
755.012	1727.46
755.196	1682.41
755.38	1637.35
755.564	1608.68
755.748	1631.21
755.932	1686.5
756.116	1653.73
756.3	1612.78
756.484	1704.93
756.668	1625.06
756.852	1618.92
757.036	1606.63
757.22	1530.86
757.404	1631.21
757.588	1534.95
757.772	1534.95
757.956	1508.33
758.14	1485.8
758.323	1569.77
758.507	1575.91
758.691	1459.18
758.875	1545.19
759.059	1459.18
759.242	1422.31
759.426	1399.79
759.61	1420.27
759.794	1493.99
759.977	1385.45
760.161	1457.13
760.345	1412.07
760.528	1356.78
760.712	1326.06
760.895	1342.44
761.079	1379.31
761.263	1389.55
761.446	1377.26
761.63	1360.88
761.813	1416.17
761.997	1315.82
762.18	1264.62
762.364	1389.55
762.547	1283.05
762.731	1334.25
762.914	1377.26
763.098	1233.9
763.281	1297.39
763.464	1274.86
763.648	1332.2
763.831	1203.18
764.015	1268.72
764.198	1231.85
764.381	1209.33
764.564	1266.67
764.748	1295.34
764.931	1319.92
765.114	1233.9
765.297	1260.52
765.481	1154.03
765.664	1227.76
765.847	1254.38
766.03	1270.76
766.213	1252.33
766.397	1180.65
766.58	1135.6
766.763	1278.96
766.946	1215.47
767.129	1104.88
767.312	1199.09
767.495	1121.26
767.678	1121.26
767.861	1250.28
768.044	1141.74
768.227	1209.33
768.41	1141.74
768.593	1080.3
768.776	1141.74
768.959	1113.07
769.142	1106.93
769.324	1033.2
769.507	1076.21
769.69	1147.89
769.873	1121.26
770.056	1145.84
770.239	1041.39
770.421	1068.02
770.604	971.76
770.787	1061.87
770.97	1104.88
771.152	1043.44
771.335	994.29
771.518	1008.62
771.7	1088.5
771.883	1076.21
772.066	1027.06
772.248	1041.39
772.431	1051.63
772.613	982
772.796	1035.25
772.978	1039.34
773.161	1125.36
773.343	994.29
773.526	900.08
773.708	943.09
773.891	902.13
774.073	852.98
774.256	906.23
774.438	965.62
774.621	943.09
774.803	867.31
774.985	930.8
775.168	953.33
775.35	885.75
775.532	936.95
775.715	928.75
775.897	830.45
776.079	850.93
776.261	840.69
776.444	881.65
776.626	924.66
776.808	865.27
776.99	842.74
777.173	865.27
777.355	842.74
777.537	797.68
777.719	883.7
777.901	785.4
778.083	836.6
778.265	740.34
778.447	744.44
778.629	898.03
778.811	828.4
778.993	777.2
779.175	764.92
779.357	732.15
779.539	732.15
779.721	721.91
779.903	730.1
780.085	689.14
780.267	822.26
780.449	734.2
780.631	775.16
780.812	762.87
780.994	734.2
781.176	629.75
781.358	637.94
781.54	680.95
781.721	758.77
781.903	715.77
782.085	656.37
782.267	699.38
782.448	609.27
782.63	728.05
782.812	674.81
782.993	603.13
783.175	627.7
783.357	617.46
783.538	605.17
783.72	621.56
783.901	601.08
784.083	674.81
784.264	654.33
784.446	590.84
784.627	564.22
784.809	564.22
784.99	541.69
785.172	584.7
785.353	596.98
785.535	586.74
785.716	551.93
785.897	568.31
786.079	525.3
786.26	560.12
786.441	592.89
786.623	551.93
786.804	474.1
786.985	467.96
787.167	496.63
787.348	560.12
787.529	535.54
787.71	523.26
787.891	453.63
788.073	541.69
788.254	556.02
788.435	492.54
788.616	539.64
788.797	449.53
788.978	412.67
789.159	402.43
789.34	494.58
789.522	486.39
789.703	447.48
789.884	357.37
790.065	533.5
790.246	457.72
790.427	441.34
790.607	476.15
790.788	545.78
790.969	406.52
791.15	396.28
791.331	463.86
791.512	394.23
791.693	390.14
791.874	418.81
792.054	424.95
792.235	414.71
792.416	441.34
792.597	349.18
792.778	443.39
792.958	314.36
793.139	427
793.32	343.03
793.5	451.58
793.681	375.8
793.862	412.67
794.042	371.71
794.223	388.09
794.404	357.37
794.584	394.23
794.765	347.13
794.945	306.17
795.126	349.18
795.306	357.37
795.487	334.84
795.667	318.46
795.848	330.75
796.028	420.86
796.209	340.99
796.389	404.47
796.57	359.42
796.75	279.55
796.93	349.18
797.111	306.17
797.291	394.23
797.471	375.8
797.652	332.79
797.832	314.36
798.012	353.27
798.192	269.31
798.373	289.79
798.553	295.93
798.733	275.45
798.913	326.65
799.093	248.83
799.274	244.73
799.454	336.89
799.634	300.03
799.814	306.17
799.994	326.65
800.174	297.98
800.354	285.69
800.534	281.6
800.714	285.69
800.894	314.36
801.074	267.26
801.254	240.64
801.434	320.51
801.614	248.83
801.794	322.56
801.974	660.47
802.154	252.92
802.334	310.27
802.514	244.73
802.693	228.35
802.873	203.77
803.053	308.22
803.233	283.64
803.413	185.34
803.592	244.73
803.772	220.16
803.952	242.68
804.131	226.3
804.311	257.02
804.491	336.89
804.67	236.54
804.85	287.74
805.03	252.92
805.209	254.97
805.389	232.44
805.568	265.21
805.748	130.05
805.928	214.01
806.107	297.98
806.287	236.54
806.466	254.97
806.646	248.83
806.825	199.68
807.004	224.25
807.184	214.01
807.363	203.77
807.543	222.2
807.722	232.44
807.901	228.35
808.081	218.11
808.26	162.81
808.439	226.3
808.619	189.44
808.798	195.58
808.977	203.77
809.156	216.06
809.336	152.57
809.515	236.54
809.694	152.57
809.873	181.25
810.052	154.62
810.231	220.16
810.411	109.57
810.59	193.53
810.769	265.21
810.948	125.95
811.127	113.66
811.306	230.4
811.485	185.34
811.664	199.68
811.843	89.09
812.022	134.14
812.201	261.12
812.38	201.72
812.559	156.67
812.737	240.64
812.916	93.18
813.095	123.9
813.274	201.72
813.453	214.01
813.632	171.01
813.811	191.49
813.989	203.77
814.168	181.25
814.347	171.01
814.526	123.9
814.704	125.95
814.883	203.77
815.062	224.25
815.24	142.33
815.419	160.77
815.598	134.14
815.776	144.38
815.955	150.53
816.133	158.72
816.312	150.53
816.49	105.47
816.669	168.96
816.847	191.49
817.026	158.72
817.204	205.82
817.383	168.96
817.561	72.7
817.74	128
817.918	144.38
818.097	164.86
818.275	228.35
818.453	193.53
818.632	191.49
818.81	201.72
818.988	80.89
819.167	185.34
819.345	123.9
819.523	105.47
819.701	97.28
819.879	148.48
820.058	130.05
820.236	203.77
820.414	142.33
820.592	60.42
820.77	107.52
820.948	144.38
821.127	160.77
821.305	113.66
821.483	101.37
821.661	105.47
821.839	189.44
822.017	175.1
822.195	154.62
822.373	144.38
822.551	160.77
822.729	107.52
822.907	78.85
823.085	50.18
823.262	68.61
823.44	236.54
823.618	119.81
823.796	136.19
823.974	171.01
824.152	130.05
824.329	70.65
824.507	199.68
824.685	185.34
824.863	162.81
825.04	152.57
825.218	121.85
825.396	189.44
825.574	156.67
825.751	107.52
825.929	209.92
826.107	99.33
826.284	187.39
826.462	101.37
826.639	146.43
826.817	74.75
826.994	95.23
827.172	152.57
827.349	113.66
827.527	134.14
827.704	168.96
827.882	80.89
828.059	80.89
828.237	119.81
828.414	136.19
828.591	95.23
828.769	117.76
828.946	13.31
829.124	103.42
829.301	158.72
829.478	109.57
829.655	115.71
829.833	111.61
830.01	48.13
830.187	115.71
830.364	23.55
830.542	119.81
830.719	121.85
830.896	168.96
831.073	99.33
831.25	56.32
831.427	60.42
831.604	35.84
831.782	140.29
831.959	72.7
832.136	117.76
832.313	121.85
832.49	99.33
832.667	91.13
832.844	93.18
833.021	130.05
833.198	72.7
833.374	11.26
833.551	138.24
833.728	95.23
833.905	87.04
834.082	70.65
834.259	173.05
834.436	181.25
834.612	89.09
834.789	105.47
834.966	52.22
835.143	48.13
835.319	68.61
835.496	154.62
835.673	70.65
835.85	52.22
836.026	48.13
836.203	130.05
836.38	74.75
836.556	33.79
836.733	58.37
836.909	132.09
837.086	17.41
837.262	84.99
837.439	39.94
837.616	95.23
837.792	87.04
837.968	80.89
838.145	41.98
838.321	76.8
838.498	15.36
838.674	15.36
838.851	46.08
839.027	103.42
839.203	97.28
839.38	132.09
839.556	52.22
839.732	74.75
839.909	89.09
840.085	48.13
840.261	27.65
840.437	93.18
840.614	72.7
840.79	138.24
840.966	62.46
841.142	-7.17
841.318	41.98
841.494	31.74
841.671	-5.12
841.847	23.55
842.023	19.46
842.199	-23.55
842.375	138.24
842.551	-33.79
842.727	39.94
842.903	101.37
843.079	62.46
843.255	121.85
843.431	84.99
843.607	91.13
843.783	-15.36
843.959	48.13
844.134	62.46
844.31	121.85
844.486	15.36
844.662	3.07
844.838	44.03
845.013	109.57
845.189	54.27
845.365	66.56
845.541	-41.98
845.716	-31.74
845.892	138.24
846.068	23.55
846.244	11.26
846.419	107.52
846.595	37.89
846.77	64.51
846.946	48.13
847.122	103.42
847.297	37.89
847.473	9.22
847.648	37.89
847.824	48.13
847.999	39.94
848.175	103.42
848.35	21.5
848.526	111.61
848.701	54.27
848.876	29.7
849.052	60.42
849.227	87.04
849.403	23.55
849.578	125.95
849.753	-3.07
849.929	-3.07
850.104	21.5
850.279	25.6
850.454	15.36
850.63	80.89
850.805	31.74
850.98	25.6
851.155	37.89
851.33	-48.13
851.505	31.74
851.681	56.32
851.856	-25.6
852.031	82.94
852.206	-25.6
852.381	35.84
852.556	74.75
852.731	66.56
852.906	46.08
853.081	56.32
853.256	66.56
853.431	31.74
853.606	-7.17
853.781	-15.36
853.956	-48.13
854.131	1.02
854.305	-1.02
854.48	23.55
854.655	29.7
854.83	-15.36
855.005	99.33
855.18	-19.46
855.354	76.8
855.529	99.33
855.704	-17.41
855.879	64.51
856.053	-5.12
856.228	62.46
856.403	39.94
856.577	50.18
856.752	-11.26
856.926	-1.02
857.101	-13.31
857.276	-5.12
857.45	17.41
857.625	58.37
857.799	13.31
857.974	9.22
858.148	-25.6
858.323	52.22
858.497	-19.46
858.672	7.17
858.846	33.79
859.02	23.55
859.195	-25.6
859.369	80.89
859.543	-27.65
859.718	29.7
859.892	66.56
860.066	54.27
860.241	-13.31
860.415	95.23
860.589	21.5
860.763	50.18
860.938	78.85
861.112	-9.22
861.286	-29.7
861.46	60.42
861.634	41.98
861.808	1.02
861.982	39.94
862.157	33.79
862.331	19.46
862.505	-19.46
862.679	-35.84
862.853	-46.08
863.027	29.7
863.201	17.41
863.375	-1.02
863.549	-17.41
863.722	-15.36
863.896	68.61
864.07	-107.52
864.244	15.36
864.418	21.5
864.592	-44.03
864.766	9.22
864.939	5.12
865.113	9.22
865.287	31.74
865.461	-15.36
865.634	50.18
865.808	52.22
865.982	68.61
866.156	23.55
866.329	5.12
866.503	15.36
866.676	50.18
866.85	7.17
867.024	-23.55
867.197	46.08
867.371	113.66
867.544	9.22
867.718	27.65
867.891	80.89
868.065	-25.6
868.238	37.89
868.412	70.65
868.585	39.94
868.759	21.5
868.932	-11.26
869.105	1.02
869.279	-41.98
869.452	-1.02
869.625	1.02
869.799	56.32
869.972	-5.12
870.145	11.26
870.319	17.41
870.492	56.32
870.665	-5.12
870.838	1.02
871.011	11.26
871.185	-35.84
871.358	3.07
871.531	19.46
871.704	-9.22
871.877	-3.07
872.05	3.07
872.223	-11.26
872.396	-21.5
872.569	72.7
872.742	52.22
872.915	7.17
873.088	60.42
873.261	15.36
873.434	11.26
873.607	3.07
873.78	-9.22
873.953	-11.26
874.126	33.79
874.299	15.36
874.471	23.55
874.644	56.32
874.817	21.5
874.99	41.98
875.163	-27.65
875.335	-29.7
875.508	-3.07
875.681	41.98
875.853	11.26
876.026	-3.07
876.199	93.18
876.371	1.02
876.544	15.36
876.717	-9.22
876.889	-35.84
877.062	-1.02
877.234	17.41
877.407	33.79
877.579	-11.26
877.752	-3.07
877.924	21.5
878.097	-1.02
878.269	-7.17
878.442	74.75
878.614	54.27
878.786	-9.22
878.959	21.5
879.131	9.22
879.303	-54.27
879.476	7.17
879.648	33.79
879.82	29.7
879.993	-1.02
880.165	-9.22
880.337	-15.36
880.509	-52.22
880.681	-78.85
880.854	-35.84
881.026	25.6
881.198	68.61
881.37	23.55
881.542	37.89
881.714	37.89
881.886	-37.89
882.058	-3.07
882.23	11.26
882.402	-25.6
882.574	-11.26
882.746	50.18
882.918	-19.46
883.09	64.51
883.262	58.37
883.434	27.65
883.606	3.07
883.778	80.89
883.95	15.36
884.122	62.46
884.293	35.84
884.465	-27.65
884.637	35.84
884.809	-66.56
884.98	62.46
885.152	70.65
885.324	13.31
885.496	-13.31
885.667	-27.65
885.839	-29.7
886.011	97.28
886.182	-7.17
886.354	68.61
886.525	15.36
886.697	-5.12
886.869	27.65
887.04	-48.13
887.212	-11.26
887.383	41.98
887.555	-19.46
887.726	15.36
887.897	-13.31
888.069	-31.74
888.24	15.36
888.412	23.55
888.583	-15.36
888.754	29.7
888.926	-37.89
889.097	-31.74
889.268	-3.07
889.44	-19.46
889.611	9.22
889.782	13.31
889.953	-44.03
890.125	58.37
890.296	-48.13
890.467	11.26
890.638	-9.22
890.809	-62.46
890.98	-68.61
891.151	-11.26
891.323	-68.61
891.494	52.22
891.665	-15.36
891.836	25.6
892.007	48.13
892.178	-7.17
892.349	58.37
892.52	68.61
892.691	-21.5
892.862	44.03
893.032	-25.6
893.203	50.18
893.374	70.65
893.545	9.22
893.716	5.12
893.887	-1.02
894.057	-13.31
894.228	44.03
894.399	35.84
894.57	-17.41
894.74	-41.98
894.911	19.46
895.082	21.5
895.253	15.36
895.423	-9.22
895.594	-9.22
895.764	46.08
895.935	-72.7
896.106	31.74
896.276	-3.07
896.447	-48.13
896.617	60.42
896.788	-33.79
896.958	3.07
897.129	56.32
897.299	-19.46
897.47	44.03
897.64	7.17
897.81	-37.89
897.981	37.89
898.151	-37.89
898.322	-3.07
898.492	33.79
898.662	-48.13
898.832	50.18
899.003	7.17
899.173	13.31
899.343	60.42
899.513	9.22
