Data from USB4F104151__14__11-44-30-474.txt Node

Date: Fri Mar 14 11:44:30 EDT 2025
User: louis
Spectrometer: USB4F10415
Trigger mode: 4
Integration Time (sec): 2.000000E-2
Scans to average: 1
Electric dark correction enabled: true
Nonlinearity correction enabled: false
Boxcar width: 0
XAxis mode: Wavelengths
Number of Pixels in Spectrum: 3648
>>>>>Begin Spectral Data<<<<<
178.204	-16.21
178.424	-16.21
178.644	-16.21
178.864	-59.22
179.084	-69.46
179.304	-18.26
179.524	20.65
179.744	-16.21
179.964	-65.36
180.184	-3.93
180.404	18.6
180.624	-34.64
180.844	53.42
181.064	-16.21
181.283	37.03
181.503	14.51
181.723	10.41
181.943	8.36
182.163	57.51
182.383	32.94
182.602	47.27
182.822	8.36
183.042	116.9
183.262	-16.21
183.482	18.6
183.701	71.85
183.921	14.51
184.141	14.51
184.361	75.95
184.58	2.22
184.8	-5.97
185.02	20.65
185.239	-14.17
185.459	-14.17
185.679	65.71
185.898	-38.74
186.118	32.94
186.338	41.13
186.557	98.47
186.777	73.9
186.997	84.14
187.216	-36.69
187.436	82.09
187.655	63.66
187.875	94.38
188.095	-18.26
188.314	-36.69
188.534	84.14
188.753	71.85
188.973	53.42
189.192	88.23
189.412	-28.5
189.631	18.6
189.851	30.89
190.07	75.95
190.29	2.22
190.509	100.52
190.729	-24.4
190.948	30.89
191.168	55.47
191.387	106.67
191.607	18.6
191.826	-3.93
192.045	14.51
192.265	28.84
192.484	102.57
192.704	90.28
192.923	2.22
193.142	98.47
193.362	0.17
193.581	28.84
193.8	14.51
194.02	24.75
194.239	67.75
194.458	8.36
194.678	45.23
194.897	61.61
195.116	0.17
195.335	28.84
195.555	51.37
195.774	20.65
195.993	84.14
196.212	-104.28
196.432	57.51
196.651	75.95
196.87	84.14
197.089	75.95
197.308	8.36
197.528	34.99
197.747	14.51
197.966	10.41
198.185	69.8
198.404	73.9
198.623	80.04
198.842	28.84
199.062	51.37
199.281	26.79
199.5	47.27
199.719	16.55
199.938	39.08
200.157	110.76
200.376	90.28
200.595	75.95
200.814	112.81
201.033	55.47
201.252	55.47
201.471	96.43
201.69	82.09
201.909	18.6
202.128	22.7
202.347	94.38
202.566	26.79
202.785	34.99
203.004	112.81
203.223	55.47
203.442	22.7
203.661	18.6
203.879	96.43
204.098	32.94
204.317	8.36
204.536	59.56
204.755	80.04
204.974	24.75
205.193	67.75
205.411	80.04
205.63	26.79
205.849	90.28
206.068	45.23
206.287	49.32
206.505	90.28
206.724	49.32
206.943	32.94
207.162	127.14
207.381	67.75
207.599	88.23
207.818	-8.02
208.037	80.04
208.255	-8.02
208.474	69.8
208.693	20.65
208.911	114.86
209.13	10.41
209.349	-10.07
209.567	32.94
209.786	55.47
210.005	22.7
210.223	22.7
210.442	-18.26
210.661	37.03
210.879	39.08
211.098	141.48
211.316	127.14
211.535	2.22
211.753	-40.79
211.972	32.94
212.191	-1.88
212.409	6.31
212.628	100.52
212.846	28.84
213.065	98.47
213.283	123.05
213.502	53.42
213.72	-5.97
213.938	28.84
214.157	4.27
214.375	20.65
214.594	-5.97
214.812	82.09
215.031	94.38
215.249	65.71
215.467	28.84
215.686	24.75
215.904	67.75
216.122	-46.93
216.341	110.76
216.559	16.55
216.778	112.81
216.996	86.19
217.214	24.75
217.432	49.32
217.651	57.51
217.869	-73.56
218.087	-8.02
218.306	-3.93
218.524	67.75
218.742	22.7
218.96	55.47
219.179	75.95
219.397	43.18
219.615	84.14
219.833	65.71
220.051	41.13
220.27	-8.02
220.488	92.33
220.706	57.51
220.924	12.46
221.142	47.27
221.36	55.47
221.578	49.32
221.796	69.8
222.015	80.04
222.233	49.32
222.451	32.94
222.669	-36.69
222.887	61.61
223.105	2.22
223.323	-10.07
223.541	-5.97
223.759	121
223.977	4.27
224.195	14.51
224.413	92.33
224.631	112.81
224.849	45.23
225.067	80.04
225.285	22.7
225.503	77.99
225.721	49.32
225.939	37.03
226.157	55.47
226.375	57.51
226.592	14.51
226.81	71.85
227.028	92.33
227.246	65.71
227.464	12.46
227.682	102.57
227.9	102.57
228.117	43.18
228.335	96.43
228.553	-18.26
228.771	24.75
228.989	-5.97
229.206	34.99
229.424	18.6
229.642	39.08
229.86	92.33
230.077	114.86
230.295	22.7
230.513	34.99
230.731	61.61
230.948	65.71
231.166	75.95
231.384	69.8
231.601	14.51
231.819	8.36
232.037	12.46
232.254	43.18
232.472	-10.07
232.689	-12.12
232.907	14.51
233.125	-18.26
233.342	43.18
233.56	-24.4
233.777	28.84
233.995	57.51
234.213	94.38
234.43	75.95
234.648	-34.64
234.865	-14.17
235.083	143.53
235.3	84.14
235.518	30.89
235.735	41.13
235.953	92.33
236.17	69.8
236.388	67.75
236.605	18.6
236.822	18.6
237.04	80.04
237.257	49.32
237.475	-16.21
237.692	73.9
237.909	67.75
238.127	75.95
238.344	92.33
238.562	4.27
238.779	24.75
238.996	59.56
239.214	90.28
239.431	65.71
239.648	57.51
239.865	24.75
240.083	2.22
240.3	10.41
240.517	18.6
240.735	-8.02
240.952	65.71
241.169	-3.93
241.386	28.84
241.603	51.37
241.821	39.08
242.038	102.57
242.255	100.52
242.472	49.32
242.689	71.85
242.907	39.08
243.124	51.37
243.341	112.81
243.558	20.65
243.775	26.79
243.992	59.56
244.209	84.14
244.426	47.27
244.643	30.89
244.86	2.22
245.078	14.51
245.295	65.71
245.512	49.32
245.729	8.36
245.946	-14.17
246.163	69.8
246.38	86.19
246.597	49.32
246.814	73.9
247.031	57.51
247.248	86.19
247.464	69.8
247.681	22.7
247.898	94.38
248.115	84.14
248.332	-46.93
248.549	71.85
248.766	10.41
248.983	41.13
249.2	0.17
249.417	73.9
249.633	24.75
249.85	57.51
250.067	20.65
250.284	55.47
250.501	55.47
250.717	20.65
250.934	12.46
251.151	77.99
251.368	47.27
251.585	112.81
251.801	20.65
252.018	24.75
252.235	2.22
252.451	-5.97
252.668	34.99
252.885	55.47
253.102	30.89
253.318	6.31
253.535	8.36
253.752	24.75
253.968	71.85
254.185	90.28
254.401	18.6
254.618	114.86
254.835	61.61
255.051	118.95
255.268	41.13
255.484	41.13
255.701	71.85
255.917	131.24
256.134	65.71
256.351	102.57
256.567	41.13
256.784	47.27
257	41.13
257.217	39.08
257.433	20.65
257.65	59.56
257.866	47.27
258.082	57.51
258.299	8.36
258.515	123.05
258.732	-42.84
258.948	10.41
259.165	16.55
259.381	18.6
259.597	47.27
259.814	63.66
260.03	2.22
260.246	26.79
260.463	47.27
260.679	86.19
260.895	102.57
261.112	45.23
261.328	88.23
261.544	71.85
261.761	116.9
261.977	59.56
262.193	51.37
262.409	28.84
262.626	14.51
262.842	-1.88
263.058	45.23
263.274	71.85
263.49	-40.79
263.707	0.17
263.923	114.86
264.139	18.6
264.355	34.99
264.571	161.96
264.787	37.03
265.004	49.32
265.22	45.23
265.436	28.84
265.652	2.22
265.868	12.46
266.084	2.22
266.3	43.18
266.516	159.91
266.732	20.65
266.948	59.56
267.164	39.08
267.38	6.31
267.596	143.53
267.812	51.37
268.028	96.43
268.244	39.08
268.46	63.66
268.676	2.22
268.892	82.09
269.108	28.84
269.324	12.46
269.54	22.7
269.756	73.9
269.972	67.75
270.188	37.03
270.403	61.61
270.619	8.36
270.835	100.52
271.051	67.75
271.267	63.66
271.483	61.61
271.698	2.22
271.914	2.22
272.13	151.72
272.346	-10.07
272.562	59.56
272.777	88.23
272.993	80.04
273.209	49.32
273.425	59.56
273.64	47.27
273.856	92.33
274.072	110.76
274.287	51.37
274.503	63.66
274.719	112.81
274.934	0.17
275.15	65.71
275.366	57.51
275.581	43.18
275.797	84.14
276.012	65.71
276.228	65.71
276.444	92.33
276.659	116.9
276.875	24.75
277.09	41.13
277.306	-14.17
277.521	67.75
277.737	-18.26
277.952	75.95
278.168	75.95
278.383	28.84
278.599	2.22
278.814	77.99
279.03	71.85
279.245	53.42
279.461	65.71
279.676	104.62
279.892	6.31
280.107	63.66
280.322	39.08
280.538	55.47
280.753	104.62
280.969	-8.02
281.184	129.19
281.399	80.04
281.615	51.37
281.83	84.14
282.045	55.47
282.26	65.71
282.476	151.72
282.691	45.23
282.906	24.75
283.122	73.9
283.337	47.27
283.552	90.28
283.767	14.51
283.983	49.32
284.198	30.89
284.413	57.51
284.628	2.22
284.843	90.28
285.058	12.46
285.274	82.09
285.489	45.23
285.704	-38.74
285.919	90.28
286.134	24.75
286.349	-20.31
286.564	20.65
286.779	77.99
286.995	30.89
287.21	-16.21
287.425	63.66
287.64	43.18
287.855	39.08
288.07	-22.36
288.285	73.9
288.5	94.38
288.715	41.13
288.93	10.41
289.145	102.57
289.36	71.85
289.575	121
289.79	71.85
290.004	-10.07
290.219	30.89
290.434	63.66
290.649	37.03
290.864	88.23
291.079	90.28
291.294	41.13
291.509	41.13
291.724	110.76
291.938	28.84
292.153	20.65
292.368	2.22
292.583	84.14
292.798	92.33
293.012	47.27
293.227	104.62
293.442	51.37
293.657	41.13
293.871	98.47
294.086	14.51
294.301	88.23
294.516	137.38
294.73	-1.88
294.945	45.23
295.16	16.55
295.374	108.71
295.589	12.46
295.804	-12.12
296.018	12.46
296.233	88.23
296.447	4.27
296.662	127.14
296.877	57.51
297.091	86.19
297.306	8.36
297.52	75.95
297.735	88.23
297.949	22.7
298.164	69.8
298.378	10.41
298.593	26.79
298.807	34.99
299.022	92.33
299.236	145.58
299.451	71.85
299.665	39.08
299.88	69.8
300.094	32.94
300.309	112.81
300.523	12.46
300.737	114.86
300.952	73.9
301.166	4.27
301.381	-12.12
301.595	39.08
301.809	137.38
302.024	112.81
302.238	73.9
302.452	63.66
302.667	34.99
302.881	45.23
303.095	51.37
303.309	30.89
303.524	37.03
303.738	75.95
303.952	57.51
304.166	145.58
304.381	-12.12
304.595	90.28
304.809	12.46
305.023	116.9
305.237	18.6
305.452	41.13
305.666	63.66
305.88	77.99
306.094	39.08
306.308	116.9
306.522	73.9
306.736	86.19
306.95	45.23
307.164	30.89
307.379	43.18
307.593	104.62
307.807	-14.17
308.021	125.1
308.235	82.09
308.449	55.47
308.663	86.19
308.877	108.71
309.091	51.37
309.305	47.27
309.519	51.37
309.733	41.13
309.947	28.84
310.161	84.14
310.374	106.67
310.588	172.2
310.802	-3.93
311.016	61.61
311.23	71.85
311.444	39.08
311.658	137.38
311.872	28.84
312.085	47.27
312.299	77.99
312.513	28.84
312.727	41.13
312.941	6.31
313.154	131.24
313.368	61.61
313.582	110.76
313.796	45.23
314.009	22.7
314.223	147.62
314.437	20.65
314.651	114.86
314.864	49.32
315.078	88.23
315.292	-28.5
315.505	96.43
315.719	-16.21
315.933	39.08
316.146	28.84
316.36	-3.93
316.573	106.67
316.787	63.66
317.001	94.38
317.214	84.14
317.428	10.41
317.641	57.51
317.855	73.9
318.068	49.32
318.282	82.09
318.495	16.55
318.709	57.51
318.922	112.81
319.136	84.14
319.349	77.99
319.563	90.28
319.776	88.23
319.99	55.47
320.203	86.19
320.417	106.67
320.63	139.43
320.843	180.39
321.057	77.99
321.27	47.27
321.483	75.95
321.697	43.18
321.91	71.85
322.124	94.38
322.337	77.99
322.55	71.85
322.763	61.61
322.977	110.76
323.19	127.14
323.403	39.08
323.617	82.09
323.83	127.14
324.043	32.94
324.256	51.37
324.469	71.85
324.683	94.38
324.896	57.51
325.109	45.23
325.322	45.23
325.535	86.19
325.748	71.85
325.962	37.03
326.175	61.61
326.388	88.23
326.601	145.58
326.814	96.43
327.027	71.85
327.24	59.56
327.453	-8.02
327.666	82.09
327.879	100.52
328.092	63.66
328.305	67.75
328.518	32.94
328.731	41.13
328.944	71.85
329.157	129.19
329.37	49.32
329.583	77.99
329.796	121
330.009	69.8
330.222	34.99
330.435	86.19
330.648	75.95
330.861	100.52
331.073	61.61
331.286	75.95
331.499	84.14
331.712	77.99
331.925	84.14
332.138	34.99
332.35	108.71
332.563	114.86
332.776	121
332.989	71.85
333.202	26.79
333.414	26.79
333.627	34.99
333.84	43.18
334.053	34.99
334.265	59.56
334.478	86.19
334.691	84.14
334.903	114.86
335.116	80.04
335.329	8.36
335.541	71.85
335.754	96.43
335.966	98.47
336.179	10.41
336.392	26.79
336.604	125.1
336.817	129.19
337.029	57.51
337.242	67.75
337.454	59.56
337.667	123.05
337.88	123.05
338.092	20.65
338.305	32.94
338.517	12.46
338.729	121
338.942	47.27
339.154	71.85
339.367	24.75
339.579	63.66
339.792	82.09
340.004	104.62
340.217	18.6
340.429	129.19
340.641	67.75
340.854	73.9
341.066	90.28
341.278	90.28
341.491	192.68
341.703	-3.93
341.915	16.55
342.128	118.95
342.34	69.8
342.552	88.23
342.764	106.67
342.977	94.38
343.189	108.71
343.401	102.57
343.613	37.03
343.826	43.18
344.038	16.55
344.25	16.55
344.462	100.52
344.674	49.32
344.886	108.71
345.099	108.71
345.311	106.67
345.523	100.52
345.735	102.57
345.947	59.56
346.159	-12.12
346.371	88.23
346.583	106.67
346.795	63.66
347.007	53.42
347.219	71.85
347.431	49.32
347.643	94.38
347.855	94.38
348.067	135.34
348.279	16.55
348.491	82.09
348.703	34.99
348.915	75.95
349.127	61.61
349.339	92.33
349.551	207.02
349.763	98.47
349.975	114.86
350.187	125.1
350.399	94.38
350.61	149.67
350.822	98.47
351.034	65.71
351.246	131.24
351.458	94.38
351.669	98.47
351.881	100.52
352.093	37.03
352.305	82.09
352.517	34.99
352.728	221.35
352.94	53.42
353.152	47.27
353.363	20.65
353.575	100.52
353.787	147.62
353.999	94.38
354.21	92.33
354.422	30.89
354.633	30.89
354.845	37.03
355.057	102.57
355.268	63.66
355.48	41.13
355.692	100.52
355.903	57.51
356.115	141.48
356.326	2.22
356.538	114.86
356.749	77.99
356.961	127.14
357.172	24.75
357.384	65.71
357.595	100.52
357.807	71.85
358.018	80.04
358.23	118.95
358.441	88.23
358.653	80.04
358.864	106.67
359.075	125.1
359.287	63.66
359.498	94.38
359.709	59.56
359.921	45.23
360.132	67.75
360.344	73.9
360.555	125.1
360.766	45.23
360.977	102.57
361.189	49.32
361.4	92.33
361.611	94.38
361.823	116.9
362.034	96.43
362.245	90.28
362.456	84.14
362.667	86.19
362.879	77.99
363.09	84.14
363.301	133.29
363.512	127.14
363.723	84.14
363.935	41.13
364.146	168.1
364.357	84.14
364.568	121
364.779	28.84
364.99	92.33
365.201	129.19
365.412	77.99
365.623	63.66
365.834	71.85
366.045	82.09
366.256	149.67
366.467	157.86
366.678	102.57
366.889	104.62
367.1	104.62
367.311	104.62
367.522	96.43
367.733	94.38
367.944	104.62
368.155	14.51
368.366	143.53
368.577	125.1
368.788	159.91
368.999	53.42
369.209	118.95
369.42	100.52
369.631	147.62
369.842	96.43
370.053	61.61
370.264	178.34
370.474	98.47
370.685	53.42
370.896	96.43
371.107	59.56
371.317	41.13
371.528	55.47
371.739	98.47
371.95	108.71
372.16	125.1
372.371	34.99
372.582	131.24
372.792	77.99
373.003	90.28
373.214	127.14
373.424	24.75
373.635	135.34
373.846	110.76
374.056	77.99
374.267	139.43
374.477	137.38
374.688	43.18
374.898	24.75
375.109	100.52
375.319	67.75
375.53	116.9
375.74	67.75
375.951	108.71
376.161	145.58
376.372	98.47
376.582	127.14
376.793	71.85
377.003	102.57
377.214	67.75
377.424	133.29
377.635	71.85
377.845	153.77
378.055	153.77
378.266	90.28
378.476	104.62
378.686	57.51
378.897	86.19
379.107	67.75
379.317	155.82
379.528	30.89
379.738	100.52
379.948	30.89
380.158	151.72
380.369	86.19
380.579	159.91
380.789	168.1
380.999	108.71
381.21	94.38
381.42	172.2
381.63	61.61
381.84	45.23
382.05	161.96
382.261	149.67
382.471	135.34
382.681	96.43
382.891	63.66
383.101	125.1
383.311	82.09
383.521	98.47
383.731	88.23
383.941	108.71
384.151	114.86
384.361	77.99
384.571	174.25
384.781	96.43
384.991	61.61
385.201	84.14
385.411	149.67
385.621	118.95
385.831	104.62
386.041	159.91
386.251	125.1
386.461	123.05
386.671	112.81
386.881	96.43
387.091	127.14
387.301	98.47
387.511	82.09
387.72	98.47
387.93	94.38
388.14	133.29
388.35	131.24
388.56	153.77
388.769	118.95
388.979	164.01
389.189	63.66
389.399	133.29
389.609	98.47
389.818	196.78
390.028	96.43
390.238	84.14
390.447	88.23
390.657	114.86
390.867	114.86
391.076	166.06
391.286	211.11
391.496	129.19
391.705	139.43
391.915	135.34
392.125	178.34
392.334	153.77
392.544	198.82
392.753	151.72
392.963	28.84
393.172	170.15
393.382	202.92
393.591	241.83
393.801	55.47
394.01	204.97
394.22	227.5
394.429	100.52
394.639	202.92
394.848	178.34
395.058	190.63
395.267	139.43
395.477	131.24
395.686	149.67
395.895	237.74
396.105	243.88
396.314	172.2
396.524	241.83
396.733	141.48
396.942	250.02
397.152	245.93
397.361	180.39
397.57	174.25
397.78	166.06
397.989	211.11
398.198	194.73
398.407	207.02
398.617	256.17
398.826	186.54
399.035	200.87
399.244	174.25
399.453	225.45
399.663	270.5
399.872	223.4
400.081	219.3
400.29	319.65
400.499	192.68
400.708	315.56
400.917	262.31
401.127	176.3
401.336	260.26
401.545	221.35
401.754	209.06
401.963	231.59
402.172	231.59
402.381	172.2
402.59	211.11
402.799	284.84
403.008	260.26
403.217	301.22
403.426	280.74
403.635	258.21
403.844	276.65
404.053	340.13
404.262	237.74
404.471	290.98
404.68	213.16
404.888	290.98
405.097	342.18
405.306	387.24
405.515	368.81
405.724	370.85
405.933	323.75
406.142	333.99
406.35	405.67
406.559	409.76
406.768	501.92
406.977	366.76
407.185	356.52
407.394	452.77
407.603	481.44
407.812	446.63
408.02	549.03
408.229	512.16
408.438	592.03
408.646	479.4
408.855	561.31
409.064	661.66
409.272	493.73
409.481	657.57
409.69	575.65
409.898	510.11
410.107	805.02
410.315	692.38
410.524	749.73
410.733	764.06
410.941	790.69
411.15	749.73
411.358	893.09
411.567	874.65
411.775	872.61
411.984	891.04
412.192	1036.44
412.401	893.09
412.609	1085.59
412.818	1099.93
413.026	1104.03
413.234	1173.66
413.443	1190.04
413.651	1267.86
413.86	1274.01
414.068	1261.72
414.276	1417.37
414.485	1446.04
414.693	1329.3
414.901	1503.38
415.11	1534.1
415.318	1577.11
415.526	1646.74
415.734	1663.12
415.943	1702.03
416.151	1847.44
416.359	1843.34
416.567	1900.69
416.776	2037.9
416.984	2099.34
417.192	2226.31
417.4	2109.58
417.608	2138.25
417.817	2388.1
418.025	2398.34
418.233	2551.94
418.441	2627.71
418.649	2740.35
418.857	2830.46
419.065	2979.97
419.273	2959.49
419.481	2988.16
419.689	3360.89
419.897	3520.63
420.105	3428.47
420.313	3440.76
420.521	3575.92
420.729	3598.45
420.937	3901.55
421.145	3967.09
421.353	4130.92
421.561	4333.67
421.769	4550.76
421.977	4667.49
422.185	4606.05
422.393	4890.72
422.601	5226.59
422.809	5234.78
423.017	5189.72
423.224	5396.57
423.432	5521.49
423.64	5630.04
423.848	6203.47
424.056	6076.49
424.263	6494.28
424.471	6408.26
424.679	6883.39
424.887	6795.33
425.094	7045.18
425.302	7229.5
425.51	7405.63
425.718	7643.19
425.925	7841.84
426.133	8163.37
426.341	8462.38
426.548	8939.55
426.756	9011.23
426.964	9103.39
427.171	9621.53
427.379	9895.96
427.586	9758.74
427.794	10577.93
428.001	10676.23
428.209	11302.91
428.417	10938.37
428.624	11948.02
428.832	11974.64
429.039	11792.37
429.247	11692.02
429.454	12894.18
429.662	13660.12
429.869	12937.19
430.076	13731.8
430.284	13322.21
430.491	13903.83
430.699	14596.04
430.906	14782.41
431.114	14739.4
431.321	15720.38
431.528	16041.91
431.736	16762.79
431.943	17487.78
432.15	17405.86
432.358	17170.34
432.565	18597.77
432.772	18098.07
432.979	19197.83
433.187	19439.49
433.394	19445.63
433.601	20987.75
433.808	20934.51
434.016	20936.56
434.223	21636.96
434.43	23074.63
434.637	22785.87
434.844	23684.93
435.052	24567.6
435.259	24665.91
435.466	24809.26
435.673	24213.31
435.88	25603.88
436.087	27379.46
436.294	27469.58
436.501	26730.26
436.708	26976.02
436.915	28020.48
437.122	29413.1
437.329	28960.5
437.537	30086.88
437.743	30879.44
437.95	30389.98
438.157	31868.61
438.364	33074.87
438.571	32892.6
438.778	32929.46
438.985	36204.16
439.192	34819.74
439.399	35884.68
439.606	35251.86
439.813	37068.41
440.02	39323.22
440.227	38614.62
440.433	38215.27
440.64	39317.07
440.847	39435.86
441.054	40203.85
441.261	42706.46
441.467	42219.05
441.674	43544.08
441.881	44891.65
442.088	44869.12
442.294	44322.31
442.501	45184.51
442.708	46069.23
442.914	47795.67
443.121	49399.22
443.328	48668.1
443.534	51611.03
443.741	50312.62
443.948	49958.32
444.154	53093.76
444.361	53079.42
444.568	52964.74
444.774	53271.93
444.981	53697.91
445.187	55061.86
445.394	57226.56
445.6	56827.21
445.807	61656.32
446.013	59215.14
446.22	59933.98
446.426	62565.62
446.633	62622.96
446.839	64085.21
447.046	61809.92
447.252	64085.21
447.459	64085.21
447.665	64085.21
447.871	64085.21
448.078	64085.21
448.284	64085.21
448.491	64085.21
448.697	64085.21
448.903	64085.21
449.11	64085.21
449.316	64085.21
449.522	64085.21
449.728	64085.21
449.935	64085.21
450.141	64085.21
450.347	64085.21
450.553	64085.21
450.76	64085.21
450.966	64085.21
451.172	64085.21
451.378	64085.21
451.584	64085.21
451.791	64085.21
451.997	64085.21
452.203	64085.21
452.409	64085.21
452.615	64085.21
452.821	64085.21
453.027	64085.21
453.233	64085.21
453.44	64085.21
453.646	64085.21
453.852	64085.21
454.058	64085.21
454.264	64085.21
454.47	64085.21
454.676	64085.21
454.882	64085.21
455.088	64085.21
455.294	64085.21
455.5	64085.21
455.705	64085.21
455.911	64085.21
456.117	64085.21
456.323	64085.21
456.529	64085.21
456.735	64085.21
456.941	64085.21
457.147	64085.21
457.352	64085.21
457.558	64085.21
457.764	64085.21
457.97	64085.21
458.176	64085.21
458.381	62129.4
458.587	59276.58
458.793	58996.01
458.999	56663.37
459.204	59946.26
459.41	58654
459.616	54998.37
459.821	54998.37
460.027	54945.12
460.233	53538.17
460.438	51152.29
460.644	52256.14
460.85	49753.52
461.055	48743.87
461.261	48410.06
461.466	45211.13
461.672	43968.01
461.878	46996.96
462.083	44154.38
462.289	43357.72
462.494	42624.54
462.7	40750.65
462.905	40076.87
463.111	41057.85
463.316	41197.11
463.522	40326.72
463.727	40717.89
463.932	40455.75
464.138	39859.79
464.343	40269.38
464.549	38987.35
464.754	40246.85
464.959	39736.91
465.165	39431.76
465.37	37676.65
465.575	37082.74
465.781	38350.43
465.986	38653.53
466.191	37279.35
466.397	36791.93
466.602	34481.82
466.807	36064.9
467.012	36392.58
467.218	36091.52
467.423	35319.44
467.628	35575.44
467.833	36791.93
468.038	35888.78
468.244	35063.44
468.449	36451.97
468.654	34815.64
468.859	34811.54
469.064	34610.84
469.269	32951.99
469.474	33820.33
469.679	34086.56
469.885	32566.97
470.09	33298.09
470.295	33277.61
470.5	32622.26
470.705	33003.19
470.91	31889.09
471.115	31545.03
471.32	32419.52
471.525	31866.56
471.73	31209.17
471.935	31250.13
472.139	30072.54
472.344	30502.62
472.549	30293.72
472.754	30004.96
472.959	29404.91
473.164	28905.2
473.369	28301.05
473.574	29267.69
473.778	29073.14
473.983	28632.82
474.188	28761.84
474.393	27418.38
474.598	27586.31
474.802	27123.47
475.007	26943.25
475.212	26900.24
475.417	26242.84
475.621	26083.1
475.826	26291.99
476.031	25493.29
476.235	24948.53
476.44	25509.67
476.645	24762.16
476.849	25143.08
477.054	24497.97
477.259	24407.86
477.463	24414.01
477.668	23635.78
477.872	23834.43
478.077	23551.81
478.282	23064.39
478.486	23183.18
478.691	22888.27
478.895	22751.06
479.1	22372.18
479.304	22478.68
479.509	21987.16
479.713	22198.1
479.918	21765.98
480.122	21526.37
480.326	22071.13
480.531	21929.82
480.735	21716.83
480.94	21528.42
481.144	22050.65
481.348	20877.16
481.553	21378.92
481.757	20961.13
481.961	21206.89
482.166	21626.72
482.37	21051.24
482.574	21026.67
482.778	20692.85
482.983	21063.53
483.187	20760.43
483.391	20987.75
483.595	20799.34
483.8	20297.59
484.004	20785.01
484.208	21188.46
484.412	20807.53
484.616	20948.84
484.821	20780.91
485.025	20856.68
485.229	21061.48
485.433	20604.78
485.637	20651.89
485.841	20508.53
486.045	20754.29
486.249	20828.01
486.453	20526.96
486.657	20537.2
486.861	20832.11
487.065	20438.9
487.269	20688.75
487.473	20178.81
487.677	20600.69
487.881	20791.15
488.085	20541.3
488.289	20658.03
488.493	20721.52
488.697	20846.44
488.901	20709.23
489.105	20727.66
489.309	20899.69
489.512	20742
489.716	21090.15
489.92	20684.66
490.124	20971.37
490.328	21266.28
490.531	21167.98
490.735	21102.44
490.939	21481.31
491.143	21192.55
491.346	21364.58
491.55	21550.95
491.754	21327.72
491.958	21602.15
492.161	21446.5
492.365	21600.1
492.569	21581.67
492.772	21403.49
492.976	21966.68
493.18	22153.05
493.383	22353.75
493.587	22318.93
493.79	22591.31
493.994	22251.35
494.197	22759.25
494.401	22884.17
494.605	22810.45
494.808	22865.74
495.012	22992.72
495.215	23285.58
495.419	23736.13
495.622	23547.72
495.825	23582.53
496.029	23910.21
496.232	24358.71
496.436	24217.4
496.639	24858.42
496.843	24833.84
497.046	25493.29
497.249	25732.9
497.453	25476.9
497.656	25874.21
497.859	25769.76
498.063	26218.27
498.266	26851.09
498.469	26578.71
498.673	26910.48
498.876	27328.27
499.079	27373.32
499.282	27338.51
499.485	28002.05
499.689	28245.76
499.892	28266.24
500.095	28962.54
500.298	29409
500.501	29445.87
500.705	29804.26
500.908	30574.3
501.111	30531.29
501.314	30523.1
501.517	30770.9
501.72	31295.18
501.923	31368.91
502.126	31878.85
502.329	32575.16
502.532	32808.63
502.735	32800.44
502.938	33318.57
503.141	33679.02
503.344	34023.08
503.547	34113.19
503.75	34897.56
503.953	35253.9
504.156	35149.46
504.359	35759.75
504.562	35776.14
504.765	36492.93
504.968	36767.35
505.17	37265.01
505.373	37490.29
505.576	37957.22
505.779	38299.23
505.982	38469.22
506.185	39229.01
506.387	39306.83
506.59	39368.27
506.793	40158.79
506.996	40197.7
507.198	41608.75
507.401	40812.09
507.604	41664.05
507.807	42436.13
508.009	42651.17
508.212	42577.44
508.415	43427.35
508.617	43466.26
508.82	43865.61
509.022	43865.61
509.225	44602.88
509.428	45231.61
509.63	45174.27
509.833	45964.78
510.035	46601.7
510.238	46689.76
510.44	47650.26
510.643	47627.73
510.845	47961.55
511.048	47586.77
511.25	48541.13
511.453	49061.31
511.655	50490.79
511.858	49458.62
512.06	50179.5
512.262	50720.16
512.465	50445.74
512.667	50861.47
512.87	51686.81
513.072	51944.85
513.274	53081.47
513.477	52845.96
513.679	53419.39
513.881	54134.13
514.084	54547.82
514.286	54146.42
514.488	55160.16
514.69	56218.96
514.893	56120.66
515.095	56364.37
515.297	56839.5
515.499	57040.2
515.701	57384.26
515.904	58178.87
516.106	58178.87
516.308	59039.01
516.51	59460.9
516.712	59587.87
516.914	60054.81
517.116	60845.32
517.318	60425.49
517.52	61365.51
517.722	61418.75
517.925	61754.62
518.127	62459.12
518.329	62700.78
518.531	62336.24
518.733	63587.55
518.935	63376.61
519.136	63923.42
519.338	64085.21
519.54	64085.21
519.742	64085.21
519.944	64085.21
520.146	64085.21
520.348	64085.21
520.55	64085.21
520.752	64085.21
520.954	64085.21
521.155	64085.21
521.357	64085.21
521.559	64085.21
521.761	64085.21
521.963	64085.21
522.164	64085.21
522.366	64085.21
522.568	64085.21
522.77	64085.21
522.971	64085.21
523.173	64085.21
523.375	64085.21
523.576	64085.21
523.778	64085.21
523.98	64085.21
524.181	64085.21
524.383	64085.21
524.584	64085.21
524.786	64085.21
524.988	64085.21
525.189	64085.21
525.391	64085.21
525.592	64085.21
525.794	64085.21
525.995	64085.21
526.197	64085.21
526.398	64085.21
526.6	64085.21
526.801	64085.21
527.003	64085.21
527.204	64085.21
527.406	64085.21
527.607	64085.21
527.808	64085.21
528.01	64085.21
528.211	64085.21
528.412	64085.21
528.614	64085.21
528.815	64085.21
529.016	64085.21
529.218	64085.21
529.419	64085.21
529.62	64085.21
529.822	64085.21
530.023	64085.21
530.224	64085.21
530.425	64085.21
530.626	64085.21
530.828	64085.21
531.029	64085.21
531.23	64085.21
531.431	64085.21
531.632	64085.21
531.833	64085.21
532.035	64085.21
532.236	64085.21
532.437	64085.21
532.638	64085.21
532.839	64085.21
533.04	64085.21
533.241	64085.21
533.442	64085.21
533.643	64085.21
533.844	64085.21
534.045	64085.21
534.246	64085.21
534.447	64085.21
534.648	64085.21
534.849	64085.21
535.05	64085.21
535.251	64085.21
535.451	64085.21
535.652	64085.21
535.853	64085.21
536.054	64085.21
536.255	64085.21
536.456	64085.21
536.657	64085.21
536.857	64085.21
537.058	64085.21
537.259	64085.21
537.46	64085.21
537.66	64085.21
537.861	64085.21
538.062	64085.21
538.263	64085.21
538.463	64085.21
538.664	64085.21
538.865	64085.21
539.065	64085.21
539.266	64085.21
539.466	64085.21
539.667	64085.21
539.868	64085.21
540.068	64085.21
540.269	64085.21
540.469	64085.21
540.67	64085.21
540.87	64085.21
541.071	64085.21
541.271	64085.21
541.472	64085.21
541.672	64085.21
541.873	64085.21
542.073	64085.21
542.274	64085.21
542.474	64085.21
542.675	64085.21
542.875	64085.21
543.075	64085.21
543.276	64085.21
543.476	64085.21
543.676	64085.21
543.877	64085.21
544.077	64085.21
544.277	64085.21
544.478	64085.21
544.678	64085.21
544.878	64085.21
545.078	64085.21
545.279	64085.21
545.479	64085.21
545.679	64085.21
545.879	64085.21
546.079	64085.21
546.28	64085.21
546.48	64085.21
546.68	64085.21
546.88	64085.21
547.08	64085.21
547.28	64085.21
547.48	64085.21
547.68	64085.21
547.88	64085.21
548.081	64085.21
548.281	64085.21
548.481	64085.21
548.681	64085.21
548.881	64085.21
549.081	64085.21
549.28	64085.21
549.48	64085.21
549.68	64085.21
549.88	64085.21
550.08	64085.21
550.28	64085.21
550.48	64085.21
550.68	64085.21
550.88	64085.21
551.08	64085.21
551.279	64085.21
551.479	64085.21
551.679	64085.21
551.879	64085.21
552.079	64085.21
552.278	64085.21
552.478	64085.21
552.678	64085.21
552.878	64085.21
553.077	64085.21
553.277	64085.21
553.477	64085.21
553.676	64085.21
553.876	64085.21
554.076	64085.21
554.275	64085.21
554.475	64085.21
554.674	64085.21
554.874	64085.21
555.074	64085.21
555.273	64085.21
555.473	64085.21
555.672	64085.21
555.872	64085.21
556.071	64085.21
556.271	64085.21
556.47	64085.21
556.67	64085.21
556.869	64085.21
557.068	64085.21
557.268	64085.21
557.467	64085.21
557.667	64085.21
557.866	64085.21
558.065	64085.21
558.265	64085.21
558.464	64085.21
558.663	64085.21
558.863	64085.21
559.062	64085.21
559.261	64085.21
559.461	64085.21
559.66	64085.21
559.859	64085.21
560.058	64085.21
560.258	64085.21
560.457	64085.21
560.656	64085.21
560.855	64085.21
561.054	64085.21
561.253	64085.21
561.453	64085.21
561.652	64085.21
561.851	64085.21
562.05	64085.21
562.249	64085.21
562.448	64085.21
562.647	64085.21
562.846	64085.21
563.045	64085.21
563.244	64085.21
563.443	64085.21
563.642	64085.21
563.841	64085.21
564.04	64085.21
564.239	64085.21
564.438	64085.21
564.637	64085.21
564.836	64085.21
565.035	64085.21
565.234	64085.21
565.432	64085.21
565.631	64085.21
565.83	64085.21
566.029	64085.21
566.228	64085.21
566.427	64085.21
566.625	64085.21
566.824	64085.21
567.023	64085.21
567.222	64085.21
567.42	64085.21
567.619	64085.21
567.818	64085.21
568.016	64085.21
568.215	64085.21
568.414	64085.21
568.612	64085.21
568.811	64085.21
569.01	64085.21
569.208	64085.21
569.407	64085.21
569.605	64085.21
569.804	64085.21
570.002	64085.21
570.201	64085.21
570.4	64085.21
570.598	64085.21
570.797	64085.21
570.995	64085.21
571.193	64085.21
571.392	64085.21
571.59	64085.21
571.789	64085.21
571.987	64085.21
572.186	64085.21
572.384	64085.21
572.582	64085.21
572.781	64085.21
572.979	64085.21
573.177	64085.21
573.376	64085.21
573.574	64085.21
573.772	64085.21
573.971	64085.21
574.169	64085.21
574.367	64085.21
574.565	64085.21
574.763	64085.21
574.962	64085.21
575.16	64085.21
575.358	64085.21
575.556	64085.21
575.754	64085.21
575.952	64085.21
576.151	64085.21
576.349	64085.21
576.547	64085.21
576.745	64085.21
576.943	64085.21
577.141	64085.21
577.339	64085.21
577.537	64085.21
577.735	64085.21
577.933	64085.21
578.131	64085.21
578.329	64085.21
578.527	64085.21
578.725	64085.21
578.923	64085.21
579.121	64085.21
579.319	64085.21
579.516	64085.21
579.714	64085.21
579.912	64085.21
580.11	64085.21
580.308	64085.21
580.506	64085.21
580.704	63724.77
580.901	64085.21
581.099	63933.66
581.297	63528.16
581.495	63694.05
581.692	63692
581.89	63233.25
582.088	63634.66
582.285	63204.58
582.483	63208.68
582.681	63173.86
582.878	63073.51
583.076	62407.92
583.274	63134.95
583.471	62164.21
583.669	62532.85
583.866	61832.44
584.064	62647.53
584.262	61740.28
584.459	62362.87
584.657	61650.17
584.854	62051.58
585.052	60689.68
585.249	61754.62
585.447	61197.57
585.644	60910.86
585.841	60804.36
586.039	61525.25
586.236	60765.45
586.434	60364.05
586.631	59878.68
586.828	60069.14
587.026	60087.57
587.223	60032.28
587.42	59821.34
587.618	60112.15
587.815	59264.29
588.012	59260.19
588.21	59397.41
588.407	59983.13
588.604	58944.81
588.801	58170.68
588.999	58871.08
589.196	58692.91
589.393	58791.21
589.59	58391.86
589.787	58232.11
589.984	58342.7
590.182	57474.37
590.379	58094.9
590.576	57761.08
590.773	57892.15
590.97	57056.58
591.167	57613.63
591.364	56622.41
591.561	56993.09
591.758	56417.61
591.955	56909.13
592.152	56993.09
592.349	56356.17
592.546	56517.96
592.743	56335.7
592.94	55797.08
593.137	55930.2
593.334	55856.47
593.531	55106.91
593.727	55647.58
593.924	55569.75
594.121	54965.6
594.318	55573.85
594.515	54746.47
594.712	54914.4
594.908	54515.05
595.105	55088.48
595.302	53630.33
595.499	54250.86
595.696	54127.98
595.892	53216.64
596.089	53972.34
596.286	53888.37
596.482	53007.75
596.679	53218.69
596.876	53628.28
597.072	53138.82
597.269	53175.68
597.466	52430.22
597.662	52686.21
597.859	52282.76
598.055	52743.56
598.252	52293
598.448	52462.99
598.645	52350.35
598.841	51340.7
599.038	51688.85
599.234	51557.78
599.431	51174.81
599.627	50945.44
599.824	51522.97
600.02	51076.51
600.217	50673.06
600.413	50312.62
600.609	50873.76
600.806	50126.25
601.002	50781.6
601.198	50152.88
601.395	49761.72
601.591	49667.51
601.787	49794.48
601.984	49589.69
602.18	50245.04
602.376	49315.26
602.572	49182.14
602.769	49200.57
602.965	49042.88
603.161	48496.07
603.357	48678.34
603.553	48676.29
603.75	48416.2
603.946	48027.09
604.142	48147.92
604.338	47603.16
604.534	47971.79
604.73	47431.13
604.926	47330.78
605.122	48147.92
605.318	47144.41
605.514	47363.54
605.71	46575.08
605.906	46566.88
606.102	46765.54
606.298	46994.91
606.494	46444.01
606.69	46613.99
606.886	46407.14
607.082	45901.29
607.278	46579.17
607.474	45669.87
607.67	46536.16
607.866	45723.12
608.062	46075.37
608.257	45485.56
608.453	45684.21
608.649	45897.2
608.845	45321.72
609.041	45600.24
609.236	45465.08
609.432	45463.03
609.628	45250.04
609.824	45151.74
610.019	44699.14
610.215	44940.8
610.411	45010.43
610.606	44535.3
610.802	44938.75
610.998	44467.72
611.193	44596.74
611.389	44305.93
611.584	44205.58
611.78	43849.23
611.976	44129.8
612.171	44164.62
612.367	44031.5
612.562	44027.4
612.758	43036.19
612.953	43687.44
613.149	44039.69
613.344	43283.99
613.539	43834.89
613.735	43488.79
613.93	43257.37
614.126	43302.42
614.321	43845.13
614.517	43351.57
614.712	43015.71
614.907	43300.37
615.103	43361.81
615.298	42952.22
615.493	43281.94
615.688	42548.77
615.884	43537.94
616.079	42049.07
616.274	42450.47
616.47	42042.92
616.665	42690.08
616.86	42540.58
617.055	42268.2
617.25	42032.68
617.445	42690.08
617.641	41201.21
617.836	42423.84
618.031	41377.33
618.226	41858.6
618.421	41365.04
618.616	42180.14
618.811	41289.27
619.006	41678.38
619.201	40590.91
619.396	41182.77
619.591	39775.82
619.786	40916.54
619.981	39915.08
620.176	40859.2
620.371	39876.17
620.566	40265.28
620.761	39892.55
620.956	40093.25
621.151	39130.71
621.346	39552.59
621.541	38846.04
621.735	39194.2
621.93	38680.16
622.125	38821.47
622.32	38041.19
622.515	38850.14
622.709	38002.28
622.904	38323.81
623.099	37949.03
623.294	37957.22
623.488	37084.79
623.683	37365.36
623.878	36535.93
624.072	36990.58
624.267	36433.53
624.462	36181.63
624.656	36085.38
624.851	35907.21
625.046	35745.42
625.24	35868.3
625.435	35481.23
625.629	35364.5
625.824	34731.67
626.018	34963.09
626.213	34309.79
626.407	34657.95
626.602	34209.44
626.796	34434.72
626.991	34141.86
627.185	33789.61
627.38	33664.68
627.574	33578.67
627.768	33007.28
627.963	33126.07
628.157	32466.62
628.352	32763.57
628.546	32597.69
628.74	32698.04
628.935	31960.77
629.129	32274.11
629.323	31731.4
629.517	31901.38
629.712	31694.54
629.906	31567.56
630.1	30865.11
630.294	31020.75
630.489	30715.61
630.683	30875.35
630.877	30674.65
631.071	30297.82
631.265	30179.04
631.459	30082.78
631.653	29894.37
631.848	29955.81
632.042	29923.04
632.236	29705.96
632.43	29351.66
632.624	29173.49
632.818	29126.38
633.012	28716.79
633.206	28970.74
633.4	28778.23
633.594	28532.47
633.788	28561.14
633.982	28235.52
634.176	28141.31
634.369	27744
634.563	27797.25
634.757	27754.24
634.951	27617.03
635.145	27459.34
635.339	27604.74
635.533	26996.49
635.726	26775.31
635.92	26453.78
636.114	26914.58
636.308	26545.94
636.501	26572.57
636.695	26367.77
636.889	26165.02
637.083	26005.28
637.276	25806.62
637.47	25743.14
637.664	25407.27
637.857	25880.35
638.051	25360.17
638.244	25098.03
638.438	25263.91
638.632	25378.6
638.825	24895.28
639.019	24772.4
639.212	24489.78
639.406	24401.72
639.599	24493.88
639.793	24319.8
639.986	23910.21
640.18	24055.61
640.373	23910.21
640.567	23736.13
640.76	23793.47
640.954	23408.45
641.147	23236.42
641.34	23209.8
641.534	23310.15
641.727	23205.7
641.92	23123.79
642.114	22734.67
642.307	22828.88
642.5	22509.4
642.694	22056.79
642.887	22325.08
643.08	22662.99
643.273	22003.55
643.467	22249.3
643.66	21827.42
643.853	22024.03
644.046	21526.37
644.239	21675.87
644.432	21446.5
644.626	21278.57
644.819	21305.19
645.012	20997.99
645.205	21335.91
645.398	20875.12
645.591	20664.18
645.784	20684.66
645.977	20445.04
646.17	20782.96
646.363	20451.19
646.556	20025.21
646.749	20277.11
646.942	20385.65
647.135	19933.05
647.328	19857.28
647.521	19552.13
647.714	19564.42
647.907	19443.59
648.099	19433.35
648.292	19525.5
648.485	19298.18
648.678	19138.44
648.871	19394.43
649.064	18995.08
649.256	18741.13
649.449	18724.75
649.642	18610.06
649.835	18556.82
650.027	18462.61
650.22	18098.07
650.413	18341.78
650.605	18386.83
650.798	18294.68
650.991	17926.04
651.183	18024.34
651.376	17602.46
651.568	17780.64
651.761	17612.7
651.954	17594.27
652.146	17493.92
652.339	17489.82
652.531	17457.06
652.724	17428.38
652.916	17061.8
653.109	17084.33
653.301	16893.86
653.494	16779.18
653.686	16713.64
653.879	16940.97
654.071	16420.78
654.263	16457.65
654.456	16560.05
654.648	16310.19
654.84	15757.24
655.033	16293.81
655.225	15884.22
655.417	15921.08
655.61	15863.74
655.802	16066.49
655.994	15441.86
656.186	15790.01
656.379	15458.24
656.571	15374.27
656.763	15177.67
656.955	15413.18
657.148	15271.87
657.34	15333.31
657.532	14741.45
657.724	15067.08
657.916	15095.75
658.108	14731.21
658.3	14481.36
658.492	14589.9
658.684	14348.24
658.876	14350.29
659.068	14352.34
659.26	14426.06
659.452	14542.8
659.644	14483.41
659.836	13854.68
660.028	14063.57
660.22	13707.23
660.412	14049.24
660.604	13664.22
660.796	13715.42
660.988	13772.76
661.18	13778.9
661.372	13416.41
661.563	13631.45
661.755	13430.75
661.947	13658.07
662.139	13473.76
662.331	13113.31
662.522	13121.51
662.714	12929
662.906	13096.93
663.097	12912.61
663.289	12726.25
663.481	12752.87
663.673	12716.01
663.864	12578.79
664.056	12371.95
664.247	12564.46
664.439	12163.06
664.631	12398.57
664.822	12374
665.014	12148.72
665.205	12222.45
665.397	12070.9
665.588	11952.12
665.78	11876.34
665.971	11919.35
666.163	11831.29
666.354	11835.38
666.546	11945.97
666.737	11485.18
666.929	11636.73
667.12	11782.13
667.311	11519.99
667.503	11335.68
667.694	11454.46
667.885	11429.88
668.077	11347.97
668.268	11266.05
668.459	11153.41
668.651	11055.11
668.842	11038.72
669.033	10858.5
669.224	10827.78
669.416	11022.34
669.607	10709
669.798	10706.95
669.989	10885.12
670.18	10754.05
670.371	10571.79
670.563	10672.14
670.754	10520.59
670.945	10334.22
671.136	10379.28
671.327	10323.98
671.518	10299.41
671.709	10305.55
671.9	10280.97
672.091	9965.59
672.282	10010.64
672.473	10020.88
672.664	10055.7
672.855	9930.77
673.046	9961.49
673.237	9828.37
673.428	9734.17
673.619	9787.41
673.809	9680.92
674	9543.71
674.191	9547.8
674.382	9711.64
674.573	9705.49
674.764	9261.09
674.954	9377.82
675.145	9414.68
675.336	9377.82
675.527	9244.7
675.717	9383.96
675.908	9263.13
676.099	9379.87
676.289	8966.18
676.48	8980.51
676.671	8867.88
676.861	9119.78
677.052	8820.77
677.243	8720.42
677.433	8826.92
677.624	9021.47
677.814	8849.44
678.005	8753.19
678.195	8710.18
678.386	8814.63
678.576	8443.95
678.767	8613.93
678.957	8669.22
679.148	8544.3
679.338	8472.62
679.529	8374.31
679.719	8259.63
679.909	8441.9
680.1	8366.12
680.29	8462.38
680.481	8329.26
680.671	8284.2
680.861	8159.28
681.052	8282.16
681.242	8280.11
681.432	8181.81
681.622	8032.3
681.813	8091.7
682.003	7995.44
682.193	7981.1
682.383	8040.5
682.573	7520.31
682.764	8032.3
682.954	7843.89
683.144	7778.36
683.334	7878.71
683.524	7446.59
683.714	7866.42
683.904	7612.47
684.094	7745.59
684.284	7594.04
684.474	7702.58
684.664	7594.04
684.854	7555.13
685.044	7379
685.234	7274.56
685.424	7456.82
685.614	7424.06
685.804	7209.02
685.994	7217.21
686.184	7407.67
686.374	7288.89
686.564	7114.81
686.753	7030.85
686.943	7145.53
687.133	7075.9
687.323	7096.38
687.513	7153.73
687.702	6905.92
687.892	7063.61
688.082	6811.71
688.272	6824
688.461	6752.32
688.651	6807.62
688.841	6645.83
689.03	6803.52
689.22	6770.76
689.41	6717.51
689.599	6699.08
689.789	6561.86
689.979	6617.16
690.168	6330.44
690.358	6498.38
690.547	6363.21
690.737	6207.56
690.926	6463.56
691.116	6207.56
691.305	6381.64
691.495	6217.8
691.684	6221.9
691.874	6045.77
692.063	6137.93
692.252	6111.31
692.442	6099.02
692.631	5855.31
692.82	5916.75
693.01	5972.05
693.199	5836.88
693.388	5697.62
693.578	5879.89
693.767	5883.98
693.956	5970
694.146	5810.26
694.335	5621.84
694.524	5587.03
694.713	5613.65
694.902	5582.93
695.092	5757.01
695.281	5554.26
695.47	5517.4
695.659	5556.31
695.848	5673.04
696.037	5611.61
696.226	5533.78
696.415	5408.86
696.604	5484.63
696.793	5341.27
696.982	5371.99
697.171	5458.01
697.36	5318.75
697.549	5240.92
697.738	5294.17
697.927	5234.78
698.116	5144.67
698.305	5136.48
698.494	5265.5
698.683	4972.64
698.872	5232.73
699.061	5163.1
699.25	5163.1
699.438	5136.48
699.627	5163.1
699.816	5011.55
700.005	4939.87
700.193	4900.96
700.382	5058.65
700.571	4937.82
700.76	4819.04
700.948	5021.79
701.137	4888.67
701.326	4900.96
701.514	4790.37
701.703	4790.37
701.892	4780.13
702.08	4634.72
702.269	4718.69
702.457	4798.56
702.646	4735.07
702.834	4778.08
703.023	4751.46
703.212	4714.59
703.4	4644.96
703.589	4479.08
703.777	4632.68
703.965	4544.61
704.154	4538.47
704.342	4427.88
704.531	4583.52
704.719	4444.26
704.907	4712.55
705.096	4452.45
705.284	4444.26
705.472	4468.84
705.661	4479.08
705.849	4487.27
706.037	4388.97
706.226	4397.16
706.414	4491.37
706.602	4239.47
706.79	4276.33
706.979	4309.1
707.167	4253.8
707.355	4436.07
707.543	4374.63
707.731	4241.51
707.919	4348.01
708.107	4272.23
708.296	4327.53
708.484	4130.92
708.672	4137.07
708.86	4112.49
709.048	4096.11
709.236	4096.11
709.424	4221.03
709.612	4108.4
709.8	4067.44
709.988	4204.65
710.176	4022.38
710.364	4110.44
710.551	4114.54
710.739	4143.21
710.927	4024.43
711.115	3928.17
711.303	4020.33
711.491	3977.33
711.679	3897.46
711.866	3981.42
712.054	3944.56
712.242	3893.36
712.43	3942.51
712.617	4028.53
712.805	3874.93
712.993	3823.73
713.181	3881.07
713.368	3971.18
713.556	3960.94
713.744	3862.64
713.931	4120.68
714.119	3823.73
714.306	3838.06
714.494	3750
714.682	3825.78
714.869	3713.14
715.057	3870.83
715.244	3612.79
715.432	3887.22
715.619	3704.95
715.807	3694.71
715.994	3696.75
716.182	3559.54
716.369	3684.47
716.556	3717.23
716.744	3678.32
716.931	3539.06
717.119	3655.79
717.306	3641.46
717.493	3631.22
717.681	3706.99
717.868	3639.41
718.055	3663.99
718.242	3620.98
718.43	3768.43
718.617	3663.99
718.804	3655.79
718.991	3725.43
719.179	3688.56
719.366	3559.54
719.553	3565.68
719.74	3522.68
719.927	3539.06
720.114	3354.74
720.301	3649.65
720.488	3475.57
720.676	3373.18
720.863	3487.86
721.05	3516.53
721.237	3475.57
721.424	3508.34
721.611	3524.72
721.798	3592.31
721.985	3360.89
722.172	3479.67
722.358	3528.82
722.545	3459.19
722.732	3475.57
722.919	3338.36
723.106	3420.28
723.293	3410.04
723.48	3451
723.667	3442.81
723.853	3418.23
724.04	3369.08
724.227	3422.33
724.414	3348.6
724.6	3334.26
724.787	3405.94
724.974	3350.65
725.161	3354.74
725.347	3258.49
725.534	3369.08
725.72	3422.33
725.907	3424.37
726.094	3403.89
726.28	3305.59
726.467	3235.96
726.653	3254.39
726.84	3367.03
727.027	3313.78
727.213	3225.72
727.4	3254.39
727.586	3262.58
727.773	3401.85
727.959	3313.78
728.145	3377.27
728.332	3297.4
728.518	3346.55
728.705	3385.46
728.891	3276.92
729.077	3250.3
729.264	3139.71
729.45	3262.58
729.636	3164.28
729.823	3235.96
730.009	3203.19
730.195	3235.96
730.382	3287.16
730.568	3297.4
730.754	3205.24
730.94	3270.78
731.126	3301.5
731.313	3115.13
731.499	3115.13
731.685	3242.11
731.871	3106.94
732.057	3172.47
732.243	3172.47
732.429	3156.09
732.615	3227.77
732.801	3244.15
732.987	3094.65
733.173	3215.48
733.359	3207.29
733.545	3086.46
733.731	3299.45
733.917	3201.15
734.103	3221.63
734.289	3135.61
734.475	3039.36
734.661	3168.38
734.847	3166.33
735.033	3227.77
735.219	3088.51
735.404	3123.32
735.59	3061.88
735.776	3160.19
735.962	3166.33
736.148	3170.43
736.333	3059.84
736.519	3074.17
736.705	3182.71
736.89	3068.03
737.076	3188.86
737.262	3039.36
737.447	3035.26
737.633	3055.74
737.819	3041.4
738.004	3104.89
738.19	3035.26
738.375	3063.93
738.561	3121.28
738.747	3117.18
738.932	3012.73
739.118	3018.88
739.303	2959.49
739.489	3084.41
739.674	3045.5
739.859	3043.45
740.045	3076.22
740.23	2957.44
740.416	2928.77
740.601	3000.44
740.786	2951.29
740.972	2943.1
741.157	2889.85
741.342	2990.21
741.528	2971.77
741.713	2904.19
741.898	2979.97
742.084	2861.18
742.269	2926.72
742.454	2977.92
742.639	2869.37
742.824	2939.01
743.01	2693.25
743.195	2873.47
743.38	2873.47
743.565	2852.99
743.75	2916.48
743.935	2848.9
744.12	2898.05
744.305	2701.44
744.49	2736.26
744.675	2709.63
744.86	2775.17
745.045	2660.48
745.23	2820.22
745.415	2748.54
745.6	2726.02
745.785	2730.11
745.97	2742.4
746.155	2836.61
746.34	2711.68
746.525	2656.39
746.71	2660.48
746.895	2588.8
747.079	2631.81
747.264	2715.78
747.449	2633.86
747.634	2459.78
747.819	2586.76
748.003	2490.5
748.188	2566.28
748.373	2513.03
748.557	2394.25
748.742	2455.69
748.927	2443.4
749.111	2371.72
749.296	2470.02
749.481	2386.05
749.665	2457.73
749.85	2453.64
750.034	2431.11
750.219	2490.5
750.404	2379.91
750.588	2431.11
750.773	2267.27
750.957	2230.41
751.141	2228.36
751.326	2336.9
751.51	2314.38
751.695	2232.46
751.879	2377.86
752.064	2318.47
752.248	2291.85
752.432	2203.79
752.617	2173.07
752.801	2162.83
752.985	2257.03
753.17	2271.37
753.354	2216.07
753.538	2105.48
753.722	2082.95
753.907	2183.31
754.091	2136.2
754.275	2070.67
754.459	2033.8
754.643	1935.5
754.828	2117.77
755.012	1962.12
755.196	1984.65
755.38	1923.21
755.564	1968.27
755.748	1978.51
755.932	1974.41
756.116	1962.12
756.3	1880.21
756.484	1890.45
756.668	1775.76
756.852	1863.82
757.036	1865.87
757.22	1788.05
757.404	1829.01
757.588	1839.25
757.772	1884.3
757.956	1872.01
758.14	1845.39
758.323	1872.01
758.507	1716.37
758.691	1706.13
758.875	1771.66
759.059	1820.81
759.242	1786
759.426	1771.66
759.61	1677.46
759.794	1699.98
759.977	1681.55
760.161	1632.4
760.345	1597.59
760.528	1593.49
760.712	1857.68
760.895	1697.94
761.079	1624.21
761.263	1730.7
761.446	1542.29
761.63	1659.03
761.813	1648.79
761.997	1636.5
762.18	1622.16
762.364	1638.55
762.547	1478.8
762.731	1597.59
762.914	1542.29
763.098	1482.9
763.281	1476.76
763.464	1558.67
763.648	1595.54
763.831	1427.6
764.015	1476.76
764.198	1448.08
764.381	1527.96
764.564	1482.9
764.748	1484.95
764.931	1501.33
765.114	1405.08
765.297	1525.91
765.481	1468.56
765.664	1425.56
765.847	1454.23
766.03	1454.23
766.213	1448.08
766.397	1384.6
766.58	1423.51
766.763	1400.98
766.946	1403.03
767.129	1429.65
767.312	1349.78
767.495	1325.21
767.678	1368.21
767.861	1386.65
768.044	1312.92
768.227	1374.36
768.41	1329.3
768.593	1454.23
768.776	1292.44
768.959	1343.64
769.142	1296.53
769.324	1179.8
769.507	1429.65
769.69	1327.25
769.873	1319.06
770.056	1310.87
770.239	1290.39
770.421	1185.94
770.604	1257.62
770.787	1267.86
770.97	1237.14
771.152	1355.93
771.335	1327.25
771.518	1247.38
771.7	1292.44
771.883	1294.49
772.066	1249.43
772.248	1220.76
772.431	1300.63
772.613	1198.23
772.796	1169.56
772.978	1187.99
773.161	1204.38
773.343	1120.41
773.526	1181.85
773.708	1171.61
773.891	1116.31
774.073	1190.04
774.256	1110.17
774.438	1112.22
774.621	1124.51
774.803	1196.18
774.985	1104.03
775.168	1138.84
775.35	1181.85
775.532	1063.07
775.715	1056.92
775.897	1024.16
776.079	1093.79
776.261	1216.66
776.444	979.1
776.626	934.04
776.808	975
776.99	966.81
777.173	1022.11
777.355	970.91
777.537	1069.21
777.719	1138.84
777.901	1013.92
778.083	1032.35
778.265	923.8
778.447	962.72
778.629	936.09
778.811	993.44
778.993	901.28
779.175	979.1
779.357	891.04
779.539	864.41
779.721	952.48
779.903	968.86
780.085	856.22
780.267	917.66
780.449	858.27
780.631	833.69
780.812	977.05
780.994	899.23
781.176	899.23
781.358	852.13
781.54	891.04
781.721	819.36
781.903	917.66
782.085	776.35
782.267	852.13
782.448	817.31
782.63	780.45
782.812	845.98
782.993	766.11
783.175	813.21
783.357	671.9
783.538	821.41
783.72	737.44
783.901	788.64
784.083	768.16
784.264	749.73
784.446	764.06
784.627	731.3
784.809	772.25
784.99	757.92
785.172	716.96
785.353	673.95
785.535	706.72
785.716	772.25
785.897	721.06
786.079	676
786.26	741.54
786.441	606.37
786.623	678.05
786.804	637.09
786.985	690.34
787.167	630.95
787.348	608.42
787.529	647.33
787.71	581.79
787.891	694.43
788.073	589.99
788.254	628.9
788.435	688.29
788.616	616.61
788.797	542.88
788.978	528.55
789.159	585.89
789.34	667.81
789.522	549.03
789.703	553.12
789.884	624.8
790.065	604.32
790.246	565.41
790.427	495.78
790.607	592.03
790.788	598.18
790.969	530.59
791.15	557.22
791.331	526.5
791.512	577.7
791.693	473.25
791.874	503.97
792.054	549.03
792.235	516.26
792.416	473.25
792.597	469.16
792.778	540.83
792.958	440.48
793.139	534.69
793.32	534.69
793.5	553.12
793.681	565.41
793.862	493.73
794.042	436.39
794.223	493.73
794.404	506.02
794.584	481.44
794.765	436.39
794.945	463.01
795.126	467.11
795.306	503.97
795.487	446.63
795.667	430.24
795.848	409.76
796.028	452.77
796.209	438.44
796.389	499.88
796.57	479.4
796.75	377
796.93	387.24
797.111	409.76
797.291	422.05
797.471	463.01
797.652	438.44
797.832	422.05
798.012	506.02
798.192	381.09
798.373	436.39
798.553	383.14
798.733	463.01
798.913	338.09
799.093	397.48
799.274	405.67
799.454	391.33
799.634	456.87
799.814	499.88
799.994	409.76
800.174	342.18
800.354	372.9
800.534	417.96
800.714	426.15
800.894	319.65
801.074	399.52
801.254	405.67
801.434	417.96
801.614	389.28
801.794	329.89
801.974	698.53
802.154	372.9
802.334	329.89
802.514	346.28
802.693	350.37
802.873	311.46
803.053	407.72
803.233	395.43
803.413	342.18
803.592	280.74
803.772	272.55
803.952	370.85
804.131	319.65
804.311	329.89
804.491	290.98
804.67	290.98
804.85	364.71
805.03	264.36
805.209	313.51
805.389	342.18
805.568	268.45
805.748	293.03
805.928	387.24
806.107	247.97
806.287	282.79
806.466	319.65
806.646	274.6
806.825	319.65
807.004	333.99
807.184	315.56
807.363	319.65
807.543	247.97
807.722	245.93
807.901	344.23
808.081	374.95
808.26	209.06
808.439	293.03
808.619	387.24
808.798	278.69
808.977	215.21
809.156	243.88
809.336	325.8
809.515	252.07
809.694	260.26
809.873	284.84
810.052	274.6
810.231	258.21
810.411	272.55
810.59	272.55
810.769	290.98
810.948	370.85
811.127	313.51
811.306	264.36
811.485	227.5
811.664	231.59
811.843	252.07
812.022	258.21
812.201	299.17
812.38	274.6
812.559	168.1
812.737	196.78
812.916	258.21
813.095	303.27
813.274	252.07
813.453	299.17
813.632	215.21
813.811	311.46
813.989	170.15
814.168	151.72
814.347	229.54
814.526	176.3
814.704	200.87
814.883	180.39
815.062	231.59
815.24	202.92
815.419	219.3
815.598	270.5
815.776	204.97
815.955	204.97
816.133	166.06
816.312	235.69
816.49	141.48
816.669	237.74
816.847	176.3
817.026	247.97
817.204	188.58
817.383	211.11
817.561	254.12
817.74	225.45
817.918	188.58
818.097	268.45
818.275	141.48
818.453	170.15
818.632	198.82
818.81	215.21
818.988	211.11
819.167	217.26
819.345	239.78
819.523	164.01
819.701	116.9
819.879	190.63
820.058	204.97
820.236	245.93
820.414	252.07
820.592	204.97
820.77	166.06
820.948	256.17
821.127	125.1
821.305	170.15
821.483	166.06
821.661	149.67
821.839	258.21
822.017	133.29
822.195	131.24
822.373	192.68
822.551	186.54
822.729	182.44
822.907	108.71
823.085	231.59
823.262	215.21
823.44	153.77
823.618	139.43
823.796	129.19
823.974	112.81
824.152	223.4
824.329	145.58
824.507	133.29
824.685	166.06
824.863	141.48
825.04	207.02
825.218	118.95
825.396	129.19
825.574	118.95
825.751	118.95
825.929	127.14
826.107	141.48
826.284	153.77
826.462	198.82
826.639	98.47
826.817	168.1
826.994	192.68
827.172	141.48
827.349	131.24
827.527	194.73
827.704	211.11
827.882	133.29
828.059	133.29
828.237	112.81
828.414	207.02
828.591	153.77
828.769	170.15
828.946	182.44
829.124	200.87
829.301	204.97
829.478	164.01
829.655	159.91
829.833	153.77
830.01	110.76
830.187	55.47
830.364	106.67
830.542	161.96
830.719	184.49
830.896	61.61
831.073	98.47
831.25	178.34
831.427	92.33
831.604	106.67
831.782	92.33
831.959	129.19
832.136	118.95
832.313	141.48
832.49	59.56
832.667	188.58
832.844	49.32
833.021	157.86
833.198	100.52
833.374	41.13
833.551	166.06
833.728	104.62
833.905	139.43
834.082	92.33
834.259	96.43
834.436	141.48
834.612	43.18
834.789	137.38
834.966	96.43
835.143	116.9
835.319	84.14
835.496	39.08
835.673	180.39
835.85	157.86
836.026	57.51
836.203	166.06
836.38	127.14
836.556	92.33
836.733	131.24
836.909	194.73
837.086	2.22
837.262	149.67
837.439	20.65
837.616	86.19
837.792	47.27
837.968	143.53
838.145	121
838.321	100.52
838.498	106.67
838.674	88.23
838.851	86.19
839.027	161.96
839.203	104.62
839.38	176.3
839.556	92.33
839.732	10.41
839.909	92.33
840.085	61.61
840.261	159.91
840.437	59.56
840.614	30.89
840.79	43.18
840.966	98.47
841.142	59.56
841.318	86.19
841.494	67.75
841.671	90.28
841.847	75.95
842.023	129.19
842.199	88.23
842.375	53.42
842.551	67.75
842.727	28.84
842.903	116.9
843.079	127.14
843.255	39.08
843.431	108.71
843.607	98.47
843.783	37.03
843.959	106.67
844.134	14.51
844.31	129.19
844.486	51.37
844.662	112.81
844.838	55.47
845.013	82.09
845.189	114.86
845.365	135.34
845.541	131.24
845.716	59.56
845.892	82.09
846.068	112.81
846.244	8.36
846.419	114.86
846.595	43.18
846.77	116.9
846.946	-65.36
847.122	-14.17
847.297	75.95
847.473	73.9
847.648	88.23
847.824	98.47
847.999	84.14
848.175	104.62
848.35	63.66
848.526	92.33
848.701	98.47
848.876	92.33
849.052	69.8
849.227	86.19
849.403	53.42
849.578	57.51
849.753	96.43
849.929	135.34
850.104	45.23
850.279	57.51
850.454	59.56
850.63	100.52
850.805	28.84
850.98	94.38
851.155	63.66
851.33	96.43
851.505	55.47
851.681	59.56
851.856	69.8
852.031	88.23
852.206	63.66
852.381	77.99
852.556	77.99
852.731	10.41
852.906	121
853.081	-16.21
853.256	37.03
853.431	108.71
853.606	77.99
853.781	96.43
853.956	47.27
854.131	69.8
854.305	-34.64
854.48	77.99
854.655	32.94
854.83	71.85
855.005	100.52
855.18	28.84
855.354	53.42
855.529	96.43
855.704	96.43
855.879	8.36
856.053	65.71
856.228	49.32
856.403	77.99
856.577	59.56
856.752	43.18
856.926	10.41
857.101	123.05
857.276	-3.93
857.45	-10.07
857.625	47.27
857.799	4.27
857.974	94.38
858.148	-91.99
858.323	75.95
858.497	32.94
858.672	45.23
858.846	10.41
859.02	47.27
859.195	-24.4
859.369	84.14
859.543	80.04
859.718	157.86
859.892	43.18
860.066	39.08
860.241	51.37
860.415	63.66
860.589	108.71
860.763	71.85
860.938	92.33
861.112	16.55
861.286	55.47
861.46	-12.12
861.634	59.56
861.808	37.03
861.982	34.99
862.157	28.84
862.331	32.94
862.505	14.51
862.679	2.22
862.853	34.99
863.027	39.08
863.201	16.55
863.375	57.51
863.549	49.32
863.722	28.84
863.896	77.99
864.07	39.08
864.244	-40.79
864.418	43.18
864.592	-20.31
864.766	-81.75
864.939	18.6
865.113	26.79
865.287	41.13
865.461	8.36
865.634	59.56
865.808	16.55
865.982	8.36
866.156	30.89
866.329	82.09
866.503	53.42
866.676	57.51
866.85	39.08
867.024	8.36
867.197	22.7
867.371	65.71
867.544	86.19
867.718	34.99
867.891	65.71
868.065	18.6
868.238	-3.93
868.412	71.85
868.585	-10.07
868.759	16.55
868.932	65.71
869.105	63.66
869.279	45.23
869.452	-26.45
869.625	34.99
869.799	45.23
869.972	75.95
870.145	59.56
870.319	39.08
870.492	10.41
870.665	26.79
870.838	37.03
871.011	10.41
871.185	26.79
871.358	61.61
871.531	49.32
871.704	26.79
871.877	71.85
872.05	94.38
872.223	82.09
872.396	67.75
872.569	59.56
872.742	18.6
872.915	49.32
873.088	32.94
873.261	-28.5
873.434	65.71
873.607	80.04
873.78	43.18
873.953	34.99
874.126	80.04
874.299	47.27
874.471	24.75
874.644	-32.6
874.817	116.9
874.99	41.13
875.163	41.13
875.335	67.75
875.508	30.89
875.681	125.1
875.853	14.51
876.026	65.71
876.199	41.13
876.371	2.22
876.544	-63.32
876.717	125.1
876.889	45.23
877.062	16.55
877.234	10.41
877.407	32.94
877.579	20.65
877.752	12.46
877.924	-16.21
878.097	4.27
878.269	104.62
878.442	32.94
878.614	92.33
878.786	43.18
878.959	61.61
879.131	41.13
879.303	-16.21
879.476	71.85
879.648	43.18
879.82	94.38
879.993	106.67
880.165	94.38
880.337	-24.4
880.509	75.95
880.681	43.18
880.854	-8.02
881.026	22.7
881.198	84.14
881.37	-20.31
881.542	-8.02
881.714	-1.88
881.886	-40.79
882.058	37.03
882.23	28.84
882.402	-16.21
882.574	-28.5
882.746	30.89
882.918	-1.88
883.09	-20.31
883.262	-18.26
883.434	49.32
883.606	-12.12
883.778	39.08
883.95	28.84
884.122	8.36
884.293	102.57
884.465	8.36
884.637	22.7
884.809	125.1
884.98	71.85
885.152	57.51
885.324	20.65
885.496	39.08
885.667	-51.03
885.839	-40.79
886.011	43.18
886.182	18.6
886.354	114.86
886.525	20.65
886.697	0.17
886.869	16.55
887.04	-16.21
887.212	59.56
887.383	8.36
887.555	4.27
887.726	6.31
887.897	53.42
888.069	47.27
888.24	2.22
888.412	37.03
888.583	14.51
888.754	34.99
888.926	-8.02
889.097	20.65
889.268	69.8
889.44	-26.45
889.611	-8.02
889.782	-5.97
889.953	41.13
890.125	127.14
890.296	-57.17
890.467	57.51
890.638	-12.12
890.809	47.27
890.98	2.22
891.151	18.6
891.323	63.66
891.494	53.42
891.665	18.6
891.836	-8.02
892.007	-30.55
892.178	43.18
892.349	-10.07
892.52	-10.07
892.691	55.47
892.862	2.22
893.032	-48.98
893.203	12.46
893.374	28.84
893.545	37.03
893.716	-48.98
893.887	26.79
894.057	0.17
894.228	-1.88
894.399	-42.84
894.57	20.65
894.74	-22.36
894.911	43.18
895.082	39.08
895.253	4.27
895.423	6.31
895.594	73.9
895.764	71.85
895.935	-83.8
896.106	26.79
896.276	106.67
896.447	30.89
896.617	-24.4
896.788	4.27
896.958	100.52
897.129	-20.31
897.299	43.18
897.47	51.37
897.64	-20.31
897.81	80.04
897.981	41.13
898.151	-5.97
898.322	73.9
898.492	30.89
898.662	-36.69
898.832	-24.4
899.003	67.75
899.173	59.56
899.343	-40.79
899.513	-3.93
