Data from USB4F104151__20__11-44-39-432.txt Node

Date: Fri Mar 14 11:44:39 EDT 2025
User: louis
Spectrometer: USB4F10415
Trigger mode: 4
Integration Time (sec): 2.000000E-2
Scans to average: 1
Electric dark correction enabled: true
Nonlinearity correction enabled: false
Boxcar width: 0
XAxis mode: Wavelengths
Number of Pixels in Spectrum: 3648
>>>>>Begin Spectral Data<<<<<
178.204	11.78
178.424	11.78
178.644	11.78
178.864	-45.57
179.084	-43.52
179.304	3.58
179.524	-20.99
179.744	75.26
179.964	-8.7
180.184	-33.28
180.404	-12.8
180.624	24.06
180.844	-80.38
181.064	-23.04
181.283	15.87
181.503	54.78
181.723	5.63
181.943	15.87
182.163	38.4
182.383	-2.56
182.602	79.36
182.822	60.93
183.042	54.78
183.262	5.63
183.482	1.54
183.701	-23.04
183.921	19.97
184.141	-45.57
184.361	77.31
184.58	28.16
184.8	50.69
185.02	17.92
185.239	5.63
185.459	-0.51
185.679	24.06
185.898	-12.8
186.118	75.26
186.338	83.45
186.557	44.54
186.777	-2.56
186.997	67.07
187.216	-16.9
187.436	60.93
187.655	-18.94
187.875	56.83
188.095	91.65
188.314	-27.14
188.534	101.89
188.753	11.78
188.973	46.59
189.192	-12.8
189.412	77.31
189.631	89.6
189.851	-14.85
190.07	30.21
190.29	40.45
190.509	56.83
190.729	-16.9
190.948	7.68
191.168	85.5
191.387	48.64
191.607	9.73
191.826	34.3
192.045	28.16
192.265	52.74
192.484	69.12
192.704	52.74
192.923	11.78
193.142	48.64
193.362	-23.04
193.581	89.6
193.8	13.82
194.02	54.78
194.239	101.89
194.458	50.69
194.678	38.4
194.897	65.02
195.116	85.5
195.335	26.11
195.555	-10.75
195.774	36.35
195.993	69.12
196.212	54.78
196.432	13.82
196.651	40.45
196.87	67.07
197.089	101.89
197.308	-20.99
197.528	-2.56
197.747	42.5
197.966	44.54
198.185	19.97
198.404	81.41
198.623	30.21
198.842	-39.42
199.062	17.92
199.281	56.83
199.5	103.93
199.719	42.5
199.938	44.54
200.157	134.65
200.376	71.17
200.595	81.41
200.814	77.31
201.033	-0.51
201.252	1.54
201.471	40.45
201.69	5.63
201.909	75.26
202.128	32.26
202.347	36.35
202.566	67.07
202.785	38.4
203.004	34.3
203.223	124.41
203.442	54.78
203.661	65.02
203.879	30.21
204.098	-16.9
204.317	89.6
204.536	50.69
204.755	67.07
204.974	38.4
205.193	56.83
205.411	134.65
205.63	126.46
205.849	77.31
206.068	44.54
206.287	-2.56
206.505	28.16
206.724	15.87
206.943	50.69
207.162	50.69
207.381	19.97
207.599	-12.8
207.818	28.16
208.037	-23.04
208.255	-18.94
208.474	17.92
208.693	30.21
208.911	83.45
209.13	101.89
209.349	15.87
209.567	75.26
209.786	28.16
210.005	62.98
210.223	36.35
210.442	-47.62
210.661	-12.8
210.879	-33.28
211.098	24.06
211.316	81.41
211.535	44.54
211.753	-4.61
211.972	9.73
212.191	28.16
212.409	-8.7
212.628	130.56
212.846	-49.66
213.065	34.3
213.283	87.55
213.502	44.54
213.72	56.83
213.938	-4.61
214.157	71.17
214.375	58.88
214.594	77.31
214.812	46.59
215.031	17.92
215.249	-12.8
215.467	24.06
215.686	40.45
215.904	42.5
216.122	-4.61
216.341	79.36
216.559	132.61
216.778	93.69
216.996	62.98
217.214	36.35
217.432	-16.9
217.651	26.11
217.869	153.09
218.087	48.64
218.306	-41.47
218.524	7.68
218.742	83.45
218.96	114.17
219.179	120.32
219.397	-2.56
219.615	91.65
219.833	32.26
220.051	67.07
220.27	91.65
220.488	-8.7
220.706	91.65
220.924	30.21
221.142	-57.86
221.36	69.12
221.578	75.26
221.796	54.78
222.015	24.06
222.233	38.4
222.451	-45.57
222.669	62.98
222.887	62.98
223.105	26.11
223.323	32.26
223.541	7.68
223.759	7.68
223.977	-31.23
224.195	161.28
224.413	93.69
224.631	114.17
224.849	-14.85
225.067	67.07
225.285	-6.66
225.503	77.31
225.721	1.54
225.939	34.3
226.157	-29.18
226.375	99.84
226.592	34.3
226.81	19.97
227.028	32.26
227.246	69.12
227.464	69.12
227.682	56.83
227.9	40.45
228.117	22.02
228.335	83.45
228.553	17.92
228.771	24.06
228.989	11.78
229.206	56.83
229.424	65.02
229.642	62.98
229.86	26.11
230.077	19.97
230.295	48.64
230.513	112.13
230.731	32.26
230.948	81.41
231.166	65.02
231.384	79.36
231.601	91.65
231.819	105.98
232.037	17.92
232.254	15.87
232.472	85.5
232.689	9.73
232.907	50.69
233.125	32.26
233.342	-10.75
233.56	9.73
233.777	69.12
233.995	13.82
234.213	7.68
234.43	58.88
234.648	-31.23
234.865	32.26
235.083	77.31
235.3	9.73
235.518	67.07
235.735	17.92
235.953	79.36
236.17	-25.09
236.388	50.69
236.605	71.17
236.822	83.45
237.04	44.54
237.257	44.54
237.475	-16.9
237.692	77.31
237.909	32.26
238.127	50.69
238.344	40.45
238.562	77.31
238.779	5.63
238.996	87.55
239.214	3.58
239.431	19.97
239.648	44.54
239.865	7.68
240.083	30.21
240.3	99.84
240.517	9.73
240.735	46.59
240.952	60.93
241.169	13.82
241.386	54.78
241.603	-25.09
241.821	5.63
242.038	15.87
242.255	56.83
242.472	54.78
242.689	89.6
242.907	54.78
243.124	52.74
243.341	85.5
243.558	108.03
243.775	116.22
243.992	11.78
244.209	136.7
244.426	73.21
244.643	81.41
244.86	13.82
245.078	5.63
245.295	101.89
245.512	-0.51
245.729	97.79
245.946	11.78
246.163	5.63
246.38	60.93
246.597	124.41
246.814	110.08
247.031	-10.75
247.248	-10.75
247.464	-8.7
247.681	40.45
247.898	60.93
248.115	89.6
248.332	34.3
248.549	58.88
248.766	24.06
248.983	101.89
249.2	30.21
249.417	-8.7
249.633	-25.09
249.85	-6.66
250.067	38.4
250.284	77.31
250.501	7.68
250.717	58.88
250.934	40.45
251.151	-8.7
251.368	71.17
251.585	46.59
251.801	32.26
252.018	9.73
252.235	60.93
252.451	67.07
252.668	56.83
252.885	85.5
253.102	73.21
253.318	73.21
253.535	38.4
253.752	-51.71
253.968	54.78
254.185	19.97
254.401	60.93
254.618	81.41
254.835	52.74
255.051	34.3
255.268	26.11
255.484	81.41
255.701	9.73
255.917	101.89
256.134	-18.94
256.351	93.69
256.567	-53.76
256.784	65.02
257	-14.85
257.217	44.54
257.433	7.68
257.65	36.35
257.866	54.78
258.082	67.07
258.299	52.74
258.515	30.21
258.732	-4.61
258.948	30.21
259.165	69.12
259.381	56.83
259.597	-4.61
259.814	19.97
260.03	-12.8
260.246	77.31
260.463	50.69
260.679	46.59
260.895	65.02
261.112	97.79
261.328	38.4
261.544	58.88
261.761	116.22
261.977	71.17
262.193	-2.56
262.409	38.4
262.626	40.45
262.842	79.36
263.058	24.06
263.274	40.45
263.49	-49.66
263.707	69.12
263.923	-6.66
264.139	112.13
264.355	11.78
264.571	62.98
264.787	42.5
265.004	142.85
265.22	17.92
265.436	62.98
265.652	-14.85
265.868	71.17
266.084	46.59
266.3	101.89
266.516	-12.8
266.732	19.97
266.948	13.82
267.164	-12.8
267.38	-0.51
267.596	56.83
267.812	120.32
268.028	77.31
268.244	81.41
268.46	17.92
268.676	93.69
268.892	11.78
269.108	-16.9
269.324	1.54
269.54	13.82
269.756	108.03
269.972	50.69
270.188	32.26
270.403	56.83
270.619	105.98
270.835	-4.61
271.051	71.17
271.267	7.68
271.483	-6.66
271.698	15.87
271.914	93.69
272.13	30.21
272.346	9.73
272.562	-10.75
272.777	81.41
272.993	62.98
273.209	9.73
273.425	67.07
273.64	44.54
273.856	67.07
274.072	-14.85
274.287	9.73
274.503	30.21
274.719	73.21
274.934	19.97
275.15	52.74
275.366	13.82
275.581	48.64
275.797	56.83
276.012	34.3
276.228	32.26
276.444	67.07
276.659	67.07
276.875	75.26
277.09	60.93
277.306	56.83
277.521	11.78
277.737	52.74
277.952	110.08
278.168	24.06
278.383	-61.95
278.599	26.11
278.814	69.12
279.03	48.64
279.245	34.3
279.461	81.41
279.676	138.75
279.892	58.88
280.107	81.41
280.322	52.74
280.538	15.87
280.753	3.58
280.969	3.58
281.184	26.11
281.399	77.31
281.615	38.4
281.83	85.5
282.045	24.06
282.26	-25.09
282.476	48.64
282.691	30.21
282.906	48.64
283.122	83.45
283.337	62.98
283.552	54.78
283.767	7.68
283.983	126.46
284.198	-0.51
284.413	79.36
284.628	-4.61
284.843	60.93
285.058	60.93
285.274	93.69
285.489	79.36
285.704	101.89
285.919	-57.86
286.134	26.11
286.349	38.4
286.564	58.88
286.779	75.26
286.995	67.07
287.21	83.45
287.425	17.92
287.64	75.26
287.855	-2.56
288.07	65.02
288.285	44.54
288.5	30.21
288.715	67.07
288.93	-0.51
289.145	40.45
289.36	9.73
289.575	73.21
289.79	44.54
290.004	32.26
290.219	77.31
290.434	1.54
290.649	11.78
290.864	95.74
291.079	15.87
291.294	110.08
291.509	24.06
291.724	67.07
291.938	1.54
292.153	17.92
292.368	22.02
292.583	48.64
292.798	40.45
293.012	24.06
293.227	44.54
293.442	65.02
293.657	-37.38
293.871	58.88
294.086	11.78
294.301	83.45
294.516	101.89
294.73	-18.94
294.945	-0.51
295.16	114.17
295.374	58.88
295.589	105.98
295.804	36.35
296.018	56.83
296.233	122.37
296.447	42.5
296.662	77.31
296.877	79.36
297.091	42.5
297.306	24.06
297.52	87.55
297.735	81.41
297.949	46.59
298.164	81.41
298.378	24.06
298.593	34.3
298.807	-6.66
299.022	38.4
299.236	22.02
299.451	-20.99
299.665	-31.23
299.88	-6.66
300.094	-2.56
300.309	13.82
300.523	87.55
300.737	17.92
300.952	71.17
301.166	52.74
301.381	58.88
301.595	26.11
301.809	99.84
302.024	83.45
302.238	32.26
302.452	83.45
302.667	122.37
302.881	83.45
303.095	103.93
303.309	-2.56
303.524	34.3
303.738	75.26
303.952	-23.04
304.166	112.13
304.381	-2.56
304.595	87.55
304.809	56.83
305.023	69.12
305.237	44.54
305.452	38.4
305.666	99.84
305.88	81.41
306.094	24.06
306.308	42.5
306.522	118.27
306.736	56.83
306.95	81.41
307.164	67.07
307.379	32.26
307.593	77.31
307.807	44.54
308.021	34.3
308.235	99.84
308.449	60.93
308.663	40.45
308.877	54.78
309.091	48.64
309.305	89.6
309.519	-14.85
309.733	110.08
309.947	-27.14
310.161	40.45
310.374	69.12
310.588	95.74
310.802	22.02
311.016	28.16
311.23	118.27
311.444	79.36
311.658	62.98
311.872	-2.56
312.085	73.21
312.299	28.16
312.513	50.69
312.727	58.88
312.941	42.5
313.154	42.5
313.368	24.06
313.582	34.3
313.796	3.58
314.009	144.89
314.223	118.27
314.437	99.84
314.651	91.65
314.864	124.41
315.078	42.5
315.292	65.02
315.505	22.02
315.719	17.92
315.933	46.59
316.146	42.5
316.36	-29.18
316.573	71.17
316.787	30.21
317.001	19.97
317.214	36.35
317.428	3.58
317.641	44.54
317.855	48.64
318.068	50.69
318.282	95.74
318.495	103.93
318.709	15.87
318.922	19.97
319.136	48.64
319.349	93.69
319.563	48.64
319.776	81.41
319.99	26.11
320.203	73.21
320.417	42.5
320.63	26.11
320.843	157.18
321.057	60.93
321.27	77.31
321.483	19.97
321.697	42.5
321.91	28.16
322.124	17.92
322.337	24.06
322.55	42.5
322.763	60.93
322.977	97.79
323.19	101.89
323.403	28.16
323.617	28.16
323.83	136.7
324.043	79.36
324.256	77.31
324.469	93.69
324.683	122.37
324.896	62.98
325.109	105.98
325.322	42.5
325.535	79.36
325.748	69.12
325.962	81.41
326.175	9.73
326.388	77.31
326.601	65.02
326.814	48.64
327.027	11.78
327.24	91.65
327.453	-16.9
327.666	26.11
327.879	34.3
328.092	81.41
328.305	48.64
328.518	85.5
328.731	91.65
328.944	134.65
329.157	114.17
329.37	89.6
329.583	54.78
329.796	97.79
330.009	17.92
330.222	69.12
330.435	77.31
330.648	28.16
330.861	114.17
331.073	44.54
331.286	81.41
331.499	77.31
331.712	42.5
331.925	13.82
332.138	97.79
332.35	103.93
332.563	105.98
332.776	69.12
332.989	50.69
333.202	56.83
333.414	50.69
333.627	83.45
333.84	87.55
334.053	65.02
334.265	-23.04
334.478	54.78
334.691	1.54
334.903	108.03
335.116	17.92
335.329	65.02
335.541	46.59
335.754	28.16
335.966	50.69
336.179	62.98
336.392	22.02
336.604	38.4
336.817	89.6
337.029	73.21
337.242	-20.99
337.454	122.37
337.667	38.4
337.88	48.64
338.092	40.45
338.305	105.98
338.517	52.74
338.729	62.98
338.942	62.98
339.154	-4.61
339.367	-14.85
339.579	42.5
339.792	32.26
340.004	101.89
340.217	62.98
340.429	44.54
340.641	91.65
340.854	34.3
341.066	65.02
341.278	136.7
341.491	87.55
341.703	-0.51
341.915	7.68
342.128	58.88
342.34	46.59
342.552	32.26
342.764	93.69
342.977	26.11
343.189	116.22
343.401	69.12
343.613	58.88
343.826	71.17
344.038	1.54
344.25	30.21
344.462	42.5
344.674	48.64
344.886	19.97
345.099	118.27
345.311	93.69
345.523	50.69
345.735	-16.9
345.947	79.36
346.159	85.5
346.371	65.02
346.583	65.02
346.795	73.21
347.007	22.02
347.219	44.54
347.431	46.59
347.643	81.41
347.855	62.98
348.067	124.41
348.279	89.6
348.491	97.79
348.703	110.08
348.915	101.89
349.127	28.16
349.339	136.7
349.551	7.68
349.763	75.26
349.975	32.26
350.187	87.55
350.399	48.64
350.61	120.32
350.822	38.4
351.034	71.17
351.246	48.64
351.458	128.51
351.669	120.32
351.881	138.75
352.093	87.55
352.305	36.35
352.517	52.74
352.728	48.64
352.94	77.31
353.152	24.06
353.363	40.45
353.575	97.79
353.787	99.84
353.999	81.41
354.21	132.61
354.422	9.73
354.633	71.17
354.845	73.21
355.057	60.93
355.268	91.65
355.48	65.02
355.692	52.74
355.903	73.21
356.115	126.46
356.326	48.64
356.538	50.69
356.749	85.5
356.961	44.54
357.172	105.98
357.384	89.6
357.595	97.79
357.807	97.79
358.018	71.17
358.23	85.5
358.441	171.52
358.653	32.26
358.864	-47.62
359.075	58.88
359.287	103.93
359.498	134.65
359.709	81.41
359.921	89.6
360.132	9.73
360.344	81.41
360.555	105.98
360.766	105.98
360.977	62.98
361.189	144.89
361.4	128.51
361.611	81.41
361.823	28.16
362.034	67.07
362.245	11.78
362.456	65.02
362.667	95.74
362.879	11.78
363.09	3.58
363.301	110.08
363.512	30.21
363.723	75.26
363.935	38.4
364.146	71.17
364.357	36.35
364.568	32.26
364.779	-8.7
364.99	69.12
365.201	69.12
365.412	89.6
365.623	32.26
365.834	99.84
366.045	69.12
366.256	77.31
366.467	52.74
366.678	-4.61
366.889	79.36
367.1	140.8
367.311	89.6
367.522	56.83
367.733	87.55
367.944	97.79
368.155	48.64
368.366	60.93
368.577	56.83
368.788	105.98
368.999	75.26
369.209	67.07
369.42	79.36
369.631	93.69
369.842	42.5
370.053	105.98
370.264	83.45
370.474	87.55
370.685	71.17
370.896	116.22
371.107	91.65
371.317	3.58
371.528	130.56
371.739	130.56
371.95	69.12
372.16	69.12
372.371	38.4
372.582	26.11
372.792	1.54
373.003	32.26
373.214	36.35
373.424	85.5
373.635	54.78
373.846	114.17
374.056	44.54
374.267	48.64
374.477	122.37
374.688	124.41
374.898	87.55
375.109	38.4
375.319	60.93
375.53	81.41
375.74	85.5
375.951	124.41
376.161	7.68
376.372	89.6
376.582	87.55
376.793	69.12
377.003	19.97
377.214	71.17
377.424	65.02
377.635	122.37
377.845	136.7
378.055	93.69
378.266	138.75
378.476	62.98
378.686	65.02
378.897	62.98
379.107	-4.61
379.317	155.13
379.528	52.74
379.738	103.93
379.948	38.4
380.158	85.5
380.369	69.12
380.579	130.56
380.789	118.27
380.999	118.27
381.21	87.55
381.42	189.95
381.63	75.26
381.84	161.28
382.05	73.21
382.261	85.5
382.471	73.21
382.681	122.37
382.891	95.74
383.101	60.93
383.311	46.59
383.521	97.79
383.731	146.94
383.941	54.78
384.151	99.84
384.361	110.08
384.571	136.7
384.781	56.83
384.991	69.12
385.201	71.17
385.411	83.45
385.621	60.93
385.831	-2.56
386.041	60.93
386.251	134.65
386.461	93.69
386.671	62.98
386.881	130.56
387.091	157.18
387.301	108.03
387.511	65.02
387.72	120.32
387.93	77.31
388.14	38.4
388.35	19.97
388.56	128.51
388.769	83.45
388.979	89.6
389.189	60.93
389.399	65.02
389.609	42.5
389.818	155.13
390.028	79.36
390.238	58.88
390.447	48.64
390.657	148.99
390.867	58.88
391.076	83.45
391.286	93.69
391.496	93.69
391.705	56.83
391.915	118.27
392.125	75.26
392.334	87.55
392.544	42.5
392.753	159.23
392.963	11.78
393.172	81.41
393.382	19.97
393.591	148.99
393.801	46.59
394.01	177.66
394.22	142.85
394.429	103.93
394.639	105.98
394.848	212.48
395.058	126.46
395.267	75.26
395.477	17.92
395.686	120.32
395.895	126.46
396.105	128.51
396.314	130.56
396.524	105.98
396.733	175.61
396.942	120.32
397.152	136.7
397.361	97.79
397.57	130.56
397.78	218.62
397.989	103.93
398.198	226.81
398.407	173.57
398.617	138.75
398.826	153.09
399.035	151.04
399.244	128.51
399.453	155.13
399.663	167.42
399.872	208.38
400.081	155.13
400.29	116.22
400.499	126.46
400.708	208.38
400.917	175.61
401.127	175.61
401.336	153.09
401.545	228.86
401.754	200.19
401.963	220.67
402.172	114.17
402.381	220.67
402.59	179.71
402.799	124.41
403.008	196.09
403.217	218.62
403.426	194.05
403.635	212.48
403.844	204.28
404.053	181.76
404.262	165.37
404.471	224.76
404.68	151.04
404.888	198.14
405.097	210.43
405.306	230.91
405.515	341.5
405.724	255.48
405.933	259.58
406.142	239.1
406.35	230.91
406.559	271.87
406.768	237.05
406.977	251.39
407.185	278.01
407.394	333.31
407.603	284.16
407.812	325.12
408.02	167.42
408.229	343.55
408.438	306.68
408.646	290.3
408.855	329.21
409.064	347.64
409.272	361.98
409.481	335.35
409.69	372.22
409.898	396.79
410.107	421.37
410.315	488.95
410.524	421.37
410.733	441.85
410.941	517.62
411.15	486.9
411.358	493.05
411.567	558.58
411.775	546.3
411.984	667.13
412.192	658.93
412.401	574.97
412.609	650.74
412.818	755.19
413.026	697.85
413.234	648.69
413.443	718.33
413.651	790
413.86	763.38
414.068	908.79
414.276	871.92
414.485	869.87
414.693	882.16
414.901	998.9
415.11	1002.99
415.318	962.03
415.526	978.42
415.734	1162.73
415.943	1109.49
416.151	1158.64
416.359	1142.25
416.567	1232.37
416.776	1195.5
416.984	1318.38
417.192	1353.2
417.4	1408.49
417.608	1361.39
417.817	1433.07
418.025	1545.7
418.233	1601
418.441	1529.32
418.649	1547.75
418.857	1848.8
419.065	1811.94
419.273	1883.62
419.481	1869.28
419.689	1900
419.897	2117.09
420.105	1981.92
420.313	2170.33
420.521	2280.93
420.729	2215.39
420.937	2448.86
421.145	2547.16
421.353	2473.43
421.561	2631.13
421.769	2690.52
421.977	2948.56
422.185	2862.55
422.393	3071.44
422.601	3190.22
422.809	3208.66
423.017	3229.13
423.224	3386.83
423.432	3388.88
423.64	3599.82
423.848	3734.98
424.056	3753.41
424.263	4025.79
424.471	3972.55
424.679	4087.23
424.887	4306.37
425.094	4324.8
425.302	4421.05
425.51	4578.75
425.718	4724.15
425.925	4806.07
426.133	4959.67
426.341	5068.21
426.548	5467.56
426.756	5434.8
426.964	5391.79
427.171	5883.3
427.379	6000.04
427.586	6108.58
427.794	6364.57
428.001	6671.77
428.209	6847.9
428.417	6872.47
428.624	7271.83
428.832	7089.56
429.039	7257.49
429.247	7273.87
429.454	7767.43
429.662	8336.77
429.869	7820.68
430.076	8443.26
430.284	8185.22
430.491	8619.39
430.699	9051.51
430.906	9127.28
431.114	9076.09
431.321	9461.1
431.528	9694.57
431.736	10251.62
431.943	10761.56
432.15	10497.38
432.358	10534.24
432.565	11285.84
432.772	11076.95
432.979	11740.49
433.187	12000.58
433.394	11707.73
433.601	12961.08
433.808	12848.44
434.016	12887.36
434.223	13380.92
434.43	14048.55
434.637	13837.61
434.844	14875.93
435.052	15105.31
435.259	14806.3
435.466	15007
435.673	14789.92
435.88	15789.33
436.087	16694.53
436.294	16649.47
436.501	16344.33
436.708	16585.99
436.915	17038.59
437.122	17839.34
437.329	17835.25
437.537	18453.73
437.743	18836.7
437.95	18779.36
438.157	19588.31
438.364	20163.79
438.571	20266.19
438.778	20348.11
438.985	22334.64
439.192	21169.34
439.399	21947.57
439.606	21875.89
439.813	22684.84
440.02	24257.68
440.227	23626.9
440.433	23424.15
440.64	24306.83
440.847	24206.48
441.054	24890.5
441.261	26563.69
441.467	26322.03
441.674	26514.54
441.881	27583.58
442.088	27511.9
442.294	27108.45
442.501	27931.73
442.708	28431.44
442.914	29701.18
443.121	31001.64
443.328	30278.71
443.534	32379.92
443.741	31349.79
443.948	30786.6
444.154	33080.33
444.361	32936.97
444.568	33213.45
444.774	33354.76
444.981	33453.06
445.187	34384.88
445.394	35826.65
445.6	35656.67
445.807	38673.33
446.013	37309.38
446.22	37962.68
446.426	39277.48
446.633	39474.09
446.839	41075.6
447.046	39248.81
447.252	41489.29
447.459	41565.06
447.665	41235.34
447.871	43322.22
448.078	44641.11
448.284	42705.78
448.491	43985.76
448.697	45691.72
448.903	46324.54
449.11	46601.02
449.316	45683.53
449.522	46541.63
449.728	47641.39
449.935	48223.01
450.141	48050.98
450.347	49066.77
450.553	47631.15
450.76	48544.54
450.966	50049.8
451.172	49029.91
451.378	50553.6
451.584	49546
451.791	50754.3
451.997	50565.88
452.203	50885.37
452.409	51161.84
452.615	51032.82
452.821	49224.46
453.027	48866.07
453.233	51503.85
453.44	49396.49
453.646	49941.25
453.852	50385.66
454.058	50537.21
454.264	48894.74
454.47	50113.28
454.676	49091.35
454.882	50918.14
455.088	46467.9
455.294	47231.79
455.5	47713.06
455.705	48309.02
455.911	46332.73
456.117	45937.48
456.323	44938.07
456.529	42806.13
456.735	44809.04
456.941	43209.58
457.147	42417.02
457.352	41747.33
457.558	41096.08
457.764	41032.59
457.97	40477.59
458.176	39093.16
458.381	39592.87
458.587	37626.82
458.793	37206.98
458.999	35671.01
459.204	38206.39
459.41	37012.43
459.616	34632.69
459.821	34665.46
460.027	34663.41
460.233	33702.91
460.438	32146.45
460.644	32601.1
460.85	31214.63
461.055	30641.2
461.261	30612.52
461.466	28587.08
461.672	27466.84
461.878	29467.71
462.083	27579.48
462.289	26985.57
462.494	26756.2
462.7	25738.36
462.905	24863.88
463.111	25726.07
463.316	25697.4
463.522	25150.59
463.727	25361.53
463.932	24849.54
464.138	25019.52
464.343	24929.41
464.549	24439.95
464.754	25105.54
464.959	24953.99
465.165	24790.15
465.37	23780.5
465.575	23196.83
465.781	24005.78
465.986	24368.27
466.191	23583.9
466.397	22555.82
466.602	21781.68
466.807	22727.85
467.012	22496.42
467.218	22355.11
467.423	22260.91
467.628	22342.83
467.833	23049.38
468.038	22164.65
468.244	21572.79
468.449	22518.95
468.654	21859.51
468.859	21783.73
469.064	21423.29
469.269	20950.21
469.474	20726.98
469.679	21277.88
469.885	20583.62
470.09	20886.72
470.295	20624.58
470.5	20331.72
470.705	20475.08
470.91	19705.04
471.115	19905.74
471.32	20081.87
471.525	20063.44
471.73	19741.91
471.935	19418.33
472.139	18666.72
472.344	19080.41
472.549	18771.17
472.754	18597.09
472.959	18177.26
473.164	17706.23
473.369	17710.32
473.574	18326.76
473.778	18130.16
473.983	17874.16
474.188	17845.49
474.393	16846.08
474.598	17147.13
474.802	17065.21
475.007	16971.01
475.212	16794.88
475.417	16243.98
475.621	16166.15
475.826	16258.31
476.031	15828.24
476.235	15740.18
476.44	16014.6
476.645	15725.84
476.849	15680.78
477.054	15457.56
477.259	15226.14
477.463	15211.8
477.668	14669.09
477.872	14947.61
478.077	14654.75
478.282	14288.17
478.486	14355.75
478.691	14095.66
478.895	14099.75
479.1	13956.4
479.304	13948.2
479.509	13653.3
479.713	13884.72
479.918	13346.1
480.122	13350.2
480.326	13598
480.531	13493.55
480.735	13364.53
480.94	13346.1
481.144	13737.26
481.348	13110.58
481.553	13157.69
481.757	12821.82
481.961	13255.99
482.166	13559.09
482.37	13014.33
482.574	12924.22
482.778	13006.14
482.983	13131.06
483.187	12918.07
483.391	13180.21
483.595	12924.22
483.8	12655.93
484.004	13006.14
484.208	13129.02
484.412	12903.74
484.616	12981.56
484.821	13069.62
485.025	12727.61
485.229	12911.93
485.433	12963.13
485.637	13055.29
485.841	13008.19
486.045	12842.3
486.249	12946.75
486.453	12813.63
486.657	12866.88
486.861	13100.34
487.065	12588.35
487.269	13014.33
487.473	12580.16
487.677	12870.97
487.881	13053.24
488.085	12969.27
488.289	12971.32
488.493	12999.99
488.697	13016.38
488.901	13022.52
489.105	12799.29
489.309	13083.96
489.512	13106.49
489.716	13157.69
489.92	12989.75
490.124	12916.03
490.328	13262.13
490.531	13231.41
490.735	13264.18
490.939	13393.2
491.143	13319.48
491.346	13335.86
491.55	13208.89
491.754	13548.85
491.958	13352.24
492.161	13364.53
492.365	13591.86
492.569	13548.85
492.772	13706.54
492.976	13784.37
493.18	13946.16
493.383	13876.52
493.587	14038.31
493.79	14339.37
493.994	13960.49
494.197	14019.88
494.401	14331.17
494.605	14470.44
494.808	14443.81
495.012	14671.14
495.215	14662.94
495.419	14916.89
495.622	14595.36
495.825	14964
496.029	14804.25
496.232	15213.85
496.436	15078.68
496.639	15514.9
496.843	15275.29
497.046	15957.26
497.249	15838.48
497.453	15897.87
497.656	16430.34
497.859	16039.18
498.063	16227.59
498.266	16665.86
498.469	16542.98
498.673	16622.85
498.876	16987.39
499.079	17167.61
499.282	17042.68
499.485	17974.51
499.689	17718.51
499.892	17736.95
500.095	18283.75
500.298	18613.48
500.501	18197.74
500.705	18582.76
500.908	18865.38
501.111	19379.42
501.314	19281.11
501.517	19528.92
501.72	19789.01
501.923	19901.65
502.126	19928.27
502.329	20427.98
502.532	20618.44
502.735	20387.02
502.938	20856
503.141	21202.11
503.344	21361.85
503.547	21382.33
503.75	21814.45
503.953	22060.21
504.156	22187.18
504.359	22291.63
504.562	22641.83
504.765	22924.45
504.968	23422.11
505.17	23409.82
505.373	23606.42
505.576	23841.94
505.779	24167.57
505.982	24151.18
506.185	24579.21
506.387	24814.73
506.59	24939.65
506.793	25486.46
506.996	24900.74
507.198	25859.19
507.401	26154.1
507.604	26373.23
507.807	26700.9
508.009	27006.05
508.212	26623.08
508.415	27341.92
508.617	27675.74
508.82	27784.28
509.022	27704.41
509.225	28374.1
509.428	28343.38
509.63	28861.51
509.833	29123.65
510.035	29889.59
510.238	29099.08
510.44	29721.66
510.643	30413.87
510.845	30196.79
511.048	30057.53
511.25	30821.42
511.453	30960.68
511.655	32353.3
511.858	31761.44
512.06	31878.17
512.262	32377.87
512.465	31876.12
512.667	32871.43
512.87	32965.64
513.072	33078.28
513.274	33940.47
513.477	33932.28
513.679	34327.54
513.881	34431.99
514.084	35204.07
514.286	34825.2
514.488	35300.33
514.69	36070.36
514.893	36029.4
515.095	35933.15
515.297	36463.57
515.499	36551.63
515.701	37235.66
515.904	37708.74
516.106	37456.84
516.308	38212.54
516.51	38149.05
516.712	38134.71
516.914	38884.27
517.116	39130.03
517.318	39089.07
517.52	39775.14
517.722	39572.39
517.925	40383.38
518.127	40692.63
518.329	40715.15
518.531	40475.54
518.733	41438.09
518.935	41823.11
519.136	42118.01
519.338	42255.23
519.54	42486.65
519.742	42818.42
519.944	42718.07
520.146	43858.79
520.348	43737.96
520.55	43815.78
520.752	44313.44
520.954	44843.86
521.155	44512.09
521.357	44835.67
521.559	45314.89
521.761	45847.36
521.963	45888.32
522.164	45773.64
522.366	45820.74
522.568	46478.14
522.77	46480.19
522.971	47108.91
523.173	47209.26
523.375	47237.94
523.576	47268.65
523.778	47612.71
523.98	48169.76
524.181	47858.47
524.383	48403.23
524.584	48943.89
524.786	48753.43
524.988	48474.91
525.189	48978.71
525.391	49285.9
525.592	49488.65
525.794	49541.9
525.995	49855.24
526.197	49775.37
526.398	49890.05
526.6	50465.53
526.801	50369.28
527.003	50688.76
527.204	50911.99
527.406	50868.98
527.607	51213.04
527.808	51372.78
528.01	50692.86
528.211	50909.94
528.412	51667.69
528.614	51643.12
528.815	51604.2
529.016	51935.98
529.218	51745.51
529.419	51827.43
529.62	51987.17
529.822	51944.17
530.023	52155.11
530.224	52015.85
530.425	51935.98
530.626	51952.36
530.828	52237.03
531.029	52851.42
531.23	52122.34
531.431	51972.84
531.632	52355.81
531.833	52394.72
532.035	52392.67
532.236	52396.77
532.437	52900.57
532.638	52433.63
532.839	53109.46
533.04	52482.78
533.241	51880.68
533.442	52925.14
533.643	52646.62
533.844	52767.45
534.045	53054.17
534.246	52230.88
534.447	52701.92
534.648	52687.58
534.849	52615.9
535.05	51997.41
535.251	53179.09
535.451	52294.37
535.652	52525.79
535.853	52640.48
536.054	52542.17
536.255	52490.98
536.456	52488.93
536.657	53213.91
536.857	52527.84
537.058	52636.38
537.259	52861.66
537.46	52601.57
537.66	52658.91
537.861	52966.1
538.062	52706.01
538.263	52736.73
538.463	52472.54
538.664	52636.38
538.865	52677.34
539.065	52923.1
539.266	52126.44
539.466	52886.23
539.667	52093.67
539.868	52962.01
540.068	52531.93
540.269	52568.8
540.469	52789.98
540.67	52603.61
540.87	52597.47
541.071	51839.72
541.271	52445.92
541.472	51852.01
541.672	52132.58
541.873	52208.36
542.073	51704.56
542.274	52497.12
542.474	52228.84
542.675	52050.66
542.875	52458.21
543.075	52247.27
543.276	52214.5
543.476	52593.37
543.676	51972.84
543.877	51925.74
544.077	52273.89
544.277	52110.05
544.478	51974.89
544.678	52540.13
544.878	51651.31
545.078	52081.38
545.279	51919.59
545.479	51778.28
545.679	52601.57
545.879	52206.31
546.079	51972.84
546.28	51782.38
546.48	51538.67
546.68	52058.85
546.88	51944.17
547.08	52030.18
547.28	51639.02
547.48	51446.51
547.68	51620.59
547.88	51204.85
548.081	51518.19
548.281	51536.62
548.481	51510
548.681	52056.81
548.881	51757.8
549.081	51692.27
549.28	51534.57
549.48	51849.96
549.68	51657.45
549.88	52474.59
550.08	51047.16
550.28	51673.84
550.48	51763.95
550.68	51677.93
550.88	51524.33
551.08	51581.68
551.279	51190.51
551.479	50911.99
551.679	51581.68
551.879	51237.62
552.079	51614.44
552.278	51329.78
552.478	51241.71
552.678	51094.26
552.878	51251.95
553.077	51477.23
553.277	51348.21
553.477	51583.72
553.676	51018.49
553.876	50887.42
554.076	51239.67
554.275	50832.12
554.475	50770.68
554.674	50942.71
554.874	50938.61
555.074	50809.59
555.273	51278.58
555.473	50961.14
555.672	50893.56
555.872	50739.96
556.071	50561.79
556.271	50737.91
556.47	50670.33
556.67	50123.52
556.869	50756.35
557.068	50778.87
557.268	50348.8
557.467	50705.15
557.667	50139.91
557.866	50846.46
558.065	50342.66
558.265	50191.11
558.464	50006.79
558.663	50504.45
558.863	49834.76
559.062	50805.5
559.261	49787.66
559.461	50754.3
559.66	49402.64
559.859	50008.84
560.058	49636.11
560.258	49863.43
560.457	49502.99
560.656	49799.94
560.855	49255.18
561.054	50103.04
561.253	49380.11
561.453	49558.28
561.652	49455.89
561.851	50328.32
562.05	49632.01
562.249	49234.7
562.448	49607.44
562.647	49206.03
562.846	49480.46
563.045	49386.25
563.244	48462.62
563.443	49486.6
563.642	48837.4
563.841	48825.11
564.04	49292.05
564.239	49079.06
564.438	48642.84
564.637	48403.23
564.836	48952.09
565.035	47895.33
565.234	48278.3
565.432	48190.24
565.631	48452.38
565.83	49050.39
566.029	47993.64
566.228	48341.79
566.427	48018.21
566.625	48042.79
566.824	47682.34
567.023	48251.68
567.222	47139.63
567.42	48204.58
567.619	48026.4
567.818	47561.51
568.016	47584.04
568.215	47657.77
568.414	47301.42
568.612	47760.17
568.811	47061.81
569.01	47340.33
569.208	46814.01
569.407	47315.76
569.605	46805.81
569.804	47254.32
570.002	46709.56
570.201	47082.29
570.4	46357.31
570.598	46308.16
570.797	45933.38
570.995	46701.37
571.193	45888.32
571.392	46625.59
571.59	46322.49
571.789	46240.57
571.987	45974.34
572.186	45953.86
572.384	46076.74
572.582	45910.85
572.781	45863.75
572.979	45601.61
573.177	45900.61
573.376	45652.81
573.574	45079.38
573.772	45873.99
573.971	45241.17
574.169	45212.49
574.367	44696.41
574.565	45499.21
574.763	44735.32
574.962	44677.97
575.16	44493.66
575.358	45099.86
575.556	43682.66
575.754	44833.62
575.952	44233.57
576.151	44516.18
576.349	44030.82
576.547	44090.21
576.745	44157.79
576.943	44051.3
577.141	43762.53
577.339	44059.49
577.537	44223.33
577.735	43897.7
577.933	43133.81
578.131	43766.63
578.329	43373.42
578.527	43432.81
578.725	43217.77
578.923	43617.13
579.121	42888.05
579.319	43369.32
579.516	43070.32
579.714	43131.76
579.912	42605.43
580.11	42761.08
580.308	42845.04
580.506	42933.1
580.704	41866.11
580.901	42177.4
581.099	42924.91
581.297	42105.73
581.495	41976.7
581.692	42075.01
581.89	41821.06
582.088	41859.97
582.285	41624.45
582.483	41878.4
582.681	41890.69
582.878	41429.9
583.076	40887.18
583.274	41513.86
583.471	40846.22
583.669	41317.26
583.866	40928.14
584.064	41059.21
584.262	40592.28
584.459	41259.91
584.657	40229.79
584.854	40606.61
585.052	40180.63
585.249	40383.38
585.447	40420.25
585.644	40164.25
585.841	39984.03
586.039	40719.25
586.236	39482.28
586.434	40045.47
586.631	39437.22
586.828	39695.27
587.026	39603.11
587.223	39259.05
587.42	39326.63
587.618	39445.41
587.815	38974.38
588.012	38863.79
588.21	38742.96
588.407	39304.1
588.604	38536.12
588.801	38249.4
588.999	38493.11
589.196	38491.06
589.393	38597.56
589.59	38222.78
589.787	38280.12
589.984	38124.47
590.182	37532.61
590.379	38206.39
590.576	37721.02
590.773	37901.25
590.97	37696.45
591.167	37878.72
591.364	37110.73
591.561	37317.57
591.758	37082.06
591.955	37120.97
592.152	36998.09
592.349	36674.51
592.546	37077.96
592.743	37166.02
592.94	36299.73
593.137	36449.24
593.334	37086.15
593.531	36023.26
593.727	36303.83
593.924	36154.33
594.121	35994.59
594.318	36295.64
594.515	35677.15
594.712	35898.33
594.908	35851.23
595.105	35806.17
595.302	35267.56
595.499	35351.52
595.696	35505.12
595.892	35066.86
596.089	34978.79
596.286	35376.1
596.482	34999.27
596.679	34751.47
596.876	34753.52
597.072	34681.84
597.269	34386.93
597.466	34505.71
597.662	34229.24
597.859	34538.48
598.055	34145.27
598.252	34229.24
598.448	34309.11
598.645	33905.66
598.841	33604.61
599.038	33715.2
599.234	33836.03
599.431	33405.95
599.627	33502.21
599.824	33770.49
600.02	32887.82
600.217	33086.47
600.413	32992.26
600.609	33379.33
600.806	32848.91
601.002	33147.91
601.198	32736.27
601.395	32467.98
601.591	32355.35
601.787	32697.36
601.984	32119.83
602.18	32680.97
602.376	32216.08
602.572	32162.84
602.769	32101.4
602.965	31577.12
603.161	31763.48
603.357	31839.26
603.553	31603.74
603.75	31550.49
603.946	31099.94
604.142	31816.73
604.338	30903.34
604.534	31194.15
604.73	30811.18
604.926	31015.97
605.122	31323.17
605.318	30764.07
605.514	30247.99
605.71	30694.44
605.906	30293.04
606.102	30385.2
606.298	30452.78
606.494	30250.03
606.69	30569.52
606.886	30286.9
607.082	30166.07
607.278	30155.83
607.474	29779
607.67	30379.06
607.866	29680.7
608.062	30063.67
608.257	29545.53
608.453	29727.8
608.649	29803.58
608.845	29586.49
609.041	29307.97
609.236	29453.37
609.432	29107.27
609.628	29137.99
609.824	29269.06
610.019	29277.25
610.215	29070.4
610.411	29260.87
610.606	29080.64
610.802	29256.77
610.998	29242.43
611.193	28871.75
611.389	28568.65
611.584	28890.18
611.78	28789.83
611.976	28652.62
612.171	28800.07
612.367	28351.57
612.562	28554.32
612.758	28077.14
612.953	28116.05
613.149	28585.04
613.344	28218.45
613.539	28789.83
613.735	28347.47
613.93	28349.52
614.126	28132.43
614.321	28167.25
614.517	28304.46
614.712	28177.49
614.907	27911.25
615.103	28234.83
615.298	27712.6
615.493	28288.08
615.688	27561.05
615.884	28232.79
616.079	27591.77
616.274	27858.01
616.47	27509.85
616.665	27593.82
616.86	27538.52
617.055	27315.3
617.25	27647.07
617.445	27581.53
617.641	27051.11
617.836	27350.11
618.031	26831.97
618.226	27165.79
618.421	26858.6
618.616	27227.23
618.811	26608.75
619.006	26803.3
619.201	26293.36
619.396	26467.44
619.591	26090.61
619.786	26532.97
619.981	26119.28
620.176	26483.82
620.371	25832.57
620.566	26229.87
620.761	25928.82
620.956	26123.38
621.151	25668.73
621.346	25875.57
621.541	25177.22
621.735	25517.18
621.93	25379.96
622.125	25398.4
622.32	24855.68
622.515	24630.41
622.709	24485
622.904	24620.17
623.099	24478.86
623.294	24558.73
623.488	24071.31
623.683	24237.2
623.878	24040.59
624.072	23743.64
624.267	24001.68
624.462	23651.48
624.656	23606.42
624.851	23463.07
625.046	23381.15
625.24	23055.52
625.435	22893.73
625.629	23035.04
625.824	22617.25
626.018	22893.73
626.213	22135.98
626.407	22590.63
626.602	22275.24
626.796	22310.06
626.991	22103.21
627.185	22217.9
627.38	21787.83
627.574	21894.32
627.768	21613.75
627.963	21814.45
628.157	21361.85
628.352	21439.67
628.546	21136.57
628.74	21236.92
628.935	21034.18
629.129	20823.23
629.323	20595.91
629.517	20698.31
629.712	20792.51
629.906	20331.72
630.1	20051.15
630.294	20311.24
630.489	20178.12
630.683	20102.35
630.877	19872.98
631.071	19629.27
631.265	19782.87
631.459	19893.46
631.653	19168.48
631.848	19350.74
632.042	19266.78
632.236	19203.29
632.43	18887.9
632.624	19168.48
632.818	18947.29
633.012	18900.19
633.206	18703.59
633.4	18543.85
633.594	18347.24
633.788	18529.51
633.982	18500.84
634.176	18052.33
634.369	18109.68
634.563	18203.88
634.757	18042.09
634.951	17880.3
635.145	17784.05
635.339	17906.93
635.533	17544.44
635.726	17530.1
635.92	17212.67
636.114	17392.89
636.308	17319.16
636.501	17169.66
636.695	17079.55
636.889	17057.02
637.083	16946.43
637.276	16895.23
637.47	16426.25
637.664	16719.1
637.857	16876.8
638.051	16530.69
638.244	16172.3
638.438	16250.12
638.632	16411.91
638.825	16145.67
639.019	16110.86
639.212	15844.62
639.406	15856.91
639.599	15818
639.793	15990.03
639.986	15562
640.18	15664.4
640.373	15625.49
640.567	15424.79
640.76	15514.9
640.954	15213.85
641.147	15021.34
641.34	14820.64
641.534	14871.84
641.727	14724.38
641.92	14937.37
642.114	14714.14
642.307	14556.45
642.5	14617.89
642.694	14597.41
642.887	14384.42
643.08	14466.34
643.273	14411.04
643.467	14368.04
643.66	14193.96
643.853	14200.1
644.046	13944.11
644.239	13987.11
644.432	13772.08
644.626	13858.09
644.819	13684.02
645.012	13950.25
645.205	13774.13
645.398	13661.49
645.591	13554.99
645.784	13452.59
645.977	13393.2
646.17	13438.26
646.363	13266.23
646.556	13008.19
646.749	13157.69
646.942	13034.81
647.135	12879.16
647.328	12993.85
647.521	12852.54
647.714	12444.99
647.907	12780.86
648.099	12608.83
648.292	12811.58
648.485	12496.19
648.678	12246.34
648.871	12301.64
649.064	12365.12
649.256	12176.71
649.449	12346.69
649.642	12223.81
649.835	12076.36
650.027	11980.11
650.22	11918.67
650.413	11765.07
650.605	11904.33
650.798	11779.4
650.991	11629.9
651.183	11543.89
651.376	11386.19
651.568	11586.9
651.761	11488.59
651.954	11406.67
652.146	11328.85
652.339	11253.08
652.531	11343.19
652.724	11222.36
652.916	10745.18
653.109	11201.88
653.301	10921.31
653.494	11009.37
653.686	10749.28
653.879	10960.22
654.071	10859.87
654.263	10511.71
654.456	10644.83
654.648	10634.59
654.84	10374.5
655.033	10323.3
655.225	10448.22
655.417	10376.55
655.61	10435.94
655.802	10419.55
655.994	10241.38
656.186	10329.44
656.379	10317.15
656.571	10044.77
656.763	9956.71
656.955	9790.83
657.148	9874.79
657.34	9991.53
657.532	9622.89
657.724	9713
657.916	9813.35
658.108	9805.16
658.3	9727.34
658.492	9594.22
658.684	9670
658.876	9547.12
659.068	9504.11
659.26	9377.14
659.452	9254.26
659.644	9428.34
659.836	9219.44
660.028	9266.55
660.22	9368.95
660.412	9076.09
660.604	9035.13
660.796	8977.78
660.988	8918.39
661.18	8973.69
661.372	8854.9
661.563	8922.49
661.755	8758.65
661.947	8650.11
662.139	8707.45
662.331	8732.03
662.522	8586.62
662.714	8351.1
662.906	8502.65
663.097	8488.32
663.289	8332.67
663.481	8306.05
663.673	8490.37
663.864	8172.93
664.056	8330.62
664.247	8164.74
664.439	8009.09
664.631	8101.25
664.822	8152.45
665.014	8009.09
665.205	7959.94
665.397	7816.58
665.588	8076.68
665.78	8033.67
665.971	7820.68
666.163	7832.97
666.354	7667.08
666.546	7593.36
666.737	7685.51
666.929	7730.57
667.12	7515.53
667.311	7464.33
667.503	7560.59
667.694	7640.46
667.885	7454.09
668.077	7376.27
668.268	7212.43
668.459	7179.67
668.651	7490.96
668.842	7247.25
669.033	7308.69
669.224	7148.95
669.416	6995.35
669.607	7173.52
669.798	7089.56
669.989	7042.45
670.18	7171.47
670.371	6935.96
670.563	7003.54
670.754	6966.68
670.945	6770.07
671.136	6929.81
671.327	6751.64
671.518	6778.26
671.709	6700.44
671.9	6776.22
672.091	6729.11
672.282	6684.06
672.473	6518.17
672.664	6598.04
672.855	6589.85
673.046	6567.32
673.237	6509.98
673.428	6344.1
673.619	6581.66
673.809	6440.35
674	6352.29
674.191	6387.1
674.382	6466.97
674.573	6454.69
674.764	6426.01
674.954	6356.38
675.145	6178.21
675.336	6413.73
675.527	6264.22
675.717	6274.46
675.908	6163.87
676.099	6178.21
676.289	6239.65
676.48	6006.18
676.671	6102.43
676.861	6141.35
677.052	6026.66
677.243	5918.12
677.433	5946.79
677.624	6094.24
677.814	5991.84
678.005	5975.46
678.195	5854.63
678.386	5828.01
678.576	5711.27
678.767	5709.22
678.957	5813.67
679.148	5862.82
679.338	5848.49
679.529	5834.15
679.719	5873.06
679.909	5709.22
680.1	5639.59
680.29	5664.17
680.481	5698.99
680.671	5594.54
680.861	5518.76
681.052	5322.16
681.242	5453.23
681.432	5703.08
681.622	5545.39
681.813	5461.42
682.003	5545.39
682.193	5567.92
682.383	5561.77
682.573	5371.31
682.764	5318.06
682.954	5422.51
683.144	5461.42
683.334	5246.38
683.524	5246.38
683.714	5326.25
683.904	5404.08
684.094	5240.24
684.284	5260.72
684.474	5162.42
684.664	5303.73
684.854	5113.27
685.044	5121.46
685.234	5039.54
685.424	5129.65
685.614	5113.27
685.804	5060.02
685.994	5039.54
686.184	4953.52
686.374	5156.27
686.564	5010.87
686.753	4910.52
686.943	4847.03
687.133	4877.75
687.323	4705.72
687.513	4820.41
687.702	4869.56
687.892	4834.74
688.082	4943.28
688.272	4885.94
688.461	4898.23
688.651	4865.46
688.841	4695.48
689.03	4607.42
689.22	4580.79
689.41	4629.95
689.599	4470.2
689.789	4490.68
689.979	4500.92
690.168	4732.34
690.358	4353.47
690.547	4552.12
690.737	4371.9
690.926	4410.81
691.116	4277.69
691.305	4353.47
691.495	4292.03
691.684	4357.57
691.874	4242.88
692.063	4357.57
692.252	4238.78
692.442	4302.27
692.631	4294.08
692.82	4183.49
693.01	4054.47
693.199	4099.52
693.388	4033.99
693.578	4076.99
693.767	4228.54
693.956	3937.73
694.146	4050.37
694.335	3915.2
694.524	3947.97
694.713	3909.06
694.902	3923.4
695.092	3909.06
695.281	4001.22
695.47	3898.82
695.659	3876.29
695.848	3792.33
696.037	3816.9
696.226	3892.68
696.415	3829.19
696.604	3792.33
696.793	3786.18
696.982	3679.69
697.171	3685.83
697.36	3710.41
697.549	3677.64
697.738	3673.54
697.927	3612.1
698.116	3614.15
698.305	3644.87
698.494	3624.39
698.683	3593.67
698.872	3622.34
699.061	3589.58
699.25	3587.53
699.438	3413.45
699.627	3519.95
699.816	3468.75
700.005	3433.93
700.193	3505.61
700.382	3446.22
700.571	3468.75
700.76	3452.36
700.948	3399.12
701.137	3411.4
701.326	3452.36
701.514	3306.96
701.703	3337.68
701.892	3296.72
702.08	3384.78
702.269	3372.49
702.457	3352.01
702.646	3423.69
702.834	3222.99
703.023	3257.81
703.212	3208.66
703.4	3325.39
703.589	3214.8
703.777	3227.09
703.965	3368.4
704.154	3225.04
704.342	3261.9
704.531	3079.63
704.719	3122.64
704.907	3241.42
705.096	3263.95
705.284	3184.08
705.472	3014.1
705.661	3227.09
705.849	3278.29
706.037	3216.85
706.226	3132.88
706.414	3161.55
706.602	3108.3
706.79	3030.48
706.979	3044.82
707.167	3016.15
707.355	3081.68
707.543	3050.96
707.731	3169.74
707.919	3132.88
708.107	3089.87
708.296	3038.67
708.484	2985.43
708.672	3053.01
708.86	3087.82
709.048	3032.53
709.236	2954.71
709.424	2936.28
709.612	2973.14
709.8	2874.84
709.988	3069.39
710.176	3026.39
710.364	2932.18
710.551	2969.04
710.739	3055.06
710.927	2903.51
711.115	2969.04
711.303	2928.08
711.491	3069.39
711.679	3010
711.866	2858.45
712.054	2895.32
712.242	2956.75
712.43	2903.51
712.617	2942.42
712.805	2901.46
712.993	2991.57
713.181	2831.83
713.368	2926.04
713.556	3077.59
713.744	2907.6
713.931	2989.52
714.119	2788.82
714.306	2809.3
714.494	2876.88
714.682	2921.94
714.869	2766.29
715.057	2915.8
715.244	2837.97
715.432	2923.99
715.619	2909.65
715.807	2768.34
715.994	2897.36
716.182	2780.63
716.369	2829.78
716.556	2756.05
716.744	2831.83
716.931	2794.97
717.119	2866.64
717.306	2780.63
717.493	2751.96
717.681	2792.92
717.868	2782.68
718.055	2784.73
718.242	2903.51
718.43	2872.79
718.617	2815.45
718.804	2854.36
718.991	2803.16
719.179	2794.97
719.366	2817.49
719.553	2784.73
719.74	2799.06
719.927	2772.44
720.114	2780.63
720.301	2743.77
720.488	2553.31
720.676	2643.42
720.863	2815.45
721.05	2776.53
721.237	2784.73
721.424	2774.49
721.611	2684.38
721.798	2754.01
721.985	2770.39
722.172	2682.33
722.358	2661.85
722.545	2778.58
722.732	2706.9
722.919	2758.1
723.106	2733.53
723.293	2649.56
723.48	2692.57
723.667	2784.73
723.853	2614.74
724.04	2729.43
724.227	2641.37
724.414	2719.19
724.6	2676.18
724.787	2690.52
724.974	2678.23
725.161	2721.24
725.347	2737.62
725.534	2729.43
725.72	2854.36
725.907	2653.66
726.094	2739.67
726.28	2721.24
726.467	2663.9
726.653	2743.77
726.84	2825.68
727.027	2741.72
727.213	2575.83
727.4	2754.01
727.586	2676.18
727.773	2614.74
727.959	2721.24
728.145	2809.3
728.332	2670.04
728.518	2770.39
728.705	2745.81
728.891	2799.06
729.077	2575.83
729.264	2704.85
729.45	2653.66
729.636	2715.09
729.823	2627.03
730.009	2741.72
730.195	2731.48
730.382	2751.96
730.568	2735.57
730.754	2768.34
730.94	2731.48
731.126	2817.49
731.313	2760.15
731.499	2790.87
731.685	2782.68
731.871	2633.18
732.057	2768.34
732.243	2614.74
732.429	2764.25
732.615	2766.29
732.801	2719.19
732.987	2809.3
733.173	2776.53
733.359	2688.47
733.545	2727.38
733.731	2727.38
733.917	2680.28
734.103	2874.84
734.289	2778.58
734.475	2704.85
734.661	2663.9
734.847	2794.97
735.033	2780.63
735.219	2633.18
735.404	2762.2
735.59	2661.85
735.776	2696.66
735.962	2827.73
736.148	2764.25
736.333	2751.96
736.519	2704.85
736.705	2762.2
736.89	2680.28
737.076	2768.34
737.262	2577.88
737.447	2713.05
737.633	2682.33
737.819	2745.81
738.004	2647.51
738.19	2686.42
738.375	2661.85
738.561	2633.18
738.747	2772.44
738.932	2657.75
739.118	2719.19
739.303	2745.81
739.489	2758.1
739.674	2672.09
739.859	2733.53
740.045	2702.81
740.23	2672.09
740.416	2594.26
740.601	2684.38
740.786	2674.14
740.972	2659.8
741.157	2635.22
741.342	2594.26
741.528	2622.94
741.713	2647.51
741.898	2676.18
742.084	2530.78
742.269	2665.94
742.454	2661.85
742.639	2541.02
742.824	2489.82
743.01	2618.84
743.195	2635.22
743.38	2543.07
743.565	2524.63
743.75	2473.43
743.935	2543.07
744.12	2602.46
744.305	2553.31
744.49	2356.7
744.675	2452.95
744.86	2493.91
745.045	2461.15
745.23	2475.48
745.415	2467.29
745.6	2500.06
745.785	2438.62
745.97	2524.63
746.155	2473.43
746.34	2344.41
746.525	2342.36
746.71	2409.95
746.895	2395.61
747.079	2379.23
747.264	2397.66
747.449	2276.83
747.634	2346.46
747.819	2317.79
748.003	2264.54
748.188	2258.4
748.373	2252.25
748.557	2295.26
748.742	2282.97
748.927	2227.68
749.111	2237.92
749.296	2176.48
749.481	2168.29
749.665	2205.15
749.85	2199.01
750.034	2096.61
750.219	2239.97
750.404	2176.48
750.588	2178.53
750.773	2078.18
750.957	2244.06
751.141	2049.5
751.326	2143.71
751.51	1924.58
751.695	2141.66
751.879	1981.92
752.064	2045.41
752.248	2057.7
752.432	2008.55
752.617	2049.5
752.801	2098.66
752.985	1930.72
753.17	2045.41
753.354	1963.49
753.538	1955.3
753.722	1916.39
753.907	1945.06
754.091	1897.96
754.275	1869.28
754.459	1893.86
754.643	1781.22
754.828	1795.56
755.012	1793.51
755.196	1947.11
755.38	1869.28
755.564	1756.65
755.748	1826.28
755.932	1820.13
756.116	1746.41
756.3	1738.21
756.484	1871.33
756.668	1719.78
756.852	1752.55
757.036	1629.67
757.22	1736.17
757.404	1676.77
757.588	1652.2
757.772	1799.65
757.956	1662.44
758.14	1697.25
758.323	1648.1
758.507	1603.05
758.691	1629.67
758.875	1555.94
759.059	1658.34
759.242	1543.66
759.426	1592.81
759.61	1605.1
759.794	1605.1
759.977	1543.66
760.161	1586.66
760.345	1490.41
760.528	1566.18
760.712	1496.55
760.895	1545.7
761.079	1533.42
761.263	1545.7
761.446	1535.46
761.63	1416.68
761.813	1570.28
761.997	1510.89
762.18	1428.97
762.364	1463.79
762.547	1424.87
762.731	1410.54
762.914	1437.16
763.098	1385.96
763.281	1336.81
763.464	1404.39
763.648	1408.49
763.831	1433.07
764.015	1345
764.198	1445.35
764.381	1347.05
764.564	1349.1
764.748	1424.87
764.931	1392.11
765.114	1334.76
765.297	1426.92
765.481	1316.33
765.664	1351.15
765.847	1351.15
766.03	1342.96
766.213	1302
766.397	1332.72
766.58	1308.14
766.763	1306.09
766.946	1340.91
767.129	1242.61
767.312	1203.69
767.495	1201.65
767.678	1236.46
767.861	1226.22
768.044	1316.33
768.227	1252.84
768.41	1238.51
768.593	1191.41
768.776	1244.65
768.959	1254.89
769.142	1150.45
769.324	1078.77
769.507	1115.63
769.69	1269.23
769.873	1172.97
770.056	1203.69
770.239	1074.67
770.421	1156.59
770.604	1203.69
770.787	1129.97
770.97	1093.1
771.152	1170.93
771.335	1148.4
771.518	1168.88
771.7	1134.06
771.883	1082.86
772.066	1101.3
772.248	1109.49
772.431	1140.21
772.613	1082.86
772.796	1068.53
772.978	1105.39
773.161	1074.67
773.343	1111.54
773.526	1084.91
773.708	1007.09
773.891	972.27
774.073	916.98
774.256	1070.58
774.438	988.66
774.621	1023.47
774.803	949.75
774.985	947.7
775.168	1033.71
775.35	947.7
775.532	1031.66
775.715	1000.94
775.897	1039.86
776.079	847.35
776.261	978.42
776.444	937.46
776.626	882.16
776.808	941.55
776.99	916.98
777.173	962.03
777.355	951.79
777.537	937.46
777.719	986.61
777.901	841.2
778.083	929.27
778.265	814.58
778.447	792.05
778.629	867.83
778.811	863.73
778.993	855.54
779.175	828.92
779.357	847.35
779.539	783.86
779.721	843.25
779.903	812.53
780.085	732.66
780.267	759.28
780.449	722.42
780.631	812.53
780.812	894.45
780.994	683.51
781.176	716.28
781.358	673.27
781.54	710.13
781.721	824.82
781.903	777.72
782.085	773.62
782.267	706.04
782.448	701.94
782.63	718.33
782.812	706.04
782.993	693.75
783.175	790
783.357	620.02
783.538	697.85
783.72	695.8
783.901	689.65
784.083	617.97
784.264	710.13
784.446	605.69
784.627	685.56
784.809	663.03
784.99	652.79
785.172	650.74
785.353	669.17
785.535	572.92
785.716	624.12
785.897	556.54
786.079	630.26
786.26	531.96
786.441	679.41
786.623	581.11
786.804	572.92
786.985	568.82
787.167	597.49
787.348	470.52
787.529	566.78
787.71	617.97
787.891	626.17
788.073	634.36
788.254	538.1
788.435	654.84
788.616	503.29
788.797	515.58
788.978	503.29
789.159	540.15
789.34	511.48
789.522	527.86
789.703	503.29
789.884	589.3
790.065	548.34
790.246	548.34
790.427	548.34
790.607	529.91
790.788	540.15
790.969	470.52
791.15	531.96
791.331	497.14
791.512	419.32
791.693	427.51
791.874	417.27
792.054	544.25
792.235	478.71
792.416	501.24
792.597	525.82
792.778	476.66
792.958	415.23
793.139	404.99
793.32	419.32
793.5	439.8
793.681	427.51
793.862	411.13
794.042	431.61
794.223	404.99
794.404	382.46
794.584	421.37
794.765	474.62
794.945	402.94
795.126	398.84
795.306	464.38
795.487	372.22
795.667	392.7
795.848	423.42
796.028	460.28
796.209	392.7
796.389	456.19
796.57	437.75
796.75	402.94
796.93	441.85
797.111	421.37
797.291	458.23
797.471	368.12
797.652	359.93
797.832	353.79
798.012	407.03
798.192	298.49
798.373	327.16
798.553	304.64
798.733	390.65
798.913	341.5
799.093	421.37
799.274	366.07
799.454	386.55
799.634	392.7
799.814	380.41
799.994	364.03
800.174	382.46
800.354	396.79
800.534	318.97
800.714	343.55
800.894	378.36
801.074	222.72
801.254	402.94
801.434	355.83
801.614	335.35
801.794	343.55
801.974	630.26
802.154	292.35
802.334	294.4
802.514	296.44
802.693	345.59
802.873	341.5
803.053	261.63
803.233	224.76
803.413	298.49
803.592	361.98
803.772	310.78
803.952	296.44
804.131	308.73
804.311	253.44
804.491	265.72
804.67	224.76
804.85	339.45
805.03	288.25
805.209	316.92
805.389	284.16
805.568	185.85
805.748	302.59
805.928	257.53
806.107	331.26
806.287	318.97
806.466	351.74
806.646	306.68
806.825	257.53
807.004	286.2
807.184	241.15
807.363	251.39
807.543	257.53
807.722	185.85
807.901	230.91
808.081	278.01
808.26	296.44
808.439	294.4
808.619	253.44
808.798	237.05
808.977	298.49
809.156	243.2
809.336	179.71
809.515	284.16
809.694	228.86
809.873	224.76
810.052	284.16
810.231	286.2
810.411	316.92
810.59	288.25
810.769	206.33
810.948	273.92
811.127	318.97
811.306	235
811.485	226.81
811.664	224.76
811.843	218.62
812.022	263.68
812.201	308.73
812.38	167.42
812.559	200.19
812.737	249.34
812.916	212.48
813.095	251.39
813.274	265.72
813.453	179.71
813.632	165.37
813.811	196.09
813.989	224.76
814.168	173.57
814.347	271.87
814.526	278.01
814.704	247.29
814.883	269.82
815.062	202.24
815.24	261.63
815.419	114.17
815.598	216.57
815.776	181.76
815.955	224.76
816.133	103.93
816.312	310.78
816.49	116.22
816.669	185.85
816.847	206.33
817.026	232.96
817.204	161.28
817.383	235
817.561	220.67
817.74	177.66
817.918	177.66
818.097	218.62
818.275	153.09
818.453	200.19
818.632	148.99
818.81	192
818.988	185.85
819.167	185.85
819.345	167.42
819.523	146.94
819.701	169.47
819.879	175.61
820.058	169.47
820.236	200.19
820.414	241.15
820.592	218.62
820.77	126.46
820.948	189.95
821.127	175.61
821.305	144.89
821.483	159.23
821.661	192
821.839	132.61
822.017	130.56
822.195	114.17
822.373	183.81
822.551	163.33
822.729	140.8
822.907	169.47
823.085	196.09
823.262	183.81
823.44	202.24
823.618	114.17
823.796	157.18
823.974	144.89
824.152	142.85
824.329	212.48
824.507	167.42
824.685	181.76
824.863	103.93
825.04	140.8
825.218	206.33
825.396	161.28
825.574	71.17
825.751	118.27
825.929	118.27
826.107	114.17
826.284	220.67
826.462	124.41
826.639	142.85
826.817	108.03
826.994	126.46
827.172	69.12
827.349	167.42
827.527	183.81
827.704	151.04
827.882	167.42
828.059	81.41
828.237	198.14
828.414	95.74
828.591	161.28
828.769	171.52
828.946	71.17
829.124	83.45
829.301	177.66
829.478	144.89
829.655	183.81
829.833	163.33
830.01	140.8
830.187	204.28
830.364	108.03
830.542	138.75
830.719	128.51
830.896	118.27
831.073	97.79
831.25	128.51
831.427	97.79
831.604	175.61
831.782	148.99
831.959	93.69
832.136	130.56
832.313	128.51
832.49	95.74
832.667	122.37
832.844	165.37
833.021	239.1
833.198	116.22
833.374	108.03
833.551	177.66
833.728	46.59
833.905	124.41
834.082	48.64
834.259	79.36
834.436	128.51
834.612	54.78
834.789	108.03
834.966	93.69
835.143	122.37
835.319	77.31
835.496	81.41
835.673	110.08
835.85	161.28
836.026	138.75
836.203	105.98
836.38	46.59
836.556	65.02
836.733	87.55
836.909	85.5
837.086	114.17
837.262	101.89
837.439	165.37
837.616	97.79
837.792	77.31
837.968	130.56
838.145	60.93
838.321	85.5
838.498	75.26
838.674	91.65
838.851	128.51
839.027	87.55
839.203	36.35
839.38	140.8
839.556	122.37
839.732	134.65
839.909	85.5
840.085	38.4
840.261	24.06
840.437	142.85
840.614	50.69
840.79	50.69
840.966	93.69
841.142	40.45
841.318	110.08
841.494	56.83
841.671	120.32
841.847	146.94
842.023	50.69
842.199	91.65
842.375	24.06
842.551	52.74
842.727	3.58
842.903	101.89
843.079	108.03
843.255	124.41
843.431	58.88
843.607	148.99
843.783	40.45
843.959	17.92
844.134	126.46
844.31	24.06
844.486	52.74
844.662	62.98
844.838	50.69
845.013	163.33
845.189	34.3
845.365	124.41
845.541	54.78
845.716	126.46
845.892	89.6
846.068	79.36
846.244	77.31
846.419	177.66
846.595	46.59
846.77	79.36
846.946	46.59
847.122	50.69
847.297	114.17
847.473	103.93
847.648	-8.7
847.824	30.21
847.999	-27.14
848.175	50.69
848.35	140.8
848.526	48.64
848.701	56.83
848.876	69.12
849.052	58.88
849.227	42.5
849.403	32.26
849.578	42.5
849.753	50.69
849.929	103.93
850.104	75.26
850.279	110.08
850.454	73.21
850.63	48.64
850.805	110.08
850.98	-2.56
851.155	71.17
851.33	110.08
851.505	48.64
851.681	85.5
851.856	71.17
852.031	58.88
852.206	32.26
852.381	89.6
852.556	38.4
852.731	60.93
852.906	65.02
853.081	13.82
853.256	50.69
853.431	83.45
853.606	69.12
853.781	79.36
853.956	42.5
854.131	48.64
854.305	26.11
854.48	99.84
854.655	67.07
854.83	36.35
855.005	15.87
855.18	30.21
855.354	15.87
855.529	71.17
855.704	60.93
855.879	65.02
856.053	15.87
856.228	75.26
856.403	-16.9
856.577	58.88
856.752	77.31
856.926	52.74
857.101	58.88
857.276	5.63
857.45	32.26
857.625	60.93
857.799	69.12
857.974	79.36
858.148	36.35
858.323	79.36
858.497	26.11
858.672	26.11
858.846	93.69
859.02	65.02
859.195	-39.42
859.369	60.93
859.543	46.59
859.718	108.03
859.892	-0.51
860.066	122.37
860.241	1.54
860.415	71.17
860.589	54.78
860.763	11.78
860.938	138.75
861.112	93.69
861.286	-29.18
861.46	38.4
861.634	13.82
861.808	136.7
861.982	5.63
862.157	-49.66
862.331	77.31
862.505	-16.9
862.679	54.78
862.853	13.82
863.027	75.26
863.201	26.11
863.375	-74.24
863.549	95.74
863.722	103.93
863.896	75.26
864.07	46.59
864.244	116.22
864.418	-8.7
864.592	22.02
864.766	50.69
864.939	-4.61
865.113	19.97
865.287	38.4
865.461	77.31
865.634	44.54
865.808	73.21
865.982	19.97
866.156	-68.09
866.329	112.13
866.503	42.5
866.676	108.03
866.85	60.93
867.024	-59.9
867.197	85.5
867.371	56.83
867.544	28.16
867.718	44.54
867.891	30.21
868.065	40.45
868.238	58.88
868.412	60.93
868.585	65.02
868.759	56.83
868.932	11.78
869.105	26.11
869.279	15.87
869.452	28.16
869.625	52.74
869.799	75.26
869.972	-14.85
870.145	60.93
870.319	26.11
870.492	28.16
870.665	48.64
870.838	9.73
871.011	-12.8
871.185	58.88
871.358	-12.8
871.531	-31.23
871.704	60.93
871.877	73.21
872.05	-0.51
872.223	40.45
872.396	-57.86
872.569	77.31
872.742	9.73
872.915	65.02
873.088	42.5
873.261	-20.99
873.434	22.02
873.607	67.07
873.78	73.21
873.953	11.78
874.126	-2.56
874.299	19.97
874.471	-2.56
874.644	50.69
874.817	81.41
874.99	112.13
875.163	9.73
875.335	58.88
875.508	58.88
875.681	54.78
875.853	17.92
876.026	15.87
876.199	42.5
876.371	108.03
876.544	-8.7
876.717	44.54
876.889	-57.86
877.062	56.83
877.234	77.31
877.407	67.07
877.579	26.11
877.752	75.26
877.924	38.4
878.097	81.41
878.269	69.12
878.442	15.87
878.614	67.07
878.786	-8.7
878.959	69.12
879.131	38.4
879.303	112.13
879.476	11.78
879.648	38.4
879.82	-14.85
879.993	-8.7
880.165	32.26
880.337	48.64
880.509	52.74
880.681	69.12
880.854	9.73
881.026	101.89
881.198	87.55
881.37	5.63
881.542	58.88
881.714	-8.7
881.886	28.16
882.058	11.78
882.23	5.63
882.402	36.35
882.574	67.07
882.746	67.07
882.918	36.35
883.09	83.45
883.262	-10.75
883.434	48.64
883.606	44.54
883.778	103.93
883.95	101.89
884.122	-16.9
884.293	73.21
884.465	-4.61
884.637	38.4
884.809	52.74
884.98	40.45
885.152	40.45
885.324	-6.66
885.496	40.45
885.667	11.78
885.839	-57.86
886.011	7.68
886.182	75.26
886.354	108.03
886.525	34.3
886.697	62.98
886.869	-18.94
887.04	52.74
887.212	28.16
887.383	56.83
887.555	-6.66
887.726	46.59
887.897	11.78
888.069	-6.66
888.24	-45.57
888.412	5.63
888.583	-0.51
888.754	-8.7
888.926	-2.56
889.097	91.65
889.268	28.16
889.44	11.78
889.611	26.11
889.782	28.16
889.953	26.11
890.125	48.64
890.296	11.78
890.467	26.11
890.638	60.93
890.809	-88.57
890.98	-37.38
891.151	99.84
891.323	44.54
891.494	32.26
891.665	17.92
891.836	36.35
892.007	22.02
892.178	32.26
892.349	22.02
892.52	75.26
892.691	36.35
892.862	40.45
893.032	-35.33
893.203	32.26
893.374	24.06
893.545	11.78
893.716	26.11
893.887	126.46
894.057	15.87
894.228	101.89
894.399	-18.94
894.57	-14.85
894.74	26.11
894.911	91.65
895.082	-2.56
895.253	26.11
895.423	-6.66
895.594	34.3
895.764	9.73
895.935	58.88
896.106	26.11
896.276	-2.56
896.447	-16.9
896.617	34.3
896.788	48.64
896.958	-8.7
897.129	58.88
897.299	-16.9
897.47	34.3
897.64	65.02
897.81	-43.52
897.981	36.35
898.151	58.88
898.322	-2.56
898.492	54.78
898.662	9.73
898.832	7.68
899.003	22.02
899.173	19.97
899.343	30.21
899.513	9.73
