Data from USB4F104151__75__11-45-30-288.txt Node

Date: Fri Mar 14 11:45:30 EDT 2025
User: louis
Spectrometer: USB4F10415
Trigger mode: 4
Integration Time (sec): 2.000000E-2
Scans to average: 1
Electric dark correction enabled: true
Nonlinearity correction enabled: false
Boxcar width: 0
XAxis mode: Wavelengths
Number of Pixels in Spectrum: 3648
>>>>>Begin Spectral Data<<<<<
178.204	-126.46
178.424	-126.46
178.644	-126.46
178.864	-124.41
179.084	-58.88
179.304	-17.92
179.524	33.28
179.744	-52.74
179.964	2.56
180.184	33.28
180.404	-48.64
180.624	57.86
180.844	57.86
181.064	-24.06
181.283	-28.16
181.503	-1.54
181.723	-11.78
181.943	-69.12
182.163	10.75
182.383	35.33
182.602	12.8
182.822	129.53
183.042	-48.64
183.262	-17.92
183.482	-32.26
183.701	-9.73
183.921	70.14
184.141	-34.3
184.361	2.56
184.58	-48.64
184.8	-46.59
185.02	-15.87
185.239	23.04
185.459	33.28
185.679	-7.68
185.898	-19.97
186.118	70.14
186.338	-26.11
186.557	82.43
186.777	-11.78
186.997	-38.4
187.216	-30.21
187.436	57.86
187.655	8.7
187.875	-5.63
188.095	-52.74
188.314	45.57
188.534	-65.02
188.753	47.62
188.973	12.8
189.192	92.67
189.412	8.7
189.631	43.52
189.851	55.81
190.07	35.33
190.29	20.99
190.509	57.86
190.729	16.9
190.948	47.62
191.168	129.53
191.387	74.24
191.607	-11.78
191.826	45.57
192.045	0.51
192.265	14.85
192.484	59.9
192.704	-71.17
192.923	29.18
193.142	12.8
193.362	-38.4
193.581	20.99
193.8	-11.78
194.02	47.62
194.239	35.33
194.458	12.8
194.678	-26.11
194.897	33.28
195.116	-38.4
195.335	-5.63
195.555	33.28
195.774	25.09
195.993	59.9
196.212	80.38
196.432	-15.87
196.651	121.34
196.87	96.77
197.089	45.57
197.308	-52.74
197.528	29.18
197.747	-1.54
197.966	27.14
198.185	94.72
198.404	33.28
198.623	39.42
198.842	76.29
199.062	64
199.281	68.09
199.5	33.28
199.719	10.75
199.938	31.23
200.157	86.53
200.376	6.66
200.595	-40.45
200.814	-60.93
201.033	51.71
201.252	123.39
201.471	10.75
201.69	-1.54
201.909	27.14
202.128	51.71
202.347	-65.02
202.566	-17.92
202.785	43.52
203.004	-3.58
203.223	82.43
203.442	-3.58
203.661	20.99
203.879	-5.63
204.098	33.28
204.317	45.57
204.536	-19.97
204.755	39.42
204.974	18.94
205.193	-5.63
205.411	-38.4
205.63	20.99
205.849	4.61
206.068	47.62
206.287	31.23
206.505	45.57
206.724	29.18
206.943	6.66
207.162	51.71
207.381	78.33
207.599	51.71
207.818	61.95
208.037	80.38
208.255	8.7
208.474	-3.58
208.693	57.86
208.911	-5.63
209.13	-42.5
209.349	51.71
209.567	55.81
209.786	-52.74
210.005	33.28
210.223	47.62
210.442	27.14
210.661	23.04
210.879	2.56
211.098	-36.35
211.316	16.9
211.535	90.62
211.753	23.04
211.972	33.28
212.191	-3.58
212.409	74.24
212.628	-44.54
212.846	0.51
213.065	20.99
213.283	33.28
213.502	57.86
213.72	-1.54
213.938	-36.35
214.157	2.56
214.375	6.66
214.594	-32.26
214.812	35.33
215.031	6.66
215.249	12.8
215.467	-7.68
215.686	29.18
215.904	76.29
216.122	47.62
216.341	64
216.559	-24.06
216.778	43.52
216.996	29.18
217.214	23.04
217.432	-38.4
217.651	-1.54
217.869	-48.64
218.087	-9.73
218.306	70.14
218.524	72.19
218.742	8.7
218.96	23.04
219.179	12.8
219.397	59.9
219.615	113.15
219.833	29.18
220.051	39.42
220.27	8.7
220.488	-22.02
220.706	12.8
220.924	18.94
221.142	-7.68
221.36	49.66
221.578	2.56
221.796	12.8
222.015	47.62
222.233	39.42
222.451	35.33
222.669	-30.21
222.887	25.09
223.105	92.67
223.323	53.76
223.541	-30.21
223.759	39.42
223.977	-13.82
224.195	55.81
224.413	-15.87
224.631	-15.87
224.849	-19.97
225.067	31.23
225.285	-48.64
225.503	51.71
225.721	-11.78
225.939	57.86
226.157	27.14
226.375	45.57
226.592	4.61
226.81	-17.92
227.028	76.29
227.246	16.9
227.464	-36.35
227.682	-5.63
227.9	80.38
228.117	-15.87
228.335	-3.58
228.553	43.52
228.771	33.28
228.989	47.62
229.206	37.38
229.424	57.86
229.642	27.14
229.86	41.47
230.077	41.47
230.295	16.9
230.513	-9.73
230.731	109.05
230.948	31.23
231.166	10.75
231.384	55.81
231.601	55.81
231.819	29.18
232.037	53.76
232.254	20.99
232.472	80.38
232.689	-30.21
232.907	-17.92
233.125	64
233.342	-7.68
233.56	39.42
233.777	14.85
233.995	-22.02
234.213	12.8
234.43	-1.54
234.648	47.62
234.865	12.8
235.083	45.57
235.3	-28.16
235.518	57.86
235.735	33.28
235.953	55.81
236.17	-22.02
236.388	70.14
236.605	78.33
236.822	59.9
237.04	33.28
237.257	55.81
237.475	10.75
237.692	25.09
237.909	8.7
238.127	-17.92
238.344	16.9
238.562	25.09
238.779	-48.64
238.996	-30.21
239.214	39.42
239.431	80.38
239.648	-1.54
239.865	27.14
240.083	-46.59
240.3	-3.58
240.517	6.66
240.735	16.9
240.952	111.1
241.169	14.85
241.386	-13.82
241.603	-17.92
241.821	-36.35
242.038	102.91
242.255	113.15
242.472	10.75
242.689	-65.02
242.907	-9.73
243.124	37.38
243.341	2.56
243.558	31.23
243.775	-24.06
243.992	-30.21
244.209	111.1
244.426	102.91
244.643	53.76
244.86	90.62
245.078	74.24
245.295	68.09
245.512	-46.59
245.729	57.86
245.946	14.85
246.163	53.76
246.38	72.19
246.597	80.38
246.814	-22.02
247.031	-7.68
247.248	74.24
247.464	2.56
247.681	37.38
247.898	61.95
248.115	37.38
248.332	-15.87
248.549	-11.78
248.766	-17.92
248.983	6.66
249.2	29.18
249.417	18.94
249.633	-26.11
249.85	72.19
250.067	27.14
250.284	10.75
250.501	45.57
250.717	64
250.934	6.66
251.151	27.14
251.368	111.1
251.585	4.61
251.801	43.52
252.018	-46.59
252.235	-17.92
252.451	6.66
252.668	43.52
252.885	64
253.102	115.2
253.318	4.61
253.535	-44.54
253.752	55.81
253.968	25.09
254.185	14.85
254.401	6.66
254.618	100.86
254.835	27.14
255.051	125.44
255.268	74.24
255.484	31.23
255.701	37.38
255.917	141.82
256.134	4.61
256.351	35.33
256.567	-36.35
256.784	-1.54
257	68.09
257.217	10.75
257.433	39.42
257.65	23.04
257.866	14.85
258.082	37.38
258.299	-34.3
258.515	-42.5
258.732	27.14
258.948	-71.17
259.165	-36.35
259.381	-38.4
259.597	61.95
259.814	-22.02
260.03	29.18
260.246	2.56
260.463	-11.78
260.679	66.05
260.895	45.57
261.112	10.75
261.328	-26.11
261.544	23.04
261.761	94.72
261.977	33.28
262.193	25.09
262.409	66.05
262.626	86.53
262.842	2.56
263.058	2.56
263.274	82.43
263.49	23.04
263.707	-9.73
263.923	39.42
264.139	4.61
264.355	-5.63
264.571	51.71
264.787	45.57
265.004	10.75
265.22	-15.87
265.436	18.94
265.652	-26.11
265.868	10.75
266.084	-65.02
266.3	47.62
266.516	39.42
266.732	14.85
266.948	66.05
267.164	90.62
267.38	8.7
267.596	4.61
267.812	68.09
268.028	18.94
268.244	4.61
268.46	59.9
268.676	31.23
268.892	43.52
269.108	-1.54
269.324	37.38
269.54	16.9
269.756	37.38
269.972	-15.87
270.188	-11.78
270.403	29.18
270.619	-11.78
270.835	53.76
271.051	-30.21
271.267	-77.31
271.483	80.38
271.698	10.75
271.914	-19.97
272.13	49.66
272.346	2.56
272.562	29.18
272.777	-42.5
272.993	20.99
273.209	6.66
273.425	47.62
273.64	27.14
273.856	25.09
274.072	18.94
274.287	66.05
274.503	31.23
274.719	-9.73
274.934	94.72
275.15	-62.98
275.366	-15.87
275.581	2.56
275.797	20.99
276.012	104.96
276.228	4.61
276.444	-34.3
276.659	55.81
276.875	43.52
277.09	-46.59
277.306	16.9
277.521	0.51
277.737	10.75
277.952	68.09
278.168	78.33
278.383	92.67
278.599	-28.16
278.814	43.52
279.03	14.85
279.245	20.99
279.461	12.8
279.676	55.81
279.892	27.14
280.107	41.47
280.322	-1.54
280.538	27.14
280.753	29.18
280.969	-28.16
281.184	-24.06
281.399	115.2
281.615	37.38
281.83	31.23
282.045	-32.26
282.26	-42.5
282.476	-24.06
282.691	4.61
282.906	-13.82
283.122	35.33
283.337	-52.74
283.552	78.33
283.767	74.24
283.983	-28.16
284.198	4.61
284.413	25.09
284.628	-5.63
284.843	8.7
285.058	-1.54
285.274	20.99
285.489	-36.35
285.704	55.81
285.919	-34.3
286.134	33.28
286.349	68.09
286.564	18.94
286.779	49.66
286.995	53.76
287.21	-7.68
287.425	39.42
287.64	57.86
287.855	98.81
288.07	18.94
288.285	39.42
288.5	64
288.715	70.14
288.93	-42.5
289.145	8.7
289.36	84.48
289.575	-44.54
289.79	18.94
290.004	-48.64
290.219	115.2
290.434	61.95
290.649	-7.68
290.864	41.47
291.079	12.8
291.294	39.42
291.509	53.76
291.724	29.18
291.938	10.75
292.153	145.92
292.368	96.77
292.583	-11.78
292.798	8.7
293.012	-15.87
293.227	45.57
293.442	66.05
293.657	45.57
293.871	33.28
294.086	6.66
294.301	31.23
294.516	57.86
294.73	96.77
294.945	20.99
295.16	31.23
295.374	10.75
295.589	86.53
295.804	39.42
296.018	61.95
296.233	-46.59
296.447	47.62
296.662	-13.82
296.877	10.75
297.091	35.33
297.306	-52.74
297.52	27.14
297.735	-38.4
297.949	12.8
298.164	78.33
298.378	98.81
298.593	8.7
298.807	-26.11
299.022	-13.82
299.236	29.18
299.451	-19.97
299.665	-46.59
299.88	-17.92
300.094	53.76
300.309	41.47
300.523	57.86
300.737	23.04
300.952	78.33
301.166	-7.68
301.381	14.85
301.595	59.9
301.809	39.42
302.024	82.43
302.238	-81.41
302.452	43.52
302.667	-11.78
302.881	68.09
303.095	29.18
303.309	35.33
303.524	-44.54
303.738	27.14
303.952	8.7
304.166	2.56
304.381	35.33
304.595	61.95
304.809	-26.11
305.023	45.57
305.237	23.04
305.452	4.61
305.666	0.51
305.88	18.94
306.094	-3.58
306.308	31.23
306.522	25.09
306.736	127.49
306.95	59.9
307.164	-9.73
307.379	-13.82
307.593	-1.54
307.807	88.57
308.021	-5.63
308.235	29.18
308.449	2.56
308.663	39.42
308.877	45.57
309.091	86.53
309.305	0.51
309.519	12.8
309.733	64
309.947	25.09
310.161	90.62
310.374	43.52
310.588	27.14
310.802	-7.68
311.016	37.38
311.23	64
311.444	10.75
311.658	47.62
311.872	51.71
312.085	43.52
312.299	31.23
312.513	18.94
312.727	-11.78
312.941	33.28
313.154	4.61
313.368	31.23
313.582	107.01
313.796	68.09
314.009	6.66
314.223	29.18
314.437	-5.63
314.651	64
314.864	-58.88
315.078	37.38
315.292	41.47
315.505	12.8
315.719	23.04
315.933	31.23
316.146	29.18
316.36	-15.87
316.573	-5.63
316.787	-1.54
317.001	-19.97
317.214	6.66
317.428	-17.92
317.641	12.8
317.855	27.14
318.068	2.56
318.282	-7.68
318.495	18.94
318.709	31.23
318.922	0.51
319.136	-38.4
319.349	53.76
319.563	-34.3
319.776	72.19
319.99	51.71
320.203	6.66
320.417	-5.63
320.63	27.14
320.843	111.1
321.057	23.04
321.27	18.94
321.483	-1.54
321.697	-7.68
321.91	45.57
322.124	72.19
322.337	43.52
322.55	0.51
322.763	33.28
322.977	49.66
323.19	86.53
323.403	0.51
323.617	59.9
323.83	14.85
324.043	33.28
324.256	-19.97
324.469	23.04
324.683	66.05
324.896	20.99
325.109	47.62
325.322	-17.92
325.535	80.38
325.748	2.56
325.962	35.33
326.175	92.67
326.388	-32.26
326.601	4.61
326.814	51.71
327.027	16.9
327.24	117.25
327.453	-38.4
327.666	90.62
327.879	-22.02
328.092	-5.63
328.305	35.33
328.518	-34.3
328.731	18.94
328.944	88.57
329.157	6.66
329.37	47.62
329.583	51.71
329.796	39.42
330.009	-5.63
330.222	47.62
330.435	53.76
330.648	43.52
330.861	-17.92
331.073	-7.68
331.286	70.14
331.499	33.28
331.712	31.23
331.925	-36.35
332.138	53.76
332.35	4.61
332.563	18.94
332.776	61.95
332.989	-36.35
333.202	10.75
333.414	41.47
333.627	16.9
333.84	4.61
334.053	-19.97
334.265	47.62
334.478	31.23
334.691	8.7
334.903	-9.73
335.116	10.75
335.329	102.91
335.541	29.18
335.754	55.81
335.966	0.51
336.179	80.38
336.392	4.61
336.604	51.71
336.817	90.62
337.029	53.76
337.242	59.9
337.454	18.94
337.667	18.94
337.88	61.95
338.092	18.94
338.305	0.51
338.517	-3.58
338.729	18.94
338.942	-7.68
339.154	-46.59
339.367	23.04
339.579	66.05
339.792	10.75
340.004	14.85
340.217	53.76
340.429	94.72
340.641	-22.02
340.854	31.23
341.066	61.95
341.278	49.66
341.491	57.86
341.703	51.71
341.915	-9.73
342.128	113.15
342.34	27.14
342.552	61.95
342.764	-1.54
342.977	82.43
343.189	4.61
343.401	59.9
343.613	-19.97
343.826	88.57
344.038	12.8
344.25	39.42
344.462	2.56
344.674	53.76
344.886	23.04
345.099	8.7
345.311	-1.54
345.523	41.47
345.735	-9.73
345.947	-1.54
346.159	-24.06
346.371	45.57
346.583	-22.02
346.795	-11.78
347.007	29.18
347.219	51.71
347.431	-44.54
347.643	74.24
347.855	86.53
348.067	33.28
348.279	-81.41
348.491	10.75
348.703	-36.35
348.915	29.18
349.127	43.52
349.339	35.33
349.551	6.66
349.763	109.05
349.975	47.62
350.187	20.99
350.399	2.56
350.61	66.05
350.822	25.09
351.034	-7.68
351.246	72.19
351.458	84.48
351.669	16.9
351.881	41.47
352.093	-36.35
352.305	14.85
352.517	2.56
352.728	51.71
352.94	102.91
353.152	-24.06
353.363	72.19
353.575	59.9
353.787	84.48
353.999	70.14
354.21	31.23
354.422	-11.78
354.633	-11.78
354.845	80.38
355.057	47.62
355.268	27.14
355.48	51.71
355.692	-36.35
355.903	-1.54
356.115	59.9
356.326	-38.4
356.538	94.72
356.749	20.99
356.961	25.09
357.172	-3.58
357.384	-22.02
357.595	68.09
357.807	0.51
358.018	98.81
358.23	4.61
358.441	78.33
358.653	59.9
358.864	33.28
359.075	4.61
359.287	51.71
359.498	51.71
359.709	12.8
359.921	70.14
360.132	45.57
360.344	74.24
360.555	4.61
360.766	86.53
360.977	86.53
361.189	57.86
361.4	-11.78
361.611	29.18
361.823	37.38
362.034	64
362.245	41.47
362.456	27.14
362.667	104.96
362.879	76.29
363.09	-5.63
363.301	84.48
363.512	47.62
363.723	-7.68
363.935	37.38
364.146	94.72
364.357	37.38
364.568	70.14
364.779	27.14
364.99	111.1
365.201	70.14
365.412	57.86
365.623	-38.4
365.834	41.47
366.045	53.76
366.256	64
366.467	-3.58
366.678	-19.97
366.889	0.51
367.1	57.86
367.311	57.86
367.522	-11.78
367.733	100.86
367.944	72.19
368.155	117.25
368.366	94.72
368.577	4.61
368.788	18.94
368.999	14.85
369.209	53.76
369.42	68.09
369.631	76.29
369.842	-24.06
370.053	111.1
370.264	61.95
370.474	-9.73
370.685	66.05
370.896	47.62
371.107	158.21
371.317	49.66
371.528	37.38
371.739	47.62
371.95	20.99
372.16	135.68
372.371	25.09
372.582	72.19
372.792	47.62
373.003	0.51
373.214	39.42
373.424	76.29
373.635	12.8
373.846	53.76
374.056	10.75
374.267	25.09
374.477	43.52
374.688	51.71
374.898	68.09
375.109	64
375.319	88.57
375.53	39.42
375.74	66.05
375.951	25.09
376.161	37.38
376.372	33.28
376.582	2.56
376.793	74.24
377.003	12.8
377.214	-11.78
377.424	27.14
377.635	33.28
377.845	129.53
378.055	72.19
378.266	-9.73
378.476	45.57
378.686	35.33
378.897	23.04
379.107	61.95
379.317	92.67
379.528	6.66
379.738	90.62
379.948	78.33
380.158	41.47
380.369	45.57
380.579	14.85
380.789	86.53
380.999	84.48
381.21	86.53
381.42	64
381.63	80.38
381.84	10.75
382.05	29.18
382.261	80.38
382.471	29.18
382.681	98.81
382.891	119.29
383.101	102.91
383.311	41.47
383.521	53.76
383.731	12.8
383.941	88.57
384.151	80.38
384.361	53.76
384.571	27.14
384.781	-17.92
384.991	102.91
385.201	51.71
385.411	45.57
385.621	41.47
385.831	61.95
386.041	18.94
386.251	76.29
386.461	80.38
386.671	51.71
386.881	-13.82
387.091	94.72
387.301	25.09
387.511	14.85
387.72	47.62
387.93	53.76
388.14	76.29
388.35	72.19
388.56	111.1
388.769	86.53
388.979	64
389.189	47.62
389.399	16.9
389.609	74.24
389.818	92.67
390.028	53.76
390.238	-13.82
390.447	72.19
390.657	53.76
390.867	-7.68
391.076	25.09
391.286	150.01
391.496	12.8
391.705	29.18
391.915	27.14
392.125	43.52
392.334	82.43
392.544	68.09
392.753	33.28
392.963	45.57
393.172	113.15
393.382	70.14
393.591	6.66
393.801	16.9
394.01	98.81
394.22	92.67
394.429	64
394.639	43.52
394.848	66.05
395.058	90.62
395.267	76.29
395.477	43.52
395.686	115.2
395.895	61.95
396.105	150.01
396.314	29.18
396.524	88.57
396.733	18.94
396.942	123.39
397.152	172.54
397.361	102.91
397.57	37.38
397.78	-7.68
397.989	51.71
398.198	113.15
398.407	135.68
398.617	76.29
398.826	141.82
399.035	59.9
399.244	123.39
399.453	47.62
399.663	129.53
399.872	59.9
400.081	98.81
400.29	117.25
400.499	104.96
400.708	96.77
400.917	16.9
401.127	156.16
401.336	29.18
401.545	213.5
401.754	137.73
401.963	127.49
402.172	57.86
402.381	111.1
402.59	102.91
402.799	133.63
403.008	80.38
403.217	135.68
403.426	66.05
403.635	49.66
403.844	193.02
404.053	66.05
404.262	41.47
404.471	170.49
404.68	45.57
404.888	133.63
405.097	96.77
405.306	213.5
405.515	70.14
405.724	111.1
405.933	176.64
406.142	98.81
406.35	143.87
406.559	176.64
406.768	188.93
406.977	180.73
407.185	129.53
407.394	125.44
407.603	272.89
407.812	184.83
408.02	233.98
408.229	219.64
408.438	238.08
408.646	207.36
408.855	176.64
409.064	326.14
409.272	213.5
409.481	270.84
409.69	276.99
409.898	211.45
410.107	301.56
410.315	317.95
410.524	274.94
410.733	289.28
410.941	238.08
411.15	352.76
411.358	348.67
411.567	332.28
411.775	391.67
411.984	438.78
412.192	301.56
412.401	360.95
412.609	422.39
412.818	416.25
413.026	481.78
413.234	418.3
413.443	446.97
413.651	471.54
413.86	481.78
414.068	596.47
414.276	473.59
414.485	520.7
414.693	629.24
414.901	625.14
415.11	664.05
415.318	641.53
415.526	711.16
415.734	674.29
415.943	776.69
416.151	791.03
416.359	719.35
416.567	717.3
416.776	850.42
416.984	834.04
417.192	823.8
417.4	879.09
417.608	827.89
417.817	989.68
418.025	1010.16
418.233	1020.4
418.441	969.2
418.649	1024.5
418.857	1200.62
419.065	1128.94
419.273	1108.46
419.481	1192.43
419.689	1245.68
419.897	1395.18
420.105	1343.98
420.313	1325.55
420.521	1382.89
420.729	1491.43
420.937	1417.71
421.145	1632.74
421.353	1597.93
421.561	1587.69
421.769	1769.96
421.977	1706.47
422.185	1788.39
422.393	1952.23
422.601	2087.39
422.809	2054.62
423.017	2114.02
423.224	2224.61
423.432	2275.81
423.64	2226.65
423.848	2437.59
424.056	2361.82
424.263	2662.87
424.471	2644.44
424.679	2580.95
424.887	2705.88
425.094	2861.52
425.302	2855.38
425.51	2863.57
425.718	2972.11
425.925	3047.89
426.133	3252.69
426.341	3277.26
426.548	3537.35
426.756	3584.46
426.964	3574.22
427.171	3819.97
427.379	3881.41
427.586	3985.86
427.794	4075.97
428.001	4100.55
428.209	4454.84
428.417	4227.52
428.624	4637.11
428.832	4673.98
429.039	4608.44
429.247	4725.18
429.454	5030.32
429.662	5396.91
429.869	5159.35
430.076	5519.79
430.284	5300.66
430.491	5489.07
430.699	5824.94
430.906	5779.88
431.114	5935.53
431.321	6082.98
431.528	6431.13
431.736	6629.79
431.943	7012.76
432.15	6689.18
432.358	6738.33
432.565	7117.2
432.772	7258.51
432.979	7586.19
433.187	7504.27
433.394	7633.29
433.601	8272.26
433.808	8278.4
434.016	8182.15
434.223	8601.98
434.43	9093.49
434.637	8794.49
434.844	9394.54
435.052	9591.15
435.259	9546.09
435.466	9650.54
435.673	9695.6
435.88	10176.87
436.087	10912.09
436.294	10588.51
436.501	10606.94
436.708	10588.51
436.915	11276.63
437.122	11530.58
437.329	11534.67
437.537	11749.71
437.743	12161.35
437.95	12099.91
438.157	12648.77
438.364	13123.9
438.571	13095.22
438.778	13214.01
438.985	14211.37
439.192	13848.88
439.399	14168.36
439.606	13955.37
439.813	14594.34
440.02	15591.7
440.227	15401.24
440.433	15143.19
440.64	15638.8
440.847	15493.4
441.054	15790.35
441.261	17023.23
441.467	16871.68
441.674	17264.89
441.881	17621.24
442.088	17656.05
442.294	17588.47
442.501	18067.69
442.708	18477.29
442.914	18993.37
443.121	19974.35
443.328	19192.03
443.534	20857.03
443.741	20177.1
443.948	19874
444.154	21495.99
444.361	21121.21
444.568	21471.42
444.774	21594.29
444.981	21563.57
445.187	22151.34
445.394	23005.34
445.6	22714.53
445.807	24928.39
446.013	24125.58
446.22	24467.59
446.426	25802.87
446.633	25612.41
446.839	26329.2
447.046	25413.76
447.252	27080.8
447.459	26699.88
447.665	26873.96
447.871	27850.84
448.078	28846.15
448.284	27662.43
448.491	28289.1
448.697	29356.1
448.903	29986.87
449.11	30502.96
449.316	29593.66
449.522	30218.29
449.728	30998.57
449.935	30896.17
450.141	31225.89
450.347	31981.59
450.553	30996.52
450.76	31383.59
450.966	32235.54
451.172	31983.64
451.378	33052.68
451.584	32198.68
451.791	32774.16
451.997	32794.64
452.203	33447.94
452.409	33447.94
452.615	33077.26
452.821	32196.63
453.027	32002.07
453.233	33417.22
453.44	32133.14
453.646	32382.99
453.852	32636.94
454.058	33218.57
454.264	32290.84
454.47	32968.71
454.676	32127
454.882	33056.78
455.088	30355.5
455.294	30756.91
455.5	31057.96
455.705	32055.32
455.911	30101.56
456.117	29714.49
456.323	29306.94
456.529	27697.24
456.735	28848.2
456.941	28377.17
457.147	27945.05
457.352	26966.12
457.558	26511.47
457.764	26613.87
457.97	26161.26
458.176	25542.78
458.381	25698.42
458.587	24520.84
458.793	24430.73
458.999	22952.1
459.204	24936.58
459.41	24051.86
459.616	22440.11
459.821	22505.64
460.027	22286.51
460.233	22028.46
460.438	20840.64
460.644	21334.2
460.85	20005.07
461.055	19513.56
461.261	19448.02
461.466	18311.4
461.672	17813.74
461.878	19046.62
462.083	17871.09
462.289	17428.73
462.494	17268.98
462.7	16630.02
462.905	16021.77
463.111	16591.11
463.316	16718.08
463.522	16275.72
463.727	16285.96
463.932	16163.08
464.138	16099.59
464.343	16148.75
464.549	15386.9
464.754	16267.53
464.959	16208.14
465.165	15966.48
465.37	15274.26
465.575	14725.41
465.781	15378.71
465.986	15374.61
466.191	15231.26
466.397	14686.5
466.602	14068.01
466.807	14651.68
467.012	14735.65
467.218	14600.48
467.423	14131.5
467.628	14414.12
467.833	14815.52
468.038	14199.08
468.244	13967.66
468.449	14780.7
468.654	14037.29
468.859	14117.16
469.064	13824.3
469.269	13408.56
469.474	13431.09
469.679	13662.51
469.885	13328.69
470.09	13574.45
470.295	13302.07
470.5	13060.41
470.705	13097.27
470.91	12818.75
471.115	12800.32
471.32	13009.21
471.525	12845.37
471.73	12452.16
471.935	12411.2
472.139	11954.51
472.344	12196.17
472.549	12114.25
472.754	11921.74
472.959	11823.44
473.164	11467.09
473.369	11155.8
473.574	11792.72
473.778	11809.1
473.983	11649.36
474.188	11649.36
474.393	11096.41
474.598	11309.4
474.802	10905.95
475.007	10864.99
475.212	10854.75
475.417	10496.35
475.621	10590.56
475.826	10471.78
476.031	10197.35
476.235	10318.18
476.44	10156.39
476.645	9834.86
476.849	10166.63
477.054	10172.77
477.259	9787.75
477.463	9929.06
477.668	9603.44
477.872	9619.82
478.077	9410.93
478.282	9474.42
478.486	9144.69
478.691	9216.37
478.895	9187.7
479.1	9138.55
479.304	9177.46
479.509	8827.26
479.713	8870.26
479.918	8821.11
480.122	8591.74
480.326	8800.63
480.531	8849.78
480.735	8624.51
480.94	8544.64
481.144	8898.94
481.348	8477.05
481.553	8618.36
481.757	8386.94
481.961	8388.99
482.166	8694.14
482.37	8575.36
482.574	8350.08
482.778	8321.41
482.983	8567.17
483.187	8399.23
483.391	8565.12
483.595	8264.07
483.8	8401.28
484.004	8372.61
484.208	8458.62
484.412	8366.46
484.616	8429.95
484.821	8493.44
485.025	8280.45
485.229	8368.51
485.433	8307.07
485.637	8362.37
485.841	8368.51
486.045	8358.27
486.249	8372.61
486.453	8268.16
486.657	8499.58
486.861	8522.11
487.065	8147.33
487.269	8360.32
487.473	8239.49
487.677	8634.75
487.881	8515.97
488.085	8524.16
488.289	8505.73
488.493	8399.23
488.697	8466.81
488.901	8366.46
489.105	8460.67
489.309	8317.31
489.512	8442.24
489.716	8595.84
489.92	8454.53
490.124	8329.6
490.328	8722.81
490.531	8513.92
490.735	8554.88
490.939	8546.69
491.143	8718.71
491.346	8595.84
491.55	8880.5
491.754	8630.65
491.958	8776.06
492.161	8698.24
492.365	8743.29
492.569	8780.15
492.772	8589.69
492.976	8853.88
493.18	9107.83
493.383	9007.48
493.587	9156.98
493.79	9263.47
493.994	8980.85
494.197	9058.68
494.401	9247.09
494.605	9376.11
494.808	9402.74
495.012	9460.08
495.215	9585.01
495.419	9666.92
495.622	9537.9
495.825	9605.49
496.029	9552.24
496.232	9933.16
496.436	9789.8
496.639	10228.07
496.843	10082.66
497.046	10289.51
497.249	10342.75
497.453	10441.06
497.656	10529.12
497.859	10752.35
498.063	10625.37
498.266	10979.67
498.469	10881.37
498.673	10824.03
498.876	11045.21
499.079	11194.71
499.282	11157.85
499.485	11458.9
499.689	11583.82
499.892	11518.29
500.095	11872.59
500.298	12083.53
500.501	11946.31
500.705	12155.21
500.908	12341.57
501.111	12392.77
501.314	12570.94
501.517	12491.07
501.72	12964.15
501.923	12761.41
502.126	13254.97
502.329	13427
502.532	13439.28
502.735	13459.76
502.938	13723.95
503.141	13824.3
503.344	13844.78
503.547	14373.16
503.75	14086.44
503.953	14350.63
504.156	14487.84
504.359	14737.7
504.562	14784.8
504.765	15239.45
504.968	15188.25
505.17	15446.29
505.373	15606.03
505.576	15630.61
505.779	15892.75
505.982	15747.34
506.185	16273.67
506.387	16269.58
506.59	16197.9
506.793	16587.01
506.996	16689.41
507.198	17254.65
507.401	17045.76
507.604	17281.27
507.807	17486.07
508.009	17484.02
508.212	17701.11
508.415	17969.39
508.617	18172.14
508.82	18161.9
509.022	18434.28
509.225	18823.39
509.428	18634.98
509.63	19302.62
509.833	19327.19
510.035	19622.1
510.238	19546.33
510.44	19865.81
510.643	19949.78
510.845	20209.87
511.048	20336.84
511.25	20414.66
511.453	20502.73
511.655	21622.97
511.858	21024.96
512.06	21074.11
512.262	21461.18
512.465	21610.68
512.667	21895.35
512.87	22005.94
513.072	22036.66
513.274	22489.26
513.477	22882.47
513.679	22827.17
513.881	23373.98
514.084	23316.64
514.286	23267.48
514.488	23419.03
514.69	24078.48
514.893	24318.09
515.095	24508.55
515.297	24430.73
515.499	24467.59
515.701	25133.18
515.904	25227.39
516.106	25426.04
516.308	25774.2
516.51	25958.52
516.712	26210.42
516.914	26118.26
517.116	26667.11
517.318	26724.46
517.52	26876.01
517.722	26845.29
517.925	27750.49
518.127	27836.5
518.329	28072.02
518.531	27932.76
518.733	28364.88
518.935	28995.65
519.136	28827.72
519.338	29096
519.54	29524.03
519.742	29628.48
519.944	29374.53
520.146	30179.38
520.348	30332.98
520.55	30332.98
520.752	30318.64
520.954	31111.21
521.155	30945.32
521.357	31449.12
521.559	31424.54
521.761	31989.78
521.963	31959.06
522.164	31985.69
522.366	32280.6
522.568	32679.95
522.77	32905.23
522.971	33052.68
523.173	32935.95
523.375	33423.36
523.576	33026.06
523.778	33538.05
523.98	33769.47
524.181	33939.45
524.383	34297.84
524.584	34658.29
524.786	34473.97
524.988	34648.05
525.189	34639.86
525.391	34975.72
525.592	35876.83
525.794	35485.67
525.995	35706.85
526.197	35749.85
526.398	35975.13
526.6	36063.19
526.801	36143.06
527.003	36208.6
527.204	36204.5
527.406	37046.22
527.607	36569.04
527.808	37113.8
528.01	36450.26
528.211	37277.64
528.412	37703.62
528.614	37195.72
528.815	37230.54
529.016	37803.97
529.218	37265.35
529.419	37732.29
529.62	37668.8
529.822	37416.9
530.023	37926.85
530.224	38019
530.425	38223.8
530.626	37644.23
530.828	37500.87
531.029	38721.46
531.23	38168.51
531.431	37994.43
531.632	38250.42
531.833	38414.26
532.035	38721.46
532.236	38584.24
532.437	38653.87
532.638	38645.68
532.839	38559.67
533.04	38471.6
533.241	38676.4
533.442	39341.99
533.643	38924.21
533.844	38903.73
534.045	39374.76
534.246	38791.09
534.447	38641.59
534.648	39104.43
534.849	38907.82
535.05	38924.21
535.251	38993.84
535.451	38565.81
535.652	39008.17
535.853	39192.49
536.054	38930.35
536.255	39086
536.456	38440.89
536.657	39722.91
536.857	39047.08
537.058	38786.99
537.259	39018.41
537.46	38969.26
537.66	39182.25
537.861	39075.76
538.062	38987.69
538.263	39602.08
538.463	38684.59
538.664	38877.1
538.865	39139.24
539.065	39419.81
539.266	38752.18
539.466	39227.31
539.667	38735.79
539.868	39643.04
540.068	39055.28
540.269	39002.03
540.469	39413.67
540.67	39012.27
540.87	38881.2
541.071	39116.72
541.271	39358.38
541.472	38965.17
541.672	38870.96
541.873	38905.77
542.073	38371.25
542.274	39399.33
542.474	38827.95
542.675	38789.04
542.875	39206.83
543.075	38682.55
543.276	38318.01
543.476	39374.76
543.676	38512.56
543.877	38873.01
544.077	38813.62
544.277	38813.62
544.478	38535.09
544.678	38789.04
544.878	38862.77
545.078	38786.99
545.279	38528.95
545.479	38678.45
545.679	38721.46
545.879	38520.76
546.079	39026.6
546.28	38617.01
546.48	38442.93
546.68	38897.58
546.88	38596.53
547.08	38514.61
547.28	38760.37
547.48	38234.04
547.68	38756.27
547.88	38205.37
548.081	38735.79
548.281	38754.22
548.481	38641.59
548.681	38879.15
548.881	38438.84
549.081	38856.62
549.28	38404.02
549.48	38715.31
549.68	38651.83
549.88	39096.24
550.08	38537.14
550.28	38449.08
550.48	38324.15
550.68	38711.22
550.88	38447.03
551.08	38428.6
551.279	38522.8
551.479	38264.76
551.679	38602.67
551.879	38057.92
552.079	38537.14
552.278	38404.02
552.478	38191.03
552.678	38535.09
552.878	38649.78
553.077	38051.77
553.277	37904.32
553.477	38455.22
553.676	38332.34
553.876	38318.01
554.076	38209.46
554.275	37953.47
554.475	37914.56
554.674	38764.46
554.874	38418.36
555.074	38145.98
555.273	38004.67
555.473	38387.64
555.672	37736.38
555.872	38277.05
556.071	37740.48
556.271	38105.02
556.47	37715.9
556.67	37152.71
556.869	38021.05
557.068	37687.23
557.268	37539.78
557.467	37961.66
557.667	37814.21
557.866	37715.9
558.065	37541.83
558.265	37588.93
558.464	37449.67
558.663	37504.96
558.863	37310.41
559.062	37824.45
559.261	36814.8
559.461	37349.32
559.66	36745.17
559.859	37179.34
560.058	36761.55
560.258	36822.99
560.457	36536.27
560.656	37048.27
560.855	36550.61
561.054	36569.04
561.253	36173.78
561.453	36671.44
561.652	36577.23
561.851	36892.62
562.05	36610
562.249	36417.49
562.448	36650.96
562.647	36227.03
562.846	36374.48
563.045	36169.69
563.244	35917.79
563.443	36319.19
563.642	35440.61
563.841	35647.46
564.04	36104.15
564.239	36079.58
564.438	35600.35
564.637	35749.85
564.836	35532.77
565.035	35299.3
565.234	35698.66
565.432	35155.94
565.631	35672.03
565.83	35526.63
566.029	35153.9
566.228	34799.6
566.427	34965.48
566.625	34910.19
566.824	34471.92
567.023	34861.04
567.222	34402.29
567.42	34777.07
567.619	34938.86
567.818	34353.14
568.016	34451.44
568.215	34492.4
568.414	34291.7
568.612	34750.45
568.811	34060.28
569.01	34050.04
569.208	33714.17
569.407	34205.69
569.605	33431.55
569.804	34201.59
570.002	33568.77
570.201	33853.44
570.4	33427.46
570.598	33544.19
570.797	33280
570.995	33605.63
571.193	33007.62
571.392	33460.23
571.59	32970.76
571.789	33040.39
571.987	33021.96
572.186	32604.17
572.384	32638.99
572.582	32954.38
572.781	32686.09
572.979	32045.08
573.177	32518.16
573.376	32557.07
573.574	32264.21
573.772	32370.71
573.971	32124.95
574.169	31983.64
574.367	31481.89
574.565	32303.12
574.763	32088.09
574.962	31766.56
575.16	31111.21
575.358	31713.31
575.556	31297.57
575.754	31744.03
575.952	31182.88
576.151	31506.46
576.349	31107.11
576.547	31197.22
576.745	31428.64
576.943	31195.17
577.141	30795.82
577.339	31078.44
577.537	30586.93
577.735	30783.53
577.933	30486.57
578.131	30834.73
578.329	30277.68
578.527	30060.6
578.725	30076.98
578.923	30464.05
579.121	29900.86
579.319	30009.4
579.516	30027.83
579.714	29960.25
579.912	30025.78
580.11	30138.42
580.308	29716.54
580.506	29823.03
580.704	29339.71
580.901	29673.53
581.099	29677.63
581.297	29493.31
581.495	29321.28
581.692	29380.67
581.89	29118.53
582.088	29196.35
582.285	29020.23
582.483	28950.6
582.681	28659.79
582.878	28864.58
583.076	28526.67
583.274	28905.54
583.471	28508.24
583.669	28612.68
583.866	28624.97
584.064	28575.82
584.262	27988.05
584.459	28217.43
584.657	28358.74
584.854	28450.89
585.052	27744.34
585.249	27744.34
585.447	27797.59
585.644	27668.57
585.841	27873.37
586.039	27744.34
586.236	27383.9
586.434	27631.71
586.631	27310.18
586.828	27590.75
587.026	27240.54
587.223	27082.85
587.42	26910.82
587.618	26982.5
587.815	26493.04
588.012	26785.9
588.21	26798.18
588.407	26669.16
588.604	26474.6
588.801	26820.71
588.999	26411.12
589.196	26525.8
589.393	26316.91
589.59	26333.29
589.787	26177.65
589.984	26187.89
590.182	26046.58
590.379	26312.81
590.576	26024.05
590.773	25905.27
590.97	25751.67
591.167	25962.61
591.364	25284.73
591.561	25501.82
591.758	25256.06
591.955	25454.72
592.152	25933.94
592.349	25397.37
592.546	25679.99
592.743	25086.08
592.94	24631.43
593.137	25202.82
593.334	25137.28
593.531	24422.54
593.727	24977.54
593.924	24750.21
594.121	24311.95
594.318	24694.92
594.515	24150.16
594.712	24918.15
594.908	24248.46
595.105	24211.6
595.302	24029.33
595.499	24086.67
595.696	24322.19
595.892	24393.87
596.089	23916.69
596.286	23976.08
596.482	24004.75
596.679	23836.82
596.876	23613.59
597.072	23500.95
597.269	23670.93
597.466	23400.6
597.662	23298.2
597.859	23343.26
598.055	23376.03
598.252	23140.51
598.448	23634.07
598.645	23113.89
598.841	22864.04
599.038	23066.78
599.234	22720.68
599.431	22450.35
599.627	22708.39
599.824	23097.5
600.02	22491.3
600.217	22515.88
600.413	22425.77
600.609	22225.07
600.806	21977.26
601.002	22395.05
601.198	22438.06
601.395	22110.38
601.591	22005.94
601.787	21827.76
601.984	21926.07
602.18	22096.05
602.376	21758.13
602.572	21719.22
602.769	21944.5
602.965	21184.7
603.161	21536.95
603.357	21696.69
603.553	21530.81
603.75	21600.44
603.946	21229.76
604.142	21276.86
604.338	21035.2
604.534	21166.27
604.73	20854.98
604.926	20777.15
605.122	20887.75
605.318	20994.24
605.514	20938.94
605.71	20558.02
605.906	20592.84
606.102	20660.42
606.298	20367.56
606.494	20570.31
606.69	20330.7
606.886	20512.97
607.082	20285.64
607.278	20351.18
607.474	20148.43
607.67	20445.38
607.866	20207.82
608.062	20101.33
608.257	20160.72
608.453	20207.82
608.649	20099.28
608.845	20119.76
609.041	19874
609.236	19806.42
609.432	19939.54
609.628	19890.38
609.824	19914.96
610.019	19765.46
610.215	19540.18
610.411	19652.82
610.606	19349.72
610.802	19658.96
610.998	19355.86
611.193	19329.24
611.389	19566.81
611.584	19437.78
611.78	19364.06
611.976	19294.43
612.171	19269.85
612.367	19302.62
612.562	19153.12
612.758	18970.85
612.953	18802.91
613.149	19327.19
613.344	19042.53
613.539	19314.91
613.735	18958.56
613.93	18792.67
614.126	19022.05
614.321	19071.2
614.517	18997.47
614.712	18827.49
614.907	19003.61
615.103	18841.82
615.298	18753.76
615.493	18680.03
615.688	18602.21
615.884	18776.29
616.079	18573.54
616.274	18610.4
616.47	18729.19
616.665	18610.4
616.86	18442.47
617.055	18383.08
617.25	18307.3
617.445	18415.85
617.641	18198.76
617.836	18370.79
618.031	18075.88
618.226	18174.19
618.421	18122.99
618.616	18039.02
618.811	17643.76
619.006	18225.39
619.201	17572.08
619.396	17846.51
619.591	17535.22
619.786	17785.07
619.981	17387.77
620.176	17289.46
620.371	17527.03
620.566	17219.83
620.761	17213.69
620.956	17373.43
621.151	16943.36
621.346	17158.39
621.541	17002.75
621.735	17088.76
621.93	16810.24
622.125	16845.05
622.32	16421.13
622.515	16560.39
622.709	16349.45
622.904	16421.13
623.099	16142.6
623.294	16486.66
623.488	16154.89
623.683	15972.62
623.878	16003.34
624.072	15687.95
624.267	15839.5
624.462	15700.24
624.656	15511.83
624.851	15530.26
625.046	15511.83
625.24	15440.15
625.435	15347.99
625.629	15120.67
625.824	15038.75
626.018	15208.73
626.213	14854.43
626.407	15149.34
626.602	14469.41
626.796	14739.74
626.991	14795.04
627.185	14666.02
627.38	14633.25
627.574	14510.37
627.768	14448.93
627.963	14315.81
628.157	14086.44
628.352	14096.68
628.546	13887.79
628.74	14113.06
628.935	13973.8
629.129	14016.81
629.323	13648.18
629.517	13793.58
629.712	13738.29
629.906	13687.09
630.1	13701.42
630.294	13568.3
630.489	13369.65
630.683	13179.19
630.877	13297.97
631.071	12857.66
631.265	13062.46
631.459	13228.34
631.653	12978.49
631.848	12982.59
632.042	12970.3
632.236	12785.98
632.43	12368.2
632.624	12564.8
632.818	12501.31
633.012	12390.72
633.206	12378.44
633.4	12396.87
633.594	12163.4
633.788	12206.41
633.982	12206.41
634.176	12147.01
634.369	12087.62
634.563	11708.75
634.757	12241.22
634.951	11972.94
635.145	11823.44
635.339	11651.41
635.533	11759.95
635.726	11968.84
635.92	11370.83
636.114	11471.18
636.308	11217.24
636.501	11442.51
636.695	11465.04
636.889	11391.31
637.083	11065.69
637.276	10903.9
637.47	11196.76
637.664	11061.59
637.857	11082.07
638.051	11065.69
638.244	11088.21
638.438	10824.03
638.632	10647.9
638.825	10725.72
639.019	10428.77
639.212	10725.72
639.406	10522.98
639.599	10402.15
639.793	10453.34
639.986	10414.43
640.18	10240.36
640.373	10352.99
640.567	10084.71
640.76	10266.98
640.954	10076.52
641.147	10070.37
641.34	10029.41
641.534	9750.89
641.727	9793.9
641.92	10004.84
642.114	9658.73
642.307	9822.57
642.5	9777.51
642.694	9697.64
642.887	9505.13
643.08	9865.58
643.273	9603.44
643.467	9523.57
643.66	9159.03
643.853	9322.87
644.046	9230.71
644.239	9331.06
644.432	9120.12
644.626	9111.92
644.819	9083.25
645.012	9046.39
645.205	9140.6
645.398	9075.06
645.591	8915.32
645.784	8831.35
645.977	8739.19
646.17	9111.92
646.363	8591.74
646.556	8573.31
646.749	8675.71
646.942	8495.49
647.135	8536.45
647.328	8530.3
647.521	8505.73
647.714	8239.49
647.907	8452.48
648.099	8335.74
648.292	8212.87
648.485	8276.35
648.678	8233.35
648.871	8268.16
649.064	8038.79
649.256	8089.99
649.449	8214.91
649.642	7922.06
649.835	8038.79
650.027	7897.48
650.22	7922.06
650.413	7803.27
650.605	7784.84
650.798	7639.44
650.991	7510.41
651.183	7606.67
651.376	7821.7
651.568	7500.17
651.761	7664.01
651.954	7571.85
652.146	7547.28
652.339	7440.78
652.531	7457.17
652.724	7336.34
652.916	7203.22
653.109	7164.31
653.301	7322
653.494	7217.55
653.686	7149.97
653.879	6986.13
654.071	7113.11
654.263	7025.04
654.456	7035.28
654.648	7096.72
654.84	6971.8
655.033	6926.74
655.225	6939.03
655.417	6869.4
655.61	6900.12
655.802	6814.1
655.994	6777.24
656.186	6695.32
656.379	6668.7
656.571	6674.84
656.763	6508.96
656.955	6453.66
657.148	6738.33
657.34	6572.44
657.532	6424.99
657.724	6392.22
657.916	6607.26
658.108	6326.69
658.3	6367.65
658.492	6255.01
658.684	6281.63
658.876	6168.99
659.068	6230.43
659.26	6240.67
659.452	6259.1
659.644	6252.96
659.836	5976.48
660.028	6209.95
660.22	6119.84
660.412	6064.55
660.604	5886.37
660.796	5904.81
660.988	5910.95
661.18	5861.8
661.372	5751.21
661.563	5824.94
661.755	5812.65
661.947	5788.07
662.139	5773.74
662.331	5847.46
662.522	5599.66
662.714	5542.32
662.906	5558.7
663.097	5595.56
663.289	5454.25
663.481	5519.79
663.673	5521.84
663.864	5470.64
664.056	5466.54
664.247	5435.82
664.439	5360.05
664.631	5456.3
664.822	5274.03
665.014	5362.09
665.205	5409.2
665.397	5239.22
665.588	5358
665.78	5134.77
665.971	5263.79
666.163	5001.65
666.354	5226.93
666.546	5116.34
666.737	5024.18
666.929	5085.62
667.12	5075.38
667.311	5009.84
667.503	4905.4
667.694	4917.68
667.885	4874.68
668.077	4997.56
668.268	4831.67
668.459	4886.97
668.651	4866.49
668.842	4860.34
669.033	4901.3
669.224	4858.29
669.416	4886.97
669.607	4833.72
669.798	4858.29
669.989	4594.11
670.18	4704.7
670.371	4702.65
670.563	4667.83
670.754	4669.88
670.945	4510.14
671.136	4671.93
671.327	4612.54
671.518	4604.35
671.709	4532.67
671.9	4608.44
672.091	4581.82
672.282	4452.8
672.473	4571.58
672.664	4424.12
672.855	4469.18
673.046	4590.01
673.237	4508.09
673.428	4389.31
673.619	4483.52
673.809	4331.97
674	4311.49
674.191	4389.31
674.382	4420.03
674.573	4399.55
674.764	4362.69
674.954	4389.31
675.145	4438.46
675.336	4219.33
675.527	4123.07
675.717	4221.38
675.908	4250.05
676.099	4143.55
676.289	4207.04
676.48	4186.56
676.671	4143.55
676.861	4149.7
677.052	4106.69
677.243	4102.59
677.433	4049.35
677.624	4086.21
677.814	4141.5
678.005	4104.64
678.195	4078.02
678.386	4012.48
678.576	4096.45
678.767	4069.83
678.957	4049.35
679.148	4196.8
679.338	4039.11
679.529	3996.1
679.719	3944.9
679.909	3979.72
680.1	4018.63
680.29	3848.65
680.481	4022.72
680.671	3762.63
680.861	3844.55
681.052	3877.32
681.242	3977.67
681.432	3959.24
681.622	3908.04
681.813	3836.36
682.003	3895.75
682.193	3819.97
682.383	3887.56
682.573	3852.74
682.764	3717.58
682.954	3881.41
683.144	3822.02
683.334	3838.41
683.524	3860.93
683.714	3770.82
683.904	3705.29
684.094	3693
684.284	3789.25
684.474	3670.47
684.664	3731.91
684.854	3832.26
685.044	3690.95
685.234	3713.48
685.424	3576.27
685.614	3680.71
685.804	3594.7
685.994	3523.02
686.184	3756.49
686.374	3672.52
686.564	3643.85
686.753	3652.04
686.943	3525.07
687.133	3500.49
687.323	3531.21
687.513	3527.11
687.702	3484.11
687.892	3496.39
688.082	3404.24
688.272	3459.53
688.461	3410.38
688.651	3574.22
688.841	3437
689.03	3449.29
689.22	3293.65
689.41	3224.01
689.599	3336.65
689.789	3332.56
689.979	3484.11
690.168	3357.13
690.358	3422.67
690.547	3211.73
690.737	3332.56
690.926	3193.3
691.116	3217.87
691.305	3307.98
691.495	3056.08
691.684	3181.01
691.874	3281.36
692.063	3228.11
692.252	3211.73
692.442	3164.62
692.631	3105.23
692.82	3164.62
693.01	2970.07
693.199	3060.18
693.388	2925.01
693.578	2994.64
693.767	3000.79
693.956	2939.35
694.146	3088.85
694.335	3070.42
694.524	2972.11
694.713	3047.89
694.902	3056.08
695.092	2941.4
695.281	3011.03
695.47	2914.77
695.659	2859.48
695.848	2888.15
696.037	2757.08
696.226	2839
696.415	2795.99
696.604	2808.28
696.793	2861.52
696.982	2912.72
697.171	2744.79
697.36	2847.19
697.549	2912.72
697.738	2863.57
697.927	2832.85
698.116	2830.8
698.305	2849.24
698.494	2791.89
698.683	2828.76
698.872	2679.26
699.061	2853.33
699.25	2793.94
699.438	2877.91
699.627	2795.99
699.816	2882
700.005	2734.55
700.193	2847.19
700.382	2808.28
700.571	2818.52
700.76	2677.21
700.948	2722.26
701.137	2632.15
701.326	2787.8
701.514	2744.79
701.703	2787.8
701.892	2576.86
702.08	2843.09
702.269	2746.84
702.457	2613.72
702.646	2757.08
702.834	2669.02
703.023	2705.88
703.212	2750.93
703.4	2695.64
703.589	2705.88
703.777	2673.11
703.965	2539.99
704.154	2601.43
704.342	2703.83
704.531	2591.19
704.719	2730.45
704.907	2724.31
705.096	2648.54
705.284	2718.17
705.472	2695.64
705.661	2691.54
705.849	2648.54
706.037	2740.69
706.226	2664.92
706.414	2812.37
706.602	2548.19
706.79	2771.41
706.979	2759.13
707.167	2742.74
707.355	2556.38
707.543	2736.6
707.731	2585.05
707.919	2658.78
708.107	2666.97
708.296	2599.38
708.484	2578.9
708.672	2652.63
708.86	2795.99
709.048	2744.79
709.236	2595.29
709.424	2683.35
709.612	2726.36
709.8	2703.83
709.988	2597.34
710.176	2537.95
710.364	2564.57
710.551	2615.77
710.739	2595.29
710.927	2693.59
711.115	2533.85
711.303	2435.55
711.491	2521.56
711.679	2554.33
711.866	2615.77
712.054	2456.03
712.242	2636.25
712.43	2664.92
712.617	2630.1
712.805	2533.85
712.993	2564.57
713.181	2597.34
713.368	2695.64
713.556	2619.86
713.744	2634.2
713.931	2642.39
714.119	2675.16
714.306	2611.67
714.494	2640.34
714.682	2722.26
714.869	2685.4
715.057	2578.9
715.244	2742.74
715.432	2705.88
715.619	2537.95
715.807	2703.83
715.994	2646.49
716.182	2587.1
716.369	2662.87
716.556	2494.94
716.744	2525.66
716.931	2607.58
717.119	2542.04
717.306	2611.67
717.493	2578.9
717.681	2619.86
717.868	2591.19
718.055	2621.91
718.242	2593.24
718.43	2654.68
718.617	2529.75
718.804	2666.97
718.991	2679.26
719.179	2654.68
719.366	2695.64
719.553	2599.38
719.74	2572.76
719.927	2617.82
720.114	2583
720.301	2570.71
720.488	2613.72
720.676	2609.62
720.863	2634.2
721.05	2562.52
721.237	2605.53
721.424	2539.99
721.611	2558.42
721.798	2578.9
721.985	2529.75
722.172	2533.85
722.358	2722.26
722.545	2568.66
722.732	2603.48
722.919	2648.54
723.106	2580.95
723.293	2544.09
723.48	2644.44
723.667	2548.19
723.853	2531.8
724.04	2636.25
724.227	2570.71
724.414	2642.39
724.6	2671.06
724.787	2597.34
724.974	2578.9
725.161	2544.09
725.347	2705.88
725.534	2453.98
725.72	2558.42
725.907	2626.01
726.094	2681.3
726.28	2589.14
726.467	2689.49
726.653	2480.6
726.84	2533.85
727.027	2705.88
727.213	2642.39
727.4	2597.34
727.586	2589.14
727.773	2648.54
727.959	2519.51
728.145	2642.39
728.332	2609.62
728.518	2693.59
728.705	2589.14
728.891	2595.29
729.077	2642.39
729.264	2603.48
729.45	2595.29
729.636	2572.76
729.823	2675.16
730.009	2609.62
730.195	2605.53
730.382	2632.15
730.568	2501.08
730.754	2583
730.94	2570.71
731.126	2660.82
731.313	2607.58
731.499	2673.11
731.685	2525.66
731.871	2583
732.057	2621.91
732.243	2666.97
732.429	2652.63
732.615	2628.06
732.801	2523.61
732.987	2701.78
733.173	2644.44
733.359	2566.62
733.545	2537.95
733.731	2660.82
733.917	2617.82
734.103	2564.57
734.289	2597.34
734.475	2587.1
734.661	2683.35
734.847	2593.24
735.033	2564.57
735.219	2591.19
735.404	2697.69
735.59	2556.38
735.776	2603.48
735.962	2699.73
736.148	2574.81
736.333	2632.15
736.519	2511.32
736.705	2572.76
736.89	2636.25
737.076	2619.86
737.262	2550.23
737.447	2617.82
737.633	2650.58
737.819	2556.38
738.004	2531.8
738.19	2578.9
738.375	2505.18
738.561	2562.52
738.747	2644.44
738.932	2501.08
739.118	2466.27
739.303	2648.54
739.489	2576.86
739.674	2535.9
739.859	2490.84
740.045	2634.2
740.23	2640.34
740.416	2419.16
740.601	2539.99
740.786	2562.52
740.972	2476.51
741.157	2537.95
741.342	2402.78
741.528	2413.02
741.713	2486.75
741.898	2429.4
742.084	2427.35
742.269	2468.31
742.454	2433.5
742.639	2482.65
742.824	2419.16
743.01	2423.26
743.195	2458.07
743.38	2558.42
743.565	2398.68
743.75	2304.48
743.935	2257.37
744.12	2404.83
744.305	2365.92
744.49	2396.64
744.675	2333.15
744.86	2353.63
745.045	2351.58
745.23	2312.67
745.415	2245.09
745.6	2296.28
745.785	2382.3
745.97	2167.26
746.155	2234.85
746.34	2378.2
746.525	2189.79
746.71	2290.14
746.895	2230.75
747.079	2240.99
747.264	2081.25
747.449	2152.93
747.634	2136.54
747.819	2224.61
748.003	2132.45
748.188	2208.22
748.373	2042.34
748.557	2103.78
748.742	2048.48
748.927	2079.2
749.111	2169.31
749.296	2038.24
749.481	2099.68
749.665	1911.27
749.85	1980.9
750.034	2019.81
750.219	1980.9
750.404	2130.4
750.588	1984.99
750.773	1993.19
750.957	1925.6
751.141	1927.65
751.326	2042.34
751.51	1864.16
751.695	1991.14
751.879	1851.88
752.064	1903.07
752.248	1915.36
752.432	1817.06
752.617	1892.84
752.801	1950.18
752.985	1794.53
753.17	1868.26
753.354	1823.2
753.538	1872.36
753.722	1665.51
753.907	1692.13
754.091	1741.29
754.275	1718.76
754.459	1718.76
754.643	1743.33
754.828	1757.67
755.012	1722.85
755.196	1675.75
755.38	1677.8
755.564	1655.27
755.748	1659.37
755.932	1620.46
756.116	1622.5
756.3	1608.17
756.484	1573.35
756.668	1602.02
756.852	1452.52
757.036	1577.45
757.22	1513.96
757.404	1489.39
757.588	1448.43
757.772	1473
757.956	1573.35
758.14	1456.62
758.323	1405.42
758.507	1468.91
758.691	1479.15
758.875	1493.48
759.059	1507.82
759.242	1432.04
759.426	1513.96
759.61	1331.69
759.794	1427.95
759.977	1393.13
760.161	1425.9
760.345	1434.09
760.528	1311.21
760.712	1268.2
760.895	1384.94
761.079	1374.7
761.263	1354.22
761.446	1264.11
761.63	1354.22
761.813	1442.28
761.997	1300.97
762.18	1296.88
762.364	1323.5
762.547	1270.25
762.731	1339.88
762.914	1376.75
763.098	1200.62
763.281	1229.29
763.464	1303.02
763.648	1309.16
763.831	1274.35
764.015	1241.58
764.198	1290.73
764.381	1165.81
764.564	1182.19
764.748	1135.09
764.931	1206.77
765.114	1190.38
765.297	1229.29
765.481	1260.01
765.664	1274.35
765.847	1194.48
766.03	1229.29
766.213	1188.33
766.397	1190.38
766.58	1255.92
766.763	1143.28
766.946	1087.98
767.129	1145.33
767.312	1159.66
767.495	1147.37
767.678	1180.14
767.861	1157.61
768.044	1157.61
768.227	1239.53
768.41	1139.18
768.593	1024.5
768.776	1137.13
768.959	1139.18
769.142	1124.85
769.324	1053.17
769.507	1108.46
769.69	1057.26
769.873	1032.69
770.056	1139.18
770.239	1106.42
770.421	1100.27
770.604	1077.74
770.787	1028.59
770.97	1055.22
771.152	1016.3
771.335	1028.59
771.518	926.19
771.7	1087.98
771.883	1012.21
772.066	981.49
772.248	1020.4
772.431	981.49
772.613	930.29
772.796	993.78
772.978	954.87
773.161	946.67
773.343	1022.45
773.526	985.58
773.708	963.06
773.891	915.95
774.073	866.8
774.256	952.82
774.438	930.29
774.621	997.87
774.803	942.58
774.985	877.04
775.168	891.38
775.35	825.84
775.532	836.08
775.715	1004.02
775.897	848.37
776.079	834.04
776.261	774.64
776.444	758.26
776.626	840.18
776.808	858.61
776.99	782.84
777.173	889.33
777.355	776.69
777.537	813.56
777.719	813.56
777.901	840.18
778.083	807.41
778.265	752.12
778.447	780.79
778.629	739.83
778.811	813.56
778.993	715.25
779.175	696.82
779.357	731.64
779.539	682.49
779.721	748.02
779.903	709.11
780.085	639.48
780.267	680.44
780.449	649.72
780.631	715.25
780.812	719.35
780.994	672.25
781.176	737.78
781.358	666.1
781.54	698.87
781.721	635.38
781.903	633.33
782.085	690.68
782.267	702.97
782.448	547.32
782.63	645.62
782.812	557.56
782.993	623.09
783.175	553.46
783.357	639.48
783.538	563.7
783.72	659.96
783.901	569.85
784.083	664.05
784.264	571.9
784.446	541.18
784.627	545.27
784.809	590.33
784.99	539.13
785.172	561.66
785.353	532.98
785.535	561.66
785.716	526.84
785.897	559.61
786.079	506.36
786.26	598.52
786.441	580.09
786.623	541.18
786.804	512.5
786.985	539.13
787.167	571.9
787.348	469.5
787.529	510.46
787.71	541.18
787.891	492.02
788.073	436.73
788.254	444.92
788.435	510.46
788.616	461.3
788.797	506.36
788.978	428.54
789.159	475.64
789.34	426.49
789.522	461.3
789.703	504.31
789.884	449.02
790.065	500.22
790.246	461.3
790.427	389.63
790.607	502.26
790.788	408.06
790.969	471.54
791.15	461.3
791.331	307.71
791.512	420.35
791.693	410.11
791.874	373.24
792.054	475.64
792.235	479.74
792.416	440.83
792.597	350.71
792.778	451.07
792.958	440.83
793.139	379.39
793.32	416.25
793.5	414.2
793.681	414.2
793.862	410.11
794.042	346.62
794.223	397.82
794.404	365.05
794.584	387.58
794.765	379.39
794.945	360.95
795.126	379.39
795.306	303.61
795.487	360.95
795.667	340.47
795.848	289.28
796.028	350.71
796.209	389.63
796.389	315.9
796.57	342.52
796.75	295.42
796.93	393.72
797.111	395.77
797.291	395.77
797.471	320
797.652	313.85
797.832	276.99
798.012	336.38
798.192	307.71
798.373	301.56
798.553	301.56
798.733	328.19
798.913	190.97
799.093	291.32
799.274	338.43
799.454	256.51
799.634	305.66
799.814	297.47
799.994	324.09
800.174	274.94
800.354	313.85
800.534	293.37
800.714	307.71
800.894	258.56
801.074	231.93
801.254	242.17
801.434	279.04
801.614	313.85
801.794	246.27
801.974	702.97
802.154	246.27
802.334	246.27
802.514	262.65
802.693	291.32
802.873	240.12
803.053	172.54
803.233	297.47
803.413	225.79
803.592	184.83
803.772	242.17
803.952	283.13
804.131	272.89
804.311	166.4
804.491	256.51
804.67	223.74
804.85	276.99
805.03	303.61
805.209	254.46
805.389	213.5
805.568	207.36
805.748	236.03
805.928	279.04
806.107	250.36
806.287	223.74
806.466	260.6
806.646	160.25
806.825	211.45
807.004	207.36
807.184	223.74
807.363	215.55
807.543	174.59
807.722	193.02
807.901	201.21
808.081	270.84
808.26	195.07
808.439	160.25
808.619	246.27
808.798	244.22
808.977	209.4
809.156	219.64
809.336	170.49
809.515	215.55
809.694	127.49
809.873	201.21
810.052	223.74
810.231	170.49
810.411	152.06
810.59	190.97
810.769	326.14
810.948	250.36
811.127	207.36
811.306	186.88
811.485	174.59
811.664	225.79
811.843	209.4
812.022	260.6
812.201	186.88
812.38	221.69
812.559	141.82
812.737	188.93
812.916	217.6
813.095	258.56
813.274	168.45
813.453	211.45
813.632	227.84
813.811	154.11
813.989	139.77
814.168	188.93
814.347	178.69
814.526	180.73
814.704	145.92
814.883	195.07
815.062	164.35
815.24	137.73
815.419	150.01
815.598	150.01
815.776	84.48
815.955	199.16
816.133	61.95
816.312	137.73
816.49	115.2
816.669	156.16
816.847	166.4
817.026	133.63
817.204	203.26
817.383	143.87
817.561	117.25
817.74	135.68
817.918	186.88
818.097	117.25
818.275	164.35
818.453	82.43
818.632	123.39
818.81	119.29
818.988	133.63
819.167	182.78
819.345	82.43
819.523	104.96
819.701	170.49
819.879	96.77
820.058	68.09
820.236	166.4
820.414	137.73
820.592	57.86
820.77	109.05
820.948	133.63
821.127	115.2
821.305	164.35
821.483	68.09
821.661	107.01
821.839	119.29
822.017	174.59
822.195	147.97
822.373	141.82
822.551	145.92
822.729	141.82
822.907	90.62
823.085	162.3
823.262	23.04
823.44	133.63
823.618	133.63
823.796	186.88
823.974	143.87
824.152	121.34
824.329	154.11
824.507	80.38
824.685	125.44
824.863	125.44
825.04	86.53
825.218	100.86
825.396	207.36
825.574	184.83
825.751	147.97
825.929	117.25
826.107	119.29
826.284	168.45
826.462	117.25
826.639	193.02
826.817	82.43
826.994	113.15
827.172	78.33
827.349	135.68
827.527	80.38
827.704	131.58
827.882	68.09
828.059	109.05
828.237	135.68
828.414	131.58
828.591	104.96
828.769	78.33
828.946	4.61
829.124	113.15
829.301	107.01
829.478	80.38
829.655	102.91
829.833	117.25
830.01	133.63
830.187	141.82
830.364	94.72
830.542	137.73
830.719	182.78
830.896	184.83
831.073	135.68
831.25	76.29
831.427	43.52
831.604	61.95
831.782	43.52
831.959	137.73
832.136	66.05
832.313	2.56
832.49	86.53
832.667	84.48
832.844	41.47
833.021	129.53
833.198	31.23
833.374	68.09
833.551	131.58
833.728	45.57
833.905	80.38
834.082	53.76
834.259	139.77
834.436	57.86
834.612	18.94
834.789	104.96
834.966	76.29
835.143	59.9
835.319	125.44
835.496	90.62
835.673	39.42
835.85	70.14
836.026	117.25
836.203	66.05
836.38	76.29
836.556	41.47
836.733	12.8
836.909	59.9
837.086	94.72
837.262	35.33
837.439	80.38
837.616	59.9
837.792	96.77
837.968	72.19
838.145	20.99
838.321	-9.73
838.498	55.81
838.674	74.24
838.851	59.9
839.027	39.42
839.203	55.81
839.38	137.73
839.556	39.42
839.732	98.81
839.909	33.28
840.085	80.38
840.261	59.9
840.437	20.99
840.614	29.18
840.79	-34.3
840.966	45.57
841.142	4.61
841.318	16.9
841.494	57.86
841.671	109.05
841.847	47.62
842.023	51.71
842.199	61.95
842.375	141.82
842.551	-5.63
842.727	-17.92
842.903	64
843.079	59.9
843.255	109.05
843.431	51.71
843.607	98.81
843.783	2.56
843.959	68.09
844.134	57.86
844.31	59.9
844.486	92.67
844.662	47.62
844.838	94.72
845.013	74.24
845.189	98.81
845.365	51.71
845.541	29.18
845.716	72.19
845.892	-69.12
846.068	70.14
846.244	70.14
846.419	100.86
846.595	35.33
846.77	82.43
846.946	35.33
847.122	-19.97
847.297	39.42
847.473	72.19
847.648	4.61
847.824	55.81
847.999	111.1
848.175	31.23
848.35	-17.92
848.526	80.38
848.701	137.73
848.876	51.71
849.052	39.42
849.227	53.76
849.403	129.53
849.578	51.71
849.753	53.76
849.929	61.95
850.104	100.86
850.279	53.76
850.454	59.9
850.63	90.62
850.805	23.04
850.98	104.96
851.155	37.38
851.33	8.7
851.505	57.86
851.681	41.47
851.856	-46.59
852.031	49.66
852.206	33.28
852.381	-15.87
852.556	51.71
852.731	92.67
852.906	14.85
853.081	76.29
853.256	55.81
853.431	98.81
853.606	59.9
853.781	27.14
853.956	-19.97
854.131	-42.5
854.305	39.42
854.48	2.56
854.655	-22.02
854.83	-28.16
855.005	59.9
855.18	61.95
855.354	33.28
855.529	-13.82
855.704	31.23
855.879	-38.4
856.053	-17.92
856.228	8.7
856.403	35.33
856.577	74.24
856.752	-17.92
856.926	55.81
857.101	25.09
857.276	-42.5
857.45	0.51
857.625	20.99
857.799	6.66
857.974	49.66
858.148	-5.63
858.323	2.56
858.497	-5.63
858.672	47.62
858.846	-52.74
859.02	53.76
859.195	-50.69
859.369	-62.98
859.543	2.56
859.718	31.23
859.892	33.28
860.066	107.01
860.241	8.7
860.415	70.14
860.589	33.28
860.763	-17.92
860.938	-28.16
861.112	129.53
861.286	53.76
861.46	0.51
861.634	-30.21
861.808	6.66
861.982	-5.63
862.157	-5.63
862.331	-77.31
862.505	23.04
862.679	-22.02
862.853	18.94
863.027	-1.54
863.201	10.75
863.375	-44.54
863.549	96.77
863.722	-26.11
863.896	10.75
864.07	-24.06
864.244	37.38
864.418	6.66
864.592	-15.87
864.766	29.18
864.939	-9.73
865.113	-28.16
865.287	43.52
865.461	33.28
865.634	74.24
865.808	47.62
865.982	61.95
866.156	14.85
866.329	-28.16
866.503	6.66
866.676	49.66
866.85	20.99
867.024	12.8
867.197	8.7
867.371	72.19
867.544	8.7
867.718	-22.02
867.891	-7.68
868.065	0.51
868.238	-7.68
868.412	14.85
868.585	37.38
868.759	37.38
868.932	0.51
869.105	-15.87
869.279	4.61
869.452	10.75
869.625	20.99
869.799	12.8
869.972	-15.87
870.145	4.61
870.319	-44.54
870.492	35.33
870.665	6.66
870.838	8.7
871.011	8.7
871.185	53.76
871.358	-38.4
871.531	10.75
871.704	-11.78
871.877	8.7
872.05	20.99
872.223	53.76
872.396	39.42
872.569	-26.11
872.742	2.56
872.915	39.42
873.088	-30.21
873.261	-9.73
873.434	94.72
873.607	37.38
873.78	23.04
873.953	33.28
874.126	-11.78
874.299	45.57
874.471	-22.02
874.644	43.52
874.817	20.99
874.99	-7.68
875.163	-22.02
875.335	51.71
875.508	-5.63
875.681	25.09
875.853	-7.68
876.026	-13.82
876.199	-1.54
876.371	6.66
876.544	4.61
876.717	-26.11
876.889	-7.68
877.062	6.66
877.234	-34.3
877.407	57.86
877.579	-38.4
877.752	18.94
877.924	20.99
878.097	92.67
878.269	61.95
878.442	18.94
878.614	4.61
878.786	-67.07
878.959	41.47
879.131	33.28
879.303	43.52
879.476	18.94
879.648	-7.68
879.82	18.94
879.993	55.81
880.165	-42.5
880.337	2.56
880.509	-36.35
880.681	-60.93
880.854	14.85
881.026	43.52
881.198	18.94
881.37	6.66
881.542	12.8
881.714	10.75
881.886	43.52
882.058	43.52
882.23	16.9
882.402	25.09
882.574	-17.92
882.746	2.56
882.918	10.75
883.09	14.85
883.262	2.56
883.434	-50.69
883.606	14.85
883.778	47.62
883.95	78.33
884.122	-34.3
884.293	-15.87
884.465	16.9
884.637	47.62
884.809	-1.54
884.98	41.47
885.152	-40.45
885.324	16.9
885.496	-11.78
885.667	41.47
885.839	0.51
886.011	64
886.182	-11.78
886.354	4.61
886.525	-26.11
886.697	49.66
886.869	-19.97
887.04	-71.17
887.212	102.91
887.383	43.52
887.555	29.18
887.726	-50.69
887.897	-67.07
888.069	-1.54
888.24	23.04
888.412	-52.74
888.583	-87.55
888.754	2.56
888.926	-58.88
889.097	66.05
889.268	37.38
889.44	16.9
889.611	-48.64
889.782	25.09
889.953	45.57
890.125	-40.45
890.296	-34.3
890.467	20.99
890.638	39.42
890.809	-11.78
890.98	59.9
891.151	18.94
891.323	-60.93
891.494	49.66
891.665	39.42
891.836	2.56
892.007	-32.26
892.178	23.04
892.349	-38.4
892.52	0.51
892.691	-11.78
892.862	4.61
893.032	-7.68
893.203	29.18
893.374	-34.3
893.545	-7.68
893.716	35.33
893.887	2.56
894.057	29.18
894.228	6.66
894.399	-32.26
894.57	49.66
894.74	-36.35
894.911	-34.3
895.082	6.66
895.253	-52.74
895.423	-22.02
895.594	10.75
895.764	14.85
895.935	-26.11
896.106	41.47
896.276	-24.06
896.447	-32.26
896.617	47.62
896.788	20.99
896.958	-48.64
897.129	43.52
897.299	14.85
897.47	39.42
897.64	-26.11
897.81	4.61
897.981	-11.78
898.151	-48.64
898.322	35.33
898.492	-1.54
898.662	-65.02
898.832	41.47
899.003	61.95
899.173	-22.02
899.343	33.28
899.513	-28.16
