Data from USB4F104151__34__11-44-53-852.txt Node

Date: Fri Mar 14 11:44:53 EDT 2025
User: louis
Spectrometer: USB4F10415
Trigger mode: 4
Integration Time (sec): 2.000000E-2
Scans to average: 1
Electric dark correction enabled: true
Nonlinearity correction enabled: false
Boxcar width: 0
XAxis mode: Wavelengths
Number of Pixels in Spectrum: 3648
>>>>>Begin Spectral Data<<<<<
178.204	-103.93
178.424	-103.93
178.644	-103.93
178.864	-140.8
179.084	-38.4
179.304	-36.35
179.524	-26.11
179.744	35.33
179.964	45.57
180.184	-5.63
180.404	-28.16
180.624	-26.11
180.844	-7.68
181.064	10.75
181.283	-65.02
181.503	57.86
181.723	45.57
181.943	4.61
182.163	61.95
182.383	-17.92
182.602	8.7
182.822	6.66
183.042	10.75
183.262	-24.06
183.482	33.28
183.701	2.56
183.921	-7.68
184.141	-24.06
184.361	8.7
184.58	16.9
184.8	-9.73
185.02	-46.59
185.239	20.99
185.459	-11.78
185.679	-38.4
185.898	10.75
186.118	27.14
186.338	20.99
186.557	59.9
186.777	-97.79
186.997	-46.59
187.216	-44.54
187.436	76.29
187.655	10.75
187.875	-15.87
188.095	25.09
188.314	-1.54
188.534	37.38
188.753	27.14
188.973	4.61
189.192	-11.78
189.412	39.42
189.631	37.38
189.851	-11.78
190.07	57.86
190.29	-24.06
190.509	-30.21
190.729	55.81
190.948	25.09
191.168	176.64
191.387	20.99
191.607	0.51
191.826	14.85
192.045	29.18
192.265	90.62
192.484	4.61
192.704	70.14
192.923	-83.45
193.142	88.57
193.362	-69.12
193.581	0.51
193.8	115.2
194.02	41.47
194.239	23.04
194.458	-42.5
194.678	-7.68
194.897	51.71
195.116	-36.35
195.335	8.7
195.555	4.61
195.774	49.66
195.993	-22.02
196.212	-5.63
196.432	14.85
196.651	-30.21
196.87	31.23
197.089	-15.87
197.308	6.66
197.528	47.62
197.747	-5.63
197.966	12.8
198.185	-17.92
198.404	-28.16
198.623	53.76
198.842	61.95
199.062	39.42
199.281	51.71
199.5	-7.68
199.719	59.9
199.938	57.86
200.157	27.14
200.376	18.94
200.595	59.9
200.814	39.42
201.033	33.28
201.252	2.56
201.471	43.52
201.69	55.81
201.909	20.99
202.128	8.7
202.347	39.42
202.566	10.75
202.785	29.18
203.004	-36.35
203.223	59.9
203.442	-40.45
203.661	16.9
203.879	-24.06
204.098	78.33
204.317	53.76
204.536	47.62
204.755	61.95
204.974	51.71
205.193	-44.54
205.411	49.66
205.63	-5.63
205.849	-54.78
206.068	-54.78
206.287	-1.54
206.505	49.66
206.724	20.99
206.943	2.56
207.162	-7.68
207.381	-26.11
207.599	2.56
207.818	18.94
208.037	-34.3
208.255	-9.73
208.474	102.91
208.693	2.56
208.911	72.19
209.13	33.28
209.349	102.91
209.567	55.81
209.786	-52.74
210.005	84.48
210.223	-38.4
210.442	16.9
210.661	27.14
210.879	14.85
211.098	96.77
211.316	86.53
211.535	20.99
211.753	72.19
211.972	57.86
212.191	6.66
212.409	70.14
212.628	64
212.846	-3.58
213.065	31.23
213.283	18.94
213.502	0.51
213.72	10.75
213.938	23.04
214.157	-13.82
214.375	72.19
214.594	41.47
214.812	8.7
215.031	2.56
215.249	-36.35
215.467	-17.92
215.686	0.51
215.904	35.33
216.122	96.77
216.341	-5.63
216.559	-52.74
216.778	35.33
216.996	49.66
217.214	18.94
217.432	-9.73
217.651	-1.54
217.869	-32.26
218.087	-5.63
218.306	29.18
218.524	-15.87
218.742	16.9
218.96	2.56
219.179	43.52
219.397	23.04
219.615	-11.78
219.833	-24.06
220.051	-11.78
220.27	0.51
220.488	70.14
220.706	27.14
220.924	-75.26
221.142	-38.4
221.36	43.52
221.578	12.8
221.796	6.66
222.015	10.75
222.233	16.9
222.451	16.9
222.669	-54.78
222.887	41.47
223.105	14.85
223.323	43.52
223.541	-28.16
223.759	45.57
223.977	53.76
224.195	76.29
224.413	27.14
224.631	74.24
224.849	14.85
225.067	35.33
225.285	-38.4
225.503	8.7
225.721	-89.6
225.939	6.66
226.157	16.9
226.375	-22.02
226.592	2.56
226.81	25.09
227.028	18.94
227.246	74.24
227.464	-3.58
227.682	90.62
227.9	20.99
228.117	27.14
228.335	33.28
228.553	23.04
228.771	33.28
228.989	47.62
229.206	35.33
229.424	53.76
229.642	18.94
229.86	-1.54
230.077	55.81
230.295	-44.54
230.513	37.38
230.731	41.47
230.948	12.8
231.166	53.76
231.384	-52.74
231.601	131.58
231.819	92.67
232.037	37.38
232.254	-17.92
232.472	6.66
232.689	41.47
232.907	59.9
233.125	-28.16
233.342	-50.69
233.56	14.85
233.777	39.42
233.995	14.85
234.213	37.38
234.43	-17.92
234.648	72.19
234.865	-87.55
235.083	-52.74
235.3	61.95
235.518	31.23
235.735	41.47
235.953	8.7
236.17	53.76
236.388	-87.55
236.605	-11.78
236.822	27.14
237.04	-62.98
237.257	70.14
237.475	-30.21
237.692	100.86
237.909	-26.11
238.127	76.29
238.344	27.14
238.562	41.47
238.779	-54.78
238.996	16.9
239.214	14.85
239.431	27.14
239.648	78.33
239.865	8.7
240.083	2.56
240.3	0.51
240.517	18.94
240.735	-5.63
240.952	51.71
241.169	39.42
241.386	88.57
241.603	4.61
241.821	-34.3
242.038	14.85
242.255	10.75
242.472	23.04
242.689	84.48
242.907	20.99
243.124	16.9
243.341	82.43
243.558	14.85
243.775	-24.06
243.992	25.09
244.209	8.7
244.426	-11.78
244.643	88.57
244.86	-52.74
245.078	12.8
245.295	31.23
245.512	0.51
245.729	-13.82
245.946	-28.16
246.163	2.56
246.38	29.18
246.597	-28.16
246.814	-1.54
247.031	80.38
247.248	94.72
247.464	8.7
247.681	0.51
247.898	10.75
248.115	16.9
248.332	2.56
248.549	4.61
248.766	70.14
248.983	-7.68
249.2	2.56
249.417	33.28
249.633	55.81
249.85	55.81
250.067	82.43
250.284	45.57
250.501	-28.16
250.717	-15.87
250.934	55.81
251.151	92.67
251.368	10.75
251.585	57.86
251.801	31.23
252.018	0.51
252.235	12.8
252.451	2.56
252.668	31.23
252.885	76.29
253.102	45.57
253.318	-5.63
253.535	53.76
253.752	-5.63
253.968	31.23
254.185	51.71
254.401	35.33
254.618	-13.82
254.835	-19.97
255.051	16.9
255.268	-11.78
255.484	23.04
255.701	-30.21
255.917	51.71
256.134	-34.3
256.351	-9.73
256.567	29.18
256.784	4.61
257	-38.4
257.217	31.23
257.433	74.24
257.65	53.76
257.866	27.14
258.082	-3.58
258.299	4.61
258.515	25.09
258.732	-26.11
258.948	25.09
259.165	31.23
259.381	23.04
259.597	-22.02
259.814	25.09
260.03	31.23
260.246	4.61
260.463	-30.21
260.679	72.19
260.895	-32.26
261.112	-11.78
261.328	49.66
261.544	-7.68
261.761	14.85
261.977	-34.3
262.193	-11.78
262.409	18.94
262.626	18.94
262.842	18.94
263.058	0.51
263.274	88.57
263.49	8.7
263.707	39.42
263.923	-38.4
264.139	-36.35
264.355	55.81
264.571	23.04
264.787	53.76
265.004	-3.58
265.22	33.28
265.436	8.7
265.652	14.85
265.868	47.62
266.084	-1.54
266.3	35.33
266.516	59.9
266.732	31.23
266.948	20.99
267.164	18.94
267.38	-5.63
267.596	35.33
267.812	76.29
268.028	-1.54
268.244	-11.78
268.46	14.85
268.676	33.28
268.892	88.57
269.108	-42.5
269.324	61.95
269.54	49.66
269.756	20.99
269.972	27.14
270.188	47.62
270.403	25.09
270.619	2.56
270.835	-5.63
271.051	-36.35
271.267	6.66
271.483	20.99
271.698	10.75
271.914	113.15
272.13	-3.58
272.346	23.04
272.562	18.94
272.777	66.05
272.993	33.28
273.209	43.52
273.425	6.66
273.64	27.14
273.856	23.04
274.072	10.75
274.287	-32.26
274.503	61.95
274.719	49.66
274.934	-58.88
275.15	-15.87
275.366	20.99
275.581	8.7
275.797	39.42
276.012	51.71
276.228	-3.58
276.444	-13.82
276.659	59.9
276.875	-13.82
277.09	16.9
277.306	53.76
277.521	37.38
277.737	-13.82
277.952	94.72
278.168	2.56
278.383	-40.45
278.599	-1.54
278.814	31.23
279.03	27.14
279.245	-15.87
279.461	29.18
279.676	27.14
279.892	33.28
280.107	-30.21
280.322	-3.58
280.538	78.33
280.753	-58.88
280.969	18.94
281.184	43.52
281.399	37.38
281.615	59.9
281.83	-13.82
282.045	57.86
282.26	10.75
282.476	-13.82
282.691	-30.21
282.906	51.71
283.122	117.25
283.337	33.28
283.552	92.67
283.767	-1.54
283.983	-26.11
284.198	33.28
284.413	43.52
284.628	-7.68
284.843	86.53
285.058	39.42
285.274	8.7
285.489	25.09
285.704	47.62
285.919	-11.78
286.134	-48.64
286.349	-19.97
286.564	39.42
286.779	61.95
286.995	12.8
287.21	-81.41
287.425	6.66
287.64	59.9
287.855	31.23
288.07	14.85
288.285	41.47
288.5	20.99
288.715	-36.35
288.93	-19.97
289.145	6.66
289.36	47.62
289.575	-46.59
289.79	66.05
290.004	-28.16
290.219	18.94
290.434	41.47
290.649	-19.97
290.864	18.94
291.079	-17.92
291.294	0.51
291.509	31.23
291.724	27.14
291.938	2.56
292.153	6.66
292.368	2.56
292.583	39.42
292.798	6.66
293.012	59.9
293.227	51.71
293.442	74.24
293.657	-30.21
293.871	29.18
294.086	86.53
294.301	43.52
294.516	141.82
294.73	-15.87
294.945	16.9
295.16	6.66
295.374	66.05
295.589	88.57
295.804	-13.82
296.018	27.14
296.233	37.38
296.447	-13.82
296.662	4.61
296.877	-28.16
297.091	-44.54
297.306	74.24
297.52	70.14
297.735	88.57
297.949	43.52
298.164	61.95
298.378	35.33
298.593	-50.69
298.807	14.85
299.022	82.43
299.236	49.66
299.451	16.9
299.665	6.66
299.88	18.94
300.094	14.85
300.309	-9.73
300.523	76.29
300.737	6.66
300.952	2.56
301.166	43.52
301.381	-5.63
301.595	16.9
301.809	-3.58
302.024	-11.78
302.238	-54.78
302.452	-34.3
302.667	61.95
302.881	33.28
303.095	-30.21
303.309	-1.54
303.524	-17.92
303.738	-60.93
303.952	-52.74
304.166	2.56
304.381	6.66
304.595	68.09
304.809	25.09
305.023	6.66
305.237	84.48
305.452	-11.78
305.666	23.04
305.88	66.05
306.094	31.23
306.308	-73.21
306.522	-26.11
306.736	-22.02
306.95	49.66
307.164	33.28
307.379	10.75
307.593	23.04
307.807	-22.02
308.021	66.05
308.235	-1.54
308.449	2.56
308.663	-1.54
308.877	47.62
309.091	-71.17
309.305	6.66
309.519	51.71
309.733	80.38
309.947	31.23
310.161	-13.82
310.374	68.09
310.588	35.33
310.802	-22.02
311.016	25.09
311.23	43.52
311.444	-17.92
311.658	25.09
311.872	57.86
312.085	18.94
312.299	45.57
312.513	86.53
312.727	-15.87
312.941	39.42
313.154	31.23
313.368	-13.82
313.582	31.23
313.796	64
314.009	16.9
314.223	59.9
314.437	72.19
314.651	-11.78
314.864	23.04
315.078	35.33
315.292	-13.82
315.505	35.33
315.719	12.8
315.933	31.23
316.146	55.81
316.36	70.14
316.573	55.81
316.787	80.38
317.001	88.57
317.214	-54.78
317.428	-65.02
317.641	37.38
317.855	137.73
318.068	53.76
318.282	35.33
318.495	68.09
318.709	59.9
318.922	16.9
319.136	47.62
319.349	57.86
319.563	-67.07
319.776	57.86
319.99	10.75
320.203	29.18
320.417	33.28
320.63	27.14
320.843	92.67
321.057	4.61
321.27	8.7
321.483	-30.21
321.697	23.04
321.91	23.04
322.124	76.29
322.337	8.7
322.55	10.75
322.763	53.76
322.977	49.66
323.19	-7.68
323.403	55.81
323.617	-36.35
323.83	70.14
324.043	-50.69
324.256	4.61
324.469	41.47
324.683	66.05
324.896	25.09
325.109	-32.26
325.322	61.95
325.535	31.23
325.748	39.42
325.962	-34.3
326.175	55.81
326.388	10.75
326.601	55.81
326.814	-3.58
327.027	86.53
327.24	4.61
327.453	-24.06
327.666	14.85
327.879	-9.73
328.092	-26.11
328.305	25.09
328.518	-9.73
328.731	-19.97
328.944	39.42
329.157	102.91
329.37	53.76
329.583	55.81
329.796	53.76
330.009	68.09
330.222	35.33
330.435	72.19
330.648	6.66
330.861	51.71
331.073	18.94
331.286	41.47
331.499	74.24
331.712	20.99
331.925	64
332.138	6.66
332.35	51.71
332.563	47.62
332.776	82.43
332.989	-5.63
333.202	64
333.414	-52.74
333.627	45.57
333.84	-24.06
334.053	12.8
334.265	16.9
334.478	-34.3
334.691	35.33
334.903	57.86
335.116	70.14
335.329	49.66
335.541	92.67
335.754	74.24
335.966	64
336.179	104.96
336.392	55.81
336.604	12.8
336.817	16.9
337.029	-22.02
337.242	37.38
337.454	86.53
337.667	12.8
337.88	154.11
338.092	49.66
338.305	39.42
338.517	-17.92
338.729	37.38
338.942	59.9
339.154	72.19
339.367	-3.58
339.579	-11.78
339.792	20.99
340.004	45.57
340.217	10.75
340.429	53.76
340.641	41.47
340.854	31.23
341.066	64
341.278	74.24
341.491	31.23
341.703	23.04
341.915	16.9
342.128	27.14
342.34	59.9
342.552	70.14
342.764	57.86
342.977	59.9
343.189	-22.02
343.401	51.71
343.613	23.04
343.826	94.72
344.038	-13.82
344.25	-3.58
344.462	31.23
344.674	-15.87
344.886	-15.87
345.099	47.62
345.311	59.9
345.523	-40.45
345.735	61.95
345.947	-9.73
346.159	53.76
346.371	72.19
346.583	64
346.795	35.33
347.007	20.99
347.219	-22.02
347.431	14.85
347.643	82.43
347.855	-3.58
348.067	104.96
348.279	4.61
348.491	14.85
348.703	98.81
348.915	14.85
349.127	39.42
349.339	-38.4
349.551	23.04
349.763	47.62
349.975	-5.63
350.187	31.23
350.399	53.76
350.61	12.8
350.822	41.47
351.034	29.18
351.246	59.9
351.458	57.86
351.669	25.09
351.881	47.62
352.093	-32.26
352.305	27.14
352.517	23.04
352.728	74.24
352.94	39.42
353.152	53.76
353.363	-1.54
353.575	96.77
353.787	-24.06
353.999	47.62
354.21	14.85
354.422	35.33
354.633	8.7
354.845	37.38
355.057	43.52
355.268	33.28
355.48	59.9
355.692	57.86
355.903	29.18
356.115	20.99
356.326	-54.78
356.538	41.47
356.749	94.72
356.961	43.52
357.172	-19.97
357.384	102.91
357.595	-17.92
357.807	25.09
358.018	-19.97
358.23	0.51
358.441	31.23
358.653	23.04
358.864	27.14
359.075	-7.68
359.287	-5.63
359.498	53.76
359.709	-19.97
359.921	55.81
360.132	39.42
360.344	49.66
360.555	-32.26
360.766	72.19
360.977	27.14
361.189	92.67
361.4	-30.21
361.611	104.96
361.823	59.9
362.034	18.94
362.245	-24.06
362.456	29.18
362.667	39.42
362.879	41.47
363.09	-13.82
363.301	61.95
363.512	70.14
363.723	-7.68
363.935	78.33
364.146	88.57
364.357	49.66
364.568	27.14
364.779	-13.82
364.99	35.33
365.201	-26.11
365.412	53.76
365.623	-17.92
365.834	35.33
366.045	61.95
366.256	64
366.467	55.81
366.678	29.18
366.889	51.71
367.1	16.9
367.311	39.42
367.522	59.9
367.733	35.33
367.944	10.75
368.155	-30.21
368.366	76.29
368.577	88.57
368.788	111.1
368.999	55.81
369.209	74.24
369.42	35.33
369.631	84.48
369.842	98.81
370.053	10.75
370.264	100.86
370.474	39.42
370.685	59.9
370.896	41.47
371.107	57.86
371.317	45.57
371.528	-9.73
371.739	90.62
371.95	57.86
372.16	115.2
372.371	39.42
372.582	41.47
372.792	35.33
373.003	-17.92
373.214	-9.73
373.424	35.33
373.635	45.57
373.846	66.05
374.056	96.77
374.267	43.52
374.477	76.29
374.688	29.18
374.898	-1.54
375.109	47.62
375.319	27.14
375.53	51.71
375.74	68.09
375.951	141.82
376.161	57.86
376.372	57.86
376.582	39.42
376.793	53.76
377.003	-24.06
377.214	4.61
377.424	39.42
377.635	109.05
377.845	25.09
378.055	107.01
378.266	12.8
378.476	35.33
378.686	-9.73
378.897	80.38
379.107	39.42
379.317	43.52
379.528	72.19
379.738	55.81
379.948	-36.35
380.158	125.44
380.369	47.62
380.579	45.57
380.789	43.52
380.999	10.75
381.21	20.99
381.42	117.25
381.63	61.95
381.84	37.38
382.05	27.14
382.261	18.94
382.471	12.8
382.681	14.85
382.891	59.9
383.101	70.14
383.311	49.66
383.521	82.43
383.731	31.23
383.941	80.38
384.151	53.76
384.361	-3.58
384.571	29.18
384.781	4.61
384.991	72.19
385.201	115.2
385.411	90.62
385.621	-30.21
385.831	14.85
386.041	37.38
386.251	84.48
386.461	70.14
386.671	96.77
386.881	59.9
387.091	68.09
387.301	35.33
387.511	-9.73
387.72	39.42
387.93	104.96
388.14	12.8
388.35	84.48
388.56	68.09
388.769	72.19
388.979	57.86
389.189	59.9
389.399	107.01
389.609	20.99
389.818	8.7
390.028	86.53
390.238	4.61
390.447	18.94
390.657	41.47
390.867	39.42
391.076	-15.87
391.286	20.99
391.496	66.05
391.705	68.09
391.915	113.15
392.125	45.57
392.334	31.23
392.544	59.9
392.753	74.24
392.963	29.18
393.172	84.48
393.382	51.71
393.591	80.38
393.801	20.99
394.01	127.49
394.22	84.48
394.429	23.04
394.639	64
394.848	45.57
395.058	68.09
395.267	45.57
395.477	98.81
395.686	27.14
395.895	129.53
396.105	96.77
396.314	41.47
396.524	47.62
396.733	57.86
396.942	107.01
397.152	90.62
397.361	129.53
397.57	49.66
397.78	154.11
397.989	49.66
398.198	164.35
398.407	47.62
398.617	125.44
398.826	39.42
399.035	152.06
399.244	14.85
399.453	76.29
399.663	8.7
399.872	96.77
400.081	68.09
400.29	109.05
400.499	2.56
400.708	137.73
400.917	127.49
401.127	104.96
401.336	121.34
401.545	125.44
401.754	170.49
401.963	125.44
402.172	133.63
402.381	125.44
402.59	55.81
402.799	119.29
403.008	111.1
403.217	137.73
403.426	193.02
403.635	68.09
403.844	141.82
404.053	113.15
404.262	125.44
404.471	104.96
404.68	217.6
404.888	129.53
405.097	66.05
405.306	229.88
405.515	168.45
405.724	113.15
405.933	205.31
406.142	119.29
406.35	207.36
406.559	76.29
406.768	182.78
406.977	236.03
407.185	223.74
407.394	180.73
407.603	197.12
407.812	199.16
408.02	186.88
408.229	215.55
408.438	199.16
408.646	240.12
408.855	227.84
409.064	227.84
409.272	311.8
409.481	252.41
409.69	272.89
409.898	281.08
410.107	309.76
410.315	272.89
410.524	348.67
410.733	307.71
410.941	311.8
411.15	313.85
411.358	377.34
411.567	320
411.775	297.47
411.984	451.07
412.192	432.63
412.401	440.83
412.609	430.59
412.818	516.6
413.026	530.94
413.234	545.27
413.443	598.52
413.651	602.61
413.86	543.22
414.068	586.23
414.276	561.66
414.485	637.43
414.693	555.51
414.901	700.92
415.11	627.19
415.318	694.77
415.526	741.88
415.734	752.12
415.943	801.27
416.151	848.37
416.359	866.8
416.567	856.56
416.776	874.99
416.984	874.99
417.192	936.43
417.4	901.62
417.608	870.9
417.817	956.91
418.025	1114.61
418.233	1176.05
418.441	1149.42
418.649	1225.2
418.857	1300.97
419.065	1303.02
419.273	1243.63
419.481	1311.21
419.689	1411.56
419.897	1405.42
420.105	1376.75
420.313	1604.07
420.521	1616.36
420.729	1548.78
420.937	1751.53
421.145	1817.06
421.353	1831.4
421.561	1886.69
421.769	1948.13
421.977	1974.75
422.185	2036.19
422.393	2263.52
422.601	2249.18
422.809	2249.18
423.017	2353.63
423.224	2458.07
423.432	2408.92
423.64	2470.36
423.848	2769.37
424.056	2699.73
424.263	2836.95
424.471	2834.9
424.679	2990.55
424.887	3002.83
425.094	3193.3
425.302	3240.4
425.51	3283.41
425.718	3346.89
425.925	3449.29
426.133	3684.81
426.341	3705.29
426.548	3955.14
426.756	3887.56
426.964	3934.66
427.171	4172.22
427.379	4325.82
427.586	4344.25
427.794	4559.29
428.001	4807.09
428.209	4997.56
428.417	4927.92
428.624	5169.59
428.832	5247.41
429.039	5235.12
429.247	5233.07
429.454	5812.65
429.662	6115.75
429.869	5642.67
430.076	6037.92
430.284	5949.86
430.491	6125.99
430.699	6496.67
430.906	6592.92
431.114	6654.36
431.321	6816.15
431.528	7031.19
431.736	7369.1
431.943	7766.41
432.15	7491.98
432.358	7635.34
432.565	8059.27
432.772	8182.15
432.979	8366.46
433.187	8591.74
433.394	8700.28
433.601	9177.46
433.808	9179.51
434.016	9345.39
434.223	9566.57
434.43	10088.81
434.637	10017.13
434.844	10604.89
435.052	10699.1
435.259	10789.21
435.466	10819.93
435.673	10682.72
435.88	11532.62
436.087	12294.47
436.294	12151.11
436.501	11555.15
436.708	11981.13
436.915	12329.28
437.122	12921.15
437.329	13154.62
437.537	13361.46
437.743	13392.18
437.95	13666.61
438.157	14336.29
438.364	14852.38
438.571	14512.42
438.778	14563.62
438.985	15966.48
439.192	15477.01
439.399	15778.06
439.606	15618.32
439.813	16437.51
440.02	17447.16
440.227	17197.31
440.433	16820.48
440.64	17854.7
440.847	17703.15
441.054	18028.78
441.261	19046.62
441.467	18624.74
441.674	19351.77
441.881	19900.62
442.088	19947.73
442.294	19740.88
442.501	20234.44
442.708	20590.79
442.914	21479.61
443.121	22388.91
443.328	21903.54
443.534	23314.59
443.741	22558.89
443.948	22192.3
444.154	23984.27
444.361	23759
444.568	24094.86
444.774	24033.43
444.981	24500.36
445.187	25104.51
445.394	25870.45
445.6	25432.19
445.807	28104.79
446.013	27050.08
446.22	27314.27
446.426	28172.37
446.633	28708.94
446.839	29519.93
447.046	28426.32
447.252	30355.5
447.459	30074.93
447.665	30244.91
447.871	31658.01
448.078	32628.75
448.284	30849.07
448.491	31825.95
448.697	33159.17
448.903	33490.94
449.11	33642.49
449.316	33181.7
449.522	34064.38
449.728	34754.54
449.935	35074.02
450.141	34783.21
450.347	35825.63
450.553	34662.38
450.76	34815.98
450.966	36200.41
451.172	35766.24
451.378	36583.38
451.584	35821.53
451.791	36988.88
451.997	36937.68
452.203	37171.14
452.409	37150.67
452.615	37251.02
452.821	35919.84
453.027	35043.31
453.233	37027.79
453.44	35631.07
453.646	36208.6
453.852	36429.78
454.058	36835.28
454.264	36274.13
454.47	36407.25
454.676	35704.8
454.882	36974.54
455.088	33538.05
455.294	34172.92
455.5	34496.5
455.705	35102.7
455.911	33576.96
456.117	32905.23
456.323	32772.11
456.529	31096.87
456.735	32333.84
456.941	31412.26
457.147	30959.66
457.352	30027.83
457.558	29343.81
457.764	29503.55
457.97	29249.6
458.176	28268.62
458.381	28911.69
458.587	27119.71
458.793	26968.16
458.999	25495.67
459.204	27295.84
459.41	26779.75
459.616	24825.99
459.821	25145.47
460.027	24871.04
460.233	24397.96
460.438	23031.97
460.644	23431.32
460.85	22700.2
461.055	22192.3
461.261	21999.79
461.466	20392.14
461.672	19628.24
461.878	20957.38
462.083	19484.89
462.289	19273.95
462.494	19257.56
462.7	18260.2
462.905	17797.36
463.111	18415.85
463.316	18704.61
463.522	18299.11
463.727	18114.8
463.932	18053.36
464.138	17756.4
464.343	17998.06
464.549	17426.68
464.754	17989.87
464.959	17776.88
465.165	17764.59
465.37	17023.23
465.575	16548.1
465.781	17301.75
465.986	17400.05
466.191	16658.69
466.397	16390.41
466.602	15771.92
466.807	16013.58
467.012	16050.44
467.218	15993.1
467.423	15667.47
467.628	16044.3
467.833	16689.41
468.038	15831.31
468.244	15374.61
468.449	16222.47
468.654	15595.79
468.859	15517.97
469.064	15483.16
469.269	14772.51
469.474	14887.2
469.679	15304.98
469.885	14729.5
470.09	15173.91
470.295	14821.66
470.5	14645.54
470.705	14803.23
470.91	14262.57
471.115	14432.55
471.32	14203.18
471.525	14473.51
471.73	13949.23
471.935	13922.6
472.139	13338.93
472.344	13734.19
472.549	13496.63
472.754	13353.27
472.959	13123.9
473.164	12716.35
473.369	12470.59
473.574	13220.15
473.778	12843.32
473.983	13029.69
474.188	12601.66
474.393	12171.59
474.598	12224.84
474.802	12081.48
475.007	11858.25
475.212	12126.53
475.417	11739.47
475.621	11524.43
475.826	11544.91
476.031	11608.4
476.235	10996.06
476.44	11401.55
476.645	11039.06
476.849	11258.2
477.054	10918.23
477.259	10762.59
477.463	11075.93
477.668	10541.41
477.872	10627.42
478.077	10606.94
478.282	10223.97
478.486	10260.84
478.691	10242.4
478.895	10037.61
479.1	10029.41
479.304	10082.66
479.509	9824.62
479.713	9910.63
479.918	9851.24
480.122	9480.56
480.326	9814.38
480.531	9881.96
480.735	9595.25
480.94	9601.39
481.144	9714.03
481.348	9374.06
481.553	9462.13
481.757	9058.68
481.961	9394.54
482.166	9425.26
482.37	9386.35
482.574	9234.8
482.778	9179.51
482.983	9294.19
483.187	9277.81
483.391	9236.85
483.595	9163.12
483.8	9191.8
484.004	9353.59
484.208	9449.84
484.412	9220.47
484.616	9220.47
484.821	9283.95
485.025	9224.56
485.229	9257.33
485.433	9187.7
485.637	9312.63
485.841	9392.5
486.045	9191.8
486.249	9337.2
486.453	9279.86
486.657	9177.46
486.861	9437.55
487.065	9005.43
487.269	9279.86
487.473	9156.98
487.677	9349.49
487.881	9439.6
488.085	9216.37
488.289	9093.49
488.493	9267.57
488.697	9193.84
488.901	9425.26
489.105	9302.39
489.309	9296.24
489.512	9222.52
489.716	9300.34
489.92	9150.84
490.124	9421.17
490.328	9453.94
490.531	9392.5
490.735	9529.71
490.939	9265.52
491.143	9509.23
491.346	9544.05
491.55	9537.9
491.754	9740.65
491.958	9562.48
492.161	9552.24
492.365	9824.62
492.569	9781.61
492.772	9666.92
492.976	9886.06
493.18	9836.91
493.383	10166.63
493.587	9957.74
493.79	9941.35
493.994	9881.96
494.197	10060.13
494.401	10185.06
494.605	10221.92
494.808	10355.04
495.012	10402.15
495.215	10320.23
495.419	10572.13
495.622	10508.64
495.825	10633.57
496.029	10627.42
496.232	10891.61
496.436	10963.29
496.639	11256.15
496.843	10977.62
497.046	11157.85
497.249	11213.14
497.453	11442.51
497.656	11497.81
497.859	11602.25
498.063	11805
498.266	11960.65
498.469	12034.38
498.673	11960.65
498.876	12165.45
499.079	12056.9
499.282	12468.55
499.485	12589.38
499.689	12802.36
499.892	12708.16
500.095	12941.63
500.298	13238.58
500.501	13037.88
500.705	13613.36
500.908	13435.19
501.111	13648.18
501.314	13732.14
501.517	14004.52
501.72	14082.35
501.923	14102.82
502.126	14407.97
502.329	14410.02
502.532	14598.43
502.735	15001.88
502.938	15026.46
503.141	15157.53
503.344	15128.86
503.547	15485.2
503.75	15499.54
503.953	15804.69
504.156	16007.44
504.359	16044.3
504.562	16271.62
504.765	16480.52
504.968	16548.1
505.17	16732.42
505.373	16681.22
505.576	17133.82
505.779	17389.81
505.982	17271.03
506.185	17699.06
506.387	17789.17
506.59	18172.14
506.793	17987.82
506.996	18190.57
507.198	18852.06
507.401	18925.79
507.604	18841.82
507.807	19409.11
508.009	19093.72
508.212	19497.17
508.415	19646.68
508.617	20054.22
508.82	20291.79
509.022	19740.88
509.225	20420.81
509.428	20687.04
509.63	20709.57
509.833	20838.59
510.035	21147.84
510.238	21340.35
510.44	21723.32
510.643	21698.74
510.845	21983.41
511.048	21545.14
511.25	22089.9
511.453	22515.88
511.655	23140.51
511.858	22692.01
512.06	23085.22
512.262	23314.59
512.465	23337.12
512.667	23584.92
512.87	24076.43
513.072	23988.37
513.274	24451.21
513.477	24561.8
513.679	24629.38
513.881	25151.62
514.084	25251.97
514.286	25262.21
514.488	25460.86
514.69	26216.56
514.893	26177.65
515.095	25915.51
515.297	26445.93
515.499	26703.98
515.701	26972.26
515.904	27177.06
516.106	27543.64
516.308	27793.5
516.51	28125.27
516.712	27764.82
516.914	28440.65
517.116	28457.04
517.318	28715.08
517.52	28956.74
517.722	28987.46
517.925	29462.59
518.127	29708.35
518.329	29839.42
518.531	29859.9
518.733	30478.38
518.935	30468.14
519.136	30453.81
519.338	30847.02
519.54	31021.09
519.742	31000.61
519.944	31498.27
520.146	32364.56
520.348	32249.88
520.55	32149.53
520.752	32206.87
520.954	33032.2
521.155	32458.77
521.357	33253.38
521.559	33378.31
521.761	33677.31
521.963	33611.78
522.164	33935.35
522.366	34078.71
522.568	34617.33
522.77	34504.69
522.971	35049.45
523.173	34961.39
523.375	35180.52
523.576	35053.55
523.778	35215.33
523.98	35745.76
524.181	36151.26
524.383	35807.2
524.584	36761.55
524.786	36505.55
524.988	36147.16
525.189	36597.71
525.391	36917.2
525.592	37341.13
525.794	37414.85
525.995	37498.82
526.197	37398.47
526.398	37525.44
526.6	37642.18
526.801	37857.21
527.003	38076.35
527.204	38268.86
527.406	38217.66
527.607	38191.03
527.808	38703.03
528.01	37976
528.211	38655.92
528.412	39423.91
528.614	39153.58
528.815	38864.81
529.016	39618.47
529.218	39090.09
529.419	39401.38
529.62	39372.71
529.822	39376.81
530.023	39266.22
530.224	39673.76
530.425	39348.14
530.626	39176.11
530.828	39489.45
531.029	40034.21
531.23	39368.62
531.431	39821.22
531.632	39872.42
531.833	40222.62
532.035	39966.62
532.236	40181.66
532.437	40402.84
532.638	39843.74
532.839	40562.58
533.04	40411.03
533.241	39966.62
533.442	40738.71
533.643	40308.63
533.844	40026.01
534.045	40384.41
534.246	39915.42
534.447	40621.97
534.648	40351.64
534.849	40236.95
535.05	40003.49
535.251	40503.19
535.451	40433.56
535.652	40640.4
535.853	40402.84
536.054	40478.61
536.255	40533.91
536.456	39899.04
536.657	40814.48
536.857	40394.65
537.058	40316.82
537.259	40791.95
537.46	40488.85
537.66	40183.71
537.861	39944.09
538.062	40208.28
538.263	40509.33
538.463	40263.58
538.664	40619.92
538.865	40460.18
539.065	40791.95
539.266	39960.48
539.466	40701.84
539.667	39940
539.868	40814.48
540.068	40036.25
540.269	40296.35
540.469	40544.15
540.67	39980.96
540.87	40486.81
541.071	40144.8
541.271	40286.11
541.472	40122.27
541.672	40011.68
541.873	40185.75
542.073	39636.9
542.274	40357.78
542.474	40337.3
542.675	40091.55
542.875	40548.25
543.075	40079.26
543.276	39862.18
543.476	40654.74
543.676	40042.4
543.877	40101.79
544.077	40228.76
544.277	40288.15
544.478	40075.16
544.678	40191.9
544.878	40372.12
545.078	40454.04
545.279	39548.84
545.479	40040.35
545.679	40073.12
545.879	40159.13
546.079	39737.25
546.28	39747.49
546.48	39292.84
546.68	40228.76
546.88	39944.09
547.08	40030.11
547.28	39890.85
547.48	39387.05
547.68	39911.33
547.88	39608.23
548.081	40114.08
548.281	40058.78
548.481	39792.54
548.681	40443.8
548.881	39538.6
549.081	40013.73
549.28	39638.95
549.48	40294.3
549.68	39739.3
549.88	40249.24
550.08	39292.84
550.28	40218.52
550.48	39796.64
550.68	40300.44
550.88	39612.32
551.08	39968.67
551.279	39571.36
551.479	39485.35
551.679	40368.02
551.879	39743.39
552.079	39847.84
552.278	39665.57
552.478	39929.76
552.678	39303.08
552.878	39933.85
553.077	39329.7
553.277	38965.17
553.477	40003.49
553.676	39739.3
553.876	39690.15
554.076	39188.39
554.275	39165.87
554.475	38629.3
554.674	39509.93
554.874	39366.57
555.074	39499.69
555.273	39061.42
555.473	39319.46
555.672	38809.52
555.872	39008.17
556.071	39083.95
556.271	38934.45
556.47	38469.56
556.67	38361.01
556.869	38363.06
557.068	39262.12
557.268	38827.95
557.467	38608.82
557.667	38590.39
557.866	38870.96
558.065	38231.99
558.265	38207.42
558.464	38281.14
558.663	39178.15
558.863	37928.89
559.062	38834.1
559.261	37986.24
559.461	38686.64
559.66	38287.29
559.859	38418.36
560.058	38109.11
560.258	38266.81
560.457	37918.65
560.656	37945.28
560.855	37883.84
561.054	38369.21
561.253	37969.85
561.453	38002.62
561.652	37945.28
561.851	37711.81
562.05	37963.71
562.249	37322.69
562.448	38004.67
562.647	37322.69
562.846	37564.35
563.045	37502.92
563.244	37058.51
563.443	37595.07
563.642	37087.18
563.841	37105.61
564.04	36896.72
564.239	37279.69
564.438	36618.19
564.637	36610
564.836	37128.14
565.035	36605.91
565.234	37156.81
565.432	36786.13
565.631	36466.64
565.83	36698.06
566.029	36050.91
566.228	36114.39
566.427	36476.88
566.625	36540.37
566.824	35786.72
567.023	36245.46
567.222	35413.99
567.42	36405.2
567.619	35598.3
567.818	35805.15
568.016	35700.7
568.215	35823.58
568.414	35573.73
568.612	35819.49
568.811	35749.85
569.01	35438.56
569.208	34967.53
569.407	35141.61
569.605	35096.55
569.804	35297.25
570.002	34891.76
570.201	35119.08
570.4	34713.58
570.598	35006.44
570.797	34478.07
570.995	35022.83
571.193	34392.05
571.392	34668.53
571.59	34328.56
571.789	34402.29
571.987	34373.62
572.186	34095.1
572.384	34226.17
572.582	34289.65
572.781	34234.36
572.979	33585.15
573.177	33736.7
573.376	34248.69
573.574	33691.65
573.772	33775.61
573.971	33388.55
574.169	33218.57
574.367	33226.76
574.565	33419.27
574.763	33241.09
574.962	33196.04
575.16	32925.71
575.358	32882.7
575.556	32491.54
575.754	33343.49
575.952	32595.98
576.151	33087.5
576.349	32499.73
576.547	32319.51
576.745	32575.5
576.943	32362.51
577.141	32438.29
577.339	32356.37
577.537	32260.12
577.735	32022.55
577.933	31838.23
578.131	32055.32
578.329	31750.17
578.527	31524.89
578.725	31334.43
578.923	31762.46
579.121	31629.34
579.319	31565.85
579.516	31293.47
579.714	31359.01
579.912	31531.04
580.11	31330.34
580.308	31150.12
580.506	31150.12
580.704	30548.01
580.901	30582.83
581.099	31225.89
581.297	30664.75
581.495	30574.64
581.692	30994.47
581.89	30378.03
582.088	30763.05
582.285	30259.25
582.483	30701.61
582.681	30308.4
582.878	30048.31
583.076	30095.41
583.274	30113.84
583.471	29900.86
583.669	30165.04
583.866	29786.17
584.064	29988.92
584.262	29544.51
584.459	29718.59
584.657	29679.68
584.854	29616.19
585.052	29177.92
585.249	28997.7
585.447	29517.89
585.644	28989.51
585.841	29530.17
586.039	29286.47
586.236	28371.02
586.434	28960.84
586.631	28725.32
586.828	28833.86
587.026	28952.65
587.223	28495.95
587.42	28356.69
587.618	28313.68
587.815	28274.77
588.012	28164.18
588.21	27986
588.407	28088.4
588.604	27981.91
588.801	27975.77
588.999	28237.91
589.196	27852.89
589.393	27646.04
589.59	27181.15
589.787	27627.61
589.984	27422.81
590.182	27222.11
590.379	27555.93
590.576	27078.75
590.773	27275.36
590.97	27068.51
591.167	27125.86
591.364	27039.84
591.561	26837.09
591.758	26943.59
591.955	26857.57
592.152	26869.86
592.349	26529.9
592.546	26845.29
592.743	26742.89
592.94	26310.77
593.137	26273.9
593.334	26605.67
593.531	26128.5
593.727	26228.85
593.924	26132.59
594.121	25849.97
594.318	26282.09
594.515	25467
594.712	25870.45
594.908	25716.86
595.105	25987.19
595.302	25569.4
595.499	25815.16
595.696	25575.55
595.892	25172.1
596.089	25567.35
596.286	25270.4
596.482	24971.39
596.679	25073.79
596.876	24952.96
597.072	24866.95
597.269	24825.99
597.466	24682.63
597.662	24586.38
597.859	24871.04
598.055	24889.48
598.252	24432.78
598.448	24469.64
598.645	24213.65
598.841	24338.57
599.038	24049.81
599.234	24342.67
599.431	23840.92
599.627	24123.54
599.824	24221.84
600.02	23773.33
600.217	23632.02
600.413	23484.57
600.609	23595.16
600.806	23107.74
601.002	23632.02
601.198	23586.97
601.395	23285.92
601.591	23408.79
601.787	23095.46
601.984	23314.59
602.18	23705.75
602.376	23072.93
602.572	22982.82
602.769	22878.37
602.965	22692.01
603.161	22849.7
603.357	22491.3
603.553	22530.22
603.75	22495.4
603.946	22309.04
604.142	22335.66
604.338	22165.68
604.534	22534.31
604.73	22081.71
604.926	22204.59
605.122	21776.56
605.318	21606.58
605.514	21833.91
605.71	21850.29
605.906	22089.9
606.102	21956.78
606.298	21842.1
606.494	21342.39
606.69	21567.67
606.886	21780.66
607.082	21575.86
607.278	21528.76
607.474	21045.44
607.67	21391.55
607.866	21248.19
608.062	21733.56
608.257	21174.46
608.453	21254.33
608.649	21225.66
608.845	20959.42
609.041	21022.91
609.236	20846.79
609.432	21104.83
609.628	21188.8
609.824	20852.93
610.019	20656.32
610.215	20609.22
610.411	20912.32
610.606	20531.4
610.802	20781.25
610.998	20717.76
611.193	20670.66
611.389	20504.78
611.584	20756.68
611.78	20541.64
611.976	20431.05
612.171	20355.27
612.367	20545.73
612.562	20418.76
612.758	20220.11
612.953	19771.6
613.149	20400.33
613.344	20115.66
613.539	20363.47
613.735	20117.71
613.93	20105.42
614.126	19669.2
614.321	20138.19
614.517	19902.67
614.712	19810.51
614.907	19982.54
615.103	19794.13
615.298	19775.7
615.493	20070.61
615.688	19577.05
615.884	19947.73
616.079	19183.84
616.274	19656.92
616.47	19634.39
616.665	19724.5
616.86	19390.68
617.055	19392.73
617.25	19409.11
617.445	19347.67
617.641	19206.36
617.836	19339.48
618.031	18989.28
618.226	19251.42
618.421	18712.8
618.616	18962.65
618.811	18784.48
619.006	18983.13
619.201	18831.58
619.396	18870.5
619.591	18434.28
619.786	19069.15
619.981	18471.14
620.176	18350.31
620.371	18374.89
620.566	18528.49
620.761	18469.09
620.956	18319.59
621.151	18086.12
621.346	18088.17
621.541	17809.65
621.735	17938.67
621.93	17508.6
622.125	17553.65
622.32	17273.08
622.515	17492.21
622.709	17541.36
622.904	17355
623.099	17262.84
623.294	17371.38
623.488	17164.54
623.683	16926.97
623.878	16881.92
624.072	16990.46
624.267	16904.45
624.462	16679.17
624.656	16460.04
624.851	16670.98
625.046	16238.86
625.24	16353.54
625.435	16351.49
625.629	16066.83
625.824	16075.02
626.018	15843.6
626.213	15730.96
626.407	15786.26
626.602	15640.85
626.796	15733.01
626.991	15440.15
627.185	15554.83
627.38	15391
627.574	15175.96
627.768	15249.69
627.963	15012.12
628.157	15032.6
628.352	15087.9
628.546	14743.84
628.74	14870.81
628.935	14655.78
629.129	14549.28
629.323	14647.58
629.517	14768.41
629.712	14399.78
629.906	14545.19
630.1	14235.94
630.294	14364.96
630.489	14166.31
630.683	14106.92
630.877	13947.18
631.071	13881.64
631.265	13769.01
631.459	14014.76
631.653	13812.01
631.848	13816.11
632.042	13510.96
632.236	13482.29
632.43	13252.92
632.624	13441.33
632.818	13246.77
633.012	13193.53
633.206	13447.47
633.4	13222.2
633.594	13152.57
633.788	13078.84
633.982	13031.74
634.176	12962.11
634.369	12683.58
634.563	12673.34
634.757	12640.58
634.951	12773.69
635.145	12513.6
635.339	12654.91
635.533	12296.52
635.726	12398.91
635.92	12296.52
636.114	12046.66
636.308	12245.32
636.501	12149.06
636.695	12110.15
636.889	11966.79
637.083	12026.18
637.276	11663.69
637.47	11718.99
637.664	11831.63
637.857	11737.42
638.051	11694.41
638.244	11465.04
638.438	11528.53
638.632	11360.59
638.825	11143.51
639.019	11460.95
639.212	11366.74
639.406	11379.03
639.599	11073.88
639.793	11151.7
639.986	10985.82
640.18	10985.82
640.373	10844.51
640.567	10715.48
640.76	10570.08
640.954	10703.2
641.147	10668.38
641.34	10639.71
641.534	10473.82
641.727	10471.78
641.92	10545.5
642.114	10400.1
642.307	10418.53
642.5	10230.12
642.694	9986.41
642.887	10365.28
643.08	10176.87
643.273	10160.48
643.467	10221.92
643.66	9703.79
643.853	9900.39
644.046	9900.39
644.239	9785.71
644.432	9632.11
644.626	9791.85
644.819	9546.09
645.012	9871.72
645.205	9761.13
645.398	9775.47
645.591	9498.99
645.784	9392.5
645.977	9417.07
646.17	9306.48
646.363	9271.67
646.556	9218.42
646.749	9175.41
646.942	9116.02
647.135	9085.3
647.328	8978.81
647.521	8845.69
647.714	8907.13
647.907	8894.84
648.099	8888.7
648.292	8911.22
648.485	8833.4
648.678	8829.31
648.871	8536.45
649.064	8737.15
649.256	8708.48
649.449	8681.85
649.642	8620.41
649.835	8202.63
650.027	8432
650.22	8368.51
650.413	8247.68
650.605	8305.03
650.798	8358.27
650.991	8280.45
651.183	8292.74
651.376	8040.84
651.568	7917.96
651.761	8167.81
651.954	7942.53
652.146	7907.72
652.339	8042.89
652.531	7958.92
652.724	8018.31
652.916	7756.17
653.109	7676.3
653.301	7754.12
653.494	7725.45
653.686	7686.54
653.879	7737.74
654.071	7416.21
654.263	7471.5
654.456	7483.79
654.648	7639.44
654.84	7344.53
655.033	7391.63
655.225	7373.2
655.417	7201.17
655.61	7307.66
655.802	7289.23
655.994	7072.15
656.186	7152.02
656.379	7014.8
656.571	7203.22
656.763	7057.81
656.955	7031.19
657.148	6963.61
657.34	6900.12
657.532	6812.06
657.724	6744.47
657.916	6912.41
658.108	6853.02
658.3	6746.52
658.492	6635.93
658.684	6594.97
658.876	6617.5
659.068	6713.75
659.26	6623.64
659.452	6578.59
659.644	6605.21
659.836	6504.86
660.028	6453.66
660.22	6521.24
660.412	6519.2
660.604	6224.29
660.796	6398.37
660.988	6334.88
661.18	6234.53
661.372	6224.29
661.563	6093.22
661.755	6029.73
661.947	6183.33
662.139	5892.52
662.331	5935.53
662.522	5894.57
662.714	5996.96
662.906	5913
663.097	5970.34
663.289	5845.41
663.481	5913
663.673	5853.61
663.864	5802.41
664.056	5677.48
664.247	5714.34
664.439	5708.2
664.631	5689.77
664.822	5706.15
665.014	5767.59
665.205	5589.42
665.397	5638.57
665.588	5554.6
665.78	5667.24
665.971	5556.65
666.163	5472.68
666.354	5304.75
666.546	5493.16
666.737	5345.71
666.929	5349.81
667.12	5398.96
667.311	5360.05
667.503	5274.03
667.694	5058.99
667.885	5274.03
668.077	5388.72
668.268	5114.29
668.459	5249.46
668.651	5214.64
668.842	5196.21
669.033	5087.67
669.224	4977.08
669.416	5226.93
669.607	5151.15
669.798	4835.77
669.989	4870.58
670.18	5054.9
670.371	4977.08
670.563	4932.02
670.754	4913.59
670.945	4733.37
671.136	4835.77
671.327	4778.42
671.518	4665.78
671.709	4768.18
671.9	4841.91
672.091	4884.92
672.282	4803
672.473	4702.65
672.664	4590.01
672.855	4696.5
673.046	4721.08
673.237	4792.76
673.428	4860.34
673.619	4639.16
673.809	4649.4
674	4483.52
674.191	4557.24
674.382	4463.04
674.573	4559.29
674.764	4594.11
674.954	4659.64
675.145	4463.04
675.336	4463.04
675.527	4487.61
675.717	4383.17
675.908	4372.93
676.099	4411.84
676.289	4485.56
676.48	4331.97
676.671	4303.29
676.861	4276.67
677.052	4362.69
677.243	4266.43
677.433	4272.57
677.624	4350.4
677.814	4174.27
678.005	4278.72
678.195	4166.08
678.386	4194.75
678.576	4217.28
678.767	4137.41
678.957	4088.26
679.148	4176.32
679.338	4264.38
679.529	4151.74
679.719	4049.35
679.909	4108.74
680.1	4254.14
680.29	4135.36
680.481	4250.05
680.671	4020.67
680.861	4110.79
681.052	3992
681.242	3953.09
681.432	4159.94
681.622	3967.43
681.813	4108.74
682.003	4014.53
682.193	3998.15
682.383	3979.72
682.573	3992
682.764	4041.15
682.954	3934.66
683.144	3973.57
683.334	3889.6
683.524	3934.66
683.714	3975.62
683.904	3889.6
684.094	4004.29
684.284	3895.75
684.474	3881.41
684.664	3832.26
684.854	3836.36
685.044	3799.49
685.234	3912.13
685.424	3746.25
685.614	3803.59
685.804	3717.58
685.994	3822.02
686.184	3736.01
686.374	3887.56
686.564	3717.58
686.753	3707.34
686.943	3709.38
687.133	3713.48
687.323	3715.53
687.513	3537.35
687.702	3721.67
687.892	3541.45
688.082	3553.74
688.272	3623.37
688.461	3592.65
688.651	3520.97
688.841	3426.76
689.03	3443.15
689.22	3394
689.41	3643.85
689.599	3473.87
689.789	3455.44
689.979	3430.86
690.168	3410.38
690.358	3381.71
690.547	3473.87
690.737	3469.77
690.926	3269.07
691.116	3207.63
691.305	3318.22
691.495	3240.4
691.684	3232.21
691.874	3131.86
692.063	3203.54
692.252	3152.34
692.442	3193.3
692.631	3133.9
692.82	3142.1
693.01	3113.42
693.199	3078.61
693.388	3054.03
693.578	3215.82
693.767	3164.62
693.956	3043.79
694.146	2984.4
694.335	3047.89
694.524	3013.07
694.713	3023.31
694.902	2980.31
695.092	2961.87
695.281	3070.42
695.47	2916.82
695.659	2959.83
695.848	3025.36
696.037	2912.72
696.226	2927.06
696.415	2910.68
696.604	2798.04
696.793	2916.82
696.982	2894.29
697.171	2910.68
697.36	2935.25
697.549	2722.26
697.738	2736.6
697.927	2828.76
698.116	2832.85
698.305	2826.71
698.494	2806.23
698.683	2804.18
698.872	2759.13
699.061	2849.24
699.25	2863.57
699.438	2781.65
699.627	2763.22
699.816	2742.74
700.005	2701.78
700.193	2808.28
700.382	2642.39
700.571	2695.64
700.76	2789.85
700.948	2841.04
701.137	2605.53
701.326	2675.16
701.514	2757.08
701.703	2703.83
701.892	2685.4
702.08	2660.82
702.269	2660.82
702.457	2728.41
702.646	2738.65
702.834	2671.06
703.023	2800.09
703.212	2697.69
703.4	2689.49
703.589	2709.97
703.777	2755.03
703.965	2621.91
704.154	2716.12
704.342	2613.72
704.531	2552.28
704.719	2544.09
704.907	2734.55
705.096	2605.53
705.284	2607.58
705.472	2640.34
705.661	2558.42
705.849	2644.44
706.037	2638.3
706.226	2597.34
706.414	2634.2
706.602	2550.23
706.79	2689.49
706.979	2550.23
707.167	2675.16
707.355	2542.04
707.543	2693.59
707.731	2664.92
707.919	2488.79
708.107	2548.19
708.296	2718.17
708.484	2552.28
708.672	2419.16
708.86	2613.72
709.048	2658.78
709.236	2496.99
709.424	2648.54
709.612	2503.13
709.8	2769.37
709.988	2507.23
710.176	2589.14
710.364	2621.91
710.551	2527.71
710.739	2525.66
710.927	2445.79
711.115	2494.94
711.303	2462.17
711.491	2601.43
711.679	2517.47
711.866	2630.1
712.054	2566.62
712.242	2492.89
712.43	2525.66
712.617	2486.75
712.805	2644.44
712.993	2546.14
713.181	2492.89
713.368	2595.29
713.556	2466.27
713.744	2521.56
713.931	2572.76
714.119	2499.03
714.306	2484.7
714.494	2570.71
714.682	2445.79
714.869	2490.84
715.057	2492.89
715.244	2451.93
715.432	2488.79
715.619	2480.6
715.807	2652.63
715.994	2492.89
716.182	2480.6
716.369	2560.47
716.556	2427.35
716.744	2466.27
716.931	2449.88
717.119	2580.95
717.306	2458.07
717.493	2533.85
717.681	2525.66
717.868	2503.13
718.055	2447.83
718.242	2515.42
718.43	2521.56
718.617	2462.17
718.804	2542.04
718.991	2415.07
719.179	2585.05
719.366	2566.62
719.553	2480.6
719.74	2488.79
719.927	2507.23
720.114	2386.4
720.301	2486.75
720.488	2515.42
720.676	2478.55
720.863	2458.07
721.05	2652.63
721.237	2488.79
721.424	2505.18
721.611	2441.69
721.798	2505.18
721.985	2374.11
722.172	2589.14
722.358	2433.5
722.545	2574.81
722.732	2447.83
722.919	2519.51
723.106	2509.27
723.293	2478.55
723.48	2472.41
723.667	2476.51
723.853	2472.41
724.04	2527.71
724.227	2464.22
724.414	2617.82
724.6	2597.34
724.787	2535.9
724.974	2554.33
725.161	2492.89
725.347	2462.17
725.534	2593.24
725.72	2527.71
725.907	2507.23
726.094	2591.19
726.28	2515.42
726.467	2433.5
726.653	2527.71
726.84	2476.51
727.027	2572.76
727.213	2496.99
727.4	2449.88
727.586	2494.94
727.773	2589.14
727.959	2537.95
728.145	2562.52
728.332	2613.72
728.518	2546.14
728.705	2556.38
728.891	2503.13
729.077	2533.85
729.264	2583
729.45	2523.61
729.636	2621.91
729.823	2578.9
730.009	2599.38
730.195	2478.55
730.382	2552.28
730.568	2535.9
730.754	2542.04
730.94	2513.37
731.126	2568.66
731.313	2515.42
731.499	2599.38
731.685	2558.42
731.871	2621.91
732.057	2546.14
732.243	2525.66
732.429	2589.14
732.615	2671.06
732.801	2621.91
732.987	2632.15
733.173	2654.68
733.359	2609.62
733.545	2660.82
733.731	2525.66
733.917	2544.09
734.103	2603.48
734.289	2613.72
734.475	2617.82
734.661	2503.13
734.847	2574.81
735.033	2554.33
735.219	2638.3
735.404	2615.77
735.59	2499.03
735.776	2669.02
735.962	2558.42
736.148	2589.14
736.333	2576.86
736.519	2638.3
736.705	2605.53
736.89	2511.32
737.076	2439.64
737.262	2517.47
737.447	2632.15
737.633	2415.07
737.819	2734.55
738.004	2511.32
738.19	2558.42
738.375	2589.14
738.561	2548.19
738.747	2501.08
738.932	2515.42
739.118	2664.92
739.303	2523.61
739.489	2501.08
739.674	2595.29
739.859	2513.37
740.045	2523.61
740.23	2501.08
740.416	2451.93
740.601	2521.56
740.786	2505.18
740.972	2378.2
741.157	2392.54
741.342	2460.12
741.528	2447.83
741.713	2419.16
741.898	2410.97
742.084	2421.21
742.269	2386.4
742.454	2511.32
742.639	2367.96
742.824	2478.55
743.01	2415.07
743.195	2351.58
743.38	2593.24
743.565	2449.88
743.75	2380.25
743.935	2445.79
744.12	2425.31
744.305	2347.48
744.49	2337.24
744.675	2236.89
744.86	2396.64
745.045	2398.68
745.23	2347.48
745.415	2288.09
745.6	2419.16
745.785	2345.44
745.97	2216.41
746.155	2251.23
746.34	2224.61
746.525	2339.29
746.71	2249.18
746.895	2259.42
747.079	2218.46
747.264	2128.35
747.449	2238.94
747.634	2206.17
747.819	2173.41
748.003	2171.36
748.188	2195.93
748.373	2230.75
748.557	2159.07
748.742	2056.67
748.927	2081.25
749.111	2128.35
749.296	2105.82
749.481	2032.1
749.665	1984.99
749.85	1976.8
750.034	2064.86
750.219	1995.23
750.404	1952.23
750.588	1913.31
750.773	1948.13
750.957	1952.23
751.141	1927.65
751.326	1946.08
751.51	1864.16
751.695	1909.22
751.879	1829.35
752.064	1976.8
752.248	1946.08
752.432	1909.22
752.617	1888.74
752.801	1815.01
752.985	1778.15
753.17	1878.5
753.354	1720.81
753.538	1798.63
753.722	1675.75
753.907	1679.85
754.091	1704.42
754.275	1649.13
754.459	1765.86
754.643	1710.57
754.828	1712.61
755.012	1667.56
755.196	1720.81
755.38	1610.22
755.564	1602.02
755.748	1663.46
755.932	1632.74
756.116	1620.46
756.3	1548.78
756.484	1565.16
756.668	1550.82
756.852	1505.77
757.036	1561.06
757.22	1554.92
757.404	1413.61
757.588	1579.5
757.772	1581.54
757.956	1528.3
758.14	1497.58
758.323	1444.33
758.507	1477.1
758.691	1497.58
758.875	1419.75
759.059	1546.73
759.242	1473
759.426	1399.27
759.61	1405.42
759.794	1378.79
759.977	1507.82
760.161	1468.91
760.345	1444.33
760.528	1327.6
760.712	1358.32
760.895	1309.16
761.079	1300.97
761.263	1321.45
761.446	1391.08
761.63	1393.13
761.813	1372.65
761.997	1343.98
762.18	1307.12
762.364	1354.22
762.547	1350.12
762.731	1368.56
762.914	1262.06
763.098	1268.2
763.281	1278.44
763.464	1319.4
763.648	1313.26
763.831	1378.79
764.015	1288.68
764.198	1282.54
764.381	1227.25
764.564	1118.7
764.748	1126.89
764.931	1274.35
765.114	1229.29
765.297	1288.68
765.481	1264.11
765.664	1178.09
765.847	1145.33
766.03	1106.42
766.213	1227.25
766.397	1163.76
766.58	1108.46
766.763	1241.58
766.946	1233.39
767.129	1204.72
767.312	1143.28
767.495	1165.81
767.678	1044.98
767.861	1145.33
768.044	1124.85
768.227	1165.81
768.41	1055.22
768.593	1116.65
768.776	1090.03
768.959	1110.51
769.142	1212.91
769.324	1096.18
769.507	1057.26
769.69	1057.26
769.873	1077.74
770.056	1124.85
770.239	991.73
770.421	1030.64
770.604	1049.07
770.787	1141.23
770.97	981.49
771.152	1040.88
771.335	1026.54
771.518	950.77
771.7	1024.5
771.883	1065.46
772.066	985.58
772.248	1034.74
772.431	969.2
772.613	985.58
772.796	979.44
772.978	1049.07
773.161	932.34
773.343	956.91
773.526	985.58
773.708	942.58
773.891	1004.02
774.073	1020.4
774.256	815.6
774.438	961.01
774.621	836.08
774.803	993.78
774.985	809.46
775.168	831.99
775.35	891.38
775.532	815.6
775.715	834.04
775.897	918
776.079	815.6
776.261	874.99
776.444	827.89
776.626	862.71
776.808	784.88
776.99	838.13
777.173	821.75
777.355	844.28
777.537	748.02
777.719	815.6
777.901	739.83
778.083	805.36
778.265	653.81
778.447	782.84
778.629	770.55
778.811	705.01
778.993	686.58
779.175	717.3
779.357	772.6
779.539	721.4
779.721	741.88
779.903	758.26
780.085	741.88
780.267	698.87
780.449	723.44
780.631	721.4
780.812	692.73
780.994	764.4
781.176	741.88
781.358	674.29
781.54	698.87
781.721	625.14
781.903	614.9
782.085	623.09
782.267	633.33
782.448	596.47
782.63	666.1
782.812	625.14
782.993	614.9
783.175	668.15
783.357	670.2
783.538	612.85
783.72	659.96
783.901	522.74
784.083	602.61
784.264	621.05
784.446	600.57
784.627	586.23
784.809	545.27
784.99	508.41
785.172	606.71
785.353	600.57
785.535	573.94
785.716	561.66
785.897	510.46
786.079	563.7
786.26	555.51
786.441	541.18
786.623	524.79
786.804	510.46
786.985	545.27
787.167	496.12
787.348	498.17
787.529	500.22
787.71	504.31
787.891	553.46
788.073	508.41
788.254	414.2
788.435	494.07
788.616	457.21
788.797	459.26
788.978	510.46
789.159	489.98
789.34	530.94
789.522	356.86
789.703	451.07
789.884	430.59
790.065	461.3
790.246	477.69
790.427	346.62
790.607	500.22
790.788	469.5
790.969	434.68
791.15	461.3
791.331	332.28
791.512	496.12
791.693	475.64
791.874	358.91
792.054	438.78
792.235	410.11
792.416	385.53
792.597	406.01
792.778	395.77
792.958	363
793.139	418.3
793.32	360.95
793.5	373.24
793.681	440.83
793.862	389.63
794.042	324.09
794.223	377.34
794.404	320
794.584	395.77
794.765	301.56
794.945	375.29
795.126	412.15
795.306	348.67
795.487	330.23
795.667	383.48
795.848	379.39
796.028	313.85
796.209	399.87
796.389	369.15
796.57	311.8
796.75	309.76
796.93	367.1
797.111	260.6
797.291	264.7
797.471	383.48
797.652	309.76
797.832	324.09
798.012	297.47
798.192	268.8
798.373	322.04
798.553	268.8
798.733	305.66
798.913	283.13
799.093	324.09
799.274	346.62
799.454	326.14
799.634	268.8
799.814	320
799.994	250.36
800.174	342.52
800.354	303.61
800.534	301.56
800.714	283.13
800.894	270.84
801.074	236.03
801.254	307.71
801.434	309.76
801.614	266.75
801.794	317.95
801.974	664.05
802.154	262.65
802.334	213.5
802.514	295.42
802.693	322.04
802.873	209.4
803.053	221.69
803.233	211.45
803.413	240.12
803.592	236.03
803.772	225.79
803.952	250.36
804.131	252.41
804.311	219.64
804.491	268.8
804.67	293.37
804.85	240.12
805.03	256.51
805.209	342.52
805.389	258.56
805.568	193.02
805.748	242.17
805.928	221.69
806.107	272.89
806.287	270.84
806.466	193.02
806.646	182.78
806.825	170.49
807.004	297.47
807.184	215.55
807.363	195.07
807.543	199.16
807.722	147.97
807.901	264.7
808.081	240.12
808.26	168.45
808.439	188.93
808.619	231.93
808.798	190.97
808.977	193.02
809.156	217.6
809.336	240.12
809.515	315.9
809.694	145.92
809.873	119.29
810.052	152.06
810.231	180.73
810.411	211.45
810.59	166.4
810.769	180.73
810.948	227.84
811.127	96.77
811.306	190.97
811.485	137.73
811.664	248.32
811.843	190.97
812.022	152.06
812.201	272.89
812.38	221.69
812.559	166.4
812.737	154.11
812.916	207.36
813.095	190.97
813.274	231.93
813.453	252.41
813.632	109.05
813.811	53.76
813.989	158.21
814.168	158.21
814.347	184.83
814.526	178.69
814.704	182.78
814.883	240.12
815.062	141.82
815.24	117.25
815.419	92.67
815.598	123.39
815.776	86.53
815.955	178.69
816.133	131.58
816.312	119.29
816.49	178.69
816.669	160.25
816.847	135.68
817.026	170.49
817.204	152.06
817.383	166.4
817.561	141.82
817.74	207.36
817.918	154.11
818.097	133.63
818.275	125.44
818.453	184.83
818.632	180.73
818.81	96.77
818.988	104.96
819.167	107.01
819.345	158.21
819.523	160.25
819.701	156.16
819.879	178.69
820.058	160.25
820.236	102.91
820.414	90.62
820.592	33.28
820.77	117.25
820.948	143.87
821.127	121.34
821.305	137.73
821.483	131.58
821.661	141.82
821.839	131.58
822.017	94.72
822.195	129.53
822.373	111.1
822.551	94.72
822.729	137.73
822.907	127.49
823.085	131.58
823.262	102.91
823.44	127.49
823.618	49.66
823.796	76.29
823.974	135.68
824.152	119.29
824.329	98.81
824.507	123.39
824.685	125.44
824.863	133.63
825.04	90.62
825.218	109.05
825.396	111.1
825.574	55.81
825.751	27.14
825.929	166.4
826.107	92.67
826.284	92.67
826.462	92.67
826.639	125.44
826.817	94.72
826.994	109.05
827.172	125.44
827.349	154.11
827.527	70.14
827.704	121.34
827.882	104.96
828.059	117.25
828.237	176.64
828.414	135.68
828.591	10.75
828.769	70.14
828.946	131.58
829.124	133.63
829.301	201.21
829.478	188.93
829.655	90.62
829.833	98.81
830.01	8.7
830.187	64
830.364	137.73
830.542	150.01
830.719	23.04
830.896	147.97
831.073	57.86
831.25	70.14
831.427	100.86
831.604	61.95
831.782	94.72
831.959	76.29
832.136	104.96
832.313	41.47
832.49	82.43
832.667	66.05
832.844	64
833.021	82.43
833.198	43.52
833.374	137.73
833.551	66.05
833.728	119.29
833.905	35.33
834.082	39.42
834.259	61.95
834.436	125.44
834.612	98.81
834.789	37.38
834.966	164.35
835.143	59.9
835.319	47.62
835.496	129.53
835.673	61.95
835.85	76.29
836.026	70.14
836.203	117.25
836.38	47.62
836.556	33.28
836.733	-15.87
836.909	121.34
837.086	12.8
837.262	-17.92
837.439	76.29
837.616	23.04
837.792	16.9
837.968	92.67
838.145	33.28
838.321	64
838.498	33.28
838.674	41.47
838.851	125.44
839.027	16.9
839.203	76.29
839.38	117.25
839.556	14.85
839.732	131.58
839.909	113.15
840.085	80.38
840.261	47.62
840.437	88.57
840.614	-24.06
840.79	143.87
840.966	72.19
841.142	109.05
841.318	61.95
841.494	100.86
841.671	45.57
841.847	55.81
842.023	53.76
842.199	-9.73
842.375	102.91
842.551	66.05
842.727	20.99
842.903	125.44
843.079	27.14
843.255	47.62
843.431	-7.68
843.607	84.48
843.783	-22.02
843.959	109.05
844.134	-1.54
844.31	98.81
844.486	39.42
844.662	80.38
844.838	23.04
845.013	86.53
845.189	59.9
845.365	90.62
845.541	84.48
845.716	51.71
845.892	64
846.068	115.2
846.244	25.09
846.419	64
846.595	25.09
846.77	45.57
846.946	57.86
847.122	90.62
847.297	57.86
847.473	94.72
847.648	37.38
847.824	92.67
847.999	-54.78
848.175	18.94
848.35	20.99
848.526	107.01
848.701	92.67
848.876	35.33
849.052	55.81
849.227	92.67
849.403	49.66
849.578	33.28
849.753	16.9
849.929	27.14
850.104	43.52
850.279	78.33
850.454	31.23
850.63	-3.58
850.805	57.86
850.98	76.29
851.155	98.81
851.33	80.38
851.505	78.33
851.681	43.52
851.856	39.42
852.031	2.56
852.206	66.05
852.381	51.71
852.556	70.14
852.731	20.99
852.906	82.43
853.081	70.14
853.256	59.9
853.431	-19.97
853.606	49.66
853.781	-28.16
853.956	27.14
854.131	-7.68
854.305	23.04
854.48	-22.02
854.655	37.38
854.83	4.61
855.005	14.85
855.18	49.66
855.354	18.94
855.529	4.61
855.704	20.99
855.879	-71.17
856.053	23.04
856.228	61.95
856.403	0.51
856.577	70.14
856.752	-38.4
856.926	64
857.101	47.62
857.276	-17.92
857.45	53.76
857.625	59.9
857.799	47.62
857.974	72.19
858.148	-7.68
858.323	12.8
858.497	29.18
858.672	80.38
858.846	37.38
859.02	53.76
859.195	-77.31
859.369	6.66
859.543	41.47
859.718	39.42
859.892	84.48
860.066	20.99
860.241	12.8
860.415	98.81
860.589	-19.97
860.763	57.86
860.938	31.23
861.112	41.47
861.286	-13.82
861.46	57.86
861.634	12.8
861.808	100.86
861.982	37.38
862.157	-22.02
862.331	-46.59
862.505	66.05
862.679	37.38
862.853	-19.97
863.027	-30.21
863.201	6.66
863.375	-30.21
863.549	59.9
863.722	43.52
863.896	43.52
864.07	14.85
864.244	41.47
864.418	6.66
864.592	-28.16
864.766	-9.73
864.939	98.81
865.113	-11.78
865.287	29.18
865.461	55.81
865.634	16.9
865.808	-17.92
865.982	-62.98
866.156	18.94
866.329	4.61
866.503	2.56
866.676	-7.68
866.85	-17.92
867.024	0.51
867.197	94.72
867.371	35.33
867.544	4.61
867.718	-50.69
867.891	-1.54
868.065	12.8
868.238	57.86
868.412	14.85
868.585	12.8
868.759	18.94
868.932	4.61
869.105	51.71
869.279	57.86
869.452	-7.68
869.625	-7.68
869.799	-13.82
869.972	-17.92
870.145	-56.83
870.319	23.04
870.492	-60.93
870.665	-9.73
870.838	6.66
871.011	-52.74
871.185	-30.21
871.358	14.85
871.531	18.94
871.704	-17.92
871.877	68.09
872.05	33.28
872.223	53.76
872.396	10.75
872.569	-9.73
872.742	-9.73
872.915	-9.73
873.088	-15.87
873.261	6.66
873.434	86.53
873.607	25.09
873.78	49.66
873.953	41.47
874.126	10.75
874.299	-3.58
874.471	12.8
874.644	29.18
874.817	-40.45
874.99	-19.97
875.163	-19.97
875.335	-71.17
875.508	16.9
875.681	49.66
875.853	68.09
876.026	78.33
876.199	-28.16
876.371	10.75
876.544	45.57
876.717	-15.87
876.889	-38.4
877.062	25.09
877.234	-67.07
877.407	-30.21
877.579	-22.02
877.752	10.75
877.924	20.99
878.097	59.9
878.269	23.04
878.442	14.85
878.614	-30.21
878.786	-13.82
878.959	37.38
879.131	16.9
879.303	4.61
879.476	39.42
879.648	18.94
879.82	-22.02
879.993	16.9
880.165	-17.92
880.337	-17.92
880.509	-11.78
880.681	-13.82
880.854	47.62
881.026	49.66
881.198	84.48
881.37	2.56
881.542	-13.82
881.714	-17.92
881.886	25.09
882.058	-36.35
882.23	-3.58
882.402	12.8
882.574	6.66
882.746	53.76
882.918	45.57
883.09	92.67
883.262	53.76
883.434	8.7
883.606	-38.4
883.778	55.81
883.95	35.33
884.122	-44.54
884.293	39.42
884.465	-32.26
884.637	-24.06
884.809	-69.12
884.98	-7.68
885.152	20.99
885.324	-73.21
885.496	-3.58
885.667	-19.97
885.839	-3.58
886.011	33.28
886.182	2.56
886.354	14.85
886.525	29.18
886.697	4.61
886.869	-50.69
887.04	47.62
887.212	14.85
887.383	-5.63
887.555	-52.74
887.726	-7.68
887.897	-38.4
888.069	-22.02
888.24	33.28
888.412	12.8
888.583	78.33
888.754	47.62
888.926	-7.68
889.097	102.91
889.268	-67.07
889.44	47.62
889.611	-34.3
889.782	2.56
889.953	2.56
890.125	113.15
890.296	-13.82
890.467	-28.16
890.638	18.94
890.809	-1.54
890.98	82.43
891.151	47.62
891.323	51.71
891.494	14.85
891.665	10.75
891.836	-7.68
892.007	-65.02
892.178	59.9
892.349	16.9
892.52	-7.68
892.691	4.61
892.862	-58.88
893.032	2.56
893.203	53.76
893.374	10.75
893.545	-13.82
893.716	-34.3
893.887	20.99
894.057	-50.69
894.228	8.7
894.399	-24.06
894.57	-3.58
894.74	12.8
894.911	-5.63
895.082	-38.4
895.253	-13.82
895.423	-15.87
895.594	-28.16
895.764	-40.45
895.935	6.66
896.106	20.99
896.276	-3.58
896.447	-36.35
896.617	27.14
896.788	-9.73
896.958	-30.21
897.129	-50.69
897.299	-32.26
897.47	49.66
897.64	-17.92
897.81	-62.98
897.981	14.85
898.151	-3.58
898.322	-34.3
898.492	39.42
898.662	6.66
898.832	-9.73
899.003	-17.92
899.173	2.56
899.343	-54.78
899.513	-34.3
