Data from USB4F104151__56__11-45-15-269.txt Node

Date: Fri Mar 14 11:45:15 EDT 2025
User: louis
Spectrometer: USB4F10415
Trigger mode: 4
Integration Time (sec): 2.000000E-2
Scans to average: 1
Electric dark correction enabled: true
Nonlinearity correction enabled: false
Boxcar width: 0
XAxis mode: Wavelengths
Number of Pixels in Spectrum: 3648
>>>>>Begin Spectral Data<<<<<
178.204	-95.23
178.424	-95.23
178.644	-95.23
178.864	-76.8
179.084	-113.66
179.304	31.74
179.524	-58.37
179.744	-29.7
179.964	9.22
180.184	35.84
180.404	-17.41
180.624	29.7
180.844	-35.84
181.064	-5.12
181.283	35.84
181.503	-25.6
181.723	29.7
181.943	-5.12
182.163	19.46
182.383	-11.26
182.602	50.18
182.822	-78.85
183.042	-21.5
183.262	13.31
183.482	23.55
183.701	11.26
183.921	-13.31
184.141	-41.98
184.361	-31.74
184.58	11.26
184.8	29.7
185.02	1.02
185.239	-21.5
185.459	-17.41
185.679	25.6
185.898	7.17
186.118	111.61
186.338	-9.22
186.557	-52.22
186.777	-31.74
186.997	-21.5
187.216	29.7
187.436	82.94
187.655	-21.5
187.875	31.74
188.095	31.74
188.314	-17.41
188.534	15.36
188.753	3.07
188.973	44.03
189.192	21.5
189.412	-41.98
189.631	-5.12
189.851	-7.17
190.07	107.52
190.29	-3.07
190.509	52.22
190.729	11.26
190.948	44.03
191.168	64.51
191.387	21.5
191.607	9.22
191.826	25.6
192.045	5.12
192.265	-60.42
192.484	33.79
192.704	31.74
192.923	11.26
193.142	76.8
193.362	7.17
193.581	41.98
193.8	48.13
194.02	72.7
194.239	60.42
194.458	76.8
194.678	7.17
194.897	-19.46
195.116	97.28
195.335	68.61
195.555	7.17
195.774	3.07
195.993	50.18
196.212	29.7
196.432	-5.12
196.651	31.74
196.87	35.84
197.089	140.29
197.308	31.74
197.528	56.32
197.747	-33.79
197.966	48.13
198.185	70.65
198.404	39.94
198.623	60.42
198.842	-17.41
199.062	-27.65
199.281	50.18
199.5	44.03
199.719	-17.41
199.938	46.08
200.157	64.51
200.376	56.32
200.595	19.46
200.814	-1.02
201.033	7.17
201.252	89.09
201.471	-1.02
201.69	-7.17
201.909	58.37
202.128	15.36
202.347	52.22
202.566	46.08
202.785	41.98
203.004	3.07
203.223	56.32
203.442	60.42
203.661	-68.61
203.879	23.55
204.098	68.61
204.317	68.61
204.536	62.46
204.755	17.41
204.974	72.7
205.193	-39.94
205.411	37.89
205.63	-19.46
205.849	68.61
206.068	7.17
206.287	31.74
206.505	31.74
206.724	21.5
206.943	33.79
207.162	27.65
207.381	60.42
207.599	25.6
207.818	70.65
208.037	52.22
208.255	-17.41
208.474	52.22
208.693	23.55
208.911	76.8
209.13	-15.36
209.349	33.79
209.567	15.36
209.786	54.27
210.005	44.03
210.223	64.51
210.442	-48.13
210.661	70.65
210.879	-1.02
211.098	95.23
211.316	-5.12
211.535	35.84
211.753	52.22
211.972	-17.41
212.191	39.94
212.409	19.46
212.628	3.07
212.846	-5.12
213.065	66.56
213.283	52.22
213.502	15.36
213.72	-9.22
213.938	46.08
214.157	-21.5
214.375	39.94
214.594	31.74
214.812	39.94
215.031	-19.46
215.249	68.61
215.467	41.98
215.686	15.36
215.904	-5.12
216.122	29.7
216.341	58.37
216.559	-70.65
216.778	48.13
216.996	68.61
217.214	-15.36
217.432	21.5
217.651	-41.98
217.869	-80.89
218.087	1.02
218.306	-3.07
218.524	-9.22
218.742	-17.41
218.96	-15.36
219.179	62.46
219.397	44.03
219.615	68.61
219.833	25.6
220.051	-66.56
220.27	46.08
220.488	11.26
220.706	-11.26
220.924	-7.17
221.142	-1.02
221.36	31.74
221.578	-11.26
221.796	-60.42
222.015	-52.22
222.233	1.02
222.451	52.22
222.669	-11.26
222.887	60.42
223.105	-3.07
223.323	-13.31
223.541	-66.56
223.759	46.08
223.977	19.46
224.195	31.74
224.413	29.7
224.631	113.66
224.849	-52.22
225.067	39.94
225.285	-13.31
225.503	64.51
225.721	-46.08
225.939	-1.02
226.157	-50.18
226.375	1.02
226.592	-17.41
226.81	50.18
227.028	70.65
227.246	64.51
227.464	-17.41
227.682	29.7
227.9	113.66
228.117	7.17
228.335	9.22
228.553	-15.36
228.771	31.74
228.989	48.13
229.206	25.6
229.424	3.07
229.642	25.6
229.86	7.17
230.077	15.36
230.295	11.26
230.513	68.61
230.731	3.07
230.948	-25.6
231.166	41.98
231.384	48.13
231.601	50.18
231.819	19.46
232.037	25.6
232.254	35.84
232.472	-35.84
232.689	74.75
232.907	37.89
233.125	-15.36
233.342	-21.5
233.56	-29.7
233.777	-13.31
233.995	-19.46
234.213	7.17
234.43	-3.07
234.648	-19.46
234.865	9.22
235.083	76.8
235.3	-48.13
235.518	-33.79
235.735	-5.12
235.953	23.55
236.17	-11.26
236.388	21.5
236.605	-48.13
236.822	54.27
237.04	-29.7
237.257	-31.74
237.475	39.94
237.692	48.13
237.909	27.65
238.127	39.94
238.344	-9.22
238.562	-41.98
238.779	-23.55
238.996	-29.7
239.214	33.79
239.431	7.17
239.648	-15.36
239.865	39.94
240.083	-19.46
240.3	9.22
240.517	13.31
240.735	13.31
240.952	37.89
241.169	74.75
241.386	-78.85
241.603	-54.27
241.821	27.65
242.038	56.32
242.255	35.84
242.472	44.03
242.689	33.79
242.907	41.98
243.124	-3.07
243.341	17.41
243.558	-13.31
243.775	31.74
243.992	33.79
244.209	15.36
244.426	27.65
244.643	23.55
244.86	-33.79
245.078	-7.17
245.295	-3.07
245.512	48.13
245.729	-7.17
245.946	21.5
246.163	-1.02
246.38	-3.07
246.597	-9.22
246.814	52.22
247.031	3.07
247.248	-15.36
247.464	-15.36
247.681	23.55
247.898	17.41
248.115	35.84
248.332	-19.46
248.549	-17.41
248.766	-35.84
248.983	78.85
249.2	41.98
249.417	46.08
249.633	48.13
249.85	33.79
250.067	5.12
250.284	-19.46
250.501	87.04
250.717	39.94
250.934	-72.7
251.151	-11.26
251.368	-31.74
251.585	37.89
251.801	-44.03
252.018	95.23
252.235	-13.31
252.451	-27.65
252.668	-31.74
252.885	19.46
253.102	29.7
253.318	-7.17
253.535	-3.07
253.752	3.07
253.968	46.08
254.185	-50.18
254.401	1.02
254.618	-5.12
254.835	-29.7
255.051	-31.74
255.268	-54.27
255.484	37.89
255.701	23.55
255.917	56.32
256.134	-17.41
256.351	-23.55
256.567	-25.6
256.784	29.7
257	-15.36
257.217	39.94
257.433	56.32
257.65	70.65
257.866	60.42
258.082	-39.94
258.299	54.27
258.515	60.42
258.732	17.41
258.948	33.79
259.165	48.13
259.381	-19.46
259.597	54.27
259.814	41.98
260.03	50.18
260.246	19.46
260.463	54.27
260.679	93.18
260.895	9.22
261.112	46.08
261.328	11.26
261.544	9.22
261.761	48.13
261.977	97.28
262.193	-13.31
262.409	33.79
262.626	41.98
262.842	3.07
263.058	15.36
263.274	72.7
263.49	7.17
263.707	7.17
263.923	68.61
264.139	-5.12
264.355	-7.17
264.571	39.94
264.787	123.9
265.004	60.42
265.22	-25.6
265.436	-7.17
265.652	97.28
265.868	7.17
266.084	23.55
266.3	87.04
266.516	-37.89
266.732	5.12
266.948	31.74
267.164	50.18
267.38	37.89
267.596	35.84
267.812	33.79
268.028	13.31
268.244	-11.26
268.46	50.18
268.676	1.02
268.892	48.13
269.108	31.74
269.324	19.46
269.54	-15.36
269.756	23.55
269.972	19.46
270.188	-3.07
270.403	31.74
270.619	1.02
270.835	39.94
271.051	66.56
271.267	-15.36
271.483	-11.26
271.698	17.41
271.914	33.79
272.13	58.37
272.346	-54.27
272.562	9.22
272.777	1.02
272.993	-1.02
273.209	39.94
273.425	-11.26
273.64	101.37
273.856	-7.17
274.072	19.46
274.287	48.13
274.503	91.13
274.719	82.94
274.934	54.27
275.15	-11.26
275.366	7.17
275.581	5.12
275.797	44.03
276.012	64.51
276.228	41.98
276.444	-15.36
276.659	134.14
276.875	-27.65
277.09	3.07
277.306	39.94
277.521	25.6
277.737	-21.5
277.952	25.6
278.168	29.7
278.383	-52.22
278.599	-29.7
278.814	72.7
279.03	7.17
279.245	25.6
279.461	72.7
279.676	41.98
279.892	-27.65
280.107	-33.79
280.322	21.5
280.538	62.46
280.753	-7.17
280.969	-35.84
281.184	121.85
281.399	1.02
281.615	19.46
281.83	3.07
282.045	-35.84
282.26	11.26
282.476	-84.99
282.691	130.05
282.906	23.55
283.122	19.46
283.337	-56.32
283.552	35.84
283.767	-1.02
283.983	-35.84
284.198	78.85
284.413	99.33
284.628	-25.6
284.843	39.94
285.058	103.42
285.274	-11.26
285.489	39.94
285.704	-5.12
285.919	13.31
286.134	-35.84
286.349	25.6
286.564	56.32
286.779	41.98
286.995	35.84
287.21	-1.02
287.425	13.31
287.64	27.65
287.855	-52.22
288.07	31.74
288.285	80.89
288.5	-9.22
288.715	25.6
288.93	-11.26
289.145	52.22
289.36	64.51
289.575	39.94
289.79	-1.02
290.004	33.79
290.219	58.37
290.434	-1.02
290.649	44.03
290.864	41.98
291.079	-5.12
291.294	3.07
291.509	15.36
291.724	-37.89
291.938	-35.84
292.153	17.41
292.368	25.6
292.583	3.07
292.798	60.42
293.012	46.08
293.227	-13.31
293.442	33.79
293.657	41.98
293.871	5.12
294.086	78.85
294.301	48.13
294.516	62.46
294.73	3.07
294.945	-11.26
295.16	-23.55
295.374	33.79
295.589	60.42
295.804	-35.84
296.018	27.65
296.233	35.84
296.447	21.5
296.662	-9.22
296.877	19.46
297.091	29.7
297.306	33.79
297.52	70.65
297.735	21.5
297.949	15.36
298.164	23.55
298.378	39.94
298.593	35.84
298.807	15.36
299.022	7.17
299.236	31.74
299.451	99.33
299.665	-17.41
299.88	-50.18
300.094	64.51
300.309	37.89
300.523	13.31
300.737	-23.55
300.952	72.7
301.166	66.56
301.381	-29.7
301.595	13.31
301.809	-11.26
302.024	-1.02
302.238	-29.7
302.452	54.27
302.667	-25.6
302.881	58.37
303.095	31.74
303.309	5.12
303.524	89.09
303.738	19.46
303.952	-19.46
304.166	23.55
304.381	21.5
304.595	56.32
304.809	52.22
305.023	62.46
305.237	41.98
305.452	74.75
305.666	-11.26
305.88	95.23
306.094	91.13
306.308	-17.41
306.522	-41.98
306.736	11.26
306.95	-13.31
307.164	27.65
307.379	-19.46
307.593	13.31
307.807	60.42
308.021	35.84
308.235	-17.41
308.449	7.17
308.663	-46.08
308.877	9.22
309.091	68.61
309.305	48.13
309.519	15.36
309.733	95.23
309.947	1.02
310.161	52.22
310.374	9.22
310.588	7.17
310.802	48.13
311.016	-3.07
311.23	56.32
311.444	-48.13
311.658	72.7
311.872	82.94
312.085	62.46
312.299	72.7
312.513	29.7
312.727	84.99
312.941	66.56
313.154	21.5
313.368	37.89
313.582	31.74
313.796	44.03
314.009	31.74
314.223	15.36
314.437	58.37
314.651	39.94
314.864	7.17
315.078	1.02
315.292	-44.03
315.505	21.5
315.719	9.22
315.933	-9.22
316.146	-25.6
316.36	41.98
316.573	11.26
316.787	-33.79
317.001	62.46
317.214	64.51
317.428	23.55
317.641	78.85
317.855	41.98
318.068	80.89
318.282	113.66
318.495	29.7
318.709	-21.5
318.922	9.22
319.136	35.84
319.349	50.18
319.563	54.27
319.776	31.74
319.99	1.02
320.203	-50.18
320.417	68.61
320.63	3.07
320.843	50.18
321.057	-13.31
321.27	52.22
321.483	37.89
321.697	74.75
321.91	-37.89
322.124	-5.12
322.337	58.37
322.55	3.07
322.763	62.46
322.977	-58.37
323.19	11.26
323.403	52.22
323.617	-56.32
323.83	-35.84
324.043	41.98
324.256	74.75
324.469	-62.46
324.683	37.89
324.896	7.17
325.109	66.56
325.322	19.46
325.535	128
325.748	33.79
325.962	58.37
326.175	54.27
326.388	93.18
326.601	74.75
326.814	17.41
327.027	-25.6
327.24	70.65
327.453	-19.46
327.666	35.84
327.879	19.46
328.092	39.94
328.305	58.37
328.518	78.85
328.731	-9.22
328.944	-9.22
329.157	25.6
329.37	46.08
329.583	31.74
329.796	33.79
330.009	-48.13
330.222	76.8
330.435	5.12
330.648	56.32
330.861	27.65
331.073	-1.02
331.286	15.36
331.499	21.5
331.712	-37.89
331.925	19.46
332.138	41.98
332.35	87.04
332.563	-44.03
332.776	82.94
332.989	25.6
333.202	17.41
333.414	15.36
333.627	31.74
333.84	15.36
334.053	66.56
334.265	46.08
334.478	44.03
334.691	48.13
334.903	60.42
335.116	-46.08
335.329	46.08
335.541	-21.5
335.754	48.13
335.966	35.84
336.179	50.18
336.392	66.56
336.604	19.46
336.817	-9.22
337.029	7.17
337.242	37.89
337.454	80.89
337.667	29.7
337.88	46.08
338.092	19.46
338.305	52.22
338.517	17.41
338.729	41.98
338.942	64.51
339.154	-3.07
339.367	31.74
339.579	-44.03
339.792	-23.55
340.004	48.13
340.217	68.61
340.429	48.13
340.641	62.46
340.854	68.61
341.066	46.08
341.278	101.37
341.491	31.74
341.703	44.03
341.915	-1.02
342.128	82.94
342.34	21.5
342.552	-25.6
342.764	-23.55
342.977	72.7
343.189	82.94
343.401	-54.27
343.613	-5.12
343.826	27.65
344.038	39.94
344.25	64.51
344.462	-56.32
344.674	76.8
344.886	91.13
345.099	84.99
345.311	29.7
345.523	15.36
345.735	39.94
345.947	60.42
346.159	33.79
346.371	37.89
346.583	23.55
346.795	117.76
347.007	48.13
347.219	-9.22
347.431	72.7
347.643	27.65
347.855	-21.5
348.067	66.56
348.279	33.79
348.491	76.8
348.703	35.84
348.915	-25.6
349.127	66.56
349.339	-27.65
349.551	9.22
349.763	-11.26
349.975	56.32
350.187	-27.65
350.399	109.57
350.61	33.79
350.822	50.18
351.034	46.08
351.246	-1.02
351.458	78.85
351.669	39.94
351.881	107.52
352.093	13.31
352.305	-3.07
352.517	13.31
352.728	39.94
352.94	-13.31
353.152	25.6
353.363	56.32
353.575	-19.46
353.787	74.75
353.999	50.18
354.21	46.08
354.422	31.74
354.633	-3.07
354.845	35.84
355.057	80.89
355.268	33.79
355.48	62.46
355.692	23.55
355.903	9.22
356.115	-37.89
356.326	17.41
356.538	62.46
356.749	52.22
356.961	82.94
357.172	-13.31
357.384	-5.12
357.595	17.41
357.807	-37.89
358.018	31.74
358.23	80.89
358.441	39.94
358.653	-5.12
358.864	-13.31
359.075	-1.02
359.287	19.46
359.498	-46.08
359.709	68.61
359.921	7.17
360.132	29.7
360.344	-17.41
360.555	84.99
360.766	76.8
360.977	-15.36
361.189	70.65
361.4	64.51
361.611	60.42
361.823	68.61
362.034	76.8
362.245	72.7
362.456	25.6
362.667	52.22
362.879	19.46
363.09	44.03
363.301	115.71
363.512	9.22
363.723	93.18
363.935	80.89
364.146	76.8
364.357	1.02
364.568	80.89
364.779	3.07
364.99	60.42
365.201	39.94
365.412	17.41
365.623	11.26
365.834	78.85
366.045	33.79
366.256	68.61
366.467	60.42
366.678	103.42
366.889	-1.02
367.1	27.65
367.311	29.7
367.522	15.36
367.733	-15.36
367.944	66.56
368.155	-15.36
368.366	66.56
368.577	31.74
368.788	84.99
368.999	-11.26
369.209	-9.22
369.42	62.46
369.631	66.56
369.842	46.08
370.053	25.6
370.264	87.04
370.474	76.8
370.685	29.7
370.896	17.41
371.107	66.56
371.317	-13.31
371.528	21.5
371.739	54.27
371.95	84.99
372.16	84.99
372.371	35.84
372.582	17.41
372.792	58.37
373.003	56.32
373.214	89.09
373.424	29.7
373.635	33.79
373.846	23.55
374.056	-9.22
374.267	66.56
374.477	7.17
374.688	72.7
374.898	33.79
375.109	97.28
375.319	50.18
375.53	107.52
375.74	97.28
375.951	-23.55
376.161	76.8
376.372	76.8
376.582	19.46
376.793	60.42
377.003	80.89
377.214	3.07
377.424	48.13
377.635	91.13
377.845	46.08
378.055	101.37
378.266	-52.22
378.476	29.7
378.686	60.42
378.897	60.42
379.107	107.52
379.317	31.74
379.528	-7.17
379.738	68.61
379.948	1.02
380.158	56.32
380.369	17.41
380.579	70.65
380.789	78.85
380.999	27.65
381.21	105.47
381.42	64.51
381.63	17.41
381.84	52.22
382.05	52.22
382.261	13.31
382.471	64.51
382.681	66.56
382.891	121.85
383.101	66.56
383.311	-19.46
383.521	3.07
383.731	17.41
383.941	23.55
384.151	-3.07
384.361	99.33
384.571	80.89
384.781	37.89
384.991	35.84
385.201	91.13
385.411	119.81
385.621	72.7
385.831	56.32
386.041	35.84
386.251	-9.22
386.461	111.61
386.671	27.65
386.881	56.32
387.091	39.94
387.301	62.46
387.511	82.94
387.72	58.37
387.93	93.18
388.14	48.13
388.35	80.89
388.56	56.32
388.769	168.96
388.979	62.46
389.189	25.6
389.399	87.04
389.609	29.7
389.818	109.57
390.028	64.51
390.238	80.89
390.447	78.85
390.657	56.32
390.867	78.85
391.076	-17.41
391.286	56.32
391.496	23.55
391.705	35.84
391.915	87.04
392.125	17.41
392.334	91.13
392.544	95.23
392.753	56.32
392.963	64.51
393.172	78.85
393.382	33.79
393.591	95.23
393.801	50.18
394.01	62.46
394.22	68.61
394.429	80.89
394.639	58.37
394.848	101.37
395.058	107.52
395.267	109.57
395.477	7.17
395.686	52.22
395.895	64.51
396.105	156.67
396.314	128
396.524	66.56
396.733	39.94
396.942	132.09
397.152	87.04
397.361	78.85
397.57	162.81
397.78	70.65
397.989	107.52
398.198	72.7
398.407	89.09
398.617	144.38
398.826	140.29
399.035	128
399.244	103.42
399.453	101.37
399.663	84.99
399.872	105.47
400.081	78.85
400.29	130.05
400.499	125.95
400.708	173.05
400.917	105.47
401.127	115.71
401.336	97.28
401.545	113.66
401.754	113.66
401.963	232.44
402.172	173.05
402.381	183.29
402.59	175.1
402.799	95.23
403.008	125.95
403.217	134.14
403.426	138.24
403.635	105.47
403.844	144.38
404.053	123.9
404.262	84.99
404.471	146.43
404.68	113.66
404.888	130.05
405.097	191.49
405.306	252.92
405.515	158.72
405.724	158.72
405.933	189.44
406.142	195.58
406.35	236.54
406.559	234.49
406.768	248.83
406.977	252.92
407.185	224.25
407.394	218.11
407.603	187.39
407.812	289.79
408.02	265.21
408.229	220.16
408.438	271.36
408.646	320.51
408.855	320.51
409.064	267.26
409.272	351.23
409.481	314.36
409.69	314.36
409.898	379.9
410.107	406.52
410.315	367.61
410.524	295.93
410.733	402.43
410.941	392.19
411.15	416.76
411.358	437.24
411.567	439.29
411.775	472.06
411.984	500.73
412.192	531.45
412.401	535.54
412.609	492.54
412.818	525.3
413.026	580.6
413.234	588.79
413.443	637.94
413.651	635.89
413.86	701.43
414.068	717.81
414.276	728.05
414.485	715.77
414.693	699.38
414.901	762.87
415.11	748.53
415.318	869.36
415.526	932.85
415.734	922.61
415.943	965.62
416.151	1059.82
416.359	1033.2
416.567	1018.86
416.776	1035.25
416.984	1176.56
417.192	1176.56
417.4	1205.23
417.608	1231.85
417.817	1235.95
418.025	1342.44
418.233	1416.17
418.441	1405.93
418.649	1448.94
418.857	1502.19
419.065	1567.72
419.273	1481.71
419.481	1686.5
419.689	1813.48
419.897	1944.55
420.105	1932.26
420.313	1881.06
420.521	2005.99
420.729	2012.13
420.937	2036.7
421.145	2214.88
421.353	2249.69
421.561	2343.9
421.769	2393.05
421.977	2462.68
422.185	2528.22
422.393	2642.9
422.601	2706.39
422.809	2722.77
423.017	2745.3
423.224	2896.85
423.432	3007.44
423.64	2968.53
423.848	3275.73
424.056	3187.66
424.263	3451.85
424.471	3439.56
424.679	3572.68
424.887	3732.42
425.094	3888.07
425.302	4006.85
425.51	4025.28
425.718	4062.15
425.925	4105.15
426.133	4326.33
426.341	4604.86
426.548	4836.28
426.756	4922.29
426.964	4807.61
427.171	5129.14
427.379	5340.08
427.586	5333.93
427.794	5508.01
428.001	5903.27
428.209	6077.35
428.417	5819.3
428.624	6368.16
428.832	6271.9
429.039	6288.29
429.247	6452.13
429.454	7062.42
429.662	7359.38
429.869	6839.19
430.076	7332.75
430.284	7087
430.491	7525.26
430.699	7984.01
430.906	7965.57
431.114	7949.19
431.321	8313.73
431.528	8557.44
431.736	8954.74
431.943	9290.61
432.15	9137.01
432.358	9421.68
432.565	9784.17
432.772	9833.32
432.979	10204
433.187	10460
433.394	10402.66
433.601	11381.59
433.808	11305.81
434.016	11182.93
434.223	11570
434.43	12272.45
434.637	11905.87
434.844	12794.68
435.052	13142.84
435.259	12880.7
435.466	13275.96
435.673	13044.54
435.88	14048.04
436.087	14621.47
436.294	14517.03
436.501	14172.97
436.708	14525.22
436.915	14977.82
437.122	15704.85
437.329	15510.29
437.537	16202.5
437.743	16407.3
437.95	16476.93
438.157	17314.55
438.364	17808.11
438.571	17967.85
438.778	17734.39
438.985	19348.18
439.192	18662.12
439.399	19225.31
439.606	19026.65
439.813	19974.86
440.02	21232.32
440.227	20775.62
440.433	20869.83
440.64	21402.3
440.847	21011.14
441.054	21353.15
441.261	23231.13
441.467	22704.81
441.674	23290.52
441.881	24089.23
442.088	24242.83
442.294	23517.85
442.501	24509.07
442.708	24937.09
442.914	26180.21
443.121	27056.74
443.328	26055.28
443.534	28115.54
443.741	27460.19
443.948	26933.86
444.154	28971.59
444.361	29004.36
444.568	28961.35
444.774	29129.28
444.981	29319.74
445.187	30028.34
445.394	31523.36
445.6	31144.48
445.807	34304.5
446.013	32528.91
446.22	33126.92
446.426	34642.42
446.633	34580.98
446.839	35928.54
447.046	34529.78
447.252	36499.92
447.459	36354.52
447.665	36272.6
447.871	37884.35
448.078	39561.64
448.284	37583.3
448.491	38595
448.697	40243.61
448.903	41087.37
449.11	40550.81
449.316	40192.41
449.522	41238.92
449.728	42289.53
449.935	42598.77
450.141	42328.44
450.347	43024.75
450.553	42086.78
450.76	42539.38
450.966	43725.16
451.172	43182.45
451.378	44712.28
451.584	43497.83
451.791	44693.85
451.997	44390.75
452.203	45074.77
452.409	45435.21
452.615	45144.4
452.821	43602.28
453.027	43065.71
453.233	45420.87
453.44	43530.6
453.646	43450.73
453.852	43981.15
454.058	44777.81
454.264	43039.09
454.47	44880.21
454.676	43213.16
454.882	44822.87
455.088	40470.93
455.294	41435.53
455.5	41820.55
455.705	42973.55
455.911	40329.62
456.117	39917.98
456.323	39293.35
456.529	37689.79
456.735	39311.78
456.941	38216.12
457.147	37380.55
457.352	36559.31
457.558	36190.68
457.764	36026.84
457.97	35635.68
458.176	34662.9
458.381	34408.95
458.587	32643.6
458.793	33006.09
458.999	31064.61
459.204	33559.04
459.41	32659.98
459.616	30915.11
459.821	30644.78
460.027	30593.58
460.233	29798.97
460.438	28164.69
460.644	28564.04
460.85	27339.36
461.055	26819.17
461.261	26909.29
461.466	24976
461.672	24355.47
461.878	25887.35
462.083	24124.05
462.289	23466.65
462.494	23464.6
462.7	22145.71
462.905	21744.31
463.111	22457
463.316	22770.34
463.522	21936.82
463.727	21947.06
463.932	21981.87
464.138	21922.48
464.343	21996.21
464.549	21377.72
464.754	21836.47
464.959	21922.48
465.165	21551.8
465.37	20878.02
465.575	20208.33
465.781	21189.31
465.986	21179.07
466.191	20026.06
466.397	19813.07
466.602	19090.14
466.807	20038.35
467.012	19770.07
467.218	19493.59
467.423	19262.17
467.628	19518.17
467.833	20224.72
468.038	19313.37
468.244	18983.65
468.449	19845.84
468.654	19176.16
468.859	18967.26
469.064	18871.01
469.269	18203.37
469.474	18291.43
469.679	18651.88
469.885	17951.47
470.09	18299.62
470.295	18326.25
470.5	17806.06
470.705	17711.86
470.91	17781.49
471.115	17451.77
471.32	17720.05
471.525	17386.23
471.73	17111.8
471.935	17009.4
472.139	16335.62
472.344	16612.1
472.549	16495.36
472.754	16311.05
472.959	16005.9
473.164	15534.87
473.369	15436.56
473.574	16290.57
473.778	15778.58
473.983	15596.31
474.188	15528.72
474.393	14799.65
474.598	14791.45
474.802	14656.29
475.007	14738.21
475.212	14719.78
475.417	14189.35
475.621	14072.62
475.826	14394.15
476.031	14308.13
476.235	13800.24
476.44	13919.02
476.645	13675.31
476.849	13589.3
477.054	13380.4
477.259	13615.92
477.463	13177.65
477.668	13040.44
477.872	13075.26
478.077	12897.08
478.282	12581.7
478.486	12653.37
478.691	12399.43
478.895	12245.83
479.1	12450.63
479.304	12446.53
479.509	12084.04
479.713	12030.79
479.918	11787.08
480.122	11635.53
480.326	11782.99
480.531	11832.14
480.735	11739.98
480.94	11637.58
481.144	11924.3
481.348	11561.81
481.553	11488.08
481.757	11428.69
481.961	11307.86
482.166	11502.42
482.37	11567.95
482.574	11295.57
482.778	11191.13
482.983	11453.27
483.187	11203.41
483.391	11352.91
483.595	11303.76
483.8	11393.87
484.004	11275.09
484.208	11449.17
484.412	11203.41
484.616	11488.08
484.821	11424.59
485.025	11176.79
485.229	11383.63
485.433	11330.39
485.637	11481.94
485.841	11281.24
486.045	11295.57
486.249	11297.62
486.453	11260.76
486.657	11361.11
486.861	11322.2
487.065	11037.53
487.269	11488.08
487.473	11176.79
487.677	11131.73
487.881	11375.44
488.085	11160.41
488.289	11297.62
488.493	11357.01
488.697	11156.31
488.901	11547.47
489.105	11318.1
489.309	11348.82
489.512	11309.91
489.716	11199.32
489.92	11606.86
490.124	11168.6
490.328	11582.29
490.531	11334.48
490.735	11725.65
490.939	11490.13
491.143	11594.58
491.346	11469.65
491.55	11871.05
491.754	11871.05
491.958	11856.72
492.161	11952.97
492.365	11811.66
492.569	11844.43
492.772	11787.08
492.976	12211.01
493.18	12092.23
493.383	12223.3
493.587	12225.35
493.79	12391.23
493.994	12327.75
494.197	12469.06
494.401	12499.78
494.605	12389.19
494.808	12620.61
495.012	12753.73
495.215	12831.55
495.419	13122.36
495.622	12704.57
495.825	13028.15
496.029	13159.22
496.232	13306.68
496.436	13282.1
496.639	13632.3
496.843	13548.34
497.046	13861.68
497.249	13882.16
497.453	14009.13
497.656	14181.16
497.859	13921.07
498.063	14304.04
498.266	14693.15
498.469	14424.87
498.673	14799.65
498.876	14887.71
499.079	15137.56
499.282	15137.56
499.485	15352.6
499.689	15567.63
499.892	15606.55
500.095	15932.17
500.298	16003.85
500.501	16192.26
500.705	16282.38
500.908	16882.43
501.111	16603.91
501.314	16898.81
501.517	17027.84
501.72	17154.81
501.923	17425.14
502.126	17646.32
502.329	17844.98
502.532	17935.09
502.735	18035.44
502.938	18569.96
503.141	18397.93
503.344	18934.5
503.547	18629.35
503.75	19118.81
503.953	19626.71
504.156	19469.01
504.359	19491.54
504.562	19843.79
504.765	20218.57
504.968	20478.66
505.17	20724.42
505.373	20605.64
505.576	21131.97
505.779	21004.99
505.982	21250.75
506.185	21578.42
506.387	21795.51
506.59	21994.16
506.793	22573.74
506.996	22268.59
507.198	22962.85
507.401	22704.81
507.604	22942.37
507.807	23059.1
508.009	23497.37
508.212	23642.78
508.415	24291.98
508.617	24136.34
508.82	24457.87
509.022	24296.08
509.225	25225.86
509.428	25158.27
509.63	25498.23
509.833	25371.26
510.035	26141.3
510.238	25920.12
510.44	26454.64
510.643	26657.39
510.845	26919.53
511.048	26702.44
511.25	27028.07
511.453	27351.65
511.655	28021.33
511.858	27849.3
512.06	27923.03
512.262	28400.21
512.465	28473.93
512.667	28875.34
512.87	29006.41
513.072	29612.6
513.274	29647.42
513.477	30161.46
513.679	30487.09
513.881	30372.4
514.084	30851.63
514.286	30624.3
514.488	30935.59
514.69	32147.99
514.893	31916.57
515.095	32512.53
515.297	32586.25
515.499	32782.86
515.701	32946.7
515.904	33354.24
516.106	33188.36
516.308	33743.36
516.51	33960.44
516.712	33923.58
516.914	34511.35
517.116	35150.31
517.318	34994.67
517.52	35004.91
517.722	35332.58
517.925	35885.53
518.127	36303.32
518.329	36381.14
518.531	36522.45
518.733	37118.41
518.935	37452.23
519.136	37581.25
519.338	37800.38
519.54	38091.19
519.742	38379.96
519.944	38326.71
520.146	39535.01
520.348	39365.03
520.55	39410.09
520.752	39502.25
520.954	39981.47
521.155	40210.84
521.357	40718.74
521.559	40862.1
521.761	41271.69
521.963	41243.02
522.164	41791.87
522.366	41615.75
522.568	42125.69
522.77	42144.12
522.971	42963.31
523.173	42752.37
523.375	42975.6
523.576	43024.75
523.778	42895.73
523.98	43766.12
524.181	43673.96
524.383	44050.78
524.584	44218.72
524.786	44339.55
524.988	44605.78
525.189	44728.66
525.391	45556.04
525.592	45062.48
525.794	45633.86
525.995	45631.82
526.197	45633.86
526.398	45853
526.6	45965.63
526.801	46270.78
527.003	46258.49
527.204	46645.56
527.406	46668.09
527.607	46932.28
527.808	47249.71
528.01	46733.62
528.211	47100.21
528.412	47823.14
528.614	47337.77
528.815	47679.78
529.016	48410.91
529.218	47323.44
529.419	47624.49
529.62	47759.66
529.822	47704.36
530.023	48040.23
530.224	47962.4
530.425	47620.39
530.626	47974.69
530.828	48046.37
531.029	48763.16
531.23	48113.95
531.431	48662.81
531.632	48847.13
531.833	49002.77
532.035	48415.01
532.236	48484.64
532.437	48951.57
532.638	48204.06
532.839	48955.67
533.04	49000.72
533.241	48242.98
533.442	49426.7
533.643	49242.38
533.844	48709.91
534.045	48718.1
534.246	48779.54
534.447	49119.51
534.648	48935.19
534.849	49125.65
535.05	48466.2
535.251	49150.23
535.451	48804.12
535.652	49414.41
535.853	49475.85
536.054	49197.33
536.255	49266.96
536.456	48480.54
536.657	49422.61
536.857	48763.16
537.058	48812.31
537.259	49226
537.46	48910.61
537.66	49152.27
537.861	49101.07
538.062	49039.64
538.263	49477.9
538.463	48904.47
538.664	49107.22
538.865	49172.75
539.065	49373.45
539.266	48996.63
539.466	49486.09
539.667	48648.47
539.868	49113.36
540.068	49035.54
540.269	48990.48
540.469	49445.13
540.67	48642.33
540.87	48902.42
541.071	49207.57
541.271	49340.69
541.472	49109.27
541.672	48664.86
541.873	48937.24
542.073	48318.75
542.274	49596.68
542.474	48716.06
542.675	48550.17
542.875	49410.32
543.075	48924.95
543.276	47976.74
543.476	49193.23
543.676	48718.1
543.877	48906.52
544.077	49008.92
544.277	48580.89
544.478	48484.64
544.678	48773.4
544.878	48699.67
545.078	48898.33
545.279	48372
545.479	48558.36
545.679	48871.7
545.879	48390.43
546.079	48644.38
546.28	48726.3
546.48	48267.55
546.68	48754.97
546.88	48685.34
547.08	48539.93
547.28	48812.31
547.48	48468.25
547.68	48238.88
547.88	47796.52
548.081	48617.75
548.281	48224.54
548.481	48038.18
548.681	48580.89
548.881	48382.24
549.081	48648.47
549.28	48488.73
549.48	48777.5
549.68	48361.76
549.88	49150.23
550.08	48218.4
550.28	48840.98
550.48	47989.03
550.68	48689.43
550.88	48029.99
551.08	48038.18
551.279	48128.29
551.479	47817
551.679	48195.87
551.879	47524.14
552.079	48210.21
552.278	48050.47
552.478	47978.79
552.678	48070.95
552.878	48412.96
553.077	48154.91
553.277	47585.58
553.477	48195.87
553.676	47630.63
553.876	48034.08
554.076	48240.93
554.275	47919.4
554.475	47733.03
554.674	47888.68
554.874	47771.94
555.074	47589.67
555.273	47806.76
555.473	47610.15
555.672	47558.95
555.872	47563.05
556.071	47726.89
556.271	47327.53
556.47	47290.67
556.67	47178.03
556.869	47030.58
557.068	47495.47
557.268	46899.51
557.467	47012.15
557.667	47128.88
557.866	46993.71
558.065	46475.58
558.265	46846.26
558.464	46747.96
558.663	47036.72
558.863	46643.51
559.062	47198.51
559.261	46401.85
559.461	47216.94
559.66	46133.57
559.859	46397.76
560.058	46289.21
560.258	46963
560.457	46078.27
560.656	46301.5
560.855	46225.73
561.054	45973.83
561.253	45861.19
561.453	46166.34
561.652	46475.58
561.851	46559.55
562.05	46203.2
562.249	45654.34
562.448	46129.47
562.647	45943.11
562.846	45592.9
563.045	46020.93
563.244	44917.07
563.443	45556.04
563.642	45203.79
563.841	45318.48
564.04	45203.79
564.239	45625.67
564.438	45117.78
564.637	45375.82
564.836	44992.85
565.035	44886.36
565.234	45150.54
565.432	44675.41
565.631	44333.4
565.83	44788.05
566.029	44587.35
566.228	43952.48
566.427	44409.18
566.625	44036.45
566.824	43831.65
567.023	44077.41
567.222	43557.22
567.42	44114.27
567.619	43989.34
567.818	43624.81
568.016	43833.7
568.215	44093.79
568.414	43743.59
568.612	43708.77
568.811	43624.81
569.01	43282.8
569.208	42893.68
569.407	43538.79
569.605	42887.54
569.804	43569.51
570.002	42738.04
570.201	43278.7
570.4	42969.46
570.598	42355.07
570.797	42297.72
570.995	42504.57
571.193	42393.98
571.392	43233.64
571.59	41904.51
571.789	42361.21
571.987	41957.76
572.186	42088.83
572.384	41695.62
572.582	42054.01
572.781	41906.56
572.979	41464.2
573.177	41367.94
573.376	41546.12
573.574	41103.76
573.772	41331.08
573.971	41124.24
574.169	40841.62
574.367	40460.69
574.565	40884.62
574.763	40802.71
574.962	40780.18
575.16	40067.48
575.358	40362.39
575.556	40247.71
575.754	40624.53
575.952	40290.71
576.151	40374.68
576.349	39825.82
576.547	39858.59
576.745	39971.23
576.943	39651.75
577.141	39735.71
577.339	39711.14
577.537	39297.45
577.735	39684.51
577.933	39213.48
578.131	39123.37
578.329	39080.36
578.527	38857.14
578.725	38941.1
578.923	39424.42
579.121	38687.15
579.319	38773.17
579.516	38869.42
579.714	39027.12
579.912	38334.9
580.11	38314.42
580.308	38709.68
580.506	38357.43
580.704	37808.58
580.901	37999.04
581.099	37976.51
581.297	37749.18
581.495	37716.42
581.692	38052.28
581.89	37558.72
582.088	37853.63
582.285	37335.49
582.483	37939.65
582.681	37222.86
582.878	37052.87
583.076	37204.42
583.274	37343.69
583.471	36671.95
583.669	37044.68
583.866	36387.28
584.064	37071.31
584.262	36229.59
584.459	36499.92
584.657	36178.39
584.854	36426.2
585.052	36057.56
585.249	36139.48
585.447	36061.66
585.644	35375.59
585.841	36276.69
586.039	36116.95
586.236	35445.22
586.434	35600.86
586.631	35447.27
586.828	35434.98
587.026	35138.02
587.223	35275.24
587.42	35439.08
587.618	35013.1
587.815	34712.05
588.012	34750.96
588.21	34806.25
588.407	34851.31
588.604	34697.71
588.801	34345.46
588.999	34707.95
589.196	34222.58
589.393	33909.24
589.59	34212.34
589.787	34046.46
589.984	33837.56
590.182	33616.38
590.379	33833.47
590.576	33272.32
590.773	33341.96
590.97	33237.51
591.167	33667.58
591.364	33102.34
591.561	33374.72
591.758	32926.22
591.955	32846.35
592.152	33124.87
592.349	32862.73
592.546	32897.55
592.743	33077.77
592.94	32330.26
593.137	32514.58
593.334	32557.58
593.531	32061.97
593.727	32533.01
593.924	31998.49
594.121	31943.19
594.318	32080.41
594.515	31748.64
594.712	32023.06
594.908	31693.34
595.105	32057.88
595.302	31515.17
595.499	31818.27
595.696	31117.86
595.892	31189.54
596.089	31498.78
596.286	31023.65
596.482	30982.7
596.679	30892.58
596.876	30753.32
597.072	30880.3
597.269	30597.68
597.466	30497.33
597.662	30489.13
597.859	30601.77
598.055	30511.66
598.252	29876.79
598.448	30196.28
598.645	29985.33
598.841	29723.19
599.038	30302.77
599.234	29672
599.431	29669.95
599.627	29626.94
599.824	29704.76
600.02	29434.43
600.217	29682.24
600.413	29530.69
600.609	29006.41
600.806	28899.91
601.002	28832.33
601.198	28838.47
601.395	28691.02
601.591	28869.19
601.787	28654.15
601.984	28484.17
602.18	28834.38
602.376	28480.08
602.572	28516.94
602.769	28148.31
602.965	28232.27
603.161	28009.04
603.357	28119.63
603.553	27843.16
603.75	28301.9
603.946	27884.12
604.142	28033.62
604.338	27308.64
604.534	27796.06
604.73	27275.87
604.926	27083.36
605.122	27271.78
605.318	27048.55
605.514	27177.57
605.71	26776.17
605.906	27097.7
606.102	27152.99
606.298	26825.32
606.494	26940
606.69	26505.84
606.886	26976.87
607.082	26511.98
607.278	26827.37
607.474	26174.06
607.67	26554.99
607.866	26368.62
608.062	26620.52
608.257	26245.74
608.453	26325.61
608.649	26446.44
608.845	25881.21
609.041	26210.93
609.236	26321.52
609.432	25946.74
609.628	25897.59
609.824	25827.96
610.019	25823.86
610.215	25600.63
610.411	25787
610.606	25428.6
610.802	25758.33
610.998	25371.26
611.193	25406.08
611.389	25408.12
611.584	25500.28
611.78	25473.66
611.976	25250.43
612.171	25098.88
612.367	25135.74
612.562	25232
612.758	24892.04
612.953	24922.76
613.149	25115.26
613.344	24818.31
613.539	25264.77
613.735	25019.01
613.93	24875.65
614.126	24810.12
614.321	24898.18
614.517	25133.7
614.712	24703.62
614.907	24609.42
615.103	25064.07
615.298	24863.36
615.493	24574.6
615.688	24228.49
615.884	24629.9
616.079	24396.43
616.274	24124.05
616.47	24195.73
616.665	24138.38
616.86	24040.08
617.055	24126.1
617.25	24171.15
617.445	24050.32
617.641	23677.59
617.836	23888.53
618.031	23591.58
618.226	24011.41
618.421	23532.18
618.616	23831.19
618.811	23454.36
619.006	23943.83
619.201	23173.79
619.396	23593.62
619.591	23040.67
619.786	23243.42
619.981	23095.97
620.176	23124.64
620.371	23112.35
620.566	22989.47
620.761	22891.17
620.956	22733.48
621.151	22250.16
621.346	22448.81
621.541	22262.44
621.735	22344.36
621.93	22082.22
622.125	22186.67
622.32	21996.21
622.515	21940.91
622.709	21717.68
622.904	21443.26
623.099	21582.52
623.294	21412.54
623.488	21316.28
623.683	21076.67
623.878	20826.82
624.072	20988.61
624.267	20992.7
624.462	21013.18
624.656	20536.01
624.851	20806.34
625.046	20345.55
625.24	20468.42
625.435	20128.46
625.629	20026.06
625.824	20083.41
626.018	20237
626.213	19753.68
626.407	19808.98
626.602	19591.89
626.796	19589.85
626.991	19649.24
627.185	19321.56
627.38	19163.87
627.574	18961.12
627.768	18934.5
627.963	18825.95
628.157	18782.95
628.352	18744.03
628.546	18129.64
628.74	18522.85
628.935	18361.06
629.129	18182.89
629.323	17990.38
629.517	18037.48
629.712	18008.81
629.906	18051.82
630.1	17515.25
630.294	17732.34
630.489	17685.23
630.683	17777.39
630.877	17142.52
631.071	17308.41
631.265	17472.25
631.459	17007.36
631.653	16974.59
631.848	16608
632.042	16909.05
632.236	16868.09
632.43	16560.9
632.624	16835.33
632.818	16552.71
633.012	16358.15
633.206	16515.84
633.4	16278.28
633.594	16126.73
633.788	16247.56
633.982	16141.07
634.176	16067.34
634.369	15942.41
634.563	15575.83
634.757	15655.7
634.951	15745.81
635.145	15493.91
635.339	15489.81
635.533	15477.52
635.726	15493.91
635.92	15149.85
636.114	15090.46
636.308	14852.89
636.501	15051.55
636.695	15076.12
636.889	14914.33
637.083	14869.28
637.276	14629.66
637.47	14480.16
637.664	14353.19
637.857	14295.85
638.051	14187.3
638.244	14152.49
638.438	14113.58
638.632	14301.99
638.825	14043.95
639.019	13980.46
639.212	14005.03
639.406	13962.03
639.599	13927.21
639.793	13802.29
639.986	13443.89
640.18	13804.33
640.373	13613.87
640.567	13527.86
640.76	13458.23
640.954	13290.29
641.147	13345.59
641.34	13157.18
641.534	13132.6
641.727	13146.94
641.92	13044.54
642.114	12964.67
642.307	12778.3
642.5	12708.67
642.694	12647.23
642.887	12544.83
643.08	12735.29
643.273	12434.24
643.467	12600.13
643.66	12456.77
643.853	12358.47
644.046	12127.05
644.239	12237.64
644.432	12106.57
644.626	11993.93
644.819	12030.79
645.012	11869
645.205	12084.04
645.398	11885.39
645.591	11889.48
645.784	11613.01
645.977	11690.83
646.17	11488.08
646.363	11553.62
646.556	11322.2
646.749	11371.35
646.942	11451.22
647.135	11170.65
647.328	11189.08
647.521	10980.18
647.714	10994.52
647.907	10914.65
648.099	11090.77
648.292	11017.05
648.485	11076.44
648.678	10740.57
648.871	10656.61
649.064	10685.28
649.256	10912.6
649.449	10736.48
649.642	10560.35
649.835	10486.62
650.027	10509.15
650.22	10249.06
650.413	10392.42
650.605	10386.27
650.798	10308.45
650.991	10175.33
651.183	10070.89
651.376	10013.54
651.568	9988.97
651.761	9923.43
651.954	9995.11
652.146	9927.53
652.339	9984.87
652.531	9919.34
652.724	9778.03
652.916	9505.65
653.109	9550.7
653.301	9739.12
653.494	9743.21
653.686	9468.78
653.879	9436.02
654.071	9517.93
654.263	9235.32
654.456	9423.73
654.648	9247.6
654.84	9227.12
655.033	9124.72
655.225	9114.48
655.417	9108.34
655.61	8960.89
655.802	8981.37
655.994	8944.5
656.186	9016.18
656.379	8842.11
656.571	8776.57
656.763	8670.08
656.955	8850.3
657.148	8622.97
657.34	8436.61
657.532	8420.22
657.724	8528.77
657.916	8362.88
658.108	8541.05
658.3	8452.99
658.492	8287.11
658.684	8096.64
658.876	8067.97
659.068	8199.04
659.26	8287.11
659.452	8203.14
659.644	8156.04
659.836	7949.19
660.028	8067.97
660.22	7840.65
660.412	7926.66
660.604	7918.47
660.796	7734.15
660.988	7830.41
661.18	7654.28
661.372	7596.94
661.563	7719.82
661.755	7670.67
661.947	7685
662.139	7562.12
662.331	7642
662.522	7525.26
662.714	7338.9
662.906	7295.89
663.097	7404.43
663.289	7222.16
663.481	7234.45
663.673	7203.73
663.864	7150.48
664.056	7107.48
664.247	7134.1
664.439	6974.36
664.631	7121.81
664.822	6906.77
665.014	7068.56
665.205	7189.39
665.397	6874.01
665.588	7091.09
665.78	6697.88
665.971	6855.58
666.163	6777.75
666.354	6855.58
666.546	6890.39
666.737	6777.75
666.929	6634.39
667.12	6534.04
667.311	6554.52
667.503	6439.84
667.694	6568.86
667.885	6425.5
668.077	6511.52
668.268	6570.91
668.459	6443.93
668.651	6325.15
668.842	6224.8
669.033	6359.97
669.224	6331.3
669.416	6167.46
669.607	6196.13
669.798	6292.38
669.989	6386.59
670.18	5987.24
670.371	6171.55
670.563	5993.38
670.754	6071.2
670.945	5897.13
671.136	6165.41
671.327	6028.2
671.518	6040.48
671.709	5880.74
671.9	5827.5
672.091	5899.17
672.282	5837.73
672.473	5815.21
672.664	5784.49
672.855	5753.77
673.046	5761.96
673.237	5796.78
673.428	5667.75
673.619	5702.57
673.809	5682.09
674	5616.55
674.191	5567.4
674.382	5669.8
674.573	5514.16
674.764	5483.44
674.954	5579.69
675.145	5622.7
675.336	5348.27
675.527	5417.9
675.717	5422
675.908	5280.69
676.099	5309.36
676.289	5497.77
676.48	5483.44
676.671	5231.54
676.861	5422
677.052	5233.58
677.243	5252.02
677.433	5364.65
677.624	5331.89
677.814	5209.01
678.005	5161.91
678.195	5088.18
678.386	5190.58
678.576	5168.05
678.767	5153.71
678.957	5159.86
679.148	5090.23
679.338	5229.49
679.529	5161.91
679.719	4918.2
679.909	5030.84
680.1	5094.32
680.29	5047.22
680.481	4977.59
680.671	4910.01
680.861	5030.84
681.052	4942.77
681.242	4991.92
681.432	5008.31
681.622	4957.11
681.813	4985.78
682.003	4838.33
682.193	4887.48
682.383	4901.81
682.573	4875.19
682.764	4840.37
682.954	4871.09
683.144	4699.06
683.334	4787.13
683.524	4701.11
683.714	4690.87
683.904	4555.71
684.094	4776.89
684.284	4705.21
684.474	4783.03
684.664	4623.29
684.854	4488.12
685.044	4611
685.234	4453.31
685.424	4623.29
685.614	4494.27
685.804	4631.48
685.994	4490.17
686.184	4580.28
686.374	4473.79
686.564	4443.07
686.753	4281.28
686.943	4445.12
687.133	4314.05
687.323	4318.14
687.513	4361.15
687.702	4502.46
687.892	4209.6
688.082	4357.05
688.272	4381.63
688.461	4266.94
688.651	4348.86
688.841	4125.63
689.03	4156.35
689.22	4137.92
689.41	4191.17
689.599	4254.66
689.789	4160.45
689.979	4158.4
690.168	3969.99
690.358	4045.76
690.547	4137.92
690.737	3941.32
690.926	4002.75
691.116	3883.97
691.305	4025.28
691.495	3918.79
691.684	3972.04
691.874	4017.09
692.063	3836.87
692.252	3822.53
692.442	3849.16
692.631	3845.06
692.82	3881.92
693.01	3806.15
693.199	3777.48
693.388	3705.8
693.578	3808.2
693.767	3808.2
693.956	3814.34
694.146	3740.61
694.335	3720.14
694.524	3646.41
694.713	3617.74
694.902	3767.24
695.092	3593.16
695.281	3558.35
695.47	3699.66
695.659	3652.55
695.848	3580.87
696.037	3509.19
696.226	3546.06
696.415	3537.87
696.604	3619.78
696.793	3480.52
696.982	3472.33
697.171	3425.23
697.36	3498.95
697.549	3369.93
697.738	3470.28
697.927	3402.7
698.116	3523.53
698.305	3458
698.494	3447.76
698.683	3380.17
698.872	3421.13
699.061	3331.02
699.25	3253.2
699.438	3386.32
699.627	3398.6
699.816	3412.94
700.005	3320.78
700.193	3371.98
700.382	3357.64
700.571	3277.77
700.76	3300.3
700.948	3462.09
701.137	3269.58
701.326	3388.36
701.514	3238.86
701.703	3255.25
701.892	3197.9
702.08	3236.81
702.269	3259.34
702.457	3245.01
702.646	3195.86
702.834	3232.72
703.023	3144.66
703.212	3134.42
703.4	3288.01
703.589	3138.51
703.777	3347.4
703.965	3189.71
704.154	3087.31
704.342	3158.99
704.531	3263.44
704.719	2931.67
704.907	3163.09
705.096	3189.71
705.284	3136.46
705.472	3118.03
705.661	3052.5
705.849	3171.28
706.037	3163.09
706.226	3091.41
706.414	3099.6
706.602	3066.83
706.79	3220.43
706.979	3036.11
707.167	3214.29
707.355	3138.51
707.543	2909.14
707.731	3105.74
707.919	3027.92
708.107	3032.02
708.296	3001.3
708.484	2952.15
708.672	3009.49
708.86	3126.22
709.048	3007.44
709.236	2995.15
709.424	2946
709.612	3128.27
709.8	2986.96
709.988	3087.31
710.176	3017.68
710.364	3032.02
710.551	3105.74
710.739	2982.87
710.927	2905.04
711.115	2980.82
711.303	3017.68
711.491	2976.72
711.679	2954.19
711.866	3099.6
712.054	3070.93
712.242	2937.81
712.43	2882.52
712.617	2960.34
712.805	2798.55
712.993	2952.15
713.181	2857.94
713.368	2931.67
713.556	3107.79
713.744	2948.05
713.931	3011.54
714.119	2966.48
714.306	2943.96
714.494	3023.83
714.682	2941.91
714.869	2761.69
715.057	2976.72
715.244	2931.67
715.432	2837.46
715.619	2909.14
715.807	3052.5
715.994	2915.28
716.182	2810.84
716.369	2882.52
716.556	2933.72
716.744	2898.9
716.931	2915.28
717.119	2851.8
717.306	2816.98
717.493	2933.72
717.681	2903
717.868	2933.72
718.055	2896.85
718.242	2995.15
718.43	2880.47
718.617	2874.32
718.804	2769.88
718.991	2880.47
719.179	2960.34
719.366	2862.04
719.553	2888.66
719.74	2843.6
719.927	2876.37
720.114	2841.56
720.301	2773.97
720.488	2880.47
720.676	2810.84
720.863	2890.71
721.05	2878.42
721.237	2847.7
721.424	2784.21
721.611	2919.38
721.798	2839.51
721.985	2862.04
722.172	2827.22
722.358	2831.32
722.545	2823.12
722.732	2720.73
722.919	2853.84
723.106	2794.45
723.293	2788.31
723.48	2810.84
723.667	2956.24
723.853	2780.12
724.04	2849.75
724.227	2751.45
724.414	2661.34
724.6	2773.97
724.787	2771.93
724.974	2849.75
725.161	2839.51
725.347	2755.54
725.534	2821.08
725.72	2804.69
725.907	2739.16
726.094	2806.74
726.28	2784.21
726.467	2790.36
726.653	2730.97
726.84	2864.08
727.027	2825.17
727.213	2829.27
727.4	2907.09
727.586	2761.69
727.773	2913.24
727.959	2880.47
728.145	2905.04
728.332	2814.93
728.518	2753.49
728.705	2804.69
728.891	2788.31
729.077	2706.39
729.264	2784.21
729.45	2759.64
729.636	2769.88
729.823	2788.31
730.009	2829.27
730.195	2862.04
730.382	2874.32
730.568	2845.65
730.754	2784.21
730.94	2845.65
731.126	2821.08
731.313	2757.59
731.499	2700.25
731.685	2862.04
731.871	2767.83
732.057	2796.5
732.243	2767.83
732.429	2915.28
732.615	2862.04
732.801	2671.58
732.987	2802.65
733.173	2915.28
733.359	2862.04
733.545	2761.69
733.731	2778.07
733.917	2837.46
734.103	2890.71
734.289	2741.21
734.475	2741.21
734.661	2903
734.847	2776.02
735.033	2776.02
735.219	2687.96
735.404	2837.46
735.59	2780.12
735.776	2784.21
735.962	2714.58
736.148	2745.3
736.333	2685.91
736.519	2681.82
736.705	2757.59
736.89	2804.69
737.076	2702.29
737.262	2816.98
737.447	2665.43
737.633	2710.49
737.819	2784.21
738.004	2755.54
738.19	2669.53
738.375	2624.47
738.561	2776.02
738.747	2823.12
738.932	2630.62
739.118	2806.74
739.303	2759.64
739.489	2847.7
739.674	2706.39
739.859	2730.97
740.045	2737.11
740.23	2677.72
740.416	2579.42
740.601	2558.94
740.786	2599.9
740.972	2630.62
741.157	2702.29
741.342	2606.04
741.528	2690.01
741.713	2636.76
741.898	2522.07
742.084	2505.69
742.269	2538.46
742.454	2556.89
742.639	2542.55
742.824	2634.71
743.01	2589.66
743.195	2659.29
743.38	2577.37
743.565	2413.53
743.75	2595.8
743.935	2425.82
744.12	2618.33
744.305	2511.83
744.49	2446.3
744.675	2444.25
744.86	2444.25
745.045	2411.48
745.23	2460.63
745.415	2343.9
745.6	2481.11
745.785	2444.25
745.97	2393.05
746.155	2382.81
746.34	2401.24
746.525	2341.85
746.71	2317.28
746.895	2348
747.079	2292.7
747.264	2323.42
747.449	2274.27
747.634	2233.31
747.819	2278.37
748.003	2200.54
748.188	2253.79
748.373	2278.37
748.557	2225.12
748.742	2200.54
748.927	2194.4
749.111	2188.25
749.296	2161.63
749.481	2151.39
749.665	2208.73
749.85	2200.54
750.034	2040.8
750.219	2065.38
750.404	2051.04
750.588	2094.05
750.773	2022.37
750.957	2034.66
751.141	2128.86
751.326	2063.33
751.51	2143.2
751.695	2102.24
751.879	2030.56
752.064	1954.79
752.248	2010.08
752.432	1934.31
752.617	2030.56
752.801	2005.99
752.985	1833.96
753.17	1813.48
753.354	1893.35
753.538	1883.11
753.722	1790.95
753.907	1905.63
754.091	1829.86
754.275	1850.34
754.459	1762.28
754.643	1833.96
754.828	1745.89
755.012	1801.19
755.196	1784.8
755.38	1760.23
755.564	1797.09
755.748	1770.47
755.932	1735.65
756.116	1737.7
756.3	1637.35
756.484	1743.85
756.668	1704.93
756.852	1717.22
757.036	1643.49
757.22	1571.82
757.404	1674.21
757.588	1655.78
757.772	1600.49
757.956	1598.44
758.14	1676.26
758.323	1459.18
758.507	1563.62
758.691	1545.19
758.875	1561.58
759.059	1516.52
759.242	1604.58
759.426	1516.52
759.61	1467.37
759.794	1440.75
759.977	1489.9
760.161	1539.05
760.345	1541.1
760.528	1350.64
760.712	1532.9
760.895	1477.61
761.079	1407.98
761.263	1491.95
761.446	1442.79
761.63	1432.55
761.813	1393.64
761.997	1420.27
762.18	1293.29
762.364	1360.88
762.547	1371.12
762.731	1377.26
762.914	1358.83
763.098	1266.67
763.281	1354.73
763.464	1291.24
763.648	1364.97
763.831	1334.25
764.015	1244.14
764.198	1303.53
764.381	1256.43
764.564	1293.29
764.748	1205.23
764.931	1254.38
765.114	1217.52
765.297	1299.44
765.481	1194.99
765.664	1250.28
765.847	1176.56
766.03	1238
766.213	1178.61
766.397	1219.57
766.58	1188.85
766.763	1250.28
766.946	1235.95
767.129	1219.57
767.312	1209.33
767.495	1211.37
767.678	1188.85
767.861	1174.51
768.044	1231.85
768.227	1235.95
768.41	1188.85
768.593	1260.52
768.776	1215.47
768.959	1190.89
769.142	1178.61
769.324	1154.03
769.507	1117.17
769.69	1160.17
769.873	1119.21
770.056	1178.61
770.239	1061.87
770.421	1039.34
770.604	1059.82
770.787	1149.93
770.97	1082.35
771.152	1102.83
771.335	1061.87
771.518	1035.25
771.7	1147.89
771.883	1149.93
772.066	1010.67
772.248	1061.87
772.431	1133.55
772.613	1084.4
772.796	1002.48
772.978	1106.93
773.161	1055.73
773.343	977.91
773.526	984.05
773.708	1039.34
773.891	932.85
774.073	1027.06
774.256	975.86
774.438	1016.82
774.621	873.46
774.803	959.47
774.985	1098.74
775.168	904.18
775.35	947.19
775.532	922.61
775.715	848.88
775.897	947.19
776.079	928.75
776.261	895.99
776.444	920.56
776.626	855.03
776.808	869.36
776.99	855.03
777.173	867.31
777.355	816.12
777.537	844.79
777.719	932.85
777.901	822.26
778.083	832.5
778.265	818.16
778.447	885.75
778.629	809.97
778.811	816.12
778.993	863.22
779.175	789.49
779.357	828.4
779.539	732.15
779.721	855.03
779.903	779.25
780.085	746.48
780.267	826.36
780.449	701.43
780.631	769.01
780.812	748.53
780.994	746.48
781.176	680.95
781.358	697.33
781.54	680.95
781.721	693.24
781.903	723.96
782.085	683
782.267	758.77
782.448	705.53
782.63	629.75
782.812	693.24
782.993	556.02
783.175	633.85
783.357	637.94
783.538	633.85
783.72	621.56
783.901	594.93
784.083	617.46
784.264	619.51
784.446	562.17
784.627	617.46
784.809	500.73
784.99	521.21
785.172	611.32
785.353	644.09
785.535	631.8
785.716	533.5
785.897	543.74
786.079	543.74
786.26	560.12
786.441	529.4
786.623	510.97
786.804	574.46
786.985	476.15
787.167	467.96
787.348	558.07
787.529	556.02
787.71	500.73
787.891	515.06
788.073	553.98
788.254	488.44
788.435	533.5
788.616	543.74
788.797	531.45
788.978	453.63
789.159	424.95
789.34	445.43
789.522	545.78
789.703	402.43
789.884	433.15
790.065	482.3
790.246	414.71
790.427	416.76
790.607	398.33
790.788	461.82
790.969	418.81
791.15	449.53
791.331	488.44
791.512	400.38
791.693	416.76
791.874	431.1
792.054	443.39
792.235	480.25
792.416	381.95
792.597	535.54
792.778	402.43
792.958	402.43
793.139	412.67
793.32	369.66
793.5	390.14
793.681	435.19
793.862	424.95
794.042	402.43
794.223	383.99
794.404	381.95
794.584	336.89
794.765	322.56
794.945	443.39
795.126	383.99
795.306	332.79
795.487	320.51
795.667	320.51
795.848	324.6
796.028	377.85
796.209	353.27
796.389	355.32
796.57	357.37
796.75	238.59
796.93	349.18
797.111	390.14
797.291	383.99
797.471	297.98
797.652	414.71
797.832	277.5
798.012	359.42
798.192	338.94
798.373	361.47
798.553	375.8
798.733	373.75
798.913	238.59
799.093	252.92
799.274	236.54
799.454	230.4
799.634	353.27
799.814	316.41
799.994	289.79
800.174	293.88
800.354	336.89
800.534	259.07
800.714	308.22
800.894	259.07
801.074	289.79
801.254	383.99
801.434	291.84
801.614	334.84
801.794	302.08
801.974	670.71
802.154	267.26
802.334	248.83
802.514	261.12
802.693	320.51
802.873	302.08
803.053	283.64
803.233	224.25
803.413	297.98
803.592	326.65
803.772	300.03
803.952	209.92
804.131	293.88
804.311	209.92
804.491	326.65
804.67	177.15
804.85	271.36
805.03	211.96
805.209	330.75
805.389	195.58
805.568	287.74
805.748	310.27
805.928	265.21
806.107	257.02
806.287	240.64
806.466	218.11
806.646	271.36
806.825	275.45
807.004	330.75
807.184	277.5
807.363	216.06
807.543	312.32
807.722	201.72
807.901	285.69
808.081	226.3
808.26	175.1
808.439	195.58
808.619	263.16
808.798	214.01
808.977	232.44
809.156	297.98
809.336	209.92
809.515	179.2
809.694	80.89
809.873	236.54
810.052	230.4
810.231	234.49
810.411	183.29
810.59	244.73
810.769	205.82
810.948	205.82
811.127	214.01
811.306	220.16
811.485	203.77
811.664	228.35
811.843	293.88
812.022	187.39
812.201	113.66
812.38	193.53
812.559	136.19
812.737	171.01
812.916	193.53
813.095	244.73
813.274	144.38
813.453	214.01
813.632	177.15
813.811	232.44
813.989	205.82
814.168	166.91
814.347	181.25
814.526	205.82
814.704	191.49
814.883	228.35
815.062	146.43
815.24	222.2
815.419	195.58
815.598	160.77
815.776	125.95
815.955	181.25
816.133	187.39
816.312	242.68
816.49	130.05
816.669	168.96
816.847	148.48
817.026	171.01
817.204	64.51
817.383	187.39
817.561	181.25
817.74	179.2
817.918	150.53
818.097	132.09
818.275	97.28
818.453	152.57
818.632	117.76
818.81	152.57
818.988	109.57
819.167	152.57
819.345	64.51
819.523	115.71
819.701	156.67
819.879	195.58
820.058	130.05
820.236	154.62
820.414	146.43
820.592	111.61
820.77	166.91
820.948	171.01
821.127	140.29
821.305	162.81
821.483	78.85
821.661	150.53
821.839	93.18
822.017	113.66
822.195	103.42
822.373	125.95
822.551	142.33
822.729	177.15
822.907	199.68
823.085	138.24
823.262	109.57
823.44	130.05
823.618	128
823.796	136.19
823.974	80.89
824.152	93.18
824.329	101.37
824.507	105.47
824.685	191.49
824.863	72.7
825.04	166.91
825.218	80.89
825.396	87.04
825.574	156.67
825.751	177.15
825.929	179.2
826.107	154.62
826.284	224.25
826.462	113.66
826.639	74.75
826.817	80.89
826.994	101.37
827.172	-3.07
827.349	199.68
827.527	66.56
827.704	119.81
827.882	105.47
828.059	138.24
828.237	84.99
828.414	115.71
828.591	15.36
828.769	107.52
828.946	101.37
829.124	197.63
829.301	150.53
829.478	121.85
829.655	103.42
829.833	97.28
830.01	-3.07
830.187	15.36
830.364	138.24
830.542	146.43
830.719	160.77
830.896	123.9
831.073	97.28
831.25	128
831.427	70.65
831.604	107.52
831.782	31.74
831.959	27.65
832.136	70.65
832.313	48.13
832.49	58.37
832.667	41.98
832.844	99.33
833.021	87.04
833.198	117.76
833.374	101.37
833.551	70.65
833.728	60.42
833.905	130.05
834.082	39.94
834.259	140.29
834.436	60.42
834.612	23.55
834.789	111.61
834.966	103.42
835.143	3.07
835.319	91.13
835.496	62.46
835.673	29.7
835.85	50.18
836.026	62.46
836.203	80.89
836.38	78.85
836.556	121.85
836.733	11.26
836.909	93.18
837.086	13.31
837.262	11.26
837.439	84.99
837.616	3.07
837.792	70.65
837.968	13.31
838.145	91.13
838.321	35.84
838.498	37.89
838.674	44.03
838.851	78.85
839.027	15.36
839.203	87.04
839.38	33.79
839.556	19.46
839.732	52.22
839.909	44.03
840.085	66.56
840.261	111.61
840.437	37.89
840.614	117.76
840.79	99.33
840.966	60.42
841.142	23.55
841.318	13.31
841.494	72.7
841.671	33.79
841.847	44.03
842.023	29.7
842.199	58.37
842.375	74.75
842.551	25.6
842.727	13.31
842.903	134.14
843.079	113.66
843.255	48.13
843.431	103.42
843.607	23.55
843.783	44.03
843.959	56.32
844.134	-33.79
844.31	68.61
844.486	99.33
844.662	44.03
844.838	25.6
845.013	66.56
845.189	50.18
845.365	107.52
845.541	-21.5
845.716	89.09
845.892	25.6
846.068	97.28
846.244	35.84
846.419	39.94
846.595	60.42
846.77	91.13
846.946	70.65
847.122	33.79
847.297	-13.31
847.473	91.13
847.648	-62.46
847.824	72.7
847.999	101.37
848.175	48.13
848.35	-1.02
848.526	64.51
848.701	1.02
848.876	87.04
849.052	48.13
849.227	66.56
849.403	66.56
849.578	72.7
849.753	111.61
849.929	15.36
850.104	-5.12
850.279	76.8
850.454	23.55
850.63	62.46
850.805	50.18
850.98	101.37
851.155	15.36
851.33	13.31
851.505	3.07
851.681	82.94
851.856	-25.6
852.031	-5.12
852.206	-21.5
852.381	31.74
852.556	25.6
852.731	27.65
852.906	-25.6
853.081	17.41
853.256	27.65
853.431	1.02
853.606	46.08
853.781	7.17
853.956	64.51
854.131	46.08
854.305	52.22
854.48	80.89
854.655	33.79
854.83	52.22
855.005	74.75
855.18	25.6
855.354	3.07
855.529	33.79
855.704	93.18
855.879	9.22
856.053	-11.26
856.228	56.32
856.403	11.26
856.577	-17.41
856.752	-1.02
856.926	72.7
857.101	44.03
857.276	76.8
857.45	87.04
857.625	11.26
857.799	76.8
857.974	25.6
858.148	29.7
858.323	17.41
858.497	41.98
858.672	54.27
858.846	17.41
859.02	87.04
859.195	21.5
859.369	48.13
859.543	-27.65
859.718	11.26
859.892	78.85
860.066	72.7
860.241	41.98
860.415	31.74
860.589	-101.37
860.763	64.51
860.938	-1.02
861.112	35.84
861.286	29.7
861.46	17.41
861.634	50.18
861.808	-35.84
861.982	52.22
862.157	50.18
862.331	-27.65
862.505	5.12
862.679	-11.26
862.853	56.32
863.027	-31.74
863.201	48.13
863.375	19.46
863.549	62.46
863.722	17.41
863.896	58.37
864.07	44.03
864.244	44.03
864.418	-1.02
864.592	29.7
864.766	17.41
864.939	60.42
865.113	-19.46
865.287	82.94
865.461	48.13
865.634	33.79
865.808	-54.27
865.982	3.07
866.156	21.5
866.329	-78.85
866.503	46.08
866.676	9.22
866.85	-11.26
867.024	-35.84
867.197	33.79
867.371	-1.02
867.544	-1.02
867.718	-48.13
867.891	-78.85
868.065	44.03
868.238	-52.22
868.412	37.89
868.585	52.22
868.759	68.61
868.932	7.17
869.105	3.07
869.279	-5.12
869.452	74.75
869.625	-1.02
869.799	25.6
869.972	-44.03
870.145	5.12
870.319	29.7
870.492	-9.22
870.665	-25.6
870.838	-19.46
871.011	-5.12
871.185	13.31
871.358	-27.65
871.531	29.7
871.704	-1.02
871.877	-15.36
872.05	-37.89
872.223	52.22
872.396	27.65
872.569	33.79
872.742	-1.02
872.915	31.74
873.088	13.31
873.261	-21.5
873.434	-5.12
873.607	37.89
873.78	66.56
873.953	-27.65
874.126	-13.31
874.299	-13.31
874.471	-50.18
874.644	-33.79
874.817	-56.32
874.99	37.89
875.163	15.36
875.335	-5.12
875.508	-3.07
875.681	-11.26
875.853	-11.26
876.026	19.46
876.199	-17.41
876.371	-13.31
876.544	66.56
876.717	17.41
876.889	17.41
877.062	-46.08
877.234	-17.41
877.407	64.51
877.579	58.37
877.752	29.7
877.924	-21.5
878.097	-31.74
878.269	-13.31
878.442	-21.5
878.614	-9.22
878.786	35.84
878.959	-29.7
879.131	21.5
879.303	56.32
879.476	-54.27
879.648	-9.22
879.82	-7.17
879.993	-29.7
880.165	-23.55
880.337	-23.55
880.509	-44.03
880.681	-52.22
880.854	17.41
881.026	5.12
881.198	39.94
881.37	-17.41
881.542	9.22
881.714	27.65
881.886	64.51
882.058	13.31
882.23	-5.12
882.402	27.65
882.574	52.22
882.746	-3.07
882.918	54.27
883.09	52.22
883.262	46.08
883.434	13.31
883.606	52.22
883.778	39.94
883.95	41.98
884.122	-17.41
884.293	-29.7
884.465	-1.02
884.637	56.32
884.809	-21.5
884.98	33.79
885.152	-44.03
885.324	76.8
885.496	39.94
885.667	-46.08
885.839	-7.17
886.011	44.03
886.182	-11.26
886.354	58.37
886.525	66.56
886.697	-27.65
886.869	27.65
887.04	15.36
887.212	-11.26
887.383	39.94
887.555	-29.7
887.726	11.26
887.897	-105.47
888.069	29.7
888.24	35.84
888.412	-5.12
888.583	-9.22
888.754	44.03
888.926	-23.55
889.097	-70.65
889.268	-44.03
889.44	-23.55
889.611	-25.6
889.782	5.12
889.953	-64.51
890.125	19.46
890.296	3.07
890.467	5.12
890.638	-68.61
890.809	-9.22
890.98	-3.07
891.151	3.07
891.323	-1.02
891.494	-31.74
891.665	31.74
891.836	1.02
892.007	7.17
892.178	31.74
892.349	-72.7
892.52	9.22
892.691	35.84
892.862	21.5
893.032	-44.03
893.203	-50.18
893.374	-31.74
893.545	13.31
893.716	-25.6
893.887	39.94
894.057	-41.98
894.228	-7.17
894.399	-50.18
894.57	95.23
894.74	52.22
894.911	31.74
895.082	-31.74
895.253	-95.23
895.423	23.55
895.594	3.07
895.764	15.36
895.935	-50.18
896.106	46.08
896.276	-13.31
896.447	-25.6
896.617	19.46
896.788	7.17
896.958	84.99
897.129	48.13
897.299	31.74
897.47	-29.7
897.64	23.55
897.81	-13.31
897.981	-15.36
898.151	-5.12
898.322	41.98
898.492	-3.07
898.662	-29.7
898.832	-9.22
899.003	60.42
899.173	25.6
899.343	-1.02
899.513	-52.22
