Data from USB4F104151__92__11-45-44-686.txt Node

Date: Fri Mar 14 11:45:44 EDT 2025
User: louis
Spectrometer: USB4F10415
Trigger mode: 4
Integration Time (sec): 2.000000E-2
Scans to average: 1
Electric dark correction enabled: true
Nonlinearity correction enabled: false
Boxcar width: 0
XAxis mode: Wavelengths
Number of Pixels in Spectrum: 3648
>>>>>Begin Spectral Data<<<<<
178.204	-165.03
178.424	-165.03
178.644	-165.03
178.864	-68.78
179.084	-11.43
179.304	19.29
179.524	-11.43
179.744	4.95
179.964	31.57
180.184	31.57
180.404	4.95
180.624	-52.39
180.844	-7.34
181.064	-7.34
181.283	11.09
181.503	-17.58
181.723	-7.34
181.943	-19.63
182.163	-29.87
182.383	-9.39
182.602	74.58
182.822	15.19
183.042	-27.82
183.262	80.72
183.482	-1.19
183.701	-17.58
183.921	-42.15
184.141	-25.77
184.361	21.33
184.58	-42.15
184.8	-7.34
185.02	43.86
185.239	-7.34
185.459	47.96
185.679	37.72
185.898	-70.83
186.118	90.96
186.338	-21.67
186.557	50
186.777	-23.72
186.997	7
187.216	-60.59
187.436	19.29
187.655	-7.34
187.875	64.34
188.095	11.09
188.314	-29.87
188.534	9.05
188.753	-54.44
188.973	19.29
189.192	9.05
189.412	-27.82
189.631	-38.06
189.851	-21.67
190.07	74.58
190.29	-25.77
190.509	-15.53
190.729	29.52
190.948	25.43
191.168	58.2
191.387	0.85
191.607	-11.43
191.826	-33.96
192.045	15.19
192.265	105.3
192.484	-3.24
192.704	60.24
192.923	-58.54
193.142	84.82
193.362	19.29
193.581	62.29
193.8	-48.3
194.02	37.72
194.239	0.85
194.458	17.24
194.678	17.24
194.897	0.85
195.116	-17.58
195.335	11.09
195.555	-21.67
195.774	47.96
195.993	43.86
196.212	-89.26
196.432	-40.11
196.651	21.33
196.87	37.72
197.089	25.43
197.308	-13.48
197.528	17.24
197.747	13.14
197.966	-25.77
198.185	95.06
198.404	-13.48
198.623	2.9
198.842	-13.48
199.062	-40.11
199.281	29.52
199.5	25.43
199.719	11.09
199.938	64.34
200.157	33.62
200.376	52.05
200.595	115.54
200.814	54.1
201.033	-56.49
201.252	35.67
201.471	0.85
201.69	-1.19
201.909	-44.2
202.128	-5.29
202.347	-1.19
202.566	-21.67
202.785	-17.58
203.004	-40.11
203.223	72.53
203.442	27.48
203.661	41.81
203.879	23.38
204.098	64.34
204.317	-68.78
204.536	115.54
204.755	-21.67
204.974	7
205.193	66.39
205.411	33.62
205.63	-11.43
205.849	-21.67
206.068	4.95
206.287	2.9
206.505	-40.11
206.724	-19.63
206.943	9.05
207.162	-21.67
207.381	60.24
207.599	27.48
207.818	-5.29
208.037	-21.67
208.255	2.9
208.474	72.53
208.693	37.72
208.911	-13.48
209.13	27.48
209.349	27.48
209.567	-7.34
209.786	54.1
210.005	-52.39
210.223	54.1
210.442	-33.96
210.661	9.05
210.879	23.38
211.098	66.39
211.316	-48.3
211.535	0.85
211.753	13.14
211.972	54.1
212.191	-48.3
212.409	-1.19
212.628	23.38
212.846	-11.43
213.065	-50.35
213.283	27.48
213.502	-54.44
213.72	70.48
213.938	39.76
214.157	-3.24
214.375	29.52
214.594	33.62
214.812	64.34
215.031	56.15
215.249	-31.91
215.467	-25.77
215.686	13.14
215.904	25.43
216.122	39.76
216.341	33.62
216.559	70.48
216.778	27.48
216.996	56.15
217.214	-64.68
217.432	0.85
217.651	-3.24
217.869	21.33
218.087	-27.82
218.306	13.14
218.524	56.15
218.742	-31.91
218.96	27.48
219.179	66.39
219.397	52.05
219.615	21.33
219.833	31.57
220.051	-62.63
220.27	-27.82
220.488	27.48
220.706	35.67
220.924	-64.68
221.142	21.33
221.36	-70.83
221.578	47.96
221.796	-11.43
222.015	-13.48
222.233	2.9
222.451	-50.35
222.669	-15.53
222.887	99.16
223.105	-9.39
223.323	9.05
223.541	15.19
223.759	-11.43
223.977	21.33
224.195	23.38
224.413	4.95
224.631	-42.15
224.849	21.33
225.067	-3.24
225.285	7
225.503	35.67
225.721	-27.82
225.939	64.34
226.157	33.62
226.375	93.01
226.592	11.09
226.81	11.09
227.028	39.76
227.246	74.58
227.464	-66.73
227.682	4.95
227.9	-44.2
228.117	13.14
228.335	-3.24
228.553	52.05
228.771	52.05
228.989	2.9
229.206	35.67
229.424	21.33
229.642	-5.29
229.86	41.81
230.077	33.62
230.295	90.96
230.513	33.62
230.731	-17.58
230.948	66.39
231.166	2.9
231.384	-58.54
231.601	25.43
231.819	-9.39
232.037	13.14
232.254	-5.29
232.472	-60.59
232.689	50
232.907	-3.24
233.125	-27.82
233.342	-38.06
233.56	-15.53
233.777	-56.49
233.995	62.29
234.213	-46.25
234.43	50
234.648	-11.43
234.865	-1.19
235.083	-3.24
235.3	-11.43
235.518	9.05
235.735	23.38
235.953	35.67
236.17	11.09
236.388	-9.39
236.605	-19.63
236.822	86.87
237.04	43.86
237.257	15.19
237.475	-31.91
237.692	27.48
237.909	27.48
238.127	-66.73
238.344	17.24
238.562	54.1
238.779	21.33
238.996	56.15
239.214	-9.39
239.431	37.72
239.648	29.52
239.865	39.76
240.083	-54.44
240.3	7
240.517	-40.11
240.735	9.05
240.952	4.95
241.169	4.95
241.386	-60.59
241.603	50
241.821	-58.54
242.038	25.43
242.255	47.96
242.472	-15.53
242.689	39.76
242.907	72.53
243.124	33.62
243.341	-54.44
243.558	-36.01
243.775	-103.59
243.992	25.43
244.209	-1.19
244.426	21.33
244.643	41.81
244.86	25.43
245.078	60.24
245.295	17.24
245.512	-11.43
245.729	-9.39
245.946	66.39
246.163	29.52
246.38	21.33
246.597	-33.96
246.814	31.57
247.031	56.15
247.248	31.57
247.464	60.24
247.681	13.14
247.898	60.24
248.115	11.09
248.332	-11.43
248.549	56.15
248.766	-17.58
248.983	33.62
249.2	47.96
249.417	13.14
249.633	23.38
249.85	-15.53
250.067	41.81
250.284	-70.83
250.501	-113.83
250.717	35.67
250.934	-19.63
251.151	-17.58
251.368	-13.48
251.585	35.67
251.801	-13.48
252.018	-36.01
252.235	88.92
252.451	-25.77
252.668	29.52
252.885	56.15
253.102	-5.29
253.318	33.62
253.535	19.29
253.752	-5.29
253.968	-1.19
254.185	54.1
254.401	-5.29
254.618	82.77
254.835	-25.77
255.051	58.2
255.268	-17.58
255.484	33.62
255.701	-21.67
255.917	35.67
256.134	-46.25
256.351	-9.39
256.567	70.48
256.784	-27.82
257	4.95
257.217	50
257.433	19.29
257.65	7
257.866	37.72
258.082	-46.25
258.299	35.67
258.515	50
258.732	-5.29
258.948	-25.77
259.165	23.38
259.381	-15.53
259.597	2.9
259.814	7
260.03	86.87
260.246	72.53
260.463	-7.34
260.679	-64.68
260.895	56.15
261.112	13.14
261.328	-7.34
261.544	35.67
261.761	-3.24
261.977	2.9
262.193	15.19
262.409	41.81
262.626	-17.58
262.842	13.14
263.058	23.38
263.274	68.44
263.49	27.48
263.707	-19.63
263.923	74.58
264.139	-11.43
264.355	-62.63
264.571	25.43
264.787	41.81
265.004	17.24
265.22	-25.77
265.436	-93.35
265.652	-19.63
265.868	35.67
266.084	-17.58
266.3	113.49
266.516	-19.63
266.732	-17.58
266.948	27.48
267.164	43.86
267.38	-23.72
267.596	31.57
267.812	29.52
268.028	4.95
268.244	2.9
268.46	105.3
268.676	33.62
268.892	88.92
269.108	4.95
269.324	-25.77
269.54	37.72
269.756	52.05
269.972	41.81
270.188	-31.91
270.403	23.38
270.619	-25.77
270.835	-3.24
271.051	50
271.267	21.33
271.483	0.85
271.698	9.05
271.914	21.33
272.13	-52.39
272.346	-42.15
272.562	19.29
272.777	66.39
272.993	54.1
273.209	11.09
273.425	-1.19
273.64	-17.58
273.856	19.29
274.072	31.57
274.287	35.67
274.503	19.29
274.719	-11.43
274.934	27.48
275.15	-15.53
275.366	-31.91
275.581	74.58
275.797	31.57
276.012	-9.39
276.228	27.48
276.444	21.33
276.659	-48.3
276.875	-1.19
277.09	56.15
277.306	25.43
277.521	-17.58
277.737	74.58
277.952	52.05
278.168	43.86
278.383	33.62
278.599	-21.67
278.814	-74.92
279.03	64.34
279.245	0.85
279.461	7
279.676	-13.48
279.892	41.81
280.107	27.48
280.322	43.86
280.538	25.43
280.753	27.48
280.969	11.09
281.184	50
281.399	-9.39
281.615	-7.34
281.83	43.86
282.045	19.29
282.26	7
282.476	-25.77
282.691	54.1
282.906	-27.82
283.122	31.57
283.337	13.14
283.552	31.57
283.767	21.33
283.983	66.39
284.198	-5.29
284.413	23.38
284.628	-99.5
284.843	37.72
285.058	2.9
285.274	-44.2
285.489	7
285.704	29.52
285.919	-27.82
286.134	-17.58
286.349	43.86
286.564	27.48
286.779	70.48
286.995	-27.82
287.21	-58.54
287.425	7
287.64	7
287.855	4.95
288.07	-40.11
288.285	41.81
288.5	27.48
288.715	9.05
288.93	2.9
289.145	23.38
289.36	56.15
289.575	66.39
289.79	19.29
290.004	-48.3
290.219	41.81
290.434	25.43
290.649	-7.34
290.864	-50.35
291.079	-1.19
291.294	37.72
291.509	31.57
291.724	2.9
291.938	39.76
292.153	82.77
292.368	19.29
292.583	88.92
292.798	54.1
293.012	43.86
293.227	23.38
293.442	62.29
293.657	47.96
293.871	29.52
294.086	23.38
294.301	131.92
294.516	41.81
294.73	9.05
294.945	21.33
295.16	90.96
295.374	33.62
295.589	-7.34
295.804	-38.06
296.018	-29.87
296.233	-70.83
296.447	84.82
296.662	41.81
296.877	76.63
297.091	-25.77
297.306	-17.58
297.52	-1.19
297.735	25.43
297.949	-50.35
298.164	62.29
298.378	21.33
298.593	58.2
298.807	19.29
299.022	-25.77
299.236	-62.63
299.451	-1.19
299.665	11.09
299.88	50
300.094	-17.58
300.309	-27.82
300.523	4.95
300.737	17.24
300.952	-33.96
301.166	-27.82
301.381	56.15
301.595	-21.67
301.809	52.05
302.024	-23.72
302.238	-23.72
302.452	60.24
302.667	-1.19
302.881	4.95
303.095	13.14
303.309	37.72
303.524	4.95
303.738	13.14
303.952	-23.72
304.166	68.44
304.381	31.57
304.595	23.38
304.809	23.38
305.023	105.3
305.237	41.81
305.452	11.09
305.666	72.53
305.88	72.53
306.094	39.76
306.308	-50.35
306.522	25.43
306.736	17.24
306.95	7
307.164	0.85
307.379	50
307.593	9.05
307.807	11.09
308.021	82.77
308.235	64.34
308.449	7
308.663	9.05
308.877	93.01
309.091	-9.39
309.305	25.43
309.519	-50.35
309.733	50
309.947	-1.19
310.161	9.05
310.374	-19.63
310.588	13.14
310.802	43.86
311.016	0.85
311.23	39.76
311.444	-13.48
311.658	33.62
311.872	45.91
312.085	7
312.299	-9.39
312.513	-48.3
312.727	47.96
312.941	11.09
313.154	84.82
313.368	-9.39
313.582	86.87
313.796	-23.72
314.009	-27.82
314.223	39.76
314.437	52.05
314.651	17.24
314.864	-17.58
315.078	-33.96
315.292	25.43
315.505	-9.39
315.719	54.1
315.933	88.92
316.146	50
316.36	9.05
316.573	68.44
316.787	66.39
317.001	86.87
317.214	13.14
317.428	0.85
317.641	35.67
317.855	-72.87
318.068	2.9
318.282	-46.25
318.495	52.05
318.709	-36.01
318.922	13.14
319.136	45.91
319.349	-13.48
319.563	13.14
319.776	56.15
319.99	23.38
320.203	11.09
320.417	58.2
320.63	31.57
320.843	-23.72
321.057	19.29
321.27	45.91
321.483	11.09
321.697	19.29
321.91	68.44
322.124	105.3
322.337	39.76
322.55	2.9
322.763	29.52
322.977	-36.01
323.19	-52.39
323.403	-15.53
323.617	-23.72
323.83	0.85
324.043	39.76
324.256	15.19
324.469	-19.63
324.683	2.9
324.896	35.67
325.109	13.14
325.322	39.76
325.535	41.81
325.748	19.29
325.962	17.24
326.175	-33.96
326.388	-3.24
326.601	-31.91
326.814	52.05
327.027	21.33
327.24	76.63
327.453	-38.06
327.666	-7.34
327.879	-1.19
328.092	78.68
328.305	-44.2
328.518	43.86
328.731	13.14
328.944	15.19
329.157	-3.24
329.37	68.44
329.583	50
329.796	33.62
330.009	-25.77
330.222	72.53
330.435	23.38
330.648	37.72
330.861	35.67
331.073	27.48
331.286	93.01
331.499	45.91
331.712	29.52
331.925	9.05
332.138	84.82
332.35	99.16
332.563	-3.24
332.776	45.91
332.989	-9.39
333.202	29.52
333.414	15.19
333.627	39.76
333.84	17.24
334.053	2.9
334.265	2.9
334.478	52.05
334.691	23.38
334.903	41.81
335.116	-21.67
335.329	2.9
335.541	13.14
335.754	93.01
335.966	35.67
336.179	-31.91
336.392	-54.44
336.604	19.29
336.817	41.81
337.029	80.72
337.242	27.48
337.454	88.92
337.667	0.85
337.88	13.14
338.092	-11.43
338.305	52.05
338.517	-29.87
338.729	-1.19
338.942	43.86
339.154	60.24
339.367	-46.25
339.579	7
339.792	17.24
340.004	0.85
340.217	50
340.429	-15.53
340.641	-23.72
340.854	-7.34
341.066	27.48
341.278	0.85
341.491	41.81
341.703	11.09
341.915	7
342.128	41.81
342.34	113.49
342.552	-52.39
342.764	4.95
342.977	-7.34
343.189	-9.39
343.401	39.76
343.613	-46.25
343.826	50
344.038	-7.34
344.25	58.2
344.462	84.82
344.674	27.48
344.886	-42.15
345.099	19.29
345.311	62.29
345.523	-17.58
345.735	17.24
345.947	123.73
346.159	17.24
346.371	-36.01
346.583	41.81
346.795	-68.78
347.007	-5.29
347.219	90.96
347.431	19.29
347.643	33.62
347.855	0.85
348.067	35.67
348.279	25.43
348.491	0.85
348.703	-21.67
348.915	15.19
349.127	-58.54
349.339	9.05
349.551	64.34
349.763	29.52
349.975	99.16
350.187	7
350.399	13.14
350.61	-15.53
350.822	39.76
351.034	-52.39
351.246	50
351.458	109.4
351.669	50
351.881	54.1
352.093	80.72
352.305	80.72
352.517	13.14
352.728	111.44
352.94	43.86
353.152	56.15
353.363	52.05
353.575	60.24
353.787	60.24
353.999	17.24
354.21	13.14
354.422	39.76
354.633	39.76
354.845	2.9
355.057	0.85
355.268	-3.24
355.48	4.95
355.692	-13.48
355.903	19.29
356.115	84.82
356.326	-21.67
356.538	56.15
356.749	-72.87
356.961	88.92
357.172	-44.2
357.384	21.33
357.595	111.44
357.807	15.19
358.018	-1.19
358.23	-40.11
358.441	66.39
358.653	64.34
358.864	31.57
359.075	-40.11
359.287	9.05
359.498	-13.48
359.709	27.48
359.921	-27.82
360.132	-3.24
360.344	54.1
360.555	31.57
360.766	23.38
360.977	54.1
361.189	-13.48
361.4	19.29
361.611	-5.29
361.823	88.92
362.034	111.44
362.245	-3.24
362.456	37.72
362.667	7
362.879	41.81
363.09	58.2
363.301	-1.19
363.512	33.62
363.723	-17.58
363.935	13.14
364.146	23.38
364.357	35.67
364.568	-27.82
364.779	35.67
364.99	39.76
365.201	-21.67
365.412	82.77
365.623	4.95
365.834	-17.58
366.045	2.9
366.256	41.81
366.467	82.77
366.678	54.1
366.889	41.81
367.1	66.39
367.311	4.95
367.522	23.38
367.733	93.01
367.944	78.68
368.155	150.36
368.366	19.29
368.577	50
368.788	-76.97
368.999	-7.34
369.209	29.52
369.42	2.9
369.631	31.57
369.842	27.48
370.053	-19.63
370.264	90.96
370.474	-54.44
370.685	35.67
370.896	33.62
371.107	74.58
371.317	7
371.528	-23.72
371.739	-5.29
371.95	23.38
372.16	45.91
372.371	-15.53
372.582	15.19
372.792	25.43
373.003	43.86
373.214	70.48
373.424	23.38
373.635	-7.34
373.846	25.43
374.056	62.29
374.267	66.39
374.477	70.48
374.688	-38.06
374.898	15.19
375.109	47.96
375.319	0.85
375.53	39.76
375.74	23.38
375.951	-11.43
376.161	9.05
376.372	119.64
376.582	-38.06
376.793	64.34
377.003	-42.15
377.214	31.57
377.424	2.9
377.635	-3.24
377.845	7
378.055	58.2
378.266	107.35
378.476	70.48
378.686	45.91
378.897	99.16
379.107	99.16
379.317	15.19
379.528	76.63
379.738	25.43
379.948	15.19
380.158	-13.48
380.369	56.15
380.579	35.67
380.789	19.29
380.999	-64.68
381.21	76.63
381.42	105.3
381.63	4.95
381.84	33.62
382.05	23.38
382.261	27.48
382.471	41.81
382.681	109.4
382.891	-11.43
383.101	56.15
383.311	37.72
383.521	27.48
383.731	107.35
383.941	39.76
384.151	25.43
384.361	-13.48
384.571	-9.39
384.781	-5.29
384.991	-23.72
385.201	72.53
385.411	-5.29
385.621	-5.29
385.831	37.72
386.041	66.39
386.251	-9.39
386.461	43.86
386.671	27.48
386.881	84.82
387.091	21.33
387.301	70.48
387.511	54.1
387.72	0.85
387.93	-1.19
388.14	-1.19
388.35	68.44
388.56	74.58
388.769	-9.39
388.979	41.81
389.189	-21.67
389.399	39.76
389.609	80.72
389.818	-3.24
390.028	23.38
390.238	123.73
390.447	93.01
390.657	31.57
390.867	-11.43
391.076	-62.63
391.286	33.62
391.496	56.15
391.705	-11.43
391.915	52.05
392.125	23.38
392.334	19.29
392.544	-1.19
392.753	-50.35
392.963	56.15
393.172	74.58
393.382	37.72
393.591	7
393.801	11.09
394.01	115.54
394.22	66.39
394.429	-9.39
394.639	41.81
394.848	66.39
395.058	21.33
395.267	9.05
395.477	93.01
395.686	90.96
395.895	62.29
396.105	50
396.314	31.57
396.524	27.48
396.733	82.77
396.942	25.43
397.152	-15.53
397.361	66.39
397.57	37.72
397.78	-60.59
397.989	31.57
398.198	109.4
398.407	25.43
398.617	72.53
398.826	70.48
399.035	64.34
399.244	52.05
399.453	37.72
399.663	76.63
399.872	52.05
400.081	43.86
400.29	47.96
400.499	25.43
400.708	181.07
400.917	148.31
401.127	45.91
401.336	2.9
401.545	56.15
401.754	37.72
401.963	39.76
402.172	25.43
402.381	29.52
402.59	109.4
402.799	37.72
403.008	80.72
403.217	90.96
403.426	174.93
403.635	-36.01
403.844	88.92
404.053	84.82
404.262	78.68
404.471	146.26
404.68	7
404.888	136.02
405.097	70.48
405.306	136.02
405.515	66.39
405.724	90.96
405.933	80.72
406.142	74.58
406.35	19.29
406.559	109.4
406.768	131.92
406.977	191.31
407.185	156.5
407.394	224.08
407.603	133.97
407.812	148.31
408.02	230.23
408.229	119.64
408.438	97.11
408.646	131.92
408.855	105.3
409.064	136.02
409.272	166.74
409.481	181.07
409.69	123.73
409.898	170.83
410.107	156.5
410.315	140.12
410.524	119.64
410.733	236.37
410.941	199.51
411.15	232.27
411.358	205.65
411.567	326.48
411.775	238.42
411.984	203.6
412.192	256.85
412.401	271.19
412.609	291.66
412.818	295.76
413.026	297.81
413.234	271.19
413.443	306
413.651	314.19
413.86	314.19
414.068	342.86
414.276	445.26
414.485	355.15
414.693	387.92
414.901	473.93
415.11	453.45
415.318	385.87
415.526	502.61
415.734	502.61
415.943	426.83
416.151	549.71
416.359	557.9
416.567	564.04
416.776	570.19
416.984	592.72
417.192	672.59
417.4	545.61
417.608	641.87
417.817	772.94
418.025	594.76
418.233	729.93
418.441	701.26
418.649	703.31
418.857	762.7
419.065	772.94
419.273	762.7
419.481	826.18
419.689	861
419.897	885.58
420.105	961.35
420.313	1033.03
420.521	1043.27
420.729	975.69
420.937	1112.9
421.145	1112.9
421.353	1198.92
421.561	1203.01
421.769	1170.24
421.977	1307.46
422.185	1276.74
422.393	1383.23
422.601	1497.92
422.809	1467.2
423.017	1446.72
423.224	1465.15
423.432	1643.32
423.64	1600.32
423.848	1725.24
424.056	1702.72
424.263	1846.07
424.471	1823.55
424.679	1848.12
424.887	1946.42
425.094	1952.57
425.302	2005.81
425.51	2079.54
425.718	2083.64
425.925	2054.97
426.133	2233.14
426.341	2356.02
426.548	2489.14
426.756	2485.04
426.964	2413.36
427.171	2538.29
427.379	2636.59
427.586	2743.08
427.794	2900.78
428.001	3070.76
428.209	3048.23
428.417	2947.88
428.624	3218.21
428.832	3246.88
429.039	3293.99
429.247	3265.32
429.454	3402.53
429.662	3750.68
429.869	3625.76
430.076	3752.73
430.284	3793.69
430.491	3846.94
430.699	4051.74
430.906	4016.92
431.114	4039.45
431.321	4199.19
431.528	4287.25
431.736	4567.82
431.943	4840.2
432.15	4508.43
432.358	4619.02
432.565	5020.42
432.772	4991.75
432.979	5233.41
433.187	5313.28
433.394	5309.19
433.601	5731.07
433.808	5769.98
434.016	5726.97
434.223	6126.33
434.43	6247.16
434.637	6023.93
434.844	6556.4
435.052	6542.07
435.259	6675.18
435.466	6730.48
435.673	6748.91
435.88	7086.83
436.087	7430.88
436.294	7367.4
436.501	7351.01
436.708	7467.75
436.915	7699.17
437.122	7912.16
437.329	8014.56
437.537	8274.65
437.743	8315.61
437.95	8180.44
438.157	8837.84
438.364	8997.58
438.571	9065.16
438.778	9128.65
438.985	9917.12
439.192	9487.04
439.399	9732.8
439.606	9632.45
439.813	10244.79
440.02	10678.96
440.227	10562.23
440.433	10629.81
440.64	10668.72
440.847	10914.48
441.054	11180.71
441.261	11887.26
441.467	11666.08
441.674	12024.48
441.881	12454.55
442.088	12120.73
442.294	12055.2
442.501	12427.93
442.708	12632.72
442.914	13415.05
443.121	13816.45
443.328	13478.54
443.534	14373.5
443.741	14097.02
443.948	13744.77
444.154	14885.49
444.361	14930.55
444.568	14991.98
444.774	14998.13
444.981	15034.99
445.187	15542.89
445.394	16202.33
445.6	16130.66
445.807	17523.27
446.013	16648.79
446.22	16876.12
446.426	17429.07
446.633	17543.75
446.839	18508.35
447.046	17644.1
447.252	18651.7
447.459	18618.94
447.665	18500.16
447.871	19180.08
448.078	20263.46
448.284	19358.25
448.491	19649.07
448.697	20412.96
448.903	21068.31
449.11	21010.96
449.316	20775.45
449.522	21139.99
449.728	21584.4
449.935	21690.89
450.141	21506.57
450.347	22278.66
450.553	21651.98
450.76	21746.19
450.966	22628.86
451.172	22368.77
451.378	22798.84
451.584	22485.5
451.791	23024.12
451.997	23149.04
452.203	23716.33
452.409	23151.09
452.615	23020.02
452.821	22211.07
453.027	21836.3
453.233	23296.5
453.44	22495.74
453.646	22757.88
453.852	22403.58
454.058	23157.24
454.264	22243.84
454.47	22993.4
454.676	22391.3
454.882	23155.19
455.088	21133.84
455.294	21350.93
455.5	21875.21
455.705	22067.72
455.911	20869.65
456.117	20664.86
456.323	20328.99
456.529	19292.72
456.735	20173.35
456.941	19524.14
457.147	19356.21
457.352	18727.48
457.558	18491.96
457.764	18197.06
457.97	18182.72
458.176	17914.44
458.381	17867.33
458.587	16841.3
458.793	16945.75
458.999	16165.47
459.204	17017.43
459.41	16767.57
459.616	15829.6
459.821	15583.85
460.027	15620.71
460.233	15272.56
460.438	14355.07
460.644	14697.08
460.85	14060.16
461.055	13757.06
461.261	13824.64
461.466	12565.14
461.672	12419.74
461.878	13392.52
462.083	12382.87
462.289	12192.41
462.494	12001.95
462.7	11463.33
462.905	11233.96
463.111	11551.4
463.316	11588.26
463.522	11412.14
463.727	11414.18
463.932	11387.56
464.138	11164.33
464.343	10980.01
464.549	10951.34
464.754	11035.31
464.959	11166.38
465.165	11221.67
465.37	10644.15
465.575	10494.65
465.781	10533.56
465.986	10709.68
466.191	10513.08
466.397	10369.72
466.602	9693.89
466.807	10107.58
467.012	10095.29
467.218	10107.58
467.423	9931.45
467.628	10072.76
467.833	10373.82
468.038	9976.51
468.244	9935.55
468.449	10037.95
468.654	9845.44
468.859	9792.19
469.064	9691.84
469.269	9353.93
469.474	9417.41
469.679	9624.26
469.885	9423.56
470.09	9382.6
470.295	9581.25
470.5	9157.32
470.705	9138.89
470.91	8708.82
471.115	8966.86
471.32	9126.6
471.525	8983.24
471.73	8807.12
471.935	8508.12
472.139	8364.76
472.344	8491.73
472.549	8590.03
472.754	8256.22
472.959	8268.5
473.164	8037.08
473.369	7957.21
473.574	8162.01
473.778	8147.67
473.983	8088.28
474.188	8016.6
474.393	7621.35
474.598	7676.64
474.802	7670.5
475.007	7547.62
475.212	7625.44
475.417	7336.68
475.621	7189.22
475.826	7271.14
476.031	7017.19
476.235	7066.35
476.44	7277.29
476.645	6920.94
476.849	7066.35
477.054	6796.01
477.259	6810.35
477.463	6875.88
477.668	6730.48
477.872	6736.62
478.077	6486.77
478.282	6519.54
478.486	6505.2
478.691	6408.95
478.895	6486.77
479.1	6353.65
479.304	6406.9
479.509	6144.76
479.713	6288.12
479.918	6107.9
480.122	6038.27
480.326	6052.6
480.531	6109.94
480.735	6046.46
480.94	5878.52
481.144	6007.55
481.348	5864.19
481.553	6003.45
481.757	5812.99
481.961	6009.59
482.166	5970.68
482.37	5810.94
482.574	5749.5
482.778	5851.9
482.983	5870.33
483.187	5950.2
483.391	5868.28
483.595	5796.6
483.8	5466.88
484.004	5806.84
484.208	5939.96
484.412	5876.48
484.616	5853.95
484.821	5884.67
485.025	5718.78
485.229	5950.2
485.433	5710.59
485.637	5872.38
485.841	5749.5
486.045	5790.46
486.249	5944.06
486.453	5812.99
486.657	5714.69
486.861	5817.08
487.065	5729.02
487.269	5620.48
487.473	5794.56
487.677	5856
487.881	5817.08
488.085	5761.79
488.289	5761.79
488.493	5751.55
488.697	5911.29
488.901	5823.23
489.105	5677.82
489.309	5927.67
489.512	5679.87
489.716	5868.28
489.92	5905.15
490.124	5835.52
490.328	5833.47
490.531	5872.38
490.735	6019.83
490.939	5985.02
491.143	5880.57
491.346	5995.26
491.55	6034.17
491.754	6107.9
491.958	5964.54
492.161	5985.02
492.365	6077.18
492.569	5989.11
492.772	6042.36
492.976	6120.18
493.18	6228.73
493.383	6185.72
493.587	6259.45
493.79	6255.35
493.994	6392.56
494.197	6367.99
494.401	6458.1
494.605	6562.55
494.808	6302.45
495.012	6599.41
495.215	6568.69
495.419	6697.71
495.622	6634.22
495.825	6697.71
496.029	6691.57
496.232	6892.27
496.436	6851.31
496.639	7074.54
496.843	6863.6
497.046	7127.78
497.249	7203.56
497.453	7355.11
497.656	7248.61
497.859	7226.09
498.063	7414.5
498.266	7684.83
498.469	7451.36
498.673	7705.31
498.876	7758.56
499.079	7805.66
499.282	7752.42
499.485	8094.43
499.689	8108.76
499.892	8028.89
500.095	8114.91
500.298	8418
500.501	8202.97
500.705	8483.54
500.908	8348.37
501.111	8708.82
501.314	8606.42
501.517	8803.02
501.72	9056.97
501.923	8991.44
502.126	9099.98
502.329	9192.14
502.532	9210.57
502.735	9241.29
502.938	9521.86
503.141	9462.47
503.344	9724.61
503.547	9755.33
503.75	9648.83
503.953	9978.56
504.156	10193.59
504.359	10169.02
504.562	10209.98
504.765	10412.73
504.968	10570.42
505.17	10681.01
505.373	10601.14
505.576	11100.84
505.779	10926.77
505.982	10990.25
506.185	11285.16
506.387	11231.91
506.59	11385.51
506.793	11743.91
506.996	11408.04
507.198	11772.58
507.401	11737.76
507.604	12079.77
507.807	11987.61
508.009	12298.91
508.212	12647.06
508.415	12405.4
508.617	12589.72
508.82	12788.37
509.022	12640.92
509.225	13286.03
509.428	13148.81
509.63	13226.64
509.833	13161.1
510.035	13488.78
510.238	13742.72
510.44	13857.41
510.643	14017.15
510.845	14213.76
511.048	14183.04
511.25	14187.13
511.453	14383.74
511.655	14932.59
511.858	14498.42
512.06	14901.87
512.262	15092.34
512.465	14971.5
512.667	15229.55
512.87	15311.47
513.072	15415.91
513.274	15770.21
513.477	15911.52
513.679	15913.57
513.881	16298.59
514.084	16536.15
514.286	16677.46
514.488	16687.7
514.69	16958.03
514.893	16996.95
515.095	17068.62
515.297	17308.24
515.499	17445.45
515.701	17672.78
515.904	17879.62
516.106	18041.41
516.308	18268.73
516.51	18172.48
516.712	18010.69
516.914	18207.3
517.116	18698.81
517.318	18981.43
517.52	19073.59
517.722	19311.15
517.925	19616.3
518.127	19356.21
518.329	19948.07
518.531	19538.48
518.733	20308.51
518.935	20337.18
519.136	20312.61
519.338	20779.54
519.54	21037.59
519.742	20836.89
519.944	21264.91
520.146	21363.22
520.348	21404.17
520.55	21533.2
520.752	21699.08
520.954	22176.26
521.155	22022.66
521.357	22618.62
521.559	22622.72
521.761	22866.42
521.963	22536.7
522.164	23319.03
522.366	23214.58
522.568	23501.29
522.77	23443.95
522.971	23628.27
523.173	23458.29
523.375	24162.79
523.576	23863.79
523.778	24347.11
523.98	24699.36
524.181	24824.28
524.383	24824.28
524.584	25188.82
524.786	25274.84
524.988	25086.42
525.189	25502.16
525.391	25405.91
525.592	25653.71
525.794	25938.38
525.995	26114.5
526.197	25878.99
526.398	26235.33
526.6	26173.89
526.801	26255.81
527.003	26702.27
527.204	26685.89
527.406	26782.14
527.607	26798.52
527.808	27109.82
528.01	26395.07
528.211	26976.7
528.412	27290.04
528.614	27464.11
528.815	27261.37
529.016	27918.76
529.218	27273.65
529.419	27779.5
529.62	27681.2
529.822	27605.42
530.023	27851.18
530.224	27812.27
530.425	28205.48
530.626	27726.25
530.828	27820.46
531.029	28451.24
531.23	28262.82
531.431	28266.92
531.632	28141.99
531.833	28510.63
532.035	28316.07
532.236	28494.24
532.437	28445.09
532.638	28385.7
532.839	28578.21
533.04	28813.73
533.241	28357.03
533.442	28946.84
533.643	28656.03
533.844	28520.87
534.045	28770.72
534.246	28670.37
534.447	29047.19
534.648	28701.09
534.849	29135.26
535.05	28559.78
535.251	28936.6
535.451	28967.32
535.652	29100.44
535.853	29018.52
536.054	29163.93
536.255	29120.92
536.456	29127.06
536.657	29604.24
536.857	29102.49
537.058	28948.89
537.259	29321.62
537.46	29063.58
537.66	28985.76
537.861	28971.42
538.062	29075.87
538.263	29356.44
538.463	29153.69
538.664	29090.2
538.865	29133.21
539.065	29157.78
539.266	28952.99
539.466	29092.25
539.667	28971.42
539.868	29467.03
540.068	29297.05
540.269	28924.32
540.469	29473.17
540.67	29094.3
540.87	28955.04
541.071	29004.19
541.271	29434.26
541.472	29243.8
541.672	28948.89
541.873	28981.66
542.073	29061.53
542.274	29348.25
542.474	28971.42
542.675	28787.1
542.875	28879.26
543.075	29129.11
543.276	28815.77
543.476	29059.48
543.676	28699.04
543.877	28991.9
544.077	28955.04
544.277	29305.24
544.478	28787.1
544.678	29153.69
544.878	29223.32
545.078	29137.3
545.279	29069.72
545.479	28541.35
545.679	29266.33
545.879	28985.76
546.079	28983.71
546.28	29096.35
546.48	28455.33
546.68	29075.87
546.88	28995.99
547.08	28909.98
547.28	28891.55
547.48	29002.14
547.68	28582.31
547.88	28836.25
548.081	29034.91
548.281	28764.57
548.481	28832.16
548.681	28811.68
548.881	29206.94
549.081	28848.54
549.28	28893.6
549.48	29223.32
549.68	28770.72
549.88	29411.73
550.08	28942.75
550.28	28944.8
550.48	28565.92
550.68	29063.58
550.88	28957.08
551.08	28565.92
551.279	28905.88
551.479	28666.27
551.679	29090.2
551.879	28617.12
552.079	28963.23
552.278	28791.2
552.478	28676.51
552.678	28498.34
552.878	28481.95
553.077	28729.76
553.277	28307.88
553.477	28557.73
553.676	28541.35
553.876	28156.33
554.076	28520.87
554.275	28203.43
554.475	28397.99
554.674	28707.23
554.874	28529.06
555.074	28455.33
555.273	28938.65
555.473	28690.85
555.672	28254.63
555.872	28223.91
556.071	28430.76
556.271	28299.69
556.47	28410.28
556.67	27947.43
556.869	28109.22
557.068	28049.83
557.268	27740.59
557.467	28260.77
557.667	28277.16
557.866	28225.96
558.065	27857.32
558.265	27830.7
558.464	27687.34
558.663	28115.37
558.863	27564.46
559.062	28318.12
559.261	27345.33
559.461	28084.65
559.66	27466.16
559.859	27527.6
560.058	27173.3
560.258	27642.29
560.457	27451.83
560.656	27503.03
560.855	27173.3
561.054	27543.99
561.253	27126.2
561.453	27115.96
561.652	27341.24
561.851	27386.29
562.05	26835.39
562.249	26823.1
562.448	27287.99
562.647	26927.55
562.846	27130.3
563.045	26796.48
563.244	26673.6
563.443	27124.15
563.642	26597.82
563.841	26528.19
564.04	26460.61
564.239	26784.19
564.438	25960.91
564.637	26520
564.836	26681.79
565.035	25969.1
565.234	26147.27
565.432	25993.67
565.631	26061.26
565.83	26114.5
566.029	25811.4
566.228	25870.79
566.427	25577.94
566.625	25457.1
566.824	25397.71
567.023	25643.47
567.222	25274.84
567.42	25577.94
567.619	25176.53
567.818	25035.22
568.016	25182.68
568.215	25407.95
568.414	25082.33
568.612	25162.2
568.811	25035.22
569.01	25199.06
569.208	24672.73
569.407	24986.07
569.605	24316.39
569.804	24799.71
570.002	24295.91
570.201	24467.94
570.4	24685.02
570.598	24199.65
570.797	24148.45
570.995	24246.76
571.193	23990.76
571.392	24197.6
571.59	23898.6
571.789	24023.53
571.987	23869.93
572.186	23798.25
572.384	23550.45
572.582	23800.3
572.781	23730.67
572.979	23536.11
573.177	23374.32
573.376	23400.94
573.574	23249.39
573.772	23251.44
573.971	23118.32
574.169	23052.79
574.367	23355.89
574.565	22825.47
574.763	22741.5
574.962	22643.2
575.16	22571.52
575.358	22710.78
575.556	22340.1
575.754	22802.94
575.952	22620.67
576.151	22270.47
576.349	22362.62
576.547	22227.46
576.745	22315.52
576.943	21977.61
577.141	21867.02
577.339	22034.95
577.537	21742.09
577.735	21905.93
577.933	22071.81
578.131	21733.9
578.329	21699.08
578.527	21465.61
578.725	21312.02
578.923	21320.21
579.121	21441.04
579.319	21207.57
579.516	21686.79
579.714	21226
579.912	20976.15
580.11	21123.6
580.308	21283.34
580.506	20978.2
580.704	20902.42
580.901	20724.25
581.099	21164.56
581.297	20722.2
581.495	20587.04
581.692	20683.29
581.89	20742.68
582.088	20740.63
582.285	20486.68
582.483	20818.46
582.681	20363.81
582.878	20263.46
583.076	20103.71
583.274	20285.98
583.471	20183.59
583.669	20273.7
583.866	20085.28
584.064	20058.66
584.262	19880.49
584.459	20073
584.657	20032.04
584.854	19968.55
585.052	19716.65
585.249	19870.25
585.447	19773.99
585.644	19431.98
585.841	19589.67
586.039	19610.15
586.236	19165.74
586.434	19317.29
586.631	19110.45
586.828	19206.7
587.026	19474.99
587.223	19192.37
587.42	19098.16
587.618	19018.29
587.815	18690.62
588.012	18915.89
588.21	18801.21
588.407	19003.96
588.604	18612.79
588.801	18541.11
588.999	18717.24
589.196	18713.14
589.393	18684.47
589.59	18405.95
589.787	18211.39
589.984	18299.45
590.182	18205.25
590.379	18266.69
590.576	18127.42
590.773	18297.41
590.97	17971.78
591.167	17998.4
591.364	17748.55
591.561	17979.97
591.758	17898.05
591.955	17744.45
592.152	17975.88
592.349	17820.23
592.546	17766.98
592.743	17558.09
592.94	17343.05
593.137	17816.13
593.334	17660.49
593.531	17232.46
593.727	17519.18
593.924	17324.62
594.121	17334.86
594.318	17269.33
594.515	16849.49
594.712	17164.88
594.908	16794.2
595.105	17052.24
595.302	16853.59
595.499	17050.19
595.696	16794.2
595.892	16743
596.089	16851.54
596.286	16829.01
596.482	16759.38
596.679	16585.3
596.876	16636.5
597.072	16382.56
597.269	16636.5
597.466	16351.84
597.662	16292.44
597.859	16417.37
598.055	16421.47
598.252	16188
598.448	16368.22
598.645	15944.29
598.841	16020.06
599.038	16118.37
599.234	16149.09
599.431	15874.66
599.627	15964.77
599.824	15825.51
600.02	15688.29
600.217	15921.76
600.413	15676.01
600.609	15594.09
600.806	15579.75
601.002	15530.6
601.198	15442.54
601.395	15745.64
601.591	15266.41
601.787	15372.91
601.984	15350.38
602.18	15522.41
602.376	14977.65
602.572	15159.92
602.769	15340.14
602.965	14842.48
603.161	14916.21
603.357	14969.46
603.553	14959.22
603.75	15080.05
603.946	14922.35
604.142	14971.5
604.338	14658.17
604.534	14838.39
604.73	14686.84
604.926	14361.21
605.122	14602.87
605.318	14543.48
605.514	14316.15
605.71	14305.92
605.906	14359.16
606.102	14389.88
606.298	14105.21
606.494	14273.15
606.69	14187.13
606.886	14465.66
607.082	14047.87
607.278	14277.24
607.474	13836.93
607.67	14207.61
607.866	13931.14
608.062	14041.73
608.257	13877.89
608.453	14086.78
608.649	13961.86
608.845	13890.18
609.041	13779.59
609.236	13793.92
609.432	13658.76
609.628	13707.91
609.824	13392.52
610.019	13841.03
610.215	13681.28
610.411	13750.92
610.606	13597.32
610.802	13494.92
610.998	13609.61
611.193	13568.65
611.389	13386.38
611.584	13359.75
611.78	13177.48
611.976	13339.27
612.171	13298.31
612.367	13374.09
612.562	13236.88
612.758	13146.76
612.953	13114
613.149	13257.36
613.344	13081.23
613.539	13216.4
613.735	13218.44
613.93	13044.37
614.126	13089.42
614.321	13236.88
614.517	12970.64
614.712	12882.58
614.907	12886.67
615.103	12847.76
615.298	12911.25
615.493	12778.13
615.688	12673.68
615.884	13054.61
616.079	12694.16
616.274	12737.17
616.47	12776.08
616.665	12913.3
616.86	12739.22
617.055	12456.6
617.25	12655.25
617.445	12763.79
617.641	12546.71
617.836	12489.37
618.031	12255.9
618.226	12526.23
618.421	12464.79
618.616	12505.75
618.811	12286.62
619.006	12653.2
619.201	12202.65
619.396	12235.42
619.591	11969.18
619.786	11963.04
619.981	11836.06
620.176	12368.54
620.371	12077.73
620.566	11997.85
620.761	11868.83
620.956	12042.91
621.151	11760.29
621.346	11612.84
621.541	11608.74
621.735	11639.46
621.93	11530.92
622.125	11553.45
622.32	11422.38
622.515	11555.49
622.709	11272.87
622.904	11242.15
623.099	11334.31
623.294	11100.84
623.488	11166.38
623.683	11002.54
623.878	10781.36
624.072	11047.6
624.267	10904.24
624.462	10914.48
624.656	10793.65
624.851	10668.72
625.046	10771.12
625.24	10627.76
625.435	10404.53
625.629	10441.4
625.824	10521.27
626.018	10281.66
626.213	10347.19
626.407	10269.37
626.602	10166.97
626.796	10162.87
626.991	10275.51
627.185	10156.73
627.38	9870.01
627.574	9675.46
627.768	9929.41
627.963	9929.41
628.157	9654.98
628.352	9843.39
628.546	9579.2
628.74	9599.68
628.935	9460.42
629.129	9616.07
629.323	9396.93
629.517	9323.21
629.712	9347.78
629.906	9437.89
630.1	9376.45
630.294	9308.87
630.489	8946.38
630.683	9200.33
630.877	9085.64
631.071	9028.3
631.265	9044.68
631.459	9050.83
631.653	8704.72
631.848	8725.2
632.042	8803.02
632.236	8815.31
632.43	8639.19
632.624	8841.93
632.818	8651.47
633.012	8495.83
633.206	8540.88
633.4	8526.55
633.594	8331.99
633.788	8499.92
633.982	8473.3
634.176	8268.5
634.369	8116.95
634.563	8303.32
634.757	8276.7
634.951	8231.64
635.145	8209.11
635.339	8196.82
635.533	8059.61
635.726	7983.84
635.92	7875.29
636.114	7951.07
636.308	7930.59
636.501	7875.29
636.695	7688.93
636.889	7652.06
637.083	7830.24
637.276	7652.06
637.47	7668.45
637.664	7400.16
637.857	7586.53
638.051	7445.22
638.244	7428.84
638.438	7361.25
638.632	7428.84
638.825	7324.39
639.019	7334.63
639.212	7168.74
639.406	7205.61
639.599	7068.39
639.793	7043.82
639.986	7023.34
640.18	7133.93
640.373	7205.61
640.567	6972.14
640.76	6925.04
640.954	6812.4
641.147	6712.05
641.34	6851.31
641.534	6945.52
641.727	6789.87
641.92	6787.82
642.114	6531.83
642.307	6703.86
642.5	6716.14
642.694	6505.2
642.887	6599.41
643.08	6544.11
643.273	6406.9
643.467	6458.1
643.66	6449.91
643.853	6417.14
644.046	6136.57
644.239	6322.93
644.432	6294.26
644.626	6144.76
644.819	6042.36
645.012	6228.73
645.205	6161.14
645.398	6148.86
645.591	6017.79
645.784	6138.62
645.977	6105.85
646.17	6120.18
646.363	6087.42
646.556	5802.75
646.749	5862.14
646.942	5886.72
647.135	5804.8
647.328	5690.11
647.521	5741.31
647.714	5634.82
647.907	5737.21
648.099	5726.97
648.292	5751.55
648.485	5565.18
648.678	5702.4
648.871	5452.55
649.064	5575.42
649.256	5450.5
649.449	5540.61
649.642	5546.75
649.835	5419.78
650.027	5503.75
650.22	5458.69
650.413	5362.44
650.605	5358.34
650.798	5481.22
650.991	5268.23
651.183	5413.63
651.376	5151.49
651.568	5104.39
651.761	5110.54
651.954	5106.44
652.146	5147.4
652.339	4946.7
652.531	5098.25
652.724	4870.92
652.916	4862.73
653.109	4879.11
653.301	4893.45
653.494	4985.61
653.686	4797.2
653.879	4979.47
654.071	4727.57
654.263	4657.93
654.456	4868.88
654.648	4760.33
654.84	4791.05
655.033	4549.39
655.225	4727.57
655.417	4475.67
655.61	4621.07
655.802	4666.13
655.994	4586.26
656.186	4592.4
656.379	4496.14
656.571	4406.03
656.763	4518.67
656.955	4539.15
657.148	4508.43
657.34	4422.42
657.532	4301.59
657.724	4270.87
657.916	4414.23
658.108	4479.76
658.3	4350.74
658.492	4346.64
658.684	4180.76
658.876	4283.16
659.068	4207.38
659.26	4156.18
659.452	4139.8
659.644	4135.7
659.836	3996.44
660.028	4150.04
660.22	4051.74
660.412	4168.47
660.604	4133.65
660.796	4010.78
660.988	4029.21
661.18	4092.69
661.372	4041.5
661.563	3992.34
661.755	3930.91
661.947	4027.16
662.139	3928.86
662.331	3879.71
662.522	3826.46
662.714	3664.67
662.906	3777.31
663.097	3822.36
663.289	3767.07
663.481	3578.65
663.673	3820.32
663.864	3814.17
664.056	3789.6
664.247	3699.48
664.439	3711.77
664.631	3619.61
664.822	3646.24
665.014	3695.39
665.205	3545.89
665.397	3556.13
665.588	3588.89
665.78	3554.08
665.971	3734.3
666.163	3521.31
666.354	3578.65
666.546	3420.96
666.737	3433.25
666.929	3341.09
667.12	3511.07
667.311	3502.88
667.503	3408.67
667.694	3375.91
667.885	3373.86
668.077	3351.33
668.268	3502.88
668.459	3427.11
668.651	3412.77
668.842	3189.54
669.033	3283.75
669.224	3185.44
669.416	3457.82
669.607	3347.23
669.798	3361.57
669.989	3281.7
670.18	3183.4
670.371	3332.9
670.563	3205.92
670.754	3349.28
670.945	3187.49
671.136	3152.68
671.327	3287.84
671.518	3195.68
671.709	3160.87
671.9	3293.99
672.091	3167.01
672.282	3175.2
672.473	3181.35
672.664	3097.38
672.855	3093.29
673.046	3130.15
673.237	3154.73
673.428	3068.71
673.619	3175.2
673.809	2980.65
674	3099.43
674.191	2951.98
674.382	2902.83
674.573	3173.16
674.764	3150.63
674.954	3035.94
675.145	2999.08
675.336	3060.52
675.527	3017.51
675.717	3132.2
675.908	2947.88
676.099	2982.7
676.289	3144.49
676.48	2956.07
676.671	3021.61
676.861	3017.51
677.052	2839.34
677.243	2880.3
677.433	2839.34
677.624	2923.3
677.814	2927.4
678.005	2947.88
678.195	2902.83
678.386	2931.5
678.576	2994.98
678.767	2923.3
678.957	2872.11
679.148	2913.06
679.338	2935.59
679.529	2964.26
679.719	2923.3
679.909	2915.11
680.1	2820.91
680.29	2814.76
680.481	2888.49
680.671	2861.87
680.861	2927.4
681.052	3021.61
681.242	2945.83
681.432	3033.9
681.622	2814.76
681.813	2880.3
682.003	2911.02
682.193	2870.06
682.383	2902.83
682.573	2804.52
682.764	2876.2
682.954	2966.31
683.144	2806.57
683.334	2769.71
683.524	2749.23
683.714	2808.62
683.904	2718.51
684.094	2870.06
684.284	2806.57
684.474	2829.1
684.664	2790.19
684.854	2841.39
685.044	2695.98
685.234	2695.98
685.424	2730.8
685.614	2763.56
685.804	2788.14
685.994	2759.47
686.184	2843.43
686.374	2741.04
686.564	2726.7
686.753	2646.83
686.943	2620.21
687.133	2642.73
687.323	2718.51
687.513	2634.54
687.702	2624.3
687.892	2728.75
688.082	2665.26
688.272	2577.2
688.461	2605.87
688.651	2734.89
688.841	2562.86
689.03	2497.33
689.22	2546.48
689.41	2607.92
689.599	2480.94
689.789	2560.81
689.979	2532.14
690.168	2530.09
690.358	2519.85
690.547	2560.81
690.737	2487.09
690.926	2548.53
691.116	2427.7
691.305	2501.42
691.495	2452.27
691.684	2413.36
691.874	2450.22
692.063	2437.94
692.252	2454.32
692.442	2368.31
692.631	2417.46
692.82	2341.68
693.01	2364.21
693.199	2323.25
693.388	2399.02
693.578	2421.55
693.767	2247.48
693.956	2347.83
694.146	2337.59
694.335	2399.02
694.524	2329.39
694.713	2370.35
694.902	2280.24
695.092	2235.19
695.281	2323.25
695.47	2274.1
695.659	2169.65
695.848	2220.85
696.037	2241.33
696.226	2321.2
696.415	2181.94
696.604	2353.97
696.793	2278.19
696.982	2192.18
697.171	2249.52
697.36	2263.86
697.549	2231.09
697.738	2218.8
697.927	2183.99
698.116	2147.12
698.305	2130.74
698.494	2227
698.683	2100.02
698.872	2237.24
699.061	2235.19
699.25	2151.22
699.438	2218.8
699.627	2276.15
699.816	2255.67
700.005	2210.61
700.193	2259.76
700.382	2216.76
700.571	2317.11
700.76	2181.94
700.948	2163.51
701.137	2306.87
701.326	2294.58
701.514	2038.58
701.703	2231.09
701.892	2179.89
702.08	2284.34
702.269	2243.38
702.457	2151.22
702.646	2241.33
702.834	2151.22
703.023	2120.5
703.212	2261.81
703.4	2237.24
703.589	2194.23
703.777	2333.49
703.965	2216.76
704.154	2155.32
704.342	2214.71
704.531	2194.23
704.719	2222.9
704.907	2267.95
705.096	2214.71
705.284	2114.36
705.472	2331.44
705.661	2220.85
705.849	2169.65
706.037	2216.76
706.226	2208.56
706.414	2259.76
706.602	2224.95
706.79	2263.86
706.979	2241.33
707.167	2259.76
707.355	2255.67
707.543	2319.15
707.731	2378.55
707.919	2167.6
708.107	2231.09
708.296	2231.09
708.484	2263.86
708.672	2149.17
708.86	2200.37
709.048	2161.46
709.236	2188.08
709.424	2272.05
709.612	2237.24
709.8	2138.93
709.988	2206.52
710.176	2212.66
710.364	2317.11
710.551	2183.99
710.739	2216.76
710.927	2227
711.115	2237.24
711.303	2229.04
711.491	2315.06
711.679	2196.28
711.866	2253.62
712.054	2235.19
712.242	2222.9
712.43	2145.08
712.617	2224.95
712.805	2245.43
712.993	2216.76
713.181	2296.63
713.368	2282.29
713.556	2218.8
713.744	2216.76
713.931	2208.56
714.119	2288.43
714.306	2362.16
714.494	2245.43
714.682	2308.91
714.869	2302.77
715.057	2378.55
715.244	2233.14
715.432	2353.97
715.619	2206.52
715.807	2317.11
715.994	2267.95
716.182	2374.45
716.369	2315.06
716.556	2220.85
716.744	2394.93
716.931	2257.71
717.119	2239.28
717.306	2181.94
717.493	2327.35
717.681	2304.82
717.868	2302.77
718.055	2251.57
718.242	2317.11
718.43	2247.48
718.617	2288.43
718.804	2175.8
718.991	2403.12
719.179	2378.55
719.366	2442.03
719.553	2339.63
719.74	2351.92
719.927	2446.13
720.114	2390.83
720.301	2198.32
720.488	2265.91
720.676	2239.28
720.863	2255.67
721.05	2274.1
721.237	2360.11
721.424	2356.02
721.611	2437.94
721.798	2310.96
721.985	2341.68
722.172	2272.05
722.358	2351.92
722.545	2392.88
722.732	2362.16
722.919	2257.71
723.106	2315.06
723.293	2216.76
723.48	2372.4
723.667	2251.57
723.853	2292.53
724.04	2466.61
724.227	2392.88
724.414	2351.92
724.6	2329.39
724.787	2380.59
724.974	2319.15
725.161	2280.24
725.347	2308.91
725.534	2446.13
725.72	2452.27
725.907	2353.97
726.094	2370.35
726.28	2433.84
726.467	2313.01
726.653	2317.11
726.84	2425.65
727.027	2245.43
727.213	2374.45
727.4	2286.39
727.586	2351.92
727.773	2364.21
727.959	2458.42
728.145	2358.07
728.332	2378.55
728.518	2448.18
728.705	2257.71
728.891	2333.49
729.077	2325.3
729.264	2337.59
729.45	2392.88
729.636	2480.94
729.823	2464.56
730.009	2386.74
730.195	2419.5
730.382	2259.76
730.568	2245.43
730.754	2552.62
730.94	2513.71
731.126	2491.18
731.313	2480.94
731.499	2380.59
731.685	2528.05
731.871	2399.02
732.057	2380.59
732.243	2388.78
732.429	2427.7
732.615	2487.09
732.801	2407.22
732.987	2366.26
733.173	2360.11
733.359	2417.46
733.545	2382.64
733.731	2308.91
733.917	2466.61
734.103	2478.9
734.289	2341.68
734.475	2343.73
734.661	2519.85
734.847	2345.78
735.033	2358.07
735.219	2437.94
735.404	2515.76
735.59	2370.35
735.776	2417.46
735.962	2415.41
736.148	2415.41
736.333	2427.7
736.519	2442.03
736.705	2405.17
736.89	2466.61
737.076	2460.46
737.262	2200.37
737.447	2282.29
737.633	2362.16
737.819	2315.06
738.004	2546.48
738.19	2270
738.375	2425.65
738.561	2331.44
738.747	2321.2
738.932	2310.96
739.118	2407.22
739.303	2306.87
739.489	2439.98
739.674	2259.76
739.859	2372.4
740.045	2423.6
740.23	2300.72
740.416	2323.25
740.601	2278.19
740.786	2396.98
740.972	2339.63
741.157	2259.76
741.342	2282.29
741.528	2296.63
741.713	2337.59
741.898	2317.11
742.084	2327.35
742.269	2358.07
742.454	2308.91
742.639	2317.11
742.824	2329.39
743.01	2302.77
743.195	2290.48
743.38	2194.23
743.565	2251.57
743.75	2267.95
743.935	2218.8
744.12	2214.71
744.305	2059.06
744.49	2173.75
744.675	2149.17
744.86	2214.71
745.045	2194.23
745.23	2177.84
745.415	2143.03
745.6	2149.17
745.785	2169.65
745.97	2130.74
746.155	2077.49
746.34	2122.55
746.525	2110.26
746.71	2100.02
746.895	2071.35
747.079	2124.6
747.264	2038.58
747.449	1995.57
747.634	1964.86
747.819	1958.71
748.003	1956.66
748.188	2059.06
748.373	2022.2
748.557	2046.77
748.742	2014.01
748.927	2024.25
749.111	1971
749.296	1903.42
749.481	1876.79
749.665	1917.75
749.85	1862.46
750.034	1909.56
750.219	1819.45
750.404	1893.18
750.588	1796.92
750.773	1901.37
750.957	1819.45
751.141	1678.14
751.326	1862.46
751.51	1801.02
751.695	1833.79
751.879	1749.82
752.064	1725.24
752.248	1768.25
752.432	1708.86
752.617	1686.33
752.801	1760.06
752.985	1678.14
753.17	1663.8
753.354	1637.18
753.538	1657.66
753.722	1657.66
753.907	1608.51
754.091	1641.28
754.275	1610.56
754.459	1489.73
754.643	1590.08
754.828	1516.35
755.012	1631.04
755.196	1622.84
755.38	1502.01
755.564	1491.77
755.748	1422.14
755.932	1522.49
756.116	1510.21
756.3	1485.63
756.484	1452.86
756.668	1409.86
756.852	1393.47
757.036	1604.41
757.22	1418.05
757.404	1329.99
757.588	1409.86
757.772	1432.38
757.956	1381.18
758.14	1456.96
758.323	1313.6
758.507	1379.14
758.691	1323.84
758.875	1358.66
759.059	1383.23
759.242	1334.08
759.426	1329.99
759.61	1340.22
759.794	1276.74
759.977	1332.03
760.161	1420.1
760.345	1237.83
760.528	1229.63
760.712	1254.21
760.895	1282.88
761.079	1311.55
761.263	1231.68
761.446	1194.82
761.63	1211.2
761.813	1196.87
761.997	1168.2
762.18	1203.01
762.364	1260.35
762.547	1243.97
762.731	1157.96
762.914	1131.33
763.098	1192.77
763.281	1092.42
763.464	1155.91
763.648	1108.8
763.831	1172.29
764.015	1098.56
764.198	1121.09
764.381	1125.19
764.564	1125.19
764.748	1162.05
764.931	1106.76
765.114	1065.8
765.297	1155.91
765.481	1092.42
765.664	1084.23
765.847	1155.91
766.03	1104.71
766.213	1035.08
766.397	1086.28
766.58	1076.04
766.763	1106.76
766.946	1053.51
767.129	996.17
767.312	1102.66
767.495	934.73
767.678	1008.45
767.861	983.88
768.044	1123.14
768.227	1010.5
768.41	969.54
768.593	1018.69
768.776	1030.98
768.959	1004.36
769.142	1022.79
769.324	1037.13
769.507	908.1
769.69	965.45
769.873	969.54
770.056	957.25
770.239	918.34
770.421	987.97
770.604	951.11
770.787	1016.65
770.97	955.21
771.152	912.2
771.335	1039.17
771.518	844.62
771.7	926.54
771.883	996.17
772.066	940.87
772.248	908.1
772.431	938.82
772.613	863.05
772.796	912.2
772.978	871.24
773.161	897.86
773.343	842.57
773.526	881.48
773.708	817.99
773.891	797.51
774.073	820.04
774.256	797.51
774.438	830.28
774.621	830.28
774.803	793.42
774.985	809.8
775.168	799.56
775.35	822.09
775.532	834.38
775.715	740.17
775.897	772.94
776.079	729.93
776.261	752.46
776.444	762.7
776.626	688.97
776.808	774.99
776.99	752.46
777.173	693.07
777.355	717.64
777.537	682.83
777.719	758.6
777.901	721.74
778.083	703.31
778.265	652.11
778.447	709.45
778.629	705.35
778.811	744.27
778.993	629.58
779.175	721.74
779.357	658.25
779.539	553.8
779.721	654.16
779.903	648.01
780.085	658.25
780.267	549.71
780.449	613.2
780.631	668.49
780.812	668.49
780.994	613.2
781.176	672.59
781.358	527.18
781.54	578.38
781.721	576.33
781.903	516.94
782.085	637.77
782.267	588.62
782.448	568.14
782.63	537.42
782.812	600.91
782.993	588.62
783.175	609.1
783.357	445.26
783.538	494.41
783.72	531.28
783.901	496.46
784.083	594.76
784.264	482.13
784.446	396.11
784.627	504.65
784.809	449.36
784.99	482.13
785.172	504.65
785.353	465.74
785.535	453.45
785.716	506.7
785.897	349.01
786.079	488.27
786.26	467.79
786.441	539.47
786.623	408.4
786.804	500.56
786.985	410.45
787.167	490.32
787.348	480.08
787.529	480.08
787.71	398.16
787.891	418.64
788.073	435.02
788.254	439.12
788.435	500.56
788.616	469.84
788.797	359.25
788.978	418.64
789.159	424.78
789.34	424.78
789.522	412.5
789.703	475.98
789.884	408.4
790.065	426.83
790.246	346.96
790.427	437.07
790.607	387.92
790.788	349.01
790.969	418.64
791.15	340.82
791.331	428.88
791.512	394.06
791.693	344.91
791.874	389.97
792.054	334.67
792.235	389.97
792.416	349.01
792.597	357.2
792.778	396.11
792.958	346.96
793.139	357.2
793.32	410.45
793.5	293.71
793.681	326.48
793.862	371.54
794.042	389.97
794.223	254.8
794.404	293.71
794.584	246.61
794.765	299.86
794.945	258.9
795.126	252.75
795.306	326.48
795.487	258.9
795.667	273.23
795.848	281.43
796.028	269.14
796.209	416.59
796.389	351.06
796.57	248.66
796.75	252.75
796.93	330.58
797.111	250.71
797.291	281.43
797.471	297.81
797.652	328.53
797.832	269.14
798.012	328.53
798.192	299.86
798.373	232.27
798.553	222.03
798.733	387.92
798.913	246.61
799.093	299.86
799.274	238.42
799.454	269.14
799.634	271.19
799.814	240.47
799.994	191.31
800.174	236.37
800.354	232.27
800.534	224.08
800.714	262.99
800.894	291.66
801.074	265.04
801.254	242.51
801.434	306
801.614	215.89
801.794	246.61
801.974	629.58
802.154	209.75
802.334	258.9
802.514	285.52
802.693	301.9
802.873	248.66
803.053	242.51
803.233	226.13
803.413	164.69
803.592	240.47
803.772	281.43
803.952	176.98
804.131	236.37
804.311	172.88
804.491	170.83
804.67	187.22
804.85	97.11
805.03	168.79
805.209	242.51
805.389	183.12
805.568	201.55
805.748	226.13
805.928	213.84
806.107	121.68
806.287	156.5
806.466	242.51
806.646	123.73
806.825	248.66
807.004	181.07
807.184	185.17
807.363	244.56
807.543	224.08
807.722	187.22
807.901	246.61
808.081	224.08
808.26	154.45
808.439	195.41
808.619	262.99
808.798	119.64
808.977	191.31
809.156	195.41
809.336	131.92
809.515	174.93
809.694	84.82
809.873	193.36
810.052	174.93
810.231	207.7
810.411	238.42
810.59	219.99
810.769	162.64
810.948	207.7
811.127	152.4
811.306	164.69
811.485	154.45
811.664	215.89
811.843	119.64
812.022	207.7
812.201	127.83
812.38	250.71
812.559	199.51
812.737	195.41
812.916	219.99
813.095	76.63
813.274	174.93
813.453	119.64
813.632	162.64
813.811	152.4
813.989	191.31
814.168	234.32
814.347	203.6
814.526	148.31
814.704	154.45
814.883	152.4
815.062	191.31
815.24	201.55
815.419	72.53
815.598	148.31
815.776	156.5
815.955	121.68
816.133	109.4
816.312	142.16
816.49	123.73
816.669	99.16
816.847	101.2
817.026	150.36
817.204	150.36
817.383	103.25
817.561	183.12
817.74	111.44
817.918	226.13
818.097	164.69
818.275	136.02
818.453	170.83
818.632	183.12
818.81	136.02
818.988	209.75
819.167	82.77
819.345	197.46
819.523	191.31
819.701	111.44
819.879	101.2
820.058	99.16
820.236	195.41
820.414	99.16
820.592	105.3
820.77	113.49
820.948	105.3
821.127	146.26
821.305	72.53
821.483	113.49
821.661	76.63
821.839	150.36
822.017	82.77
822.195	148.31
822.373	199.51
822.551	117.59
822.729	119.64
822.907	101.2
823.085	185.17
823.262	97.11
823.44	90.96
823.618	140.12
823.796	105.3
823.974	90.96
824.152	136.02
824.329	103.25
824.507	47.96
824.685	56.15
824.863	78.68
825.04	138.07
825.218	97.11
825.396	123.73
825.574	52.05
825.751	133.97
825.929	129.88
826.107	23.38
826.284	138.07
826.462	146.26
826.639	47.96
826.817	33.62
826.994	58.2
827.172	50
827.349	144.21
827.527	80.72
827.704	90.96
827.882	99.16
828.059	68.44
828.237	162.64
828.414	176.98
828.591	23.38
828.769	54.1
828.946	60.24
829.124	70.48
829.301	76.63
829.478	88.92
829.655	117.59
829.833	88.92
830.01	76.63
830.187	111.44
830.364	125.78
830.542	68.44
830.719	43.86
830.896	78.68
831.073	109.4
831.25	105.3
831.427	117.59
831.604	45.91
831.782	86.87
831.959	50
832.136	107.35
832.313	99.16
832.49	50
832.667	115.54
832.844	9.05
833.021	113.49
833.198	103.25
833.374	97.11
833.551	119.64
833.728	80.72
833.905	74.58
834.082	29.52
834.259	58.2
834.436	99.16
834.612	43.86
834.789	117.59
834.966	70.48
835.143	70.48
835.319	93.01
835.496	-3.24
835.673	82.77
835.85	88.92
836.026	39.76
836.203	66.39
836.38	86.87
836.556	64.34
836.733	54.1
836.909	150.36
837.086	47.96
837.262	13.14
837.439	97.11
837.616	88.92
837.792	82.77
837.968	54.1
838.145	41.81
838.321	90.96
838.498	31.57
838.674	93.01
838.851	50
839.027	86.87
839.203	17.24
839.38	119.64
839.556	56.15
839.732	50
839.909	11.09
840.085	95.06
840.261	78.68
840.437	62.29
840.614	95.06
840.79	64.34
840.966	99.16
841.142	72.53
841.318	37.72
841.494	82.77
841.671	7
841.847	4.95
842.023	-7.34
842.199	68.44
842.375	50
842.551	54.1
842.727	50
842.903	101.2
843.079	62.29
843.255	62.29
843.431	9.05
843.607	41.81
843.783	9.05
843.959	37.72
844.134	64.34
844.31	25.43
844.486	13.14
844.662	13.14
844.838	2.9
845.013	54.1
845.189	86.87
845.365	39.76
845.541	23.38
845.716	121.68
845.892	62.29
846.068	9.05
846.244	25.43
846.419	50
846.595	17.24
846.77	105.3
846.946	68.44
847.122	17.24
847.297	-11.43
847.473	76.63
847.648	23.38
847.824	80.72
847.999	41.81
848.175	74.58
848.35	33.62
848.526	45.91
848.701	76.63
848.876	66.39
849.052	52.05
849.227	68.44
849.403	58.2
849.578	13.14
849.753	95.06
849.929	60.24
850.104	27.48
850.279	52.05
850.454	125.78
850.63	19.29
850.805	33.62
850.98	-7.34
851.155	21.33
851.33	-11.43
851.505	4.95
851.681	66.39
851.856	-7.34
852.031	90.96
852.206	7
852.381	-40.11
852.556	78.68
852.731	80.72
852.906	43.86
853.081	70.48
853.256	33.62
853.431	33.62
853.606	-9.39
853.781	66.39
853.956	13.14
854.131	27.48
854.305	60.24
854.48	13.14
854.655	47.96
854.83	-15.53
855.005	19.29
855.18	-15.53
855.354	31.57
855.529	117.59
855.704	25.43
855.879	41.81
856.053	-58.54
856.228	13.14
856.403	-87.21
856.577	0.85
856.752	17.24
856.926	4.95
857.101	76.63
857.276	25.43
857.45	43.86
857.625	50
857.799	50
857.974	-17.58
858.148	27.48
858.323	2.9
858.497	43.86
858.672	4.95
858.846	-68.78
859.02	62.29
859.195	25.43
859.369	21.33
859.543	68.44
859.718	70.48
859.892	31.57
860.066	-1.19
860.241	86.87
860.415	-13.48
860.589	62.29
860.763	19.29
860.938	7
861.112	66.39
861.286	41.81
861.46	-13.48
861.634	52.05
861.808	50
861.982	-11.43
862.157	21.33
862.331	-72.87
862.505	56.15
862.679	41.81
862.853	41.81
863.027	21.33
863.201	13.14
863.375	-19.63
863.549	4.95
863.722	90.96
863.896	-42.15
864.07	43.86
864.244	47.96
864.418	66.39
864.592	27.48
864.766	-7.34
864.939	39.76
865.113	-50.35
865.287	-27.82
865.461	-13.48
865.634	29.52
865.808	33.62
865.982	2.9
866.156	-13.48
866.329	-21.67
866.503	95.06
866.676	56.15
866.85	72.53
867.024	0.85
867.197	35.67
867.371	-9.39
867.544	-38.06
867.718	-74.92
867.891	47.96
868.065	-15.53
868.238	-29.87
868.412	27.48
868.585	37.72
868.759	-29.87
868.932	66.39
869.105	56.15
869.279	-42.15
869.452	29.52
869.625	2.9
869.799	-9.39
869.972	9.05
870.145	-33.96
870.319	-1.19
870.492	-19.63
870.665	-7.34
870.838	0.85
871.011	-5.29
871.185	17.24
871.358	-38.06
871.531	62.29
871.704	-33.96
871.877	-5.29
872.05	9.05
872.223	-13.48
872.396	2.9
872.569	88.92
872.742	17.24
872.915	64.34
873.088	-91.31
873.261	-42.15
873.434	25.43
873.607	11.09
873.78	-11.43
873.953	-31.91
874.126	13.14
874.299	-60.59
874.471	-40.11
874.644	-15.53
874.817	33.62
874.99	47.96
875.163	-54.44
875.335	17.24
875.508	23.38
875.681	25.43
875.853	-31.91
876.026	41.81
876.199	-33.96
876.371	-19.63
876.544	-79.02
876.717	23.38
876.889	-50.35
877.062	31.57
877.234	11.09
877.407	-27.82
877.579	-15.53
877.752	66.39
877.924	60.24
878.097	56.15
878.269	-60.59
878.442	50
878.614	39.76
878.786	41.81
878.959	0.85
879.131	-9.39
879.303	-7.34
879.476	-3.24
879.648	9.05
879.82	25.43
879.993	29.52
880.165	64.34
880.337	105.3
880.509	-46.25
880.681	-81.07
880.854	4.95
881.026	13.14
881.198	33.62
881.37	43.86
881.542	-19.63
881.714	0.85
881.886	45.91
882.058	60.24
882.23	4.95
882.402	9.05
882.574	-9.39
882.746	23.38
882.918	60.24
883.09	11.09
883.262	62.29
883.434	7
883.606	21.33
883.778	-29.87
883.95	66.39
884.122	-60.59
884.293	15.19
884.465	68.44
884.637	45.91
884.809	-15.53
884.98	-36.01
885.152	25.43
885.324	-23.72
885.496	-17.58
885.667	-1.19
885.839	-54.44
886.011	39.76
886.182	-15.53
886.354	-21.67
886.525	-7.34
886.697	66.39
886.869	-1.19
887.04	-40.11
887.212	62.29
887.383	82.77
887.555	-29.87
887.726	-7.34
887.897	-33.96
888.069	-5.29
888.24	31.57
888.412	2.9
888.583	37.72
888.754	4.95
888.926	19.29
889.097	86.87
889.268	-40.11
889.44	-1.19
889.611	-79.02
889.782	-33.96
889.953	25.43
890.125	17.24
890.296	-7.34
890.467	121.68
890.638	-33.96
890.809	9.05
890.98	29.52
891.151	-36.01
891.323	47.96
891.494	25.43
891.665	-25.77
891.836	-42.15
892.007	15.19
892.178	13.14
892.349	-11.43
892.52	43.86
892.691	82.77
892.862	-60.59
893.032	-56.49
893.203	13.14
893.374	2.9
893.545	68.44
893.716	23.38
893.887	82.77
894.057	-66.73
894.228	0.85
894.399	-29.87
894.57	17.24
894.74	35.67
894.911	66.39
895.082	-46.25
895.253	-50.35
895.423	-15.53
895.594	-62.63
895.764	-60.59
895.935	-46.25
896.106	-29.87
896.276	66.39
896.447	-62.63
896.617	-31.91
896.788	13.14
896.958	-36.01
897.129	-7.34
897.299	-42.15
897.47	15.19
897.64	70.48
897.81	-64.68
897.981	-36.01
898.151	-15.53
898.322	-21.67
898.492	15.19
898.662	23.38
898.832	17.24
899.003	-56.49
899.173	27.48
899.343	27.48
899.513	-27.82
