Data from USB4F104151__71__11-45-27-608.txt Node

Date: Fri Mar 14 11:45:27 EDT 2025
User: louis
Spectrometer: USB4F10415
Trigger mode: 4
Integration Time (sec): 2.000000E-2
Scans to average: 1
Electric dark correction enabled: true
Nonlinearity correction enabled: false
Boxcar width: 0
XAxis mode: Wavelengths
Number of Pixels in Spectrum: 3648
>>>>>Begin Spectral Data<<<<<
178.204	-3.58
178.424	-3.58
178.644	-3.58
178.864	-36.35
179.084	-97.79
179.304	23.04
179.524	18.94
179.744	-1.54
179.964	6.66
180.184	2.56
180.404	4.61
180.624	-42.5
180.844	55.81
181.064	29.18
181.283	-32.26
181.503	-99.84
181.723	35.33
181.943	-34.3
182.163	-15.87
182.383	33.28
182.602	90.62
182.822	10.75
183.042	-13.82
183.262	51.71
183.482	12.8
183.701	-5.63
183.921	80.38
184.141	51.71
184.361	33.28
184.58	31.23
184.8	16.9
185.02	53.76
185.239	66.05
185.459	27.14
185.679	82.43
185.898	-1.54
186.118	37.38
186.338	20.99
186.557	10.75
186.777	-7.68
186.997	55.81
187.216	2.56
187.436	16.9
187.655	-15.87
187.875	25.09
188.095	-5.63
188.314	12.8
188.534	41.47
188.753	27.14
188.973	-30.21
189.192	8.7
189.412	-24.06
189.631	39.42
189.851	82.43
190.07	127.49
190.29	14.85
190.509	23.04
190.729	-9.73
190.948	74.24
191.168	12.8
191.387	86.53
191.607	-9.73
191.826	59.9
192.045	2.56
192.265	-5.63
192.484	25.09
192.704	-32.26
192.923	0.51
193.142	72.19
193.362	23.04
193.581	57.86
193.8	16.9
194.02	0.51
194.239	51.71
194.458	70.14
194.678	90.62
194.897	45.57
195.116	70.14
195.335	-7.68
195.555	78.33
195.774	64
195.993	39.42
196.212	-24.06
196.432	23.04
196.651	35.33
196.87	16.9
197.089	59.9
197.308	35.33
197.528	4.61
197.747	37.38
197.966	12.8
198.185	104.96
198.404	-38.4
198.623	33.28
198.842	80.38
199.062	31.23
199.281	162.3
199.5	31.23
199.719	61.95
199.938	55.81
200.157	51.71
200.376	119.29
200.595	-32.26
200.814	10.75
201.033	55.81
201.252	61.95
201.471	78.33
201.69	8.7
201.909	27.14
202.128	59.9
202.347	64
202.566	-77.31
202.785	-24.06
203.004	23.04
203.223	18.94
203.442	59.9
203.661	-42.5
203.879	70.14
204.098	70.14
204.317	-36.35
204.536	98.81
204.755	-28.16
204.974	92.67
205.193	88.57
205.411	131.58
205.63	43.52
205.849	20.99
206.068	76.29
206.287	12.8
206.505	47.62
206.724	39.42
206.943	57.86
207.162	29.18
207.381	2.56
207.599	-13.82
207.818	4.61
208.037	98.81
208.255	-1.54
208.474	8.7
208.693	37.38
208.911	37.38
209.13	27.14
209.349	-15.87
209.567	49.66
209.786	92.67
210.005	66.05
210.223	37.38
210.442	0.51
210.661	23.04
210.879	8.7
211.098	2.56
211.316	41.47
211.535	20.99
211.753	51.71
211.972	90.62
212.191	27.14
212.409	74.24
212.628	12.8
212.846	-11.78
213.065	37.38
213.283	-24.06
213.502	47.62
213.72	33.28
213.938	4.61
214.157	12.8
214.375	39.42
214.594	-1.54
214.812	64
215.031	84.48
215.249	39.42
215.467	43.52
215.686	-5.63
215.904	82.43
216.122	25.09
216.341	78.33
216.559	72.19
216.778	39.42
216.996	88.57
217.214	27.14
217.432	35.33
217.651	-34.3
217.869	45.57
218.087	-17.92
218.306	27.14
218.524	25.09
218.742	35.33
218.96	35.33
219.179	-3.58
219.397	39.42
219.615	100.86
219.833	39.42
220.051	29.18
220.27	107.01
220.488	-15.87
220.706	2.56
220.924	92.67
221.142	51.71
221.36	51.71
221.578	59.9
221.796	-83.45
222.015	35.33
222.233	23.04
222.451	31.23
222.669	76.29
222.887	-7.68
223.105	-5.63
223.323	20.99
223.541	80.38
223.759	51.71
223.977	-1.54
224.195	53.76
224.413	2.56
224.631	35.33
224.849	-13.82
225.067	61.95
225.285	-17.92
225.503	49.66
225.721	-15.87
225.939	33.28
226.157	8.7
226.375	84.48
226.592	-54.78
226.81	84.48
227.028	35.33
227.246	35.33
227.464	25.09
227.682	12.8
227.9	12.8
228.117	51.71
228.335	53.76
228.553	29.18
228.771	-7.68
228.989	57.86
229.206	35.33
229.424	74.24
229.642	-34.3
229.86	51.71
230.077	43.52
230.295	10.75
230.513	70.14
230.731	51.71
230.948	37.38
231.166	18.94
231.384	43.52
231.601	-28.16
231.819	18.94
232.037	16.9
232.254	-42.5
232.472	23.04
232.689	35.33
232.907	43.52
233.125	61.95
233.342	53.76
233.56	53.76
233.777	43.52
233.995	59.9
234.213	109.05
234.43	12.8
234.648	98.81
234.865	35.33
235.083	12.8
235.3	53.76
235.518	49.66
235.735	-5.63
235.953	-3.58
236.17	18.94
236.388	70.14
236.605	31.23
236.822	37.38
237.04	25.09
237.257	33.28
237.475	-77.31
237.692	59.9
237.909	66.05
238.127	25.09
238.344	-3.58
238.562	-40.45
238.779	14.85
238.996	41.47
239.214	4.61
239.431	49.66
239.648	-36.35
239.865	31.23
240.083	14.85
240.3	39.42
240.517	-11.78
240.735	2.56
240.952	61.95
241.169	84.48
241.386	51.71
241.603	-26.11
241.821	-26.11
242.038	35.33
242.255	-11.78
242.472	20.99
242.689	-19.97
242.907	-36.35
243.124	29.18
243.341	-24.06
243.558	20.99
243.775	6.66
243.992	18.94
244.209	66.05
244.426	92.67
244.643	41.47
244.86	35.33
245.078	37.38
245.295	16.9
245.512	-3.58
245.729	68.09
245.946	70.14
246.163	41.47
246.38	-3.58
246.597	2.56
246.814	51.71
247.031	6.66
247.248	49.66
247.464	43.52
247.681	37.38
247.898	45.57
248.115	8.7
248.332	-17.92
248.549	18.94
248.766	111.1
248.983	92.67
249.2	31.23
249.417	14.85
249.633	35.33
249.85	82.43
250.067	18.94
250.284	72.19
250.501	76.29
250.717	125.44
250.934	-54.78
251.151	2.56
251.368	-5.63
251.585	43.52
251.801	29.18
252.018	68.09
252.235	45.57
252.451	8.7
252.668	39.42
252.885	80.38
253.102	107.01
253.318	64
253.535	104.96
253.752	0.51
253.968	12.8
254.185	45.57
254.401	47.62
254.618	76.29
254.835	20.99
255.051	96.77
255.268	64
255.484	55.81
255.701	125.44
255.917	78.33
256.134	6.66
256.351	0.51
256.567	27.14
256.784	55.81
257	41.47
257.217	70.14
257.433	117.25
257.65	31.23
257.866	49.66
258.082	14.85
258.299	33.28
258.515	-24.06
258.732	-34.3
258.948	8.7
259.165	18.94
259.381	-11.78
259.597	45.57
259.814	-3.58
260.03	-15.87
260.246	74.24
260.463	92.67
260.679	35.33
260.895	33.28
261.112	72.19
261.328	-3.58
261.544	150.01
261.761	27.14
261.977	23.04
262.193	27.14
262.409	53.76
262.626	27.14
262.842	80.38
263.058	-5.63
263.274	-11.78
263.49	70.14
263.707	33.28
263.923	16.9
264.139	70.14
264.355	23.04
264.571	61.95
264.787	25.09
265.004	76.29
265.22	-30.21
265.436	18.94
265.652	88.57
265.868	18.94
266.084	76.29
266.3	92.67
266.516	74.24
266.732	64
266.948	53.76
267.164	25.09
267.38	45.57
267.596	20.99
267.812	55.81
268.028	72.19
268.244	16.9
268.46	86.53
268.676	39.42
268.892	27.14
269.108	29.18
269.324	31.23
269.54	76.29
269.756	51.71
269.972	8.7
270.188	57.86
270.403	49.66
270.619	68.09
270.835	92.67
271.051	80.38
271.267	18.94
271.483	47.62
271.698	84.48
271.914	113.15
272.13	33.28
272.346	2.56
272.562	68.09
272.777	-11.78
272.993	59.9
273.209	2.56
273.425	72.19
273.64	-13.82
273.856	43.52
274.072	70.14
274.287	2.56
274.503	-38.4
274.719	74.24
274.934	-5.63
275.15	31.23
275.366	29.18
275.581	10.75
275.797	0.51
276.012	16.9
276.228	2.56
276.444	68.09
276.659	80.38
276.875	-3.58
277.09	59.9
277.306	135.68
277.521	31.23
277.737	88.57
277.952	51.71
278.168	8.7
278.383	-22.02
278.599	37.38
278.814	31.23
279.03	-15.87
279.245	135.68
279.461	45.57
279.676	53.76
279.892	43.52
280.107	-17.92
280.322	-30.21
280.538	33.28
280.753	-3.58
280.969	39.42
281.184	96.77
281.399	92.67
281.615	51.71
281.83	23.04
282.045	2.56
282.26	55.81
282.476	31.23
282.691	16.9
282.906	55.81
283.122	-5.63
283.337	-17.92
283.552	104.96
283.767	41.47
283.983	51.71
284.198	-28.16
284.413	45.57
284.628	27.14
284.843	16.9
285.058	43.52
285.274	-42.5
285.489	-13.82
285.704	-3.58
285.919	35.33
286.134	43.52
286.349	51.71
286.564	45.57
286.779	18.94
286.995	47.62
287.21	29.18
287.425	96.77
287.64	-5.63
287.855	0.51
288.07	6.66
288.285	70.14
288.5	84.48
288.715	68.09
288.93	23.04
289.145	-3.58
289.36	57.86
289.575	35.33
289.79	72.19
290.004	68.09
290.219	39.42
290.434	-56.83
290.649	107.01
290.864	6.66
291.079	41.47
291.294	90.62
291.509	57.86
291.724	61.95
291.938	74.24
292.153	45.57
292.368	41.47
292.583	57.86
292.798	29.18
293.012	37.38
293.227	-30.21
293.442	131.58
293.657	41.47
293.871	55.81
294.086	64
294.301	129.53
294.516	43.52
294.73	8.7
294.945	14.85
295.16	20.99
295.374	72.19
295.589	55.81
295.804	37.38
296.018	55.81
296.233	66.05
296.447	66.05
296.662	59.9
296.877	123.39
297.091	102.91
297.306	72.19
297.52	2.56
297.735	76.29
297.949	14.85
298.164	-11.78
298.378	51.71
298.593	92.67
298.807	18.94
299.022	127.49
299.236	53.76
299.451	51.71
299.665	80.38
299.88	-26.11
300.094	76.29
300.309	109.05
300.523	31.23
300.737	57.86
300.952	23.04
301.166	45.57
301.381	4.61
301.595	49.66
301.809	55.81
302.024	49.66
302.238	0.51
302.452	45.57
302.667	49.66
302.881	43.52
303.095	78.33
303.309	61.95
303.524	12.8
303.738	-17.92
303.952	2.56
304.166	111.1
304.381	-1.54
304.595	137.73
304.809	45.57
305.023	51.71
305.237	27.14
305.452	-1.54
305.666	59.9
305.88	31.23
306.094	16.9
306.308	78.33
306.522	100.86
306.736	59.9
306.95	49.66
307.164	-1.54
307.379	29.18
307.593	8.7
307.807	86.53
308.021	-62.98
308.235	-5.63
308.449	43.52
308.663	61.95
308.877	119.29
309.091	-13.82
309.305	41.47
309.519	47.62
309.733	90.62
309.947	39.42
310.161	55.81
310.374	72.19
310.588	33.28
310.802	-11.78
311.016	16.9
311.23	23.04
311.444	6.66
311.658	35.33
311.872	0.51
312.085	37.38
312.299	14.85
312.513	98.81
312.727	47.62
312.941	35.33
313.154	68.09
313.368	43.52
313.582	29.18
313.796	8.7
314.009	31.23
314.223	25.09
314.437	18.94
314.651	84.48
314.864	0.51
315.078	61.95
315.292	-54.78
315.505	78.33
315.719	-3.58
315.933	14.85
316.146	18.94
316.36	59.9
316.573	78.33
316.787	68.09
317.001	57.86
317.214	-5.63
317.428	6.66
317.641	27.14
317.855	27.14
318.068	92.67
318.282	88.57
318.495	80.38
318.709	78.33
318.922	8.7
319.136	119.29
319.349	39.42
319.563	-1.54
319.776	31.23
319.99	115.2
320.203	6.66
320.417	16.9
320.63	25.09
320.843	100.86
321.057	78.33
321.27	53.76
321.483	33.28
321.697	12.8
321.91	8.7
322.124	70.14
322.337	107.01
322.55	102.91
322.763	61.95
322.977	45.57
323.19	25.09
323.403	31.23
323.617	12.8
323.83	131.58
324.043	2.56
324.256	12.8
324.469	10.75
324.683	55.81
324.896	70.14
325.109	10.75
325.322	47.62
325.535	117.25
325.748	109.05
325.962	57.86
326.175	-15.87
326.388	43.52
326.601	84.48
326.814	-3.58
327.027	57.86
327.24	57.86
327.453	-11.78
327.666	-13.82
327.879	55.81
328.092	20.99
328.305	-19.97
328.518	39.42
328.731	25.09
328.944	76.29
329.157	-28.16
329.37	64
329.583	119.29
329.796	41.47
330.009	-19.97
330.222	41.47
330.435	61.95
330.648	-3.58
330.861	-15.87
331.073	12.8
331.286	14.85
331.499	43.52
331.712	61.95
331.925	10.75
332.138	2.56
332.35	33.28
332.563	64
332.776	45.57
332.989	27.14
333.202	33.28
333.414	-9.73
333.627	94.72
333.84	35.33
334.053	107.01
334.265	55.81
334.478	31.23
334.691	31.23
334.903	6.66
335.116	8.7
335.329	78.33
335.541	29.18
335.754	64
335.966	23.04
336.179	49.66
336.392	8.7
336.604	86.53
336.817	-40.45
337.029	43.52
337.242	0.51
337.454	10.75
337.667	10.75
337.88	100.86
338.092	78.33
338.305	12.8
338.517	53.76
338.729	104.96
338.942	10.75
339.154	82.43
339.367	6.66
339.579	12.8
339.792	-13.82
340.004	33.28
340.217	64
340.429	137.73
340.641	31.23
340.854	-15.87
341.066	0.51
341.278	57.86
341.491	92.67
341.703	49.66
341.915	61.95
342.128	115.2
342.34	70.14
342.552	-13.82
342.764	35.33
342.977	16.9
343.189	78.33
343.401	96.77
343.613	72.19
343.826	61.95
344.038	10.75
344.25	-5.63
344.462	84.48
344.674	12.8
344.886	78.33
345.099	70.14
345.311	8.7
345.523	86.53
345.735	-13.82
345.947	92.67
346.159	35.33
346.371	45.57
346.583	141.82
346.795	51.71
347.007	47.62
347.219	20.99
347.431	12.8
347.643	70.14
347.855	80.38
348.067	0.51
348.279	66.05
348.491	-9.73
348.703	100.86
348.915	2.56
349.127	10.75
349.339	74.24
349.551	8.7
349.763	68.09
349.975	82.43
350.187	8.7
350.399	66.05
350.61	43.52
350.822	-44.54
351.034	51.71
351.246	16.9
351.458	61.95
351.669	86.53
351.881	37.38
352.093	78.33
352.305	72.19
352.517	35.33
352.728	45.57
352.94	64
353.152	90.62
353.363	133.63
353.575	-38.4
353.787	55.81
353.999	88.57
354.21	78.33
354.422	31.23
354.633	78.33
354.845	4.61
355.057	59.9
355.268	86.53
355.48	47.62
355.692	117.25
355.903	47.62
356.115	94.72
356.326	59.9
356.538	51.71
356.749	88.57
356.961	102.91
357.172	-7.68
357.384	55.81
357.595	39.42
357.807	43.52
358.018	53.76
358.23	12.8
358.441	88.57
358.653	68.09
358.864	2.56
359.075	27.14
359.287	98.81
359.498	-5.63
359.709	109.05
359.921	53.76
360.132	78.33
360.344	59.9
360.555	66.05
360.766	66.05
360.977	90.62
361.189	78.33
361.4	76.29
361.611	25.09
361.823	61.95
362.034	16.9
362.245	6.66
362.456	18.94
362.667	82.43
362.879	57.86
363.09	-22.02
363.301	33.28
363.512	61.95
363.723	68.09
363.935	66.05
364.146	113.15
364.357	-46.59
364.568	2.56
364.779	20.99
364.99	39.42
365.201	55.81
365.412	117.25
365.623	-36.35
365.834	55.81
366.045	47.62
366.256	92.67
366.467	23.04
366.678	68.09
366.889	-26.11
367.1	57.86
367.311	64
367.522	45.57
367.733	35.33
367.944	80.38
368.155	29.18
368.366	68.09
368.577	57.86
368.788	64
368.999	2.56
369.209	47.62
369.42	68.09
369.631	117.25
369.842	113.15
370.053	6.66
370.264	35.33
370.474	8.7
370.685	92.67
370.896	59.9
371.107	47.62
371.317	111.1
371.528	16.9
371.739	16.9
371.95	31.23
372.16	131.58
372.371	76.29
372.582	25.09
372.792	51.71
373.003	39.42
373.214	49.66
373.424	53.76
373.635	-34.3
373.846	-26.11
374.056	39.42
374.267	37.38
374.477	6.66
374.688	102.91
374.898	57.86
375.109	39.42
375.319	29.18
375.53	84.48
375.74	68.09
375.951	70.14
376.161	66.05
376.372	113.15
376.582	33.28
376.793	123.39
377.003	29.18
377.214	84.48
377.424	20.99
377.635	39.42
377.845	-15.87
378.055	98.81
378.266	43.52
378.476	68.09
378.686	6.66
378.897	20.99
379.107	4.61
379.317	98.81
379.528	45.57
379.738	70.14
379.948	51.71
380.158	51.71
380.369	33.28
380.579	41.47
380.789	-11.78
380.999	37.38
381.21	86.53
381.42	86.53
381.63	76.29
381.84	104.96
382.05	14.85
382.261	72.19
382.471	113.15
382.681	25.09
382.891	150.01
383.101	100.86
383.311	6.66
383.521	18.94
383.731	6.66
383.941	94.72
384.151	51.71
384.361	23.04
384.571	66.05
384.781	102.91
384.991	41.47
385.201	76.29
385.411	29.18
385.621	0.51
385.831	35.33
386.041	88.57
386.251	29.18
386.461	98.81
386.671	102.91
386.881	39.42
387.091	90.62
387.301	35.33
387.511	121.34
387.72	147.97
387.93	131.58
388.14	59.9
388.35	41.47
388.56	111.1
388.769	51.71
388.979	33.28
389.189	98.81
389.399	12.8
389.609	66.05
389.818	102.91
390.028	88.57
390.238	137.73
390.447	66.05
390.657	90.62
390.867	61.95
391.076	61.95
391.286	66.05
391.496	59.9
391.705	10.75
391.915	31.23
392.125	61.95
392.334	4.61
392.544	88.57
392.753	31.23
392.963	96.77
393.172	113.15
393.382	-5.63
393.591	90.62
393.801	51.71
394.01	125.44
394.22	84.48
394.429	78.33
394.639	27.14
394.848	94.72
395.058	98.81
395.267	74.24
395.477	121.34
395.686	92.67
395.895	137.73
396.105	127.49
396.314	158.21
396.524	66.05
396.733	78.33
396.942	72.19
397.152	145.92
397.361	-9.73
397.57	53.76
397.78	49.66
397.989	107.01
398.198	176.64
398.407	76.29
398.617	14.85
398.826	131.58
399.035	86.53
399.244	25.09
399.453	107.01
399.663	72.19
399.872	170.49
400.081	152.06
400.29	84.48
400.499	109.05
400.708	80.38
400.917	160.25
401.127	113.15
401.336	111.1
401.545	152.06
401.754	162.3
401.963	72.19
402.172	70.14
402.381	68.09
402.59	135.68
402.799	227.84
403.008	205.31
403.217	160.25
403.426	158.21
403.635	135.68
403.844	135.68
404.053	88.57
404.262	59.9
404.471	164.35
404.68	129.53
404.888	121.34
405.097	188.93
405.306	70.14
405.515	115.2
405.724	88.57
405.933	123.39
406.142	203.26
406.35	203.26
406.559	213.5
406.768	127.49
406.977	172.54
407.185	178.69
407.394	135.68
407.603	188.93
407.812	215.55
408.02	205.31
408.229	281.08
408.438	180.73
408.646	221.69
408.855	256.51
409.064	223.74
409.272	295.42
409.481	240.12
409.69	262.65
409.898	291.32
410.107	244.22
410.315	350.71
410.524	320
410.733	424.44
410.941	233.98
411.15	332.28
411.358	317.95
411.567	369.15
411.775	371.19
411.984	330.23
412.192	395.77
412.401	397.82
412.609	494.07
412.818	438.78
413.026	434.68
413.234	451.07
413.443	500.22
413.651	487.93
413.86	508.41
414.068	631.29
414.276	545.27
414.485	547.32
414.693	535.03
414.901	629.24
415.11	664.05
415.318	676.34
415.526	635.38
415.734	821.75
415.943	784.88
416.151	745.97
416.359	762.36
416.567	848.37
416.776	872.95
416.984	840.18
417.192	956.91
417.4	944.63
417.608	874.99
417.817	920.05
418.025	975.35
418.233	1108.46
418.441	1032.69
418.649	1196.53
418.857	1212.91
419.065	1264.11
419.273	1212.91
419.481	1333.74
419.689	1405.42
419.897	1319.4
420.105	1427.95
420.313	1393.13
420.521	1436.14
420.729	1464.81
420.937	1534.44
421.145	1677.8
421.353	1784.29
421.561	1874.4
421.769	1831.4
421.977	1815.01
422.185	1868.26
422.393	1966.56
422.601	2083.3
422.809	2298.33
423.017	2253.28
423.224	2288.09
423.432	2384.35
423.64	2310.62
423.848	2638.3
424.056	2517.47
424.263	2681.3
424.471	2652.63
424.679	2673.11
424.887	2873.81
425.094	2841.04
425.302	2929.11
425.51	3039.7
425.718	3086.8
425.925	3176.91
426.133	3389.9
426.341	3482.06
426.548	3805.64
426.756	3693
426.964	3619.27
427.171	3963.33
427.379	3987.91
427.586	4063.68
427.794	4200.9
428.001	4372.93
428.209	4575.67
428.417	4542.91
428.624	4946.36
428.832	4790.71
429.039	4811.19
429.247	4805.05
429.454	5310.89
429.662	5495.21
429.869	5241.26
430.076	5720.49
430.284	5386.67
430.491	5671.34
430.699	6244.77
430.906	6101.41
431.114	6066.6
431.321	6345.12
431.528	6541.72
431.736	6832.54
431.943	7106.96
432.15	7068.05
432.358	7080.34
432.565	7498.13
432.772	7379.34
432.979	7729.55
433.187	8057.22
433.394	7938.44
433.601	8505.73
433.808	8735.1
434.016	8671.61
434.223	8900.98
434.43	9412.98
434.637	9130.36
434.844	9666.92
435.052	10023.27
435.259	9791.85
435.466	10035.56
435.673	10047.85
435.88	10637.66
436.087	11153.75
436.294	11120.98
436.501	10686.81
436.708	11096.41
436.915	11467.09
437.122	11954.51
437.329	12087.62
437.537	12476.74
437.743	12427.59
437.95	12536.13
438.157	13111.61
438.364	13560.11
438.571	13353.27
438.778	13490.48
438.985	14924.06
439.192	13975.85
439.399	14844.19
439.606	14430.5
439.813	15036.7
440.02	16281.86
440.227	15710.48
440.433	15589.65
440.64	16392.45
440.847	16326.92
441.054	16914.69
441.261	17735.92
441.467	17338.62
441.674	17768.69
441.881	18086.12
442.088	18591.97
442.294	18065.64
442.501	18548.96
442.708	19196.12
442.914	19787.99
443.121	20492.49
443.328	20060.37
443.534	21688.5
443.741	20854.98
443.948	20740.29
444.154	22139.05
444.361	22055.09
444.568	22421.67
444.774	22210.73
444.981	22542.5
445.187	23021.73
445.394	24242.32
445.6	23670.93
445.807	26013.81
446.013	25084.03
446.22	25593.98
446.426	26128.5
446.633	26507.37
446.839	27443.29
447.046	26189.94
447.252	27748.44
447.459	27707.48
447.665	27832.41
447.871	29001.8
448.078	30242.87
448.284	28579.92
448.491	29546.56
448.697	30705.71
448.903	31615.01
449.11	31025.19
449.316	31123.49
449.522	31371.3
449.728	32206.87
449.935	32399.38
450.141	32256.02
450.347	33183.75
450.553	31778.84
450.76	32358.42
450.966	33476.61
451.172	33009.67
451.378	33689.6
451.584	33716.22
451.791	34088.95
451.997	34023.42
452.203	34478.07
452.409	34330.61
452.615	34559.98
452.821	33404.93
453.027	32888.84
453.233	34662.38
453.44	33263.62
453.646	33699.84
453.852	33529.86
454.058	34525.17
454.264	33306.63
454.47	34123.77
454.676	33003.53
454.882	34183.16
455.088	31254.56
455.294	31969.3
455.5	32256.02
455.705	32811.02
455.911	31490.08
456.117	30949.42
456.323	30197.81
456.529	28518.48
456.735	29970.49
456.941	29245.51
457.147	28528.72
457.352	28098.64
457.558	27541.6
457.764	27471.96
457.97	26867.81
458.176	26622.06
458.381	26433.64
458.587	25311.36
458.793	25315.45
458.999	23871.64
459.204	25477.24
459.41	24658.06
459.616	23117.98
459.821	23371.93
460.027	23353.5
460.233	22618.28
460.438	21639.35
460.644	21825.71
460.85	20811.97
461.055	20670.66
461.261	20398.28
461.466	19185.88
461.672	18534.63
461.878	19826.9
462.083	18493.67
462.289	17944.81
462.494	17772.78
462.7	16863.49
462.905	16857.34
463.111	17117.43
463.316	17088.76
463.522	16804.1
463.727	16808.19
463.932	16797.95
464.138	16824.58
464.343	17025.28
464.549	16095.5
464.754	16673.03
464.959	16546.05
465.165	16425.22
465.37	15765.78
465.575	15157.53
465.781	16029.96
465.986	16128.27
466.191	15454.48
466.397	15268.12
466.602	14557.47
466.807	15085.85
467.012	15196.44
467.218	15173.91
467.423	14668.06
467.628	14862.62
467.833	15393.05
468.038	14866.72
468.244	14487.84
468.449	14944.54
468.654	14414.12
468.859	14481.7
469.064	14477.6
469.269	13775.15
469.474	13961.51
469.679	14219.56
469.885	13691.18
470.09	13891.88
470.295	13887.79
470.5	13629.74
470.705	13410.61
470.91	13402.42
471.115	13254.97
471.32	13429.04
471.525	13279.54
471.73	13066.55
471.935	12785.98
472.139	12640.58
472.344	12552.51
472.549	12611.9
472.754	12341.57
472.959	12308.8
473.164	11858.25
473.369	11856.2
473.574	12298.56
473.778	12038.47
473.983	12147.01
474.188	12017.99
474.393	11520.34
474.598	11376.98
474.802	11372.88
475.007	11237.72
475.212	11391.31
475.417	10858.84
475.621	11057.5
475.826	10854.75
476.031	10645.85
476.235	10510.69
476.44	10621.28
476.645	10467.68
476.849	10518.88
477.054	10432.86
477.259	10135.91
477.463	10191.2
477.668	9943.4
477.872	9908.58
478.077	9814.38
478.282	9607.53
478.486	9873.77
478.691	9507.18
478.895	9576.81
479.1	9376.11
479.304	9464.18
479.509	9144.69
479.713	9353.59
479.918	9101.69
480.122	8962.42
480.326	9144.69
480.531	9007.48
480.735	9062.77
480.94	8839.55
481.144	9181.56
481.348	8860.02
481.553	8876.41
481.757	8630.65
481.961	8855.93
482.166	8925.56
482.37	8847.74
482.574	8677.76
482.778	8675.71
482.983	8896.89
483.187	8743.29
483.391	8788.35
483.595	8749.43
483.8	8597.88
484.004	8821.11
484.208	8747.39
484.412	8673.66
484.616	8581.5
484.821	8771.96
485.025	8491.39
485.229	8833.4
485.433	8737.15
485.637	8833.4
485.841	8825.21
486.045	8667.52
486.249	8716.67
486.453	8487.29
486.657	8835.45
486.861	8757.63
487.065	8423.81
487.269	8694.14
487.473	8518.01
487.677	8651.13
487.881	8722.81
488.085	8638.84
488.289	8751.48
488.493	8583.55
488.697	8915.32
488.901	8599.93
489.105	8747.39
489.309	8718.71
489.512	8743.29
489.716	8454.53
489.92	8688
490.124	8765.82
490.328	8933.75
490.531	8982.9
490.735	8943.99
490.939	9013.62
491.143	8771.96
491.346	8921.46
491.55	9075.06
491.754	9099.64
491.958	9156.98
492.161	9058.68
492.365	9283.95
492.569	8995.19
492.772	9001.33
492.976	9290.1
493.18	9193.84
493.383	9378.16
493.587	9265.52
493.79	9523.57
493.994	9496.94
494.197	9572.72
494.401	9580.91
494.605	9632.11
494.808	9765.23
495.012	9828.71
495.215	9705.84
495.419	9902.44
495.622	9865.58
495.825	9896.3
496.029	10166.63
496.232	10211.68
496.436	10273.12
496.639	10338.66
496.843	10402.15
497.046	10430.82
497.249	10815.83
497.453	10705.24
497.656	10836.31
497.859	10905.95
498.063	10951
498.266	11202.9
498.469	11008.34
498.673	11315.54
498.876	11518.29
499.079	11645.26
499.282	11587.92
499.485	11886.92
499.689	11845.96
499.892	11989.32
500.095	12165.45
500.298	12378.44
500.501	12245.32
500.705	12675.39
500.908	12679.49
501.111	12704.06
501.314	12761.41
501.517	13105.46
501.72	13273.4
501.923	13259.06
502.126	13670.7
502.329	13830.44
502.532	13685.04
502.735	13525.3
502.938	14102.82
503.141	14188.84
503.344	14342.44
503.547	14225.7
503.75	14606.63
503.953	14909.72
504.156	14874.91
504.359	15034.65
504.562	15184.15
504.765	15466.77
504.968	15683.86
505.17	15718.67
505.373	15745.3
505.576	16058.63
505.779	16181.51
505.982	16333.06
506.185	16744.7
506.387	16767.23
506.59	17047.8
506.793	17162.49
506.996	17357.05
507.198	17654
507.401	17672.43
507.604	17836.27
507.807	17991.92
508.009	18063.6
508.212	18288.87
508.415	18505.96
508.617	18610.4
508.82	18774.24
509.022	18905.31
509.225	19351.77
509.428	19386.58
509.63	19515.61
509.833	19908.82
510.035	20226.25
510.238	20181.2
510.44	20523.21
510.643	20666.56
510.845	20594.89
511.048	20707.52
511.25	21006.53
511.453	21244.09
511.655	21921.97
511.858	21661.88
512.06	21883.06
512.262	22198.45
512.465	22175.92
512.667	22501.54
512.87	22808.74
513.072	22845.6
513.274	23386.27
513.477	23347.36
513.679	23451.8
513.881	23871.64
514.084	23824.53
514.286	24055.95
514.488	24141.97
514.69	24825.99
514.893	24914.05
515.095	24959.11
515.297	25395.32
515.499	25149.57
515.701	25573.5
515.904	26026.1
516.106	25829.49
516.308	26564.71
516.51	26300.53
516.712	26775.66
516.914	26959.97
517.116	27316.32
517.318	27428.96
517.52	27539.55
517.722	27701.34
517.925	28117.07
518.127	28596.3
518.329	28825.67
518.531	28387.41
518.733	28995.65
518.935	29364.29
519.136	29278.27
519.338	29945.91
519.54	29917.24
519.742	30083.12
519.944	30363.7
520.146	30636.08
520.348	31141.92
520.55	31191.08
520.752	31561.76
520.954	31961.11
521.155	31537.18
521.357	32147.48
521.559	32110.61
521.761	32718.86
521.963	32538.64
522.164	32804.88
522.366	32925.71
522.568	33198.09
522.77	33492.99
522.971	33943.55
523.173	33550.34
523.375	33843.2
523.576	34091
523.778	34283.51
523.98	35012.59
524.181	34801.64
524.383	34746.35
524.584	35254.25
524.786	35096.55
524.988	35178.47
525.189	35602.4
525.391	36134.87
525.592	35981.27
525.794	36194.26
525.995	36302.81
526.197	36546.51
526.398	36519.89
526.6	36593.62
526.801	37214.15
527.003	37466.05
527.204	37023.69
527.406	37269.45
527.607	37310.41
527.808	37523.4
528.01	37425.09
528.211	37834.69
528.412	38387.64
528.614	37984.19
528.815	38223.8
529.016	38576.05
529.218	38516.66
529.419	38367.16
529.62	38467.51
529.822	38453.17
530.023	38608.82
530.224	38803.38
530.425	38819.76
530.626	38365.11
530.828	38535.09
531.029	39528.36
531.23	38934.45
531.431	38703.03
531.632	39174.06
531.833	39497.64
532.035	39481.25
532.236	39241.64
532.437	39462.82
532.638	39583.65
532.839	39532.45
533.04	39950.24
533.241	39397.29
533.442	39708.58
533.643	39241.64
533.844	39554.98
534.045	39878.56
534.246	39475.11
534.447	39890.85
534.648	39657.38
534.849	39767.97
535.05	39628.71
535.251	39600.04
535.451	39688.1
535.652	40146.84
535.853	39475.11
536.054	39743.39
536.255	40038.3
536.456	39597.99
536.657	40304.54
536.857	39710.63
537.058	39632.8
537.259	40083.36
537.46	40058.78
537.66	39659.43
537.861	39954.33
538.062	39702.43
538.263	39729.06
538.463	39401.38
538.664	39720.87
538.865	40021.92
539.065	40228.76
539.266	39706.53
539.466	40439.7
539.667	39679.91
539.868	40632.21
540.068	39450.53
540.269	39970.72
540.469	39942.05
540.67	39587.75
540.87	39468.97
541.071	39802.78
541.271	39706.53
541.472	39686.05
541.672	39479.21
541.873	39614.37
542.073	39210.92
542.274	40095.64
542.474	39737.25
542.675	39557.03
542.875	39681.95
543.075	39649.19
543.276	39245.74
543.476	40140.7
543.676	39659.43
543.877	39864.22
544.077	39378.86
544.277	39628.71
544.478	39468.97
544.678	39972.77
544.878	39569.32
545.078	39600.04
545.279	39552.93
545.479	39542.69
545.679	39810.98
545.879	39770.02
546.079	39628.71
546.28	39479.21
546.48	39178.15
546.68	39370.66
546.88	39614.37
547.08	39421.86
547.28	39610.28
547.48	39083.95
547.68	39677.86
547.88	39530.4
548.081	39524.26
548.281	39354.28
548.481	39260.07
548.681	39679.91
548.881	39628.71
549.081	39243.69
549.28	39198.63
549.48	39374.76
549.68	38944.69
549.88	40054.68
550.08	38817.71
550.28	39215.02
550.48	39374.76
550.68	39993.25
550.88	39251.88
551.08	39116.72
551.279	39440.29
551.479	38883.25
551.679	39479.21
551.879	39372.71
552.079	39534.5
552.278	39034.8
552.478	39294.89
552.678	38963.12
552.878	39538.6
553.077	39411.62
553.277	39077.8
553.477	39671.71
553.676	38997.93
553.876	38932.4
554.076	38993.84
554.275	38897.58
554.475	38182.84
554.674	38793.14
554.874	39038.89
555.074	38965.17
555.273	39147.43
555.473	38866.86
555.672	38731.7
555.872	38766.51
556.071	38471.6
556.271	38522.8
556.47	38180.79
556.67	38172.6
556.869	38461.37
557.068	38537.14
557.268	38508.47
557.467	38361.01
557.667	38211.51
557.866	38268.86
558.065	38498.23
558.265	37971.9
558.464	37961.66
558.663	38496.18
558.863	37744.58
559.062	38586.29
559.261	37552.07
559.461	38451.13
559.66	37478.34
559.859	37666.75
560.058	37232.58
560.258	37646.27
560.457	37355.46
560.656	37818.3
560.855	37197.77
561.054	37730.24
561.253	37263.3
561.453	37623.75
561.652	37203.91
561.851	37371.85
562.05	37060.55
562.249	37062.6
562.448	37449.67
562.647	37074.89
562.846	37183.43
563.045	37158.86
563.244	36646.86
563.443	37316.55
563.642	36315.09
563.841	36622.29
564.04	36511.7
564.239	36773.84
564.438	36509.65
564.637	36822.99
564.836	36851.66
565.035	36458.45
565.234	36655.06
565.432	35932.12
565.631	35862.49
565.83	36102.11
566.029	35733.47
566.228	35669.98
566.427	35592.16
566.625	35692.51
566.824	34840.56
567.023	35555.3
567.222	35117.03
567.42	35737.57
567.619	35293.16
567.818	35241.96
568.016	35244.01
568.215	35405.8
568.414	34918.38
568.612	35346.4
568.811	34850.8
569.01	35041.26
569.208	34338.8
569.407	34578.42
569.605	34172.92
569.804	34836.46
570.002	34160.63
570.201	34424.82
570.4	34160.63
570.598	34156.53
570.797	33771.52
570.995	34303.99
571.193	33642.49
571.392	33933.31
571.59	33902.59
571.789	33806.33
571.987	33714.17
572.186	33325.06
572.384	33308.68
572.582	33122.31
572.781	33773.56
572.979	32829.45
573.177	33333.25
573.376	33206.28
573.574	32972.81
573.772	33230.85
573.971	32776.2
574.169	32122.9
574.367	32608.27
574.565	32503.82
574.763	33105.93
574.962	32393.23
575.16	32034.84
575.358	32417.81
575.556	32352.27
575.754	32339.99
575.952	31598.62
576.151	32333.84
576.349	31606.81
576.547	31637.53
576.745	31578.14
576.943	31813.66
577.141	31907.87
577.339	31467.55
577.537	31238.18
577.735	31408.16
577.933	31189.03
578.131	31283.23
578.329	30930.98
578.527	31311.91
578.725	30881.83
578.923	31141.92
579.121	30859.31
579.319	30537.77
579.516	30877.74
579.714	30531.63
579.912	30365.74
580.11	30623.79
580.308	30390.32
580.506	30246.96
580.704	30109.75
580.901	29894.71
581.099	30441.52
581.297	30005.3
581.495	29907
581.692	29872.18
581.89	29317.18
582.088	29720.63
582.285	29628.48
582.483	29737.02
582.681	29423.68
582.878	29378.62
583.076	29044.8
583.274	29272.13
583.471	28926.02
583.669	29272.13
583.866	28969.03
584.064	29202.5
584.262	28790.86
584.459	29132.87
584.657	28864.58
584.854	28905.54
585.052	28440.65
585.249	28393.55
585.447	28375.12
585.644	28219.47
585.841	28295.25
586.039	28395.6
586.236	28063.83
586.434	28024.92
586.631	27791.45
586.828	28176.47
587.026	27947.09
587.223	27746.39
587.42	27672.67
587.618	27734.1
587.815	27367.52
588.012	27248.74
588.21	27132
588.407	27951.19
588.604	27158.63
588.801	27117.67
588.999	27244.64
589.196	26951.78
589.393	27240.54
589.59	26820.71
589.787	27125.86
589.984	26757.22
590.182	26734.7
590.379	26693.74
590.576	26460.27
590.773	26620.01
590.97	26155.12
591.167	26237.04
591.364	25897.08
591.561	26288.24
591.758	26175.6
591.955	26052.72
592.152	25796.73
592.349	25786.49
592.546	26007.67
592.743	25804.92
592.94	25393.28
593.137	25399.42
593.334	25780.34
593.531	25430.14
593.727	25319.55
593.924	25385.08
594.121	25219.2
594.318	25116.8
594.515	24772.74
594.712	25041.03
594.908	24850.56
595.105	25284.73
595.302	24555.66
595.499	24928.39
595.696	24674.44
595.892	24283.28
596.089	24641.67
596.286	24522.89
596.482	24301.71
596.679	24344.72
596.876	24381.58
597.072	24006.8
597.269	24062.1
597.466	24164.5
597.662	24203.41
597.859	23910.55
598.055	24027.28
598.252	24029.33
598.448	23888.02
598.645	23654.55
598.841	23216.29
599.038	23668.89
599.234	23421.08
599.431	22923.43
599.627	23472.28
599.824	23337.12
600.02	22960.29
600.217	23167.13
600.413	22909.09
600.609	22741.16
600.806	22786.21
601.002	23011.49
601.198	22796.45
601.395	22429.87
601.591	22515.88
601.787	22255.79
601.984	22343.85
602.18	22534.31
602.376	22274.22
602.572	22206.64
602.769	22153.39
602.965	22098.09
603.161	22333.61
603.357	21926.07
603.553	22075.57
603.75	22134.96
603.946	21881.01
604.142	21723.32
604.338	21477.56
604.534	21661.88
604.73	21584.05
604.926	21299.39
605.122	21577.91
605.318	21188.8
605.514	21336.25
605.71	21217.47
605.906	21113.02
606.102	21168.32
606.298	21115.07
606.494	20922.56
606.69	21115.07
606.886	21280.96
607.082	20668.61
607.278	20865.22
607.474	20492.49
607.67	20742.34
607.866	20240.59
608.062	20623.56
608.257	20594.89
608.453	20609.22
608.649	20531.4
608.845	20523.21
609.041	20287.69
609.236	20512.97
609.432	20170.96
609.628	20023.5
609.824	20160.72
610.019	20027.6
610.215	20205.77
610.411	20130
610.606	19957.97
610.802	20080.85
610.998	19894.48
611.193	20240.59
611.389	19921.1
611.584	20027.6
611.78	19814.61
611.976	19665.11
612.171	19861.71
612.367	19980.5
612.562	19665.11
612.758	19284.19
612.953	19605.72
613.149	19826.9
613.344	19503.32
613.539	19753.17
613.735	19527.89
613.93	19544.28
614.126	19476.69
614.321	19443.93
614.517	19427.54
614.712	19071.2
614.907	19310.81
615.103	19259.61
615.298	19063.01
615.493	19462.36
615.688	19271.9
615.884	19319
616.079	18876.64
616.274	19214.55
616.47	18985.18
616.665	18997.47
616.86	18852.06
617.055	19028.19
617.25	18571.49
617.445	19036.38
617.641	18567.4
617.836	18565.35
618.031	18620.64
618.226	18757.86
618.421	18514.15
618.616	18616.55
618.811	18176.23
619.006	18884.83
619.201	18346.22
619.396	18272.49
619.591	17893.61
619.786	18178.28
619.981	18039.02
620.176	18122.99
620.371	17580.28
620.566	17651.95
620.761	17780.98
620.956	17826.03
621.151	17639.67
621.346	17701.11
621.541	17369.33
621.735	17248.5
621.93	17242.36
622.125	17193.21
622.32	17027.32
622.515	17008.89
622.709	16881.92
622.904	17086.72
623.099	16933.12
623.294	16984.32
623.488	16476.42
623.683	16660.74
623.878	16191.75
624.072	16400.65
624.267	16355.59
624.462	16335.11
624.656	16161.03
624.851	16185.61
625.046	15921.42
625.24	16066.83
625.435	15632.66
625.629	15708.43
625.824	15575.31
626.018	15601.94
626.213	15292.69
626.407	15501.59
626.602	15071.51
626.796	15194.39
626.991	15421.72
627.185	15307.03
627.38	14913.82
627.574	14989.6
627.768	14922.01
627.963	14489.89
628.157	14604.58
628.352	14618.91
628.546	14397.73
628.74	14774.56
628.935	14358.82
629.129	14405.92
629.323	14235.94
629.517	13924.65
629.712	14188.84
629.906	13957.42
630.1	13750.57
630.294	13898.03
630.489	13814.06
630.683	13799.73
630.877	13572.4
631.071	13631.79
631.265	13474.1
631.459	13416.76
631.653	13375.8
631.848	13295.93
632.042	13295.93
632.236	12990.78
632.43	12912.95
632.624	13087.03
632.818	13062.46
633.012	12822.84
633.206	12788.03
633.4	12874.04
633.594	12501.31
633.788	12497.22
633.982	12577.09
634.176	12562.75
634.369	12468.55
634.563	12325.19
634.757	12067.14
634.951	12388.67
635.145	12202.31
635.339	12149.06
635.533	12114.25
635.726	11907.4
635.92	11675.98
636.114	12151.11
636.308	11905.35
636.501	11827.53
636.695	11866.44
636.889	11610.45
637.083	11381.07
637.276	11348.31
637.47	11587.92
637.664	11344.21
637.857	11483.47
638.051	11381.07
638.244	11221.33
638.438	11016.54
638.632	11180.37
638.825	11077.97
639.019	10934.62
639.212	10781.02
639.406	10858.84
639.599	10717.53
639.793	10733.92
639.986	10649.95
640.18	10641.76
640.373	10680.67
640.567	10494.3
640.76	10537.31
640.954	10604.89
641.147	10545.5
641.34	10318.18
641.534	10127.72
641.727	10279.27
641.92	10092.9
642.114	9908.58
642.307	9967.98
642.5	9894.25
642.694	9898.34
642.887	9716.08
643.08	9824.62
643.273	9820.52
643.467	9785.71
643.66	9722.22
643.853	9597.29
644.046	9398.64
644.239	9341.3
644.432	9490.8
644.626	9582.96
644.819	9234.8
645.012	9410.93
645.205	9544.05
645.398	9326.96
645.591	9118.07
645.784	9081.21
645.977	9077.11
646.17	9050.49
646.363	9032.05
646.556	8886.65
646.749	9017.72
646.942	8978.81
647.135	8786.3
647.328	8929.66
647.521	8808.83
647.714	8690.04
647.907	8739.19
648.099	8534.4
648.292	8704.38
648.485	8354.18
648.678	8413.57
648.871	8569.21
649.064	8307.07
649.256	8481.15
649.449	8092.04
649.642	8259.97
649.835	7983.49
650.027	8321.41
650.22	8063.36
650.413	8075.65
650.605	8028.55
650.798	8085.89
650.991	7909.77
651.183	8073.6
651.376	7938.44
651.568	7752.07
651.761	7747.98
651.954	7733.64
652.146	7735.69
652.339	7567.76
652.531	7569.8
652.724	7727.5
652.916	7737.74
653.109	7371.15
653.301	7479.69
653.494	7391.63
653.686	7444.88
653.879	7223.7
654.071	7213.46
654.263	7260.56
654.456	7213.46
654.648	7262.61
654.84	7180.69
655.033	7072.15
655.225	7035.28
655.417	6996.37
655.61	7324.05
655.802	6930.84
655.994	6900.12
656.186	6947.22
656.379	6959.51
656.571	6947.22
656.763	6674.84
656.955	6797.72
657.148	6617.5
657.34	6873.5
657.532	6615.45
657.724	6576.54
657.916	6588.83
658.108	6551.96
658.3	6570.4
658.492	6672.79
658.684	6545.82
658.876	6347.17
659.068	6320.54
659.26	6441.37
659.452	6271.39
659.644	6347.17
659.836	6236.58
660.028	6334.88
660.22	6302.11
660.412	6379.93
660.604	6224.29
660.796	6138.27
660.988	6152.61
661.18	6091.17
661.372	6068.64
661.563	5968.29
661.755	5872.04
661.947	5978.53
662.139	5927.33
662.331	5818.79
662.522	5802.41
662.714	5845.41
662.906	5765.54
663.097	5777.83
663.289	5833.13
663.481	5697.96
663.673	5685.67
663.864	5695.91
664.056	5654.95
664.247	5687.72
664.439	5458.35
664.631	5587.37
664.822	5661.1
665.014	5632.43
665.205	5527.98
665.397	5358
665.588	5489.07
665.78	5419.44
665.971	5261.74
666.163	5487.02
666.354	5405.1
666.546	5374.38
666.737	5310.89
666.929	5228.98
667.12	5241.26
667.311	5216.69
667.503	5167.54
667.694	5220.78
667.885	5087.67
668.077	5218.74
668.268	5102
668.459	4997.56
668.651	4927.92
668.842	5114.29
669.033	4968.88
669.224	4864.44
669.416	4929.97
669.607	4927.92
669.798	4884.92
669.989	4981.17
670.18	4778.42
670.371	4788.66
670.563	4821.43
670.754	4778.42
670.945	4643.26
671.136	4821.43
671.327	4790.71
671.518	4682.17
671.709	4604.35
671.9	4749.75
672.091	4641.21
672.282	4680.12
672.473	4575.67
672.664	4575.67
672.855	4614.59
673.046	4714.94
673.237	4694.46
673.428	4426.17
673.619	4581.82
673.809	4504
674	4538.81
674.191	4569.53
674.382	4479.42
674.573	4407.74
674.764	4311.49
674.954	4364.73
675.145	4467.13
675.336	4276.67
675.527	4338.11
675.717	4512.19
675.908	4182.46
676.099	4344.25
676.289	4100.55
676.48	4254.14
676.671	4262.33
676.861	4325.82
677.052	4172.22
677.243	4229.57
677.433	4297.15
677.624	4231.62
677.814	4319.68
678.005	4184.51
678.195	4374.97
678.386	4305.34
678.576	4272.57
678.767	4161.98
678.957	4137.41
679.148	4188.61
679.338	4114.88
679.529	4184.51
679.719	4174.27
679.909	4002.24
680.1	4063.68
680.29	4155.84
680.481	3955.14
680.671	4018.63
680.861	4035.01
681.052	4180.42
681.242	4069.83
681.432	4043.2
681.622	4035.01
681.813	3951.04
682.003	4004.29
682.193	3838.41
682.383	3971.52
682.573	3975.62
682.764	3899.84
682.954	3893.7
683.144	3928.52
683.334	3899.84
683.524	3860.93
683.714	3908.04
683.904	3879.36
684.094	3789.25
684.284	3908.04
684.474	3905.99
684.664	3955.14
684.854	3817.93
685.044	3631.56
685.234	3875.27
685.424	3844.55
685.614	3758.53
685.804	3842.5
685.994	3668.42
686.184	3781.06
686.374	3787.21
686.564	3656.14
686.753	3779.01
686.943	3639.75
687.133	3645.9
687.323	3649.99
687.513	3629.51
687.702	3551.69
687.892	3578.31
688.082	3654.09
688.272	3664.33
688.461	3412.43
688.651	3580.36
688.841	3553.74
689.03	3459.53
689.22	3639.75
689.41	3471.82
689.599	3416.52
689.789	3516.87
689.979	3506.63
690.168	3359.18
690.358	3400.14
690.547	3332.56
690.737	3467.72
690.926	3338.7
691.116	3412.43
691.305	3318.22
691.495	3398.09
691.684	3183.06
691.874	3285.45
692.063	3316.17
692.252	3285.45
692.442	3277.26
692.631	3187.15
692.82	3144.14
693.01	3344.84
693.199	3191.25
693.388	3140.05
693.578	3183.06
693.767	3193.3
693.956	2925.01
694.146	3131.86
694.335	3113.42
694.524	3056.08
694.713	3041.75
694.902	3031.51
695.092	3051.99
695.281	3037.65
695.47	2902.48
695.659	2873.81
695.848	2988.5
696.037	3004.88
696.226	3017.17
696.415	2939.35
696.604	3039.7
696.793	2935.25
696.982	3037.65
697.171	2867.67
697.36	2857.43
697.549	2980.31
697.738	2894.29
697.927	2947.54
698.116	2927.06
698.305	2826.71
698.494	2853.33
698.683	2941.4
698.872	2769.37
699.061	2841.04
699.25	2832.85
699.438	2865.62
699.627	2898.39
699.816	2859.48
700.005	2855.38
700.193	2882
700.382	2859.48
700.571	2748.89
700.76	2832.85
700.948	2824.66
701.137	2904.53
701.326	2798.04
701.514	2851.28
701.703	2712.02
701.892	2767.32
702.08	2744.79
702.269	2687.45
702.457	2789.85
702.646	2879.96
702.834	2783.7
703.023	2761.17
703.212	2720.21
703.4	2832.85
703.589	2773.46
703.777	2812.37
703.965	2720.21
704.154	2646.49
704.342	2699.73
704.531	2804.18
704.719	2679.26
704.907	2785.75
705.096	2666.97
705.284	2734.55
705.472	2748.89
705.661	2695.64
705.849	2814.42
706.037	2648.54
706.226	2802.13
706.414	2720.21
706.602	2824.66
706.79	2886.1
706.979	2687.45
707.167	2695.64
707.355	2705.88
707.543	2685.4
707.731	2769.37
707.919	2705.88
708.107	2673.11
708.296	2697.69
708.484	2703.83
708.672	2728.41
708.86	2685.4
709.048	2736.6
709.236	2761.17
709.424	2718.17
709.612	2779.61
709.8	2662.87
709.988	2746.84
710.176	2818.52
710.364	2593.24
710.551	2632.15
710.739	2642.39
710.927	2707.93
711.115	2609.62
711.303	2691.54
711.491	2560.47
711.679	2693.59
711.866	2607.58
712.054	2716.12
712.242	2818.52
712.43	2726.36
712.617	2693.59
712.805	2738.65
712.993	2613.72
713.181	2644.44
713.368	2654.68
713.556	2636.25
713.744	2658.78
713.931	2738.65
714.119	2626.01
714.306	2701.78
714.494	2646.49
714.682	2644.44
714.869	2658.78
715.057	2695.64
715.244	2703.83
715.432	2705.88
715.619	2554.33
715.807	2763.22
715.994	2583
716.182	2494.94
716.369	2744.79
716.556	2716.12
716.744	2738.65
716.931	2568.66
717.119	2769.37
717.306	2601.43
717.493	2613.72
717.681	2636.25
717.868	2701.78
718.055	2707.93
718.242	2779.61
718.43	2677.21
718.617	2806.23
718.804	2576.86
718.991	2687.45
719.179	2636.25
719.366	2634.2
719.553	2630.1
719.74	2814.42
719.927	2564.57
720.114	2771.41
720.301	2607.58
720.488	2722.26
720.676	2664.92
720.863	2585.05
721.05	2660.82
721.237	2519.51
721.424	2669.02
721.611	2726.36
721.798	2664.92
721.985	2691.54
722.172	2666.97
722.358	2552.28
722.545	2734.55
722.732	2638.3
722.919	2681.3
723.106	2687.45
723.293	2666.97
723.48	2671.06
723.667	2595.29
723.853	2673.11
724.04	2558.42
724.227	2736.6
724.414	2630.1
724.6	2636.25
724.787	2671.06
724.974	2603.48
725.161	2662.87
725.347	2587.1
725.534	2642.39
725.72	2654.68
725.907	2560.47
726.094	2681.3
726.28	2673.11
726.467	2632.15
726.653	2730.45
726.84	2683.35
727.027	2587.1
727.213	2734.55
727.4	2705.88
727.586	2572.76
727.773	2691.54
727.959	2716.12
728.145	2673.11
728.332	2685.4
728.518	2613.72
728.705	2693.59
728.891	2628.06
729.077	2836.95
729.264	2605.53
729.45	2681.3
729.636	2779.61
729.823	2693.59
730.009	2759.13
730.195	2759.13
730.382	2691.54
730.568	2740.69
730.754	2755.03
730.94	2693.59
731.126	2580.95
731.313	2689.49
731.499	2703.83
731.685	2583
731.871	2562.52
732.057	2685.4
732.243	2716.12
732.429	2722.26
732.615	2738.65
732.801	2703.83
732.987	2699.73
733.173	2699.73
733.359	2763.22
733.545	2732.5
733.731	2611.67
733.917	2697.69
734.103	2703.83
734.289	2738.65
734.475	2728.41
734.661	2785.75
734.847	2640.34
735.033	2681.3
735.219	2718.17
735.404	2705.88
735.59	2738.65
735.776	2712.02
735.962	2793.94
736.148	2656.73
736.333	2640.34
736.519	2714.07
736.705	2707.93
736.89	2687.45
737.076	2718.17
737.262	2529.75
737.447	2746.84
737.633	2636.25
737.819	2644.44
738.004	2636.25
738.19	2671.06
738.375	2685.4
738.561	2726.36
738.747	2570.71
738.932	2656.73
739.118	2537.95
739.303	2716.12
739.489	2693.59
739.674	2599.38
739.859	2697.69
740.045	2609.62
740.23	2662.87
740.416	2501.08
740.601	2556.38
740.786	2527.71
740.972	2537.95
741.157	2361.82
741.342	2646.49
741.528	2521.56
741.713	2601.43
741.898	2511.32
742.084	2468.31
742.269	2496.99
742.454	2525.66
742.639	2484.7
742.824	2441.69
743.01	2439.64
743.195	2501.08
743.38	2417.12
743.565	2408.92
743.75	2550.23
743.935	2357.72
744.12	2525.66
744.305	2474.46
744.49	2451.93
744.675	2380.25
744.86	2458.07
745.045	2404.83
745.23	2302.43
745.415	2230.75
745.6	2382.3
745.785	2396.64
745.97	2433.5
746.155	2349.53
746.34	2263.52
746.525	2347.48
746.71	2236.89
746.895	2204.13
747.079	2240.99
747.264	2316.76
747.449	2251.23
747.634	2177.5
747.819	2193.89
748.003	2152.93
748.188	2189.79
748.373	2163.17
748.557	2116.06
748.742	2146.78
748.927	2140.64
749.111	2091.49
749.296	2185.69
749.481	2111.97
749.665	2144.74
749.85	2101.73
750.034	2028
750.219	2077.15
750.404	2025.95
750.588	2093.54
750.773	2034.14
750.957	1997.28
751.141	1968.61
751.326	2152.93
751.51	1939.94
751.695	2068.96
751.879	2017.76
752.064	1923.55
752.248	1931.75
752.432	1915.36
752.617	1946.08
752.801	2013.67
752.985	1907.17
753.17	1968.61
753.354	1817.06
753.538	1839.59
753.722	1812.96
753.907	1806.82
754.091	1747.43
754.275	1894.88
754.459	1808.87
754.643	1700.33
754.828	1663.46
755.012	1831.4
755.196	1649.13
755.38	1804.77
755.564	1782.24
755.748	1636.84
755.932	1651.17
756.116	1739.24
756.3	1681.89
756.484	1610.22
756.668	1729
756.852	1657.32
757.036	1585.64
757.22	1583.59
757.404	1569.26
757.588	1528.3
757.772	1573.35
757.956	1595.88
758.14	1606.12
758.323	1466.86
758.507	1427.95
758.691	1563.11
758.875	1513.96
759.059	1495.53
759.242	1419.75
759.426	1448.43
759.61	1473
759.794	1360.36
759.977	1397.23
760.161	1511.91
760.345	1409.51
760.528	1317.36
760.712	1546.73
760.895	1393.13
761.079	1538.54
761.263	1462.76
761.446	1409.51
761.63	1327.6
761.813	1419.75
761.997	1393.13
762.18	1272.3
762.364	1434.09
762.547	1264.11
762.731	1307.12
762.914	1442.28
763.098	1315.31
763.281	1204.72
763.464	1300.97
763.648	1210.86
763.831	1266.16
764.015	1309.16
764.198	1307.12
764.381	1239.53
764.564	1270.25
764.748	1284.59
764.931	1245.68
765.114	1257.96
765.297	1309.16
765.481	1298.92
765.664	1350.12
765.847	1206.77
766.03	1262.06
766.213	1321.45
766.397	1237.49
766.58	1280.49
766.763	1225.2
766.946	1255.92
767.129	1141.23
767.312	1255.92
767.495	1219.05
767.678	1188.33
767.861	1241.58
768.044	1151.47
768.227	1147.37
768.41	1063.41
768.593	1155.57
768.776	1184.24
768.959	1161.71
769.142	1157.61
769.324	1190.38
769.507	1126.89
769.69	1120.75
769.873	1114.61
770.056	1139.18
770.239	1038.83
770.421	1100.27
770.604	1051.12
770.787	1010.16
770.97	1069.55
771.152	1096.18
771.335	1130.99
771.518	1008.11
771.7	1057.26
771.883	1036.78
772.066	1016.3
772.248	1053.17
772.431	993.78
772.613	1008.11
772.796	930.29
772.978	995.82
773.161	1071.6
773.343	1051.12
773.526	913.91
773.708	969.2
773.891	879.09
774.073	1040.88
774.256	987.63
774.438	948.72
774.621	866.8
774.803	1044.98
774.985	975.35
775.168	991.73
775.35	928.24
775.532	838.13
775.715	874.99
775.897	846.32
776.079	870.9
776.261	913.91
776.444	901.62
776.626	846.32
776.808	795.12
776.99	834.04
777.173	834.04
777.355	838.13
777.537	788.98
777.719	881.14
777.901	827.89
778.083	813.56
778.265	868.85
778.447	805.36
778.629	643.57
778.811	768.5
778.993	786.93
779.175	780.79
779.357	844.28
779.539	678.39
779.721	786.93
779.903	725.49
780.085	754.16
780.267	672.25
780.449	774.64
780.631	719.35
780.812	721.4
780.994	627.19
781.176	807.41
781.358	793.08
781.54	745.97
781.721	713.21
781.903	696.82
782.085	655.86
782.267	674.29
782.448	604.66
782.63	698.87
782.812	619
782.993	680.44
783.175	600.57
783.357	666.1
783.538	584.18
783.72	598.52
783.901	604.66
784.083	596.47
784.264	600.57
784.446	573.94
784.627	514.55
784.809	623.09
784.99	610.81
785.172	559.61
785.353	659.96
785.535	530.94
785.716	565.75
785.897	561.66
786.079	578.04
786.26	594.42
786.441	555.51
786.623	494.07
786.804	489.98
786.985	561.66
787.167	545.27
787.348	514.55
787.529	530.94
787.71	504.31
787.891	530.94
788.073	469.5
788.254	485.88
788.435	498.17
788.616	418.3
788.797	502.26
788.978	436.73
789.159	430.59
789.34	483.83
789.522	410.11
789.703	504.31
789.884	442.87
790.065	514.55
790.246	410.11
790.427	489.98
790.607	459.26
790.788	457.21
790.969	369.15
791.15	444.92
791.331	418.3
791.512	397.82
791.693	399.87
791.874	428.54
792.054	436.73
792.235	408.06
792.416	348.67
792.597	377.34
792.778	375.29
792.958	383.48
793.139	395.77
793.32	389.63
793.5	340.47
793.681	498.17
793.862	399.87
794.042	371.19
794.223	410.11
794.404	406.01
794.584	379.39
794.765	373.24
794.945	403.96
795.126	383.48
795.306	457.21
795.487	385.53
795.667	432.63
795.848	453.11
796.028	346.62
796.209	352.76
796.389	326.14
796.57	395.77
796.75	391.67
796.93	360.95
797.111	350.71
797.291	418.3
797.471	246.27
797.652	289.28
797.832	340.47
798.012	320
798.192	340.47
798.373	307.71
798.553	307.71
798.733	377.34
798.913	293.37
799.093	313.85
799.274	289.28
799.454	340.47
799.634	385.53
799.814	301.56
799.994	295.42
800.174	336.38
800.354	313.85
800.534	242.17
800.714	293.37
800.894	283.13
801.074	270.84
801.254	324.09
801.434	305.66
801.614	340.47
801.794	295.42
801.974	707.06
802.154	283.13
802.334	293.37
802.514	289.28
802.693	285.18
802.873	233.98
803.053	297.47
803.233	264.7
803.413	317.95
803.592	248.32
803.772	207.36
803.952	248.32
804.131	352.76
804.311	268.8
804.491	199.16
804.67	305.66
804.85	205.31
805.03	268.8
805.209	260.6
805.389	233.98
805.568	297.47
805.748	240.12
805.928	297.47
806.107	254.46
806.287	223.74
806.466	276.99
806.646	268.8
806.825	252.41
807.004	213.5
807.184	287.23
807.363	225.79
807.543	258.56
807.722	238.08
807.901	295.42
808.081	274.94
808.26	272.89
808.439	160.25
808.619	276.99
808.798	240.12
808.977	248.32
809.156	231.93
809.336	221.69
809.515	244.22
809.694	135.68
809.873	201.21
810.052	240.12
810.231	188.93
810.411	231.93
810.59	205.31
810.769	219.64
810.948	229.88
811.127	215.55
811.306	193.02
811.485	197.12
811.664	168.45
811.843	248.32
812.022	242.17
812.201	182.78
812.38	190.97
812.559	193.02
812.737	150.01
812.916	82.43
813.095	104.96
813.274	199.16
813.453	195.07
813.632	154.11
813.811	123.39
813.989	143.87
814.168	213.5
814.347	162.3
814.526	205.31
814.704	166.4
814.883	240.12
815.062	158.21
815.24	109.05
815.419	176.64
815.598	168.45
815.776	119.29
815.955	201.21
816.133	66.05
816.312	166.4
816.49	168.45
816.669	168.45
816.847	143.87
817.026	160.25
817.204	135.68
817.383	180.73
817.561	64
817.74	133.63
817.918	166.4
818.097	199.16
818.275	145.92
818.453	154.11
818.632	227.84
818.81	133.63
818.988	139.77
819.167	113.15
819.345	143.87
819.523	205.31
819.701	166.4
819.879	225.79
820.058	186.88
820.236	195.07
820.414	170.49
820.592	190.97
820.77	170.49
820.948	135.68
821.127	219.64
821.305	156.16
821.483	90.62
821.661	176.64
821.839	102.91
822.017	156.16
822.195	113.15
822.373	156.16
822.551	158.21
822.729	180.73
822.907	147.97
823.085	162.3
823.262	102.91
823.44	123.39
823.618	147.97
823.796	186.88
823.974	84.48
824.152	115.2
824.329	135.68
824.507	64
824.685	68.09
824.863	107.01
825.04	64
825.218	88.57
825.396	131.58
825.574	104.96
825.751	141.82
825.929	170.49
826.107	107.01
826.284	107.01
826.462	166.4
826.639	61.95
826.817	55.81
826.994	139.77
827.172	117.25
827.349	82.43
827.527	92.67
827.704	180.73
827.882	92.67
828.059	174.59
828.237	98.81
828.414	29.18
828.591	129.53
828.769	137.73
828.946	131.58
829.124	94.72
829.301	88.57
829.478	111.1
829.655	96.77
829.833	137.73
830.01	84.48
830.187	82.43
830.364	90.62
830.542	45.57
830.719	92.67
830.896	100.86
831.073	88.57
831.25	113.15
831.427	72.19
831.604	104.96
831.782	96.77
831.959	141.82
832.136	152.06
832.313	82.43
832.49	18.94
832.667	139.77
832.844	131.58
833.021	94.72
833.198	74.24
833.374	121.34
833.551	59.9
833.728	88.57
833.905	141.82
834.082	137.73
834.259	156.16
834.436	141.82
834.612	123.39
834.789	139.77
834.966	94.72
835.143	-26.11
835.319	10.75
835.496	107.01
835.673	152.06
835.85	41.47
836.026	33.28
836.203	125.44
836.38	57.86
836.556	70.14
836.733	66.05
836.909	76.29
837.086	82.43
837.262	78.33
837.439	104.96
837.616	102.91
837.792	53.76
837.968	66.05
838.145	51.71
838.321	23.04
838.498	78.33
838.674	90.62
838.851	86.53
839.027	72.19
839.203	70.14
839.38	82.43
839.556	45.57
839.732	43.52
839.909	-1.54
840.085	135.68
840.261	90.62
840.437	92.67
840.614	117.25
840.79	68.09
840.966	68.09
841.142	84.48
841.318	49.66
841.494	92.67
841.671	-11.78
841.847	123.39
842.023	25.09
842.199	61.95
842.375	100.86
842.551	39.42
842.727	49.66
842.903	47.62
843.079	-9.73
843.255	109.05
843.431	78.33
843.607	74.24
843.783	51.71
843.959	92.67
844.134	-11.78
844.31	78.33
844.486	-46.59
844.662	94.72
844.838	14.85
845.013	37.38
845.189	49.66
845.365	107.01
845.541	90.62
845.716	82.43
845.892	66.05
846.068	119.29
846.244	70.14
846.419	51.71
846.595	10.75
846.77	117.25
846.946	74.24
847.122	84.48
847.297	92.67
847.473	111.1
847.648	68.09
847.824	61.95
847.999	53.76
848.175	55.81
848.35	64
848.526	88.57
848.701	35.33
848.876	61.95
849.052	0.51
849.227	47.62
849.403	61.95
849.578	20.99
849.753	57.86
849.929	133.63
850.104	88.57
850.279	43.52
850.454	59.9
850.63	66.05
850.805	14.85
850.98	25.09
851.155	90.62
851.33	92.67
851.505	88.57
851.681	82.43
851.856	16.9
852.031	49.66
852.206	90.62
852.381	29.18
852.556	53.76
852.731	-7.68
852.906	94.72
853.081	43.52
853.256	80.38
853.431	49.66
853.606	74.24
853.781	45.57
853.956	45.57
854.131	68.09
854.305	47.62
854.48	61.95
854.655	35.33
854.83	39.42
855.005	-1.54
855.18	76.29
855.354	43.52
855.529	8.7
855.704	6.66
855.879	156.16
856.053	109.05
856.228	-9.73
856.403	90.62
856.577	84.48
856.752	23.04
856.926	64
857.101	-3.58
857.276	-46.59
857.45	76.29
857.625	117.25
857.799	-24.06
857.974	47.62
858.148	53.76
858.323	35.33
858.497	6.66
858.672	-40.45
858.846	86.53
859.02	76.29
859.195	-26.11
859.369	49.66
859.543	31.23
859.718	6.66
859.892	117.25
860.066	109.05
860.241	6.66
860.415	33.28
860.589	29.18
860.763	-24.06
860.938	70.14
861.112	-11.78
861.286	43.52
861.46	-1.54
861.634	39.42
861.808	76.29
861.982	35.33
862.157	104.96
862.331	68.09
862.505	51.71
862.679	-38.4
862.853	2.56
863.027	-13.82
863.201	80.38
863.375	43.52
863.549	61.95
863.722	53.76
863.896	20.99
864.07	-19.97
864.244	55.81
864.418	68.09
864.592	31.23
864.766	10.75
864.939	18.94
865.113	8.7
865.287	74.24
865.461	-22.02
865.634	57.86
865.808	-7.68
865.982	-9.73
866.156	12.8
866.329	0.51
866.503	-28.16
866.676	96.77
866.85	0.51
867.024	64
867.197	43.52
867.371	-1.54
867.544	-13.82
867.718	18.94
867.891	61.95
868.065	10.75
868.238	-26.11
868.412	12.8
868.585	-58.88
868.759	18.94
868.932	0.51
869.105	27.14
869.279	94.72
869.452	35.33
869.625	-9.73
869.799	29.18
869.972	59.9
870.145	-42.5
870.319	29.18
870.492	-11.78
870.665	-62.98
870.838	72.19
871.011	-69.12
871.185	-22.02
871.358	37.38
871.531	14.85
871.704	20.99
871.877	39.42
872.05	-22.02
872.223	49.66
872.396	-7.68
872.569	45.57
872.742	-17.92
872.915	64
873.088	10.75
873.261	4.61
873.434	53.76
873.607	47.62
873.78	-32.26
873.953	27.14
874.126	-69.12
874.299	33.28
874.471	-5.63
874.644	100.86
874.817	53.76
874.99	6.66
875.163	-11.78
875.335	47.62
875.508	76.29
875.681	23.04
875.853	76.29
876.026	37.38
876.199	23.04
876.371	74.24
876.544	-32.26
876.717	64
876.889	33.28
877.062	53.76
877.234	-26.11
877.407	-46.59
877.579	25.09
877.752	72.19
877.924	51.71
878.097	41.47
878.269	16.9
878.442	49.66
878.614	70.14
878.786	-1.54
878.959	14.85
879.131	6.66
879.303	49.66
879.476	-13.82
879.648	-11.78
879.82	37.38
879.993	70.14
880.165	27.14
880.337	-46.59
880.509	31.23
880.681	-26.11
880.854	55.81
881.026	68.09
881.198	94.72
881.37	27.14
881.542	-48.64
881.714	35.33
881.886	20.99
882.058	8.7
882.23	70.14
882.402	25.09
882.574	-11.78
882.746	-15.87
882.918	-50.69
883.09	-15.87
883.262	12.8
883.434	6.66
883.606	-7.68
883.778	68.09
883.95	102.91
884.122	10.75
884.293	0.51
884.465	-3.58
884.637	39.42
884.809	-3.58
884.98	-9.73
885.152	6.66
885.324	68.09
885.496	10.75
885.667	-1.54
885.839	14.85
886.011	53.76
886.182	33.28
886.354	-38.4
886.525	61.95
886.697	82.43
886.869	14.85
887.04	-17.92
887.212	66.05
887.383	123.39
887.555	0.51
887.726	51.71
887.897	2.56
888.069	2.56
888.24	92.67
888.412	12.8
888.583	-73.21
888.754	14.85
888.926	-73.21
889.097	-34.3
889.268	-13.82
889.44	117.25
889.611	14.85
889.782	-7.68
889.953	10.75
890.125	12.8
890.296	0.51
890.467	-1.54
890.638	25.09
890.809	18.94
890.98	-9.73
891.151	-7.68
891.323	84.48
891.494	37.38
891.665	53.76
891.836	35.33
892.007	-11.78
892.178	6.66
892.349	23.04
892.52	-22.02
892.691	37.38
892.862	6.66
893.032	12.8
893.203	25.09
893.374	-1.54
893.545	43.52
893.716	-67.07
893.887	43.52
894.057	-40.45
894.228	-13.82
894.399	12.8
894.57	-28.16
894.74	-38.4
894.911	2.56
895.082	-11.78
895.253	-44.54
895.423	-67.07
895.594	-48.64
895.764	41.47
895.935	-28.16
896.106	-13.82
896.276	49.66
896.447	23.04
896.617	-60.93
896.788	0.51
896.958	37.38
897.129	-5.63
897.299	39.42
897.47	55.81
897.64	23.04
897.81	-32.26
897.981	70.14
898.151	14.85
898.322	-5.63
898.492	-28.16
898.662	-73.21
898.832	41.47
899.003	-1.54
899.173	59.9
899.343	-52.74
899.513	-11.78
