Data from USB4F104151__5__11-44-25-235.txt Node

Date: Fri Mar 14 11:44:25 EDT 2025
User: louis
Spectrometer: USB4F10415
Trigger mode: 4
Integration Time (sec): 2.000000E-2
Scans to average: 1
Electric dark correction enabled: true
Nonlinearity correction enabled: false
Boxcar width: 0
XAxis mode: Wavelengths
Number of Pixels in Spectrum: 3648
>>>>>Begin Spectral Data<<<<<
178.204	-88.06
178.424	-88.06
178.644	-88.06
178.864	-61.44
179.084	-94.21
179.304	-55.3
179.524	114.69
179.744	65.54
179.964	-22.53
180.184	-22.53
180.404	-32.77
180.624	22.53
180.844	-77.82
181.064	38.91
181.283	-2.05
181.503	-16.38
181.723	-12.29
181.943	-34.82
182.163	8.19
182.383	90.11
182.602	-14.34
182.822	81.92
183.042	34.82
183.262	-4.1
183.482	-32.77
183.701	-2.05
183.921	28.67
184.141	10.24
184.361	67.58
184.58	-34.82
184.8	18.43
185.02	-18.43
185.239	67.58
185.459	65.54
185.679	79.87
185.898	-2.05
186.118	75.77
186.338	10.24
186.557	24.58
186.777	28.67
186.997	83.97
187.216	-12.29
187.436	83.97
187.655	81.92
187.875	2.05
188.095	63.49
188.314	32.77
188.534	0
188.753	18.43
188.973	-34.82
189.192	20.48
189.412	24.58
189.631	57.34
189.851	75.77
190.07	88.06
190.29	38.91
190.509	-24.58
190.729	65.54
190.948	83.97
191.168	92.16
191.387	16.38
191.607	-45.06
191.826	-30.72
192.045	12.29
192.265	28.67
192.484	-26.62
192.704	-12.29
192.923	12.29
193.142	75.77
193.362	102.4
193.581	63.49
193.8	34.82
194.02	63.49
194.239	100.35
194.458	12.29
194.678	-36.86
194.897	-10.24
195.116	98.3
195.335	24.58
195.555	0
195.774	28.67
195.993	38.91
196.212	-36.86
196.432	-2.05
196.651	40.96
196.87	-14.34
197.089	81.92
197.308	10.24
197.528	40.96
197.747	-26.62
197.966	47.1
198.185	4.1
198.404	-45.06
198.623	-55.3
198.842	-18.43
199.062	-32.77
199.281	88.06
199.5	18.43
199.719	22.53
199.938	65.54
200.157	47.1
200.376	36.86
200.595	38.91
200.814	69.63
201.033	-6.14
201.252	63.49
201.471	6.14
201.69	45.06
201.909	4.1
202.128	100.35
202.347	63.49
202.566	18.43
202.785	20.48
203.004	12.29
203.223	6.14
203.442	-26.62
203.661	69.63
203.879	61.44
204.098	49.15
204.317	53.25
204.536	77.82
204.755	65.54
204.974	53.25
205.193	45.06
205.411	51.2
205.63	24.58
205.849	96.25
206.068	18.43
206.287	-6.14
206.505	22.53
206.724	-22.53
206.943	28.67
207.162	59.39
207.381	-20.48
207.599	69.63
207.818	43.01
208.037	4.1
208.255	-20.48
208.474	0
208.693	67.58
208.911	-22.53
209.13	43.01
209.349	49.15
209.567	22.53
209.786	26.62
210.005	36.86
210.223	40.96
210.442	-34.82
210.661	32.77
210.879	6.14
211.098	75.77
211.316	30.72
211.535	61.44
211.753	4.1
211.972	-4.1
212.191	24.58
212.409	-4.1
212.628	6.14
212.846	16.38
213.065	30.72
213.283	43.01
213.502	4.1
213.72	67.58
213.938	4.1
214.157	18.43
214.375	90.11
214.594	-8.19
214.812	-18.43
215.031	59.39
215.249	-16.38
215.467	-14.34
215.686	-8.19
215.904	30.72
216.122	30.72
216.341	114.69
216.559	38.91
216.778	-6.14
216.996	53.25
217.214	-14.34
217.432	4.1
217.651	8.19
217.869	38.91
218.087	71.68
218.306	51.2
218.524	10.24
218.742	61.44
218.96	73.73
219.179	-14.34
219.397	6.14
219.615	55.3
219.833	59.39
220.051	6.14
220.27	96.25
220.488	-26.62
220.706	-18.43
220.924	38.91
221.142	59.39
221.36	88.06
221.578	32.77
221.796	75.77
222.015	-40.96
222.233	36.86
222.451	-10.24
222.669	-2.05
222.887	104.45
223.105	6.14
223.323	-45.06
223.541	12.29
223.759	69.63
223.977	-45.06
224.195	-10.24
224.413	-22.53
224.631	10.24
224.849	34.82
225.067	-24.58
225.285	-40.96
225.503	34.82
225.721	-2.05
225.939	67.58
226.157	61.44
226.375	47.1
226.592	77.82
226.81	71.68
227.028	63.49
227.246	34.82
227.464	47.1
227.682	59.39
227.9	51.2
228.117	40.96
228.335	-16.38
228.553	116.73
228.771	36.86
228.989	51.2
229.206	51.2
229.424	-4.1
229.642	-4.1
229.86	-4.1
230.077	43.01
230.295	53.25
230.513	88.06
230.731	77.82
230.948	108.54
231.166	55.3
231.384	28.67
231.601	61.44
231.819	73.73
232.037	32.77
232.254	40.96
232.472	32.77
232.689	-10.24
232.907	26.62
233.125	30.72
233.342	32.77
233.56	14.34
233.777	-20.48
233.995	-55.3
234.213	34.82
234.43	26.62
234.648	6.14
234.865	38.91
235.083	26.62
235.3	16.38
235.518	34.82
235.735	-18.43
235.953	47.1
236.17	22.53
236.388	2.05
236.605	63.49
236.822	106.49
237.04	38.91
237.257	71.68
237.475	26.62
237.692	6.14
237.909	51.2
238.127	47.1
238.344	30.72
238.562	57.34
238.779	8.19
238.996	49.15
239.214	6.14
239.431	75.77
239.648	-28.67
239.865	112.64
240.083	-18.43
240.3	47.1
240.517	59.39
240.735	8.19
240.952	47.1
241.169	79.87
241.386	49.15
241.603	4.1
241.821	-45.06
242.038	73.73
242.255	28.67
242.472	-34.82
242.689	112.64
242.907	-26.62
243.124	-30.72
243.341	81.92
243.558	65.54
243.775	-18.43
243.992	10.24
244.209	-22.53
244.426	2.05
244.643	4.1
244.86	34.82
245.078	34.82
245.295	-8.19
245.512	20.48
245.729	40.96
245.946	69.63
246.163	53.25
246.38	-8.19
246.597	47.1
246.814	38.91
247.031	110.59
247.248	-30.72
247.464	69.63
247.681	51.2
247.898	28.67
248.115	32.77
248.332	59.39
248.549	38.91
248.766	45.06
248.983	71.68
249.2	38.91
249.417	43.01
249.633	59.39
249.85	79.87
250.067	40.96
250.284	69.63
250.501	69.63
250.717	43.01
250.934	14.34
251.151	71.68
251.368	22.53
251.585	86.01
251.801	6.14
252.018	67.58
252.235	10.24
252.451	96.25
252.668	4.1
252.885	88.06
253.102	100.35
253.318	26.62
253.535	47.1
253.752	-34.82
253.968	0
254.185	2.05
254.401	-2.05
254.618	88.06
254.835	26.62
255.051	137.21
255.268	59.39
255.484	43.01
255.701	-22.53
255.917	65.54
256.134	-30.72
256.351	24.58
256.567	4.1
256.784	57.34
257	26.62
257.217	14.34
257.433	77.82
257.65	26.62
257.866	67.58
258.082	2.05
258.299	38.91
258.515	51.2
258.732	36.86
258.948	22.53
259.165	-22.53
259.381	22.53
259.597	-20.48
259.814	28.67
260.03	10.24
260.246	129.02
260.463	38.91
260.679	73.73
260.895	-28.67
261.112	92.16
261.328	16.38
261.544	45.06
261.761	-18.43
261.977	53.25
262.193	12.29
262.409	43.01
262.626	65.54
262.842	55.3
263.058	38.91
263.274	73.73
263.49	18.43
263.707	65.54
263.923	69.63
264.139	-10.24
264.355	40.96
264.571	40.96
264.787	20.48
265.004	40.96
265.22	73.73
265.436	51.2
265.652	22.53
265.868	-16.38
266.084	16.38
266.3	2.05
266.516	-28.67
266.732	47.1
266.948	24.58
267.164	77.82
267.38	-4.1
267.596	118.78
267.812	57.34
268.028	40.96
268.244	-2.05
268.46	26.62
268.676	20.48
268.892	4.1
269.108	10.24
269.324	49.15
269.54	-6.14
269.756	88.06
269.972	8.19
270.188	69.63
270.403	-2.05
270.619	114.69
270.835	14.34
271.051	94.21
271.267	20.48
271.483	49.15
271.698	83.97
271.914	67.58
272.13	34.82
272.346	-12.29
272.562	38.91
272.777	96.25
272.993	30.72
273.209	-6.14
273.425	45.06
273.64	-45.06
273.856	0
274.072	-6.14
274.287	-22.53
274.503	34.82
274.719	57.34
274.934	6.14
275.15	18.43
275.366	16.38
275.581	-79.87
275.797	38.91
276.012	55.3
276.228	75.77
276.444	2.05
276.659	104.45
276.875	4.1
277.09	45.06
277.306	69.63
277.521	71.68
277.737	75.77
277.952	92.16
278.168	16.38
278.383	110.59
278.599	40.96
278.814	26.62
279.03	10.24
279.245	96.25
279.461	16.38
279.676	34.82
279.892	32.77
280.107	14.34
280.322	36.86
280.538	38.91
280.753	90.11
280.969	92.16
281.184	118.78
281.399	34.82
281.615	40.96
281.83	-22.53
282.045	12.29
282.26	2.05
282.476	53.25
282.691	38.91
282.906	38.91
283.122	61.44
283.337	51.2
283.552	79.87
283.767	61.44
283.983	79.87
284.198	98.3
284.413	26.62
284.628	-12.29
284.843	77.82
285.058	92.16
285.274	112.64
285.489	10.24
285.704	67.58
285.919	38.91
286.134	45.06
286.349	24.58
286.564	47.1
286.779	98.3
286.995	-2.05
287.21	-43.01
287.425	61.44
287.64	38.91
287.855	47.1
288.07	47.1
288.285	-47.1
288.5	61.44
288.715	-14.34
288.93	69.63
289.145	34.82
289.36	69.63
289.575	-4.1
289.79	45.06
290.004	8.19
290.219	55.3
290.434	-28.67
290.649	43.01
290.864	30.72
291.079	131.07
291.294	114.69
291.509	26.62
291.724	2.05
291.938	104.45
292.153	-16.38
292.368	-4.1
292.583	71.68
292.798	38.91
293.012	61.44
293.227	45.06
293.442	55.3
293.657	65.54
293.871	55.3
294.086	12.29
294.301	131.07
294.516	30.72
294.73	47.1
294.945	92.16
295.16	45.06
295.374	88.06
295.589	26.62
295.804	4.1
296.018	71.68
296.233	24.58
296.447	30.72
296.662	36.86
296.877	20.48
297.091	104.45
297.306	28.67
297.52	-2.05
297.735	92.16
297.949	-43.01
298.164	79.87
298.378	38.91
298.593	-20.48
298.807	0
299.022	100.35
299.236	22.53
299.451	14.34
299.665	40.96
299.88	2.05
300.094	24.58
300.309	-14.34
300.523	4.1
300.737	94.21
300.952	40.96
301.166	14.34
301.381	79.87
301.595	45.06
301.809	69.63
302.024	-2.05
302.238	49.15
302.452	24.58
302.667	83.97
302.881	116.73
303.095	100.35
303.309	53.25
303.524	-8.19
303.738	-28.67
303.952	40.96
304.166	59.39
304.381	-20.48
304.595	8.19
304.809	-12.29
305.023	38.91
305.237	24.58
305.452	47.1
305.666	26.62
305.88	59.39
306.094	61.44
306.308	104.45
306.522	73.73
306.736	36.86
306.95	16.38
307.164	20.48
307.379	-65.53
307.593	26.62
307.807	63.49
308.021	4.1
308.235	63.49
308.449	14.34
308.663	-14.34
308.877	81.92
309.091	57.34
309.305	0
309.519	59.39
309.733	110.59
309.947	6.14
310.161	112.64
310.374	59.39
310.588	104.45
310.802	61.44
311.016	16.38
311.23	65.54
311.444	34.82
311.658	53.25
311.872	92.16
312.085	81.92
312.299	59.39
312.513	79.87
312.727	32.77
312.941	34.82
313.154	36.86
313.368	16.38
313.582	71.68
313.796	22.53
314.009	8.19
314.223	83.97
314.437	57.34
314.651	-57.34
314.864	61.44
315.078	69.63
315.292	14.34
315.505	49.15
315.719	96.25
315.933	118.78
316.146	94.21
316.36	-12.29
316.573	88.06
316.787	6.14
317.001	120.83
317.214	-24.58
317.428	71.68
317.641	32.77
317.855	49.15
318.068	53.25
318.282	104.45
318.495	75.77
318.709	65.54
318.922	75.77
319.136	153.6
319.349	67.58
319.563	12.29
319.776	18.43
319.99	-18.43
320.203	34.82
320.417	100.35
320.63	8.19
320.843	79.87
321.057	137.21
321.27	28.67
321.483	57.34
321.697	108.54
321.91	79.87
322.124	47.1
322.337	75.77
322.55	-16.38
322.763	59.39
322.977	10.24
323.19	-18.43
323.403	-24.58
323.617	110.59
323.83	65.54
324.043	-6.14
324.256	65.54
324.469	79.87
324.683	131.07
324.896	18.43
325.109	63.49
325.322	79.87
325.535	83.97
325.748	79.87
325.962	96.25
326.175	24.58
326.388	38.91
326.601	-18.43
326.814	26.62
327.027	77.82
327.24	69.63
327.453	28.67
327.666	20.48
327.879	-12.29
328.092	63.49
328.305	30.72
328.518	36.86
328.731	77.82
328.944	40.96
329.157	65.54
329.37	0
329.583	110.59
329.796	102.4
330.009	71.68
330.222	122.88
330.435	96.25
330.648	63.49
330.861	0
331.073	30.72
331.286	36.86
331.499	100.35
331.712	-20.48
331.925	30.72
332.138	38.91
332.35	22.53
332.563	43.01
332.776	88.06
332.989	16.38
333.202	83.97
333.414	49.15
333.627	108.54
333.84	32.77
334.053	98.3
334.265	20.48
334.478	57.34
334.691	57.34
334.903	61.44
335.116	4.1
335.329	51.2
335.541	133.12
335.754	43.01
335.966	86.01
336.179	18.43
336.392	61.44
336.604	71.68
336.817	49.15
337.029	26.62
337.242	30.72
337.454	-20.48
337.667	14.34
337.88	94.21
338.092	38.91
338.305	53.25
338.517	55.3
338.729	63.49
338.942	24.58
339.154	57.34
339.367	43.01
339.579	67.58
339.792	55.3
340.004	-28.67
340.217	30.72
340.429	81.92
340.641	65.54
340.854	-24.58
341.066	-28.67
341.278	90.11
341.491	49.15
341.703	28.67
341.915	-8.19
342.128	36.86
342.34	-4.1
342.552	100.35
342.764	-2.05
342.977	69.63
343.189	53.25
343.401	43.01
343.613	98.3
343.826	65.54
344.038	-28.67
344.25	65.54
344.462	0
344.674	108.54
344.886	69.63
345.099	88.06
345.311	4.1
345.523	55.3
345.735	20.48
345.947	67.58
346.159	86.01
346.371	-6.14
346.583	28.67
346.795	131.07
347.007	-12.29
347.219	77.82
347.431	43.01
347.643	86.01
347.855	0
348.067	59.39
348.279	63.49
348.491	20.48
348.703	26.62
348.915	73.73
349.127	55.3
349.339	102.4
349.551	47.1
349.763	28.67
349.975	4.1
350.187	69.63
350.399	-28.67
350.61	79.87
350.822	69.63
351.034	55.3
351.246	47.1
351.458	47.1
351.669	22.53
351.881	45.06
352.093	45.06
352.305	118.78
352.517	126.97
352.728	18.43
352.94	75.77
353.152	133.12
353.363	45.06
353.575	45.06
353.787	102.4
353.999	43.01
354.21	139.26
354.422	20.48
354.633	102.4
354.845	73.73
355.057	88.06
355.268	71.68
355.48	98.3
355.692	-6.14
355.903	6.14
356.115	-14.34
356.326	-30.72
356.538	40.96
356.749	116.73
356.961	67.58
357.172	-4.1
357.384	49.15
357.595	57.34
357.807	45.06
358.018	73.73
358.23	79.87
358.441	88.06
358.653	73.73
358.864	63.49
359.075	38.91
359.287	47.1
359.498	90.11
359.709	34.82
359.921	26.62
360.132	75.77
360.344	-28.67
360.555	57.34
360.766	55.3
360.977	83.97
361.189	57.34
361.4	96.25
361.611	116.73
361.823	104.45
362.034	61.44
362.245	43.01
362.456	51.2
362.667	110.59
362.879	49.15
363.09	51.2
363.301	34.82
363.512	45.06
363.723	30.72
363.935	-18.43
364.146	22.53
364.357	110.59
364.568	104.45
364.779	79.87
364.99	57.34
365.201	32.77
365.412	59.39
365.623	34.82
365.834	6.14
366.045	71.68
366.256	65.54
366.467	67.58
366.678	116.73
366.889	94.21
367.1	38.91
367.311	30.72
367.522	151.55
367.733	114.69
367.944	98.3
368.155	43.01
368.366	61.44
368.577	96.25
368.788	79.87
368.999	75.77
369.209	-8.19
369.42	71.68
369.631	53.25
369.842	83.97
370.053	57.34
370.264	77.82
370.474	86.01
370.685	83.97
370.896	90.11
371.107	49.15
371.317	18.43
371.528	71.68
371.739	10.24
371.95	108.54
372.16	90.11
372.371	-4.1
372.582	57.34
372.792	26.62
373.003	75.77
373.214	110.59
373.424	53.25
373.635	67.58
373.846	96.25
374.056	49.15
374.267	18.43
374.477	73.73
374.688	49.15
374.898	90.11
375.109	112.64
375.319	-28.67
375.53	88.06
375.74	92.16
375.951	102.4
376.161	79.87
376.372	67.58
376.582	67.58
376.793	55.3
377.003	24.58
377.214	51.2
377.424	26.62
377.635	55.3
377.845	61.44
378.055	81.92
378.266	-2.05
378.476	63.49
378.686	90.11
378.897	126.97
379.107	94.21
379.317	43.01
379.528	36.86
379.738	22.53
379.948	6.14
380.158	53.25
380.369	88.06
380.579	8.19
380.789	77.82
380.999	55.3
381.21	59.39
381.42	96.25
381.63	26.62
381.84	118.78
382.05	71.68
382.261	63.49
382.471	104.45
382.681	75.77
382.891	69.63
383.101	118.78
383.311	36.86
383.521	63.49
383.731	-16.38
383.941	114.69
384.151	40.96
384.361	47.1
384.571	118.78
384.781	83.97
384.991	122.88
385.201	178.17
385.411	40.96
385.621	92.16
385.831	67.58
386.041	49.15
386.251	122.88
386.461	112.64
386.671	116.73
386.881	71.68
387.091	92.16
387.301	92.16
387.511	108.54
387.72	34.82
387.93	149.5
388.14	75.77
388.35	75.77
388.56	96.25
388.769	20.48
388.979	108.54
389.189	45.06
389.399	67.58
389.609	108.54
389.818	122.88
390.028	88.06
390.238	75.77
390.447	53.25
390.657	124.93
390.867	96.25
391.076	69.63
391.286	63.49
391.496	90.11
391.705	94.21
391.915	28.67
392.125	137.21
392.334	96.25
392.544	112.64
392.753	81.92
392.963	73.73
393.172	24.58
393.382	92.16
393.591	194.56
393.801	88.06
394.01	141.31
394.22	96.25
394.429	69.63
394.639	122.88
394.848	114.69
395.058	126.97
395.267	83.97
395.477	120.83
395.686	69.63
395.895	184.32
396.105	169.98
396.314	108.54
396.524	161.79
396.733	104.45
396.942	149.5
397.152	149.5
397.361	172.03
397.57	147.45
397.78	79.87
397.989	129.02
398.198	143.36
398.407	106.49
398.617	69.63
398.826	159.74
399.035	96.25
399.244	88.06
399.453	96.25
399.663	198.65
399.872	149.5
400.081	157.69
400.29	188.41
400.499	118.78
400.708	116.73
400.917	106.49
401.127	184.32
401.336	118.78
401.545	151.55
401.754	151.55
401.963	141.31
402.172	104.45
402.381	79.87
402.59	104.45
402.799	206.84
403.008	149.5
403.217	163.84
403.426	198.65
403.635	106.49
403.844	141.31
404.053	233.47
404.262	167.93
404.471	264.19
404.68	172.03
404.888	217.08
405.097	215.04
405.306	282.62
405.515	186.37
405.724	206.84
405.933	280.57
406.142	264.19
406.35	307.2
406.559	198.65
406.768	266.24
406.977	282.62
407.185	180.22
407.394	274.43
407.603	239.61
407.812	368.63
408.02	303.1
408.229	337.91
408.438	243.71
408.646	370.68
408.855	385.02
409.064	364.54
409.272	348.15
409.481	432.12
409.69	436.22
409.898	432.12
410.107	440.31
410.315	468.98
410.524	415.74
410.733	405.5
410.941	522.23
411.15	479.22
411.358	468.98
411.567	595.96
411.775	516.09
411.984	608.25
412.192	583.67
412.401	649.21
412.609	665.59
412.818	657.4
413.026	649.21
413.234	706.55
413.443	747.51
413.651	876.53
413.86	831.48
414.068	790.52
414.276	864.24
414.485	897.01
414.693	858.1
414.901	931.83
415.11	960.5
415.318	897.01
415.526	1015.79
415.734	1013.74
415.943	1060.85
416.151	1015.79
416.359	1101.81
416.567	1212.4
416.776	1112.05
416.984	1239.02
417.192	1230.83
417.4	1351.66
417.608	1318.89
417.817	1476.59
418.025	1388.52
418.233	1632.23
418.441	1513.45
418.649	1621.99
418.857	1736.68
419.065	1691.62
419.273	1611.75
419.481	1802.21
419.689	1873.89
419.897	2056.16
420.105	1929.19
420.313	2084.83
420.521	2181.09
420.729	2136.03
420.937	2250.72
421.145	2332.64
421.353	2490.33
421.561	2516.95
421.769	2607.06
421.977	2723.8
422.185	2766.81
422.393	2904.02
422.601	2928.6
422.809	3020.75
423.017	3078.1
423.224	3170.26
423.432	3233.74
423.64	3346.38
423.848	3751.88
424.056	3608.52
424.263	3760.07
424.471	3874.76
424.679	3821.51
424.887	4118.47
425.094	4192.19
425.302	4302.78
425.51	4548.54
425.718	4399.04
425.925	4757.43
426.133	4837.3
426.341	5076.91
426.548	5234.61
426.756	5185.46
426.964	5294
427.171	5797.8
427.379	5676.97
427.586	6010.79
427.794	6109.09
428.001	6309.79
428.209	6573.98
428.417	6674.33
428.624	6860.7
428.832	7059.35
429.039	6891.41
429.247	6963.09
429.454	7733.13
429.662	8198.02
429.869	7573.39
430.076	8005.51
430.284	7696.27
430.491	8290.18
430.699	8589.18
430.906	8671.1
431.114	8716.15
431.321	9113.46
431.528	9459.57
431.736	9916.26
431.943	10391.39
432.15	10137.45
432.358	10080.1
432.565	10639.2
432.772	10788.7
432.979	11267.92
433.187	11464.53
433.394	11568.98
433.601	12308.29
433.808	12402.5
434.016	12214.09
434.223	12902.2
434.43	13520.69
434.637	13227.83
434.844	14339.88
435.052	14470.95
435.259	14184.23
435.466	14491.43
435.673	14313.25
435.88	15138.58
436.087	16049.93
436.294	16162.57
436.501	15787.79
436.708	16137.99
436.915	16697.09
437.122	17266.42
437.329	17260.28
437.537	17817.33
437.743	17897.2
437.95	18153.19
438.157	18888.42
438.364	19699.41
438.571	19447.51
438.778	19523.29
438.985	21425.85
439.192	20532.93
439.399	21409.47
439.606	20739.78
439.813	22054.58
440.02	23299.74
440.227	22900.39
440.433	22548.14
440.64	23682.71
440.847	23256.73
441.054	23893.65
441.261	25366.14
441.467	24913.54
441.674	25810.55
441.881	26486.38
442.088	26226.29
442.294	26474.09
442.501	27188.83
442.708	27686.49
442.914	28331.6
443.121	29611.58
443.328	28845.64
443.534	30963.24
443.741	30027.32
443.948	29689.4
444.154	31948.31
444.361	31663.64
444.568	32144.92
444.774	32058.9
444.981	32411.15
445.187	33283.59
445.394	34745.84
445.6	34143.74
445.807	37123.53
446.013	35829.21
446.22	36171.22
446.426	37762.5
446.633	38231.48
446.839	39568.8
447.046	37748.16
447.252	39669.15
447.459	39978.4
447.665	40088.99
447.871	41330.06
448.078	43056.49
448.284	41344.39
448.491	42321.27
448.697	44080.48
448.903	44703.06
449.11	44629.33
449.316	43953.51
449.522	44899.67
449.728	46202.17
449.935	46187.84
450.141	46822.71
450.347	47146.29
450.553	45759.81
450.76	47045.94
450.966	47942.95
451.172	47660.33
451.378	49011.99
451.584	47494.44
451.791	49165.59
451.997	48573.72
452.203	49161.49
452.409	49394.96
452.615	49374.48
452.821	47424.81
453.027	46759.22
453.233	49179.92
453.44	47703.34
453.646	47897.89
453.852	48098.59
454.058	49104.15
454.264	47281.45
454.47	48987.41
454.676	47273.26
454.882	48702.74
455.088	44623.19
455.294	45258.06
455.5	46069.06
455.705	46624.06
455.911	44641.62
456.117	43548.01
456.323	43216.24
456.529	40818.07
456.735	42763.64
456.941	41627.01
457.147	41057.68
457.352	39853.47
457.558	39605.67
457.764	38962.61
457.97	38581.68
458.176	38059.45
458.381	37973.44
458.587	36134.36
458.793	35818.97
458.999	34280.95
459.204	36601.3
459.41	35661.28
459.616	33396.23
459.821	33795.58
460.027	33197.57
460.233	32163.35
460.438	30942.76
460.644	31348.26
460.85	29746.75
461.055	29548.09
461.261	29380.16
461.466	27043.43
461.672	26404.46
461.878	28034.64
462.083	26312.3
462.289	25753.21
462.494	25734.78
462.7	24178.32
462.905	24084.11
463.111	24467.08
463.316	24841.86
463.522	24157.84
463.727	24125.07
463.932	24080.02
464.138	23817.88
464.343	24118.93
464.549	23430.81
464.754	24045.2
464.959	23750.29
465.165	23590.55
465.37	22417.07
465.575	22197.93
465.781	22984.35
465.986	23342.75
466.191	22279.85
466.397	21878.45
466.602	20692.68
466.807	21431.99
467.012	21841.59
467.218	21667.51
467.423	21145.28
467.628	21229.24
467.833	22372.01
468.038	21622.45
468.244	20737.73
468.449	21683.89
468.654	20956.86
468.859	20778.69
469.064	20534.98
469.269	20160.2
469.474	20203.21
469.679	20332.23
469.885	19556.05
470.09	20158.16
470.295	20262.6
470.5	19447.51
470.705	19650.26
470.91	19052.25
471.115	18894.56
471.32	19332.83
471.525	18970.33
471.73	18652.9
471.935	18634.47
472.139	17868.53
472.344	18228.97
472.549	18003.69
472.754	17768.18
472.959	17506.04
473.164	17080.06
473.369	17102.59
473.574	17559.28
473.778	17282.81
473.983	17041.15
474.188	16893.69
474.393	16152.33
474.598	16293.64
474.802	16285.45
475.007	16271.11
475.212	16041.74
475.417	15486.74
475.621	15603.47
475.826	15779.6
476.031	15329.05
476.235	14901.02
476.44	15138.58
476.645	14683.94
476.849	14655.26
477.054	14755.61
477.259	14599.97
477.463	14616.35
477.668	13938.48
477.872	14276.39
478.077	13934.38
478.282	13985.58
478.486	13627.18
478.691	13549.36
478.895	13664.05
479.1	13516.59
479.304	13504.31
479.509	13096.76
479.713	13225.78
479.918	13190.97
480.122	12683.07
480.326	12922.68
480.531	13002.55
480.735	12687.17
480.94	12717.89
481.144	13070.14
481.348	12531.52
481.553	12816.19
481.757	12160.84
481.961	12506.95
482.166	12902.2
482.37	12504.9
482.574	12480.32
482.778	12549.95
482.983	12793.66
483.187	12449.6
483.391	12484.42
483.595	12523.33
483.8	12269.38
484.004	12451.65
484.208	12640.06
484.412	12275.52
484.616	12422.98
484.821	12521.28
485.025	12181.32
485.229	12574.53
485.433	12205.89
485.637	12506.95
485.841	12298.05
486.045	12455.75
486.249	12369.73
486.453	12406.59
486.657	12531.52
486.861	12535.62
487.065	12060.49
487.269	12343.11
487.473	12496.71
487.677	12318.53
487.881	12552
488.085	12367.68
488.289	12547.9
488.493	12418.88
488.697	12617.54
488.901	12382.02
489.105	12511.04
489.309	12545.86
489.512	12465.99
489.716	12468.03
489.92	12506.95
490.124	12670.78
490.328	12777.28
490.531	12451.65
490.735	12584.77
490.939	12654.4
491.143	12535.62
491.346	12484.42
491.55	12629.82
491.754	13063.99
491.958	12896.06
492.161	12904.25
492.365	13174.58
492.569	13039.42
492.772	13059.9
492.976	13256.5
493.18	13438.77
493.383	13426.48
493.587	13319.99
493.79	13526.83
493.994	13338.42
494.197	13608.75
494.401	13768.49
494.605	13760.3
494.808	13694.77
495.012	13870.89
495.215	14047.02
495.419	14186.28
495.622	13965.1
495.825	14413.6
496.029	14352.17
496.232	14489.38
496.436	14501.67
496.639	14784.29
496.843	14937.88
497.046	14968.6
497.249	15095.58
497.453	15304.47
497.656	15425.3
497.859	15544.08
498.063	15470.36
498.266	15906.57
498.469	15927.05
498.673	16131.85
498.876	16181
499.079	16279.3
499.282	16336.65
499.485	16858.88
499.689	16860.93
499.892	16924.41
500.095	17035
500.298	17600.24
500.501	17417.97
500.705	17831.66
500.908	18206.44
501.111	18298.6
501.314	18456.29
501.517	18781.92
501.72	18763.49
501.923	18892.51
502.126	19334.87
502.329	19420.89
502.532	19476.18
502.735	19685.08
502.938	19744.47
503.141	20131.53
503.344	20514.5
503.547	20373.19
503.75	20854.47
503.953	20981.44
504.156	21472.95
504.359	21307.07
504.562	21464.76
504.765	21866.16
504.968	22085.29
505.17	22478.51
505.373	22580.9
505.576	22791.84
505.779	23205.53
505.982	23533.21
506.185	23512.73
506.387	23727.77
506.59	23910.04
506.793	24196.75
506.996	24131.22
507.198	24710.79
507.401	24702.6
507.604	25077.38
507.807	25323.13
508.009	25828.98
508.212	25853.56
508.415	26025.59
508.617	26136.18
508.82	26832.49
509.022	26498.67
509.225	27012.71
509.428	27602.52
509.63	27541.08
509.833	27551.32
510.035	28397.13
510.238	28046.93
510.44	28624.46
510.643	28853.83
510.845	29042.24
511.048	28823.11
511.25	29402.69
511.453	29472.32
511.655	30522.93
511.858	30170.68
512.06	30633.52
512.262	30674.48
512.465	30846.51
512.667	31393.31
512.87	31602.21
513.072	31786.52
513.274	32519.7
513.477	32556.56
513.679	32687.63
513.881	33095.18
514.084	33674.75
514.286	33674.75
514.488	33297.92
514.69	34471.41
514.893	34512.37
515.095	34059.77
515.297	34979.31
515.499	34803.18
515.701	35036.65
515.904	35851.74
516.106	35818.97
516.308	36333.01
516.51	36447.7
516.712	36572.63
516.914	37119.43
517.116	37596.61
517.318	37418.44
517.52	37443.01
517.722	37809.6
517.925	38274.49
518.127	38874.54
518.329	38827.44
518.531	38878.64
518.733	39816.61
518.935	39814.56
519.136	39783.84
519.338	40537.49
519.54	40484.25
519.742	41241.99
519.944	40983.95
520.146	41377.16
520.348	41784.71
520.55	41786.75
520.752	41852.29
520.954	42958.19
521.155	42605.94
521.357	42567.03
521.559	42986.86
521.761	43681.13
521.963	43629.93
522.164	43961.7
522.366	43793.76
522.568	44080.48
522.77	44516.7
522.971	45204.81
523.173	44440.92
523.375	44981.59
523.576	45229.39
523.778	45450.57
523.98	45917.51
524.181	45956.42
524.383	46075.2
524.584	46169.41
524.786	46570.81
524.988	46191.94
525.189	46789.94
525.391	46966.07
525.592	47447.34
525.794	46882.1
525.995	47381.81
526.197	47402.28
526.398	47588.65
526.6	48297.25
526.801	48188.7
527.003	48192.8
527.204	48153.89
527.406	48880.92
527.607	48393.5
527.808	48893.21
528.01	47889.7
528.211	48532.76
528.412	49364.24
528.614	49302.8
528.815	49186.07
529.016	49757.45
529.218	49411.34
529.419	49634.57
529.62	49825.03
529.822	49540.36
530.023	49370.38
530.224	49704.2
530.425	49571.08
530.626	49298.7
530.828	49609.99
531.029	50283.78
531.23	49366.29
531.431	49476.88
531.632	49650.95
531.833	50136.32
532.035	49868.04
532.236	49997.06
532.437	50730.23
532.638	50072.84
532.839	50261.25
533.04	50109.7
533.241	49777.93
533.442	50205.95
533.643	50199.81
533.844	50441.47
534.045	50443.52
534.246	49958.15
534.447	50652.41
534.648	50040.07
534.849	50767.1
535.05	49935.62
535.251	50257.15
535.451	49964.29
535.652	50607.36
535.853	50384.13
536.054	50193.67
536.255	50021.64
536.456	49847.56
536.657	50920.69
536.857	50179.33
537.058	49595.66
537.259	50320.64
537.46	50275.58
537.66	49763.59
537.861	50183.43
538.062	50152.71
538.263	50267.39
538.463	49708.3
538.664	49898.76
538.865	50642.17
539.065	50654.46
539.266	49683.72
539.466	50574.59
539.667	50046.21
539.868	50318.59
540.068	49851.66
540.269	49683.72
540.469	50304.26
540.67	49894.66
540.87	49691.91
541.071	49716.49
541.271	49978.63
541.472	49831.18
541.672	49634.57
541.873	50068.74
542.073	49628.43
542.274	50058.5
542.474	49620.23
542.675	49743.11
542.875	50072.84
543.075	49876.23
543.276	49327.38
543.476	50300.16
543.676	49712.39
543.877	50027.78
544.077	49847.56
544.277	49585.42
544.478	49800.46
544.678	49962.25
544.878	49564.94
545.078	49507.6
545.279	49220.88
545.479	49294.61
545.679	49941.77
545.879	49603.85
546.079	49655.05
546.28	49388.81
546.48	49550.6
546.68	49421.58
546.88	49556.75
547.08	49327.38
547.28	49317.14
547.48	49147.15
547.68	49806.6
547.88	49380.62
548.081	49274.13
548.281	49319.18
548.481	49098
548.681	49265.94
548.881	49208.59
549.081	49229.07
549.28	48721.18
549.48	49259.79
549.68	49212.69
549.88	49827.08
550.08	48979.22
550.28	49573.13
550.48	49138.96
550.68	49427.73
550.88	48915.73
551.08	49009.94
551.279	49294.61
551.479	48479.52
551.679	48811.29
551.879	49038.61
552.079	49116.43
552.278	48688.41
552.478	48971.03
552.678	48463.13
552.878	48479.52
553.077	48573.72
553.277	48633.11
553.477	48952.6
553.676	48874.77
553.876	48839.96
554.076	49048.85
554.275	48739.61
554.475	48014.63
554.674	48606.49
554.874	48622.87
555.074	48641.31
555.273	48829.72
555.473	48678.17
555.672	47930.66
555.872	48532.76
556.071	48360.73
556.271	48368.93
556.47	48114.98
556.67	47643.94
556.869	47725.86
557.068	48200.99
557.268	47928.61
557.467	48041.25
557.667	48096.55
557.866	47924.52
558.065	48381.21
558.265	48141.6
558.464	47234.35
558.663	47983.91
558.863	47586.6
559.062	48270.62
559.261	47424.81
559.461	47971.62
559.66	47361.33
559.859	47813.93
560.058	47615.27
560.258	47664.42
560.457	47349.04
560.656	47566.12
560.855	46937.4
561.054	47428.91
561.253	47269.17
561.453	47269.17
561.652	47525.16
561.851	47351.09
562.05	46947.64
562.249	46996.79
562.448	47498.54
562.647	47033.65
562.846	47199.54
563.045	47217.97
563.244	46824.76
563.443	47340.85
563.642	45933.89
563.841	46826.81
564.04	46540.09
564.239	47152.43
564.438	46050.63
564.637	46325.05
564.836	46501.18
565.035	46067.01
565.234	46452.03
565.432	45980.99
565.631	46341.44
565.83	46314.81
566.029	46107.97
566.228	45770.05
566.427	46136.64
566.625	45550.92
566.824	45264.21
567.023	46021.95
567.222	45104.46
567.42	45571.4
567.619	45866.31
567.818	45555.02
568.016	45350.22
568.215	45579.59
568.414	45202.77
568.612	45899.08
568.811	44995.92
569.01	45161.81
569.208	44666.2
569.407	45055.31
569.605	44326.24
569.804	45149.52
570.002	44424.54
570.201	44604.76
570.4	44512.6
570.598	44113.25
570.797	44170.59
570.995	44424.54
571.193	43773.28
571.392	44225.89
571.59	43744.61
571.789	44037.47
571.987	44244.32
572.186	44111.2
572.384	43677.03
572.582	44070.24
572.781	43926.88
572.979	43218.28
573.177	43599.21
573.376	43717.99
573.574	43294.06
573.772	43302.25
573.971	43115.89
574.169	42952.05
574.367	42757.49
574.565	43087.21
574.763	42866.03
574.962	42960.24
575.16	42235.26
575.358	42902.9
575.556	42007.93
575.754	42507.64
575.952	42311.03
576.151	42675.57
576.349	42085.76
576.547	42016.13
576.745	42388.86
576.943	41864.58
577.141	41530.76
577.339	41692.55
577.537	41608.58
577.735	41614.72
577.933	41504.13
578.131	41952.64
578.329	41260.43
578.527	41217.42
578.725	41473.42
578.923	41377.16
579.121	41198.99
579.319	40629.65
579.516	40834.45
579.714	40756.63
579.912	40607.12
580.11	40791.44
580.308	40590.74
580.506	40324.5
580.704	40111.52
580.901	40078.75
581.099	40549.78
581.297	40148.38
581.495	40326.55
581.692	40273.31
581.89	39669.15
582.088	39945.63
582.285	39878.05
582.483	40084.89
582.681	39435.69
582.878	39587.24
583.076	39187.88
583.274	39380.39
583.471	38847.92
583.669	39077.29
583.866	38946.22
584.064	38952.37
584.262	38358.45
584.459	38981.04
584.657	38931.89
584.854	39034.28
585.052	38190.52
585.249	38559.16
585.447	38471.09
585.644	37926.33
585.841	38350.26
586.039	38227.38
586.236	37825.98
586.434	37877.18
586.631	37780.93
586.828	37699.01
587.026	37455.3
587.223	37420.49
587.42	37033.42
587.618	37144.01
587.815	36845.01
588.012	36959.69
588.21	36879.82
588.407	37264.84
588.604	36910.54
588.801	36591.06
588.999	36494.8
589.196	36453.84
589.393	36875.73
589.59	36150.74
589.787	35931.61
589.984	35814.88
590.182	35904.99
590.379	36122.07
590.576	35571.17
590.773	35706.34
590.97	35767.77
591.167	35927.52
591.364	35505.63
591.561	35055.08
591.758	35290.6
591.955	35087.85
592.152	35605.98
592.349	35044.84
592.546	34768.37
592.743	34866.67
592.94	34528.75
593.137	34692.59
593.334	34668.01
593.531	33951.23
593.727	34659.82
593.924	34348.53
594.121	34031.1
594.318	34149.88
594.515	33564.16
594.712	33721.85
594.908	33537.54
595.105	33963.51
595.302	33443.33
595.499	33762.81
595.696	33328.64
595.892	33209.86
596.089	33467.91
596.286	33312.26
596.482	33129.99
596.679	33173
596.876	33455.62
597.072	32701.96
597.269	32914.95
597.466	32175.64
597.662	32323.09
597.859	32587.28
598.055	32437.78
598.252	32390.67
598.448	32175.64
598.645	32083.48
598.841	31524.38
599.038	31936.02
599.234	31755.8
599.431	31092.26
599.627	31151.65
599.824	31931.93
600.02	31378.98
600.217	31524.38
600.413	31503.9
600.609	31460.9
600.806	30613.04
601.002	31393.31
601.198	30684.72
601.395	30545.45
601.591	30727.72
601.787	30678.57
601.984	30422.58
602.18	30758.44
602.376	30760.49
602.572	30311.99
602.769	30211.63
602.965	29836.86
603.161	30221.87
603.357	29883.96
603.553	29779.51
603.75	29949.49
603.946	29652.54
604.142	29462.08
604.338	29492.8
604.534	29576.76
604.73	29185.6
604.926	29251.14
605.122	29142.6
605.318	29128.26
605.514	29251.14
605.71	28763.72
605.906	28659.27
606.102	28773.96
606.298	28786.25
606.494	28864.07
606.69	28747.34
606.886	28259.92
607.082	28325.46
607.278	28585.55
607.474	28388.94
607.67	28554.83
607.866	28063.32
608.062	28655.18
608.257	28151.38
608.453	28073.56
608.649	27922.01
608.845	27838.04
609.041	27854.42
609.236	27993.68
609.432	27745.88
609.628	27709.02
609.824	27610.71
610.019	27582.04
610.215	27598.43
610.411	27737.69
610.606	27575.9
610.802	27430.49
610.998	27129.44
611.193	27397.73
611.389	27278.94
611.584	27145.83
611.78	27020.9
611.976	27313.76
612.171	26758.76
612.367	26926.69
612.562	27111.01
612.758	26537.58
612.953	26779.24
613.149	27035.24
613.344	26740.33
613.539	27002.47
613.735	26805.86
613.93	26912.36
614.126	26556.01
614.321	26836.58
614.517	26766.95
614.712	26465.9
614.907	26205.81
615.103	26326.64
615.298	26420.84
615.493	26250.86
615.688	26136.18
615.884	26738.28
616.079	26111.6
616.274	26300.01
616.47	25734.78
616.665	26097.27
616.86	25771.64
617.055	25962.1
617.25	25925.24
617.445	25878.13
617.641	25362.04
617.836	25558.65
618.031	25599.61
618.226	25716.34
618.421	25190.02
618.616	25661.05
618.811	25224.83
619.006	25656.95
619.201	24927.88
619.396	25071.23
619.591	24696.46
619.786	25009.79
619.981	24635.02
620.176	24854.15
620.371	24518.28
620.566	24829.57
620.761	24352.4
620.956	24471.18
621.151	24026.77
621.346	24606.34
621.541	23836.31
621.735	24157.84
621.93	23754.39
622.125	23600.79
622.32	23203.49
622.515	23522.97
622.709	23303.84
622.904	23144.09
623.099	23203.49
623.294	23056.03
623.488	22763.17
623.683	22802.08
623.878	22625.96
624.072	22851.24
624.267	22378.15
624.462	22208.17
624.656	22060.72
624.851	22212.27
625.046	21532.34
625.24	21778.1
625.435	21724.85
625.629	21515.96
625.824	21507.77
626.018	21352.12
626.213	21130.94
626.407	21196.48
626.602	20768.45
626.796	21008.06
626.991	20909.76
627.185	20758.21
627.38	20553.41
627.574	20373.19
627.768	20408.01
627.963	20184.78
628.157	20035.28
628.352	20098.77
628.546	19779.28
628.74	20098.77
628.935	19818.19
629.129	19883.73
629.323	19191.52
629.517	19392.22
629.712	19273.43
629.906	19349.21
630.1	18949.85
630.294	19160.8
630.489	19156.7
630.683	18609.89
630.877	18609.89
631.071	18380.52
631.265	18718.43
631.459	18427.62
631.653	18499.3
631.848	18288.36
632.042	18130.67
632.236	18245.35
632.43	17868.53
632.624	17639.15
632.818	17772.27
633.012	17669.87
633.206	17573.62
633.4	17819.38
633.594	17313.53
633.788	17469.17
633.982	17293.05
634.176	17370.87
634.369	17114.87
634.563	16879.36
634.757	16684.8
634.951	16668.42
635.145	16523.01
635.339	16635.65
635.533	16617.22
635.726	16563.97
635.92	15986.44
636.114	16152.33
636.308	16359.17
636.501	15914.77
636.695	16424.71
636.889	15935.24
637.083	15847.18
637.276	15949.58
637.47	15738.64
637.664	15830.8
637.857	15378.2
638.051	15470.36
638.244	15419.16
638.438	15185.69
638.632	15384.34
638.825	15066.91
639.019	14997.28
639.212	15128.35
639.406	15011.61
639.599	15011.61
639.793	14806.81
639.986	14448.42
640.18	14794.53
640.373	14866.21
640.567	14356.26
640.76	14681.89
640.954	14327.59
641.147	14360.36
641.34	13995.82
641.534	14241.57
641.727	14145.32
641.92	14171.94
642.114	13844.27
642.307	13872.94
642.5	13866.8
642.694	13731.63
642.887	13719.34
643.08	13549.36
643.273	13438.77
643.467	13680.43
643.66	13428.53
643.853	13199.16
644.046	12941.11
644.239	13281.08
644.432	13147.96
644.626	13080.38
644.819	13115.19
645.012	12838.72
645.205	12812.09
645.398	12900.16
645.591	12476.23
645.784	12791.61
645.977	12767.04
646.17	12613.44
646.363	12298.05
646.556	12379.97
646.749	12328.77
646.942	12248.9
647.135	12046.15
647.328	12404.55
647.521	12148.55
647.714	11790.16
647.907	12031.82
648.099	11870.03
648.292	11812.68
648.485	11988.81
648.678	11605.84
648.871	11786.06
649.064	11505.49
649.256	11528.02
649.449	11450.19
649.642	11347.79
649.835	11188.05
650.027	11269.97
650.22	11212.63
650.413	11175.77
650.605	10893.15
650.798	11120.47
650.991	10733.4
651.183	10985.3
651.376	10766.17
651.568	10747.74
651.761	10612.57
651.954	10612.57
652.146	10692.44
652.339	10653.53
652.531	10637.15
652.724	10608.48
652.916	10329.95
653.109	10501.98
653.301	10262.37
653.494	10237.8
653.686	10084.2
653.879	10211.17
654.071	10063.72
654.263	9949.03
654.456	10121.06
654.648	10016.62
654.84	9762.67
655.033	9811.82
655.225	9834.35
655.417	9684.84
655.61	9805.67
655.802	9723.76
655.994	9498.48
656.186	9647.98
656.379	9455.47
656.571	9561.97
656.763	9293.68
656.955	9291.63
657.148	9383.79
657.34	9256.82
657.532	9185.14
657.724	9074.55
657.916	8927.1
658.108	9017.21
658.3	9052.02
658.492	8982.39
658.684	8959.86
658.876	8789.88
659.068	8564.61
659.26	8808.31
659.452	8642.43
659.644	8757.11
659.836	8658.81
660.028	8488.83
660.22	8482.69
660.412	8572.8
660.604	8259.46
660.796	8345.47
660.988	8294.27
661.18	8159.11
661.372	8144.77
661.563	8351.62
661.755	8171.4
661.947	8294.27
662.139	8025.99
662.331	8136.58
662.522	8177.54
662.714	8046.47
662.906	7755.66
663.097	7747.47
663.289	7853.96
663.481	7821.19
663.673	7702.41
663.864	8013.7
664.056	7573.39
664.247	7737.23
664.439	7548.81
664.631	7638.92
664.822	7542.67
665.014	7565.2
665.205	7456.65
665.397	7509.9
665.588	7337.87
665.78	7284.62
665.971	7370.64
666.163	7360.4
666.354	7321.49
666.546	7284.62
666.737	7217.04
666.929	7239.57
667.12	7139.22
667.311	7022.48
667.503	7106.45
667.694	7174.03
667.885	6928.28
668.077	6856.6
668.268	6690.71
668.459	6913.94
668.651	6799.26
668.842	6856.6
669.033	6703
669.224	6633.37
669.416	6576.03
669.607	6655.9
669.798	6696.86
669.989	6598.56
670.18	6580.12
670.371	6465.44
670.563	6604.7
670.754	6436.77
670.945	6393.76
671.136	6426.53
671.327	6315.94
671.518	6424.48
671.709	6281.12
671.9	6270.88
672.091	6447.01
672.282	6178.72
672.473	6236.06
672.664	6395.81
672.855	6199.2
673.046	6283.17
673.237	5928.87
673.428	6322.08
673.619	6057.89
673.809	5861.29
674	6070.18
674.191	5973.92
674.382	5928.87
674.573	5849
674.764	5978.02
674.954	6055.84
675.145	5742.5
675.336	5855.14
675.527	5758.89
675.717	5773.22
675.908	5840.81
676.099	5879.72
676.289	5705.64
676.48	5703.59
676.671	5625.77
676.861	5722.02
677.052	5605.29
677.243	5562.28
677.433	5572.52
677.624	5603.24
677.814	5633.96
678.005	5545.9
678.195	5486.51
678.386	5595.05
678.576	5560.24
678.767	5441.45
678.957	5412.78
679.148	5447.6
679.338	5410.73
679.529	5373.87
679.719	5375.92
679.909	5314.48
680.1	5248.94
680.29	5302.19
680.481	5322.67
680.671	5322.67
680.861	5070.77
681.052	5152.69
681.242	5160.88
681.432	5242.8
681.622	5162.93
681.813	5103.54
682.003	5130.16
682.193	5021.62
682.383	5203.89
682.573	5181.36
682.764	5007.28
682.954	5044.15
683.144	5031.86
683.334	5128.11
683.524	4951.99
683.714	5093.3
683.904	4872.12
684.094	5001.14
684.284	4960.18
684.474	5025.72
684.664	5013.43
684.854	4812.73
685.044	4706.23
685.234	4853.69
685.424	4853.69
685.614	4855.73
685.804	4917.17
685.994	4892.6
686.184	4792.25
686.374	4825.01
686.564	4562.87
686.753	4706.23
686.943	4614.07
687.133	4597.69
687.323	4558.78
687.513	4487.1
687.702	4528.06
687.892	4601.79
688.082	4562.87
688.272	4683.7
688.461	4462.52
688.651	4493.24
688.841	4442.04
689.03	4423.61
689.22	4351.93
689.41	4331.45
689.599	4306.88
689.789	4331.45
689.979	4243.39
690.168	4274.11
690.358	4163.52
690.547	4339.65
690.737	4317.12
690.926	4229.06
691.116	4061.12
691.305	4163.52
691.495	4087.75
691.684	3911.62
691.874	4052.93
692.063	4069.31
692.252	4063.17
692.442	4128.7
692.631	4044.74
692.82	4026.31
693.01	3856.33
693.199	3995.59
693.388	3950.53
693.578	3823.56
693.767	3749.83
693.956	3911.62
694.146	3819.46
694.335	3790.79
694.524	3696.58
694.713	3739.59
694.902	3788.74
695.092	3821.51
695.281	3827.65
695.47	3629
695.659	3692.49
695.848	3567.56
696.037	3661.77
696.226	3536.84
696.415	3672.01
696.604	3655.62
696.793	3477.45
696.982	3510.22
697.171	3379.15
697.36	3518.41
697.549	3448.78
697.738	3411.92
697.927	3377.1
698.116	3430.35
698.305	3405.77
698.494	3354.57
698.683	3383.24
698.872	3549.13
699.061	3614.66
699.25	3452.88
699.438	3446.73
699.627	3340.24
699.816	3381.2
700.005	3315.66
700.193	3393.48
700.382	3368.91
700.571	3278.8
700.76	3313.61
700.948	3407.82
701.137	3252.17
701.326	3211.22
701.514	3375.05
701.703	3465.16
701.892	3119.06
702.08	3309.52
702.269	3264.46
702.457	3080.15
702.646	3205.07
702.834	3243.98
703.023	3172.3
703.212	3196.88
703.4	3246.03
703.589	3053.52
703.777	3102.67
703.965	3153.87
704.154	3278.8
704.342	3106.77
704.531	3106.77
704.719	3106.77
704.907	3178.45
705.096	3024.85
705.284	3088.34
705.472	3028.95
705.661	3207.12
705.849	3076.05
706.037	3123.15
706.226	2971.6
706.414	3067.86
706.602	2955.22
706.79	2936.79
706.979	2992.08
707.167	3030.99
707.355	3012.56
707.543	2906.07
707.731	3041.23
707.919	2990.03
708.107	2985.94
708.296	3086.29
708.484	2848.72
708.672	2879.44
708.86	2916.31
709.048	2975.7
709.236	2971.6
709.424	2910.16
709.612	2893.78
709.8	3004.37
709.988	2875.35
710.176	2912.21
710.364	2858.96
710.551	2883.54
710.739	2963.41
710.927	2885.59
711.115	2883.54
711.303	2768.85
711.491	2930.64
711.679	2793.43
711.866	2877.4
712.054	2881.49
712.242	2842.58
712.43	2979.79
712.617	2764.76
712.805	2824.15
712.993	2846.68
713.181	2768.85
713.368	2775
713.556	2783.19
713.744	2852.82
713.931	2844.63
714.119	2824.15
714.306	2777.05
714.494	2787.29
714.682	2768.85
714.869	2688.98
715.057	2869.2
715.244	2795.48
715.432	2836.44
715.619	2736.09
715.807	2742.23
715.994	2768.85
716.182	2795.48
716.369	2701.27
716.556	2770.9
716.744	2695.13
716.931	2781.14
717.119	2770.9
717.306	2729.94
717.493	2803.67
717.681	2639.83
717.868	2775
718.055	2736.09
718.242	2701.27
718.43	2807.77
718.617	2828.24
718.804	2756.57
718.991	2566.1
719.179	2547.67
719.366	2684.89
719.553	2996.18
719.74	2717.65
719.927	2668.5
720.114	2613.21
720.301	2701.27
720.488	2648.02
720.676	2652.12
720.863	2641.88
721.05	2725.85
721.237	2717.65
721.424	2658.26
721.611	2662.36
721.798	2666.46
721.985	2672.6
722.172	2605.02
722.358	2688.98
722.545	2662.36
722.732	2676.7
722.919	2652.12
723.106	2678.74
723.293	2662.36
723.48	2670.55
723.667	2641.88
723.853	2742.23
724.04	2746.33
724.227	2684.89
724.414	2600.92
724.6	2691.03
724.787	2627.54
724.974	2549.72
725.161	2633.69
725.347	2502.62
725.534	2684.89
725.72	2674.65
725.907	2662.36
726.094	2709.46
726.28	2645.98
726.467	2623.45
726.653	2715.61
726.84	2609.11
727.027	2627.54
727.213	2631.64
727.4	2643.93
727.586	2596.82
727.773	2658.26
727.959	2588.63
728.145	2682.84
728.332	2584.54
728.518	2697.17
728.705	2627.54
728.891	2568.15
729.077	2617.3
729.264	2555.87
729.45	2688.98
729.636	2699.22
729.823	2568.15
730.009	2621.4
730.195	2695.13
730.382	2584.54
730.568	2576.34
730.754	2676.7
730.94	2658.26
731.126	2672.6
731.313	2680.79
731.499	2713.56
731.685	2711.51
731.871	2727.89
732.057	2557.91
732.243	2551.77
732.429	2519
732.615	2760.66
732.801	2613.21
732.987	2596.82
733.173	2666.46
733.359	2707.41
733.545	2555.87
733.731	2703.32
733.917	2631.64
734.103	2658.26
734.289	2566.1
734.475	2588.63
734.661	2727.89
734.847	2648.02
735.033	2674.65
735.219	2543.58
735.404	2691.03
735.59	2652.12
735.776	2592.73
735.962	2705.37
736.148	2834.39
736.333	2582.49
736.519	2541.53
736.705	2607.06
736.89	2572.25
737.076	2666.46
737.262	2570.2
737.447	2693.08
737.633	2705.37
737.819	2545.63
738.004	2516.95
738.19	2586.58
738.375	2586.58
738.561	2582.49
738.747	2514.91
738.932	2768.85
739.118	2559.96
739.303	2680.79
739.489	2682.84
739.674	2691.03
739.859	2592.73
740.045	2521.05
740.23	2584.54
740.416	2549.72
740.601	2609.11
740.786	2619.35
740.972	2406.36
741.157	2559.96
741.342	2504.67
741.528	2435.03
741.713	2480.09
741.898	2443.23
742.084	2590.68
742.269	2478.04
742.454	2529.24
742.639	2463.71
742.824	2645.98
743.01	2428.89
743.195	2512.86
743.38	2420.7
743.565	2332.64
743.75	2389.98
743.935	2502.62
744.12	2467.8
744.305	2392.03
744.49	2340.83
744.675	2346.97
744.86	2349.02
745.045	2240.48
745.23	2369.5
745.415	2291.68
745.6	2484.19
745.785	2281.44
745.97	2287.58
746.155	2332.64
746.34	2373.6
746.525	2273.25
746.71	2396.12
746.895	2326.49
747.079	2183.13
747.264	2226.14
747.449	2238.43
747.634	2365.4
747.819	2220
748.003	2320.35
748.188	2236.38
748.373	2084.83
748.557	2160.61
748.742	2129.89
748.927	2117.6
749.111	2172.89
749.296	2052.06
749.481	2107.36
749.665	2041.82
749.85	2045.92
750.034	1996.77
750.219	2039.78
750.404	1970.15
750.588	2127.84
750.773	2076.64
750.957	1955.81
751.141	2000.87
751.326	1968.1
751.51	2013.15
751.695	1953.76
751.879	1968.1
752.064	2019.3
752.248	2025.44
752.432	1937.38
752.617	1947.62
752.801	1890.28
752.985	1925.09
753.17	1849.32
753.354	1931.23
753.538	1839.08
753.722	1781.73
753.907	1832.93
754.091	1855.46
754.275	1855.46
754.459	1767.4
754.643	1683.43
754.828	1837.03
755.012	1636.33
755.196	1841.12
755.38	1765.35
755.564	1722.34
755.748	1638.38
755.932	1646.57
756.116	1742.82
756.3	1654.76
756.484	1691.62
756.668	1685.48
756.852	1650.66
757.036	1624.04
757.22	1687.53
757.404	1507.31
757.588	1617.9
757.772	1599.46
757.956	1669.09
758.14	1554.41
758.323	1572.84
758.507	1583.08
758.691	1533.93
758.875	1542.12
759.059	1662.95
759.242	1517.54
759.426	1382.38
759.61	1462.25
759.794	1449.96
759.977	1441.77
760.161	1509.35
760.345	1488.87
760.528	1495.02
760.712	1443.82
760.895	1306.6
761.079	1374.19
761.263	1347.56
761.446	1376.24
761.63	1409
761.813	1386.47
761.997	1310.7
762.18	1439.72
762.364	1437.67
762.547	1363.95
762.731	1366
762.914	1384.43
763.098	1355.76
763.281	1347.56
763.464	1370.09
763.648	1314.8
763.831	1247.21
764.015	1347.56
764.198	1343.47
764.381	1366
764.564	1263.6
764.748	1230.83
764.931	1216.49
765.114	1247.21
765.297	1423.34
765.481	1208.3
765.664	1327.08
765.847	1165.29
766.03	1265.64
766.213	1249.26
766.397	1142.77
766.58	1243.12
766.763	1200.11
766.946	1161.2
767.129	1171.44
767.312	1198.06
767.495	1193.97
767.678	1191.92
767.861	1220.59
768.044	1138.67
768.227	1161.2
768.41	1097.71
768.593	1191.92
768.776	1142.77
768.959	1138.67
769.142	1216.49
769.324	1142.77
769.507	1153.01
769.69	1060.85
769.873	1071.09
770.056	1050.61
770.239	1097.71
770.421	1060.85
770.604	1114.1
770.787	1148.91
770.97	1120.24
771.152	1187.82
771.335	1114.1
771.518	1093.62
771.7	1087.47
771.883	1181.68
772.066	1101.81
772.248	1040.37
772.431	950.26
772.613	1071.09
772.796	931.83
772.978	997.36
773.161	991.22
773.343	997.36
773.526	956.4
773.708	968.69
773.891	987.12
774.073	948.21
774.256	1005.55
774.438	995.31
774.621	948.21
774.803	976.88
774.985	894.96
775.168	964.59
775.35	894.96
775.532	815.09
775.715	856.05
775.897	870.39
776.079	909.3
776.261	1009.65
776.444	944.11
776.626	983.03
776.808	823.28
776.99	878.58
777.173	737.27
777.355	876.53
777.537	864.24
777.719	960.5
777.901	862.19
778.083	808.95
778.265	794.61
778.447	882.67
778.629	823.28
778.811	755.7
778.993	757.75
779.175	761.84
779.357	765.94
779.539	794.61
779.721	751.6
779.903	776.18
780.085	741.36
780.267	675.83
780.449	686.07
780.631	788.47
780.812	763.89
780.994	745.46
781.176	686.07
781.358	722.93
781.54	675.83
781.721	698.36
781.903	739.32
782.085	716.79
782.267	767.99
782.448	567.29
782.63	735.22
782.812	720.89
782.993	636.92
783.175	636.92
783.357	548.86
783.538	698.36
783.72	677.88
783.901	696.31
784.083	595.96
784.264	655.35
784.446	559.1
784.627	587.77
784.809	583.67
784.99	626.68
785.172	675.83
785.353	530.42
785.535	532.47
785.716	567.29
785.897	616.44
786.079	540.66
786.26	540.66
786.441	538.62
786.623	552.95
786.804	555
786.985	475.13
787.167	589.82
787.348	542.71
787.529	520.18
787.71	522.23
787.891	587.77
788.073	505.85
788.254	573.43
788.435	561.14
788.616	567.29
788.797	509.94
788.978	511.99
789.159	540.66
789.34	401.4
789.522	528.38
789.703	460.79
789.884	475.13
790.065	493.56
790.246	499.7
790.427	503.8
790.607	438.27
790.788	456.7
790.969	462.84
791.15	462.84
791.331	436.22
791.512	428.03
791.693	417.79
791.874	442.36
792.054	456.7
792.235	462.84
792.416	466.94
792.597	452.6
792.778	372.73
792.958	468.98
793.139	432.12
793.32	491.51
793.5	407.55
793.681	448.51
793.862	376.83
794.042	339.96
794.223	395.26
794.404	374.78
794.584	253.95
794.765	413.69
794.945	317.44
795.126	397.31
795.306	395.26
795.487	362.49
795.667	348.15
795.848	391.16
796.028	399.35
796.209	393.21
796.389	436.22
796.57	423.93
796.75	325.63
796.93	333.82
797.111	350.2
797.291	413.69
797.471	393.21
797.652	354.3
797.832	460.79
798.012	452.6
798.192	317.44
798.373	350.2
798.553	321.53
798.733	376.83
798.913	364.54
799.093	368.63
799.274	362.49
799.454	272.38
799.634	333.82
799.814	360.44
799.994	268.28
800.174	303.1
800.354	282.62
800.534	321.53
800.714	311.29
800.894	368.63
801.074	319.48
801.254	272.38
801.434	335.87
801.614	223.23
801.794	305.15
801.974	651.25
802.154	268.28
802.334	303.1
802.514	309.24
802.693	266.24
802.873	208.89
803.053	284.67
803.233	286.72
803.413	284.67
803.592	272.38
803.772	253.95
803.952	325.63
804.131	231.42
804.311	301.05
804.491	290.81
804.67	270.33
804.85	190.46
805.03	274.43
805.209	262.14
805.389	245.76
805.568	276.48
805.748	249.85
805.928	284.67
806.107	249.85
806.287	243.71
806.466	217.08
806.646	174.08
806.825	276.48
807.004	233.47
807.184	260.09
807.363	276.48
807.543	280.57
807.722	153.6
807.901	241.66
808.081	147.45
808.26	215.04
808.439	288.76
808.619	202.75
808.798	174.08
808.977	169.98
809.156	325.63
809.336	247.8
809.515	274.43
809.694	270.33
809.873	206.84
810.052	231.42
810.231	282.62
810.411	208.89
810.59	212.99
810.769	198.65
810.948	276.48
811.127	192.51
811.306	210.94
811.485	178.17
811.664	256
811.843	264.19
812.022	196.61
812.201	256
812.38	239.61
812.559	231.42
812.737	272.38
812.916	208.89
813.095	159.74
813.274	174.08
813.453	280.57
813.632	264.19
813.811	118.78
813.989	114.69
814.168	225.28
814.347	184.32
814.526	174.08
814.704	294.91
814.883	247.8
815.062	129.02
815.24	200.7
815.419	131.07
815.598	219.13
815.776	104.45
815.955	167.93
816.133	145.41
816.312	167.93
816.49	176.13
816.669	104.45
816.847	139.26
817.026	198.65
817.204	182.27
817.383	206.84
817.561	229.37
817.74	149.5
817.918	159.74
818.097	188.41
818.275	145.41
818.453	186.37
818.632	133.12
818.81	241.66
818.988	106.49
819.167	188.41
819.345	208.89
819.523	182.27
819.701	174.08
819.879	174.08
820.058	145.41
820.236	141.31
820.414	227.32
820.592	176.13
820.77	178.17
820.948	161.79
821.127	233.47
821.305	176.13
821.483	131.07
821.661	237.56
821.839	129.02
822.017	204.8
822.195	184.32
822.373	143.36
822.551	135.17
822.729	194.56
822.907	184.32
823.085	139.26
823.262	88.06
823.44	137.21
823.618	96.25
823.796	206.84
823.974	90.11
824.152	122.88
824.329	122.88
824.507	188.41
824.685	137.21
824.863	180.22
825.04	174.08
825.218	100.35
825.396	126.97
825.574	116.73
825.751	153.6
825.929	143.36
826.107	79.87
826.284	129.02
826.462	120.83
826.639	86.01
826.817	100.35
826.994	167.93
827.172	126.97
827.349	106.49
827.527	122.88
827.704	69.63
827.882	129.02
828.059	67.58
828.237	120.83
828.414	141.31
828.591	22.53
828.769	96.25
828.946	159.74
829.124	98.3
829.301	112.64
829.478	184.32
829.655	88.06
829.833	176.13
830.01	133.12
830.187	110.59
830.364	139.26
830.542	169.98
830.719	176.13
830.896	86.01
831.073	104.45
831.25	114.69
831.427	126.97
831.604	47.1
831.782	88.06
831.959	92.16
832.136	73.73
832.313	178.17
832.49	141.31
832.667	133.12
832.844	161.79
833.021	96.25
833.198	94.21
833.374	159.74
833.551	118.78
833.728	83.97
833.905	83.97
834.082	63.49
834.259	120.83
834.436	98.3
834.612	63.49
834.789	77.82
834.966	69.63
835.143	59.39
835.319	24.58
835.496	122.88
835.673	63.49
835.85	102.4
836.026	104.45
836.203	159.74
836.38	38.91
836.556	114.69
836.733	69.63
836.909	116.73
837.086	69.63
837.262	145.41
837.439	98.3
837.616	94.21
837.792	16.38
837.968	61.44
838.145	65.54
838.321	22.53
838.498	120.83
838.674	141.31
838.851	81.92
839.027	43.01
839.203	100.35
839.38	90.11
839.556	47.1
839.732	114.69
839.909	81.92
840.085	67.58
840.261	86.01
840.437	65.54
840.614	141.31
840.79	114.69
840.966	51.2
841.142	86.01
841.318	137.21
841.494	96.25
841.671	110.59
841.847	120.83
842.023	71.68
842.199	124.93
842.375	118.78
842.551	49.15
842.727	129.02
842.903	81.92
843.079	34.82
843.255	118.78
843.431	18.43
843.607	71.68
843.783	36.86
843.959	79.87
844.134	57.34
844.31	98.3
844.486	8.19
844.662	75.77
844.838	79.87
845.013	133.12
845.189	75.77
845.365	88.06
845.541	69.63
845.716	81.92
845.892	75.77
846.068	86.01
846.244	57.34
846.419	69.63
846.595	43.01
846.77	77.82
846.946	57.34
847.122	102.4
847.297	8.19
847.473	57.34
847.648	36.86
847.824	100.35
847.999	10.24
848.175	104.45
848.35	79.87
848.526	94.21
848.701	-6.14
848.876	90.11
849.052	108.54
849.227	4.1
849.403	4.1
849.578	94.21
849.753	-32.77
849.929	116.73
850.104	-6.14
850.279	-2.05
850.454	-28.67
850.63	55.3
850.805	22.53
850.98	102.4
851.155	-28.67
851.33	92.16
851.505	38.91
851.681	131.07
851.856	47.1
852.031	59.39
852.206	36.86
852.381	63.49
852.556	118.78
852.731	49.15
852.906	92.16
853.081	88.06
853.256	139.26
853.431	-10.24
853.606	-10.24
853.781	14.34
853.956	63.49
854.131	141.31
854.305	22.53
854.48	63.49
854.655	-2.05
854.83	49.15
855.005	18.43
855.18	-10.24
855.354	-18.43
855.529	30.72
855.704	40.96
855.879	94.21
856.053	10.24
856.228	153.6
856.403	38.91
856.577	83.97
856.752	36.86
856.926	47.1
857.101	28.67
857.276	36.86
857.45	59.39
857.625	63.49
857.799	-8.19
857.974	22.53
858.148	10.24
858.323	-14.34
858.497	53.25
858.672	10.24
858.846	-6.14
859.02	81.92
859.195	40.96
859.369	-16.38
859.543	26.62
859.718	45.06
859.892	14.34
860.066	49.15
860.241	57.34
860.415	69.63
860.589	45.06
860.763	47.1
860.938	47.1
861.112	20.48
861.286	-47.1
861.46	-2.05
861.634	90.11
861.808	20.48
861.982	-10.24
862.157	30.72
862.331	73.73
862.505	4.1
862.679	-24.58
862.853	-36.86
863.027	14.34
863.201	49.15
863.375	14.34
863.549	-14.34
863.722	94.21
863.896	67.58
864.07	2.05
864.244	-12.29
864.418	69.63
864.592	38.91
864.766	102.4
864.939	102.4
865.113	77.82
865.287	73.73
865.461	20.48
865.634	38.91
865.808	51.2
865.982	83.97
866.156	-53.25
866.329	28.67
866.503	73.73
866.676	59.39
866.85	67.58
867.024	16.38
867.197	-2.05
867.371	24.58
867.544	92.16
867.718	28.67
867.891	49.15
868.065	12.29
868.238	14.34
868.412	59.39
868.585	53.25
868.759	6.14
868.932	92.16
869.105	98.3
869.279	65.54
869.452	28.67
869.625	28.67
869.799	32.77
869.972	10.24
870.145	14.34
870.319	32.77
870.492	61.44
870.665	-6.14
870.838	34.82
871.011	36.86
871.185	-28.67
871.358	28.67
871.531	51.2
871.704	-10.24
871.877	55.3
872.05	55.3
872.223	-32.77
872.396	28.67
872.569	20.48
872.742	-112.64
872.915	-36.86
873.088	18.43
873.261	24.58
873.434	40.96
873.607	22.53
873.78	28.67
873.953	49.15
874.126	83.97
874.299	24.58
874.471	34.82
874.644	26.62
874.817	112.64
874.99	24.58
875.163	-55.3
875.335	16.38
875.508	38.91
875.681	10.24
875.853	53.25
876.026	71.68
876.199	6.14
876.371	6.14
876.544	53.25
876.717	38.91
876.889	61.44
877.062	49.15
877.234	45.06
877.407	-32.77
877.579	2.05
877.752	51.2
877.924	88.06
878.097	38.91
878.269	26.62
878.442	86.01
878.614	43.01
878.786	36.86
878.959	12.29
879.131	0
879.303	45.06
879.476	-28.67
879.648	-10.24
879.82	12.29
879.993	86.01
880.165	-14.34
880.337	-26.62
880.509	92.16
880.681	-8.19
880.854	0
881.026	75.77
881.198	43.01
881.37	6.14
881.542	14.34
881.714	2.05
881.886	-2.05
882.058	14.34
882.23	-34.82
882.402	88.06
882.574	43.01
882.746	53.25
882.918	-26.62
883.09	22.53
883.262	-51.2
883.434	-16.38
883.606	61.44
883.778	79.87
883.95	55.3
884.122	-4.1
884.293	100.35
884.465	69.63
884.637	10.24
884.809	22.53
884.98	-4.1
885.152	-55.3
885.324	59.39
885.496	81.92
885.667	38.91
885.839	22.53
886.011	-10.24
886.182	26.62
886.354	53.25
886.525	6.14
886.697	36.86
886.869	59.39
887.04	-38.91
887.212	-61.44
887.383	75.77
887.555	-40.96
887.726	14.34
887.897	-67.58
888.069	-6.14
888.24	36.86
888.412	110.59
888.583	61.44
888.754	40.96
888.926	-57.34
889.097	53.25
889.268	-4.1
889.44	-45.06
889.611	14.34
889.782	6.14
889.953	2.05
890.125	-14.34
890.296	-12.29
890.467	10.24
890.638	-18.43
890.809	98.3
890.98	-22.53
891.151	16.38
891.323	22.53
891.494	83.97
891.665	-18.43
891.836	94.21
892.007	-61.44
892.178	34.82
892.349	63.49
892.52	22.53
892.691	12.29
892.862	43.01
893.032	-53.25
893.203	38.91
893.374	51.2
893.545	98.3
893.716	26.62
893.887	0
894.057	-57.34
894.228	-88.06
894.399	28.67
894.57	-10.24
894.74	14.34
894.911	2.05
895.082	36.86
895.253	-4.1
895.423	-26.62
895.594	67.58
895.764	-40.96
895.935	51.2
896.106	6.14
896.276	43.01
896.447	53.25
896.617	-10.24
896.788	63.49
896.958	-10.24
897.129	59.39
897.299	20.48
897.47	73.73
897.64	53.25
897.81	-8.19
897.981	-2.05
898.151	-12.29
898.322	28.67
898.492	-24.58
898.662	-57.34
898.832	-4.1
899.003	-16.38
899.173	-55.3
899.343	34.82
899.513	-51.2
