Data from USB4F104151__9__11-44-27-075.txt Node

Date: Fri Mar 14 11:44:27 EDT 2025
User: louis
Spectrometer: USB4F10415
Trigger mode: 4
Integration Time (sec): 2.000000E-2
Scans to average: 1
Electric dark correction enabled: true
Nonlinearity correction enabled: false
Boxcar width: 0
XAxis mode: Wavelengths
Number of Pixels in Spectrum: 3648
>>>>>Begin Spectral Data<<<<<
178.204	-84.31
178.424	-84.31
178.644	-84.31
178.864	-82.26
179.084	-98.64
179.304	-20.82
179.524	24.23
179.744	-55.64
179.964	-16.73
180.184	-16.73
180.404	5.8
180.624	16.04
180.844	34.47
181.064	5.8
181.283	20.14
181.503	-6.49
181.723	9.9
181.943	-110.93
182.163	20.14
182.383	-33.11
182.602	-41.3
182.822	3.75
183.042	63.15
183.262	-10.58
183.482	5.8
183.701	16.04
183.921	-26.96
184.141	-0.34
184.361	61.1
184.58	-12.63
184.8	3.75
185.02	-65.88
185.239	24.23
185.459	-45.4
185.679	36.52
185.898	-53.59
186.118	54.95
186.338	-37.2
186.557	38.57
186.777	-51.54
186.997	-24.92
187.216	-0.34
187.436	46.76
187.655	-10.58
187.875	-8.53
188.095	-33.11
188.314	-24.92
188.534	57
188.753	-12.63
188.973	-8.53
189.192	-31.06
189.412	-0.34
189.631	-55.64
189.851	16.04
190.07	30.38
190.29	-12.63
190.509	-2.39
190.729	-35.16
190.948	5.8
191.168	59.05
191.387	48.81
191.607	26.28
191.826	-53.59
192.045	-59.73
192.265	-49.49
192.484	42.67
192.704	-12.63
192.923	24.23
193.142	26.28
193.362	134.82
193.581	5.8
193.8	-35.16
194.02	40.62
194.239	-37.2
194.458	24.23
194.678	11.95
194.897	-31.06
195.116	-37.2
195.335	-33.11
195.555	20.14
195.774	-26.96
195.993	46.76
196.212	-29.01
196.432	57
196.651	26.28
196.87	75.43
197.089	73.39
197.308	-2.39
197.528	48.81
197.747	-51.54
197.966	54.95
198.185	-14.68
198.404	-16.73
198.623	5.8
198.842	38.57
199.062	32.43
199.281	3.75
199.5	3.75
199.719	36.52
199.938	36.52
200.157	16.04
200.376	46.76
200.595	61.1
200.814	-8.53
201.033	20.14
201.252	-10.58
201.471	40.62
201.69	46.76
201.909	40.62
202.128	-41.3
202.347	52.91
202.566	-86.36
202.785	-51.54
203.004	-10.58
203.223	61.1
203.442	-59.73
203.661	24.23
203.879	-29.01
204.098	-14.68
204.317	-31.06
204.536	-6.49
204.755	24.23
204.974	26.28
205.193	85.67
205.411	54.95
205.63	26.28
205.849	28.33
206.068	-37.2
206.287	-14.68
206.505	-16.73
206.724	26.28
206.943	24.23
207.162	16.04
207.381	67.24
207.599	3.75
207.818	-16.73
208.037	3.75
208.255	-14.68
208.474	-2.39
208.693	-47.44
208.911	-110.93
209.13	5.8
209.349	5.8
209.567	7.85
209.786	52.91
210.005	48.81
210.223	9.9
210.442	-8.53
210.661	28.33
210.879	-24.92
211.098	46.76
211.316	-8.53
211.535	54.95
211.753	34.47
211.972	81.58
212.191	-10.58
212.409	16.04
212.628	-4.44
212.846	59.05
213.065	40.62
213.283	-10.58
213.502	-6.49
213.72	-20.82
213.938	22.19
214.157	59.05
214.375	46.76
214.594	50.86
214.812	44.71
215.031	-14.68
215.249	-74.07
215.467	-10.58
215.686	-37.2
215.904	-98.64
216.122	-10.58
216.341	69.29
216.559	11.95
216.778	48.81
216.996	-22.87
217.214	-24.92
217.432	1.71
217.651	-0.34
217.869	-47.44
218.087	-37.2
218.306	9.9
218.524	16.04
218.742	52.91
218.96	-0.34
219.179	-2.39
219.397	22.19
219.615	77.48
219.833	-6.49
220.051	-41.3
220.27	-8.53
220.488	77.48
220.706	44.71
220.924	-12.63
221.142	5.8
221.36	42.67
221.578	26.28
221.796	-20.82
222.015	36.52
222.233	-31.06
222.451	42.67
222.669	-0.34
222.887	-39.25
223.105	-29.01
223.323	-12.63
223.541	54.95
223.759	-2.39
223.977	-0.34
224.195	-37.2
224.413	50.86
224.631	-33.11
224.849	-72.02
225.067	106.15
225.285	-88.4
225.503	67.24
225.721	-51.54
225.939	-39.25
226.157	97.96
226.375	61.1
226.592	-22.87
226.81	22.19
227.028	28.33
227.246	122.54
227.464	28.33
227.682	-0.34
227.9	20.14
228.117	28.33
228.335	-0.34
228.553	13.99
228.771	-22.87
228.989	61.1
229.206	54.95
229.424	11.95
229.642	54.95
229.86	-57.68
230.077	3.75
230.295	22.19
230.513	50.86
230.731	50.86
230.948	13.99
231.166	77.48
231.384	20.14
231.601	-39.25
231.819	87.72
232.037	-33.11
232.254	46.76
232.472	28.33
232.689	20.14
232.907	42.67
233.125	63.15
233.342	20.14
233.56	-12.63
233.777	20.14
233.995	-37.2
234.213	26.28
234.43	-61.78
234.648	18.09
234.865	75.43
235.083	-2.39
235.3	-33.11
235.518	-39.25
235.735	52.91
235.953	50.86
236.17	48.81
236.388	9.9
236.605	-57.68
236.822	61.1
237.04	-4.44
237.257	-8.53
237.475	-12.63
237.692	13.99
237.909	-8.53
238.127	-74.07
238.344	30.38
238.562	-2.39
238.779	-0.34
238.996	-100.69
239.214	-22.87
239.431	24.23
239.648	11.95
239.865	-20.82
240.083	26.28
240.3	3.75
240.517	-41.3
240.735	-8.53
240.952	22.19
241.169	5.8
241.386	28.33
241.603	16.04
241.821	20.14
242.038	67.24
242.255	61.1
242.472	3.75
242.689	7.85
242.907	-20.82
243.124	44.71
243.341	-0.34
243.558	5.8
243.775	-16.73
243.992	24.23
244.209	-14.68
244.426	22.19
244.643	-20.82
244.86	-10.58
245.078	-10.58
245.295	-22.87
245.512	48.81
245.729	-96.6
245.946	54.95
246.163	22.19
246.38	24.23
246.597	38.57
246.814	1.71
247.031	-2.39
247.248	26.28
247.464	3.75
247.681	50.86
247.898	-41.3
248.115	-20.82
248.332	20.14
248.549	75.43
248.766	34.47
248.983	97.96
249.2	-37.2
249.417	48.81
249.633	13.99
249.85	30.38
250.067	13.99
250.284	-57.68
250.501	50.86
250.717	102.06
250.934	-69.97
251.151	42.67
251.368	-33.11
251.585	-16.73
251.801	11.95
252.018	5.8
252.235	-0.34
252.451	26.28
252.668	-0.34
252.885	91.82
253.102	3.75
253.318	61.1
253.535	-2.39
253.752	-8.53
253.968	42.67
254.185	24.23
254.401	54.95
254.618	48.81
254.835	7.85
255.051	36.52
255.268	38.57
255.484	-18.77
255.701	46.76
255.917	-10.58
256.134	-35.16
256.351	34.47
256.567	85.67
256.784	28.33
257	-4.44
257.217	28.33
257.433	42.67
257.65	-37.2
257.866	-2.39
258.082	-10.58
258.299	-20.82
258.515	44.71
258.732	9.9
258.948	-24.92
259.165	79.53
259.381	-2.39
259.597	-12.63
259.814	87.72
260.03	5.8
260.246	-31.06
260.463	-31.06
260.679	-41.3
260.895	-45.4
261.112	52.91
261.328	24.23
261.544	-24.92
261.761	118.44
261.977	-57.68
262.193	20.14
262.409	44.71
262.626	22.19
262.842	63.15
263.058	22.19
263.274	22.19
263.49	50.86
263.707	7.85
263.923	40.62
264.139	-10.58
264.355	22.19
264.571	24.23
264.787	-6.49
265.004	28.33
265.22	3.75
265.436	-8.53
265.652	-10.58
265.868	26.28
266.084	-14.68
266.3	5.8
266.516	-20.82
266.732	57
266.948	54.95
267.164	42.67
267.38	13.99
267.596	-55.64
267.812	26.28
268.028	-2.39
268.244	3.75
268.46	54.95
268.676	22.19
268.892	-37.2
269.108	67.24
269.324	34.47
269.54	-31.06
269.756	69.29
269.972	-24.92
270.188	-33.11
270.403	24.23
270.619	89.77
270.835	-69.97
271.051	100.01
271.267	30.38
271.483	22.19
271.698	42.67
271.914	52.91
272.13	13.99
272.346	-53.59
272.562	20.14
272.777	40.62
272.993	-6.49
273.209	-39.25
273.425	48.81
273.64	-35.16
273.856	44.71
274.072	75.43
274.287	28.33
274.503	73.39
274.719	28.33
274.934	-14.68
275.15	-41.3
275.366	34.47
275.581	-16.73
275.797	-14.68
276.012	-65.88
276.228	67.24
276.444	-0.34
276.659	114.34
276.875	-31.06
277.09	26.28
277.306	-8.53
277.521	3.75
277.737	50.86
277.952	44.71
278.168	32.43
278.383	54.95
278.599	9.9
278.814	75.43
279.03	-49.49
279.245	32.43
279.461	42.67
279.676	-37.2
279.892	16.04
280.107	-55.64
280.322	16.04
280.538	65.19
280.753	20.14
280.969	-26.96
281.184	-10.58
281.399	13.99
281.615	-6.49
281.83	-6.49
282.045	-10.58
282.26	-18.77
282.476	28.33
282.691	36.52
282.906	57
283.122	-10.58
283.337	-31.06
283.552	3.75
283.767	7.85
283.983	57
284.198	22.19
284.413	-26.96
284.628	22.19
284.843	-22.87
285.058	11.95
285.274	-33.11
285.489	7.85
285.704	57
285.919	30.38
286.134	-31.06
286.349	46.76
286.564	20.14
286.779	22.19
286.995	13.99
287.21	-49.49
287.425	48.81
287.64	65.19
287.855	93.87
288.07	-45.4
288.285	1.71
288.5	79.53
288.715	24.23
288.93	-96.6
289.145	3.75
289.36	-14.68
289.575	-39.25
289.79	5.8
290.004	20.14
290.219	52.91
290.434	-41.3
290.649	-33.11
290.864	1.71
291.079	-14.68
291.294	36.52
291.509	-20.82
291.724	26.28
291.938	-2.39
292.153	-2.39
292.368	18.09
292.583	-12.63
292.798	71.34
293.012	1.71
293.227	46.76
293.442	34.47
293.657	61.1
293.871	61.1
294.086	28.33
294.301	-55.64
294.516	16.04
294.73	16.04
294.945	-49.49
295.16	36.52
295.374	48.81
295.589	32.43
295.804	-49.49
296.018	11.95
296.233	95.91
296.447	36.52
296.662	44.71
296.877	95.91
297.091	32.43
297.306	44.71
297.52	42.67
297.735	59.05
297.949	34.47
298.164	-33.11
298.378	-2.39
298.593	-22.87
298.807	-41.3
299.022	-16.73
299.236	3.75
299.451	48.81
299.665	-31.06
299.88	42.67
300.094	-47.44
300.309	30.38
300.523	-16.73
300.737	32.43
300.952	9.9
301.166	-49.49
301.381	1.71
301.595	46.76
301.809	3.75
302.024	46.76
302.238	11.95
302.452	13.99
302.667	3.75
302.881	73.39
303.095	-84.31
303.309	69.29
303.524	-16.73
303.738	85.67
303.952	20.14
304.166	-16.73
304.381	16.04
304.595	46.76
304.809	-33.11
305.023	67.24
305.237	5.8
305.452	32.43
305.666	-4.44
305.88	22.19
306.094	1.71
306.308	69.29
306.522	83.63
306.736	-18.77
306.95	59.05
307.164	-0.34
307.379	18.09
307.593	-0.34
307.807	57
308.021	30.38
308.235	61.1
308.449	-8.53
308.663	3.75
308.877	93.87
309.091	32.43
309.305	61.1
309.519	3.75
309.733	46.76
309.947	-10.58
310.161	69.29
310.374	13.99
310.588	1.71
310.802	7.85
311.016	-51.54
311.23	28.33
311.444	16.04
311.658	20.14
311.872	97.96
312.085	61.1
312.299	-0.34
312.513	-24.92
312.727	97.96
312.941	-33.11
313.154	52.91
313.368	5.8
313.582	-12.63
313.796	81.58
314.009	-0.34
314.223	67.24
314.437	95.91
314.651	-29.01
314.864	9.9
315.078	11.95
315.292	16.04
315.505	1.71
315.719	26.28
315.933	-31.06
316.146	-0.34
316.36	30.38
316.573	63.15
316.787	30.38
317.001	75.43
317.214	-22.87
317.428	36.52
317.641	36.52
317.855	18.09
318.068	-18.77
318.282	26.28
318.495	54.95
318.709	75.43
318.922	9.9
319.136	-10.58
319.349	1.71
319.563	44.71
319.776	63.15
319.99	-26.96
320.203	38.57
320.417	73.39
320.63	57
320.843	30.38
321.057	16.04
321.27	-22.87
321.483	-4.44
321.697	38.57
321.91	67.24
322.124	61.1
322.337	3.75
322.55	-10.58
322.763	1.71
322.977	91.82
323.19	-43.35
323.403	-37.2
323.617	-24.92
323.83	50.86
324.043	26.28
324.256	18.09
324.469	42.67
324.683	30.38
324.896	54.95
325.109	20.14
325.322	79.53
325.535	18.09
325.748	3.75
325.962	67.24
326.175	18.09
326.388	7.85
326.601	-78.16
326.814	63.15
327.027	-16.73
327.24	-37.2
327.453	42.67
327.666	30.38
327.879	63.15
328.092	54.95
328.305	28.33
328.518	9.9
328.731	44.71
328.944	11.95
329.157	38.57
329.37	24.23
329.583	85.67
329.796	-22.87
330.009	77.48
330.222	26.28
330.435	11.95
330.648	9.9
330.861	61.1
331.073	-51.54
331.286	118.44
331.499	5.8
331.712	-6.49
331.925	9.9
332.138	36.52
332.35	26.28
332.563	42.67
332.776	-76.12
332.989	5.8
333.202	-8.53
333.414	54.95
333.627	-18.77
333.84	7.85
334.053	-6.49
334.265	-10.58
334.478	48.81
334.691	61.1
334.903	-2.39
335.116	-14.68
335.329	63.15
335.541	18.09
335.754	118.44
335.966	20.14
336.179	-8.53
336.392	24.23
336.604	40.62
336.817	18.09
337.029	42.67
337.242	11.95
337.454	89.77
337.667	11.95
337.88	46.76
338.092	40.62
338.305	85.67
338.517	-10.58
338.729	36.52
338.942	44.71
339.154	-4.44
339.367	-12.63
339.579	97.96
339.792	13.99
340.004	22.19
340.217	85.67
340.429	36.52
340.641	-10.58
340.854	18.09
341.066	-22.87
341.278	26.28
341.491	83.63
341.703	30.38
341.915	38.57
342.128	40.62
342.34	52.91
342.552	7.85
342.764	38.57
342.977	93.87
343.189	34.47
343.401	28.33
343.613	1.71
343.826	52.91
344.038	24.23
344.25	16.04
344.462	7.85
344.674	3.75
344.886	5.8
345.099	-45.4
345.311	61.1
345.523	-2.39
345.735	3.75
345.947	54.95
346.159	42.67
346.371	50.86
346.583	-49.49
346.795	38.57
347.007	63.15
347.219	57
347.431	57
347.643	85.67
347.855	24.23
348.067	97.96
348.279	42.67
348.491	65.19
348.703	50.86
348.915	32.43
349.127	11.95
349.339	104.11
349.551	7.85
349.763	122.54
349.975	50.86
350.187	77.48
350.399	28.33
350.61	36.52
350.822	-22.87
351.034	40.62
351.246	77.48
351.458	9.9
351.669	-18.77
351.881	24.23
352.093	26.28
352.305	-18.77
352.517	3.75
352.728	42.67
352.94	48.81
353.152	89.77
353.363	-18.77
353.575	28.33
353.787	75.43
353.999	-4.44
354.21	93.87
354.422	32.43
354.633	7.85
354.845	-20.82
355.057	16.04
355.268	32.43
355.48	57
355.692	11.95
355.903	59.05
356.115	67.24
356.326	-18.77
356.538	32.43
356.749	22.19
356.961	36.52
357.172	-16.73
357.384	134.82
357.595	-20.82
357.807	-45.4
358.018	106.15
358.23	-4.44
358.441	-24.92
358.653	54.95
358.864	-29.01
359.075	40.62
359.287	44.71
359.498	-16.73
359.709	52.91
359.921	57
360.132	18.09
360.344	63.15
360.555	-4.44
360.766	26.28
360.977	-2.39
361.189	38.57
361.4	3.75
361.611	61.1
361.823	73.39
362.034	61.1
362.245	100.01
362.456	9.9
362.667	3.75
362.879	112.3
363.09	44.71
363.301	69.29
363.512	46.76
363.723	24.23
363.935	3.75
364.146	40.62
364.357	1.71
364.568	3.75
364.779	38.57
364.99	-8.53
365.201	54.95
365.412	-33.11
365.623	9.9
365.834	91.82
366.045	140.97
366.256	26.28
366.467	9.9
366.678	-4.44
366.889	16.04
367.1	57
367.311	32.43
367.522	46.76
367.733	50.86
367.944	61.1
368.155	57
368.366	46.76
368.577	104.11
368.788	97.96
368.999	24.23
369.209	11.95
369.42	71.34
369.631	85.67
369.842	48.81
370.053	54.95
370.264	59.05
370.474	40.62
370.685	-22.87
370.896	85.67
371.107	40.62
371.317	40.62
371.528	-37.2
371.739	18.09
371.95	75.43
372.16	30.38
372.371	36.52
372.582	50.86
372.792	81.58
373.003	1.71
373.214	77.48
373.424	40.62
373.635	20.14
373.846	48.81
374.056	22.19
374.267	18.09
374.477	13.99
374.688	34.47
374.898	136.87
375.109	38.57
375.319	46.76
375.53	54.95
375.74	50.86
375.951	-59.73
376.161	77.48
376.372	13.99
376.582	42.67
376.793	11.95
377.003	59.05
377.214	61.1
377.424	34.47
377.635	18.09
377.845	63.15
378.055	163.5
378.266	52.91
378.476	36.52
378.686	46.76
378.897	34.47
379.107	42.67
379.317	48.81
379.528	16.04
379.738	73.39
379.948	-12.63
380.158	106.15
380.369	59.05
380.579	75.43
380.789	9.9
380.999	44.71
381.21	36.52
381.42	69.29
381.63	59.05
381.84	32.43
382.05	63.15
382.261	63.15
382.471	73.39
382.681	87.72
382.891	50.86
383.101	44.71
383.311	-6.49
383.521	118.44
383.731	1.71
383.941	48.81
384.151	97.96
384.361	5.8
384.571	-10.58
384.781	26.28
384.991	83.63
385.201	5.8
385.411	75.43
385.621	81.58
385.831	3.75
386.041	85.67
386.251	-8.53
386.461	159.4
386.671	-12.63
386.881	24.23
387.091	81.58
387.301	120.49
387.511	36.52
387.72	30.38
387.93	-0.34
388.14	9.9
388.35	-2.39
388.56	54.95
388.769	30.38
388.979	114.34
389.189	85.67
389.399	83.63
389.609	32.43
389.818	79.53
390.028	69.29
390.238	3.75
390.447	-26.96
390.657	93.87
390.867	48.81
391.076	3.75
391.286	93.87
391.496	63.15
391.705	24.23
391.915	67.24
392.125	36.52
392.334	48.81
392.544	81.58
392.753	138.92
392.963	20.14
393.172	100.01
393.382	54.95
393.591	91.82
393.801	63.15
394.01	126.63
394.22	42.67
394.429	77.48
394.639	63.15
394.848	73.39
395.058	-6.49
395.267	42.67
395.477	65.19
395.686	112.3
395.895	122.54
396.105	183.98
396.314	89.77
396.524	97.96
396.733	48.81
396.942	61.1
397.152	145.06
397.361	69.29
397.57	65.19
397.78	128.68
397.989	22.19
398.198	186.02
398.407	151.21
398.617	57
398.826	100.01
399.035	24.23
399.244	52.91
399.453	124.58
399.663	102.06
399.872	159.4
400.081	128.68
400.29	132.78
400.499	81.58
400.708	169.64
400.917	126.63
401.127	97.96
401.336	91.82
401.545	177.83
401.754	110.25
401.963	102.06
402.172	175.78
402.381	75.43
402.59	85.67
402.799	151.21
403.008	208.55
403.217	161.45
403.426	179.88
403.635	147.11
403.844	202.41
404.053	149.16
404.262	196.26
404.471	231.08
404.68	77.48
404.888	183.98
405.097	175.78
405.306	169.64
405.515	204.46
405.724	181.93
405.933	239.27
406.142	204.46
406.35	253.61
406.559	181.93
406.768	224.94
406.977	257.7
407.185	196.26
407.394	159.4
407.603	183.98
407.812	294.57
408.02	286.37
408.229	253.61
408.438	323.24
408.646	308.9
408.855	251.56
409.064	261.8
409.272	380.58
409.481	325.29
409.69	306.85
409.898	413.35
410.107	470.69
410.315	337.57
410.524	337.57
410.733	442.02
410.941	409.25
411.15	472.74
411.358	439.97
411.567	487.08
411.775	523.94
411.984	568.99
412.192	546.47
412.401	612
412.609	544.42
412.818	640.67
413.026	628.39
413.234	640.67
413.443	659.1
413.651	655.01
413.86	767.65
414.068	724.64
414.276	693.92
414.485	798.37
414.693	855.71
414.901	824.99
415.11	997.02
415.318	945.82
415.526	898.72
415.734	992.92
415.943	1003.16
416.151	1072.79
416.359	1107.61
416.567	1060.51
416.776	1101.47
416.984	1250.97
417.192	1363.61
417.4	1259.16
417.608	1351.32
417.817	1384.09
418.025	1455.76
418.233	1644.18
418.441	1488.53
418.649	1599.12
418.857	1711.76
419.065	1699.47
419.273	1705.62
419.481	1816.21
419.689	1824.4
419.897	2021
420.105	1994.38
420.313	2045.58
420.521	2182.79
420.729	2158.22
420.937	2295.43
421.145	2354.82
421.353	2410.12
421.561	2533
421.769	2678.4
421.977	2719.36
422.185	2637.44
422.393	2852.48
422.601	2989.69
422.809	3055.23
423.017	3034.75
423.224	3169.91
423.432	3483.25
423.64	3249.79
423.848	3599.99
424.056	3501.69
424.263	3821.17
424.471	3862.13
424.679	3935.85
424.887	4216.43
425.094	4175.47
425.302	4181.61
425.51	4394.6
425.718	4603.49
425.925	4679.27
426.133	4775.52
426.341	5105.24
426.548	5080.67
426.756	5242.46
426.964	5439.06
427.171	5756.5
427.379	6004.3
427.586	5830.23
427.794	6057.55
428.001	6256.2
428.209	6708.8
428.417	6366.79
428.624	6997.57
428.832	6956.61
429.039	7020.1
429.247	7024.19
429.454	7642.68
429.662	8148.53
429.869	7730.74
430.076	7827
430.284	8060.46
430.491	8328.75
430.699	8732.2
430.906	8824.36
431.114	8719.91
431.321	9274.91
431.528	9424.41
431.736	9967.12
431.943	10599.94
432.15	10239.5
432.358	10249.74
432.565	10798.6
432.772	10671.62
432.979	11179.52
433.187	11605.5
433.394	11640.31
433.601	12293.62
433.808	12451.31
434.016	12168.69
434.223	12813.8
434.43	13622.75
434.637	13403.61
434.844	14114.26
435.052	14519.76
435.259	14212.56
435.466	14538.19
435.673	14439.89
435.88	15244.74
436.087	16289.2
436.294	16174.52
436.501	15939
436.708	15996.34
436.915	16530.86
437.122	17270.18
437.329	17196.45
437.537	17825.18
437.743	17913.24
437.95	18359.7
438.157	18996.62
438.364	19824
438.571	19500.42
438.778	19776.89
438.985	21276.01
439.192	20700.53
439.399	21230.95
439.606	20737.39
439.813	21923.16
440.02	23635.27
440.227	23037.26
440.433	22621.52
440.64	23651.65
440.847	23471.43
441.054	24028.48
441.261	25367.85
441.467	25287.98
441.674	26027.29
441.881	26711.32
442.088	26643.73
442.294	26494.23
442.501	27075.85
442.708	27286.79
442.914	28634.36
443.121	29936.87
443.328	29074.67
443.534	31040.72
443.741	30172.38
443.948	30008.54
444.154	32289.98
444.361	32107.71
444.568	32289.98
444.774	32187.58
444.981	32232.64
445.187	33508.52
445.394	34690.2
445.6	34466.97
445.807	37559.41
446.013	35923.08
446.22	36523.13
446.426	38067.3
446.633	38360.16
446.839	39709.77
447.046	38161.51
447.252	40326.21
447.459	40537.15
447.665	39984.2
447.871	41440.31
448.078	43635.73
448.284	41567.28
448.491	42517.54
448.697	43971.6
448.903	45030.4
449.11	44860.41
449.316	44639.23
449.522	45343.73
449.728	46195.69
449.935	46969.82
450.141	46664.67
450.347	47725.52
450.553	46369.77
450.76	47315.93
450.966	48622.53
451.172	47772.63
451.378	48702.4
451.584	48120.78
451.791	49083.33
451.997	49241.02
452.203	49302.46
452.409	49884.08
452.615	49599.41
452.821	47911.89
453.027	47502.29
453.233	49873.84
453.44	47621.08
453.646	48141.26
453.852	48489.41
454.058	48890.82
454.264	47709.14
454.47	48911.3
454.676	47217.63
454.882	49091.52
455.088	45032.44
455.294	45581.3
455.5	46431.21
455.705	47207.39
455.911	44846.08
456.117	44356.61
456.323	43762.7
456.529	41210.93
456.735	43082.78
456.941	41641.01
457.147	41151.54
457.352	40256.58
457.558	39793.74
457.764	39920.71
457.97	38714.46
458.176	38249.57
458.381	37942.38
458.587	36422.78
458.793	36371.58
458.999	34739.35
459.204	36699.26
459.41	35460.24
459.616	33811.62
459.821	33655.98
460.027	33666.22
460.233	33066.16
460.438	31458.51
460.644	31288.53
460.85	29928.67
461.055	29324.52
461.261	29629.67
461.466	27321.61
461.672	26318.11
461.878	28364.03
462.083	26651.92
462.289	26195.23
462.494	25771.3
462.7	24638.77
462.905	24143.16
463.111	24962.35
463.316	25255.21
463.522	24569.14
463.727	24376.63
463.932	24374.58
464.138	24120.63
464.343	24008
464.549	23289.16
464.754	23835.97
464.959	24223.03
465.165	23901.5
465.37	22920.52
465.575	22293.85
465.781	23176.52
465.986	23369.03
466.191	22469.97
466.397	21914.97
466.602	21050.73
466.807	21728.61
467.012	21714.27
467.218	21663.07
467.423	21136.74
467.628	21288.29
467.833	22058.33
468.038	21511.52
468.244	21020.01
468.449	21814.62
468.654	20907.37
468.859	20880.75
469.064	20759.92
469.269	20131.19
469.474	20135.29
469.679	20243.83
469.885	19899.77
470.09	20020.6
470.295	20030.84
470.5	19453.31
470.705	19746.17
470.91	19326.34
471.115	19125.64
471.32	19563.9
471.525	19113.35
471.73	18800.01
471.935	18679.18
472.139	18118.04
472.344	18632.08
472.549	18236.82
472.754	17958.3
472.959	17479.07
473.164	17300.9
473.369	17073.57
473.574	17495.46
473.778	17534.37
473.983	17167.78
474.188	17218.98
474.393	16514.48
474.598	16711.08
474.802	16020.92
475.007	16364.98
475.212	16033.21
475.417	15728.06
475.621	15541.69
475.826	15754.68
476.031	15279.55
476.235	15109.57
476.44	15359.42
476.645	14689.74
476.849	14988.74
477.054	14794.18
477.259	14767.56
477.463	14814.66
477.668	14321.1
477.872	14443.98
478.077	14130.64
478.282	13905.37
478.486	13829.59
478.691	13534.68
478.895	13561.31
479.1	13409.76
479.304	13376.99
479.509	13290.98
479.713	13385.18
479.918	13100.51
480.122	12856.81
480.326	13118.95
480.531	13125.09
480.735	12877.29
480.94	12934.63
481.144	13194.72
481.348	12594.67
481.553	12951.01
481.757	12324.33
481.961	12658.15
482.166	12901.86
482.37	12574.19
482.574	12367.34
482.778	12652.01
482.983	12633.58
483.187	12580.33
483.391	12699.11
483.595	12254.7
483.8	12330.48
484.004	12336.62
484.208	12621.29
484.412	12379.63
484.616	12506.6
484.821	12414.45
485.025	12266.99
485.229	12590.57
485.433	12197.36
485.637	12285.42
485.841	12414.45
486.045	12264.94
486.249	12445.16
486.453	12275.18
486.657	12330.48
486.861	12719.59
487.065	12232.18
487.269	12375.53
487.473	12097.01
487.677	12508.65
487.881	12576.23
488.085	12570.09
488.289	12371.44
488.493	12379.63
488.697	12525.04
488.901	12445.16
489.105	12543.47
489.309	12740.07
489.512	12545.52
489.716	12733.93
489.92	12508.65
490.124	12627.43
490.328	12762.6
490.531	12940.77
490.735	12637.67
490.939	12533.23
491.143	12600.81
491.346	12690.92
491.55	12998.12
491.754	13082.08
491.958	13016.55
492.161	12881.38
492.365	12914.15
492.569	13032.93
492.772	12979.68
492.976	13379.04
493.18	13110.75
493.383	13729.24
493.587	13385.18
493.79	13557.21
493.994	13303.26
494.197	13696.47
494.401	13827.54
494.605	13608.41
494.808	13815.26
495.012	13878.74
495.215	14038.48
495.419	14239.19
495.622	14376.4
495.825	14566.86
496.029	14155.22
496.232	14779.85
496.436	14697.93
496.639	14800.33
496.843	15138.24
497.046	15252.93
497.249	15146.44
497.453	15332.8
497.656	15424.96
497.859	15478.21
498.063	15713.72
498.266	15930.81
498.469	15949.24
498.673	16012.73
498.876	16838.06
499.079	16588.21
499.282	16692.65
499.485	16823.72
499.689	16926.12
499.892	17196.45
500.095	17376.67
500.298	17925.53
500.501	17538.46
500.705	17913.24
500.908	18247.06
501.111	18427.28
501.314	18322.84
501.517	18468.24
501.72	19209.61
501.923	18677.13
502.126	19033.48
502.329	19475.84
502.532	19635.58
502.735	19703.17
502.938	20153.72
503.141	20051.32
503.344	20688.24
503.547	20757.87
503.75	20843.88
503.953	21198.18
504.156	21450.08
504.359	21452.13
504.562	21650.78
504.765	22173.02
504.968	22322.52
505.17	22377.81
505.373	22547.79
505.576	22961.48
505.779	23301.45
505.982	23360.84
506.185	23883.07
506.387	23858.49
506.59	23952.7
506.793	24548.66
506.996	24393.01
507.198	25031.98
507.401	25089.32
507.604	25103.66
507.807	25638.18
508.009	25556.26
508.212	26135.84
508.415	26084.64
508.617	26498.33
508.82	26662.16
509.022	26357.02
509.225	27446.54
509.428	27507.97
509.63	27505.93
509.833	27763.97
510.035	28628.21
510.238	28257.53
510.44	28667.13
510.643	29080.81
510.845	29312.24
511.048	29089.01
511.25	29388.01
511.453	29566.18
511.655	30975.19
511.858	30565.59
512.06	30751.96
512.262	30903.51
512.465	31268.05
512.667	31521.99
512.87	32036.03
513.072	31898.82
513.274	32783.54
513.477	32572.6
513.679	32933.04
513.881	33467.56
514.084	33582.25
514.286	33350.83
514.488	33651.88
514.69	34544.8
514.893	34550.94
515.095	34999.44
515.297	35406.99
515.499	35116.18
515.701	35708.04
515.904	36070.53
516.106	36021.38
516.308	36680.83
516.51	36934.78
516.712	37125.24
516.914	37186.68
517.116	37907.56
517.318	37923.94
517.52	38220.9
517.722	37858.41
517.925	38716.51
518.127	39212.12
518.329	39404.63
518.531	39085.14
518.733	39918.67
518.935	39978.06
519.136	40156.23
519.338	40627.26
519.54	41190.45
519.742	41043
519.944	41075.77
520.146	42140.71
520.348	41976.87
520.55	42134.57
520.752	42079.27
520.954	43136.02
521.155	42490.91
521.357	43371.54
521.559	43365.4
521.761	44086.28
521.963	43899.92
522.164	44256.26
522.366	44373
522.568	44317.7
522.77	44524.55
522.971	45413.37
523.173	45073.4
523.375	45888.49
523.576	45591.54
523.778	45626.35
523.98	46404.58
524.181	46312.42
524.383	46404.58
524.584	46988.25
524.786	46885.86
524.988	46775.26
525.189	47373.27
525.391	47602.64
525.592	47627.22
525.794	47922.13
525.995	48014.29
526.197	48194.51
526.398	47858.64
526.6	48423.88
526.801	48608.2
527.003	48878.53
527.204	48608.2
527.406	49251.26
527.607	49185.72
527.808	49753.01
528.01	48667.59
528.211	48956.35
528.412	49904.56
528.614	49550.26
528.815	49806.26
529.016	50011.06
529.218	49656.76
529.419	49847.22
529.62	49828.79
529.822	50113.45
530.023	50088.88
530.224	50320.3
530.425	50123.69
530.626	49761.2
530.828	49640.37
531.029	50445.22
531.23	49875.89
531.431	50099.12
531.632	50135.98
531.833	50533.29
532.035	50660.26
532.236	50738.08
532.437	50566.06
532.638	50211.76
532.839	50869.15
533.04	51076
533.241	50215.85
533.442	51026.85
533.643	50627.49
533.844	50342.83
534.045	51024.8
534.246	50471.85
534.447	50975.65
534.648	50631.59
534.849	51096.48
535.05	50752.42
535.251	50664.36
535.451	50033.58
535.652	50451.37
535.853	50443.18
536.054	50664.36
536.255	50475.94
536.456	50076.59
536.657	51200.93
536.857	50441.13
537.058	50078.64
537.259	51045.28
537.46	50965.41
537.66	50543.53
537.861	50912.16
538.062	50920.35
538.263	50666.41
538.463	50447.27
538.664	50561.96
538.865	50615.21
539.065	50719.65
539.266	50256.81
539.466	51067.81
539.667	49970.1
539.868	50871.2
540.068	50424.75
540.269	49724.34
540.469	50777
540.67	50215.85
540.87	50209.71
541.071	50011.06
541.271	51078.05
541.472	50439.08
541.672	49742.77
541.873	50109.36
542.073	49697.72
542.274	50983.84
542.474	49824.69
542.675	49517.5
542.875	50287.53
543.075	50209.71
543.276	50041.78
543.476	50144.17
543.676	50484.14
543.877	50129.84
544.077	49644.47
544.277	49906.61
544.478	49966
544.678	50045.87
544.878	49798.07
545.078	50213.8
545.279	49804.21
545.479	49918.9
545.679	49697.72
545.879	50074.54
546.079	50076.59
546.28	49845.17
546.48	49699.76
546.68	49748.92
546.88	49830.83
547.08	49533.88
547.28	49640.37
547.48	49243.07
547.68	49720.24
547.88	49560.5
548.081	49796.02
548.281	49580.98
548.481	49722.29
548.681	49843.12
548.881	49533.88
549.081	49466.3
549.28	49439.67
549.48	49806.26
549.68	49499.06
549.88	50181.04
550.08	49411
550.28	49740.72
550.48	49451.96
550.68	49568.69
550.88	49400.76
551.08	49208.25
551.279	48942.02
551.479	48868.29
551.679	48966.59
551.879	48989.12
552.079	49382.33
552.278	49791.92
552.478	49480.63
552.678	49345.47
552.878	49744.82
553.077	49120.19
553.277	48679.88
553.477	49021.89
553.676	48821.19
553.876	49073.09
554.076	48970.69
554.275	48776.13
554.475	48391.11
554.674	49208.25
554.874	48987.07
555.074	48624.58
555.273	48829.38
555.473	48956.35
555.672	48626.63
555.872	49048.51
556.071	48620.48
556.271	48649.16
556.47	48651.2
556.67	48346.06
556.869	48419.78
557.068	48663.49
557.268	48511.94
557.467	48587.72
557.667	48301
557.866	48337.87
558.065	48419.78
558.265	48143.31
558.464	48200.65
558.663	48649.16
558.863	47973.33
559.062	48409.54
559.261	47821.78
559.461	48460.74
559.66	47676.37
559.859	47944.66
560.058	47616.98
560.258	47946.7
560.457	47469.53
560.656	47842.26
560.855	47702.99
561.054	47690.71
561.253	47027.17
561.453	47571.92
561.652	47561.68
561.851	47807.44
562.05	47576.02
562.249	47268.83
562.448	47848.4
562.647	47641.56
562.846	47133.66
563.045	47029.21
563.244	46683.11
563.443	47307.74
563.642	46457.83
563.841	46535.65
564.04	46883.81
564.239	47227.87
564.438	46656.48
564.637	46586.85
564.836	47037.4
565.035	46509.03
565.234	46560.23
565.432	46136.3
565.631	46124.01
565.83	46574.56
566.029	46044.14
566.228	46023.66
566.427	46283.75
566.625	46171.11
566.824	45343.73
567.023	46298.09
567.222	45466.61
567.42	46179.31
567.619	45579.25
567.818	45257.72
568.016	45120.51
568.215	45663.22
568.414	45626.35
568.612	45736.94
568.811	45464.56
569.01	45513.72
569.208	44792.83
569.407	45480.95
569.605	44647.43
569.804	45519.86
570.002	44856.32
570.201	45097.98
570.4	44526.6
570.598	44817.41
570.797	44200.97
570.995	44962.81
571.193	44282.89
571.392	44940.28
571.59	43947.02
571.789	44395.53
571.987	44225.54
572.186	44264.46
572.384	43895.82
572.582	44192.78
572.781	43963.4
572.979	43414.55
573.177	43654.16
573.376	43789.33
573.574	43660.3
573.772	43818
573.971	43375.64
574.169	43248.66
574.367	42826.78
574.565	43013.15
574.763	43303.96
574.962	43127.83
575.16	42423.33
575.358	43240.47
575.556	42589.22
575.754	43105.3
575.952	42687.52
576.151	42828.83
576.349	42214.44
576.547	42411.04
576.745	42259.49
576.943	42259.49
577.141	42181.67
577.339	42488.87
577.537	42146.86
577.735	41915.44
577.933	41712.69
578.131	42058.79
578.329	41448.5
578.527	41684.01
578.725	41413.68
578.923	41608.24
579.121	41133.11
579.319	41280.56
579.516	41526.32
579.714	41118.78
579.912	41083.96
580.11	40885.31
580.308	41284.66
580.506	40670.27
580.704	40332.36
580.901	40827.96
581.099	40559.68
581.297	40346.69
581.495	40174.66
581.692	40782.91
581.89	40227.91
582.088	40381.51
582.285	39978.06
582.483	40430.66
582.681	39756.88
582.878	39785.55
583.076	39009.37
583.274	39748.68
583.471	39117.91
583.669	39554.13
583.866	39287.89
584.064	39234.64
584.262	38935.64
584.459	38939.74
584.657	38839.39
584.854	38800.47
585.052	38437.98
585.249	38962.26
585.447	39009.37
585.644	38118.5
585.841	38435.94
586.039	38550.62
586.236	37778.54
586.434	37727.34
586.631	37620.84
586.828	37942.38
587.026	37407.86
587.223	37891.18
587.42	37368.94
587.618	38122.6
587.815	37145.72
588.012	37241.97
588.21	37203.06
588.407	37545.07
588.604	36752.51
588.801	36840.57
588.999	36914.3
589.196	36740.22
589.393	36883.58
589.59	36539.52
589.787	36715.64
589.984	36242.56
590.182	36158.59
590.379	36091.01
590.576	36140.16
590.773	35951.75
590.97	35755.15
591.167	35820.68
591.364	35933.32
591.561	35918.98
591.758	35470.48
591.955	35347.6
592.152	35525.77
592.349	34991.25
592.546	35325.07
592.743	35173.52
592.94	34348.19
593.137	34856.09
593.334	35107.99
593.531	34317.47
593.727	34749.59
593.924	34589.85
594.121	34608.28
594.318	34358.43
594.515	33821.86
594.712	34448.54
594.908	33559.72
595.105	34116.77
595.302	33369.26
595.499	33858.73
595.696	33418.41
595.892	33344.69
596.089	33664.17
596.286	33506.48
596.482	33201.33
596.679	33471.66
596.876	33027.25
597.072	32808.12
597.269	33100.98
597.466	32885.94
597.662	32939.19
597.859	32722.1
598.055	32677.05
598.252	32357.56
598.448	32429.24
598.645	32316.61
598.841	32163.01
599.038	32134.34
599.234	32423.1
599.431	31384.78
599.627	31542.47
599.824	32122.05
600.02	31229.13
600.217	31519.95
600.413	31407.31
600.609	31222.99
600.806	31380.68
601.002	31540.43
601.198	31012.05
601.395	30958.8
601.591	31200.46
601.787	30711
601.984	30905.56
602.18	31169.74
602.376	30842.07
602.572	30545.11
602.769	30452.95
602.965	30102.75
603.161	30446.81
603.357	30127.33
603.553	29990.11
603.75	29986.02
603.946	29736.16
604.142	29609.19
604.338	29236.46
604.534	29607.14
604.73	29476.07
604.926	29474.02
605.122	29551.85
605.318	29150.45
605.514	29056.24
605.71	28720.37
605.906	29093.1
606.102	29158.64
606.298	28845.3
606.494	29017.33
606.69	28730.61
606.886	28613.88
607.082	28374.27
607.278	28742.9
607.474	28482.81
607.67	28720.37
607.866	28257.53
608.062	28761.33
608.257	28355.83
608.453	28323.07
608.649	28597.49
608.845	28042.49
609.041	28085.5
609.236	28282.11
609.432	27714.82
609.628	27798.79
609.824	27675.91
610.019	27876.61
610.215	27686.15
610.411	27817.22
610.606	27464.97
610.802	27907.33
610.998	27737.35
611.193	27397.38
611.389	27624.71
611.584	27350.28
611.78	27120.91
611.976	27151.63
612.171	27176.2
612.367	27086.09
612.562	27120.91
612.758	26535.19
612.953	27016.46
613.149	27254.03
613.344	27026.7
613.539	27272.46
613.735	27096.33
613.93	26725.65
614.126	26895.63
614.321	26912.02
614.517	26479.89
614.712	26756.37
614.907	26268.95
615.103	26826
615.298	26545.43
615.493	26680.6
615.688	25998.62
615.884	26656.02
616.079	26060.06
616.274	26531.09
616.47	26490.13
616.665	26326.3
616.86	26021.15
617.055	26139.93
617.25	26285.34
617.445	26156.32
617.641	26223.9
617.836	26031.39
618.031	25546.02
618.226	25920.8
618.421	25644.32
618.616	25842.98
618.811	25183.53
619.006	25691.43
619.201	25083.18
619.396	25406.76
619.591	25283.88
619.786	25249.07
619.981	24802.61
620.176	24997.17
620.371	24380.73
620.566	25023.79
620.761	24663.35
620.956	24630.58
621.151	24401.21
621.346	24323.38
621.541	23893.31
621.735	24139.07
621.93	23702.85
622.125	23555.4
622.32	23414.09
622.515	23545.16
622.709	23518.53
622.904	23637.31
623.099	23438.66
623.294	23506.24
623.488	22732.11
623.683	23053.64
623.878	22805.84
624.072	22791.5
624.267	22527.31
624.462	22261.08
624.656	22187.35
624.851	22267.22
625.046	22263.13
625.24	21939.55
625.435	21720.42
625.629	21882.2
625.824	21876.06
626.018	21505.38
626.213	20899.18
626.407	21306.73
626.602	21003.63
626.796	21202.28
626.991	20755.82
627.185	20911.47
627.38	20735.34
627.574	20487.54
627.768	20725.1
627.963	20264.31
628.157	20098.42
628.352	20100.47
628.546	19899.77
628.74	20288.89
628.935	19699.07
629.129	19856.76
629.323	19492.23
629.517	19604.86
629.712	19432.83
629.906	19287.43
630.1	19174.79
630.294	19352.96
630.489	18916.75
630.683	19142.02
630.877	18757
631.071	18771.34
631.265	18779.53
631.459	18593.17
631.653	18509.2
631.848	18288.02
632.042	18367.89
632.236	18230.68
632.43	17933.72
632.624	17984.92
632.818	17884.57
633.012	17610.14
633.206	17446.3
633.4	17737.12
633.594	17249.7
633.788	17474.98
633.982	17386.91
634.176	17141.16
634.369	17141.16
634.563	16973.22
634.757	17003.94
634.951	17276.32
635.145	16680.36
635.339	16866.73
635.533	16715.18
635.726	16631.21
635.92	16227.76
636.114	16475.57
636.308	16104.88
636.501	16446.9
636.695	16297.39
636.889	15785.4
637.083	15930.81
637.276	15920.57
637.47	15693.24
637.664	15553.98
637.857	15513.02
638.051	15574.46
638.244	15605.18
638.438	15570.37
638.632	15435.2
638.825	14951.88
639.019	15365.57
639.212	14998.98
639.406	14972.36
639.599	14712.27
639.793	14941.64
639.986	14695.88
640.18	14675.4
640.373	14593.48
640.567	14650.83
640.76	14501.33
640.954	14454.22
641.147	14290.38
641.34	14063.06
641.534	14274
641.727	13983.19
641.92	14046.68
642.114	13903.32
642.307	13983.19
642.5	13987.29
642.694	13725.15
642.887	13667.8
643.08	13829.59
643.273	13702.62
643.467	13655.51
643.66	13286.88
643.853	13325.79
644.046	13370.85
644.239	13202.91
644.432	13137.38
644.626	13217.25
644.819	12922.34
645.012	12807.66
645.205	12959.2
645.398	12795.37
645.591	12850.66
645.784	12768.74
645.977	12639.72
646.17	12625.39
646.363	12432.88
646.556	12365.29
646.749	12543.47
646.942	12424.69
647.135	12340.72
647.328	11922.93
647.521	12090.87
647.714	11869.69
647.907	12064.24
648.099	11779.57
648.292	11904.5
648.485	11902.45
648.678	11572.73
648.871	11843.06
649.064	11656.7
649.256	11578.87
649.449	11578.87
649.642	11513.34
649.835	11302.4
650.027	11417.08
650.22	11425.28
650.413	11232.77
650.605	11261.44
650.798	11167.23
650.991	11036.16
651.183	11267.58
651.376	10829.32
651.568	10866.18
651.761	10601.99
651.954	10825.22
652.146	10731.01
652.339	10665.48
652.531	10274.32
652.724	10389
652.916	10372.62
653.109	10182.16
653.301	10302.99
653.494	10487.31
653.686	10087.95
653.879	10618.38
654.071	10366.48
654.263	10065.43
654.456	10042.9
654.648	9864.72
654.84	9852.44
655.033	9834
655.225	9917.97
655.417	9840.15
655.61	9694.74
655.802	9791
655.994	9664.02
656.186	9739.8
656.379	9571.86
656.571	9520.67
656.763	9578.01
656.955	9252.38
657.148	9188.89
657.34	9405.98
657.532	9276.96
657.724	9104.93
657.916	9102.88
658.108	9152.03
658.3	9115.17
658.492	8980
658.684	8975.91
658.876	8881.7
659.068	8885.8
659.26	8795.68
659.452	8896.03
659.644	8721.96
659.836	8560.17
660.028	8650.28
660.22	8435.24
660.412	8486.44
660.604	8328.75
660.796	8457.77
660.988	8461.87
661.18	8310.32
661.372	8234.54
661.563	8406.57
661.755	8203.82
661.947	8283.69
662.139	8015.41
662.331	8023.6
662.522	8003.12
662.714	7943.73
662.906	8140.33
663.097	7878.19
663.289	7765.56
663.481	7771.7
663.673	7839.28
663.864	7691.83
664.056	7771.7
664.247	7708.21
664.439	7634.49
664.631	7552.57
664.822	7509.56
665.014	7532.09
665.205	7468.6
665.397	7556.66
665.588	7460.41
665.78	7444.03
665.971	7548.47
666.163	7284.28
666.354	7312.96
666.546	7194.17
666.737	7294.52
666.929	7259.71
667.12	7132.73
667.311	7136.83
667.503	7142.97
667.694	6958.66
667.885	7038.53
668.077	7009.86
668.268	6897.22
668.459	6966.85
668.651	6876.74
668.842	6737.48
669.033	6872.64
669.224	6811.2
669.416	6717
669.607	6700.61
669.798	6600.26
669.989	6872.64
670.18	6760
670.371	6528.58
670.563	6495.82
670.754	6520.39
670.945	6477.38
671.136	6432.33
671.327	6401.61
671.518	6303.31
671.709	6403.66
671.9	6534.73
672.091	6555.21
672.282	6323.79
672.473	6252.11
672.664	6176.33
672.855	6106.7
673.046	6198.86
673.237	6325.83
673.428	6356.55
673.619	6047.31
673.809	6014.54
674	6092.37
674.191	5951.06
674.382	6018.64
674.573	5989.97
674.764	6000.21
674.954	6063.69
675.145	5926.48
675.336	5955.15
675.527	5959.25
675.717	5813.84
675.908	5826.13
676.099	5795.41
676.289	5819.99
676.48	5754.45
676.671	5613.14
676.861	5670.48
677.052	5568.09
677.243	5684.82
677.433	5555.8
677.624	5594.71
677.814	5568.09
678.005	5615.19
678.195	5570.13
678.386	5523.03
678.576	5455.45
678.767	5611.09
678.957	5371.48
679.148	5604.95
679.338	5520.98
679.529	5480.02
679.719	5453.4
679.909	5445.21
680.1	5295.71
680.29	5488.21
680.481	5262.94
680.671	5336.67
680.861	5262.94
681.052	5391.96
681.242	5303.9
681.432	5394.01
681.622	5226.07
681.813	5152.35
682.003	5246.55
682.193	5332.57
682.383	5203.55
682.573	4990.56
682.764	5174.88
682.954	5092.96
683.144	5152.35
683.334	5193.31
683.524	4970.08
683.714	5023.33
683.904	4978.27
684.094	4965.98
684.284	5029.47
684.474	4957.79
684.664	4996.7
684.854	4759.14
685.044	4959.84
685.234	4804.19
685.424	4943.46
685.614	4812.39
685.804	4875.87
685.994	4777.57
686.184	4945.5
686.374	4826.72
686.564	4757.09
686.753	4791.91
686.943	4759.14
687.133	4677.22
687.323	4687.46
687.513	4679.27
687.702	4566.63
687.892	4544.1
688.082	4687.46
688.272	4542.05
688.461	4525.67
688.651	4687.46
688.841	4601.44
689.03	4402.79
689.22	4367.98
689.41	4390.5
689.599	4331.11
689.789	4537.96
689.979	4322.92
690.168	4310.63
690.358	4331.11
690.547	4400.74
690.737	4286.06
690.926	4157.04
691.116	4292.2
691.305	4210.28
691.495	4140.65
691.684	4040.3
691.874	4118.12
692.063	4040.3
692.252	4146.8
692.442	3964.53
692.631	4023.92
692.82	3972.72
693.01	3898.99
693.199	3872.37
693.388	3808.88
693.578	3980.91
693.767	3972.72
693.956	3792.5
694.146	3956.33
694.335	3927.66
694.524	3880.56
694.713	3868.27
694.902	3769.97
695.092	3743.35
695.281	3749.49
695.47	3726.96
695.659	3696.24
695.848	3626.61
696.037	3796.59
696.226	3649.14
696.415	3602.04
696.604	3569.27
696.793	3647.09
696.982	3636.85
697.171	3651.19
697.36	3493.49
697.549	3493.49
697.738	3499.64
697.927	3403.38
698.116	3591.8
698.305	3491.45
698.494	3554.93
698.683	3389.05
698.872	3436.15
699.061	3415.67
699.25	3432.05
699.438	3419.77
699.627	3497.59
699.816	3313.27
700.005	3319.42
700.193	3468.92
700.382	3391.09
700.571	3376.76
700.76	3241.59
700.948	3262.07
701.137	3280.5
701.326	3430.01
701.514	3188.35
701.703	3255.93
701.892	3294.84
702.08	3266.17
702.269	3208.83
702.457	3235.45
702.646	3341.94
702.834	3208.83
703.023	3235.45
703.212	3202.68
703.4	3260.02
703.589	3067.52
703.777	3262.07
703.965	3188.35
704.154	3100.28
704.342	3116.67
704.531	2975.36
704.719	3231.35
704.907	3122.81
705.096	3112.57
705.284	3151.48
705.472	3069.56
705.661	3073.66
705.849	3063.42
706.037	3081.85
706.226	3049.08
706.414	3108.48
706.602	3008.12
706.79	3098.24
706.979	3088
707.167	2977.41
707.355	3001.98
707.543	2991.74
707.731	3067.52
707.919	3094.14
708.107	3042.94
708.296	3024.51
708.484	2928.25
708.672	2901.63
708.86	3024.51
709.048	3012.22
709.236	2911.87
709.424	2999.93
709.612	3036.8
709.8	2805.38
709.988	2872.96
710.176	3016.32
710.364	2870.91
710.551	3016.32
710.739	2944.64
710.927	2905.73
711.115	2858.62
711.303	2954.88
711.491	2819.71
711.679	2879.1
711.866	2842.24
712.054	2909.82
712.242	2807.42
712.43	2932.35
712.617	2885.25
712.805	2852.48
712.993	3047.04
713.181	2819.71
713.368	2915.97
713.556	2842.24
713.744	2819.71
713.931	2754.18
714.119	2817.66
714.306	2801.28
714.494	2739.84
714.682	2866.81
714.869	2875.01
715.057	2844.29
715.244	2860.67
715.432	2786.94
715.619	2711.17
715.807	2678.4
715.994	2649.73
716.182	2764.42
716.369	2797.18
716.556	2840.19
716.744	2786.94
716.931	2702.98
717.119	2875.01
717.306	2791.04
717.493	2745.98
717.681	2737.79
717.868	2795.14
718.055	2739.84
718.242	2766.46
718.43	2748.03
718.617	2782.85
718.804	2696.83
718.991	2762.37
719.179	2729.6
719.366	2709.12
719.553	2705.03
719.74	2723.46
719.927	2764.42
720.114	2600.58
720.301	2625.15
720.488	2711.17
720.676	2797.18
720.863	2768.51
721.05	2657.92
721.237	2594.44
721.424	2694.79
721.611	2741.89
721.798	2684.55
721.985	2662.02
722.172	2631.3
722.358	2686.59
722.545	2694.79
722.732	2682.5
722.919	2684.55
723.106	2684.55
723.293	2555.52
723.48	2739.84
723.667	2602.63
723.853	2483.84
724.04	2795.14
724.227	2766.46
724.414	2756.22
724.6	2721.41
724.787	2631.3
724.974	2739.84
725.161	2813.57
725.347	2598.53
725.534	2768.51
725.72	2653.83
725.907	2641.54
726.094	2752.13
726.28	2625.15
726.467	2739.84
726.653	2684.55
726.84	2641.54
727.027	2725.51
727.213	2659.97
727.4	2682.5
727.586	2688.64
727.773	2686.59
727.959	2725.51
728.145	2670.21
728.332	2788.99
728.518	2696.83
728.705	2719.36
728.891	2651.78
729.077	2762.37
729.264	2680.45
729.45	2717.31
729.636	2637.44
729.823	2723.46
730.009	2711.17
730.195	2725.51
730.382	2711.17
730.568	2791.04
730.754	2768.51
730.94	2696.83
731.126	2666.11
731.313	2590.34
731.499	2778.75
731.685	2780.8
731.871	2641.54
732.057	2711.17
732.243	2649.73
732.429	2664.07
732.615	2713.22
732.801	2700.93
732.987	2801.28
733.173	2719.36
733.359	2715.27
733.545	2688.64
733.731	2520.71
733.917	2692.74
734.103	2649.73
734.289	2721.41
734.475	2627.2
734.661	2623.11
734.847	2752.13
735.033	2827.9
735.219	2684.55
735.404	2600.58
735.59	2664.07
735.776	2637.44
735.962	2647.68
736.148	2631.3
736.333	2641.54
736.519	2635.39
736.705	2688.64
736.89	2705.03
737.076	2680.45
737.262	2631.3
737.447	2748.03
737.633	2635.39
737.819	2743.94
738.004	2664.07
738.19	2592.39
738.375	2602.63
738.561	2745.98
738.747	2739.84
738.932	2670.21
739.118	2541.19
739.303	2569.86
739.489	2639.49
739.674	2705.03
739.859	2651.78
740.045	2487.94
740.23	2616.96
740.416	2590.34
740.601	2500.23
740.786	2545.28
740.972	2676.35
741.157	2543.24
741.342	2592.39
741.528	2598.53
741.713	2530.95
741.898	2637.44
742.084	2557.57
742.269	2614.91
742.454	2659.97
742.639	2563.72
742.824	2457.22
743.01	2596.48
743.195	2510.47
743.38	2539.14
743.565	2510.47
743.75	2555.52
743.935	2348.68
744.12	2416.26
744.305	2408.07
744.49	2549.38
744.675	2395.78
744.86	2403.97
745.045	2485.89
745.23	2432.65
745.415	2385.54
745.6	2360.97
745.785	2320.01
745.97	2449.03
746.155	2373.25
746.34	2344.58
746.525	2414.21
746.71	2387.59
746.895	2315.91
747.079	2373.25
747.264	2297.48
747.449	2350.73
747.634	2289.29
747.819	2272.9
748.003	2283.14
748.188	2238.09
748.373	2233.99
748.557	2213.51
748.742	2176.65
748.927	2258.57
749.111	2250.38
749.296	2131.59
749.481	2277
749.665	2100.87
749.85	2084.49
750.034	2094.73
750.219	2098.83
750.404	2051.72
750.588	2070.16
750.773	1971.85
750.957	2070.16
751.141	2113.16
751.326	2043.53
751.51	1910.41
751.695	1953.42
751.879	2090.63
752.064	1988.24
752.248	1904.27
752.432	1982.09
752.617	2049.68
752.801	1879.69
752.985	1906.32
753.17	1810.06
753.354	1937.04
753.538	1857.17
753.722	1842.83
753.907	1867.41
754.091	1877.65
754.275	1822.35
754.459	1887.89
754.643	1797.78
754.828	1732.24
755.012	1803.92
755.196	1726.1
755.38	1742.48
755.564	1699.47
755.748	1734.29
755.932	1775.25
756.116	1652.37
756.3	1722
756.484	1726.1
756.668	1609.36
756.852	1576.59
757.036	1713.81
757.22	1648.27
757.404	1580.69
757.588	1560.21
757.772	1621.65
757.956	1554.07
758.14	1613.46
758.323	1588.88
758.507	1615.51
758.691	1525.4
758.875	1466
759.059	1554.07
759.242	1474.2
759.426	1496.72
759.61	1502.87
759.794	1554.07
759.977	1527.44
760.161	1506.96
760.345	1529.49
760.528	1443.48
760.712	1390.23
760.895	1543.83
761.079	1404.57
761.263	1492.63
761.446	1461.91
761.63	1394.33
761.813	1425.04
761.997	1349.27
762.18	1349.27
762.364	1394.33
762.547	1285.78
762.731	1267.35
762.914	1302.17
763.098	1334.93
763.281	1318.55
763.464	1334.93
763.648	1279.64
763.831	1343.13
764.015	1281.69
764.198	1361.56
764.381	1326.74
764.564	1328.79
764.748	1324.69
764.931	1310.36
765.114	1279.64
765.297	1234.58
765.481	1232.54
765.664	1146.52
765.847	1263.26
766.03	1261.21
766.213	1255.06
766.397	1218.2
766.58	1279.64
766.763	1326.74
766.946	1236.63
767.129	1140.38
767.312	1164.95
767.495	1199.77
767.678	1154.71
767.861	1189.53
768.044	1103.51
768.227	1275.54
768.41	1210.01
768.593	1287.83
768.776	1199.77
768.959	1150.62
769.142	1171.1
769.324	1121.95
769.507	1146.52
769.69	1181.34
769.873	1091.23
770.056	1132.19
770.239	1101.47
770.421	1099.42
770.604	1128.09
770.787	1152.67
770.97	1083.03
771.152	1148.57
771.335	1066.65
771.518	1054.36
771.7	1078.94
771.883	1173.14
772.066	1064.6
772.248	1023.64
772.431	1011.36
772.613	1076.89
772.796	1103.51
772.978	1042.07
773.161	1066.65
773.343	1123.99
773.526	970.4
773.708	1044.12
773.891	1035.93
774.073	1011.36
774.256	894.62
774.438	986.78
774.621	992.92
774.803	870.05
774.985	931.48
775.168	974.49
775.35	929.44
775.532	880.29
775.715	906.91
775.897	902.81
776.079	906.91
776.261	954.01
776.444	861.85
776.626	790.17
776.808	939.68
776.99	935.58
777.173	786.08
777.355	927.39
777.537	749.22
777.719	835.23
777.901	827.04
778.083	786.08
778.265	851.61
778.447	775.84
778.629	827.04
778.811	894.62
778.993	931.48
779.175	833.18
779.357	804.51
779.539	646.82
779.721	738.98
779.903	761.5
780.085	773.79
780.267	831.13
780.449	855.71
780.631	738.98
780.812	738.98
780.994	669.34
781.176	784.03
781.358	669.34
781.54	667.3
781.721	679.58
781.903	702.11
782.085	745.12
782.267	609.95
782.448	689.82
782.63	616.1
782.812	642.72
782.993	679.58
783.175	599.71
783.357	528.03
783.538	632.48
783.72	585.38
783.901	650.91
784.083	595.62
784.264	618.15
784.446	618.15
784.627	603.81
784.809	622.24
784.99	603.81
785.172	691.87
785.353	620.19
785.535	571.04
785.716	589.47
785.897	550.56
786.079	599.71
786.26	523.94
786.441	507.55
786.623	482.98
786.804	538.27
786.985	503.46
787.167	583.33
787.348	489.12
787.529	521.89
787.71	540.32
787.891	505.51
788.073	552.61
788.254	491.17
788.435	431.78
788.616	433.83
788.797	499.36
788.978	507.55
789.159	491.17
789.34	509.6
789.522	468.64
789.703	413.35
789.884	511.65
790.065	491.17
790.246	513.7
790.427	482.98
790.607	474.79
790.788	491.17
790.969	384.68
791.15	523.94
791.331	491.17
791.512	464.55
791.693	415.4
791.874	356.01
792.054	429.73
792.235	474.79
792.416	458.4
792.597	485.03
792.778	396.96
792.958	419.49
793.139	423.59
793.32	382.63
793.5	392.87
793.681	405.16
793.862	382.63
794.042	470.69
794.223	337.57
794.404	399.01
794.584	360.1
794.765	364.2
794.945	409.25
795.126	489.12
795.306	380.58
795.487	360.1
795.667	376.48
795.848	263.85
796.028	386.72
796.209	358.05
796.389	435.88
796.57	284.33
796.75	226.98
796.93	356.01
797.111	327.33
797.291	327.33
797.471	370.34
797.652	313
797.832	267.94
798.012	325.29
798.192	382.63
798.373	382.63
798.553	327.33
798.733	253.61
798.913	313
799.093	296.61
799.274	298.66
799.454	376.48
799.634	349.86
799.814	349.86
799.994	347.81
800.174	327.33
800.354	337.57
800.534	284.33
800.714	272.04
800.894	298.66
801.074	255.65
801.254	296.61
801.434	351.91
801.614	319.14
801.794	214.7
801.974	626.34
802.154	325.29
802.334	294.57
802.514	267.94
802.693	269.99
802.873	241.32
803.053	269.99
803.233	284.33
803.413	296.61
803.592	224.94
803.772	153.26
803.952	290.47
804.131	323.24
804.311	239.27
804.491	290.47
804.67	192.17
804.85	263.85
805.03	214.7
805.209	241.32
805.389	239.27
805.568	198.31
805.748	220.84
805.928	286.37
806.107	239.27
806.287	220.84
806.466	183.98
806.646	165.54
806.825	175.78
807.004	274.09
807.184	282.28
807.363	249.51
807.543	249.51
807.722	229.03
807.901	241.32
808.081	190.12
808.26	186.02
808.439	163.5
808.619	179.88
808.798	247.46
808.977	192.17
809.156	153.26
809.336	237.22
809.515	181.93
809.694	161.45
809.873	229.03
810.052	196.26
810.231	224.94
810.411	239.27
810.59	218.79
810.769	194.22
810.948	210.6
811.127	106.15
811.306	224.94
811.485	226.98
811.664	259.75
811.843	216.74
812.022	241.32
812.201	192.17
812.38	171.69
812.559	226.98
812.737	183.98
812.916	124.58
813.095	155.3
813.274	128.68
813.453	210.6
813.632	165.54
813.811	171.69
813.989	167.59
814.168	202.41
814.347	138.92
814.526	155.3
814.704	159.4
814.883	188.07
815.062	183.98
815.24	237.22
815.419	155.3
815.598	171.69
815.776	118.44
815.955	190.12
816.133	114.34
816.312	200.36
816.49	173.74
816.669	194.22
816.847	179.88
817.026	196.26
817.204	165.54
817.383	226.98
817.561	134.82
817.74	173.74
817.918	136.87
818.097	167.59
818.275	153.26
818.453	231.08
818.632	89.77
818.81	200.36
818.988	81.58
819.167	159.4
819.345	163.5
819.523	112.3
819.701	102.06
819.879	100.01
820.058	122.54
820.236	122.54
820.414	198.31
820.592	126.63
820.77	112.3
820.948	153.26
821.127	134.82
821.305	159.4
821.483	118.44
821.661	102.06
821.839	97.96
822.017	81.58
822.195	149.16
822.373	132.78
822.551	104.11
822.729	157.35
822.907	110.25
823.085	128.68
823.262	50.86
823.44	63.15
823.618	106.15
823.796	147.11
823.974	120.49
824.152	69.29
824.329	59.05
824.507	91.82
824.685	124.58
824.863	169.64
825.04	20.14
825.218	175.78
825.396	138.92
825.574	110.25
825.751	175.78
825.929	132.78
826.107	112.3
826.284	118.44
826.462	89.77
826.639	87.72
826.817	102.06
826.994	134.82
827.172	91.82
827.349	75.43
827.527	140.97
827.704	134.82
827.882	81.58
828.059	108.2
828.237	104.11
828.414	183.98
828.591	145.06
828.769	143.02
828.946	81.58
829.124	151.21
829.301	106.15
829.478	52.91
829.655	151.21
829.833	89.77
830.01	61.1
830.187	97.96
830.364	97.96
830.542	122.54
830.719	126.63
830.896	38.57
831.073	65.19
831.25	93.87
831.427	75.43
831.604	75.43
831.782	114.34
831.959	104.11
832.136	69.29
832.313	106.15
832.49	59.05
832.667	20.14
832.844	13.99
833.021	104.11
833.198	52.91
833.374	79.53
833.551	50.86
833.728	138.92
833.905	46.76
834.082	3.75
834.259	13.99
834.436	59.05
834.612	61.1
834.789	81.58
834.966	89.77
835.143	46.76
835.319	81.58
835.496	112.3
835.673	69.29
835.85	52.91
836.026	95.91
836.203	65.19
836.38	65.19
836.556	97.96
836.733	30.38
836.909	81.58
837.086	81.58
837.262	-10.58
837.439	104.11
837.616	143.02
837.792	67.24
837.968	13.99
838.145	93.87
838.321	48.81
838.498	20.14
838.674	108.2
838.851	26.28
839.027	91.82
839.203	63.15
839.38	16.04
839.556	91.82
839.732	48.81
839.909	63.15
840.085	132.78
840.261	89.77
840.437	13.99
840.614	18.09
840.79	63.15
840.966	30.38
841.142	81.58
841.318	5.8
841.494	77.48
841.671	122.54
841.847	36.52
842.023	81.58
842.199	28.33
842.375	81.58
842.551	38.57
842.727	75.43
842.903	13.99
843.079	63.15
843.255	132.78
843.431	36.52
843.607	57
843.783	-49.49
843.959	20.14
844.134	65.19
844.31	48.81
844.486	11.95
844.662	18.09
844.838	52.91
845.013	81.58
845.189	26.28
845.365	16.04
845.541	-0.34
845.716	83.63
845.892	3.75
846.068	91.82
846.244	48.81
846.419	52.91
846.595	46.76
846.77	40.62
846.946	30.38
847.122	-49.49
847.297	1.71
847.473	87.72
847.648	26.28
847.824	-10.58
847.999	-29.01
848.175	89.77
848.35	71.34
848.526	13.99
848.701	57
848.876	-0.34
849.052	30.38
849.227	59.05
849.403	40.62
849.578	40.62
849.753	87.72
849.929	48.81
850.104	11.95
850.279	61.1
850.454	-29.01
850.63	163.5
850.805	11.95
850.98	-2.39
851.155	26.28
851.33	54.95
851.505	-33.11
851.681	32.43
851.856	32.43
852.031	67.24
852.206	-20.82
852.381	28.33
852.556	50.86
852.731	-4.44
852.906	91.82
853.081	18.09
853.256	95.91
853.431	-2.39
853.606	-82.26
853.781	26.28
853.956	1.71
854.131	46.76
854.305	-20.82
854.48	-41.3
854.655	28.33
854.83	32.43
855.005	44.71
855.18	13.99
855.354	24.23
855.529	-33.11
855.704	28.33
855.879	48.81
856.053	-26.96
856.228	-10.58
856.403	110.25
856.577	11.95
856.752	34.47
856.926	46.76
857.101	38.57
857.276	40.62
857.45	24.23
857.625	5.8
857.799	-18.77
857.974	106.15
858.148	1.71
858.323	7.85
858.497	-39.25
858.672	44.71
858.846	28.33
859.02	22.19
859.195	16.04
859.369	46.76
859.543	-43.35
859.718	24.23
859.892	36.52
860.066	106.15
860.241	1.71
860.415	26.28
860.589	40.62
860.763	79.53
860.938	26.28
861.112	32.43
861.286	-20.82
861.46	38.57
861.634	32.43
861.808	59.05
861.982	-47.44
862.157	-14.68
862.331	32.43
862.505	7.85
862.679	11.95
862.853	-14.68
863.027	9.9
863.201	75.43
863.375	-18.77
863.549	-22.87
863.722	34.47
863.896	26.28
864.07	54.95
864.244	1.71
864.418	-41.3
864.592	3.75
864.766	-18.77
864.939	-67.92
865.113	-2.39
865.287	7.85
865.461	-29.01
865.634	1.71
865.808	-49.49
865.982	30.38
866.156	-37.2
866.329	-45.4
866.503	9.9
866.676	24.23
866.85	36.52
867.024	-41.3
867.197	-31.06
867.371	-104.79
867.544	-10.58
867.718	11.95
867.891	20.14
868.065	-24.92
868.238	38.57
868.412	61.1
868.585	44.71
868.759	42.67
868.932	1.71
869.105	-0.34
869.279	16.04
869.452	-86.36
869.625	38.57
869.799	7.85
869.972	63.15
870.145	3.75
870.319	-14.68
870.492	-26.96
870.665	13.99
870.838	-43.35
871.011	-39.25
871.185	40.62
871.358	-20.82
871.531	34.47
871.704	30.38
871.877	20.14
872.05	46.76
872.223	-6.49
872.396	89.77
872.569	79.53
872.742	11.95
872.915	-26.96
873.088	-53.59
873.261	-59.73
873.434	34.47
873.607	20.14
873.78	36.52
873.953	-61.78
874.126	44.71
874.299	28.33
874.471	11.95
874.644	-57.68
874.817	-0.34
874.99	52.91
875.163	-24.92
875.335	9.9
875.508	-33.11
875.681	16.04
875.853	-26.96
876.026	-51.54
876.199	-4.44
876.371	20.14
876.544	-78.16
876.717	-20.82
876.889	-35.16
877.062	-14.68
877.234	-31.06
877.407	22.19
877.579	28.33
877.752	48.81
877.924	13.99
878.097	-29.01
878.269	-16.73
878.442	32.43
878.614	40.62
878.786	5.8
878.959	38.57
879.131	-4.44
879.303	-29.01
879.476	44.71
879.648	36.52
879.82	-6.49
879.993	24.23
880.165	16.04
880.337	3.75
880.509	-0.34
880.681	-78.16
880.854	-18.77
881.026	-33.11
881.198	34.47
881.37	5.8
881.542	-88.4
881.714	24.23
881.886	24.23
882.058	-22.87
882.23	20.14
882.402	11.95
882.574	-47.44
882.746	-41.3
882.918	-22.87
883.09	87.72
883.262	-12.63
883.434	22.19
883.606	65.19
883.778	28.33
883.95	-63.83
884.122	3.75
884.293	20.14
884.465	-22.87
884.637	-51.54
884.809	-55.64
884.98	-47.44
885.152	-12.63
885.324	-0.34
885.496	-39.25
885.667	-37.2
885.839	-14.68
886.011	-37.2
886.182	28.33
886.354	-16.73
886.525	26.28
886.697	-20.82
886.869	-24.92
887.04	-45.4
887.212	-33.11
887.383	69.29
887.555	32.43
887.726	-26.96
887.897	-26.96
888.069	-24.92
888.24	-39.25
888.412	-43.35
888.583	-33.11
888.754	-53.59
888.926	-22.87
889.097	-33.11
889.268	-4.44
889.44	5.8
889.611	1.71
889.782	-14.68
889.953	-55.64
890.125	91.82
890.296	-39.25
890.467	-33.11
890.638	-43.35
890.809	-2.39
890.98	38.57
891.151	-43.35
891.323	-16.73
891.494	-41.3
891.665	-39.25
891.836	7.85
892.007	1.71
892.178	-14.68
892.349	57
892.52	-39.25
892.691	18.09
892.862	-8.53
893.032	-82.26
893.203	-47.44
893.374	11.95
893.545	5.8
893.716	-20.82
893.887	-98.64
894.057	20.14
894.228	13.99
894.399	-8.53
894.57	20.14
894.74	52.91
894.911	-2.39
895.082	-88.4
895.253	-53.59
895.423	-12.63
895.594	13.99
895.764	24.23
895.935	-69.97
896.106	1.71
896.276	1.71
896.447	-61.78
896.617	-117.08
896.788	22.19
896.958	-37.2
897.129	-31.06
897.299	-59.73
897.47	83.63
897.64	50.86
897.81	-74.07
897.981	3.75
898.151	-26.96
898.322	-6.49
898.492	-0.34
898.662	3.75
898.832	-35.16
899.003	-16.73
899.173	7.85
899.343	-14.68
899.513	-57.68
