Data from USB4F104151__6__11-44-25-715.txt Node

Date: Fri Mar 14 11:44:25 EDT 2025
User: louis
Spectrometer: USB4F10415
Trigger mode: 4
Integration Time (sec): 2.000000E-2
Scans to average: 1
Electric dark correction enabled: true
Nonlinearity correction enabled: false
Boxcar width: 0
XAxis mode: Wavelengths
Number of Pixels in Spectrum: 3648
>>>>>Begin Spectral Data<<<<<
178.204	-44.71
178.424	-44.71
178.644	-44.71
178.864	-112.3
179.084	-100.01
179.304	-30.38
179.524	-61.1
179.744	31.06
179.964	29.01
180.184	-30.38
180.404	12.63
180.624	2.39
180.844	-42.67
181.064	14.68
181.283	14.68
181.503	47.44
181.723	12.63
181.943	14.68
182.163	37.2
182.383	39.25
182.602	10.58
182.822	16.73
183.042	49.49
183.262	12.63
183.482	14.68
183.701	63.83
183.921	12.63
184.141	39.25
184.361	47.44
184.58	-28.33
184.8	69.97
185.02	0.34
185.239	112.98
185.459	26.96
185.679	57.68
185.898	0.34
186.118	-3.75
186.338	51.54
186.557	35.16
186.777	-18.09
186.997	108.88
187.216	59.73
187.436	24.92
187.655	-42.67
187.875	20.82
188.095	-26.28
188.314	76.12
188.534	67.92
188.753	6.49
188.973	-24.23
189.192	108.88
189.412	6.49
189.631	22.87
189.851	14.68
190.07	90.45
190.29	45.4
190.509	-1.71
190.729	43.35
190.948	61.78
191.168	82.26
191.387	51.54
191.607	14.68
191.826	29.01
192.045	51.54
192.265	-5.8
192.484	2.39
192.704	104.79
192.923	39.25
193.142	51.54
193.362	-20.14
193.581	108.88
193.8	76.12
194.02	18.77
194.239	8.53
194.458	96.6
194.678	12.63
194.897	86.36
195.116	18.77
195.335	45.4
195.555	35.16
195.774	55.64
195.993	-26.28
196.212	10.58
196.432	37.2
196.651	-30.38
196.87	88.4
197.089	129.36
197.308	4.44
197.528	-1.71
197.747	4.44
197.966	33.11
198.185	94.55
198.404	22.87
198.623	51.54
198.842	104.79
199.062	65.88
199.281	82.26
199.5	45.4
199.719	57.68
199.938	26.96
200.157	82.26
200.376	20.82
200.595	-16.04
200.814	55.64
201.033	20.82
201.252	67.92
201.471	35.16
201.69	31.06
201.909	82.26
202.128	65.88
202.347	53.59
202.566	-9.9
202.785	10.58
203.004	12.63
203.223	123.22
203.442	26.96
203.661	-18.09
203.879	61.78
204.098	96.6
204.317	43.35
204.536	18.77
204.755	31.06
204.974	43.35
205.193	12.63
205.411	76.12
205.63	78.16
205.849	61.78
206.068	65.88
206.287	-30.38
206.505	31.06
206.724	67.92
206.943	14.68
207.162	2.39
207.381	35.16
207.599	-3.75
207.818	31.06
208.037	8.53
208.255	24.92
208.474	2.39
208.693	74.07
208.911	35.16
209.13	47.44
209.349	51.54
209.567	39.25
209.786	51.54
210.005	6.49
210.223	2.39
210.442	-3.75
210.661	94.55
210.879	35.16
211.098	43.35
211.316	63.83
211.535	49.49
211.753	61.78
211.972	43.35
212.191	117.08
212.409	26.96
212.628	41.3
212.846	31.06
213.065	117.08
213.283	49.49
213.502	29.01
213.72	-3.75
213.938	94.55
214.157	39.25
214.375	-11.95
214.594	0.34
214.812	45.4
215.031	55.64
215.249	14.68
215.467	26.96
215.686	20.82
215.904	61.78
216.122	55.64
216.341	96.6
216.559	26.96
216.778	72.02
216.996	55.64
217.214	-13.99
217.432	37.2
217.651	51.54
217.869	78.16
218.087	57.68
218.306	-32.43
218.524	41.3
218.742	-50.86
218.96	22.87
219.179	-16.04
219.397	47.44
219.615	78.16
219.833	76.12
220.051	18.77
220.27	63.83
220.488	20.82
220.706	98.64
220.924	-13.99
221.142	39.25
221.36	22.87
221.578	39.25
221.796	26.96
222.015	8.53
222.233	35.16
222.451	72.02
222.669	14.68
222.887	74.07
223.105	39.25
223.323	26.96
223.541	55.64
223.759	51.54
223.977	24.92
224.195	98.64
224.413	76.12
224.631	35.16
224.849	106.84
225.067	8.53
225.285	-7.85
225.503	31.06
225.721	35.16
225.939	-9.9
226.157	57.68
226.375	35.16
226.592	112.98
226.81	41.3
227.028	82.26
227.246	92.5
227.464	4.44
227.682	82.26
227.9	-18.09
228.117	39.25
228.335	-9.9
228.553	63.83
228.771	57.68
228.989	72.02
229.206	78.16
229.424	78.16
229.642	24.92
229.86	6.49
230.077	72.02
230.295	-24.23
230.513	51.54
230.731	33.11
230.948	35.16
231.166	96.6
231.384	29.01
231.601	61.78
231.819	108.88
232.037	94.55
232.254	41.3
232.472	4.44
232.689	-5.8
232.907	80.21
233.125	43.35
233.342	4.44
233.56	49.49
233.777	33.11
233.995	123.22
234.213	158.03
234.43	112.98
234.648	98.64
234.865	84.31
235.083	24.92
235.3	72.02
235.518	117.08
235.735	145.75
235.953	-1.71
236.17	43.35
236.388	82.26
236.605	57.68
236.822	74.07
237.04	59.73
237.257	88.4
237.475	29.01
237.692	47.44
237.909	39.25
238.127	74.07
238.344	41.3
238.562	47.44
238.779	14.68
238.996	69.97
239.214	65.88
239.431	63.83
239.648	-48.81
239.865	-9.9
240.083	57.68
240.3	55.64
240.517	51.54
240.735	49.49
240.952	88.4
241.169	67.92
241.386	39.25
241.603	47.44
241.821	8.53
242.038	33.11
242.255	63.83
242.472	-7.85
242.689	86.36
242.907	49.49
243.124	29.01
243.341	31.06
243.558	29.01
243.775	-13.99
243.992	2.39
244.209	31.06
244.426	98.64
244.643	141.65
244.86	39.25
245.078	31.06
245.295	2.39
245.512	33.11
245.729	76.12
245.946	26.96
246.163	59.73
246.38	43.35
246.597	108.88
246.814	16.73
247.031	63.83
247.248	43.35
247.464	0.34
247.681	55.64
247.898	74.07
248.115	51.54
248.332	35.16
248.549	106.84
248.766	78.16
248.983	119.12
249.2	-3.75
249.417	35.16
249.633	90.45
249.85	35.16
250.067	-30.38
250.284	86.36
250.501	67.92
250.717	100.69
250.934	-7.85
251.151	24.92
251.368	-5.8
251.585	147.8
251.801	49.49
252.018	57.68
252.235	33.11
252.451	35.16
252.668	63.83
252.885	24.92
253.102	20.82
253.318	49.49
253.535	88.4
253.752	16.73
253.968	100.69
254.185	-1.71
254.401	41.3
254.618	137.56
254.835	4.44
255.051	110.93
255.268	12.63
255.484	26.96
255.701	47.44
255.917	92.5
256.134	20.82
256.351	33.11
256.567	47.44
256.784	24.92
257	72.02
257.217	127.32
257.433	-3.75
257.65	43.35
257.866	76.12
258.082	112.98
258.299	-30.38
258.515	76.12
258.732	47.44
258.948	-13.99
259.165	88.4
259.381	12.63
259.597	92.5
259.814	24.92
260.03	49.49
260.246	88.4
260.463	53.59
260.679	16.73
260.895	86.36
261.112	49.49
261.328	76.12
261.544	43.35
261.761	67.92
261.977	59.73
262.193	6.49
262.409	67.92
262.626	39.25
262.842	65.88
263.058	14.68
263.274	41.3
263.49	31.06
263.707	59.73
263.923	96.6
264.139	49.49
264.355	63.83
264.571	35.16
264.787	33.11
265.004	49.49
265.22	63.83
265.436	29.01
265.652	24.92
265.868	67.92
266.084	-18.09
266.3	53.59
266.516	16.73
266.732	112.98
266.948	80.21
267.164	41.3
267.38	110.93
267.596	112.98
267.812	100.69
268.028	47.44
268.244	39.25
268.46	90.45
268.676	14.68
268.892	69.97
269.108	37.2
269.324	2.39
269.54	43.35
269.756	67.92
269.972	94.55
270.188	51.54
270.403	20.82
270.619	100.69
270.835	80.21
271.051	6.49
271.267	18.77
271.483	74.07
271.698	29.01
271.914	-5.8
272.13	-13.99
272.346	67.92
272.562	45.4
272.777	86.36
272.993	59.73
273.209	59.73
273.425	-26.28
273.64	35.16
273.856	55.64
274.072	-26.28
274.287	-1.71
274.503	90.45
274.719	49.49
274.934	26.96
275.15	14.68
275.366	10.58
275.581	14.68
275.797	35.16
276.012	29.01
276.228	33.11
276.444	155.99
276.659	57.68
276.875	110.93
277.09	51.54
277.306	14.68
277.521	-3.75
277.737	22.87
277.952	55.64
278.168	63.83
278.383	76.12
278.599	65.88
278.814	86.36
279.03	84.31
279.245	57.68
279.461	88.4
279.676	57.68
279.892	61.78
280.107	49.49
280.322	37.2
280.538	47.44
280.753	51.54
280.969	53.59
281.184	16.73
281.399	80.21
281.615	16.73
281.83	143.7
282.045	69.97
282.26	6.49
282.476	6.49
282.691	84.31
282.906	96.6
283.122	-16.04
283.337	57.68
283.552	88.4
283.767	55.64
283.983	20.82
284.198	16.73
284.413	59.73
284.628	-40.62
284.843	76.12
285.058	151.89
285.274	4.44
285.489	55.64
285.704	100.69
285.919	51.54
286.134	78.16
286.349	74.07
286.564	80.21
286.779	112.98
286.995	86.36
287.21	-61.1
287.425	10.58
287.64	39.25
287.855	82.26
288.07	16.73
288.285	51.54
288.5	31.06
288.715	55.64
288.93	22.87
289.145	-13.99
289.36	92.5
289.575	37.2
289.79	47.44
290.004	4.44
290.219	39.25
290.434	33.11
290.649	10.58
290.864	92.5
291.079	20.82
291.294	35.16
291.509	69.97
291.724	74.07
291.938	55.64
292.153	80.21
292.368	12.63
292.583	16.73
292.798	41.3
293.012	76.12
293.227	53.59
293.442	55.64
293.657	106.84
293.871	78.16
294.086	8.53
294.301	76.12
294.516	53.59
294.73	33.11
294.945	82.26
295.16	35.16
295.374	55.64
295.589	43.35
295.804	-34.47
296.018	76.12
296.233	78.16
296.447	35.16
296.662	37.2
296.877	143.7
297.091	43.35
297.306	80.21
297.52	0.34
297.735	74.07
297.949	59.73
298.164	57.68
298.378	14.68
298.593	51.54
298.807	92.5
299.022	29.01
299.236	47.44
299.451	39.25
299.665	72.02
299.88	31.06
300.094	43.35
300.309	92.5
300.523	18.77
300.737	6.49
300.952	-9.9
301.166	100.69
301.381	-20.14
301.595	35.16
301.809	31.06
302.024	47.44
302.238	76.12
302.452	115.03
302.667	2.39
302.881	82.26
303.095	49.49
303.309	63.83
303.524	29.01
303.738	74.07
303.952	20.82
304.166	53.59
304.381	31.06
304.595	108.88
304.809	63.83
305.023	43.35
305.237	24.92
305.452	53.59
305.666	96.6
305.88	90.45
306.094	51.54
306.308	76.12
306.522	-18.09
306.736	67.92
306.95	84.31
307.164	63.83
307.379	31.06
307.593	106.84
307.807	106.84
308.021	51.54
308.235	88.4
308.449	-7.85
308.663	26.96
308.877	84.31
309.091	31.06
309.305	6.49
309.519	104.79
309.733	123.22
309.947	65.88
310.161	65.88
310.374	45.4
310.588	94.55
310.802	-16.04
311.016	94.55
311.23	49.49
311.444	-22.19
311.658	74.07
311.872	127.32
312.085	49.49
312.299	108.88
312.513	74.07
312.727	-18.09
312.941	78.16
313.154	43.35
313.368	90.45
313.582	29.01
313.796	35.16
314.009	-26.28
314.223	149.84
314.437	2.39
314.651	88.4
314.864	57.68
315.078	55.64
315.292	53.59
315.505	14.68
315.719	100.69
315.933	37.2
316.146	16.73
316.36	35.16
316.573	45.4
316.787	39.25
317.001	104.79
317.214	24.92
317.428	67.92
317.641	69.97
317.855	18.77
318.068	110.93
318.282	53.59
318.495	106.84
318.709	12.63
318.922	6.49
319.136	84.31
319.349	12.63
319.563	-57
319.776	20.82
319.99	31.06
320.203	49.49
320.417	-1.71
320.63	45.4
320.843	31.06
321.057	57.68
321.27	65.88
321.483	6.49
321.697	94.55
321.91	92.5
322.124	29.01
322.337	39.25
322.55	110.93
322.763	24.92
322.977	55.64
323.19	80.21
323.403	84.31
323.617	43.35
323.83	96.6
324.043	14.68
324.256	88.4
324.469	78.16
324.683	57.68
324.896	108.88
325.109	33.11
325.322	10.58
325.535	74.07
325.748	39.25
325.962	47.44
326.175	51.54
326.388	31.06
326.601	78.16
326.814	-13.99
327.027	55.64
327.24	110.93
327.453	53.59
327.666	47.44
327.879	78.16
328.092	49.49
328.305	65.88
328.518	80.21
328.731	10.58
328.944	88.4
329.157	43.35
329.37	10.58
329.583	94.55
329.796	121.17
330.009	-95.91
330.222	98.64
330.435	18.77
330.648	35.16
330.861	129.36
331.073	88.4
331.286	26.96
331.499	92.5
331.712	72.02
331.925	119.12
332.138	43.35
332.35	90.45
332.563	24.92
332.776	80.21
332.989	55.64
333.202	26.96
333.414	55.64
333.627	57.68
333.84	10.58
334.053	55.64
334.265	74.07
334.478	57.68
334.691	47.44
334.903	104.79
335.116	-1.71
335.329	33.11
335.541	35.16
335.754	98.64
335.966	80.21
336.179	69.97
336.392	57.68
336.604	74.07
336.817	76.12
337.029	12.63
337.242	59.73
337.454	92.5
337.667	78.16
337.88	94.55
338.092	53.59
338.305	119.12
338.517	47.44
338.729	110.93
338.942	127.32
339.154	-1.71
339.367	39.25
339.579	90.45
339.792	31.06
340.004	92.5
340.217	31.06
340.429	92.5
340.641	6.49
340.854	117.08
341.066	49.49
341.278	69.97
341.491	88.4
341.703	0.34
341.915	90.45
342.128	67.92
342.34	26.96
342.552	35.16
342.764	47.44
342.977	72.02
343.189	41.3
343.401	108.88
343.613	-22.19
343.826	72.02
344.038	49.49
344.25	104.79
344.462	47.44
344.674	84.31
344.886	6.49
345.099	55.64
345.311	31.06
345.523	47.44
345.735	98.64
345.947	98.64
346.159	63.83
346.371	63.83
346.583	61.78
346.795	98.64
347.007	29.01
347.219	51.54
347.431	80.21
347.643	115.03
347.855	-30.38
348.067	115.03
348.279	45.4
348.491	47.44
348.703	108.88
348.915	39.25
349.127	53.59
349.339	76.12
349.551	39.25
349.763	104.79
349.975	104.79
350.187	84.31
350.399	69.97
350.61	90.45
350.822	119.12
351.034	145.75
351.246	24.92
351.458	80.21
351.669	63.83
351.881	94.55
352.093	37.2
352.305	72.02
352.517	-11.95
352.728	51.54
352.94	72.02
353.152	53.59
353.363	55.64
353.575	67.92
353.787	63.83
353.999	31.06
354.21	127.32
354.422	49.49
354.633	61.78
354.845	53.59
355.057	92.5
355.268	4.44
355.48	-11.95
355.692	117.08
355.903	82.26
356.115	6.49
356.326	14.68
356.538	88.4
356.749	57.68
356.961	131.41
357.172	90.45
357.384	108.88
357.595	78.16
357.807	43.35
358.018	8.53
358.23	84.31
358.441	102.74
358.653	80.21
358.864	59.73
359.075	29.01
359.287	55.64
359.498	20.82
359.709	82.26
359.921	45.4
360.132	143.7
360.344	74.07
360.555	115.03
360.766	31.06
360.977	47.44
361.189	106.84
361.4	74.07
361.611	55.64
361.823	47.44
362.034	151.89
362.245	-18.09
362.456	24.92
362.667	57.68
362.879	72.02
363.09	47.44
363.301	112.98
363.512	8.53
363.723	26.96
363.935	55.64
364.146	98.64
364.357	96.6
364.568	72.02
364.779	51.54
364.99	112.98
365.201	41.3
365.412	47.44
365.623	65.88
365.834	160.08
366.045	51.54
366.256	115.03
366.467	4.44
366.678	96.6
366.889	72.02
367.1	94.55
367.311	49.49
367.522	22.87
367.733	86.36
367.944	84.31
368.155	49.49
368.366	127.32
368.577	-5.8
368.788	26.96
368.999	53.59
369.209	35.16
369.42	88.4
369.631	153.94
369.842	65.88
370.053	121.17
370.264	55.64
370.474	90.45
370.685	47.44
370.896	63.83
371.107	24.92
371.317	98.64
371.528	59.73
371.739	115.03
371.95	92.5
372.16	12.63
372.371	59.73
372.582	69.97
372.792	84.31
373.003	80.21
373.214	61.78
373.424	98.64
373.635	45.4
373.846	174.42
374.056	67.92
374.267	112.98
374.477	84.31
374.688	2.39
374.898	135.51
375.109	69.97
375.319	155.99
375.53	45.4
375.74	117.08
375.951	82.26
376.161	47.44
376.372	127.32
376.582	16.73
376.793	98.64
377.003	39.25
377.214	37.2
377.424	78.16
377.635	67.92
377.845	18.77
378.055	47.44
378.266	12.63
378.476	-5.8
378.686	72.02
378.897	108.88
379.107	43.35
379.317	127.32
379.528	121.17
379.738	45.4
379.948	112.98
380.158	86.36
380.369	88.4
380.579	121.17
380.789	153.94
380.999	117.08
381.21	104.79
381.42	94.55
381.63	74.07
381.84	67.92
382.05	55.64
382.261	53.59
382.471	149.84
382.681	67.92
382.891	45.4
383.101	59.73
383.311	37.2
383.521	63.83
383.731	84.31
383.941	55.64
384.151	110.93
384.361	96.6
384.571	88.4
384.781	67.92
384.991	84.31
385.201	145.75
385.411	61.78
385.621	61.78
385.831	69.97
386.041	74.07
386.251	90.45
386.461	12.63
386.671	43.35
386.881	72.02
387.091	166.23
387.301	115.03
387.511	39.25
387.72	59.73
387.93	45.4
388.14	57.68
388.35	43.35
388.56	78.16
388.769	129.36
388.979	102.74
389.189	35.16
389.399	24.92
389.609	80.21
389.818	74.07
390.028	104.79
390.238	67.92
390.447	51.54
390.657	160.08
390.867	24.92
391.076	41.3
391.286	106.84
391.496	92.5
391.705	96.6
391.915	69.97
392.125	117.08
392.334	133.46
392.544	123.22
392.753	137.56
392.963	67.92
393.172	88.4
393.382	90.45
393.591	151.89
393.801	57.68
394.01	198.99
394.22	55.64
394.429	65.88
394.639	135.51
394.848	147.8
395.058	121.17
395.267	190.8
395.477	80.21
395.686	131.41
395.895	121.17
396.105	145.75
396.314	125.27
396.524	35.16
396.733	133.46
396.942	102.74
397.152	149.84
397.361	59.73
397.57	160.08
397.78	80.21
397.989	194.9
398.198	153.94
398.407	78.16
398.617	184.66
398.826	102.74
399.035	131.41
399.244	139.6
399.453	198.99
399.663	84.31
399.872	221.52
400.081	74.07
400.29	168.27
400.499	168.27
400.708	190.8
400.917	160.08
401.127	176.47
401.336	151.89
401.545	176.47
401.754	176.47
401.963	252.24
402.172	108.88
402.381	192.85
402.59	135.51
402.799	147.8
403.008	231.76
403.217	137.56
403.426	176.47
403.635	188.75
403.844	119.12
404.053	192.85
404.262	149.84
404.471	174.42
404.68	242
404.888	213.33
405.097	250.19
405.306	196.95
405.515	215.38
405.724	225.62
405.933	330.06
406.142	215.38
406.35	186.71
406.559	231.76
406.768	225.62
406.977	321.87
407.185	313.68
407.394	252.24
407.603	260.43
407.812	246.1
408.02	368.98
408.229	330.06
408.438	336.21
408.646	371.02
408.855	362.83
409.064	350.54
409.272	360.78
409.481	342.35
409.69	360.78
409.898	328.02
410.107	387.41
410.315	479.57
410.524	495.95
410.733	407.89
410.941	428.37
411.15	526.67
411.358	450.89
411.567	573.77
411.775	561.48
411.984	584.01
412.192	571.72
412.401	586.06
412.609	616.78
412.818	667.98
413.026	717.13
413.234	682.31
413.443	756.04
413.651	768.33
413.86	766.28
414.068	801.1
414.276	825.67
414.485	889.16
414.693	854.34
414.901	995.65
415.11	993.61
415.318	946.5
415.526	1022.28
415.734	997.7
415.943	979.27
416.151	1096
416.359	1192.26
416.567	1069.38
416.776	1192.26
416.984	1233.22
417.192	1300.8
417.4	1325.38
417.608	1298.75
417.817	1364.29
418.025	1409.34
418.233	1575.23
418.441	1601.85
418.649	1564.99
418.857	1724.73
419.065	1767.74
419.273	1788.22
419.481	1929.53
419.689	1886.52
419.897	2058.55
420.105	1995.06
420.313	2056.5
420.521	2140.47
420.729	2189.62
420.937	2224.44
421.145	2402.61
421.353	2384.18
421.561	2670.89
421.769	2771.24
421.977	2701.61
422.185	2730.28
422.393	2873.64
422.601	3041.57
422.809	3008.81
423.017	3086.63
423.224	3215.65
423.432	3328.29
423.64	3246.37
423.848	3600.67
424.056	3494.18
424.263	3815.71
424.471	3899.67
424.679	4116.76
424.887	4274.45
425.094	4133.14
425.302	4282.64
425.51	4540.69
425.718	4643.09
425.925	4849.93
426.133	4759.82
426.341	5028.1
426.548	5376.26
426.756	5228.81
426.964	5234.95
427.171	5685.5
427.379	5923.07
427.586	6097.14
427.794	6072.57
428.001	6379.76
428.209	6676.72
428.417	6562.03
428.624	6994.15
428.832	6842.6
429.039	6828.27
429.247	7069.93
429.454	7643.36
429.662	8249.56
429.869	7493.86
430.076	8306.9
430.284	7932.12
430.491	8249.56
430.699	8720.59
430.906	8784.08
431.114	8935.63
431.321	9271.5
431.528	9488.58
431.736	9885.89
431.943	10358.97
432.15	10113.21
432.358	10160.31
432.565	10832.05
432.772	10750.13
432.979	11339.94
433.187	11413.67
433.394	11569.32
433.601	12513.43
433.808	12222.62
434.016	12284.06
434.223	12830.87
434.43	13879.43
434.637	13330.57
434.844	14243.96
435.052	14508.15
435.259	14223.48
435.466	14610.55
435.673	14561.4
435.88	15339.63
436.087	16093.28
436.294	16099.42
436.501	15790.18
436.708	15966.31
436.915	16738.39
437.122	17348.68
437.329	17254.48
437.537	17834.05
437.743	18135.1
437.95	18057.28
438.157	19257.39
438.364	19585.07
438.571	19554.35
438.778	19656.75
438.985	21501.97
439.192	20598.81
439.399	21266.45
439.606	20869.14
439.813	22005.77
440.02	23486.45
440.227	22923.26
440.433	22919.16
440.64	23683.05
440.847	23400.43
441.054	23867.37
441.261	25505.74
441.467	25376.72
441.674	25739.21
441.881	26687.42
442.088	26546.11
442.294	26316.74
442.501	27129.78
442.708	27707.31
442.914	28456.87
443.121	29788.05
443.328	29058.97
443.534	31203.19
443.741	30443.4
443.948	29751.18
444.154	32245.61
444.361	31821.68
444.568	31975.28
444.774	32221.03
444.981	32339.82
445.187	33396.57
445.394	34889.54
445.6	34281.29
445.807	37603.1
446.013	35931.95
446.22	36835.11
446.426	37981.97
446.633	38385.42
446.839	39614.2
447.046	38174.48
447.252	39687.93
447.459	39952.12
447.665	39931.64
447.871	41424.61
448.078	43255.49
448.284	41475.8
448.491	42583.76
448.697	44371.63
448.903	44938.92
449.11	44760.75
449.316	44064.44
449.522	45373.09
449.728	46433.94
449.935	46939.79
450.141	46694.03
450.347	47545.98
450.553	46106.26
450.76	46587.53
450.966	48068.22
451.172	47928.95
451.378	49094.25
451.584	47742.59
451.791	49413.73
451.997	49151.59
452.203	49700.45
452.409	49636.96
452.615	49245.8
452.821	47617.66
453.027	47253.12
453.233	49536.61
453.44	47521.41
453.646	48021.11
453.852	48488.05
454.058	49350.24
454.264	47951.48
454.47	48682.61
454.676	47464.07
454.882	48995.95
455.088	44777.13
455.294	45655.71
455.5	46290.58
455.705	47234.69
455.911	44539.57
456.117	43912.89
456.323	43525.82
456.529	41051.87
456.735	43269.83
456.941	41854.68
457.147	40976.1
457.352	39788.28
457.558	39685.88
457.764	39628.54
457.97	39030.53
458.176	38188.81
458.381	38137.62
458.587	36265.77
458.793	36409.13
458.999	34357.07
459.204	36788
459.41	35770.16
459.616	33464.15
459.821	33412.95
460.027	33159
460.233	32890.72
460.438	31272.82
460.644	31559.54
460.85	29972.36
461.055	29620.11
461.261	29360.02
461.466	27264.95
461.672	26369.99
461.878	28340.13
462.083	26427.33
462.289	26134.47
462.494	25546.7
462.7	24561.63
462.905	23828.46
463.111	24565.73
463.316	24754.14
463.522	24322.02
463.727	24346.59
463.932	24207.33
464.138	24086.5
464.343	24229.86
464.549	23332.85
464.754	24199.14
464.959	24031.21
465.165	23707.63
465.37	22534.14
465.575	22177.79
465.781	23019.51
465.986	23078.9
466.191	22288.39
466.397	21778.44
466.602	20621.34
466.807	21874.7
467.012	21706.76
467.218	21667.85
467.423	21293.07
467.628	21504.01
467.833	22388.74
468.038	21739.53
468.244	20844.57
468.449	21600.27
468.654	21110.8
468.859	20547.61
469.064	20639.77
469.269	19949.6
469.474	19898.41
469.679	20541.47
469.885	19783.72
470.09	20058.15
470.295	19947.56
470.5	19230.77
470.705	19812.39
470.91	19318.83
471.115	18980.92
471.32	19486.76
471.525	19228.72
471.73	18655.29
471.935	18808.89
472.139	18057.28
472.344	18487.36
472.549	18020.42
472.754	17827.91
472.959	17766.47
473.164	17199.18
473.369	16808.02
473.574	17422.41
473.778	17158.22
473.983	17180.75
474.188	17096.78
474.393	16314.46
474.598	16552.02
474.802	16590.94
475.007	16117.86
475.212	16328.8
475.417	15581.29
475.621	15704.17
475.826	15712.36
476.031	15609.96
476.235	14889.07
476.44	15442.03
476.645	14729.33
476.849	15288.43
477.054	14680.18
477.259	14571.64
477.463	14753.91
477.668	14215.29
477.872	14481.53
478.077	14348.41
478.282	13916.29
478.486	13695.11
478.691	13639.81
478.895	13783.17
479.1	13475.98
479.304	13512.84
479.509	13144.2
479.713	13312.14
479.918	13113.49
480.122	12769.43
480.326	13084.81
480.531	13162.64
480.735	12863.63
480.94	12699.8
481.144	13213.84
481.348	12398.74
481.553	12896.4
481.757	12513.43
481.961	12566.68
482.166	12646.55
482.37	12613.78
482.574	12486.81
482.778	12591.25
482.983	12798.1
483.187	12370.07
483.391	12775.57
483.595	12437.66
483.8	12267.67
484.004	12368.02
484.208	12628.12
484.412	12368.02
484.616	12304.54
484.821	12687.51
485.025	12212.38
485.229	12636.31
485.433	12294.3
485.637	12486.81
485.841	12296.35
486.045	12419.22
486.249	12310.68
486.453	12427.42
486.657	12429.46
486.861	12730.52
487.065	12087.45
487.269	12259.48
487.473	12095.64
487.677	12550.29
487.881	12124.32
488.085	12437.66
488.289	12495
488.493	12562.58
488.697	12521.62
488.901	12626.07
489.105	12269.72
489.309	12630.16
489.512	12501.14
489.716	12378.26
489.92	12664.98
490.124	12583.06
490.328	12714.13
490.531	12603.54
490.735	12603.54
490.939	12863.63
491.143	12753.04
491.346	12703.89
491.55	13109.39
491.754	12861.59
491.958	12892.3
492.161	13015.18
492.365	13054.09
492.569	13308.04
492.772	13029.52
492.976	13291.66
493.18	13133.96
493.383	13492.36
493.587	13525.13
493.79	13588.61
493.994	13492.36
494.197	13580.42
494.401	13521.03
494.605	13742.21
494.808	13971.58
495.012	14020.74
495.215	13865.09
495.419	14336.12
495.622	14170.24
495.825	14399.61
496.029	14211.2
496.232	14661.75
496.436	14557.3
496.639	14940.27
496.843	14837.87
497.046	15212.65
497.249	15241.32
497.453	15528.04
497.656	15581.29
497.859	15851.62
498.063	15738.98
498.266	15634.53
498.469	16017.5
498.673	16005.22
498.876	16341.08
499.079	16519.26
499.282	16484.44
499.485	16683.09
499.689	16846.93
499.892	17111.12
500.095	17344.59
500.298	17621.06
500.501	17510.47
500.705	17715.27
500.908	18165.82
501.111	18427.96
501.314	18456.64
501.517	18794.55
501.72	18819.13
501.923	18993.2
502.126	19370.03
502.329	19673.13
502.532	19572.78
502.735	19783.72
502.938	20074.53
503.141	20109.35
503.344	20539.42
503.547	20547.61
503.75	21041.17
503.953	21157.91
504.156	21479.44
504.359	21420.05
504.562	21276.69
504.765	22237.19
504.968	22261.76
505.17	22446.08
505.373	22462.46
505.576	22810.62
505.779	23478.26
505.982	23226.35
506.185	23764.97
506.387	23947.24
506.59	23881.7
506.793	24326.11
506.996	24289.25
507.198	25206.74
507.401	24764.38
507.604	25389.01
507.807	25518.03
508.009	25812.94
508.212	25788.36
508.415	26222.53
508.617	26542.02
508.82	26539.97
509.022	26795.96
509.225	27365.3
509.428	27117.5
509.63	27850.67
509.833	27322.29
510.035	28274.6
510.238	28297.13
510.44	28929.95
510.643	28962.72
510.845	28960.67
511.048	29175.7
511.25	29724.56
511.453	29450.13
511.655	30603.14
511.858	30175.11
512.06	30590.85
512.262	31080.32
512.465	31217.53
512.667	31426.42
512.87	31903.6
513.072	31401.85
513.274	32276.33
513.477	32581.48
513.679	32868.19
513.881	33290.07
514.084	33660.76
514.286	33091.42
514.488	33038.17
514.69	34711.36
514.893	34631.49
515.095	34932.54
515.297	34686.79
515.499	35184.44
515.701	35338.04
515.904	36157.23
516.106	36056.88
516.308	36224.81
516.51	36810.53
516.712	36644.65
516.914	37236.51
517.116	37668.63
517.318	37728.02
517.52	37805.84
517.722	38336.27
517.925	38881.03
518.127	38706.95
518.329	39159.55
518.531	38821.64
518.733	39274.24
518.935	39974.64
519.136	40275.69
519.338	40593.13
519.54	40853.22
519.742	40937.19
519.944	40793.83
520.146	41424.61
520.348	41512.67
520.55	42034.9
520.752	42051.28
520.954	42686.15
521.155	42653.39
521.357	42831.56
521.559	43380.42
521.761	43982.52
521.963	43796.15
522.164	44023.48
522.366	44117.68
522.568	44263.09
522.77	44897.96
522.971	45317.79
523.173	44988.07
523.375	45465.25
523.576	45289.12
523.778	45422.24
523.98	46139.03
524.181	46294.67
524.383	46075.54
524.584	46689.93
524.786	46595.73
524.988	46411.41
525.189	47154.82
525.391	47283.84
525.592	47877.75
525.794	47644.29
525.995	47593.09
526.197	47752.83
526.398	47488.64
526.6	48336.5
526.801	48299.64
527.003	48389.75
527.204	48299.64
527.406	48768.62
527.607	48928.36
527.808	48803.44
528.01	48402.03
528.211	49014.38
528.412	49579.62
528.614	49516.13
528.815	49505.89
529.016	49651.3
529.218	49153.64
529.419	49555.04
529.62	49827.42
529.822	49667.68
530.023	49700.45
530.224	49784.41
530.425	49782.37
530.626	49372.77
530.828	49655.39
531.029	50941.52
531.23	49798.75
531.431	49911.39
531.632	50546.26
531.833	50361.94
532.035	50081.37
532.236	50355.8
532.437	50683.47
532.638	49768.03
532.839	50546.26
533.04	50742.86
533.241	49487.46
533.442	51072.59
533.643	50226.77
533.844	50499.15
534.045	50630.22
534.246	50146.9
534.447	50593.36
534.648	50429.52
534.849	50677.33
535.05	50148.95
535.251	50667.09
535.451	50112.09
535.652	50554.45
535.853	50407
536.054	50527.83
536.255	50437.72
536.456	50245.21
536.657	50918.99
536.857	50290.26
537.058	50069.08
537.259	50738.77
537.46	50486.87
537.66	50407
537.861	50333.27
538.062	50200.15
538.263	50509.39
538.463	50075.23
538.664	50355.8
538.865	50495.06
539.065	50706
539.266	50372.18
539.466	50925.13
539.667	49649.25
539.868	50579.03
540.068	50007.64
540.269	49954.4
540.469	50263.64
540.67	49761.89
540.87	49628.77
541.071	49983.07
541.271	50515.54
541.472	49882.72
541.672	49966.68
541.873	49876.57
542.073	49761.89
542.274	50298.45
542.474	49524.32
542.675	50034.27
542.875	50159.19
543.075	50077.27
543.276	49505.89
543.476	50335.32
543.676	49999.45
543.877	49954.4
544.077	49839.71
544.277	49761.89
544.478	49772.13
544.678	50273.88
544.878	49503.84
545.078	49718.88
545.279	49161.83
545.479	49708.64
545.679	49368.68
545.879	49835.61
546.079	49245.8
546.28	49575.52
546.48	49493.6
546.68	49872.48
546.88	49774.17
547.08	49499.75
547.28	49253.99
547.48	49335.91
547.68	49653.34
547.88	49190.5
548.081	49700.45
548.281	49434.21
548.481	49712.73
548.681	49970.78
548.881	49157.74
549.081	49108.58
549.28	49038.95
549.48	49892.96
549.68	49438.31
549.88	49956.44
550.08	49264.23
550.28	49237.61
550.48	49100.39
550.68	49940.06
550.88	49004.14
551.08	49210.98
551.279	48971.37
551.479	48975.47
551.679	49331.81
551.879	48742
552.079	49182.31
552.278	48848.49
552.478	49110.63
552.678	48750.19
552.878	48875.12
553.077	49094.25
553.277	48576.11
553.477	49503.84
553.676	48778.86
553.876	48785
554.076	48647.79
554.275	48959.08
554.475	48156.28
554.674	48346.74
554.874	48600.69
555.074	48580.21
555.273	48496.24
555.473	48574.06
555.672	48453.23
555.872	48297.59
556.071	48680.56
556.271	48721.52
556.47	48410.23
556.67	48162.42
556.869	48459.38
557.068	48510.58
557.268	48098.94
557.467	48156.28
557.667	48621.17
557.866	48100.98
558.065	48123.51
558.265	47951.48
558.464	47898.23
558.663	48467.57
558.863	47836.8
559.062	48655.98
559.261	47197.83
559.461	48209.53
559.66	47658.62
559.859	47902.33
560.058	47697.53
560.258	47992.44
560.457	47183.49
560.656	47457.92
560.855	47775.36
561.054	47287.94
561.253	47259.27
561.453	47429.25
561.652	47419.01
561.851	47226.5
562.05	47062.66
562.249	46665.36
562.448	47347.33
562.647	47357.57
562.846	47265.41
563.045	47343.23
563.244	46497.42
563.443	47113.86
563.642	46415.51
563.841	46870.15
564.04	46333.59
564.239	47160.97
564.438	45979.29
564.637	46603.92
564.836	46843.53
565.035	46159.51
565.234	46276.24
565.432	45911.7
565.631	45995.67
565.83	46169.75
566.029	46136.98
566.228	46163.6
566.427	46136.98
566.625	45612.7
566.824	45430.43
567.023	45893.27
567.222	44897.96
567.42	45960.86
567.619	45469.34
567.818	45258.4
568.016	45385.38
568.215	45637.28
568.414	45407.9
568.612	45575.84
568.811	45059.75
569.01	45412
569.208	44443.31
569.407	45446.82
569.605	44969.64
569.804	45491.87
570.002	44244.66
570.201	44859.05
570.4	44486.32
570.598	44478.13
570.797	44617.39
570.995	44359.34
571.193	44021.43
571.392	44621.48
571.59	44076.72
571.789	44428.98
571.987	44097.2
572.186	44019.38
572.384	43984.57
572.582	43921.08
572.781	44099.25
572.979	43341.5
573.177	43630.27
573.376	43769.53
573.574	43183.81
573.772	43560.64
573.971	43525.82
574.169	42897.09
574.367	43052.74
574.565	43603.64
574.763	43036.36
574.962	42714.83
575.16	42518.22
575.358	42960.58
575.556	42342.1
575.754	43075.27
575.952	42249.94
576.151	42692.3
576.349	41971.41
576.547	42073.81
576.745	42419.92
576.943	42045.14
577.141	42071.76
577.339	42172.11
577.537	41391.84
577.735	41711.32
577.933	41256.67
578.131	41733.85
578.329	41410.27
578.527	41418.46
578.725	41543.39
578.923	41682.65
579.121	41053.92
579.319	41303.78
579.516	41500.38
579.714	41297.63
579.912	40853.22
580.11	40736.49
580.308	41015.01
580.506	40251.12
580.704	40367.85
580.901	40609.51
581.099	40623.85
581.297	40115.95
581.495	40376.05
581.692	40365.81
581.89	39933.68
582.088	40140.53
582.285	39741.17
582.483	40222.45
582.681	39618.3
582.878	39483.13
583.076	39491.32
583.274	39694.07
583.471	38889.22
583.669	39456.51
583.866	39100.16
584.064	39440.12
584.262	38616.84
584.459	38985.47
584.657	38475.53
584.854	38835.97
585.052	38326.03
585.249	38784.77
585.447	38412.04
585.644	38141.71
585.841	38113.04
586.039	38911.75
586.236	37697.3
586.434	37902.1
586.631	37838.61
586.828	37740.31
587.026	37707.54
587.223	37619.48
587.42	37555.99
587.618	37431.07
587.815	37259.04
588.012	37166.88
588.21	36990.75
588.407	37375.77
588.604	36722.47
588.801	36669.22
588.999	36513.58
589.196	36646.69
589.393	36982.56
589.59	36421.42
589.787	36409.13
589.984	36353.83
590.182	35798.84
590.379	35977.01
590.576	36030.26
590.773	35897.14
590.97	35921.71
591.167	35794.74
591.364	35270.46
591.561	35718.96
591.758	35276.6
591.955	35020.61
592.152	35694.39
592.349	35256.12
592.546	35303.23
592.743	34778.95
592.94	34668.36
593.137	34885.44
593.334	34885.44
593.531	34121.55
593.727	34697.03
593.924	34496.33
594.121	34352.97
594.318	34123.6
594.515	34117.45
594.712	34127.69
594.908	33920.85
595.105	33711.95
595.302	33783.63
595.499	33767.25
595.696	33482.58
595.892	33056.6
596.089	33654.61
596.286	33056.6
596.482	33314.65
596.679	33009.5
596.876	32845.66
597.072	32900.96
597.269	32800.61
597.466	32311.14
597.662	32417.64
597.859	32837.47
598.055	32638.82
598.252	32325.48
598.448	32331.62
598.645	32259.95
598.841	31823.73
599.038	32378.73
599.234	32221.03
599.431	31494
599.627	31418.23
599.824	31530.87
600.02	31494
600.217	31520.63
600.413	31469.43
600.609	31281.02
600.806	30846.85
601.002	30982.01
601.198	30967.68
601.395	30738.3
601.591	30826.37
601.787	30893.95
601.984	30601.09
602.18	30758.78
602.376	30463.88
602.572	30574.47
602.769	30474.12
602.965	29966.22
603.161	30476.16
603.357	30091.15
603.553	30072.71
603.75	29906.83
603.946	29566.87
604.142	29884.3
604.338	29339.54
604.534	29820.81
604.73	29493.14
604.926	29290.39
605.122	29233.05
605.318	29161.37
605.514	29251.48
605.71	28940.19
605.906	28772.25
606.102	28727.2
606.298	29142.94
606.494	28651.42
606.69	28987.29
606.886	28819.36
607.082	28172.2
607.278	28714.91
607.474	28182.44
607.67	28587.94
607.866	27969.45
608.062	28415.91
608.257	28118.95
608.453	28088.23
608.649	28239.78
608.845	28182.44
609.041	28141.48
609.236	27957.16
609.432	27762.61
609.628	27754.41
609.824	27551.66
610.019	27432.88
610.215	27666.35
610.411	27649.97
610.606	27219.89
610.802	27660.21
610.998	27334.58
611.193	27271.09
611.389	27135.93
611.584	27221.94
611.78	27199.41
611.976	27199.41
612.171	27316.15
612.367	27119.54
612.562	27463.6
612.758	26742.72
612.953	26789.82
613.149	27291.57
613.344	26621.89
613.539	27086.78
613.735	26912.7
613.93	26939.32
614.126	26668.99
614.321	26869.69
614.517	26324.93
614.712	26513.34
614.907	26429.38
615.103	26451.91
615.298	26703.81
615.493	26818.49
615.688	26052.55
615.884	26816.44
616.079	26091.46
616.274	26439.62
616.47	26341.32
616.665	26085.32
616.86	25845.71
617.055	26189.77
617.25	26011.59
617.445	25960.39
617.641	25626.57
617.836	25487.31
618.031	25384.91
618.226	25622.48
618.421	25450.45
618.616	25536.46
618.811	24969.18
619.006	25679.82
619.201	25198.55
619.396	25120.73
619.591	24823.77
619.786	25075.67
619.981	24829.91
620.176	25085.91
620.371	24668.12
620.566	24719.32
620.761	24467.42
620.956	24733.66
621.151	24139.75
621.346	24156.13
621.541	23730.16
621.735	23869.42
621.93	23769.07
622.125	23711.72
622.32	23382
622.515	23726.06
622.709	23400.43
622.904	23517.17
623.099	23052.28
623.294	23281.65
623.488	22769.66
623.683	23027.7
623.878	22689.79
624.072	22460.41
624.267	22681.6
624.462	22437.89
624.656	21952.52
624.851	22228.99
625.046	21968.9
625.24	21960.71
625.435	21710.86
625.629	21575.69
625.824	21555.21
626.018	21348.37
626.213	20932.63
626.407	21360.66
626.602	21000.21
626.796	20957.21
626.991	20895.77
627.185	20807.7
627.38	20602.91
627.574	20523.04
627.768	20289.57
627.963	20437.02
628.157	20119.59
628.352	20101.15
628.546	20111.39
628.74	19994.66
628.935	19331.12
629.129	19449.9
629.323	19509.29
629.517	19423.28
629.712	19376.17
629.906	19273.78
630.1	18808.89
630.294	19109.94
630.489	19075.12
630.683	18831.41
630.877	18458.68
631.071	18511.93
631.265	18636.86
631.459	18720.82
631.653	18387
631.848	18497.6
632.042	18042.95
632.236	18196.54
632.43	18102.34
632.624	18190.4
632.818	17670.22
633.012	17852.48
633.206	17682.5
633.4	17483.85
633.594	17293.39
633.788	17305.68
633.982	17377.36
634.176	17215.57
634.369	17162.32
634.563	16910.42
634.757	17047.63
634.951	16996.43
635.145	16638.04
635.339	16771.16
635.533	16531.55
635.726	16578.65
635.92	16300.12
636.114	16482.39
636.308	16236.64
636.501	16195.68
636.695	16177.25
636.889	16062.56
637.083	16005.22
637.276	15892.58
637.47	15644.77
637.664	15792.23
637.857	15624.29
638.051	15599.72
638.244	15286.38
638.438	15315.05
638.632	15462.51
638.825	15222.89
639.019	14952.56
639.212	14921.84
639.406	15102.06
639.599	14860.4
639.793	14927.99
639.986	14739.57
640.18	14493.82
640.373	14731.38
640.567	14415.99
640.76	14686.33
640.954	14459
641.147	14223.48
641.34	14291.07
641.534	14108.8
641.727	14014.59
641.92	14016.64
642.114	13916.29
642.307	13885.57
642.5	13736.07
642.694	13713.54
642.887	13650.05
643.08	14014.59
643.273	13645.96
643.467	13375.63
643.66	13305.99
643.853	13353.1
644.046	13158.54
644.239	13349
644.432	13117.58
644.626	13238.41
644.819	13052.05
645.012	12974.22
645.205	13064.33
645.398	13117.58
645.591	12845.2
645.784	12871.82
645.977	12406.94
646.17	12720.28
646.363	12413.08
646.556	12339.35
646.749	12429.46
646.942	12335.26
647.135	12185.76
647.328	12202.14
647.521	12200.09
647.714	12177.56
647.907	11862.18
648.099	12007.58
648.292	11841.7
648.485	11851.94
648.678	11501.73
648.871	11718.82
649.064	11554.98
649.256	11667.62
649.449	11387.05
649.642	11346.09
649.835	11378.86
650.027	11405.48
650.22	11016.37
650.413	11278.51
650.605	11188.39
650.798	11155.63
650.991	10973.36
651.183	10832.05
651.376	10907.82
651.568	10836.14
651.761	10825.9
651.954	10750.13
652.146	10625.2
652.339	10479.8
652.531	10635.44
652.724	10500.28
652.916	10326.2
653.109	10377.4
653.301	10393.78
653.494	10352.82
653.686	10266.81
653.879	10299.58
654.071	10080.44
654.263	10113.21
654.456	10166.46
654.648	10107.07
654.84	9928.89
655.033	9904.32
655.225	9781.44
655.417	9711.81
655.61	9541.83
655.802	9789.63
655.994	9517.25
656.186	9623.75
656.379	9488.58
656.571	9476.29
656.763	9523.4
656.955	9367.75
657.148	9421
657.34	9160.91
657.532	9181.39
657.724	9136.33
657.916	9089.23
658.108	9134.28
658.3	8931.53
658.492	9285.83
658.684	8898.77
658.876	9060.56
659.068	8784.08
659.26	8775.89
659.452	8667.35
659.644	8775.89
659.836	8601.81
660.028	8765.65
660.22	8632.53
660.412	8532.18
660.604	8386.77
660.796	8544.47
660.988	8442.07
661.18	8222.94
661.372	8491.22
661.563	8616.15
661.755	8231.13
661.947	8116.44
662.139	8157.4
662.331	8030.43
662.522	7971.04
662.714	8177.88
662.906	8036.57
663.097	7852.25
663.289	7848.16
663.481	7813.34
663.673	7768.29
663.864	7889.12
664.056	7981.28
664.247	7592.16
664.439	7672.03
664.631	7661.79
664.822	7493.86
665.014	7594.21
665.205	7563.49
665.397	7524.58
665.588	7491.81
665.78	7452.9
665.971	7383.27
666.163	7147.75
666.354	7354.6
666.546	7270.63
666.737	7145.7
666.929	7213.29
667.12	7162.09
667.311	6971.63
667.503	7067.88
667.694	7057.64
667.885	6916.33
668.077	6895.85
668.268	6867.18
668.459	6861.04
668.651	6775.02
668.842	6818.03
669.033	6768.88
669.224	6578.42
669.416	6709.49
669.607	6834.41
669.798	6654.19
669.989	6746.35
670.18	6586.61
670.371	6537.46
670.563	6510.83
670.754	6693.1
670.945	6519.03
671.136	6420.72
671.327	6545.65
671.518	6441.2
671.709	6426.87
671.9	6510.83
672.091	6447.35
672.282	6242.55
672.473	6260.98
672.664	6289.65
672.855	6195.45
673.046	6277.37
673.237	6359.28
673.428	6156.54
673.619	6111.48
673.809	6193.4
674	6129.91
674.191	5908.73
674.382	6082.81
674.573	5914.88
674.764	5978.36
674.954	5910.78
675.145	5955.83
675.336	5814.52
675.527	5830.91
675.717	5845.24
675.908	5792
676.099	5638.4
676.289	5765.37
676.48	5742.85
676.671	5677.31
676.861	5576.96
677.052	5669.12
677.243	5648.64
677.433	5730.56
677.624	5611.78
677.814	5554.43
678.005	5718.27
678.195	5495.04
678.386	5568.77
678.576	5540.1
678.767	5456.13
678.957	5429.51
679.148	5533.95
679.338	5419.27
679.529	5439.75
679.719	5384.45
679.909	5445.89
680.1	5339.4
680.29	5298.44
680.481	5343.49
680.671	5323.01
680.861	5359.88
681.052	5296.39
681.242	5300.48
681.432	5298.44
681.622	5144.84
681.813	5054.73
682.003	5128.46
682.193	5132.55
682.383	5259.53
682.573	5181.7
682.764	5128.46
682.954	5267.72
683.144	5161.22
683.334	5077.26
683.524	4997.39
683.714	5060.87
683.904	5095.69
684.094	4993.29
684.284	4950.28
684.474	5005.58
684.664	5011.72
684.854	5034.25
685.044	4876.55
685.234	4747.53
685.424	4808.97
685.614	4864.27
685.804	4802.83
685.994	4817.16
686.184	4917.51
686.374	4544.78
686.564	4624.65
686.753	4673.81
686.943	4722.96
687.133	4708.62
687.323	4589.84
687.513	4647.18
687.702	4466.96
687.892	4602.13
688.082	4587.79
688.272	4636.94
688.461	4608.27
688.651	4520.21
688.841	4542.74
689.03	4344.08
689.22	4335.89
689.41	4391.19
689.599	4325.65
689.789	4256.02
689.979	4299.03
690.168	4368.66
690.358	4301.08
690.547	4366.61
690.737	4249.88
690.926	4305.17
691.116	4274.45
691.305	4319.51
691.495	4014.36
691.684	4112.66
691.874	4112.66
692.063	4129.05
692.252	4157.72
692.442	3936.54
692.631	4047.13
692.82	4188.44
693.01	3840.28
693.199	3926.3
693.388	3879.19
693.578	3891.48
693.767	3864.86
693.956	3811.61
694.146	3834.14
694.335	3807.52
694.524	3993.88
694.713	3815.71
694.902	3827.99
695.092	3762.46
695.281	3725.6
695.47	3762.46
695.659	3660.06
695.848	3604.77
696.037	3612.96
696.226	3606.81
696.415	3643.68
696.604	3633.44
696.793	3615.01
696.982	3584.29
697.171	3565.85
697.36	3582.24
697.549	3555.62
697.738	3508.51
697.927	3445.02
698.116	3490.08
698.305	3569.95
698.494	3512.61
698.683	3490.08
698.872	3402.02
699.061	3563.81
699.25	3447.07
699.438	3307.81
699.627	3442.98
699.816	3307.81
700.005	3416.35
700.193	3258.66
700.382	3205.41
700.571	3381.54
700.76	3324.19
700.948	3293.48
701.137	3356.96
701.326	3393.83
701.514	3176.74
701.703	3195.17
701.892	3313.95
702.08	3289.38
702.269	3262.76
702.457	3227.94
702.646	3193.12
702.834	3174.69
703.023	3191.08
703.212	3105.06
703.4	3201.32
703.589	3070.25
703.777	3148.07
703.965	3156.26
704.154	3029.29
704.342	3027.24
704.531	3113.25
704.719	3012.9
704.907	3193.12
705.096	3076.39
705.284	3150.12
705.472	3047.72
705.661	3123.49
705.849	3004.71
706.037	3103.01
706.226	3090.73
706.414	2963.75
706.602	3006.76
706.79	2984.23
706.979	2982.18
707.167	3027.24
707.355	3060.01
707.543	3086.63
707.731	3004.71
707.919	2990.38
708.107	2926.89
708.296	3006.76
708.484	2930.98
708.672	2951.46
708.86	2906.41
709.048	3000.62
709.236	2943.27
709.424	2961.7
709.612	2998.57
709.8	2951.46
709.988	2984.23
710.176	2865.45
710.364	2828.59
710.551	2920.74
710.739	2814.25
710.927	2914.6
711.115	2814.25
711.303	2939.18
711.491	2916.65
711.679	2853.16
711.866	2855.21
712.054	2656.56
712.242	2863.4
712.43	2986.28
712.617	2773.29
712.805	2879.79
712.993	2842.92
713.181	2785.58
713.368	2797.87
713.556	2894.12
713.744	2691.37
713.931	2838.83
714.119	2781.48
714.306	2840.87
714.494	2881.83
714.682	2769.2
714.869	2695.47
715.057	2808.11
715.244	2705.71
715.432	2830.63
715.619	2763.05
715.807	2742.57
715.994	2840.87
716.182	2892.07
716.369	2943.27
716.556	2873.64
716.744	2693.42
716.931	2828.59
717.119	2873.64
717.306	2789.67
717.493	2793.77
717.681	2758.96
717.868	2732.33
718.055	2799.91
718.242	2783.53
718.43	2777.39
718.617	2779.43
718.804	2801.96
718.991	2797.87
719.179	2707.76
719.366	2756.91
719.553	2754.86
719.74	2738.48
719.927	2740.52
720.114	2795.82
720.301	2728.24
720.488	2683.18
720.676	2728.24
720.863	2699.56
721.05	2689.32
721.237	2629.93
721.424	2672.94
721.611	2621.74
721.798	2746.67
721.985	2634.03
722.172	2756.91
722.358	2603.31
722.545	2738.48
722.732	2625.84
722.919	2654.51
723.106	2625.84
723.293	2654.51
723.48	2646.32
723.667	2601.26
723.853	2603.31
724.04	2728.24
724.227	2722.09
724.414	2746.67
724.6	2660.65
724.787	2654.51
724.974	2603.31
725.161	2715.95
725.347	2576.69
725.534	2597.17
725.72	2707.76
725.907	2734.38
726.094	2771.24
726.28	2652.46
726.467	2466.1
726.653	2789.67
726.84	2654.51
727.027	2642.22
727.213	2664.75
727.4	2738.48
727.586	2732.33
727.773	2720.04
727.959	2640.17
728.145	2648.36
728.332	2652.46
728.518	2648.36
728.705	2754.86
728.891	2791.72
729.077	2664.75
729.264	2578.73
729.45	2679.08
729.636	2695.47
729.823	2644.27
730.009	2652.46
730.195	2582.83
730.382	2648.36
730.568	2701.61
730.754	2660.65
730.94	2593.07
731.126	2652.46
731.313	2668.84
731.499	2687.28
731.685	2711.85
731.871	2652.46
732.057	2787.63
732.243	2701.61
732.429	2707.76
732.615	2752.81
732.801	2777.39
732.987	2636.08
733.173	2644.27
733.359	2750.76
733.545	2627.89
733.731	2707.76
733.917	2718
734.103	2750.76
734.289	2730.28
734.475	2674.99
734.661	2695.47
734.847	2556.21
735.033	2636.08
735.219	2685.23
735.404	2654.51
735.59	2599.21
735.776	2558.25
735.962	2648.36
736.148	2771.24
736.333	2603.31
736.519	2656.56
736.705	2644.27
736.89	2472.24
737.076	2636.08
737.262	2609.45
737.447	2658.6
737.633	2705.71
737.819	2670.89
738.004	2693.42
738.19	2658.6
738.375	2574.64
738.561	2566.45
738.747	2554.16
738.932	2527.53
739.118	2738.48
739.303	2611.5
739.489	2609.45
739.674	2566.45
739.859	2591.02
740.045	2709.8
740.23	2605.36
740.416	2593.07
740.601	2613.55
740.786	2644.27
740.972	2550.06
741.157	2677.04
741.342	2531.63
741.528	2582.83
741.713	2480.43
741.898	2611.5
742.084	2517.29
742.269	2709.8
742.454	2629.93
742.639	2603.31
742.824	2476.34
743.01	2507.06
743.195	2410.8
743.38	2439.47
743.565	2509.1
743.75	2515.25
743.935	2384.18
744.12	2490.67
744.305	2509.1
744.49	2443.57
744.675	2365.75
744.86	2421.04
745.045	2416.94
745.23	2255.15
745.415	2351.41
745.6	2330.93
745.785	2361.65
745.97	2375.99
746.155	2339.12
746.34	2296.11
746.525	2330.93
746.71	2394.42
746.895	2310.45
747.079	2404.66
747.264	2222.39
747.449	2289.97
747.634	2328.88
747.819	2163
748.003	2154.8
748.188	2330.93
748.373	2214.2
748.557	2259.25
748.742	2208.05
748.927	2230.58
749.111	2140.47
749.296	2076.98
749.481	2210.1
749.665	2095.41
749.85	2128.18
750.034	2054.45
750.219	2048.31
750.404	2087.22
750.588	2056.5
750.773	2087.22
750.957	1997.11
751.141	2023.73
751.326	2027.83
751.51	2005.3
751.695	1993.01
751.879	1909.05
752.064	2007.35
752.248	1935.67
752.432	2011.45
752.617	2003.25
752.801	1945.91
752.985	1866.04
753.17	1841.47
753.354	1878.33
753.538	1812.79
753.722	1882.42
753.907	1886.52
754.091	1855.8
754.275	1775.93
754.459	1796.41
754.643	1790.27
754.828	1759.55
755.012	1796.41
755.196	1757.5
755.38	1669.44
755.564	1786.17
755.748	1763.64
755.932	1747.26
756.116	1683.77
756.3	1661.24
756.484	1663.29
756.668	1814.84
756.852	1587.52
757.036	1593.66
757.22	1626.43
757.404	1622.33
757.588	1628.48
757.772	1538.37
757.956	1575.23
758.14	1595.71
758.323	1517.89
758.507	1575.23
758.691	1626.43
758.875	1446.21
759.059	1515.84
759.242	1567.04
759.426	1433.92
759.61	1468.73
759.794	1564.99
759.977	1411.39
760.161	1589.57
760.345	1438.02
760.528	1397.06
760.712	1489.21
760.895	1435.97
761.079	1395.01
761.263	1395.01
761.446	1505.6
761.63	1415.49
761.813	1380.67
761.997	1331.52
762.18	1405.25
762.364	1409.34
762.547	1249.6
762.731	1468.73
762.914	1392.96
763.098	1335.62
763.281	1333.57
763.464	1341.76
763.648	1493.31
763.831	1308.99
764.015	1251.65
764.198	1253.7
764.381	1343.81
764.564	1313.09
764.748	1308.99
764.931	1253.7
765.114	1407.3
765.297	1317.19
765.481	1194.31
765.664	1229.12
765.847	1243.46
766.03	1204.55
766.213	1143.11
766.397	1245.51
766.58	1225.03
766.763	1235.27
766.946	1239.36
767.129	1188.16
767.312	1208.64
767.495	1206.59
767.678	1225.03
767.861	1206.59
768.044	1231.17
768.227	1225.03
768.41	1229.12
768.593	1288.51
768.776	1204.55
768.959	1231.17
769.142	1190.21
769.324	1096
769.507	1190.21
769.69	1141.06
769.873	1173.83
770.056	1151.3
770.239	1151.3
770.421	1188.16
770.604	1100.1
770.787	1102.15
770.97	1130.82
771.152	1085.76
771.335	1067.33
771.518	1071.43
771.7	1110.34
771.883	1143.11
772.066	1048.9
772.248	1085.76
772.431	1124.68
772.613	1106.24
772.796	995.65
772.978	1050.95
773.161	1089.86
773.343	1087.81
773.526	1081.67
773.708	1077.57
773.891	977.22
774.073	977.22
774.256	981.32
774.438	1018.18
774.621	989.51
774.803	1036.61
774.985	1030.47
775.168	1030.47
775.35	817.48
775.532	977.22
775.715	833.86
775.897	903.5
776.079	917.83
776.261	926.02
776.444	889.16
776.626	928.07
776.808	878.92
776.99	885.06
777.173	876.87
777.355	874.82
777.537	837.96
777.719	862.54
777.901	848.2
778.083	928.07
778.265	698.7
778.447	766.28
778.629	827.72
778.811	780.62
778.993	817.48
779.175	809.29
779.357	801.1
779.539	756.04
779.721	797
779.903	844.1
780.085	743.75
780.267	797
780.449	848.2
780.631	766.28
780.812	727.37
780.994	764.23
781.176	747.85
781.358	753.99
781.54	803.15
781.721	692.55
781.903	778.57
782.085	645.45
782.267	768.33
782.448	637.26
782.63	706.89
782.812	799.05
782.993	665.93
783.175	686.41
783.357	555.34
783.538	696.65
783.72	629.07
783.901	692.55
784.083	588.11
784.264	631.12
784.446	678.22
784.627	710.99
784.809	651.6
784.99	647.5
785.172	667.98
785.353	651.6
785.535	573.77
785.716	510.29
785.897	534.86
786.079	565.58
786.26	610.64
786.441	616.78
786.623	618.83
786.804	467.28
786.985	584.01
787.167	504.14
787.348	549.2
787.529	436.56
787.71	661.84
787.891	489.81
788.073	528.72
788.254	561.48
788.435	502.09
788.616	489.81
788.797	545.1
788.978	498
789.159	500.05
789.34	545.1
789.522	512.33
789.703	567.63
789.884	498
790.065	471.37
790.246	604.49
790.427	536.91
790.607	536.91
790.788	524.62
790.969	424.27
791.15	457.04
791.331	364.88
791.512	420.17
791.693	506.19
791.874	485.71
792.054	461.13
792.235	452.94
792.416	450.89
792.597	479.57
792.778	438.61
792.958	461.13
793.139	364.88
793.32	454.99
793.5	477.52
793.681	489.81
793.862	403.79
794.042	481.61
794.223	323.92
794.404	350.54
794.584	448.85
794.765	401.74
794.945	332.11
795.126	475.47
795.306	393.55
795.487	389.46
795.667	375.12
795.848	379.22
796.028	305.49
796.209	411.98
796.389	325.97
796.57	391.5
796.75	371.02
796.93	340.3
797.111	373.07
797.291	321.87
797.471	430.41
797.652	301.39
797.832	301.39
798.012	383.31
798.192	348.5
798.373	364.88
798.553	344.4
798.733	395.6
798.913	297.3
799.093	373.07
799.274	319.82
799.454	325.97
799.634	399.7
799.814	436.56
799.994	330.06
800.174	342.35
800.354	358.74
800.534	356.69
800.714	299.34
800.894	321.87
801.074	342.35
801.254	323.92
801.434	364.88
801.614	418.13
801.794	282.96
801.974	690.51
802.154	313.68
802.334	325.97
802.514	317.78
802.693	293.2
802.873	291.15
803.053	373.07
803.233	287.06
803.413	356.69
803.592	307.54
803.772	321.87
803.952	317.78
804.131	237.91
804.311	285.01
804.491	350.54
804.67	307.54
804.85	303.44
805.03	321.87
805.209	315.73
805.389	295.25
805.568	307.54
805.748	239.95
805.928	211.28
806.107	227.67
806.287	287.06
806.466	268.63
806.646	239.95
806.825	254.29
807.004	248.15
807.184	282.96
807.363	293.2
807.543	198.99
807.722	248.15
807.901	231.76
808.081	252.24
808.26	182.61
808.439	272.72
808.619	309.58
808.798	178.51
808.977	205.14
809.156	219.47
809.336	303.44
809.515	334.16
809.694	198.99
809.873	289.1
810.052	198.99
810.231	336.21
810.411	289.1
810.59	287.06
810.769	211.28
810.948	282.96
811.127	168.27
811.306	184.66
811.485	153.94
811.664	207.19
811.843	260.43
812.022	170.32
812.201	223.57
812.38	205.14
812.559	242
812.737	184.66
812.916	149.84
813.095	264.53
813.274	203.09
813.453	198.99
813.632	332.11
813.811	246.1
813.989	178.51
814.168	225.62
814.347	258.39
814.526	164.18
814.704	242
814.883	219.47
815.062	217.43
815.24	160.08
815.419	270.67
815.598	162.13
815.776	194.9
815.955	221.52
816.133	180.56
816.312	203.09
816.49	209.23
816.669	170.32
816.847	176.47
817.026	213.33
817.204	223.57
817.383	227.67
817.561	198.99
817.74	166.23
817.918	194.9
818.097	172.37
818.275	176.47
818.453	184.66
818.632	194.9
818.81	168.27
818.988	244.05
819.167	149.84
819.345	180.56
819.523	190.8
819.701	176.47
819.879	172.37
820.058	172.37
820.236	205.14
820.414	213.33
820.592	176.47
820.77	151.89
820.948	188.75
821.127	86.36
821.305	166.23
821.483	201.04
821.661	104.79
821.839	110.93
822.017	155.99
822.195	55.64
822.373	209.23
822.551	172.37
822.729	158.03
822.907	227.67
823.085	250.19
823.262	65.88
823.44	135.51
823.618	86.36
823.796	141.65
823.974	135.51
824.152	119.12
824.329	160.08
824.507	76.12
824.685	147.8
824.863	215.38
825.04	129.36
825.218	166.23
825.396	106.84
825.574	213.33
825.751	160.08
825.929	201.04
826.107	117.08
826.284	203.09
826.462	104.79
826.639	106.84
826.817	213.33
826.994	133.46
827.172	102.74
827.349	194.9
827.527	155.99
827.704	194.9
827.882	131.41
828.059	98.64
828.237	172.37
828.414	137.56
828.591	139.6
828.769	119.12
828.946	82.26
829.124	84.31
829.301	186.71
829.478	102.74
829.655	192.85
829.833	160.08
830.01	88.4
830.187	125.27
830.364	102.74
830.542	117.08
830.719	127.32
830.896	106.84
831.073	117.08
831.25	121.17
831.427	131.41
831.604	84.31
831.782	123.22
831.959	133.46
832.136	106.84
832.313	127.32
832.49	98.64
832.667	80.21
832.844	115.03
833.021	80.21
833.198	78.16
833.374	172.37
833.551	172.37
833.728	186.71
833.905	137.56
834.082	104.79
834.259	104.79
834.436	162.13
834.612	201.04
834.789	123.22
834.966	-1.71
835.143	100.69
835.319	67.92
835.496	123.22
835.673	82.26
835.85	135.51
836.026	98.64
836.203	84.31
836.38	22.87
836.556	76.12
836.733	108.88
836.909	92.5
837.086	88.4
837.262	61.78
837.439	94.55
837.616	61.78
837.792	115.03
837.968	86.36
838.145	65.88
838.321	131.41
838.498	88.4
838.674	135.51
838.851	88.4
839.027	88.4
839.203	110.93
839.38	102.74
839.556	119.12
839.732	127.32
839.909	65.88
840.085	84.31
840.261	47.44
840.437	98.64
840.614	59.73
840.79	186.71
840.966	59.73
841.142	74.07
841.318	29.01
841.494	61.78
841.671	92.5
841.847	61.78
842.023	88.4
842.199	117.08
842.375	106.84
842.551	57.68
842.727	33.11
842.903	117.08
843.079	22.87
843.255	106.84
843.431	65.88
843.607	43.35
843.783	86.36
843.959	96.6
844.134	155.99
844.31	151.89
844.486	29.01
844.662	84.31
844.838	104.79
845.013	131.41
845.189	102.74
845.365	102.74
845.541	69.97
845.716	115.03
845.892	92.5
846.068	22.87
846.244	51.54
846.419	127.32
846.595	57.68
846.77	80.21
846.946	119.12
847.122	45.4
847.297	31.06
847.473	108.88
847.648	78.16
847.824	106.84
847.999	47.44
848.175	26.96
848.35	61.78
848.526	37.2
848.701	106.84
848.876	43.35
849.052	90.45
849.227	31.06
849.403	92.5
849.578	86.36
849.753	90.45
849.929	61.78
850.104	8.53
850.279	121.17
850.454	35.16
850.63	69.97
850.805	-18.09
850.98	53.59
851.155	59.73
851.33	33.11
851.505	92.5
851.681	108.88
851.856	-36.52
852.031	74.07
852.206	104.79
852.381	12.63
852.556	78.16
852.731	147.8
852.906	63.83
853.081	51.54
853.256	29.01
853.431	12.63
853.606	88.4
853.781	61.78
853.956	20.82
854.131	74.07
854.305	76.12
854.48	8.53
854.655	61.78
854.83	82.26
855.005	-7.85
855.18	135.51
855.354	65.88
855.529	112.98
855.704	55.64
855.879	84.31
856.053	33.11
856.228	57.68
856.403	22.87
856.577	12.63
856.752	100.69
856.926	43.35
857.101	-13.99
857.276	65.88
857.45	12.63
857.625	22.87
857.799	31.06
857.974	72.02
858.148	12.63
858.323	96.6
858.497	16.73
858.672	-18.09
858.846	39.25
859.02	61.78
859.195	33.11
859.369	55.64
859.543	-46.76
859.718	92.5
859.892	61.78
860.066	88.4
860.241	33.11
860.415	80.21
860.589	16.73
860.763	88.4
860.938	31.06
861.112	53.59
861.286	10.58
861.46	110.93
861.634	37.2
861.808	47.44
861.982	-24.23
862.157	72.02
862.331	72.02
862.505	4.44
862.679	35.16
862.853	43.35
863.027	22.87
863.201	55.64
863.375	37.2
863.549	65.88
863.722	69.97
863.896	16.73
864.07	59.73
864.244	55.64
864.418	12.63
864.592	33.11
864.766	0.34
864.939	-57
865.113	133.46
865.287	80.21
865.461	29.01
865.634	33.11
865.808	0.34
865.982	112.98
866.156	-16.04
866.329	26.96
866.503	43.35
866.676	47.44
866.85	-22.19
867.024	84.31
867.197	69.97
867.371	57.68
867.544	16.73
867.718	43.35
867.891	112.98
868.065	98.64
868.238	57.68
868.412	90.45
868.585	67.92
868.759	-3.75
868.932	65.88
869.105	-22.19
869.279	18.77
869.452	59.73
869.625	24.92
869.799	80.21
869.972	10.58
870.145	18.77
870.319	147.8
870.492	39.25
870.665	55.64
870.838	0.34
871.011	-20.14
871.185	39.25
871.358	69.97
871.531	47.44
871.704	47.44
871.877	74.07
872.05	80.21
872.223	41.3
872.396	26.96
872.569	119.12
872.742	55.64
872.915	92.5
873.088	47.44
873.261	41.3
873.434	82.26
873.607	-50.86
873.78	51.54
873.953	-7.85
874.126	-36.52
874.299	115.03
874.471	26.96
874.644	112.98
874.817	49.49
874.99	127.32
875.163	10.58
875.335	-16.04
875.508	88.4
875.681	106.84
875.853	-38.57
876.026	-7.85
876.199	90.45
876.371	39.25
876.544	35.16
876.717	59.73
876.889	57.68
877.062	22.87
877.234	47.44
877.407	-65.19
877.579	29.01
877.752	29.01
877.924	61.78
878.097	84.31
878.269	24.92
878.442	14.68
878.614	39.25
878.786	78.16
878.959	-11.95
879.131	47.44
879.303	2.39
879.476	-5.8
879.648	100.69
879.82	82.26
879.993	10.58
880.165	41.3
880.337	53.59
880.509	2.39
880.681	-16.04
880.854	-18.09
881.026	123.22
881.198	45.4
881.37	29.01
881.542	22.87
881.714	6.49
881.886	65.88
882.058	61.78
882.23	31.06
882.402	6.49
882.574	-20.14
882.746	86.36
882.918	33.11
883.09	47.44
883.262	-52.91
883.434	-1.71
883.606	12.63
883.778	-13.99
883.95	12.63
884.122	22.87
884.293	14.68
884.465	2.39
884.637	-22.19
884.809	-13.99
884.98	45.4
885.152	53.59
885.324	96.6
885.496	65.88
885.667	14.68
885.839	-3.75
886.011	67.92
886.182	63.83
886.354	-52.91
886.525	100.69
886.697	-50.86
886.869	12.63
887.04	45.4
887.212	-57
887.383	108.88
887.555	-65.19
887.726	10.58
887.897	14.68
888.069	92.5
888.24	18.77
888.412	86.36
888.583	76.12
888.754	12.63
888.926	-3.75
889.097	35.16
889.268	33.11
889.44	59.73
889.611	-13.99
889.782	18.77
889.953	4.44
890.125	-7.85
890.296	16.73
890.467	24.92
890.638	-83.63
890.809	127.32
890.98	-5.8
891.151	41.3
891.323	51.54
891.494	14.68
891.665	22.87
891.836	115.03
892.007	-9.9
892.178	57.68
892.349	-18.09
892.52	47.44
892.691	33.11
892.862	-3.75
893.032	100.69
893.203	63.83
893.374	24.92
893.545	78.16
893.716	33.11
893.887	59.73
894.057	10.58
894.228	12.63
894.399	39.25
894.57	57.68
894.74	-5.8
894.911	-1.71
895.082	-48.81
895.253	49.49
895.423	31.06
895.594	57.68
895.764	24.92
895.935	16.73
896.106	41.3
896.276	39.25
896.447	65.88
896.617	55.64
896.788	29.01
896.958	4.44
897.129	20.82
897.299	47.44
897.47	72.02
897.64	41.3
897.81	22.87
897.981	4.44
898.151	2.39
898.322	-7.85
898.492	24.92
898.662	8.53
898.832	-16.04
899.003	39.25
899.173	-7.85
899.343	-32.43
899.513	-46.76
