Data from USB4F104151__60__11-45-18-429.txt Node

Date: Fri Mar 14 11:45:18 EDT 2025
User: louis
Spectrometer: USB4F10415
Trigger mode: 4
Integration Time (sec): 2.000000E-2
Scans to average: 1
Electric dark correction enabled: true
Nonlinearity correction enabled: false
Boxcar width: 0
XAxis mode: Wavelengths
Number of Pixels in Spectrum: 3648
>>>>>Begin Spectral Data<<<<<
178.204	-81.24
178.424	-81.24
178.644	-81.24
178.864	-116.05
179.084	-62.8
179.304	23.21
179.524	0.68
179.744	6.83
179.964	8.87
180.184	2.73
180.404	27.31
180.624	-15.7
180.844	23.21
181.064	-7.51
181.283	-1.37
181.503	-56.66
181.723	-11.61
181.943	-60.76
182.163	86.7
182.383	31.4
182.602	39.59
182.822	2.73
183.042	96.94
183.262	88.75
183.482	-44.37
183.701	-19.8
183.921	35.5
184.141	-23.89
184.361	53.93
184.58	6.83
184.8	29.35
185.02	43.69
185.239	88.75
185.459	72.36
185.679	33.45
185.898	-25.94
186.118	55.98
186.338	72.36
186.557	19.11
186.777	27.31
186.997	12.97
187.216	29.35
187.436	45.74
187.655	29.35
187.875	49.83
188.095	-5.46
188.314	74.41
188.534	39.59
188.753	58.03
188.973	39.59
189.192	62.12
189.412	-11.61
189.631	39.59
189.851	-27.99
190.07	35.5
190.29	70.31
190.509	55.98
190.729	33.45
190.948	47.79
191.168	78.51
191.387	6.83
191.607	51.88
191.826	88.75
192.045	47.79
192.265	19.11
192.484	27.31
192.704	8.87
192.923	-21.85
193.142	43.69
193.362	15.02
193.581	47.79
193.8	21.16
194.02	103.08
194.239	12.97
194.458	68.27
194.678	76.46
194.897	76.46
195.116	19.11
195.335	115.37
195.555	37.55
195.774	39.59
195.993	53.93
196.212	76.46
196.432	15.02
196.651	68.27
196.87	31.4
197.089	60.07
197.308	12.97
197.528	51.88
197.747	-21.85
197.966	76.46
198.185	51.88
198.404	19.11
198.623	45.74
198.842	39.59
199.062	76.46
199.281	2.73
199.5	78.51
199.719	31.4
199.938	49.83
200.157	45.74
200.376	55.98
200.595	10.92
200.814	80.55
201.033	33.45
201.252	29.35
201.471	47.79
201.69	86.7
201.909	84.65
202.128	92.84
202.347	55.98
202.566	-19.8
202.785	-15.7
203.004	29.35
203.223	80.55
203.442	37.55
203.661	66.22
203.879	74.41
204.098	8.87
204.317	60.07
204.536	-23.89
204.755	4.78
204.974	-1.37
205.193	78.51
205.411	80.55
205.63	-23.89
205.849	35.5
206.068	47.79
206.287	72.36
206.505	6.83
206.724	31.4
206.943	-11.61
207.162	66.22
207.381	-17.75
207.599	47.79
207.818	-5.46
208.037	68.27
208.255	29.35
208.474	33.45
208.693	12.97
208.911	29.35
209.13	31.4
209.349	60.07
209.567	29.35
209.786	74.41
210.005	64.17
210.223	92.84
210.442	53.93
210.661	6.83
210.879	12.97
211.098	103.08
211.316	55.98
211.535	107.18
211.753	-19.8
211.972	17.07
212.191	12.97
212.409	76.46
212.628	17.07
212.846	12.97
213.065	74.41
213.283	33.45
213.502	47.79
213.72	33.45
213.938	-25.94
214.157	27.31
214.375	55.98
214.594	-5.46
214.812	72.36
215.031	17.07
215.249	80.55
215.467	8.87
215.686	64.17
215.904	60.07
216.122	2.73
216.341	101.03
216.559	55.98
216.778	35.5
216.996	37.55
217.214	74.41
217.432	66.22
217.651	96.94
217.869	-27.99
218.087	64.17
218.306	-15.7
218.524	70.31
218.742	-13.65
218.96	-7.51
219.179	-95.57
219.397	43.69
219.615	51.88
219.833	53.93
220.051	19.11
220.27	64.17
220.488	8.87
220.706	47.79
220.924	41.64
221.142	92.84
221.36	2.73
221.578	82.6
221.796	33.45
222.015	12.97
222.233	33.45
222.451	4.78
222.669	15.02
222.887	23.21
223.105	2.73
223.323	47.79
223.541	-5.46
223.759	37.55
223.977	103.08
224.195	74.41
224.413	123.56
224.631	51.88
224.849	47.79
225.067	27.31
225.285	68.27
225.503	0.68
225.721	-15.7
225.939	10.92
226.157	72.36
226.375	117.42
226.592	43.69
226.81	17.07
227.028	45.74
227.246	66.22
227.464	23.21
227.682	58.03
227.9	-5.46
228.117	29.35
228.335	17.07
228.553	51.88
228.771	-30.04
228.989	43.69
229.206	58.03
229.424	6.83
229.642	10.92
229.86	35.5
230.077	31.4
230.295	33.45
230.513	117.42
230.731	35.5
230.948	37.55
231.166	29.35
231.384	25.26
231.601	45.74
231.819	98.99
232.037	-30.04
232.254	-46.42
232.472	41.64
232.689	62.12
232.907	-19.8
233.125	78.51
233.342	33.45
233.56	72.36
233.777	101.03
233.995	31.4
234.213	23.21
234.43	37.55
234.648	23.21
234.865	68.27
235.083	15.02
235.3	-30.04
235.518	107.18
235.735	53.93
235.953	53.93
236.17	70.31
236.388	0.68
236.605	35.5
236.822	-7.51
237.04	78.51
237.257	64.17
237.475	-3.41
237.692	78.51
237.909	53.93
238.127	84.65
238.344	129.7
238.562	80.55
238.779	35.5
238.996	17.07
239.214	53.93
239.431	39.59
239.648	62.12
239.865	86.7
240.083	39.59
240.3	21.16
240.517	86.7
240.735	41.64
240.952	92.84
241.169	51.88
241.386	-11.61
241.603	17.07
241.821	-19.8
242.038	12.97
242.255	41.64
242.472	17.07
242.689	45.74
242.907	64.17
243.124	15.02
243.341	55.98
243.558	35.5
243.775	92.84
243.992	10.92
244.209	47.79
244.426	47.79
244.643	23.21
244.86	-1.37
245.078	12.97
245.295	-60.76
245.512	45.74
245.729	0.68
245.946	27.31
246.163	47.79
246.38	58.03
246.597	66.22
246.814	101.03
247.031	55.98
247.248	58.03
247.464	27.31
247.681	76.46
247.898	0.68
248.115	80.55
248.332	70.31
248.549	10.92
248.766	43.69
248.983	31.4
249.2	47.79
249.417	6.83
249.633	19.11
249.85	49.83
250.067	43.69
250.284	55.98
250.501	101.03
250.717	25.26
250.934	27.31
251.151	27.31
251.368	47.79
251.585	62.12
251.801	23.21
252.018	4.78
252.235	17.07
252.451	-32.08
252.668	-7.51
252.885	76.46
253.102	41.64
253.318	-9.56
253.535	15.02
253.752	82.6
253.968	12.97
254.185	-60.76
254.401	29.35
254.618	78.51
254.835	8.87
255.051	39.59
255.268	35.5
255.484	88.75
255.701	-1.37
255.917	47.79
256.134	10.92
256.351	17.07
256.567	23.21
256.784	-23.89
257	70.31
257.217	31.4
257.433	84.65
257.65	60.07
257.866	76.46
258.082	60.07
258.299	31.4
258.515	39.59
258.732	-46.42
258.948	37.55
259.165	2.73
259.381	-13.65
259.597	45.74
259.814	53.93
260.03	-1.37
260.246	37.55
260.463	23.21
260.679	27.31
260.895	-23.89
261.112	45.74
261.328	45.74
261.544	72.36
261.761	88.75
261.977	23.21
262.193	51.88
262.409	72.36
262.626	55.98
262.842	74.41
263.058	4.78
263.274	27.31
263.49	68.27
263.707	53.93
263.923	33.45
264.139	25.26
264.355	33.45
264.571	92.84
264.787	60.07
265.004	35.5
265.22	53.93
265.436	-1.37
265.652	31.4
265.868	33.45
266.084	-9.56
266.3	-5.46
266.516	-30.04
266.732	8.87
266.948	29.35
267.164	-7.51
267.38	74.41
267.596	-48.47
267.812	129.7
268.028	133.8
268.244	-32.08
268.46	4.78
268.676	27.31
268.892	37.55
269.108	4.78
269.324	103.08
269.54	66.22
269.756	103.08
269.972	76.46
270.188	53.93
270.403	43.69
270.619	31.4
270.835	-34.13
271.051	115.37
271.267	21.16
271.483	103.08
271.698	21.16
271.914	17.07
272.13	6.83
272.346	-1.37
272.562	86.7
272.777	72.36
272.993	-25.94
273.209	53.93
273.425	-17.75
273.64	66.22
273.856	23.21
274.072	60.07
274.287	76.46
274.503	88.75
274.719	39.59
274.934	10.92
275.15	6.83
275.366	-1.37
275.581	60.07
275.797	41.64
276.012	51.88
276.228	-9.56
276.444	0.68
276.659	60.07
276.875	51.88
277.09	25.26
277.306	21.16
277.521	8.87
277.737	31.4
277.952	137.9
278.168	47.79
278.383	47.79
278.599	-19.8
278.814	25.26
279.03	29.35
279.245	35.5
279.461	74.41
279.676	68.27
279.892	-15.7
280.107	19.11
280.322	0.68
280.538	27.31
280.753	27.31
280.969	41.64
281.184	72.36
281.399	94.89
281.615	33.45
281.83	80.55
282.045	45.74
282.26	80.55
282.476	78.51
282.691	64.17
282.906	55.98
283.122	80.55
283.337	15.02
283.552	0.68
283.767	47.79
283.983	43.69
284.198	-23.89
284.413	27.31
284.628	66.22
284.843	41.64
285.058	80.55
285.274	35.5
285.489	-19.8
285.704	62.12
285.919	-15.7
286.134	64.17
286.349	60.07
286.564	55.98
286.779	39.59
286.995	70.31
287.21	0.68
287.425	-11.61
287.64	84.65
287.855	-1.37
288.07	-5.46
288.285	47.79
288.5	111.27
288.715	21.16
288.93	90.79
289.145	60.07
289.36	103.08
289.575	15.02
289.79	111.27
290.004	25.26
290.219	12.97
290.434	51.88
290.649	37.55
290.864	4.78
291.079	47.79
291.294	35.5
291.509	115.37
291.724	58.03
291.938	-9.56
292.153	29.35
292.368	15.02
292.583	53.93
292.798	41.64
293.012	17.07
293.227	29.35
293.442	37.55
293.657	76.46
293.871	53.93
294.086	-9.56
294.301	15.02
294.516	103.08
294.73	43.69
294.945	31.4
295.16	37.55
295.374	94.89
295.589	107.18
295.804	10.92
296.018	37.55
296.233	0.68
296.447	21.16
296.662	70.31
296.877	90.79
297.091	88.75
297.306	12.97
297.52	72.36
297.735	51.88
297.949	45.74
298.164	70.31
298.378	-9.56
298.593	-34.13
298.807	105.13
299.022	64.17
299.236	19.11
299.451	-11.61
299.665	-17.75
299.88	33.45
300.094	23.21
300.309	8.87
300.523	47.79
300.737	29.35
300.952	37.55
301.166	96.94
301.381	43.69
301.595	51.88
301.809	74.41
302.024	86.7
302.238	-17.75
302.452	37.55
302.667	-21.85
302.881	41.64
303.095	74.41
303.309	29.35
303.524	31.4
303.738	74.41
303.952	41.64
304.166	74.41
304.381	55.98
304.595	62.12
304.809	51.88
305.023	21.16
305.237	23.21
305.452	39.59
305.666	15.02
305.88	31.4
306.094	53.93
306.308	8.87
306.522	68.27
306.736	78.51
306.95	39.59
307.164	33.45
307.379	-13.65
307.593	101.03
307.807	111.27
308.021	23.21
308.235	113.32
308.449	-19.8
308.663	21.16
308.877	107.18
309.091	-13.65
309.305	103.08
309.519	17.07
309.733	68.27
309.947	15.02
310.161	6.83
310.374	88.75
310.588	39.59
310.802	64.17
311.016	47.79
311.23	98.99
311.444	-17.75
311.658	53.93
311.872	-7.51
312.085	47.79
312.299	35.5
312.513	88.75
312.727	58.03
312.941	-38.23
313.154	117.42
313.368	43.69
313.582	82.6
313.796	21.16
314.009	74.41
314.223	111.27
314.437	39.59
314.651	96.94
314.864	21.16
315.078	80.55
315.292	37.55
315.505	45.74
315.719	17.07
315.933	72.36
316.146	-3.41
316.36	45.74
316.573	29.35
316.787	-1.37
317.001	8.87
317.214	60.07
317.428	84.65
317.641	15.02
317.855	55.98
318.068	53.93
318.282	62.12
318.495	90.79
318.709	55.98
318.922	35.5
319.136	58.03
319.349	58.03
319.563	-1.37
319.776	47.79
319.99	121.51
320.203	72.36
320.417	80.55
320.63	84.65
320.843	84.65
321.057	105.13
321.27	31.4
321.483	62.12
321.697	88.75
321.91	70.31
322.124	41.64
322.337	119.46
322.55	25.26
322.763	2.73
322.977	-1.37
323.19	4.78
323.403	60.07
323.617	37.55
323.83	58.03
324.043	43.69
324.256	10.92
324.469	21.16
324.683	68.27
324.896	21.16
325.109	92.84
325.322	-21.85
325.535	80.55
325.748	88.75
325.962	25.26
326.175	-44.37
326.388	76.46
326.601	137.9
326.814	72.36
327.027	6.83
327.24	109.22
327.453	37.55
327.666	62.12
327.879	29.35
328.092	62.12
328.305	37.55
328.518	76.46
328.731	31.4
328.944	98.99
329.157	49.83
329.37	64.17
329.583	60.07
329.796	92.84
330.009	41.64
330.222	43.69
330.435	72.36
330.648	55.98
330.861	29.35
331.073	66.22
331.286	96.94
331.499	66.22
331.712	58.03
331.925	82.6
332.138	55.98
332.35	-9.56
332.563	-34.13
332.776	6.83
332.989	58.03
333.202	33.45
333.414	21.16
333.627	49.83
333.84	49.83
334.053	33.45
334.265	-58.71
334.478	68.27
334.691	47.79
334.903	19.11
335.116	72.36
335.329	70.31
335.541	76.46
335.754	60.07
335.966	107.18
336.179	29.35
336.392	55.98
336.604	29.35
336.817	76.46
337.029	74.41
337.242	72.36
337.454	12.97
337.667	47.79
337.88	58.03
338.092	92.84
338.305	37.55
338.517	62.12
338.729	92.84
338.942	41.64
339.154	-1.37
339.367	47.79
339.579	74.41
339.792	12.97
340.004	101.03
340.217	103.08
340.429	23.21
340.641	88.75
340.854	55.98
341.066	6.83
341.278	43.69
341.491	109.22
341.703	78.51
341.915	76.46
342.128	88.75
342.34	66.22
342.552	31.4
342.764	62.12
342.977	-1.37
343.189	43.69
343.401	47.79
343.613	4.78
343.826	35.5
344.038	31.4
344.25	43.69
344.462	25.26
344.674	88.75
344.886	90.79
345.099	23.21
345.311	84.65
345.523	29.35
345.735	-21.85
345.947	88.75
346.159	39.59
346.371	2.73
346.583	47.79
346.795	72.36
347.007	62.12
347.219	139.94
347.431	76.46
347.643	47.79
347.855	29.35
348.067	117.42
348.279	-17.75
348.491	86.7
348.703	68.27
348.915	72.36
349.127	29.35
349.339	74.41
349.551	58.03
349.763	70.31
349.975	55.98
350.187	58.03
350.399	64.17
350.61	25.26
350.822	49.83
351.034	60.07
351.246	-9.56
351.458	2.73
351.669	86.7
351.881	49.83
352.093	-9.56
352.305	131.75
352.517	90.79
352.728	17.07
352.94	37.55
353.152	111.27
353.363	92.84
353.575	80.55
353.787	94.89
353.999	64.17
354.21	53.93
354.422	55.98
354.633	-1.37
354.845	29.35
355.057	60.07
355.268	66.22
355.48	-21.85
355.692	113.32
355.903	23.21
356.115	51.88
356.326	41.64
356.538	70.31
356.749	113.32
356.961	45.74
357.172	121.51
357.384	84.65
357.595	125.61
357.807	-7.51
358.018	72.36
358.23	-7.51
358.441	101.03
358.653	6.83
358.864	51.88
359.075	-7.51
359.287	94.89
359.498	78.51
359.709	72.36
359.921	80.55
360.132	103.08
360.344	-21.85
360.555	-1.37
360.766	84.65
360.977	94.89
361.189	49.83
361.4	47.79
361.611	51.88
361.823	49.83
362.034	84.65
362.245	-13.65
362.456	27.31
362.667	70.31
362.879	53.93
363.09	31.4
363.301	51.88
363.512	60.07
363.723	90.79
363.935	19.11
364.146	41.64
364.357	37.55
364.568	121.51
364.779	58.03
364.99	23.21
365.201	82.6
365.412	72.36
365.623	64.17
365.834	49.83
366.045	64.17
366.256	84.65
366.467	115.37
366.678	47.79
366.889	121.51
367.1	6.83
367.311	39.59
367.522	27.31
367.733	103.08
367.944	49.83
368.155	58.03
368.366	78.51
368.577	103.08
368.788	80.55
368.999	58.03
369.209	86.7
369.42	172.71
369.631	53.93
369.842	60.07
370.053	131.75
370.264	62.12
370.474	37.55
370.685	62.12
370.896	107.18
371.107	137.9
371.317	70.31
371.528	43.69
371.739	58.03
371.95	15.02
372.16	127.66
372.371	-9.56
372.582	60.07
372.792	12.97
373.003	47.79
373.214	49.83
373.424	90.79
373.635	78.51
373.846	31.4
374.056	6.83
374.267	21.16
374.477	37.55
374.688	139.94
374.898	53.93
375.109	84.65
375.319	-5.46
375.53	35.5
375.74	96.94
375.951	86.7
376.161	47.79
376.372	33.45
376.582	68.27
376.793	96.94
377.003	-1.37
377.214	80.55
377.424	94.89
377.635	12.97
377.845	80.55
378.055	60.07
378.266	12.97
378.476	121.51
378.686	15.02
378.897	23.21
379.107	68.27
379.317	49.83
379.528	39.59
379.738	76.46
379.948	53.93
380.158	141.99
380.369	39.59
380.579	86.7
380.789	72.36
380.999	103.08
381.21	35.5
381.42	119.46
381.63	-42.32
381.84	137.9
382.05	19.11
382.261	74.41
382.471	43.69
382.681	37.55
382.891	58.03
383.101	76.46
383.311	53.93
383.521	51.88
383.731	88.75
383.941	43.69
384.151	86.7
384.361	78.51
384.571	53.93
384.781	37.55
384.991	162.47
385.201	31.4
385.411	103.08
385.621	88.75
385.831	6.83
386.041	43.69
386.251	139.94
386.461	98.99
386.671	47.79
386.881	82.6
387.091	82.6
387.301	90.79
387.511	10.92
387.72	58.03
387.93	66.22
388.14	107.18
388.35	62.12
388.56	92.84
388.769	139.94
388.979	72.36
389.189	76.46
389.399	103.08
389.609	96.94
389.818	82.6
390.028	68.27
390.238	41.64
390.447	29.35
390.657	96.94
390.867	4.78
391.076	125.61
391.286	105.13
391.496	107.18
391.705	80.55
391.915	86.7
392.125	111.27
392.334	51.88
392.544	74.41
392.753	139.94
392.963	103.08
393.172	25.26
393.382	119.46
393.591	113.32
393.801	70.31
394.01	219.82
394.22	62.12
394.429	19.11
394.639	160.42
394.848	115.37
395.058	168.62
395.267	166.57
395.477	135.85
395.686	88.75
395.895	137.9
396.105	150.18
396.314	111.27
396.524	72.36
396.733	76.46
396.942	96.94
397.152	107.18
397.361	141.99
397.57	170.66
397.78	41.64
397.989	113.32
398.198	156.33
398.407	68.27
398.617	115.37
398.826	66.22
399.035	129.7
399.244	154.28
399.453	121.51
399.663	72.36
399.872	115.37
400.081	137.9
400.29	162.47
400.499	125.61
400.708	123.56
400.917	31.4
401.127	41.64
401.336	25.26
401.545	129.7
401.754	148.14
401.963	172.71
402.172	158.38
402.381	264.87
402.59	172.71
402.799	139.94
403.008	101.03
403.217	139.94
403.426	205.48
403.635	90.79
403.844	109.22
404.053	152.23
404.262	141.99
404.471	205.48
404.68	164.52
404.888	211.62
405.097	172.71
405.306	187.05
405.515	150.18
405.724	193.19
405.933	275.11
406.142	207.53
406.35	234.15
406.559	135.85
406.768	201.38
406.977	238.25
407.185	215.72
407.394	168.62
407.603	195.24
407.812	236.2
408.02	293.54
408.229	256.68
408.438	332.45
408.646	199.34
408.855	283.3
409.064	217.77
409.272	348.84
409.481	309.93
409.69	316.07
409.898	352.93
410.107	338.6
410.315	328.36
410.524	359.08
410.733	338.6
410.941	352.93
411.15	350.89
411.358	297.64
411.567	484
411.775	400.04
411.984	383.65
412.192	475.81
412.401	522.91
412.609	547.49
412.818	512.67
413.026	541.35
413.234	567.97
413.443	633.5
413.651	619.17
413.86	629.41
414.068	711.33
414.276	727.71
414.485	647.84
414.693	676.51
414.901	768.67
415.11	740
415.318	783.01
415.526	797.34
415.734	850.59
415.943	840.35
416.151	926.36
416.359	889.5
416.567	1014.43
416.776	942.75
416.984	1043.1
417.192	1094.3
417.4	942.75
417.608	955.04
417.817	1129.11
418.025	1170.07
418.233	1299.09
418.441	1235.61
418.649	1295
418.857	1229.46
419.065	1389.21
419.273	1350.29
419.481	1485.46
419.689	1577.62
419.897	1600.15
420.105	1589.91
420.313	1548.95
420.521	1710.74
420.729	1729.17
420.937	1759.89
421.145	1837.71
421.353	2007.69
421.561	2032.27
421.769	2001.55
421.977	2105.99
422.185	2153.1
422.393	2314.89
422.601	2392.71
422.809	2431.62
423.017	2407.05
423.224	2427.53
423.432	2724.48
423.64	2656.9
423.848	2941.57
424.056	2781.82
424.263	2955.9
424.471	3082.88
424.679	3052.16
424.887	3197.56
425.094	3398.26
425.302	3334.78
425.51	3512.95
425.718	3533.43
425.925	3551.86
426.133	3797.62
426.341	4067.95
426.548	4151.92
426.756	4182.63
426.964	4295.27
427.171	4483.69
427.379	4483.69
427.586	4608.61
427.794	4921.95
428.001	4999.77
428.209	5229.15
428.417	5235.29
428.624	5538.39
428.832	5554.77
429.039	5366.36
429.247	5687.89
429.454	6060.62
429.662	6408.78
429.869	5911.12
430.076	6445.64
430.284	6181.45
430.491	6466.12
430.699	6720.07
430.906	6720.07
431.114	6879.81
431.321	7066.17
431.528	7492.15
431.736	7760.44
431.943	8301.1
432.15	8045.1
432.358	8028.72
432.565	8565.29
432.772	8489.51
432.979	8722.98
433.187	8958.5
433.394	9148.96
433.601	9814.55
433.808	9759.25
434.016	9839.12
434.223	10113.55
434.43	10723.85
434.637	10347.02
434.844	11045.38
435.052	11211.26
435.259	11057.67
435.466	11434.49
435.673	11180.54
435.88	11909.62
436.087	12673.51
436.294	12622.31
436.501	12317.17
436.708	12587.5
436.915	13126.11
437.122	13562.33
437.329	13670.87
437.537	13965.78
437.743	14275.02
437.95	13922.77
438.157	14846.41
438.364	15270.34
438.571	15153.6
438.778	15352.26
438.985	16886.18
439.192	16366
439.399	16648.62
439.606	16341.43
439.813	17340.83
440.02	18440.59
440.227	18194.84
440.433	17850.78
440.64	18370.96
440.847	18250.13
441.054	18839.95
441.261	19890.56
441.467	19667.33
441.674	20105.59
441.881	20988.27
442.088	20857.2
442.294	20965.74
442.501	21162.34
442.708	21442.92
442.914	22356.31
443.121	23400.77
443.328	22589.78
443.534	24619.31
443.741	23707.97
443.948	23454.02
444.154	25014.57
444.361	24912.17
444.568	25217.32
444.774	25168.17
444.981	25332.01
445.187	25927.97
445.394	27009.29
445.6	27048.21
445.807	29366.51
446.013	28512.5
446.22	28569.85
446.426	29884.64
446.633	30046.43
446.839	31174.86
447.046	30087.39
447.252	31570.12
447.459	31457.48
447.665	31258.83
447.871	33054.9
448.078	34244.77
448.284	32694.46
448.491	33710.25
448.697	35242.13
448.903	35422.35
449.11	35436.69
449.316	34824.34
449.522	35461.26
449.728	36329.6
449.935	36558.97
450.141	36847.74
450.347	37785.71
450.553	36112.52
450.76	37271.67
450.966	38209.64
451.172	37464.17
451.378	38221.92
451.584	37965.93
451.791	38608.99
451.997	38901.85
452.203	39057.49
452.409	39008.34
452.615	39014.49
452.821	37578.86
453.027	37455.98
453.233	39180.37
453.44	37834.86
453.646	38287.46
453.852	38410.34
454.058	38838.36
454.264	37791.85
454.47	38664.28
454.676	37785.71
454.882	38826.07
455.088	35545.23
455.294	35922.05
455.5	36716.67
455.705	36954.23
455.911	35586.19
456.117	34605.21
456.323	34259.1
456.529	32235.71
456.735	34093.22
456.941	33292.46
457.147	32291.01
457.352	31709.38
457.558	31011.03
457.764	31514.83
457.97	30830.8
458.176	30077.15
458.381	30060.77
458.587	28692.72
458.793	28541.18
458.999	27101.45
459.204	28965.1
459.41	28201.21
459.616	26503.45
459.821	26394.9
460.027	26413.34
460.233	25698.59
460.438	24604.98
460.644	24842.54
460.85	23871.81
461.055	23105.87
461.261	23277.9
461.466	21395.81
461.672	20869.48
461.878	22569.3
462.083	20871.53
462.289	20668.78
462.494	20095.35
462.7	19558.78
462.905	19069.32
463.111	19462.53
463.316	19794.3
463.522	18956.68
463.727	19274.12
463.932	19016.07
464.138	18885
464.343	19224.97
464.549	18307.48
464.754	19077.51
464.959	18878.86
465.165	18485.65
465.37	18129.3
465.575	17527.2
465.781	18334.1
465.986	18467.22
466.191	17437.09
466.397	17410.47
466.602	16286.13
466.807	17109.41
467.012	17213.86
467.218	16828.84
467.423	16808.36
467.628	17029.54
467.833	17576.35
468.038	17039.78
468.244	16409.01
468.449	17056.17
468.654	16562.61
468.859	16296.37
469.064	16325.04
469.269	15792.57
469.474	15780.28
469.679	16161.2
469.885	15729.08
470.09	15880.63
470.295	15679.93
470.5	15325.63
470.705	15606.2
470.91	15057.35
471.115	15094.21
471.32	15491.52
471.525	15110.6
471.73	14799.3
471.935	14899.66
472.139	14246.35
472.344	14504.4
472.549	14531.02
472.754	14193.11
472.959	13947.35
473.164	13658.59
473.369	13289.95
473.574	13949.4
473.778	13801.94
473.983	13562.33
474.188	13378.01
474.393	12798.44
474.598	13005.28
474.802	12921.32
475.007	12784.1
475.212	12661.23
475.417	12481
475.621	12362.22
475.826	12599.79
476.031	12161.52
476.235	11803.13
476.44	12216.82
476.645	11760.12
476.849	12028.4
477.054	11710.97
477.259	11463.16
477.463	11538.94
477.668	11155.97
477.872	11381.24
478.077	11223.55
478.282	10834.44
478.486	10832.39
478.691	10678.79
478.895	10621.45
479.1	10797.57
479.304	10795.53
479.509	10459.66
479.713	10398.22
479.918	10295.82
480.122	10097.17
480.326	10435.08
480.531	10279.44
480.735	10271.25
480.94	9962
481.144	10545.67
481.348	10029.59
481.553	10234.38
481.757	9718.29
481.961	10000.91
482.166	10316.3
482.37	10043.92
482.574	9894.42
482.778	9904.66
482.983	10043.92
483.187	9933.33
483.391	9900.56
483.595	9884.18
483.8	9888.28
484.004	10005.01
484.208	9832.98
484.412	9992.72
484.616	9910.8
484.821	9861.65
485.025	10021.39
485.229	9966.1
485.433	9886.23
485.637	9988.63
485.841	9863.7
486.045	9835.03
486.249	9898.52
486.453	9759.25
486.657	9775.64
486.861	9941.52
487.065	9708.05
487.269	9708.05
487.473	9552.41
487.677	9724.44
487.881	9978.39
488.085	10005.01
488.289	9968.15
488.493	9773.59
488.697	9789.97
488.901	9828.88
489.105	9845.27
489.309	9816.6
489.512	9871.89
489.716	9937.43
489.92	9751.06
490.124	9962
490.328	10105.36
490.531	9964.05
490.735	9990.67
490.939	10076.69
491.143	9988.63
491.346	10091.02
491.55	10363.4
491.754	10209.81
491.958	10232.33
492.161	10088.98
492.365	10291.73
492.569	10582.54
492.772	10142.22
492.976	10541.58
493.18	10496.52
493.383	10533.39
493.587	10629.64
493.79	10856.97
493.994	10574.35
494.197	10916.36
494.401	10699.27
494.605	10795.53
494.808	10992.13
495.012	10947.08
495.215	11000.32
495.419	11354.62
495.622	11235.84
495.825	11414.01
496.029	11346.43
496.232	11528.7
496.436	11588.09
496.639	12014.07
496.843	11760.12
497.046	12032.5
497.249	12055.03
497.453	12161.52
497.656	12321.26
497.859	12290.54
498.063	12464.62
498.266	12773.86
498.469	12663.27
498.673	12743.14
498.876	12956.13
499.079	13179.36
499.282	12952.04
499.485	13537.76
499.689	13277.66
499.892	13670.87
500.095	13593.05
500.298	13910.49
500.501	13965.78
500.705	14160.34
500.908	14453.2
501.111	14676.43
501.314	14701
501.517	14678.47
501.72	14993.86
501.923	14780.87
502.126	15518.14
502.329	15497.66
502.532	15602.11
502.735	15591.87
502.938	15976.89
503.141	16126.39
503.344	16310.71
503.547	16128.44
503.75	16476.59
503.953	16648.62
504.156	17047.97
504.359	17090.98
504.562	17191.33
504.765	17482.14
504.968	17547.68
505.17	18033.05
505.373	17904.03
505.576	18186.65
505.779	18473.36
505.982	18487.7
506.185	18940.3
506.387	18755.98
506.59	19026.31
506.793	19081.61
506.996	19118.47
507.198	20046.2
507.401	20248.95
507.604	20306.29
507.807	20545.91
508.009	20662.64
508.212	20664.69
508.415	21064.04
508.617	21195.11
508.82	21459.3
509.022	21408.1
509.225	21973.34
509.428	21932.38
509.63	22069.59
509.833	22274.39
510.035	22589.78
510.238	22669.65
510.44	22823.25
510.643	23206.22
510.845	23351.62
511.048	23396.68
511.25	23714.11
511.453	23777.6
511.655	24693.04
511.858	24363.32
512.06	24568.12
512.262	24860.98
512.465	25239.85
512.667	25139.5
512.87	25579.81
513.072	25596.2
513.274	26095.9
513.477	26388.76
513.679	26630.42
513.881	26685.72
514.084	26980.62
514.286	27021.58
514.488	27539.72
514.69	28086.53
514.893	28006.66
515.095	27949.31
515.297	28424.44
515.499	28438.78
515.701	28795.12
515.904	29188.33
516.106	28799.22
516.308	29581.54
516.51	30081.25
516.712	29890.79
516.914	30460.12
517.116	30871.76
517.318	30673.11
517.52	31260.88
517.722	30988.5
517.925	31441.1
518.127	31953.09
518.329	31826.12
518.531	32133.31
518.733	32520.38
518.935	32923.83
519.136	33126.58
519.338	33478.83
519.54	33200.3
519.742	33595.56
519.944	33691.82
520.146	34605.21
520.348	34642.07
520.55	34652.31
520.752	35229.84
520.954	35446.93
521.155	35291.28
521.357	35578
521.559	35782.79
521.761	36335.74
521.963	36098.18
522.164	36831.35
522.366	36829.3
522.568	36962.42
522.77	37267.57
522.971	37556.33
523.173	37519.47
523.375	37916.78
523.576	38080.61
523.778	38170.72
523.98	38557.79
524.181	38903.9
524.383	38512.74
524.584	39407.7
524.786	39333.97
524.988	39268.44
525.189	39432.27
525.391	39985.22
525.592	39620.69
525.794	40345.67
525.995	40200.26
526.197	40378.43
526.398	40269.89
526.6	40695.87
526.801	40620.09
527.003	40677.44
527.204	40861.76
527.406	41435.19
527.607	41488.43
527.808	41877.55
528.01	41062.46
528.211	41613.36
528.412	42500.13
528.614	41975.85
528.815	42221.61
529.016	42684.45
529.218	42037.29
529.419	42661.92
529.62	42115.11
529.822	42485.79
530.023	42608.67
530.224	42541.09
530.425	42721.31
530.626	42545.19
530.828	42420.26
531.029	43399.19
531.23	42795.04
531.431	43106.33
531.632	43147.29
531.833	43280.41
532.035	42891.29
532.236	43077.66
532.437	43722.77
532.638	43393.04
532.839	43130.9
533.04	43655.18
533.241	42696.74
533.442	43728.91
533.643	43544.59
533.844	43730.96
534.045	43659.28
534.246	43276.31
534.447	43708.43
534.648	43343.89
534.849	43499.54
535.05	43485.2
535.251	43612.18
535.451	43253.78
535.652	43517.97
535.853	43446.29
536.054	43866.13
536.255	44042.25
536.456	43147.29
536.657	43991.05
536.857	43708.43
537.058	43728.91
537.259	44156.94
537.46	43929.61
537.66	43778.06
537.861	44072.97
538.062	43540.5
538.263	43888.65
538.463	43517.97
538.664	43403.28
538.865	43737.1
539.065	43638.8
539.266	43216.92
539.466	44384.26
539.667	43061.27
539.868	44359.69
540.068	43577.36
540.269	43794.45
540.469	43825.17
540.67	43337.75
540.87	43503.63
541.071	43560.98
541.271	43376.66
541.472	43546.64
541.672	43472.92
541.873	43728.91
542.073	42805.28
542.274	43702.29
542.474	43659.28
542.675	43384.85
542.875	43419.67
543.075	43509.78
543.276	43024.41
543.476	43757.58
543.676	43350.04
543.877	43294.74
544.077	43128.86
544.277	43622.42
544.478	43526.16
544.678	43757.58
544.878	43454.48
545.078	43243.54
545.279	43386.9
545.479	43114.52
545.679	43335.7
545.879	43239.45
546.079	43776.01
546.28	42958.88
546.48	42903.58
546.68	43141.14
546.88	43319.32
547.08	43051.03
547.28	43329.56
547.48	42762.27
547.68	43280.41
547.88	42985.5
548.081	43315.22
548.281	43100.18
548.481	42659.87
548.681	43718.67
548.881	43149.34
549.081	42868.76
549.28	42928.16
549.48	43337.75
549.68	42612.77
549.88	43841.55
550.08	42782.75
550.28	42745.89
550.48	42901.53
550.68	43216.92
550.88	43067.42
551.08	42962.97
551.279	43122.71
551.479	42752.03
551.679	43135
551.879	42704.93
552.079	42928.16
552.278	42543.14
552.478	43036.7
552.678	42977.31
552.878	42893.34
553.077	43026.46
553.277	42321.96
553.477	43241.49
553.676	42524.71
553.876	42764.32
554.076	42573.86
554.275	42782.75
554.475	42446.88
554.674	42602.53
554.874	42657.82
555.074	42346.53
555.273	42663.97
555.473	42582.05
555.672	42176.55
555.872	42438.69
556.071	42614.82
556.271	42453.03
556.47	42330.15
556.67	41793.58
556.869	41830.44
557.068	42250.28
557.268	41981.99
557.467	42387.49
557.667	42287.14
557.866	41828.4
558.065	41644.08
558.265	41631.79
558.464	41928.75
558.663	41934.89
558.863	41404.47
559.062	42092.58
559.261	41189.43
559.461	41898.03
559.66	41576.5
559.859	41390.13
560.058	40912.95
560.258	41476.15
560.457	41019.45
560.656	41484.34
560.855	40888.38
561.054	41490.48
561.253	40558.66
561.453	41031.74
561.652	41484.34
561.851	41203.77
562.05	40558.66
562.249	41009.21
562.448	41011.26
562.647	40871.99
562.846	40941.63
563.045	40708.16
563.244	40273.99
563.443	40990.78
563.642	39800.91
563.841	40738.88
564.04	39895.11
564.239	40507.46
564.438	39964.74
564.637	40294.47
564.836	39954.5
565.035	39858.25
565.234	40157.25
565.432	39659.6
565.631	39784.52
565.83	39481.42
566.029	39344.21
566.228	39409.75
566.427	39411.79
566.625	39053.4
566.824	39151.7
567.023	39749.71
567.222	38404.19
567.42	39116.89
567.619	38889.56
567.818	38748.25
568.016	38889.56
568.215	38862.94
568.414	38750.3
568.612	38905.94
568.811	38264.93
569.01	38586.46
569.208	38037.61
569.407	38670.43
569.605	37996.65
569.804	38772.83
570.002	37791.85
570.201	38367.33
570.4	37761.13
570.598	37707.88
570.797	38162.53
570.995	37587.05
571.193	36806.78
571.392	37888.1
571.59	37392.5
571.789	37290.1
571.987	37146.74
572.186	37193.84
572.384	36763.77
572.582	36872.31
572.781	36978.81
572.979	36642.94
573.177	36939.89
573.376	36671.61
573.574	36364.42
573.772	36745.34
573.971	36276.35
574.169	36063.36
574.367	36372.61
574.565	36374.66
574.763	35774.6
574.962	36165.76
575.16	35625.1
575.358	35948.68
575.556	35514.51
575.754	36081.8
575.952	35422.35
576.151	36020.36
576.349	35201.17
576.547	35172.5
576.745	35553.42
576.943	35534.99
577.141	35158.16
577.339	35045.52
577.537	35240.08
577.735	35055.76
577.933	34461.85
578.131	34785.43
578.329	34601.11
578.527	34412.7
578.725	34541.72
578.923	34650.27
579.121	34578.59
579.319	34412.7
579.516	34369.69
579.714	34517.15
579.912	34042.02
580.11	33810.6
580.308	33898.66
580.506	33929.38
580.704	33382.57
580.901	33468.59
581.099	33929.38
581.297	33347.76
581.495	33429.68
581.692	33839.27
581.89	33056.95
582.088	33284.27
582.285	33228.98
582.483	33069.23
582.681	33206.45
582.878	32682.17
583.076	32428.22
583.274	32829.62
583.471	32452.8
583.669	32538.81
583.866	32604.35
584.064	32618.68
584.262	32008.39
584.459	32319.68
584.657	32032.96
584.854	32426.17
585.052	31910.08
585.249	32211.14
585.447	32270.53
585.644	31793.35
585.841	31981.76
586.039	31912.13
586.236	31629.51
586.434	31131.86
586.631	30910.67
586.828	31568.07
587.026	31353.04
587.223	31119.57
587.42	30933.2
587.618	31269.07
587.815	30865.62
588.012	30658.77
588.21	30687.45
588.407	30736.6
588.604	30365.92
588.801	30148.83
588.999	30529.75
589.196	30197.98
589.393	30396.63
589.59	30214.37
589.787	29948.13
589.984	29729
590.182	29593.83
590.379	30075.1
590.576	29597.93
590.773	29587.69
590.97	29552.87
591.167	29839.59
591.364	29030.64
591.561	29262.06
591.758	28997.87
591.955	29350.12
592.152	29018.35
592.349	28649.72
592.546	29055.22
592.743	28866.8
592.94	28473.59
593.137	28604.66
593.334	28918
593.531	28459.26
593.727	28774.64
593.924	28563.7
594.121	28254.46
594.318	28317.95
594.515	27961.6
594.712	28082.43
594.908	27894.02
595.105	28160.25
595.302	27509
595.499	27896.06
595.696	27842.82
595.892	27533.57
596.089	27705.6
596.286	27599.11
596.482	27384.07
596.679	27558.15
596.876	27359.5
597.072	27058.45
597.269	27201.8
597.466	26958.1
597.662	26990.86
597.859	27113.74
598.055	26843.41
598.252	26566.93
598.448	26712.34
598.645	26880.27
598.841	26505.49
599.038	26382.62
599.234	26482.97
599.431	25878.82
599.627	26009.89
599.824	26274.07
600.02	26081.56
600.217	26259.74
600.413	26024.22
600.609	25508.13
600.806	25575.72
601.002	25764.13
601.198	25387.3
601.395	25704.74
601.591	25350.44
601.787	25350.44
601.984	25243.95
602.18	25352.49
602.376	25202.99
602.572	25245.99
602.769	25055.53
602.965	24428.85
603.161	24625.46
603.357	24895.79
603.553	24766.77
603.75	24731.95
603.946	24179
604.142	24293.69
604.338	24176.95
604.534	24445.24
604.73	24189.24
604.926	24297.78
605.122	24326.46
605.318	23804.22
605.514	24095.03
605.71	24121.66
605.906	23710.02
606.102	23955.77
606.298	23773.5
606.494	23650.63
606.69	23521.6
606.886	23728.45
607.082	23529.8
607.278	23509.32
607.474	22913.36
607.67	23601.47
607.866	22952.27
608.062	23368.01
608.257	23103.82
608.453	23308.61
608.649	22964.56
608.845	22798.67
609.041	22962.51
609.236	22980.94
609.432	22753.62
609.628	22884.69
609.824	22882.64
610.019	22862.16
610.215	22804.81
610.411	22626.64
610.606	22610.26
610.802	22722.9
610.998	22649.17
611.193	22481.24
611.389	22229.34
611.584	22616.4
611.78	22217.05
611.976	22280.53
612.171	22288.73
612.367	22307.16
612.562	22329.69
612.758	21778.78
612.953	22055.26
613.149	22370.65
613.344	22145.37
613.539	22407.51
613.735	21913.95
613.93	22085.98
614.126	21793.12
614.321	21946.72
614.517	22184.28
614.712	21670.24
614.907	21604.7
615.103	21985.63
615.298	21551.46
615.493	21518.69
615.688	21694.82
615.884	21889.37
616.079	21281.13
616.274	21637.47
616.47	21510.5
616.665	21395.81
616.86	21442.92
617.055	21035.37
617.25	21305.7
617.445	21434.72
617.641	20873.58
617.836	20781.42
618.031	20552.05
618.226	21272.93
618.421	20953.45
618.616	21111.14
618.811	20605.3
619.006	21203.3
619.201	20808.05
619.396	20593.01
619.591	20164.98
619.786	20363.64
619.981	20171.13
620.176	20418.93
620.371	19898.75
620.566	20164.98
620.761	19954.04
620.956	20468.08
621.151	19798.4
621.346	19958.14
621.541	19339.65
621.735	19749.25
621.93	19358.08
622.125	19450.24
622.32	19300.74
622.515	19298.69
622.709	19132.81
622.904	19261.83
623.099	18897.29
623.294	19190.15
623.488	18893.19
623.683	18882.95
623.878	18428.31
624.072	18678.16
624.267	18401.68
624.462	18243.99
624.656	18094.49
624.851	18041.24
625.046	18067.86
625.24	18057.62
625.435	17656.22
625.629	17508.77
625.824	17486.24
626.018	17551.77
626.213	17439.14
626.407	17402.27
626.602	17082.79
626.796	17471.9
626.991	17140.13
627.185	17084.84
627.38	17050.02
627.574	16886.18
627.768	16785.83
627.963	16710.06
628.157	16564.65
628.352	16589.23
628.546	16259.51
628.74	16363.95
628.935	16286.13
629.129	16402.86
629.323	15749.56
629.517	15784.38
629.712	15937.98
629.906	15774.14
630.1	15604.16
630.294	15651.26
630.489	15264.19
630.683	15630.78
630.877	15090.12
631.071	15245.76
631.265	15186.37
631.459	15047.11
631.653	14963.14
631.848	15196.61
632.042	15006.15
632.236	14768.59
632.43	14846.41
632.624	14741.96
632.818	14586.32
633.012	14617.04
633.206	14586.32
633.4	14502.35
633.594	14365.14
633.788	14315.98
633.982	14240.21
634.176	13988.31
634.369	14148.05
634.563	13726.17
634.757	13828.57
634.951	14033.36
635.145	13779.42
635.339	13941.21
635.533	13533.66
635.726	13513.18
635.92	13304.29
636.114	13623.77
636.308	13257.18
636.501	13347.3
636.695	13326.82
636.889	13148.64
637.083	13158.88
637.276	13132.26
637.47	13074.92
637.664	12737
637.857	13154.79
638.051	12820.97
638.244	12550.64
638.438	12759.53
638.632	12538.35
638.825	12288.5
639.019	12435.95
639.212	12458.48
639.406	12362.22
639.599	12321.26
639.793	12067.31
639.986	11928.05
640.18	11975.16
640.373	12003.83
640.567	11995.64
640.76	11774.45
640.954	11942.39
641.147	11692.54
641.34	11790.84
641.534	11645.43
641.727	11512.32
641.92	11508.22
642.114	11332.09
642.307	11477.5
642.5	11371.01
642.694	11074.05
642.887	10996.23
643.08	11278.85
643.273	11047.43
643.467	11123.2
643.66	11067.91
643.853	10936.84
644.046	10693.13
644.239	10818.05
644.432	10662.41
644.626	10564.11
644.819	10605.06
645.012	10709.51
645.205	10426.89
645.398	10379.79
645.591	10496.52
645.784	10385.93
645.977	10267.15
646.17	10297.87
646.363	9980.43
646.556	10160.66
646.749	10156.56
646.942	10191.38
647.135	10113.55
647.328	10095.12
647.521	9906.71
647.714	9792.02
647.907	9806.36
648.099	9656.86
648.292	9726.49
648.485	9634.33
648.678	9800.21
648.871	9607.7
649.064	9536.03
649.256	9654.81
649.449	9435.67
649.642	9267.74
649.835	9230.88
650.027	9224.73
650.22	9126.43
650.413	9146.91
650.605	9216.54
650.798	9079.33
650.991	8944.16
651.183	9081.38
651.376	9050.66
651.568	8933.92
651.761	8948.26
651.954	8784.42
652.146	8878.63
652.339	8671.78
652.531	8692.26
652.724	8741.41
652.916	8387.11
653.109	8536.62
653.301	8434.22
653.494	8497.7
653.686	8383.02
653.879	8553
654.071	8280.62
654.263	8307.24
654.456	8356.4
654.648	8256.04
654.84	8274.48
655.033	8045.1
655.225	8118.83
655.417	8194.61
655.61	8038.96
655.802	7903.79
655.994	7934.51
656.186	8182.32
656.379	7838.26
656.571	7840.31
656.763	7731.76
656.955	7854.64
657.148	7688.76
657.34	7699
657.532	7662.13
657.724	7475.77
657.916	7416.38
658.108	7635.51
658.3	7252.54
658.492	7332.41
658.684	7346.75
658.876	7301.69
659.068	7359.03
659.26	7144
659.452	7307.84
659.644	7103.04
659.836	6992.45
660.028	7098.94
660.22	7078.46
660.412	7070.27
660.604	6883.91
660.796	6904.39
660.988	6847.04
661.18	6879.81
661.372	6849.09
661.563	6781.51
661.755	6806.08
661.947	6787.65
662.139	6740.55
662.331	6568.52
662.522	6613.57
662.714	6724.16
662.906	6619.72
663.097	6703.68
663.289	6453.83
663.481	6333
663.673	6404.68
663.864	6376.01
664.056	6396.49
664.247	6214.22
664.439	6378.06
664.631	6445.64
664.822	6171.21
665.014	6199.88
665.205	6251.08
665.397	5968.46
665.588	6195.79
665.78	6072.91
665.971	6187.6
666.163	6099.53
666.354	5986.9
666.546	5902.93
666.737	5829.2
666.929	5945.94
667.12	5921.36
667.311	5872.21
667.503	5628.5
667.694	5708.37
667.885	5835.35
668.077	5714.52
668.268	5653.08
668.459	5620.31
668.651	5780.05
668.842	5718.61
669.033	5511.77
669.224	5452.38
669.416	5683.8
669.607	5630.55
669.798	5538.39
669.989	5560.92
670.18	5526.1
670.371	5587.54
670.563	5425.75
670.754	5356.12
670.945	5200.48
671.136	5429.85
671.327	5372.5
671.518	5354.07
671.709	5237.34
671.9	5360.22
672.091	5309.02
672.282	5180
672.473	5098.08
672.664	5122.65
672.855	5134.94
673.046	5216.86
673.237	5134.94
673.428	5073.5
673.619	4907.62
673.809	4981.34
674	5036.64
674.191	4954.72
674.382	4977.25
674.573	5018.21
674.764	5028.45
674.954	4989.53
675.145	4901.47
675.336	4958.81
675.527	4899.42
675.717	5005.92
675.908	4823.65
676.099	4911.71
676.289	4729.44
676.48	4780.64
676.671	4780.64
676.861	4721.25
677.052	4790.88
677.243	4684.39
677.433	4739.68
677.624	4686.44
677.814	4766.31
678.005	4708.96
678.195	4708.96
678.386	4684.39
678.576	4665.96
678.767	4661.86
678.957	4581.99
679.148	4557.41
679.338	4532.84
679.529	4629.09
679.719	4455.01
679.909	4401.77
680.1	4469.35
680.29	4430.44
680.481	4446.82
680.671	4393.58
680.861	4420.2
681.052	4455.01
681.242	4432.49
681.432	4463.21
681.622	4448.87
681.813	4289.13
682.003	4473.45
682.193	4303.47
682.383	4409.96
682.573	4385.38
682.764	4223.59
682.954	4338.28
683.144	4239.98
683.334	4319.85
683.524	4282.99
683.714	4321.9
683.904	4264.55
684.094	4362.86
684.284	4221.55
684.474	4127.34
684.664	4272.75
684.854	4135.53
685.044	4143.72
685.234	4082.28
685.424	4170.35
685.614	4139.63
685.804	4012.65
685.994	4113
686.184	4186.73
686.374	4092.52
686.564	3988.08
686.753	4051.56
686.943	3902.06
687.133	4106.86
687.323	3889.78
687.513	3869.3
687.702	4049.52
687.892	3887.73
688.082	3953.26
688.272	3955.31
688.461	3854.96
688.651	3881.58
688.841	3828.34
689.03	3914.35
689.22	3758.71
689.41	3873.39
689.599	3658.35
689.789	3766.9
689.979	3723.89
690.168	3596.92
690.358	3658.35
690.547	3596.92
690.737	3666.55
690.926	3631.73
691.116	3492.47
691.305	3660.4
691.495	3596.92
691.684	3490.42
691.874	3537.52
692.063	3551.86
692.252	3515
692.442	3596.92
692.631	3443.32
692.82	3459.7
693.01	3428.98
693.199	3379.83
693.388	3416.69
693.578	3398.26
693.767	3392.12
693.956	3385.98
694.146	3326.58
694.335	3357.3
694.524	3332.73
694.713	3308.15
694.902	3160.7
695.092	3215.99
695.281	3226.23
695.47	3197.56
695.659	3109.5
695.848	3187.32
696.037	3168.89
696.226	3220.09
696.415	3185.27
696.604	3191.42
696.793	3193.47
696.982	3123.84
697.171	3160.7
697.36	3252.86
697.549	3101.31
697.738	3041.92
697.927	3009.15
698.116	3107.45
698.305	3058.3
698.494	3113.6
698.683	3142.27
698.872	2906.75
699.061	3025.53
699.25	3011.2
699.438	2988.67
699.627	2939.52
699.816	3095.16
700.005	3015.29
700.193	2953.85
700.382	3076.73
700.571	2992.77
700.76	2906.75
700.948	3013.24
701.137	2960
701.326	2912.89
701.514	2851.46
701.703	3031.68
701.892	2923.13
702.08	3009.15
702.269	2910.85
702.457	2929.28
702.646	2974.33
702.834	2820.74
703.023	2908.8
703.212	2953.85
703.4	3050.11
703.589	2841.22
703.777	2951.81
703.965	2871.93
704.154	2882.17
704.342	2785.92
704.531	2857.6
704.719	2982.53
704.907	2835.07
705.096	2904.7
705.284	2931.33
705.472	2826.88
705.661	2814.59
705.849	2888.32
706.037	2855.55
706.226	2779.78
706.414	2749.06
706.602	2845.31
706.79	2890.37
706.979	2771.58
707.167	2863.74
707.355	2687.62
707.543	2820.74
707.731	2761.34
707.919	2867.84
708.107	2749.06
708.296	2798.21
708.484	2753.15
708.672	2802.3
708.86	2759.3
709.048	2880.13
709.236	2675.33
709.424	2837.12
709.612	2826.88
709.8	2757.25
709.988	2873.98
710.176	2771.58
710.364	2736.77
710.551	2767.49
710.739	2716.29
710.927	2892.41
711.115	2781.82
711.303	2800.26
711.491	2658.95
711.679	2699.91
711.866	2802.3
712.054	2775.68
712.242	2685.57
712.43	2802.3
712.617	2697.86
712.805	2681.47
712.993	2646.66
713.181	2716.29
713.368	2736.77
713.556	2663.04
713.744	2617.99
713.931	2839.17
714.119	2667.14
714.306	2724.48
714.494	2673.28
714.682	2691.71
714.869	2701.95
715.057	2714.24
715.244	2669.19
715.432	2769.54
715.619	2804.35
715.807	2771.58
715.994	2800.26
716.182	2658.95
716.369	2658.95
716.556	2730.62
716.744	2695.81
716.931	2706.05
717.119	2712.19
717.306	2660.99
717.493	2531.97
717.681	2681.47
717.868	2577.03
718.055	2806.4
718.242	2679.43
718.43	2673.28
718.617	2712.19
718.804	2660.99
718.991	2699.91
719.179	2632.32
719.366	2665.09
719.553	2607.75
719.74	2695.81
719.927	2566.79
720.114	2710.15
720.301	2624.13
720.488	2572.93
720.676	2597.51
720.863	2708.1
721.05	2642.56
721.237	2724.48
721.424	2636.42
721.611	2622.08
721.798	2624.13
721.985	2568.84
722.172	2556.55
722.358	2660.99
722.545	2607.75
722.732	2687.62
722.919	2697.86
723.106	2640.51
723.293	2646.66
723.48	2613.89
723.667	2622.08
723.853	2654.85
724.04	2685.57
724.227	2689.67
724.414	2570.88
724.6	2658.95
724.787	2546.31
724.974	2638.47
725.161	2568.84
725.347	2538.12
725.534	2650.75
725.72	2609.79
725.907	2574.98
726.094	2663.04
726.28	2613.89
726.467	2622.08
726.653	2728.58
726.84	2708.1
727.027	2701.95
727.213	2546.31
727.4	2620.03
727.586	2611.84
727.773	2650.75
727.959	2638.47
728.145	2624.13
728.332	2654.85
728.518	2601.6
728.705	2630.27
728.891	2536.07
729.077	2636.42
729.264	2636.42
729.45	2595.46
729.636	2744.96
729.823	2687.62
730.009	2577.03
730.195	2603.65
730.382	2804.35
730.568	2593.41
730.754	2640.51
730.94	2546.31
731.126	2712.19
731.313	2566.79
731.499	2644.61
731.685	2796.16
731.871	2689.67
732.057	2722.43
732.243	2706.05
732.429	2577.03
732.615	2597.51
732.801	2638.47
732.987	2622.08
733.173	2644.61
733.359	2620.03
733.545	2605.7
733.731	2632.32
733.917	2728.58
734.103	2656.9
734.289	2677.38
734.475	2669.19
734.661	2677.38
734.847	2697.86
735.033	2585.22
735.219	2574.98
735.404	2675.33
735.59	2626.18
735.776	2577.03
735.962	2560.64
736.148	2609.79
736.333	2560.64
736.519	2675.33
736.705	2607.75
736.89	2620.03
737.076	2585.22
737.262	2609.79
737.447	2546.31
737.633	2628.23
737.819	2511.49
738.004	2591.36
738.19	2652.8
738.375	2634.37
738.561	2624.13
738.747	2562.69
738.932	2448.01
739.118	2529.92
739.303	2679.43
739.489	2579.08
739.674	2595.46
739.859	2654.85
740.045	2462.34
740.23	2542.21
740.416	2574.98
740.601	2501.25
740.786	2536.07
740.972	2468.48
741.157	2601.6
741.342	2521.73
741.528	2585.22
741.713	2515.59
741.898	2413.19
742.084	2484.87
742.269	2439.81
742.454	2503.3
742.639	2550.4
742.824	2337.41
743.01	2429.57
743.195	2517.64
743.38	2499.2
743.565	2464.39
743.75	2425.48
743.935	2366.09
744.12	2413.19
744.305	2429.57
744.49	2384.52
744.675	2437.77
744.86	2327.18
745.045	2308.74
745.23	2290.31
745.415	2341.51
745.6	2353.8
745.785	2269.83
745.97	2304.65
746.155	2321.03
746.34	2312.84
746.525	2392.71
746.71	2275.98
746.895	2157.19
747.079	2284.17
747.264	2224.78
747.449	2259.59
747.634	2132.62
747.819	2232.97
748.003	2124.43
748.188	2134.67
748.373	2200.2
748.557	2095.75
748.742	2093.71
748.927	2040.46
749.111	2153.1
749.296	2128.52
749.481	2114.19
749.665	2126.47
749.85	2005.64
750.034	2085.51
750.219	2042.51
750.404	2073.23
750.588	2009.74
750.773	1995.4
750.957	2044.56
751.141	2052.75
751.326	1940.11
751.51	1872.53
751.695	1976.97
751.879	1845.9
752.064	2011.79
752.248	1800.85
752.432	1872.53
752.617	1899.15
752.801	1858.19
752.985	1874.57
753.17	1809.04
753.354	1907.34
753.538	1876.62
753.722	1796.75
753.907	1751.7
754.091	1763.98
754.275	1802.9
754.459	1755.79
754.643	1706.64
754.828	1651.35
755.012	1665.68
755.196	1665.68
755.38	1823.37
755.564	1526.42
755.748	1671.83
755.932	1716.88
756.116	1626.77
756.3	1632.91
756.484	1569.43
756.668	1620.63
756.852	1610.39
757.036	1559.19
757.22	1575.57
757.404	1591.95
757.588	1514.13
757.772	1610.39
757.956	1532.56
758.14	1534.61
758.323	1446.55
758.507	1489.56
758.691	1520.28
758.875	1565.33
759.059	1518.23
759.242	1458.84
759.426	1454.74
759.61	1471.12
759.794	1528.47
759.977	1514.13
760.161	1428.12
760.345	1485.46
760.528	1503.89
760.712	1419.92
760.895	1350.29
761.079	1438.36
761.263	1354.39
761.446	1356.44
761.63	1381.01
761.813	1333.91
761.997	1362.58
762.18	1348.25
762.364	1315.48
762.547	1282.71
762.731	1348.25
762.914	1215.13
763.098	1260.18
763.281	1319.57
763.464	1327.77
763.648	1307.29
763.831	1239.7
764.015	1262.23
764.198	1223.32
764.381	1370.77
764.564	1282.71
764.748	1188.5
764.931	1305.24
765.114	1239.7
765.297	1208.98
765.481	1272.47
765.664	1200.79
765.847	1194.65
766.03	1231.51
766.213	1194.65
766.397	1172.12
766.58	1184.41
766.763	1182.36
766.946	1112.73
767.129	1186.46
767.312	1161.88
767.495	1208.98
767.678	1184.41
767.861	1157.79
768.044	1147.55
768.227	1149.59
768.41	1172.12
768.593	1178.26
768.776	1053.34
768.959	1122.97
769.142	1125.02
769.324	1170.07
769.507	1131.16
769.69	1049.24
769.873	1055.39
770.056	1065.63
770.239	1065.63
770.421	1129.11
770.604	1026.71
770.787	1147.55
770.97	1043.1
771.152	1077.91
771.335	1075.87
771.518	957.08
771.7	1061.53
771.883	1036.95
772.066	1002.14
772.248	998.04
772.431	1002.14
772.613	1082.01
772.796	1000.09
772.978	1032.86
773.161	1047.19
773.343	1041.05
773.526	955.04
773.708	840.35
773.891	846.49
774.073	967.32
774.256	852.64
774.438	1053.34
774.621	918.17
774.803	965.28
774.985	924.32
775.168	899.74
775.35	967.32
775.532	924.32
775.715	905.88
775.897	914.08
776.079	850.59
776.261	883.36
776.444	852.64
776.626	871.07
776.808	840.35
776.99	842.4
777.173	844.45
777.355	862.88
777.537	881.31
777.719	854.69
777.901	813.73
778.083	737.95
778.265	799.39
778.447	848.54
778.629	744.1
778.811	932.51
778.993	795.29
779.175	783.01
779.357	705.18
779.539	797.34
779.721	799.39
779.903	746.14
780.085	793.25
780.267	680.61
780.449	754.34
780.631	764.58
780.812	744.1
780.994	703.14
781.176	721.57
781.358	717.47
781.54	807.58
781.721	672.42
781.903	678.56
782.085	596.64
782.267	647.84
782.448	604.83
782.63	723.62
782.812	742.05
782.993	674.46
783.175	719.52
783.357	557.73
783.538	608.93
783.72	588.45
783.901	553.63
784.083	633.5
784.264	586.4
784.446	584.35
784.627	686.75
784.809	578.21
784.99	551.59
785.172	606.88
785.353	664.22
785.535	504.48
785.716	647.84
785.897	565.92
786.079	494.24
786.26	610.98
786.441	629.41
786.623	494.24
786.804	549.54
786.985	539.3
787.167	484
787.348	473.76
787.529	541.35
787.71	492.2
787.891	514.72
788.073	441
788.254	426.66
788.435	531.11
788.616	561.83
788.797	516.77
788.978	469.67
789.159	426.66
789.34	490.15
789.522	506.53
789.703	406.18
789.884	484
790.065	477.86
790.246	477.86
790.427	455.33
790.607	484
790.788	389.8
790.969	459.43
791.15	469.67
791.331	479.91
791.512	443.04
791.693	428.71
791.874	397.99
792.054	524.96
792.235	463.52
792.416	402.08
792.597	477.86
792.778	430.76
792.958	432.8
793.139	391.84
793.32	455.33
793.5	397.99
793.681	422.56
793.862	354.98
794.042	350.89
794.223	330.41
794.404	404.13
794.584	303.78
794.765	387.75
794.945	342.69
795.126	383.65
795.306	428.71
795.487	393.89
795.667	404.13
795.848	400.04
796.028	395.94
796.209	389.8
796.389	365.22
796.57	352.93
796.75	381.6
796.93	412.32
797.111	391.84
797.291	397.99
797.471	412.32
797.652	352.93
797.832	400.04
798.012	391.84
798.192	359.08
798.373	283.3
798.553	371.37
798.733	350.89
798.913	277.16
799.093	318.12
799.274	330.41
799.454	309.93
799.634	391.84
799.814	424.61
799.994	324.26
800.174	426.66
800.354	277.16
800.534	309.93
800.714	305.83
800.894	244.39
801.074	307.88
801.254	258.73
801.434	297.64
801.614	285.35
801.794	301.73
801.974	717.47
802.154	273.06
802.334	281.25
802.514	281.25
802.693	305.83
802.873	213.67
803.053	322.21
803.233	301.73
803.413	283.3
803.592	301.73
803.772	293.54
803.952	277.16
804.131	248.49
804.311	264.87
804.491	330.41
804.67	234.15
804.85	201.38
805.03	342.69
805.209	273.06
805.389	217.77
805.568	324.26
805.748	297.64
805.928	254.63
806.107	213.67
806.287	295.59
806.466	301.73
806.646	230.06
806.825	242.34
807.004	318.12
807.184	238.25
807.363	221.86
807.543	174.76
807.722	275.11
807.901	260.77
808.081	275.11
808.26	221.86
808.439	324.26
808.619	236.2
808.798	195.24
808.977	201.38
809.156	277.16
809.336	195.24
809.515	240.3
809.694	193.19
809.873	273.06
810.052	217.77
810.231	211.62
810.411	242.34
810.59	289.45
810.769	197.29
810.948	238.25
811.127	203.43
811.306	240.3
811.485	113.32
811.664	244.39
811.843	193.19
812.022	199.34
812.201	262.82
812.38	215.72
812.559	225.96
812.737	174.76
812.916	182.95
813.095	176.81
813.274	221.86
813.453	232.1
813.632	215.72
813.811	252.58
813.989	176.81
814.168	154.28
814.347	250.53
814.526	158.38
814.704	236.2
814.883	195.24
815.062	170.66
815.24	219.82
815.419	225.96
815.598	141.99
815.776	160.42
815.955	189.1
816.133	141.99
816.312	55.98
816.49	195.24
816.669	185
816.847	125.61
817.026	103.08
817.204	105.13
817.383	166.57
817.561	148.14
817.74	172.71
817.918	191.14
818.097	111.27
818.275	168.62
818.453	209.58
818.632	154.28
818.81	74.41
818.988	113.32
819.167	152.23
819.345	109.22
819.523	113.32
819.701	248.49
819.879	232.1
820.058	160.42
820.236	123.56
820.414	148.14
820.592	156.33
820.77	195.24
820.948	185
821.127	115.37
821.305	221.86
821.483	60.07
821.661	119.46
821.839	105.13
822.017	176.81
822.195	185
822.373	148.14
822.551	78.51
822.729	152.23
822.907	135.85
823.085	191.14
823.262	158.38
823.44	17.07
823.618	84.65
823.796	39.59
823.974	170.66
824.152	135.85
824.329	189.1
824.507	170.66
824.685	119.46
824.863	170.66
825.04	127.66
825.218	158.38
825.396	148.14
825.574	135.85
825.751	113.32
825.929	172.71
826.107	39.59
826.284	144.04
826.462	68.27
826.639	82.6
826.817	86.7
826.994	176.81
827.172	160.42
827.349	121.51
827.527	197.29
827.704	158.38
827.882	154.28
828.059	96.94
828.237	74.41
828.414	76.46
828.591	78.51
828.769	119.46
828.946	166.57
829.124	101.03
829.301	121.51
829.478	160.42
829.655	90.79
829.833	146.09
830.01	80.55
830.187	101.03
830.364	90.79
830.542	53.93
830.719	111.27
830.896	72.36
831.073	105.13
831.25	152.23
831.427	131.75
831.604	70.31
831.782	170.66
831.959	80.55
832.136	113.32
832.313	29.35
832.49	51.88
832.667	139.94
832.844	80.55
833.021	64.17
833.198	123.56
833.374	123.56
833.551	146.09
833.728	115.37
833.905	72.36
834.082	58.03
834.259	25.26
834.436	131.75
834.612	68.27
834.789	88.75
834.966	74.41
835.143	158.38
835.319	39.59
835.496	119.46
835.673	47.79
835.85	98.99
836.026	55.98
836.203	129.7
836.38	17.07
836.556	47.79
836.733	90.79
836.909	58.03
837.086	68.27
837.262	86.7
837.439	84.65
837.616	78.51
837.792	133.8
837.968	58.03
838.145	58.03
838.321	90.79
838.498	25.26
838.674	80.55
838.851	113.32
839.027	4.78
839.203	72.36
839.38	94.89
839.556	82.6
839.732	25.26
839.909	96.94
840.085	141.99
840.261	39.59
840.437	51.88
840.614	-11.61
840.79	150.18
840.966	55.98
841.142	113.32
841.318	19.11
841.494	-30.04
841.671	180.9
841.847	53.93
842.023	39.59
842.199	103.08
842.375	84.65
842.551	49.83
842.727	127.66
842.903	80.55
843.079	92.84
843.255	64.17
843.431	49.83
843.607	98.99
843.783	35.5
843.959	25.26
844.134	2.73
844.31	74.41
844.486	39.59
844.662	39.59
844.838	80.55
845.013	55.98
845.189	72.36
845.365	111.27
845.541	98.99
845.716	27.31
845.892	62.12
846.068	137.9
846.244	113.32
846.419	88.75
846.595	60.07
846.77	70.31
846.946	76.46
847.122	121.51
847.297	27.31
847.473	70.31
847.648	2.73
847.824	105.13
847.999	8.87
848.175	51.88
848.35	25.26
848.526	39.59
848.701	96.94
848.876	121.51
849.052	64.17
849.227	86.7
849.403	55.98
849.578	43.69
849.753	98.99
849.929	101.03
850.104	47.79
850.279	191.14
850.454	55.98
850.63	137.9
850.805	107.18
850.98	72.36
851.155	60.07
851.33	137.9
851.505	68.27
851.681	53.93
851.856	27.31
852.031	90.79
852.206	113.32
852.381	74.41
852.556	-5.46
852.731	76.46
852.906	27.31
853.081	33.45
853.256	72.36
853.431	111.27
853.606	58.03
853.781	12.97
853.956	0.68
854.131	62.12
854.305	-11.61
854.48	64.17
854.655	88.75
854.83	-25.94
855.005	29.35
855.18	111.27
855.354	68.27
855.529	39.59
855.704	37.55
855.879	92.84
856.053	25.26
856.228	64.17
856.403	35.5
856.577	0.68
856.752	-50.52
856.926	8.87
857.101	-36.18
857.276	37.55
857.45	49.83
857.625	113.32
857.799	0.68
857.974	12.97
858.148	55.98
858.323	103.08
858.497	-34.13
858.672	49.83
858.846	6.83
859.02	121.51
859.195	98.99
859.369	33.45
859.543	70.31
859.718	47.79
859.892	64.17
860.066	88.75
860.241	6.83
860.415	12.97
860.589	-7.51
860.763	88.75
860.938	-11.61
861.112	29.35
861.286	31.4
861.46	43.69
861.634	80.55
861.808	90.79
861.982	86.7
862.157	27.31
862.331	19.11
862.505	105.13
862.679	0.68
862.853	86.7
863.027	49.83
863.201	76.46
863.375	19.11
863.549	92.84
863.722	12.97
863.896	33.45
864.07	-27.99
864.244	39.59
864.418	90.79
864.592	58.03
864.766	43.69
864.939	84.65
865.113	-30.04
865.287	92.84
865.461	101.03
865.634	15.02
865.808	-7.51
865.982	19.11
866.156	-38.23
866.329	58.03
866.503	6.83
866.676	88.75
866.85	51.88
867.024	64.17
867.197	-60.76
867.371	53.93
867.544	43.69
867.718	15.02
867.891	33.45
868.065	86.7
868.238	-44.37
868.412	119.46
868.585	23.21
868.759	53.93
868.932	-5.46
869.105	17.07
869.279	21.16
869.452	-7.51
869.625	-11.61
869.799	10.92
869.972	60.07
870.145	74.41
870.319	103.08
870.492	10.92
870.665	76.46
870.838	41.64
871.011	-81.24
871.185	49.83
871.358	0.68
871.531	47.79
871.704	-34.13
871.877	92.84
872.05	41.64
872.223	17.07
872.396	82.6
872.569	29.35
872.742	-7.51
872.915	41.64
873.088	60.07
873.261	-38.23
873.434	55.98
873.607	37.55
873.78	43.69
873.953	37.55
874.126	21.16
874.299	62.12
874.471	-3.41
874.644	-11.61
874.817	6.83
874.99	19.11
875.163	19.11
875.335	10.92
875.508	64.17
875.681	0.68
875.853	39.59
876.026	21.16
876.199	33.45
876.371	4.78
876.544	47.79
876.717	45.74
876.889	35.5
877.062	41.64
877.234	-13.65
877.407	29.35
877.579	49.83
877.752	76.46
877.924	6.83
878.097	88.75
878.269	94.89
878.442	-19.8
878.614	21.16
878.786	72.36
878.959	58.03
879.131	68.27
879.303	19.11
879.476	10.92
879.648	133.8
879.82	10.92
879.993	55.98
880.165	15.02
880.337	37.55
880.509	-1.37
880.681	2.73
880.854	-9.56
881.026	37.55
881.198	68.27
881.37	-27.99
881.542	98.99
881.714	-19.8
881.886	78.51
882.058	47.79
882.23	4.78
882.402	62.12
882.574	-11.61
882.746	37.55
882.918	74.41
883.09	47.79
883.262	23.21
883.434	-38.23
883.606	-17.75
883.778	-17.75
883.95	68.27
884.122	19.11
884.293	49.83
884.465	31.4
884.637	6.83
884.809	58.03
884.98	10.92
885.152	-1.37
885.324	49.83
885.496	41.64
885.667	8.87
885.839	45.74
886.011	68.27
886.182	55.98
886.354	49.83
886.525	-9.56
886.697	-1.37
886.869	25.26
887.04	2.73
887.212	115.37
887.383	27.31
887.555	33.45
887.726	39.59
887.897	-13.65
888.069	33.45
888.24	21.16
888.412	49.83
888.583	-30.04
888.754	12.97
888.926	60.07
889.097	-23.89
889.268	2.73
889.44	8.87
889.611	41.64
889.782	82.6
889.953	19.11
890.125	8.87
890.296	-30.04
890.467	68.27
890.638	31.4
890.809	-21.85
890.98	12.97
891.151	43.69
891.323	8.87
891.494	98.99
891.665	74.41
891.836	33.45
892.007	49.83
892.178	-15.7
892.349	45.74
892.52	-50.52
892.691	-1.37
892.862	55.98
893.032	-15.7
893.203	-50.52
893.374	41.64
893.545	-19.8
893.716	-1.37
893.887	27.31
894.057	12.97
894.228	17.07
894.399	-32.08
894.57	17.07
894.74	70.31
894.911	109.22
895.082	62.12
895.253	33.45
895.423	-3.41
895.594	55.98
895.764	-11.61
895.935	53.93
896.106	-27.99
896.276	21.16
896.447	35.5
896.617	-15.7
896.788	25.26
896.958	31.4
897.129	21.16
897.299	76.46
897.47	60.07
897.64	6.83
897.81	15.02
897.981	64.17
898.151	-1.37
898.322	35.5
898.492	10.92
898.662	2.73
898.832	8.87
899.003	-9.56
899.173	21.16
899.343	45.74
899.513	-21.85
