Data from USB4F104151__84__11-45-35-147.txt Node

Date: Fri Mar 14 11:45:35 EDT 2025
User: louis
Spectrometer: USB4F10415
Trigger mode: 4
Integration Time (sec): 2.000000E-2
Scans to average: 1
Electric dark correction enabled: true
Nonlinearity correction enabled: false
Boxcar width: 0
XAxis mode: Wavelengths
Number of Pixels in Spectrum: 3648
>>>>>Begin Spectral Data<<<<<
178.204	-60.59
178.424	-60.59
178.644	-60.59
178.864	-97.45
179.084	-93.35
179.304	-7.34
179.524	39.76
179.744	11.09
179.964	31.57
180.184	-3.24
180.404	-36.01
180.624	-44.2
180.844	62.29
181.064	-36.01
181.283	37.72
181.503	-1.19
181.723	-54.44
181.943	-23.72
182.163	37.72
182.383	-17.58
182.602	0.85
182.822	29.52
183.042	52.05
183.262	23.38
183.482	78.68
183.701	52.05
183.921	9.05
184.141	41.81
184.361	-1.19
184.58	-23.72
184.8	78.68
185.02	-44.2
185.239	13.14
185.459	-33.96
185.679	115.54
185.898	4.95
186.118	17.24
186.338	23.38
186.557	4.95
186.777	-36.01
186.997	27.48
187.216	52.05
187.436	74.58
187.655	-7.34
187.875	45.91
188.095	88.92
188.314	-17.58
188.534	58.2
188.753	-21.67
188.973	2.9
189.192	31.57
189.412	39.76
189.631	-11.43
189.851	33.62
190.07	19.29
190.29	52.05
190.509	15.19
190.729	15.19
190.948	-11.43
191.168	95.06
191.387	-27.82
191.607	21.33
191.826	72.53
192.045	-17.58
192.265	72.53
192.484	-3.24
192.704	37.72
192.923	66.39
193.142	41.81
193.362	66.39
193.581	4.95
193.8	-19.63
194.02	23.38
194.239	117.59
194.458	-70.83
194.678	31.57
194.897	19.29
195.116	117.59
195.335	54.1
195.555	54.1
195.774	86.87
195.993	37.72
196.212	-1.19
196.432	-5.29
196.651	68.44
196.87	29.52
197.089	68.44
197.308	25.43
197.528	39.76
197.747	13.14
197.966	62.29
198.185	-36.01
198.404	76.63
198.623	70.48
198.842	93.01
199.062	109.4
199.281	21.33
199.5	68.44
199.719	23.38
199.938	80.72
200.157	23.38
200.376	70.48
200.595	86.87
200.814	60.24
201.033	-3.24
201.252	117.59
201.471	27.48
201.69	0.85
201.909	31.57
202.128	25.43
202.347	82.77
202.566	-11.43
202.785	21.33
203.004	9.05
203.223	70.48
203.442	47.96
203.661	64.34
203.879	45.91
204.098	47.96
204.317	37.72
204.536	74.58
204.755	-9.39
204.974	-13.48
205.193	72.53
205.411	4.95
205.63	31.57
205.849	25.43
206.068	52.05
206.287	-70.83
206.505	-40.11
206.724	-38.06
206.943	27.48
207.162	54.1
207.381	13.14
207.599	15.19
207.818	-17.58
208.037	29.52
208.255	76.63
208.474	0.85
208.693	13.14
208.911	-31.91
209.13	56.15
209.349	-17.58
209.567	2.9
209.786	54.1
210.005	33.62
210.223	-42.15
210.442	72.53
210.661	86.87
210.879	33.62
211.098	-21.67
211.316	13.14
211.535	41.81
211.753	-17.58
211.972	58.2
212.191	29.52
212.409	58.2
212.628	45.91
212.846	72.53
213.065	31.57
213.283	-9.39
213.502	-19.63
213.72	25.43
213.938	66.39
214.157	31.57
214.375	54.1
214.594	0.85
214.812	82.77
215.031	-3.24
215.249	15.19
215.467	31.57
215.686	90.96
215.904	70.48
216.122	4.95
216.341	78.68
216.559	70.48
216.778	88.92
216.996	33.62
217.214	41.81
217.432	-15.53
217.651	11.09
217.869	43.86
218.087	103.25
218.306	66.39
218.524	64.34
218.742	21.33
218.96	25.43
219.179	17.24
219.397	47.96
219.615	33.62
219.833	64.34
220.051	-23.72
220.27	68.44
220.488	58.2
220.706	115.54
220.924	70.48
221.142	93.01
221.36	39.76
221.578	37.72
221.796	-15.53
222.015	25.43
222.233	84.82
222.451	25.43
222.669	-17.58
222.887	-29.87
223.105	19.29
223.323	62.29
223.541	-19.63
223.759	19.29
223.977	76.63
224.195	27.48
224.413	52.05
224.631	23.38
224.849	47.96
225.067	41.81
225.285	43.86
225.503	-17.58
225.721	9.05
225.939	9.05
226.157	31.57
226.375	111.44
226.592	25.43
226.81	115.54
227.028	50
227.246	72.53
227.464	27.48
227.682	86.87
227.9	82.77
228.117	4.95
228.335	47.96
228.553	31.57
228.771	9.05
228.989	68.44
229.206	2.9
229.424	15.19
229.642	72.53
229.86	33.62
230.077	35.67
230.295	47.96
230.513	15.19
230.731	60.24
230.948	27.48
231.166	43.86
231.384	4.95
231.601	0.85
231.819	111.44
232.037	9.05
232.254	60.24
232.472	41.81
232.689	-27.82
232.907	58.2
233.125	50
233.342	58.2
233.56	21.33
233.777	13.14
233.995	60.24
234.213	-19.63
234.43	-13.48
234.648	33.62
234.865	9.05
235.083	52.05
235.3	17.24
235.518	31.57
235.735	76.63
235.953	105.3
236.17	45.91
236.388	41.81
236.605	37.72
236.822	58.2
237.04	70.48
237.257	-15.53
237.475	-79.02
237.692	27.48
237.909	47.96
238.127	2.9
238.344	82.77
238.562	58.2
238.779	2.9
238.996	-42.15
239.214	-11.43
239.431	-13.48
239.648	31.57
239.865	95.06
240.083	39.76
240.3	-25.77
240.517	4.95
240.735	-15.53
240.952	80.72
241.169	13.14
241.386	-7.34
241.603	-3.24
241.821	-48.3
242.038	9.05
242.255	64.34
242.472	68.44
242.689	7
242.907	68.44
243.124	31.57
243.341	47.96
243.558	33.62
243.775	-40.11
243.992	2.9
244.209	43.86
244.426	80.72
244.643	90.96
244.86	58.2
245.078	-17.58
245.295	-1.19
245.512	23.38
245.729	47.96
245.946	4.95
246.163	-1.19
246.38	39.76
246.597	-7.34
246.814	74.58
247.031	58.2
247.248	82.77
247.464	17.24
247.681	29.52
247.898	17.24
248.115	31.57
248.332	-25.77
248.549	43.86
248.766	127.83
248.983	72.53
249.2	2.9
249.417	47.96
249.633	123.73
249.85	80.72
250.067	-9.39
250.284	33.62
250.501	4.95
250.717	27.48
250.934	-3.24
251.151	60.24
251.368	-21.67
251.585	-21.67
251.801	-42.15
252.018	-29.87
252.235	35.67
252.451	105.3
252.668	41.81
252.885	15.19
253.102	7
253.318	56.15
253.535	-31.91
253.752	43.86
253.968	-3.24
254.185	56.15
254.401	7
254.618	45.91
254.835	11.09
255.051	117.59
255.268	45.91
255.484	-7.34
255.701	21.33
255.917	64.34
256.134	39.76
256.351	15.19
256.567	39.76
256.784	43.86
257	-27.82
257.217	-9.39
257.433	39.76
257.65	-29.87
257.866	27.48
258.082	9.05
258.299	-1.19
258.515	27.48
258.732	-44.2
258.948	7
259.165	66.39
259.381	74.58
259.597	78.68
259.814	107.35
260.03	78.68
260.246	39.76
260.463	39.76
260.679	88.92
260.895	-3.24
261.112	27.48
261.328	37.72
261.544	129.88
261.761	25.43
261.977	21.33
262.193	31.57
262.409	17.24
262.626	39.76
262.842	7
263.058	0.85
263.274	21.33
263.49	54.1
263.707	-13.48
263.923	15.19
264.139	35.67
264.355	84.82
264.571	60.24
264.787	60.24
265.004	37.72
265.22	25.43
265.436	56.15
265.652	11.09
265.868	70.48
266.084	52.05
266.3	50
266.516	56.15
266.732	45.91
266.948	11.09
267.164	105.3
267.38	-13.48
267.596	101.2
267.812	7
268.028	58.2
268.244	-5.29
268.46	33.62
268.676	-23.72
268.892	25.43
269.108	-31.91
269.324	54.1
269.54	33.62
269.756	31.57
269.972	0.85
270.188	-33.96
270.403	-56.49
270.619	54.1
270.835	33.62
271.051	27.48
271.267	64.34
271.483	-3.24
271.698	66.39
271.914	21.33
272.13	-29.87
272.346	39.76
272.562	-15.53
272.777	9.05
272.993	62.29
273.209	41.81
273.425	64.34
273.64	117.59
273.856	60.24
274.072	31.57
274.287	13.14
274.503	35.67
274.719	74.58
274.934	-19.63
275.15	-1.19
275.366	11.09
275.581	-21.67
275.797	7
276.012	88.92
276.228	27.48
276.444	9.05
276.659	86.87
276.875	43.86
277.09	2.9
277.306	78.68
277.521	105.3
277.737	86.87
277.952	35.67
278.168	35.67
278.383	31.57
278.599	29.52
278.814	107.35
279.03	-13.48
279.245	76.63
279.461	23.38
279.676	50
279.892	-1.19
280.107	121.68
280.322	41.81
280.538	15.19
280.753	-5.29
280.969	78.68
281.184	17.24
281.399	50
281.615	41.81
281.83	39.76
282.045	39.76
282.26	60.24
282.476	62.29
282.691	80.72
282.906	-19.63
283.122	68.44
283.337	37.72
283.552	-25.77
283.767	25.43
283.983	109.4
284.198	78.68
284.413	47.96
284.628	50
284.843	80.72
285.058	25.43
285.274	-5.29
285.489	25.43
285.704	23.38
285.919	33.62
286.134	41.81
286.349	-9.39
286.564	50
286.779	-1.19
286.995	27.48
287.21	7
287.425	97.11
287.64	76.63
287.855	23.38
288.07	-25.77
288.285	60.24
288.5	25.43
288.715	7
288.93	23.38
289.145	37.72
289.36	58.2
289.575	58.2
289.79	78.68
290.004	-21.67
290.219	105.3
290.434	9.05
290.649	7
290.864	39.76
291.079	33.62
291.294	15.19
291.509	62.29
291.724	-13.48
291.938	39.76
292.153	70.48
292.368	45.91
292.583	-11.43
292.798	41.81
293.012	70.48
293.227	-9.39
293.442	68.44
293.657	15.19
293.871	107.35
294.086	-11.43
294.301	72.53
294.516	52.05
294.73	35.67
294.945	113.49
295.16	-19.63
295.374	-25.77
295.589	21.33
295.804	58.2
296.018	52.05
296.233	74.58
296.447	33.62
296.662	-7.34
296.877	60.24
297.091	64.34
297.306	58.2
297.52	50
297.735	50
297.949	56.15
298.164	82.77
298.378	23.38
298.593	13.14
298.807	11.09
299.022	37.72
299.236	66.39
299.451	23.38
299.665	9.05
299.88	19.29
300.094	23.38
300.309	45.91
300.523	90.96
300.737	27.48
300.952	15.19
301.166	86.87
301.381	-19.63
301.595	-46.25
301.809	52.05
302.024	88.92
302.238	0.85
302.452	56.15
302.667	72.53
302.881	13.14
303.095	115.54
303.309	133.97
303.524	72.53
303.738	11.09
303.952	56.15
304.166	105.3
304.381	-23.72
304.595	52.05
304.809	50
305.023	-11.43
305.237	27.48
305.452	37.72
305.666	66.39
305.88	68.44
306.094	50
306.308	37.72
306.522	107.35
306.736	90.96
306.95	-5.29
307.164	115.54
307.379	-23.72
307.593	27.48
307.807	72.53
308.021	-7.34
308.235	0.85
308.449	-9.39
308.663	19.29
308.877	52.05
309.091	-1.19
309.305	115.54
309.519	2.9
309.733	15.19
309.947	66.39
310.161	-17.58
310.374	109.4
310.588	43.86
310.802	60.24
311.016	43.86
311.23	70.48
311.444	140.12
311.658	11.09
311.872	31.57
312.085	64.34
312.299	84.82
312.513	93.01
312.727	86.87
312.941	27.48
313.154	76.63
313.368	107.35
313.582	27.48
313.796	27.48
314.009	78.68
314.223	37.72
314.437	47.96
314.651	15.19
314.864	84.82
315.078	39.76
315.292	-23.72
315.505	-21.67
315.719	-1.19
315.933	15.19
316.146	7
316.36	4.95
316.573	45.91
316.787	0.85
317.001	31.57
317.214	0.85
317.428	47.96
317.641	-1.19
317.855	52.05
318.068	39.76
318.282	133.97
318.495	95.06
318.709	66.39
318.922	50
319.136	84.82
319.349	-1.19
319.563	113.49
319.776	27.48
319.99	33.62
320.203	56.15
320.417	54.1
320.63	13.14
320.843	31.57
321.057	25.43
321.27	29.52
321.483	-5.29
321.697	133.97
321.91	66.39
322.124	2.9
322.337	13.14
322.55	56.15
322.763	33.62
322.977	-46.25
323.19	25.43
323.403	-21.67
323.617	62.29
323.83	35.67
324.043	-38.06
324.256	45.91
324.469	33.62
324.683	70.48
324.896	41.81
325.109	74.58
325.322	-11.43
325.535	27.48
325.748	56.15
325.962	86.87
326.175	43.86
326.388	-7.34
326.601	99.16
326.814	-38.06
327.027	-1.19
327.24	56.15
327.453	-1.19
327.666	41.81
327.879	33.62
328.092	27.48
328.305	86.87
328.518	64.34
328.731	58.2
328.944	33.62
329.157	54.1
329.37	56.15
329.583	25.43
329.796	95.06
330.009	-25.77
330.222	31.57
330.435	45.91
330.648	27.48
330.861	66.39
331.073	64.34
331.286	74.58
331.499	52.05
331.712	50
331.925	-7.34
332.138	54.1
332.35	78.68
332.563	56.15
332.776	70.48
332.989	33.62
333.202	105.3
333.414	66.39
333.627	9.05
333.84	25.43
334.053	-9.39
334.265	2.9
334.478	11.09
334.691	37.72
334.903	62.29
335.116	80.72
335.329	27.48
335.541	70.48
335.754	50
335.966	62.29
336.179	13.14
336.392	43.86
336.604	23.38
336.817	-17.58
337.029	78.68
337.242	47.96
337.454	78.68
337.667	13.14
337.88	62.29
338.092	93.01
338.305	107.35
338.517	45.91
338.729	70.48
338.942	41.81
339.154	-9.39
339.367	37.72
339.579	62.29
339.792	74.58
340.004	33.62
340.217	33.62
340.429	54.1
340.641	7
340.854	7
341.066	9.05
341.278	33.62
341.491	84.82
341.703	58.2
341.915	-21.67
342.128	37.72
342.34	11.09
342.552	31.57
342.764	39.76
342.977	27.48
343.189	66.39
343.401	31.57
343.613	43.86
343.826	45.91
344.038	68.44
344.25	7
344.462	-9.39
344.674	56.15
344.886	-5.29
345.099	25.43
345.311	21.33
345.523	68.44
345.735	39.76
345.947	76.63
346.159	86.87
346.371	43.86
346.583	35.67
346.795	129.88
347.007	64.34
347.219	90.96
347.431	41.81
347.643	54.1
347.855	39.76
348.067	-3.24
348.279	-36.01
348.491	64.34
348.703	7
348.915	52.05
349.127	50
349.339	19.29
349.551	68.44
349.763	47.96
349.975	39.76
350.187	74.58
350.399	62.29
350.61	62.29
350.822	15.19
351.034	39.76
351.246	50
351.458	66.39
351.669	74.58
351.881	115.54
352.093	90.96
352.305	66.39
352.517	-40.11
352.728	84.82
352.94	-1.19
353.152	58.2
353.363	-13.48
353.575	60.24
353.787	41.81
353.999	25.43
354.21	111.44
354.422	66.39
354.633	97.11
354.845	39.76
355.057	105.3
355.268	68.44
355.48	82.77
355.692	70.48
355.903	-1.19
356.115	35.67
356.326	-31.91
356.538	15.19
356.749	58.2
356.961	72.53
357.172	-15.53
357.384	56.15
357.595	125.78
357.807	-3.24
358.018	54.1
358.23	37.72
358.441	41.81
358.653	107.35
358.864	86.87
359.075	15.19
359.287	25.43
359.498	35.67
359.709	99.16
359.921	76.63
360.132	41.81
360.344	82.77
360.555	-33.96
360.766	43.86
360.977	39.76
361.189	39.76
361.4	66.39
361.611	56.15
361.823	31.57
362.034	62.29
362.245	76.63
362.456	68.44
362.667	107.35
362.879	47.96
363.09	45.91
363.301	-5.29
363.512	43.86
363.723	7
363.935	68.44
364.146	43.86
364.357	41.81
364.568	70.48
364.779	25.43
364.99	52.05
365.201	84.82
365.412	88.92
365.623	-11.43
365.834	68.44
366.045	133.97
366.256	35.67
366.467	88.92
366.678	7
366.889	13.14
367.1	9.05
367.311	101.2
367.522	54.1
367.733	136.02
367.944	74.58
368.155	58.2
368.366	148.31
368.577	78.68
368.788	52.05
368.999	45.91
369.209	47.96
369.42	-7.34
369.631	99.16
369.842	62.29
370.053	54.1
370.264	95.06
370.474	-21.67
370.685	107.35
370.896	64.34
371.107	11.09
371.317	11.09
371.528	33.62
371.739	21.33
371.95	82.77
372.16	64.34
372.371	37.72
372.582	43.86
372.792	62.29
373.003	-1.19
373.214	97.11
373.424	117.59
373.635	25.43
373.846	37.72
374.056	37.72
374.267	29.52
374.477	17.24
374.688	86.87
374.898	60.24
375.109	29.52
375.319	72.53
375.53	93.01
375.74	117.59
375.951	107.35
376.161	95.06
376.372	84.82
376.582	52.05
376.793	78.68
377.003	17.24
377.214	7
377.424	68.44
377.635	84.82
377.845	37.72
378.055	25.43
378.266	25.43
378.476	31.57
378.686	62.29
378.897	-11.43
379.107	35.67
379.317	115.54
379.528	43.86
379.738	168.79
379.948	47.96
380.158	56.15
380.369	-42.15
380.579	62.29
380.789	70.48
380.999	70.48
381.21	33.62
381.42	37.72
381.63	64.34
381.84	66.39
382.05	113.49
382.261	76.63
382.471	90.96
382.681	39.76
382.891	68.44
383.101	72.53
383.311	9.05
383.521	62.29
383.731	39.76
383.941	138.07
384.151	45.91
384.361	107.35
384.571	23.38
384.781	80.72
384.991	35.67
385.201	66.39
385.411	64.34
385.621	95.06
385.831	101.2
386.041	105.3
386.251	4.95
386.461	54.1
386.671	45.91
386.881	43.86
387.091	64.34
387.301	146.26
387.511	84.82
387.72	50
387.93	99.16
388.14	39.76
388.35	43.86
388.56	127.83
388.769	127.83
388.979	39.76
389.189	2.9
389.399	93.01
389.609	127.83
389.818	129.88
390.028	64.34
390.238	25.43
390.447	-27.82
390.657	35.67
390.867	103.25
391.076	97.11
391.286	158.55
391.496	70.48
391.705	23.38
391.915	174.93
392.125	95.06
392.334	70.48
392.544	90.96
392.753	121.68
392.963	64.34
393.172	-5.29
393.382	131.92
393.591	25.43
393.801	93.01
394.01	82.77
394.22	41.81
394.429	115.54
394.639	-36.01
394.848	152.4
395.058	50
395.267	109.4
395.477	66.39
395.686	93.01
395.895	109.4
396.105	121.68
396.314	78.68
396.524	113.49
396.733	54.1
396.942	78.68
397.152	150.36
397.361	95.06
397.57	105.3
397.78	119.64
397.989	148.31
398.198	88.92
398.407	109.4
398.617	95.06
398.826	113.49
399.035	136.02
399.244	105.3
399.453	35.67
399.663	95.06
399.872	103.25
400.081	66.39
400.29	103.25
400.499	111.44
400.708	156.5
400.917	109.4
401.127	133.97
401.336	76.63
401.545	136.02
401.754	162.64
401.963	207.7
402.172	88.92
402.381	50
402.59	107.35
402.799	160.59
403.008	152.4
403.217	162.64
403.426	197.46
403.635	146.26
403.844	140.12
404.053	164.69
404.262	176.98
404.471	230.23
404.68	123.73
404.888	209.75
405.097	166.74
405.306	211.79
405.515	195.41
405.724	129.88
405.933	226.13
406.142	181.07
406.35	183.12
406.559	172.88
406.768	156.5
406.977	144.21
407.185	166.74
407.394	224.08
407.603	230.23
407.812	226.13
408.02	230.23
408.229	256.85
408.438	211.79
408.646	306
408.855	310.1
409.064	244.56
409.272	340.82
409.481	316.24
409.69	363.34
409.898	351.06
410.107	277.33
410.315	365.39
410.524	379.73
410.733	443.21
410.941	404.3
411.15	346.96
411.358	439.12
411.567	473.93
411.775	484.17
411.984	412.5
412.192	441.17
412.401	445.26
412.609	537.42
412.818	521.04
413.026	596.81
413.234	586.57
413.443	525.13
413.651	584.52
413.86	688.97
414.068	602.96
414.276	686.92
414.485	582.48
414.693	758.6
414.901	734.03
415.11	777.03
415.318	768.84
415.526	820.04
415.734	850.76
415.943	889.67
416.151	846.66
416.359	844.62
416.567	867.14
416.776	973.64
416.984	1049.41
417.192	1057.61
417.4	1127.24
417.608	1094.47
417.817	1166.15
418.025	1184.58
418.233	1186.63
418.441	1262.4
418.649	1370.94
418.857	1379.14
419.065	1493.82
419.273	1377.09
419.481	1385.28
419.689	1526.59
419.897	1557.31
420.105	1708.86
420.313	1663.8
420.521	1747.77
420.729	1700.67
420.937	1856.31
421.145	1870.65
421.353	1940.28
421.561	2011.96
421.769	2034.49
421.977	2286.39
422.185	2118.45
422.393	2286.39
422.601	2460.46
422.809	2472.75
423.017	2503.47
423.224	2630.45
423.432	2558.77
423.64	2751.28
423.848	2859.82
424.056	2831.15
424.263	3173.16
424.471	3130.15
424.679	3035.94
424.887	3277.6
425.094	3349.28
425.302	3437.34
425.51	3592.99
425.718	3734.3
425.925	3707.68
426.133	3840.79
426.341	4059.93
426.548	4025.11
426.756	4205.33
426.964	4416.27
427.171	4565.78
427.379	4668.17
427.586	4678.41
427.794	4852.49
428.001	5022.47
428.209	5362.44
428.417	5405.44
428.624	5657.34
428.832	5694.21
429.039	5554.94
429.247	5638.91
429.454	6136.57
429.662	6613.74
429.869	6228.73
430.076	6531.83
430.284	6175.48
430.491	6576.88
430.699	7084.78
430.906	6879.98
431.114	7123.69
431.321	7250.66
431.528	7643.87
431.736	7938.78
431.943	8497.88
432.15	7967.45
432.358	8315.61
432.565	8737.49
432.772	8678.1
432.979	9083.59
433.187	9284.3
433.394	9224.9
433.601	9681.6
433.808	10001.08
434.016	9790.14
434.223	10181.31
434.43	10785.46
434.637	10799.79
434.844	11629.22
435.052	11711.14
435.259	11399.85
435.466	11748
435.673	11498.15
435.88	12049.05
436.087	13095.57
436.294	12905.1
436.501	12618.39
436.708	12913.3
436.915	13322.89
437.122	14170.75
437.329	13845.12
437.537	14189.18
437.743	14670.45
437.95	14367.35
438.157	15147.63
438.364	15921.76
438.571	15641.19
438.778	15792.74
438.985	17203.79
439.192	16321.12
439.399	17060.43
439.606	16892.5
439.813	17547.85
440.02	18680.38
440.227	18303.55
440.433	18088.51
440.64	19157.55
440.847	18754.1
441.054	19089.97
441.261	20523.55
441.467	20195.87
441.674	20531.74
441.881	21490.19
442.088	21592.59
442.294	20974.1
442.501	21828.1
442.708	21922.31
442.914	22802.94
443.121	23730.67
443.328	23142.9
443.534	24963.54
443.741	24519.14
443.948	24007.14
444.154	25864.65
444.361	25362.9
444.568	25743.82
444.774	26137.03
444.981	26173.89
445.187	26538.43
445.394	27832.75
445.6	27378.1
445.807	30056.84
446.013	28936.6
446.22	29436.31
446.426	30405
446.633	31154.55
446.839	31658.35
447.046	30505.35
447.252	32280.94
447.459	31891.82
447.665	32110.96
447.871	33491.29
448.078	34904.38
448.284	33411.42
448.491	33986.89
448.697	35879.22
448.903	36172.08
449.11	36135.21
449.316	35946.8
449.522	36258.09
449.728	37308.7
449.935	37562.65
450.141	37445.91
450.347	38549.77
450.553	36946.21
450.76	38099.22
450.966	38887.68
451.172	38412.56
451.378	39448.83
451.584	38633.74
451.791	39385.34
451.997	39438.59
452.203	40319.21
452.409	39766.26
452.615	39659.77
452.821	38369.55
453.027	37966.1
453.233	40239.34
453.44	38787.33
453.646	38875.4
453.852	39309.57
454.058	39835.89
454.264	38482.19
454.47	39319.81
454.676	38439.18
454.882	39631.1
455.088	36423.98
455.294	36837.67
455.5	37230.88
455.705	37865.75
455.911	36149.55
456.117	35889.46
456.323	34865.47
456.529	33337.69
456.735	34849.09
456.941	33802.58
457.147	33071.45
457.352	32455.01
457.558	31979.89
457.764	32184.68
457.97	31396.21
458.176	30597.51
458.381	30648.71
458.587	29262.23
458.793	29485.46
458.999	27986.35
459.204	29974.92
459.41	28801.44
459.616	27158.97
459.821	26890.68
460.027	27003.32
460.233	26409.41
460.438	25020.89
460.644	25209.3
460.85	24461.79
461.055	23790.06
461.261	23820.78
461.466	22071.81
461.672	21221.91
461.878	23116.28
462.083	21512.72
462.289	21264.91
462.494	20687.39
462.7	19933.73
462.905	19163.7
463.111	20029.99
463.316	19915.3
463.522	19485.23
463.727	19601.96
463.932	19386.93
464.138	19233.33
464.343	19542.57
464.549	18846.26
464.754	19556.91
464.959	19399.21
465.165	19069.49
465.37	18160.19
465.575	17883.72
465.781	18534.97
465.986	18577.98
466.191	18047.55
466.397	17658.44
466.602	16730.71
466.807	17619.53
467.012	17472.07
467.218	17398.35
467.423	17236.56
467.628	17338.96
467.833	18002.5
468.038	17244.75
468.244	16853.59
468.449	17564.23
468.654	16837.2
468.859	16904.79
469.064	16675.41
469.269	15905.38
469.474	16345.69
469.679	16515.67
469.885	16044.64
470.09	16400.99
470.295	16020.06
470.5	15776.36
470.705	15972.96
470.91	15536.74
471.115	15534.7
471.32	15606.38
471.525	15338.09
471.73	15135.34
471.935	14955.12
472.139	14523
472.344	14699.13
472.549	14647.93
472.754	14529.14
472.959	14129.79
473.164	14076.54
473.369	13714.05
473.574	14156.41
473.778	13992.58
473.983	13808.26
474.188	13669
474.393	13232.78
474.598	13345.42
474.802	13034.13
475.007	13197.96
475.212	13245.07
475.417	12647.06
475.621	12851.86
475.826	12595.86
476.031	12456.6
476.235	12219.03
476.44	12409.5
476.645	12026.53
476.849	12135.07
477.054	12145.31
477.259	11827.87
477.463	11809.44
477.668	11569.83
477.872	11614.88
478.077	11457.19
478.282	11150
478.486	11172.52
478.691	11027.12
478.895	11045.55
479.1	10891.95
479.304	11002.54
479.509	10689.2
479.713	10887.86
479.918	10613.43
480.122	10508.98
480.326	10566.32
480.531	10373.82
480.735	10283.7
480.94	10193.59
481.144	10744.5
481.348	10191.55
481.553	10265.27
481.757	9982.65
481.961	10443.45
482.166	10285.75
482.37	10029.76
482.574	10021.56
482.778	10175.16
482.983	10267.32
483.187	10308.28
483.391	10240.7
483.595	10175.16
483.8	9765.57
484.004	10085.05
484.208	10183.35
484.412	10064.57
484.616	10306.23
484.821	10142.39
485.025	9974.46
485.229	10185.4
485.433	10025.66
485.637	9941.69
485.841	9943.74
486.045	10126.01
486.249	10228.41
486.453	10040
486.657	10162.87
486.861	10023.61
487.065	9880.25
487.269	9915.07
487.473	9908.93
487.677	9962.17
487.881	10443.45
488.085	9937.6
488.289	9980.61
488.493	10191.55
488.697	10005.18
488.901	9910.97
489.105	10166.97
489.309	10263.22
489.512	10326.71
489.716	10054.33
489.92	10099.39
490.124	10132.15
490.328	10349.24
490.531	10132.15
490.735	10257.08
490.939	10316.47
491.143	10244.79
491.346	10181.31
491.55	10554.04
491.754	10506.93
491.958	10504.89
492.161	10615.48
492.365	10861.23
492.569	10457.78
492.772	10490.55
492.976	10490.55
493.18	10934.96
493.383	10879.66
493.587	11031.21
493.79	10928.81
493.994	10748.59
494.197	11123.37
494.401	11184.81
494.605	11123.37
494.808	11244.2
495.012	11387.56
495.215	11260.59
495.419	11438.76
495.622	11424.42
495.825	11868.83
496.029	11477.67
496.232	11930.27
496.436	11782.82
496.639	12014.24
496.843	12178.08
497.046	12126.88
497.249	12458.65
497.453	12262.04
497.656	12591.77
497.859	12632.72
498.063	12716.69
498.266	13095.57
498.469	13027.98
498.673	13138.57
498.876	13310.6
499.079	13480.58
499.282	13216.4
499.485	13562.5
499.689	13773.44
499.892	14049.92
500.095	14099.07
500.298	14441.08
500.501	14176.89
500.705	14721.65
500.908	14805.62
501.111	14967.41
501.314	14973.55
501.517	14946.93
501.72	15166.06
501.923	15133.29
502.126	15790.69
502.329	15934.05
502.532	16024.16
502.735	16085.6
502.938	16456.28
503.141	16382.56
503.344	16566.87
503.547	16476.76
503.75	16755.29
503.953	17439.31
504.156	17424.97
504.359	17697.35
504.562	17320.53
504.765	17986.11
504.968	18192.96
505.17	18336.32
505.373	18401.85
505.576	18907.7
505.779	19032.63
505.982	19073.59
506.185	19092.02
506.387	19407.41
506.59	19542.57
506.793	19733.03
506.996	20165.15
507.198	20511.26
507.401	20390.43
507.604	20701.72
507.807	21094.93
508.009	21277.2
508.212	21021.2
508.415	21805.58
508.617	21670.41
508.82	22020.61
509.022	21912.07
509.225	22411.78
509.428	22450.69
509.63	22688.25
509.833	22565.37
510.035	23572.97
510.238	22981.11
510.44	23677.42
510.643	23726.57
510.845	24148.45
511.048	23923.18
511.25	24478.18
511.453	24490.46
511.655	25487.82
511.858	25094.61
512.06	25721.29
512.262	25639.37
512.465	25659.85
512.667	25989.58
512.87	26843.58
513.072	26339.78
513.274	26732.99
513.477	26905.02
513.679	27179.45
513.881	27470.26
514.084	27718.06
514.286	28066.22
514.488	28361.12
514.69	28613.02
514.893	28830.11
515.095	28932.51
515.297	29507.99
515.499	29417.88
515.701	29995.4
515.904	30087.56
516.106	30257.54
516.308	30296.46
516.51	31005.05
516.712	30675.33
516.914	31031.68
517.116	31981.93
517.318	31742.32
517.52	32020.84
517.722	32266.6
517.925	32379.24
518.127	33186.14
518.329	33292.63
518.531	32792.93
518.733	33986.89
518.935	33935.7
519.136	34115.92
519.338	34699.59
519.54	34597.19
519.742	35084.61
519.944	34904.38
520.146	36237.61
520.348	35615.03
520.55	35868.98
520.752	36634.92
520.954	36815.14
521.155	36509.99
521.357	37036.32
521.559	37427.48
521.761	38023.44
521.963	37884.18
522.164	38119.7
522.366	38152.46
522.568	38838.53
522.77	39022.85
522.971	39627
523.173	38799.62
523.375	39704.82
523.576	39491.83
523.778	39618.81
523.98	39766.26
524.181	40253.68
524.383	40489.2
524.584	40986.85
524.786	41128.16
524.988	41027.81
525.189	41865.43
525.391	41631.96
525.592	41822.42
525.794	42102.99
525.995	42133.71
526.197	42021.08
526.398	42039.51
526.6	42594.51
526.801	43010.25
527.003	42850.5
527.204	43425.98
527.406	43509.95
527.607	43167.94
527.808	43823.29
528.01	42997.96
528.211	43641.02
528.412	44636.33
528.614	44208.31
528.815	44374.19
529.016	44431.54
529.218	44013.75
529.419	44501.17
529.62	44828.84
529.822	44462.25
530.023	44730.54
530.224	44865.7
530.425	45009.06
530.626	45131.94
530.828	44435.63
531.029	45820.06
531.23	44921
531.431	45377.7
531.632	45195.43
531.833	45719.71
532.035	45082.79
532.236	45566.11
532.437	45705.37
532.638	45377.7
532.839	46049.43
533.04	45930.65
533.241	45129.89
533.442	46239.89
533.643	45682.84
533.844	45746.33
534.045	46123.16
534.246	45658.27
534.447	45394.08
534.648	46190.74
534.849	46131.35
535.05	45830.3
535.251	45934.74
535.451	45574.3
535.652	46342.29
535.853	45967.51
536.054	45889.69
536.255	45885.59
536.456	45959.32
536.657	46618.77
536.857	45813.91
537.058	45869.21
537.259	46416.02
537.46	45973.66
537.66	45895.83
537.861	45807.77
538.062	46090.39
538.263	46254.23
538.463	46039.19
538.664	45996.18
538.865	45955.22
539.065	46284.95
539.266	45828.25
539.466	46882.95
539.667	45772.95
539.868	46342.29
540.068	45887.64
540.269	45482.14
540.469	46540.94
540.67	45795.48
540.87	45871.26
541.071	45801.63
541.271	46209.17
541.472	46178.45
541.672	45906.07
541.873	45936.79
542.073	45355.17
542.274	46880.91
542.474	45772.95
542.675	45752.48
542.875	46430.35
543.075	46008.47
543.276	45217.96
543.476	45918.36
543.676	45723.8
543.877	45828.25
544.077	45740.19
544.277	45449.38
544.478	45709.47
544.678	46002.33
544.878	46260.37
545.078	45877.4
545.279	45148.32
545.479	45496.48
545.679	45682.84
545.879	45441.18
546.079	45582.49
546.28	45508.77
546.48	45258.91
546.68	45650.08
546.88	45379.74
547.08	45521.05
547.28	45549.73
547.48	45338.79
547.68	45756.57
547.88	45521.05
548.081	45873.31
548.281	45426.85
548.481	45168.8
548.681	45961.37
548.881	45873.31
549.081	45133.99
549.28	45766.81
549.48	45906.07
549.68	45172.9
549.88	46102.68
550.08	45297.83
550.28	45652.12
550.48	45453.47
550.68	45666.46
550.88	45445.28
551.08	45181.09
551.279	44937.38
551.479	45193.38
551.679	45459.62
551.879	45338.79
552.079	45383.84
552.278	45607.07
552.478	45435.04
552.678	45238.44
552.878	45881.5
553.077	45275.3
553.277	44755.11
553.477	45451.42
553.676	45052.07
553.876	45017.25
554.076	44906.66
554.275	45037.73
554.475	44478.64
554.674	45050.02
554.874	45267.11
555.074	44808.36
555.273	45009.06
555.473	45082.79
555.672	44314.8
555.872	44486.83
556.071	44818.6
556.271	45154.47
556.47	44535.98
556.67	44554.41
556.869	44484.78
557.068	44572.85
557.268	44390.58
557.467	44189.88
557.667	44271.79
557.866	44286.13
558.065	44312.75
558.265	44130.48
558.464	43942.07
558.663	44247.22
558.863	43645.12
559.062	44464.3
559.261	43731.13
559.461	44187.83
559.66	43307.2
559.859	43659.45
560.058	43647.16
560.258	43823.29
560.457	43397.31
560.656	43755.71
560.855	43208.9
561.054	43604.16
561.253	42903.75
561.453	43251.91
561.652	43335.87
561.851	43290.82
562.05	43094.21
562.249	43065.54
562.448	43075.78
562.647	43221.19
562.846	42682.57
563.045	43116.74
563.244	42791.11
563.443	42918.09
563.642	42578.12
563.841	42596.56
564.04	42156.24
564.239	42539.21
564.438	41928.92
564.637	42234.06
564.836	42178.77
565.035	41822.42
565.234	42354.9
565.432	41418.97
565.631	41812.18
565.83	41830.62
566.029	41945.3
566.228	41472.22
566.427	41335.01
566.625	41349.34
566.824	40886.5
567.023	41453.79
567.222	40575.21
567.42	41257.18
567.619	40892.65
567.818	41029.86
568.016	40892.65
568.215	41275.62
568.414	40708.33
568.612	41027.81
568.811	40321.26
569.01	40481
569.208	39645.43
569.407	39975.16
569.605	39823.61
569.804	40067.31
570.002	39438.59
570.201	40085.75
570.4	39639.29
570.598	39266.56
570.797	39160.06
570.995	39958.77
571.193	39252.22
571.392	39596.28
571.59	39180.54
571.789	38902.02
571.987	39207.17
572.186	38922.5
572.384	38889.73
572.582	38988.03
572.781	38541.58
572.979	37773.59
573.177	38156.56
573.376	38998.27
573.574	38390.03
573.772	38369.55
573.971	37945.62
574.169	38007.06
574.367	37875.99
574.565	37865.75
574.763	37824.79
574.962	37636.38
575.16	36952.35
575.358	37421.34
575.556	37062.94
575.754	37513.5
575.952	36897.06
576.151	37658.9
576.349	37013.79
576.547	36997.41
576.745	36587.82
576.943	37136.67
577.141	36374.83
577.339	36946.21
577.537	36352.3
577.735	36335.91
577.933	36184.37
578.131	36722.98
578.329	35825.97
578.527	35967.28
578.725	35920.18
578.923	35967.28
579.121	35639.61
579.319	35567.93
579.516	36055.34
579.714	35604.79
579.912	35549.49
580.11	35498.3
580.308	35266.88
580.506	35170.62
580.704	34615.62
580.901	35258.68
581.099	35127.61
581.297	34558.28
581.495	34652.48
581.692	34838.85
581.89	34220.36
582.088	35107.13
582.285	34103.63
582.483	34425.16
582.681	34310.47
582.878	33831.25
583.076	33855.82
583.274	34279.75
583.471	33986.89
583.669	33831.25
583.866	33605.97
584.064	34019.66
584.262	33073.5
584.459	33798.48
584.657	33397.08
584.854	33538.39
585.052	32921.95
585.249	33294.68
585.447	32917.86
585.644	32831.84
585.841	32942.43
586.039	33163.61
586.236	32375.14
586.434	32518.5
586.631	32328.04
586.828	32477.54
587.026	32637.28
587.223	32344.42
587.42	32455.01
587.618	32235.88
587.815	31924.59
588.012	32215.4
588.21	31910.25
588.407	31717.75
588.604	31549.81
588.801	31574.39
588.999	31830.38
589.196	31431.03
589.393	31596.92
589.59	31484.28
589.787	31154.55
589.984	31125.88
590.182	30894.46
590.379	30927.23
590.576	30869.89
590.773	30665.09
590.97	30806.4
591.167	30820.74
591.364	30374.28
591.561	30210.44
591.758	29784.46
591.955	30140.81
592.152	30476.68
592.349	30065.03
592.546	29983.12
592.743	30062.99
592.94	29634.96
593.137	29804.94
593.334	29573.52
593.531	29215.13
593.727	29381.01
593.924	29573.52
594.121	29251.99
594.318	29264.28
594.515	28873.12
594.712	29346.2
594.908	29059.48
595.105	28928.41
595.302	28887.45
595.499	29233.56
595.696	28676.51
595.892	28373.41
596.089	28701.09
596.286	28623.26
596.482	28660.13
596.679	28428.71
596.876	28354.98
597.072	27701.68
597.269	27994.54
597.466	27888.04
597.662	27935.15
597.859	27961.77
598.055	27818.41
598.252	27574.7
598.448	27619.76
598.645	27371.96
598.841	27277.75
599.038	27603.38
599.234	27175.35
599.431	27287.99
599.627	27138.49
599.824	27040.18
600.02	26859.96
600.217	27232.69
600.413	26503.62
600.609	26399.17
600.806	26171.85
601.002	26610.11
601.198	26315.2
601.395	26364.36
601.591	26134.98
601.787	26575.3
601.984	26444.23
602.18	26368.45
602.376	25561.55
602.572	26087.88
602.769	25614.8
602.965	25475.54
603.161	25719.24
603.357	25498.06
603.553	25369.04
603.75	25659.85
603.946	24963.54
604.142	25592.27
604.338	25027.03
604.534	25147.86
604.73	24887.77
604.926	25416.15
605.122	25133.53
605.318	24887.77
605.514	24660.45
605.71	24750.56
605.906	24490.46
606.102	24609.25
606.298	24728.03
606.494	24414.69
606.69	24572.38
606.886	24517.09
607.082	23996.9
607.278	24527.33
607.474	23914.98
607.67	24191.46
607.866	24048.1
608.062	24236.52
608.257	24089.06
608.453	23943.66
608.649	24093.16
608.845	23745
609.041	23720.43
609.236	23935.46
609.432	23853.55
609.628	23450.1
609.824	23642.6
610.019	23517.68
610.215	23595.5
610.411	23443.95
610.606	23476.72
610.802	23554.54
610.998	23284.21
611.193	23540.21
611.389	23065.08
611.584	22991.35
611.78	22835.7
611.976	22884.86
612.171	23130.61
612.367	23147
612.562	22931.96
612.758	22778.36
612.953	22714.87
613.149	22977.01
613.344	22620.67
613.539	22751.74
613.735	22757.88
613.93	22721.02
614.126	22458.88
614.321	22700.54
614.517	22497.79
614.712	22460.93
614.907	22168.07
615.103	22594.04
615.298	22338.05
615.493	22522.37
615.688	22266.37
615.884	22710.78
616.079	22053.38
616.274	22225.41
616.47	22333.95
616.665	21959.17
616.86	22016.52
617.055	21877.26
617.25	22041.09
617.445	21959.17
617.641	21434.89
617.836	21969.41
618.031	21574.16
618.226	21924.36
618.421	21457.42
618.616	21527.05
618.811	21432.85
619.006	21787.14
619.201	21322.26
619.396	21674.51
619.591	20824.6
619.786	20914.71
619.981	20699.67
620.176	21088.79
620.371	20709.91
620.566	20888.09
620.761	20644.38
620.956	20816.41
621.151	20300.32
621.346	20470.3
621.541	19982.88
621.735	20589.08
621.93	19761.7
622.125	20232.74
622.32	19810.86
622.515	19636.78
622.709	19554.86
622.904	19601.96
623.099	19597.87
623.294	19386.93
623.488	19364.4
623.683	19241.52
623.878	19151.41
624.072	19141.17
624.267	19008.05
624.462	18819.64
624.656	18911.8
624.851	18526.78
625.046	18393.66
625.24	18686.52
625.435	18332.22
625.629	18326.08
625.824	18207.3
626.018	18154.05
626.213	18018.88
626.407	17738.31
626.602	17748.55
626.796	17900.1
626.991	17668.68
627.185	17687.11
627.38	17359.44
627.574	17244.75
627.768	17207.89
627.963	16986.71
628.157	16906.84
628.352	17093.2
628.546	16826.96
628.74	16892.5
628.935	16591.45
629.129	16642.65
629.323	16378.46
629.517	16431.71
629.712	16351.84
629.906	16335.45
630.1	16341.6
630.294	16122.46
630.489	16089.7
630.683	16058.98
630.877	15667.81
631.071	15667.81
631.265	15764.07
631.459	15643.24
631.653	15604.33
631.848	15436.39
632.042	15297.13
632.236	15458.92
632.43	15073.9
632.624	15243.88
632.818	15139.44
633.012	14758.52
633.206	15028.85
633.4	15063.66
633.594	14641.78
633.788	14781.04
633.982	14705.27
634.176	14363.26
634.369	14379.64
634.563	14088.83
634.757	14348.92
634.951	14357.11
635.145	14146.17
635.339	14344.83
635.533	14049.92
635.726	14111.36
635.92	13902.47
636.114	13918.85
636.308	13828.74
636.501	13742.72
636.695	13613.7
636.889	13513.35
637.083	13441.67
637.276	13345.42
637.47	13238.92
637.664	13333.13
637.857	13243.02
638.051	13052.56
638.244	13103.76
638.438	12944.02
638.632	12771.99
638.825	12829.33
639.019	12896.91
639.212	12759.7
639.406	12524.18
639.599	12534.42
639.793	12647.06
639.986	12526.23
640.18	12462.74
640.373	12444.31
640.567	12173.98
640.76	12235.42
640.954	12010.14
641.147	12196.51
641.34	11993.76
641.534	11903.65
641.727	12047.01
641.92	11748
642.114	11578.02
642.307	11776.67
642.5	11451.05
642.694	11520.68
642.887	11444.9
643.08	11608.74
643.273	11428.52
643.467	11367.08
643.66	11283.11
643.853	11047.6
644.046	11104.94
644.239	11262.63
644.432	11193
644.626	10879.66
644.819	10891.95
645.012	10846.9
645.205	10902.19
645.398	10734.26
645.591	10701.49
645.784	10654.39
645.977	10437.3
646.17	10414.77
646.363	10392.25
646.556	10441.4
646.749	10445.49
646.942	10312.38
647.135	10463.93
647.328	10207.93
647.521	10332.86
647.714	10060.48
647.907	10261.18
648.099	9921.21
648.292	10099.39
648.485	10083
648.678	9820.86
648.871	9753.28
649.064	9726.66
649.256	9761.47
649.449	9683.65
649.642	9536.2
649.835	9470.66
650.027	9622.21
650.22	9476.8
650.413	9218.76
650.605	9349.83
650.798	9355.97
650.991	9192.14
651.183	9185.99
651.376	9030.35
651.568	9200.33
651.761	9104.07
651.954	9159.37
652.146	9132.75
652.339	8940.24
652.531	8862.41
652.724	8909.52
652.916	8846.03
653.109	8780.5
653.301	8686.29
653.494	8567.51
653.686	8700.62
653.879	8772.3
654.071	8403.67
654.263	8458.96
654.456	8420.05
654.648	8514.26
654.84	8360.66
655.033	8291.03
655.225	8282.84
655.417	8071.9
655.61	8063.71
655.802	8121.05
655.994	7932.64
656.186	8071.9
656.379	8149.72
656.571	8063.71
656.763	8039.13
656.955	7809.76
657.148	7762.65
657.34	7850.72
657.532	7770.85
657.724	7793.37
657.916	7756.51
658.108	7717.6
658.3	7584.48
658.492	7488.23
658.684	7434.98
658.876	7557.86
659.068	7463.65
659.26	7496.42
659.452	7301.86
659.644	7279.33
659.836	7404.26
660.028	7273.19
660.22	7275.24
660.412	7244.52
660.604	7064.3
660.796	7224.04
660.988	6961.9
661.18	6998.76
661.372	7025.39
661.563	7045.87
661.755	6871.79
661.947	6890.22
662.139	7064.3
662.331	6789.87
662.522	6902.51
662.714	6726.38
662.906	6683.38
663.097	6703.86
663.289	6714.09
663.481	6623.98
663.673	6451.95
663.864	6460.15
664.056	6394.61
664.247	6589.17
664.439	6331.12
664.631	6515.44
664.822	6472.43
665.014	6415.09
665.205	6310.65
665.397	6466.29
665.588	6316.79
665.78	6185.72
665.971	6165.24
666.163	6159.1
666.354	6095.61
666.546	6232.82
666.737	6050.55
666.929	6034.17
667.12	6089.46
667.311	6071.03
667.503	6109.94
667.694	6077.18
667.885	5921.53
668.077	5821.18
668.268	5919.48
668.459	5899
668.651	5880.57
668.842	5669.63
669.033	5681.92
669.224	5673.73
669.416	5778.17
669.607	5767.93
669.798	5612.29
669.989	5669.63
670.18	5532.42
670.371	5663.49
670.563	5493.51
670.754	5481.22
670.945	5450.5
671.136	5436.16
671.327	5491.46
671.518	5540.61
671.709	5595.9
671.9	5417.73
672.091	5280.52
672.282	5221.13
672.473	5380.87
672.664	5397.25
672.855	5415.68
673.046	5257.99
673.237	5384.96
673.428	5290.76
673.619	5274.37
673.809	5198.6
674	5155.59
674.191	5301
674.382	5114.63
674.573	5192.45
674.764	5075.72
674.954	5063.43
675.145	5001.99
675.336	5065.48
675.527	5004.04
675.717	5059.34
675.908	4961.03
676.099	4889.35
676.289	5065.48
676.48	4940.55
676.671	4944.65
676.861	4844.3
677.052	4930.31
677.243	4868.88
677.433	4842.25
677.624	4913.93
677.814	4887.31
678.005	4836.11
678.195	4866.83
678.386	4748.04
678.576	4741.9
678.767	4705.04
678.957	4754.19
679.148	4850.44
679.338	4766.48
679.529	4858.64
679.719	4584.21
679.909	4809.48
680.1	4623.12
680.29	4705.04
680.481	4729.61
680.671	4586.26
680.861	4576.02
681.052	4743.95
681.242	4549.39
681.432	4535.06
681.622	4535.06
681.813	4553.49
682.003	4557.58
682.193	4350.74
682.383	4645.65
682.573	4449.04
682.764	4541.2
682.954	4514.58
683.144	4444.95
683.334	4320.02
683.524	4444.95
683.714	4410.13
683.904	4395.79
684.094	4522.77
684.284	4524.82
684.474	4385.55
684.664	4191
684.854	4307.73
685.044	4356.88
685.234	4317.97
685.424	4234
685.614	4293.4
685.804	4250.39
685.994	4137.75
686.184	4207.38
686.374	4193.05
686.564	4129.56
686.753	4219.67
686.943	4248.34
687.133	4082.46
687.323	4191
687.513	4184.85
687.702	3986.2
687.892	4088.6
688.082	4061.98
688.272	4039.45
688.461	4010.78
688.651	3955.48
688.841	4018.97
689.03	4004.63
689.22	3973.91
689.41	3877.66
689.599	3869.47
689.789	3914.52
689.979	3822.36
690.168	3773.21
690.358	3887.9
690.547	3793.69
690.737	3922.71
690.926	3754.78
691.116	3877.66
691.305	3785.5
691.495	3826.46
691.684	3674.91
691.874	3693.34
692.063	3654.43
692.252	3652.38
692.442	3629.85
692.631	3650.33
692.82	3588.89
693.01	3650.33
693.199	3574.56
693.388	3521.31
693.578	3492.64
693.767	3486.5
693.956	3543.84
694.146	3406.63
694.335	3470.11
694.524	3453.73
694.713	3539.74
694.902	3445.54
695.092	3472.16
695.281	3476.26
695.47	3453.73
695.659	3386.15
695.848	3425.06
696.037	3283.75
696.226	3283.75
696.415	3351.33
696.604	3300.13
696.793	3447.58
696.982	3343.14
697.171	3277.6
697.36	3429.15
697.549	3406.63
697.738	3253.03
697.927	3226.4
698.116	3259.17
698.305	3298.08
698.494	3289.89
698.683	3343.14
698.872	3373.86
699.061	3169.06
699.25	3160.87
699.438	3216.16
699.627	3121.96
699.816	3248.93
700.005	3255.08
700.193	3175.2
700.382	3158.82
700.571	3308.32
700.76	3164.97
700.948	3238.69
701.137	3339.04
701.326	3126.05
701.514	3093.29
701.703	3177.25
701.892	3124.01
702.08	3263.27
702.269	3326.75
702.457	3134.25
702.646	3173.16
702.834	3066.66
703.023	3242.79
703.212	3205.92
703.4	3201.83
703.589	3117.86
703.777	3275.56
703.965	3128.1
704.154	3095.33
704.342	3220.26
704.531	3064.61
704.719	3183.4
704.907	3040.04
705.096	3154.73
705.284	3083.05
705.472	3029.8
705.661	3099.43
705.849	3134.25
706.037	3085.09
706.226	3052.33
706.414	3132.2
706.602	3109.67
706.79	3078.95
706.979	3044.13
707.167	2986.79
707.355	2956.07
707.543	2982.7
707.731	3046.18
707.919	3158.82
708.107	3003.18
708.296	3007.27
708.484	3033.9
708.672	3007.27
708.86	3126.05
709.048	3019.56
709.236	3064.61
709.424	2997.03
709.612	3160.87
709.8	2994.98
709.988	2913.06
710.176	2857.77
710.364	2964.26
710.551	3121.96
710.739	3101.48
710.927	2964.26
711.115	3115.81
711.303	2945.83
711.491	2865.96
711.679	3003.18
711.866	2951.98
712.054	2958.12
712.242	2970.41
712.43	3087.14
712.617	3033.9
712.805	2949.93
712.993	3021.61
713.181	2892.59
713.368	2810.67
713.556	2947.88
713.744	3085.09
713.931	3003.18
714.119	3050.28
714.306	2927.4
714.494	3007.27
714.682	3048.23
714.869	2943.78
715.057	2954.02
715.244	2870.06
715.432	2999.08
715.619	2921.26
715.807	2857.77
715.994	2853.67
716.182	2874.15
716.369	2945.83
716.556	2947.88
716.744	2802.47
716.931	2968.36
717.119	2962.22
717.306	2994.98
717.493	2974.5
717.681	2898.73
717.868	2892.59
718.055	2933.54
718.242	2943.78
718.43	2833.19
718.617	2911.02
718.804	2806.57
718.991	2863.91
719.179	2841.39
719.366	2894.63
719.553	2872.11
719.74	2857.77
719.927	2876.2
720.114	2978.6
720.301	2847.53
720.488	2861.87
720.676	2790.19
720.863	2911.02
721.05	2880.3
721.237	2847.53
721.424	2835.24
721.611	3023.66
721.798	2939.69
721.985	3003.18
722.172	2827.05
722.358	2853.67
722.545	3011.37
722.732	2880.3
722.919	2894.63
723.106	2812.71
723.293	2964.26
723.48	2921.26
723.667	2927.4
723.853	2698.03
724.04	2917.16
724.227	2884.39
724.414	2933.54
724.6	2806.57
724.787	2837.29
724.974	2818.86
725.161	2865.96
725.347	2851.63
725.534	2825
725.72	2800.43
725.907	2827.05
726.094	2816.81
726.28	2802.47
726.467	2796.33
726.653	2812.71
726.84	2736.94
727.027	2958.12
727.213	2773.8
727.4	2804.52
727.586	2857.77
727.773	2822.95
727.959	2859.82
728.145	2816.81
728.332	2790.19
728.518	2845.48
728.705	2777.9
728.891	2794.28
729.077	2777.9
729.264	2798.38
729.45	2855.72
729.636	2937.64
729.823	2794.28
730.009	2818.86
730.195	2781.99
730.382	2894.63
730.568	2818.86
730.754	2734.89
730.94	2759.47
731.126	2898.73
731.313	2845.48
731.499	2810.67
731.685	2800.43
731.871	2962.22
732.057	2810.67
732.243	2804.52
732.429	2786.09
732.615	2841.39
732.801	2900.78
732.987	2773.8
733.173	2884.39
733.359	2855.72
733.545	2822.95
733.731	2779.95
733.917	2781.99
734.103	2880.3
734.289	2820.91
734.475	2784.04
734.661	2837.29
734.847	2825
735.033	2765.61
735.219	2790.19
735.404	2822.95
735.59	2724.65
735.776	2851.63
735.962	2825
736.148	2870.06
736.333	2720.56
736.519	2673.45
736.705	2843.43
736.89	2693.93
737.076	2681.64
737.262	2820.91
737.447	2659.12
737.633	2734.89
737.819	2603.82
738.004	2716.46
738.19	2552.62
738.375	2708.27
738.561	2798.38
738.747	2620.21
738.932	2720.56
739.118	2589.49
739.303	2702.12
739.489	2661.16
739.674	2624.3
739.859	2681.64
740.045	2681.64
740.23	2642.73
740.416	2677.55
740.601	2779.95
740.786	2669.36
740.972	2569.01
741.157	2546.48
741.342	2642.73
741.528	2564.91
741.713	2552.62
741.898	2536.24
742.084	2626.35
742.269	2642.73
742.454	2550.57
742.639	2550.57
742.824	2548.53
743.01	2548.53
743.195	2474.8
743.38	2603.82
743.565	2624.3
743.75	2542.38
743.935	2478.9
744.12	2507.57
744.305	2470.7
744.49	2478.9
744.675	2444.08
744.86	2431.79
745.045	2501.42
745.23	2421.55
745.415	2511.66
745.6	2491.18
745.785	2452.27
745.97	2489.14
746.155	2384.69
746.34	2442.03
746.525	2396.98
746.71	2462.51
746.895	2296.63
747.079	2362.16
747.264	2183.99
747.449	2386.74
747.634	2296.63
747.819	2229.04
748.003	2165.56
748.188	2235.19
748.373	2181.94
748.557	2243.38
748.742	2126.64
748.927	2253.62
749.111	2167.6
749.296	2194.23
749.481	2292.53
749.665	2128.69
749.85	2018.1
750.034	2091.83
750.219	2120.5
750.404	2026.29
750.588	2104.12
750.773	2020.15
750.957	1909.56
751.141	2073.4
751.326	2073.4
751.51	1997.62
751.695	2007.86
751.879	1895.22
752.064	1932.09
752.248	1876.79
752.432	2003.77
752.617	1854.27
752.801	1923.9
752.985	1862.46
753.17	1835.83
753.354	1940.28
753.538	1921.85
753.722	1837.88
753.907	1874.74
754.091	1751.87
754.275	1819.45
754.459	1721.15
754.643	1719.1
754.828	1901.37
755.012	1762.11
755.196	1633.08
755.38	1762.11
755.564	1698.62
755.748	1739.58
755.932	1729.34
756.116	1686.33
756.3	1686.33
756.484	1555.26
756.668	1727.29
756.852	1704.76
757.036	1616.7
757.22	1585.98
757.404	1571.65
757.588	1655.61
757.772	1588.03
757.956	1549.12
758.14	1557.31
758.323	1567.55
758.507	1499.97
758.691	1516.35
758.875	1588.03
759.059	1469.25
759.242	1555.26
759.426	1495.87
759.61	1475.39
759.794	1502.01
759.977	1493.82
760.161	1485.63
760.345	1530.69
760.528	1346.37
760.712	1389.38
760.895	1463.1
761.079	1399.62
761.263	1301.31
761.446	1319.75
761.63	1444.67
761.813	1385.28
761.997	1387.33
762.18	1325.89
762.364	1241.92
762.547	1239.87
762.731	1391.42
762.914	1385.28
763.098	1254.21
763.281	1368.9
763.464	1332.03
763.648	1188.68
763.831	1274.69
764.015	1262.4
764.198	1309.51
764.381	1323.84
764.564	1221.44
764.748	1268.55
764.931	1286.98
765.114	1315.65
765.297	1315.65
765.481	1239.87
765.664	1233.73
765.847	1336.13
766.03	1305.41
766.213	1258.31
766.397	1198.92
766.58	1184.58
766.763	1266.5
766.946	1164.1
767.129	1143.62
767.312	1233.73
767.495	1194.82
767.678	1309.51
767.861	1057.61
768.044	1272.64
768.227	1188.68
768.41	1172.29
768.593	1233.73
768.776	1170.24
768.959	1164.1
769.142	1184.58
769.324	1022.79
769.507	1117
769.69	1153.86
769.873	1094.47
770.056	1127.24
770.239	1155.91
770.421	1131.33
770.604	1016.65
770.787	1061.7
770.97	1143.62
771.152	1117
771.335	1016.65
771.518	1069.89
771.7	1194.82
771.883	1117
772.066	1045.32
772.248	1098.56
772.431	992.07
772.613	1004.36
772.796	1082.18
772.978	975.69
773.161	998.21
773.343	973.64
773.526	904.01
773.708	959.3
773.891	1010.5
774.073	1006.41
774.256	992.07
774.438	1090.37
774.621	961.35
774.803	928.58
774.985	936.78
775.168	996.17
775.35	924.49
775.532	932.68
775.715	906.06
775.897	910.15
776.079	987.97
776.261	918.34
776.444	869.19
776.626	848.71
776.808	863.05
776.99	834.38
777.173	940.87
777.355	826.18
777.537	936.78
777.719	801.61
777.901	918.34
778.083	779.08
778.265	848.71
778.447	817.99
778.629	813.9
778.811	846.66
778.993	758.6
779.175	805.71
779.357	799.56
779.539	748.36
779.721	811.85
779.903	717.64
780.085	742.22
780.267	752.46
780.449	842.57
780.631	648.01
780.812	699.21
780.994	758.6
781.176	617.29
781.358	758.6
781.54	664.4
781.721	701.26
781.903	639.82
782.085	656.2
782.267	688.97
782.448	713.55
782.63	686.92
782.812	627.53
782.993	725.83
783.175	670.54
783.357	637.77
783.538	588.62
783.72	617.29
783.901	668.49
784.083	592.72
784.264	611.15
784.446	637.77
784.627	566.09
784.809	660.3
784.99	600.91
785.172	605
785.353	580.43
785.535	535.37
785.716	566.09
785.897	576.33
786.079	547.66
786.26	557.9
786.441	521.04
786.623	543.57
786.804	598.86
786.985	539.47
787.167	564.04
787.348	475.98
787.529	494.41
787.71	596.81
787.891	562
788.073	531.28
788.254	447.31
788.435	535.37
788.616	539.47
788.797	533.33
788.978	537.42
789.159	537.42
789.34	523.09
789.522	449.36
789.703	498.51
789.884	439.12
790.065	406.35
790.246	379.73
790.427	418.64
790.607	432.97
790.788	500.56
790.969	471.89
791.15	469.84
791.331	379.73
791.512	537.42
791.693	398.16
791.874	389.97
792.054	508.75
792.235	488.27
792.416	338.77
792.597	400.21
792.778	422.73
792.958	435.02
793.139	516.94
793.32	359.25
793.5	344.91
793.681	430.93
793.862	394.06
794.042	451.41
794.223	398.16
794.404	416.59
794.584	377.68
794.765	392.02
794.945	318.29
795.126	445.26
795.306	445.26
795.487	295.76
795.667	428.88
795.848	310.1
796.028	349.01
796.209	357.2
796.389	371.54
796.57	291.66
796.75	340.82
796.93	287.57
797.111	330.58
797.291	387.92
797.471	340.82
797.652	265.04
797.832	342.86
798.012	297.81
798.192	344.91
798.373	342.86
798.553	396.11
798.733	346.96
798.913	256.85
799.093	310.1
799.274	375.63
799.454	310.1
799.634	316.24
799.814	275.28
799.994	340.82
800.174	310.1
800.354	273.23
800.534	336.72
800.714	211.79
800.894	265.04
801.074	277.33
801.254	285.52
801.434	324.43
801.614	297.81
801.794	234.32
801.974	727.88
802.154	330.58
802.334	289.62
802.514	273.23
802.693	299.86
802.873	265.04
803.053	289.62
803.233	254.8
803.413	293.71
803.592	242.51
803.772	201.55
803.952	242.51
804.131	310.1
804.311	224.08
804.491	217.94
804.67	242.51
804.85	314.19
805.03	209.75
805.209	262.99
805.389	301.9
805.568	185.17
805.748	295.76
805.928	207.7
806.107	308.05
806.287	342.86
806.466	265.04
806.646	238.42
806.825	213.84
807.004	279.38
807.184	258.9
807.363	254.8
807.543	189.27
807.722	181.07
807.901	293.71
808.081	234.32
808.26	226.13
808.439	260.95
808.619	273.23
808.798	172.88
808.977	162.64
809.156	258.9
809.336	215.89
809.515	246.61
809.694	228.18
809.873	222.03
810.052	183.12
810.231	291.66
810.411	209.75
810.59	201.55
810.769	252.75
810.948	164.69
811.127	150.36
811.306	211.79
811.485	230.23
811.664	158.55
811.843	228.18
812.022	209.75
812.201	109.4
812.38	203.6
812.559	209.75
812.737	205.65
812.916	230.23
813.095	246.61
813.274	213.84
813.453	138.07
813.632	119.64
813.811	236.37
813.989	191.31
814.168	160.59
814.347	207.7
814.526	103.25
814.704	238.42
814.883	195.41
815.062	164.69
815.24	246.61
815.419	195.41
815.598	250.71
815.776	160.59
815.955	179.03
816.133	123.73
816.312	133.97
816.49	203.6
816.669	86.87
816.847	201.55
817.026	170.83
817.204	244.56
817.383	215.89
817.561	150.36
817.74	121.68
817.918	117.59
818.097	174.93
818.275	170.83
818.453	191.31
818.632	162.64
818.81	176.98
818.988	131.92
819.167	136.02
819.345	160.59
819.523	179.03
819.701	217.94
819.879	131.92
820.058	179.03
820.236	121.68
820.414	209.75
820.592	105.3
820.77	88.92
820.948	136.02
821.127	152.4
821.305	144.21
821.483	86.87
821.661	191.31
821.839	148.31
822.017	136.02
822.195	131.92
822.373	193.36
822.551	119.64
822.729	148.31
822.907	179.03
823.085	150.36
823.262	162.64
823.44	156.5
823.618	125.78
823.796	127.83
823.974	111.44
824.152	72.53
824.329	113.49
824.507	203.6
824.685	117.59
824.863	146.26
825.04	90.96
825.218	56.15
825.396	136.02
825.574	117.59
825.751	127.83
825.929	142.16
826.107	109.4
826.284	125.78
826.462	156.5
826.639	113.49
826.817	144.21
826.994	201.55
827.172	140.12
827.349	88.92
827.527	131.92
827.704	107.35
827.882	133.97
828.059	113.49
828.237	47.96
828.414	156.5
828.591	150.36
828.769	82.77
828.946	111.44
829.124	113.49
829.301	119.64
829.478	88.92
829.655	23.38
829.833	164.69
830.01	76.63
830.187	129.88
830.364	144.21
830.542	103.25
830.719	97.11
830.896	115.54
831.073	82.77
831.25	142.16
831.427	97.11
831.604	115.54
831.782	115.54
831.959	148.31
832.136	99.16
832.313	90.96
832.49	101.2
832.667	140.12
832.844	150.36
833.021	127.83
833.198	136.02
833.374	80.72
833.551	136.02
833.728	131.92
833.905	107.35
834.082	68.44
834.259	117.59
834.436	111.44
834.612	43.86
834.789	140.12
834.966	31.57
835.143	76.63
835.319	111.44
835.496	76.63
835.673	64.34
835.85	109.4
836.026	68.44
836.203	97.11
836.38	41.81
836.556	95.06
836.733	84.82
836.909	226.13
837.086	107.35
837.262	97.11
837.439	33.62
837.616	21.33
837.792	74.58
837.968	43.86
838.145	52.05
838.321	74.58
838.498	179.03
838.674	76.63
838.851	21.33
839.027	107.35
839.203	62.29
839.38	86.87
839.556	82.77
839.732	62.29
839.909	41.81
840.085	107.35
840.261	-5.29
840.437	99.16
840.614	88.92
840.79	113.49
840.966	97.11
841.142	54.1
841.318	25.43
841.494	107.35
841.671	95.06
841.847	125.78
842.023	50
842.199	15.19
842.375	97.11
842.551	58.2
842.727	33.62
842.903	70.48
843.079	70.48
843.255	47.96
843.431	74.58
843.607	72.53
843.783	127.83
843.959	9.05
844.134	84.82
844.31	99.16
844.486	15.19
844.662	72.53
844.838	43.86
845.013	129.88
845.189	52.05
845.365	90.96
845.541	86.87
845.716	64.34
845.892	80.72
846.068	9.05
846.244	86.87
846.419	74.58
846.595	37.72
846.77	50
846.946	35.67
847.122	105.3
847.297	-60.59
847.473	70.48
847.648	101.2
847.824	11.09
847.999	64.34
848.175	109.4
848.35	27.48
848.526	50
848.701	62.29
848.876	62.29
849.052	84.82
849.227	60.24
849.403	11.09
849.578	50
849.753	90.96
849.929	19.29
850.104	107.35
850.279	37.72
850.454	64.34
850.63	50
850.805	-31.91
850.98	62.29
851.155	72.53
851.33	113.49
851.505	54.1
851.681	107.35
851.856	56.15
852.031	76.63
852.206	58.2
852.381	19.29
852.556	76.63
852.731	13.14
852.906	47.96
853.081	9.05
853.256	148.31
853.431	31.57
853.606	58.2
853.781	43.86
853.956	21.33
854.131	54.1
854.305	-11.43
854.48	21.33
854.655	58.2
854.83	56.15
855.005	95.06
855.18	35.67
855.354	37.72
855.529	27.48
855.704	-11.43
855.879	37.72
856.053	78.68
856.228	35.67
856.403	41.81
856.577	-42.15
856.752	9.05
856.926	31.57
857.101	19.29
857.276	7
857.45	-3.24
857.625	62.29
857.799	70.48
857.974	62.29
858.148	11.09
858.323	-5.29
858.497	54.1
858.672	9.05
858.846	-3.24
859.02	15.19
859.195	97.11
859.369	70.48
859.543	-11.43
859.718	-31.91
859.892	41.81
860.066	54.1
860.241	7
860.415	39.76
860.589	84.82
860.763	13.14
860.938	31.57
861.112	54.1
861.286	50
861.46	95.06
861.634	-7.34
861.808	13.14
861.982	47.96
862.157	-1.19
862.331	-19.63
862.505	76.63
862.679	43.86
862.853	-1.19
863.027	27.48
863.201	-44.2
863.375	23.38
863.549	74.58
863.722	121.68
863.896	47.96
864.07	27.48
864.244	39.76
864.418	74.58
864.592	29.52
864.766	7
864.939	19.29
865.113	7
865.287	64.34
865.461	33.62
865.634	99.16
865.808	99.16
865.982	15.19
866.156	23.38
866.329	-7.34
866.503	9.05
866.676	68.44
866.85	50
867.024	43.86
867.197	13.14
867.371	62.29
867.544	17.24
867.718	60.24
867.891	56.15
868.065	84.82
868.238	-1.19
868.412	78.68
868.585	21.33
868.759	21.33
868.932	-15.53
869.105	72.53
869.279	29.52
869.452	23.38
869.625	-15.53
869.799	27.48
869.972	-9.39
870.145	72.53
870.319	54.1
870.492	37.72
870.665	-11.43
870.838	11.09
871.011	39.76
871.185	-54.44
871.358	0.85
871.531	15.19
871.704	-11.43
871.877	2.9
872.05	0.85
872.223	13.14
872.396	56.15
872.569	76.63
872.742	-1.19
872.915	78.68
873.088	-13.48
873.261	-52.39
873.434	39.76
873.607	37.72
873.78	0.85
873.953	-15.53
874.126	82.77
874.299	62.29
874.471	-31.91
874.644	76.63
874.817	23.38
874.99	78.68
875.163	58.2
875.335	11.09
875.508	-46.25
875.681	-29.87
875.853	86.87
876.026	-21.67
876.199	11.09
876.371	74.58
876.544	11.09
876.717	-11.43
876.889	58.2
877.062	29.52
877.234	-21.67
877.407	2.9
877.579	41.81
877.752	45.91
877.924	21.33
878.097	64.34
878.269	9.05
878.442	47.96
878.614	37.72
878.786	-15.53
878.959	9.05
879.131	58.2
879.303	50
879.476	-1.19
879.648	25.43
879.82	39.76
879.993	19.29
880.165	19.29
880.337	15.19
880.509	76.63
880.681	-5.29
880.854	-5.29
881.026	15.19
881.198	27.48
881.37	37.72
881.542	-27.82
881.714	58.2
881.886	-13.48
882.058	68.44
882.23	111.44
882.402	33.62
882.574	29.52
882.746	2.9
882.918	45.91
883.09	23.38
883.262	33.62
883.434	-19.63
883.606	-21.67
883.778	-11.43
883.95	66.39
884.122	-36.01
884.293	-1.19
884.465	-7.34
884.637	-1.19
884.809	37.72
884.98	2.9
885.152	39.76
885.324	86.87
885.496	-23.72
885.667	0.85
885.839	-13.48
886.011	45.91
886.182	-25.77
886.354	68.44
886.525	2.9
886.697	27.48
886.869	11.09
887.04	-36.01
887.212	52.05
887.383	50
887.555	-27.82
887.726	41.81
887.897	23.38
888.069	56.15
888.24	7
888.412	64.34
888.583	13.14
888.754	43.86
888.926	-36.01
889.097	4.95
889.268	41.81
889.44	62.29
889.611	4.95
889.782	37.72
889.953	2.9
890.125	45.91
890.296	13.14
890.467	76.63
890.638	76.63
890.809	23.38
890.98	17.24
891.151	54.1
891.323	-1.19
891.494	-17.58
891.665	43.86
891.836	-7.34
892.007	4.95
892.178	39.76
892.349	13.14
892.52	50
892.691	13.14
892.862	17.24
893.032	41.81
893.203	60.24
893.374	60.24
893.545	2.9
893.716	82.77
893.887	78.68
894.057	80.72
894.228	17.24
894.399	-23.72
894.57	39.76
894.74	-21.67
894.911	7
895.082	-33.96
895.253	37.72
895.423	23.38
895.594	50
895.764	50
895.935	0.85
896.106	19.29
896.276	45.91
896.447	-46.25
896.617	-97.45
896.788	23.38
896.958	-54.44
897.129	-17.58
897.299	13.14
897.47	37.72
897.64	41.81
897.81	-23.72
897.981	-50.35
898.151	-36.01
898.322	45.91
898.492	-29.87
898.662	33.62
898.832	7
899.003	95.06
899.173	33.62
899.343	15.19
899.513	-64.68
