Data from USB4F104151__17__11-44-36-254.txt Node

Date: Fri Mar 14 11:44:36 EDT 2025
User: louis
Spectrometer: USB4F10415
Trigger mode: 4
Integration Time (sec): 2.000000E-2
Scans to average: 1
Electric dark correction enabled: true
Nonlinearity correction enabled: false
Boxcar width: 0
XAxis mode: Wavelengths
Number of Pixels in Spectrum: 3648
>>>>>Begin Spectral Data<<<<<
178.204	-17.75
178.424	-17.75
178.644	-17.75
178.864	-50.52
179.084	-50.52
179.304	-21.85
179.524	4.78
179.744	6.83
179.964	45.74
180.184	-44.37
180.404	39.59
180.624	-17.75
180.844	58.03
181.064	-30.04
181.283	-5.46
181.503	-1.37
181.723	-34.13
181.943	12.97
182.163	27.31
182.383	0.68
182.602	-17.75
182.822	17.07
183.042	41.64
183.262	6.83
183.482	27.31
183.701	55.98
183.921	53.93
184.141	-5.46
184.361	-21.85
184.58	0.68
184.8	-9.56
185.02	-27.99
185.239	-23.89
185.459	15.02
185.679	101.03
185.898	-7.51
186.118	21.16
186.338	47.79
186.557	21.16
186.777	53.93
186.997	19.11
187.216	76.46
187.436	23.21
187.655	29.35
187.875	-9.56
188.095	25.26
188.314	10.92
188.534	2.73
188.753	12.97
188.973	15.02
189.192	78.51
189.412	23.21
189.631	70.31
189.851	4.78
190.07	2.73
190.29	2.73
190.509	41.64
190.729	-7.51
190.948	23.21
191.168	94.89
191.387	15.02
191.607	31.4
191.826	-11.61
192.045	53.93
192.265	62.12
192.484	131.75
192.704	29.35
192.923	49.83
193.142	47.79
193.362	27.31
193.581	-15.7
193.8	92.84
194.02	74.41
194.239	35.5
194.458	64.17
194.678	-83.28
194.897	58.03
195.116	29.35
195.335	19.11
195.555	-25.94
195.774	49.83
195.993	37.55
196.212	6.83
196.432	17.07
196.651	2.73
196.87	12.97
197.089	105.13
197.308	109.22
197.528	15.02
197.747	43.69
197.966	43.69
198.185	4.78
198.404	27.31
198.623	-21.85
198.842	68.27
199.062	-23.89
199.281	21.16
199.5	17.07
199.719	76.46
199.938	49.83
200.157	90.79
200.376	88.75
200.595	49.83
200.814	33.45
201.033	76.46
201.252	84.65
201.471	25.26
201.69	70.31
201.909	-44.37
202.128	6.83
202.347	62.12
202.566	17.07
202.785	29.35
203.004	-21.85
203.223	55.98
203.442	4.78
203.661	31.4
203.879	-1.37
204.098	19.11
204.317	-30.04
204.536	4.78
204.755	35.5
204.974	15.02
205.193	-68.95
205.411	51.88
205.63	86.7
205.849	80.55
206.068	68.27
206.287	58.03
206.505	-13.65
206.724	12.97
206.943	21.16
207.162	6.83
207.381	15.02
207.599	76.46
207.818	41.64
208.037	92.84
208.255	53.93
208.474	49.83
208.693	53.93
208.911	33.45
209.13	17.07
209.349	94.89
209.567	-27.99
209.786	41.64
210.005	21.16
210.223	21.16
210.442	39.59
210.661	10.92
210.879	72.36
211.098	-30.04
211.316	27.31
211.535	43.69
211.753	27.31
211.972	55.98
212.191	25.26
212.409	23.21
212.628	115.37
212.846	10.92
213.065	6.83
213.283	64.17
213.502	43.69
213.72	23.21
213.938	43.69
214.157	-15.7
214.375	64.17
214.594	86.7
214.812	113.32
215.031	29.35
215.249	58.03
215.467	84.65
215.686	37.55
215.904	-23.89
216.122	74.41
216.341	53.93
216.559	25.26
216.778	47.79
216.996	21.16
217.214	29.35
217.432	0.68
217.651	21.16
217.869	43.69
218.087	68.27
218.306	8.87
218.524	0.68
218.742	27.31
218.96	41.64
219.179	49.83
219.397	21.16
219.615	47.79
219.833	43.69
220.051	47.79
220.27	31.4
220.488	21.16
220.706	35.5
220.924	-50.52
221.142	101.03
221.36	51.88
221.578	88.75
221.796	27.31
222.015	23.21
222.233	78.51
222.451	72.36
222.669	23.21
222.887	121.51
223.105	-17.75
223.323	29.35
223.541	6.83
223.759	84.65
223.977	88.75
224.195	101.03
224.413	25.26
224.631	39.59
224.849	47.79
225.067	10.92
225.285	-7.51
225.503	17.07
225.721	12.97
225.939	86.7
226.157	31.4
226.375	113.32
226.592	-25.94
226.81	39.59
227.028	23.21
227.246	105.13
227.464	-15.7
227.682	43.69
227.9	82.6
228.117	-34.13
228.335	-5.46
228.553	6.83
228.771	88.75
228.989	-25.94
229.206	70.31
229.424	92.84
229.642	-11.61
229.86	58.03
230.077	137.9
230.295	64.17
230.513	-34.13
230.731	17.07
230.948	-5.46
231.166	68.27
231.384	35.5
231.601	-5.46
231.819	51.88
232.037	-38.23
232.254	23.21
232.472	2.73
232.689	31.4
232.907	15.02
233.125	39.59
233.342	17.07
233.56	47.79
233.777	27.31
233.995	-30.04
234.213	103.08
234.43	19.11
234.648	72.36
234.865	123.56
235.083	88.75
235.3	27.31
235.518	82.6
235.735	109.22
235.953	45.74
236.17	-27.99
236.388	23.21
236.605	19.11
236.822	72.36
237.04	39.59
237.257	0.68
237.475	31.4
237.692	109.22
237.909	70.31
238.127	10.92
238.344	47.79
238.562	33.45
238.779	-9.56
238.996	-9.56
239.214	-11.61
239.431	92.84
239.648	27.31
239.865	74.41
240.083	64.17
240.3	53.93
240.517	33.45
240.735	88.75
240.952	72.36
241.169	39.59
241.386	45.74
241.603	15.02
241.821	-17.75
242.038	92.84
242.255	-13.65
242.472	-32.08
242.689	31.4
242.907	125.61
243.124	-3.41
243.341	92.84
243.558	-7.51
243.775	-21.85
243.992	12.97
244.209	53.93
244.426	51.88
244.643	39.59
244.86	23.21
245.078	-5.46
245.295	88.75
245.512	17.07
245.729	23.21
245.946	6.83
246.163	8.87
246.38	45.74
246.597	90.79
246.814	-118.1
247.031	-17.75
247.248	76.46
247.464	80.55
247.681	96.94
247.898	-27.99
248.115	74.41
248.332	62.12
248.549	88.75
248.766	4.78
248.983	98.99
249.2	21.16
249.417	35.5
249.633	37.55
249.85	0.68
250.067	55.98
250.284	-15.7
250.501	53.93
250.717	37.55
250.934	60.07
251.151	-40.28
251.368	92.84
251.585	74.41
251.801	74.41
252.018	43.69
252.235	45.74
252.451	8.87
252.668	82.6
252.885	29.35
253.102	49.83
253.318	-27.99
253.535	68.27
253.752	45.74
253.968	39.59
254.185	-34.13
254.401	-3.41
254.618	8.87
254.835	55.98
255.051	80.55
255.268	23.21
255.484	31.4
255.701	62.12
255.917	60.07
256.134	47.79
256.351	53.93
256.567	-48.47
256.784	111.27
257	-15.7
257.217	84.65
257.433	84.65
257.65	66.22
257.866	68.27
258.082	53.93
258.299	37.55
258.515	21.16
258.732	4.78
258.948	47.79
259.165	6.83
259.381	17.07
259.597	80.55
259.814	23.21
260.03	76.46
260.246	10.92
260.463	51.88
260.679	35.5
260.895	-34.13
261.112	68.27
261.328	31.4
261.544	31.4
261.761	86.7
261.977	6.83
262.193	19.11
262.409	31.4
262.626	62.12
262.842	-3.41
263.058	-38.23
263.274	15.02
263.49	33.45
263.707	55.98
263.923	-5.46
264.139	-7.51
264.355	4.78
264.571	84.65
264.787	21.16
265.004	60.07
265.22	72.36
265.436	78.51
265.652	66.22
265.868	-27.99
266.084	-1.37
266.3	21.16
266.516	8.87
266.732	-13.65
266.948	12.97
267.164	49.83
267.38	6.83
267.596	-3.41
267.812	-1.37
268.028	-27.99
268.244	10.92
268.46	90.79
268.676	43.69
268.892	29.35
269.108	39.59
269.324	35.5
269.54	45.74
269.756	90.79
269.972	21.16
270.188	60.07
270.403	10.92
270.619	25.26
270.835	60.07
271.051	17.07
271.267	-1.37
271.483	2.73
271.698	86.7
271.914	68.27
272.13	17.07
272.346	10.92
272.562	80.55
272.777	35.5
272.993	-50.52
273.209	86.7
273.425	10.92
273.64	27.31
273.856	25.26
274.072	90.79
274.287	-5.46
274.503	12.97
274.719	62.12
274.934	-9.56
275.15	58.03
275.366	-25.94
275.581	35.5
275.797	55.98
276.012	12.97
276.228	53.93
276.444	78.51
276.659	47.79
276.875	21.16
277.09	66.22
277.306	80.55
277.521	55.98
277.737	2.73
277.952	62.12
278.168	90.79
278.383	29.35
278.599	29.35
278.814	2.73
279.03	109.22
279.245	-36.18
279.461	-21.85
279.676	58.03
279.892	-5.46
280.107	94.89
280.322	39.59
280.538	-1.37
280.753	0.68
280.969	-9.56
281.184	6.83
281.399	121.51
281.615	23.21
281.83	68.27
282.045	-21.85
282.26	39.59
282.476	72.36
282.691	51.88
282.906	45.74
283.122	82.6
283.337	103.08
283.552	17.07
283.767	12.97
283.983	53.93
284.198	43.69
284.413	51.88
284.628	45.74
284.843	35.5
285.058	51.88
285.274	27.31
285.489	2.73
285.704	76.46
285.919	21.16
286.134	0.68
286.349	-5.46
286.564	70.31
286.779	76.46
286.995	19.11
287.21	60.07
287.425	68.27
287.64	43.69
287.855	-87.38
288.07	-11.61
288.285	90.79
288.5	29.35
288.715	68.27
288.93	17.07
289.145	60.07
289.36	17.07
289.575	94.89
289.79	10.92
290.004	82.6
290.219	0.68
290.434	60.07
290.649	29.35
290.864	60.07
291.079	-38.23
291.294	45.74
291.509	45.74
291.724	17.07
291.938	-25.94
292.153	121.51
292.368	-3.41
292.583	15.02
292.798	6.83
293.012	-19.8
293.227	92.84
293.442	0.68
293.657	33.45
293.871	23.21
294.086	-1.37
294.301	39.59
294.516	33.45
294.73	6.83
294.945	4.78
295.16	-15.7
295.374	0.68
295.589	51.88
295.804	31.4
296.018	80.55
296.233	33.45
296.447	4.78
296.662	-30.04
296.877	25.26
297.091	101.03
297.306	90.79
297.52	27.31
297.735	-3.41
297.949	101.03
298.164	-5.46
298.378	84.65
298.593	-32.08
298.807	51.88
299.022	21.16
299.236	51.88
299.451	107.18
299.665	39.59
299.88	107.18
300.094	27.31
300.309	58.03
300.523	55.98
300.737	23.21
300.952	4.78
301.166	43.69
301.381	15.02
301.595	82.6
301.809	47.79
302.024	27.31
302.238	72.36
302.452	43.69
302.667	60.07
302.881	12.97
303.095	146.09
303.309	39.59
303.524	92.84
303.738	58.03
303.952	29.35
304.166	103.08
304.381	8.87
304.595	92.84
304.809	17.07
305.023	47.79
305.237	49.83
305.452	6.83
305.666	21.16
305.88	68.27
306.094	53.93
306.308	43.69
306.522	45.74
306.736	60.07
306.95	58.03
307.164	45.74
307.379	-15.7
307.593	51.88
307.807	94.89
308.021	109.22
308.235	41.64
308.449	-5.46
308.663	31.4
308.877	51.88
309.091	29.35
309.305	-27.99
309.519	21.16
309.733	-5.46
309.947	-66.9
310.161	39.59
310.374	10.92
310.588	119.46
310.802	6.83
311.016	12.97
311.23	6.83
311.444	74.41
311.658	49.83
311.872	25.26
312.085	43.69
312.299	17.07
312.513	117.42
312.727	96.94
312.941	15.02
313.154	-9.56
313.368	133.8
313.582	109.22
313.796	-3.41
314.009	6.83
314.223	58.03
314.437	27.31
314.651	76.46
314.864	10.92
315.078	23.21
315.292	-5.46
315.505	53.93
315.719	31.4
315.933	-9.56
316.146	60.07
316.36	15.02
316.573	45.74
316.787	55.98
317.001	84.65
317.214	-11.61
317.428	33.45
317.641	-32.08
317.855	-32.08
318.068	45.74
318.282	80.55
318.495	8.87
318.709	60.07
318.922	31.4
319.136	37.55
319.349	58.03
319.563	0.68
319.776	86.7
319.99	-13.65
320.203	27.31
320.417	-50.52
320.63	33.45
320.843	148.14
321.057	33.45
321.27	-3.41
321.483	51.88
321.697	113.32
321.91	53.93
322.124	90.79
322.337	15.02
322.55	33.45
322.763	127.66
322.977	31.4
323.19	45.74
323.403	84.65
323.617	23.21
323.83	51.88
324.043	12.97
324.256	-1.37
324.469	76.46
324.683	82.6
324.896	58.03
325.109	-15.7
325.322	74.41
325.535	98.99
325.748	70.31
325.962	74.41
326.175	55.98
326.388	12.97
326.601	33.45
326.814	127.66
327.027	80.55
327.24	45.74
327.453	27.31
327.666	-23.89
327.879	31.4
328.092	64.17
328.305	-32.08
328.518	62.12
328.731	37.55
328.944	19.11
329.157	19.11
329.37	60.07
329.583	35.5
329.796	137.9
330.009	-17.75
330.222	86.7
330.435	74.41
330.648	33.45
330.861	2.73
331.073	-1.37
331.286	47.79
331.499	82.6
331.712	-42.32
331.925	47.79
332.138	39.59
332.35	47.79
332.563	68.27
332.776	29.35
332.989	-1.37
333.202	31.4
333.414	12.97
333.627	0.68
333.84	49.83
334.053	-13.65
334.265	76.46
334.478	33.45
334.691	15.02
334.903	4.78
335.116	53.93
335.329	6.83
335.541	-7.51
335.754	17.07
335.966	31.4
336.179	68.27
336.392	-36.18
336.604	21.16
336.817	23.21
337.029	31.4
337.242	47.79
337.454	64.17
337.667	27.31
337.88	8.87
338.092	66.22
338.305	-17.75
338.517	76.46
338.729	-19.8
338.942	43.69
339.154	-27.99
339.367	-15.7
339.579	27.31
339.792	51.88
340.004	66.22
340.217	58.03
340.429	58.03
340.641	107.18
340.854	49.83
341.066	10.92
341.278	23.21
341.491	27.31
341.703	78.51
341.915	31.4
342.128	92.84
342.34	21.16
342.552	-9.56
342.764	37.55
342.977	23.21
343.189	66.22
343.401	45.74
343.613	27.31
343.826	43.69
344.038	43.69
344.25	66.22
344.462	90.79
344.674	-30.04
344.886	29.35
345.099	129.7
345.311	27.31
345.523	105.13
345.735	-9.56
345.947	119.46
346.159	72.36
346.371	19.11
346.583	19.11
346.795	72.36
347.007	55.98
347.219	98.99
347.431	21.16
347.643	94.89
347.855	-34.13
348.067	109.22
348.279	51.88
348.491	60.07
348.703	8.87
348.915	72.36
349.127	10.92
349.339	55.98
349.551	6.83
349.763	96.94
349.975	109.22
350.187	23.21
350.399	125.61
350.61	-9.56
350.822	37.55
351.034	60.07
351.246	-15.7
351.458	68.27
351.669	23.21
351.881	117.42
352.093	49.83
352.305	12.97
352.517	27.31
352.728	119.46
352.94	23.21
353.152	6.83
353.363	37.55
353.575	31.4
353.787	98.99
353.999	66.22
354.21	-7.51
354.422	60.07
354.633	-7.51
354.845	33.45
355.057	-9.56
355.268	92.84
355.48	45.74
355.692	47.79
355.903	49.83
356.115	4.78
356.326	19.11
356.538	39.59
356.749	21.16
356.961	82.6
357.172	-13.65
357.384	27.31
357.595	82.6
357.807	41.64
358.018	21.16
358.23	60.07
358.441	96.94
358.653	94.89
358.864	29.35
359.075	-3.41
359.287	66.22
359.498	58.03
359.709	10.92
359.921	49.83
360.132	60.07
360.344	49.83
360.555	51.88
360.766	84.65
360.977	41.64
361.189	53.93
361.4	-32.08
361.611	35.5
361.823	55.98
362.034	78.51
362.245	31.4
362.456	41.64
362.667	113.32
362.879	94.89
363.09	60.07
363.301	72.36
363.512	70.31
363.723	2.73
363.935	33.45
364.146	72.36
364.357	-1.37
364.568	29.35
364.779	-3.41
364.99	55.98
365.201	39.59
365.412	-23.89
365.623	-27.99
365.834	62.12
366.045	72.36
366.256	66.22
366.467	68.27
366.678	111.27
366.889	39.59
367.1	62.12
367.311	109.22
367.522	35.5
367.733	47.79
367.944	80.55
368.155	47.79
368.366	70.31
368.577	15.02
368.788	121.51
368.999	-34.13
369.209	84.65
369.42	47.79
369.631	78.51
369.842	45.74
370.053	41.64
370.264	84.65
370.474	68.27
370.685	33.45
370.896	60.07
371.107	82.6
371.317	98.99
371.528	74.41
371.739	43.69
371.95	10.92
372.16	55.98
372.371	35.5
372.582	47.79
372.792	6.83
373.003	96.94
373.214	80.55
373.424	29.35
373.635	12.97
373.846	78.51
374.056	45.74
374.267	4.78
374.477	103.08
374.688	117.42
374.898	41.64
375.109	139.94
375.319	86.7
375.53	58.03
375.74	111.27
375.951	43.69
376.161	31.4
376.372	51.88
376.582	51.88
376.793	-3.41
377.003	27.31
377.214	88.75
377.424	10.92
377.635	53.93
377.845	80.55
378.055	62.12
378.266	-17.75
378.476	96.94
378.686	2.73
378.897	39.59
379.107	51.88
379.317	49.83
379.528	47.79
379.738	90.79
379.948	88.75
380.158	88.75
380.369	70.31
380.579	60.07
380.789	2.73
380.999	33.45
381.21	31.4
381.42	82.6
381.63	55.98
381.84	43.69
382.05	-25.94
382.261	66.22
382.471	66.22
382.681	84.65
382.891	109.22
383.101	39.59
383.311	6.83
383.521	80.55
383.731	47.79
383.941	141.99
384.151	-9.56
384.361	90.79
384.571	96.94
384.781	66.22
384.991	96.94
385.201	47.79
385.411	78.51
385.621	10.92
385.831	64.17
386.041	123.56
386.251	76.46
386.461	70.31
386.671	105.13
386.881	90.79
387.091	119.46
387.301	109.22
387.511	6.83
387.72	53.93
387.93	49.83
388.14	60.07
388.35	39.59
388.56	133.8
388.769	35.5
388.979	27.31
389.189	80.55
389.399	29.35
389.609	109.22
389.818	119.46
390.028	123.56
390.238	96.94
390.447	-19.8
390.657	94.89
390.867	43.69
391.076	29.35
391.286	115.37
391.496	41.64
391.705	37.55
391.915	127.66
392.125	53.93
392.334	64.17
392.544	70.31
392.753	92.84
392.963	72.36
393.172	137.9
393.382	72.36
393.591	82.6
393.801	15.02
394.01	55.98
394.22	109.22
394.429	64.17
394.639	43.69
394.848	103.08
395.058	82.6
395.267	96.94
395.477	29.35
395.686	113.32
395.895	111.27
396.105	60.07
396.314	82.6
396.524	92.84
396.733	107.18
396.942	123.56
397.152	29.35
397.361	86.7
397.57	47.79
397.78	84.65
397.989	70.31
398.198	168.62
398.407	123.56
398.617	84.65
398.826	203.43
399.035	125.61
399.244	103.08
399.453	109.22
399.663	70.31
399.872	109.22
400.081	72.36
400.29	146.09
400.499	58.03
400.708	137.9
400.917	164.52
401.127	133.8
401.336	121.51
401.545	84.65
401.754	174.76
401.963	127.66
402.172	101.03
402.381	17.07
402.59	58.03
402.799	221.86
403.008	170.66
403.217	137.9
403.426	154.28
403.635	146.09
403.844	172.71
404.053	68.27
404.262	80.55
404.471	70.31
404.68	199.34
404.888	170.66
405.097	107.18
405.306	141.99
405.515	84.65
405.724	121.51
405.933	162.47
406.142	195.24
406.35	94.89
406.559	172.71
406.768	189.1
406.977	154.28
407.185	207.53
407.394	185
407.603	248.49
407.812	223.91
408.02	268.97
408.229	287.4
408.438	254.63
408.646	225.96
408.855	244.39
409.064	248.49
409.272	285.35
409.481	336.55
409.69	309.93
409.898	268.97
410.107	367.27
410.315	273.06
410.524	365.22
410.733	371.37
410.941	295.59
411.15	371.37
411.358	326.31
411.567	395.94
411.775	338.6
411.984	402.08
412.192	363.17
412.401	400.04
412.609	506.53
412.818	432.8
413.026	477.86
413.234	539.3
413.443	488.1
413.651	553.63
413.86	477.86
414.068	539.3
414.276	527.01
414.485	492.2
414.693	678.56
414.901	758.43
415.11	692.9
415.318	682.66
415.526	690.85
415.734	717.47
415.943	723.62
416.151	823.97
416.359	826.01
416.567	858.78
416.776	922.27
416.984	1018.52
417.192	897.69
417.4	952.99
417.608	963.23
417.817	1039
418.025	1182.36
418.233	1059.48
418.441	1071.77
418.649	1157.79
418.857	1278.62
419.065	1204.89
419.273	1153.69
419.481	1305.24
419.689	1395.35
419.897	1401.49
420.105	1378.97
420.313	1540.76
420.521	1503.89
420.729	1571.47
420.937	1618.58
421.145	1753.74
421.353	1850
421.561	1796.75
421.769	1839.76
421.977	1995.4
422.185	2030.22
422.393	2030.22
422.601	2177.67
422.809	2128.52
423.017	2149
423.224	2325.13
423.432	2224.78
423.64	2349.7
423.848	2511.49
424.056	2310.79
424.263	2683.52
424.471	2701.95
424.679	2808.45
424.887	2941.57
425.094	2888.32
425.302	2980.48
425.51	3115.64
425.718	3179.13
425.925	3218.04
426.133	3445.37
426.341	3570.29
426.548	3842.67
426.756	3719.79
426.964	3811.95
427.171	3852.91
427.379	4092.52
427.586	4059.76
427.794	4461.16
428.001	4418.15
428.209	4594.28
428.417	4545.13
428.624	5028.45
428.832	4866.66
429.039	4739.68
429.247	4917.86
429.454	5274.2
429.662	5653.08
429.869	5472.86
430.076	5612.12
430.284	5519.96
430.491	5618.26
430.699	6130.25
430.906	6140.49
431.114	6232.65
431.321	6429.26
431.528	6613.57
431.736	6974.02
431.943	7232.06
432.15	7017.02
432.358	7137.85
432.565	7606.84
432.772	7651.89
432.979	7838.26
433.187	7928.37
433.394	8086.06
433.601	8567.34
433.808	8794.66
434.016	8720.93
434.223	8884.77
434.43	9452.06
434.637	9277.98
434.844	9974.29
435.052	10226.19
435.259	9994.77
435.466	10240.53
435.673	10152.46
435.88	10785.29
436.087	11168.26
436.294	11211.26
436.501	10854.92
436.708	11248.13
436.915	11518.46
437.122	12292.59
437.329	12018.16
437.537	12476.91
437.743	12513.77
437.95	12646.89
438.157	13165.03
438.364	13734.36
438.571	13763.03
438.778	13826.52
438.985	15272.39
439.192	14324.18
439.399	14913.99
439.606	14604.75
439.813	15241.67
440.02	16226.74
440.227	15770.04
440.433	15843.77
440.64	16402.86
440.847	16378.29
441.054	16703.92
441.261	18084.25
441.467	17717.66
441.674	17987.99
441.881	18610.57
442.088	18506.13
442.294	18379.15
442.501	18837.9
442.708	19243.4
442.914	19904.89
443.121	20918.64
443.328	20488.56
443.534	21434.72
443.741	20906.35
443.948	21002.6
444.154	22708.56
444.361	22055.26
444.568	22683.98
444.774	22411.6
444.981	22573.39
445.187	23509.32
445.394	24107.32
445.6	24068.41
445.807	26370.33
446.013	25035.05
446.22	25637.16
446.426	26183.96
446.633	27173.13
446.839	27924.74
447.046	26628.37
447.252	28092.67
447.459	28197.12
447.665	27939.07
447.871	29071.6
448.078	30886.1
448.284	29098.22
448.491	29903.07
448.697	30937.3
448.903	31539.4
449.11	31396.04
449.316	31424.72
449.522	31639.75
449.728	32438.46
449.935	32919.73
450.141	32702.65
450.347	33431.72
450.553	32510.14
450.76	32868.53
450.966	34078.88
451.172	33505.45
451.378	34273.44
451.584	33497.26
451.791	34379.93
451.997	34332.83
452.203	35072.15
452.409	35051.67
452.615	34867.35
452.821	33431.72
453.027	33421.48
453.233	34988.18
453.44	33376.43
453.646	33956
453.852	34474.14
454.058	35143.83
454.264	33403.05
454.47	34136.23
454.676	33542.31
454.882	34535.58
455.088	31525.07
455.294	32233.66
455.5	32680.12
455.705	33046.71
455.911	31817.93
456.117	30793.94
456.323	30513.37
456.529	28686.58
456.735	30265.56
456.941	29573.35
457.147	29028.59
457.352	28307.71
457.558	27654.4
457.764	27715.84
457.97	27699.46
458.176	26773.78
458.381	27072.78
458.587	25157.93
458.793	25594.15
458.999	24138.04
459.204	25635.11
459.41	24873.26
459.616	23492.93
459.821	23548.23
460.027	23003.47
460.233	22933.84
460.438	22038.87
460.644	22057.31
460.85	20994.41
461.055	20822.38
461.261	20687.22
461.466	19188.1
461.672	18530.7
461.878	19779.96
462.083	18702.73
462.289	18129.3
462.494	17936.79
462.7	17189.28
462.905	16802.22
463.111	17303.97
463.316	17361.31
463.522	17174.95
463.727	17013.16
463.932	17125.8
464.138	17062.31
464.343	17027.49
464.549	16644.52
464.754	16966.06
464.959	16808.36
465.165	16322.99
465.37	16230.83
465.575	15444.42
465.781	16003.51
465.986	16275.89
466.191	15634.88
466.397	15391.17
466.602	14651.85
466.807	15260.1
467.012	15157.7
467.218	15155.65
467.423	14893.51
467.628	14932.42
467.833	15536.57
468.038	15040.97
468.244	14715.34
468.449	15346.11
468.654	14846.41
468.859	14619.08
469.064	14551.5
469.269	13851.1
469.474	13973.97
469.679	14414.29
469.885	14066.13
470.09	14109.14
470.295	13881.81
470.5	13609.43
470.705	13816.28
470.91	13588.96
471.115	13410.78
471.32	13517.28
471.525	13511.13
471.73	13095.39
471.935	13117.92
472.139	12536.3
472.344	13033.96
472.549	12702.18
472.754	12554.73
472.959	12386.8
473.164	12005.88
473.369	11907.57
473.574	12300.78
473.778	12265.97
473.983	12089.84
474.188	12329.45
474.393	11543.03
474.598	11563.51
474.802	11553.27
475.007	11282.94
475.212	11362.81
475.417	11129.34
475.621	10965.51
475.826	11033.09
476.031	10875.4
476.235	10480.14
476.44	10775.05
476.645	10615.3
476.849	10621.45
477.054	10484.23
477.259	10183.18
477.463	10347.02
477.668	10127.89
477.872	10080.78
478.077	9959.95
478.282	9636.38
478.486	9925.14
478.691	9587.22
478.895	9630.23
479.1	9763.35
479.304	9544.22
479.509	9284.12
479.713	9341.47
479.918	9128.48
480.122	9067.04
480.326	9237.02
480.531	9124.38
480.735	9234.97
480.94	9017.89
481.144	9366.04
481.348	8960.55
481.553	9032.22
481.757	8647.21
481.961	9024.03
482.166	9028.13
482.37	8966.69
482.574	8628.77
482.778	8809
482.983	8925.73
483.187	8815.14
483.391	9001.51
483.595	8913.44
483.8	8774.18
484.004	8765.99
484.208	9007.65
484.412	8665.64
484.616	8901.15
484.821	8917.54
485.025	8684.07
485.229	9026.08
485.433	8708.65
485.637	8706.6
485.841	8618.54
486.045	8675.88
486.249	8757.8
486.453	8864.29
486.657	8835.62
486.861	8749.61
487.065	8749.61
487.269	8598.06
487.473	8563.24
487.677	8942.11
487.881	8927.78
488.085	8841.76
488.289	8854.05
488.493	8655.4
488.697	9083.42
488.901	8886.82
489.105	8976.93
489.309	8741.41
489.512	8923.68
489.716	8763.94
489.92	8731.17
490.124	8923.68
490.328	8933.92
490.531	8876.58
490.735	9134.62
490.939	9071.14
491.143	8962.59
491.346	9069.09
491.55	9067.04
491.754	9253.41
491.958	9398.81
492.161	9290.27
492.365	9148.96
492.569	9206.3
492.772	9433.63
492.976	9269.79
493.18	9478.68
493.383	9550.36
493.587	9679.38
493.79	9517.59
493.994	9511.45
494.197	9634.33
494.401	9746.97
494.605	9785.88
494.808	9939.48
495.012	10039.83
495.215	9984.53
495.419	9980.43
495.622	9988.63
495.825	10199.57
496.029	10129.94
496.232	10412.56
496.436	10242.57
496.639	10660.36
496.843	10533.39
497.046	10838.53
497.249	10906.12
497.453	11133.44
497.656	11010.56
497.859	10883.59
498.063	11186.69
498.266	11641.34
498.469	11307.52
498.673	11616.76
498.876	11934.2
499.079	11753.98
499.282	11586.04
499.485	12052.98
499.689	11944.44
499.892	12468.72
500.095	12306.93
500.298	12573.16
500.501	12454.38
500.705	12653.03
500.908	12917.22
501.111	13085.15
501.314	13312.48
501.517	12960.23
501.72	13378.01
501.923	13427.17
502.126	13574.62
502.329	14076.37
502.532	14197.2
502.735	13826.52
502.938	14129.62
503.141	14485.97
503.344	14791.11
503.547	14594.51
503.75	14873.03
503.953	14897.61
504.156	15063.49
504.359	15204.8
504.562	15362.5
504.765	15704.51
504.968	16026.04
505.17	15999.41
505.373	16099.76
505.576	16298.42
505.779	16372.14
505.982	16720.3
506.185	16755.11
506.387	16955.82
506.59	17056.17
506.793	17471.9
506.996	17295.78
507.198	18045.34
507.401	17652.13
507.604	18098.58
507.807	18471.31
508.009	18317.72
508.212	18669.97
508.415	18780.56
508.617	18872.71
508.82	19009.93
509.022	18991.5
509.225	19251.59
509.428	19448.19
509.63	19812.73
509.833	19908.99
510.035	20384.12
510.238	20222.33
510.44	20377.97
510.643	20644.21
510.845	20988.27
511.048	20742.51
511.25	21002.6
511.453	21119.34
511.655	22057.31
511.858	21676.38
512.06	22085.98
512.262	22034.78
512.465	22100.31
512.667	22440.28
512.87	22583.63
513.072	23195.98
513.274	23329.09
513.477	23271.75
513.679	23646.53
513.881	23640.39
514.084	24199.48
514.286	23841.09
514.488	24262.97
514.69	24934.7
514.893	24729.91
515.095	24930.61
515.297	24961.33
515.499	25342.25
515.701	25555.24
515.904	25846.05
516.106	26032.41
516.308	26417.43
516.51	26366.23
516.712	26296.6
516.914	26675.48
517.116	27099.41
517.318	27623.69
517.52	27447.56
517.722	27384.07
517.925	27568.39
518.127	28348.67
518.329	28274.94
518.531	28264.7
518.733	28809.46
518.935	28848.37
519.136	28719.35
519.338	29042.93
519.54	29448.43
519.742	29665.51
519.944	29395.18
520.146	30064.86
520.348	30197.98
520.55	30382.3
520.752	30238.94
520.954	30718.17
521.155	30787.8
521.357	31221.97
521.559	31439.05
521.761	31643.85
521.963	31373.52
522.164	32114.88
522.366	32112.83
522.568	32231.61
522.77	31973.57
522.971	32923.83
523.173	32549.05
523.375	33284.27
523.576	33013.94
523.778	33454.25
523.98	33585.32
524.181	33620.14
524.383	33607.85
524.584	33943.72
524.786	33949.86
524.988	34025.64
525.189	34322.59
525.391	34281.63
525.592	34408.61
525.794	34824.34
525.995	34656.41
526.197	34619.55
526.398	35053.72
526.6	34965.65
526.801	35692.68
527.003	35485.84
527.204	35373.2
527.406	35637.39
527.607	35811.46
527.808	35856.52
528.01	35719.31
528.211	35784.84
528.412	36429.95
528.614	36208.77
528.815	36133
529.016	36638.84
529.218	36059.27
529.419	36673.66
529.62	36565.12
529.822	36065.41
530.023	36520.06
530.224	36753.53
530.425	36724.86
530.626	36006.02
530.828	36270.21
531.029	37191.8
531.23	36284.54
531.431	37144.69
531.632	36984.95
531.833	37044.34
532.035	36724.86
532.236	37144.69
532.437	37142.64
532.638	36956.28
532.839	37027.96
533.04	37023.86
533.241	36720.76
533.442	37355.63
533.643	37232.75
533.844	37367.92
534.045	37232.75
534.246	36722.81
534.447	37208.18
534.648	37249.14
534.849	37062.77
535.05	37120.12
535.251	37472.37
535.451	37552.24
535.652	37159.03
535.853	37300.34
536.054	37204.08
536.255	37367.92
536.456	36550.78
536.657	37447.79
536.857	36890.74
537.058	36958.33
537.259	37255.28
537.46	37396.59
537.66	37044.34
537.861	37621.87
538.062	36884.6
538.263	37345.39
538.463	36788.35
538.664	37052.53
538.865	37204.08
539.065	37212.27
539.266	36653.18
539.466	37470.32
539.667	36520.06
539.868	37220.47
540.068	36776.06
540.269	36939.89
540.469	37175.41
540.67	36839.54
540.87	37240.95
541.071	36921.46
541.271	37425.26
541.472	37060.73
541.672	36966.52
541.873	36501.63
542.073	36472.96
542.274	37195.89
542.474	36747.39
542.675	36862.07
542.875	37525.61
543.075	36866.17
543.276	36710.52
543.476	36823.16
543.676	36743.29
543.877	36839.54
544.077	36812.92
544.277	36743.29
544.478	36675.71
544.678	37077.11
544.878	36546.68
545.078	36956.28
545.279	36477.05
545.479	36520.06
545.679	37103.73
545.879	36853.88
546.079	36757.63
546.28	36677.75
546.48	36483.2
546.68	36915.32
546.88	36606.08
547.08	36567.16
547.28	36307.07
547.48	36507.77
547.68	36468.86
547.88	36436.09
548.081	36765.82
548.281	36753.53
548.481	36536.45
548.681	36696.19
548.881	36393.09
549.081	36417.66
549.28	36315.26
549.48	36548.73
549.68	36235.39
549.88	36571.26
550.08	36391.04
550.28	36511.87
550.48	36376.7
550.68	36593.79
550.88	36311.17
551.08	36274.31
551.279	36444.29
551.479	36311.17
551.679	36288.64
551.879	36188.29
552.079	36892.79
552.278	36114.56
552.478	36268.16
552.678	36300.93
552.878	36147.33
553.077	36335.74
553.277	36059.27
553.477	36423.81
553.676	36335.74
553.876	36272.26
554.076	35870.86
554.275	35917.96
554.475	35604.62
554.674	36110.47
554.874	35704.97
555.074	35872.9
555.273	36165.76
555.473	35967.11
555.672	35713.16
555.872	35909.77
556.071	35661.96
556.271	36348.03
556.47	35885.19
556.67	35537.04
556.869	35657.87
557.068	35653.77
557.268	35733.64
557.467	35582.09
557.667	35551.37
557.866	35833.99
558.065	35262.61
558.265	35414.16
558.464	35686.54
558.663	35809.42
558.863	35457.17
559.062	35401.87
559.261	35104.92
559.461	35467.41
559.66	35287.18
559.859	35590.28
560.058	35031.19
560.258	34875.54
560.457	34664.6
560.656	35076.24
560.855	34963.61
561.054	35692.68
561.253	34945.17
561.453	35166.35
561.652	35055.76
561.851	35041.43
562.05	34824.34
562.249	34719.9
562.448	34988.18
562.647	34881.69
562.846	34275.49
563.045	34517.15
563.244	34486.43
563.443	34936.98
563.642	34132.13
563.841	34373.79
564.04	34287.78
564.239	34959.51
564.438	34312.35
564.637	34392.22
564.836	34244.77
565.035	33716.39
565.234	34365.6
565.432	34140.32
565.631	33853.61
565.83	34250.91
566.029	33859.75
566.228	33722.54
566.427	33937.57
566.625	33677.48
566.824	33028.27
567.023	33867.94
567.222	33048.75
567.42	34001.06
567.619	33861.8
567.818	33577.13
568.016	33683.62
568.215	33466.54
568.414	33368.24
568.612	33786.02
568.811	33317.04
569.01	33550.51
569.208	32653.5
569.407	33136.82
569.605	32803
569.804	33022.13
570.002	32690.36
570.201	33147.06
570.4	32747.7
570.598	32649.4
570.797	32649.4
570.995	32702.65
571.193	32444.6
571.392	32590.01
571.59	32417.98
571.789	32389.31
571.987	32362.68
572.186	32432.32
572.384	32137.41
572.582	32221.38
572.781	32278.72
572.979	31971.52
573.177	32229.57
573.376	32014.53
573.574	31690.95
573.772	31854.79
573.971	31684.81
574.169	31641.8
574.367	31547.59
574.565	31645.9
574.763	31211.73
574.962	31133.9
575.16	31033.55
575.358	31719.62
575.556	31146.19
575.754	31377.61
575.952	30982.35
576.151	31529.16
576.349	30685.4
576.547	30892.24
576.745	30603.48
576.943	30523.61
577.141	30851.28
577.339	30843.09
577.537	30867.67
577.735	30521.56
577.933	30314.72
578.131	30552.28
578.329	30550.23
578.527	30337.24
578.725	30277.85
578.923	30089.44
579.121	30275.8
579.319	29974.75
579.516	30091.49
579.714	30120.16
579.912	30032.1
580.11	29636.84
580.308	29794.53
580.506	29647.08
580.704	29296.88
580.901	29419.75
581.099	29704.42
581.297	29587.69
581.495	29319.4
581.692	29317.36
581.89	29014.26
582.088	29176.05
582.285	29262.06
582.483	29116.65
582.681	28909.81
582.878	28823.79
583.076	28608.76
583.274	28793.08
583.471	28414.2
583.669	28598.52
583.866	28385.53
584.064	28764.4
584.262	27902.21
584.459	28510.46
584.657	28438.78
584.854	28668.15
585.052	27924.74
585.249	28203.26
585.447	28086.53
585.644	27656.45
585.841	27830.53
586.039	28238.08
586.236	27605.25
586.434	27674.88
586.631	27664.64
586.828	27857.15
587.026	27810.05
587.223	27220.24
587.42	27545.86
587.618	27533.57
587.815	27197.71
588.012	27406.6
588.21	27226.38
588.407	27420.94
588.604	26724.63
588.801	26525.97
588.999	26790.16
589.196	26990.86
589.393	26716.43
589.59	26650.9
589.787	26212.63
589.984	26644.76
590.182	26382.62
590.379	26468.63
590.576	26171.68
590.773	26310.94
590.97	26300.7
591.167	26175.77
591.364	25821.47
591.561	25981.21
591.758	25905.44
591.955	25467.17
592.152	25878.82
592.349	25757.99
592.546	25811.23
592.743	25463.08
592.94	25526.57
593.137	25585.96
593.334	25471.27
593.531	25022.76
593.727	25393.45
593.924	25436.45
594.121	25127.21
594.318	25340.2
594.515	24779.06
594.712	24830.26
594.908	24613.17
595.105	24887.6
595.302	24500.53
595.499	24824.11
595.696	24547.64
595.892	24189.24
596.089	24439.09
596.286	24062.27
596.482	24355.13
596.679	24293.69
596.876	24387.89
597.072	23951.68
597.269	24314.17
597.466	24000.83
597.662	23875.9
597.859	24049.98
598.055	23808.32
598.252	23697.73
598.448	23431.49
598.645	23355.72
598.841	23429.45
599.038	23427.4
599.234	23507.27
599.431	23114.06
599.627	22944.08
599.824	23163.21
600.02	23238.98
600.217	23071.05
600.413	22982.99
600.609	22817.1
600.806	22585.68
601.002	22620.5
601.198	22899.02
601.395	22477.14
601.591	22473.04
601.787	22532.43
601.984	22427.99
602.18	22479.19
602.376	22202.71
602.572	22409.56
602.769	22419.8
602.965	21948.76
603.161	22133.08
603.357	22118.75
603.553	21666.14
603.75	21881.18
603.946	21524.83
604.142	21678.43
604.338	21537.12
604.534	21811.55
604.73	21477.73
604.926	21530.98
605.122	21416.29
605.318	21557.6
605.514	21143.91
605.71	21195.11
605.906	21287.27
606.102	21049.71
606.298	21225.83
606.494	21072.23
606.69	20894.06
606.886	21029.23
607.082	20605.3
607.278	21088.62
607.474	20597.1
607.67	20556.15
607.866	20701.55
608.062	21014.89
608.257	20521.33
608.453	20711.79
608.649	20541.81
608.845	20351.35
609.041	20554.1
609.236	20416.88
609.432	20300.15
609.628	20492.66
609.824	20380.02
610.019	20334.96
610.215	20162.93
610.411	20359.54
610.606	20128.12
610.802	20197.75
610.998	20195.7
611.193	20132.22
611.389	19532.16
611.584	20013.43
611.78	19851.64
611.976	20062.58
612.171	19911.03
612.367	20029.82
612.562	19851.64
612.758	19601.79
612.953	19650.94
613.149	19743.1
613.344	19323.27
613.539	19958.14
613.735	19589.5
613.93	19585.41
614.126	19515.78
614.321	19745.15
614.517	19433.86
614.712	19263.88
614.907	19296.64
615.103	19341.7
615.298	19227.01
615.493	19511.68
615.688	19337.6
615.884	19499.39
616.079	19106.18
616.274	18983.31
616.47	18915.72
616.665	19126.66
616.86	18850.19
617.055	19085.7
617.25	18823.56
617.445	19208.58
617.641	18481.55
617.836	18817.42
618.031	18620.81
618.226	18715.02
618.421	18880.91
618.616	18786.7
618.811	18538.9
619.006	18747.79
619.201	18237.84
619.396	18164.12
619.591	18041.24
619.786	18397.59
619.981	18016.66
620.176	18227.6
620.371	17758.62
620.566	18168.21
620.761	17797.53
620.956	18192.79
621.151	17570.21
621.346	18082.2
621.541	17572.25
621.735	17547.68
621.93	17371.55
622.125	17463.71
622.32	17113.51
622.515	17185.19
622.709	17281.44
622.904	17129.89
623.099	16871.85
623.294	16732.59
623.488	16538.03
623.683	16953.77
623.878	16499.12
624.072	16376.24
624.267	16523.69
624.462	16361.9
624.656	16114.1
624.851	16339.38
625.046	16165.3
625.24	16040.37
625.435	15729.08
625.629	15978.93
625.824	15970.74
626.018	15755.71
626.213	15231.43
626.407	15737.27
626.602	15247.81
626.796	15413.7
626.991	15157.7
627.185	15282.63
627.38	15114.69
627.574	14973.38
627.768	15122.88
627.963	14739.91
628.157	14594.51
628.352	14647.76
628.546	14420.43
628.74	14830.02
628.935	14557.64
629.129	14479.82
629.323	14389.71
629.517	14389.71
629.712	14254.55
629.906	14189.01
630.1	13980.12
630.294	13971.93
630.489	13760.98
630.683	13955.54
630.877	13769.18
631.071	13681.11
631.265	13666.78
631.459	13361.63
631.653	13556.19
631.848	13433.31
632.042	13044.2
632.236	13445.6
632.43	12954.08
632.624	13388.25
632.818	13158.88
633.012	12917.22
633.206	12868.07
633.4	13052.39
633.594	12696.04
633.788	12691.94
633.982	12790.25
634.176	12597.74
634.369	12517.87
634.563	12452.33
634.757	12356.08
634.951	12661.23
635.145	12102.13
635.339	12151.28
635.533	12132.85
635.726	12102.13
635.92	11958.77
636.114	12079.6
636.308	11962.87
636.501	11774.45
636.695	11899.38
636.889	11807.22
637.083	11616.76
637.276	11708.92
637.47	11567.61
637.664	11428.35
637.857	11493.88
638.051	11497.98
638.244	11309.57
638.438	11393.53
638.632	11334.14
638.825	11092.48
639.019	11145.73
639.212	11069.95
639.406	10936.84
639.599	10883.59
639.793	11012.61
639.986	10850.82
640.18	10836.49
640.373	10693.13
640.567	10371.6
640.76	10686.98
640.954	10646.02
641.147	10410.51
641.34	10357.26
641.534	10439.18
641.727	10402.32
641.92	10342.92
642.114	10254.86
642.307	10203.66
642.5	10211.85
642.694	9982.48
642.887	10142.22
643.08	10088.98
643.273	9882.13
643.467	9849.36
643.66	9554.46
643.853	9677.33
644.046	9691.67
644.239	9755.16
644.432	9792.02
644.626	9789.97
644.819	9415.19
645.012	9613.85
645.205	9439.77
645.398	9564.7
645.591	9284.12
645.784	9404.96
645.977	9257.5
646.17	9249.31
646.363	8981.03
646.556	9097.76
646.749	9042.46
646.942	8999.46
647.135	8950.31
647.328	8991.27
647.521	8813.09
647.714	8878.63
647.907	8718.89
648.099	8704.55
648.292	8700.45
648.485	8628.77
648.678	8667.69
648.871	8489.51
649.064	8419.88
649.256	8643.11
649.449	8419.88
649.642	8204.85
649.835	8239.66
650.027	8372.78
650.22	8292.91
650.413	8303.15
650.605	8004.14
650.798	7891.51
650.991	7973.42
651.183	7967.28
651.376	8041.01
651.568	7881.27
651.761	7862.83
651.954	7848.5
652.146	7856.69
652.339	7895.6
652.531	7778.87
652.724	7780.92
652.916	7572.02
653.109	7655.99
653.301	7766.58
653.494	7653.94
653.686	7381.56
653.879	7701.05
654.071	7395.9
654.263	7379.51
654.456	7381.56
654.648	7293.5
654.84	7029.31
655.033	7170.62
655.225	7107.13
655.417	7148.09
655.61	7359.03
655.802	7199.29
655.994	7002.69
656.186	7115.33
656.379	7068.22
656.571	7070.27
656.763	6928.96
656.955	6894.15
657.148	7103.04
657.34	6971.97
657.532	6898.24
657.724	6888
657.916	6750.79
658.108	6746.69
658.3	6613.57
658.492	6689.35
658.684	6697.54
658.876	6558.28
659.068	6451.78
659.26	6507.08
659.452	6568.52
659.644	6470.22
659.836	6314.57
660.028	6560.33
660.22	6246.99
660.412	6283.85
660.604	6122.06
660.796	6251.08
660.988	6341.19
661.18	6402.63
661.372	6017.61
661.563	6025.81
661.755	6130.25
661.947	6171.21
662.139	6074.96
662.331	6064.72
662.522	5954.13
662.714	5950.03
662.906	5845.59
663.097	5904.98
663.289	5995.09
663.481	5784.15
663.673	5851.73
663.864	5722.71
664.056	5661.27
664.247	5732.95
664.439	5530.2
664.631	5661.27
664.822	5800.53
665.014	5710.42
665.205	5466.71
665.397	5470.81
665.588	5581.4
665.78	5352.02
665.971	5599.83
666.163	5519.96
666.354	5442.14
666.546	5409.37
666.737	5395.03
666.929	5257.82
667.12	5261.91
667.311	5341.79
667.503	5186.14
667.694	5110.36
667.885	5100.12
668.077	5108.32
668.268	5141.08
668.459	5016.16
668.651	5177.95
668.842	5061.21
669.033	4997.73
669.224	5038.69
669.416	4989.53
669.607	5007.97
669.798	4766.31
669.989	4971.1
670.18	5069.41
670.371	4786.79
670.563	4885.09
670.754	4817.51
670.945	4688.48
671.136	4891.23
671.327	4575.84
671.518	4788.83
671.709	4737.63
671.9	4792.93
672.091	4772.45
672.282	4758.11
672.473	4590.18
672.664	4674.15
672.855	4633.19
673.046	4713.06
673.237	4733.54
673.428	4581.99
673.619	4405.86
673.809	4473.45
674	4483.69
674.191	4635.24
674.382	4471.4
674.573	4424.3
674.764	4391.53
674.954	4455.01
675.145	4373.1
675.336	4524.65
675.527	4416.1
675.717	4457.06
675.908	4358.76
676.099	4321.9
676.289	4379.24
676.48	4162.16
676.671	4352.62
676.861	4252.27
677.052	4170.35
677.243	4174.44
677.433	4323.94
677.624	4303.47
677.814	4088.43
678.005	4301.42
678.195	4051.56
678.386	4098.67
678.576	4063.85
678.767	4233.83
678.957	4239.98
679.148	4121.2
679.338	4119.15
679.529	4172.4
679.719	3922.54
679.909	4041.32
680.1	3893.87
680.29	4084.33
680.481	4065.9
680.671	4024.94
680.861	4063.85
681.052	4053.61
681.242	4117.1
681.432	4059.76
681.622	3932.78
681.813	3955.31
682.003	3979.89
682.193	4041.32
682.383	3852.91
682.573	3969.65
682.764	3742.32
682.954	3918.45
683.144	3814
683.334	3814
683.524	3852.91
683.714	3850.86
683.904	3844.72
684.094	3822.19
684.284	3834.48
684.474	3760.75
684.664	3703.41
684.854	3762.8
685.044	3709.55
685.234	3652.21
685.424	3648.11
685.614	3658.35
685.804	3646.07
685.994	3717.75
686.184	3660.4
686.374	3674.74
686.564	3684.98
686.753	3689.07
686.943	3644.02
687.133	3558
687.323	3644.02
687.513	3486.33
687.702	3584.63
687.892	3543.67
688.082	3422.84
688.272	3519.09
688.461	3480.18
688.651	3388.02
688.841	3467.89
689.03	3562.1
689.22	3449.46
689.41	3285.62
689.599	3342.97
689.789	3338.87
689.979	3431.03
690.168	3273.34
690.358	3297.91
690.547	3250.81
690.737	3234.43
690.926	3222.14
691.116	3244.67
691.305	3218.04
691.495	3107.45
691.684	3121.79
691.874	3132.03
692.063	3175.03
692.252	3132.03
692.442	3074.68
692.631	3097.21
692.82	3041.92
693.01	3082.88
693.199	3007.1
693.388	2974.33
693.578	3105.4
693.767	2945.66
693.956	2972.29
694.146	2824.83
694.335	2931.33
694.524	2828.93
694.713	2931.33
694.902	2937.47
695.092	2865.79
695.281	2929.28
695.47	2845.31
695.659	2798.21
695.848	2837.12
696.037	2927.23
696.226	2824.83
696.415	2857.6
696.604	2726.53
696.793	2691.71
696.982	2798.21
697.171	2738.82
697.36	2767.49
697.549	2718.34
697.738	2730.62
697.927	2769.54
698.116	2663.04
698.305	2599.56
698.494	2724.48
698.683	2574.98
698.872	2697.86
699.061	2638.47
699.25	2564.74
699.438	2626.18
699.627	2669.19
699.816	2538.12
700.005	2546.31
700.193	2525.83
700.382	2695.81
700.571	2673.28
700.76	2507.4
700.948	2640.51
701.137	2632.32
701.326	2525.83
701.514	2505.35
701.703	2505.35
701.892	2470.53
702.08	2495.11
702.269	2415.24
702.457	2540.16
702.646	2550.4
702.834	2396.81
703.023	2509.44
703.212	2419.33
703.4	2491.01
703.589	2402.95
703.777	2493.06
703.965	2515.59
704.154	2441.86
704.342	2433.67
704.531	2511.49
704.719	2402.95
704.907	2458.25
705.096	2405
705.284	2359.94
705.472	2411.14
705.661	2343.56
705.849	2405
706.037	2425.48
706.226	2269.83
706.414	2376.33
706.602	2267.78
706.79	2409.09
706.979	2445.96
707.167	2335.37
707.355	2405
707.543	2347.65
707.731	2224.78
707.919	2329.22
708.107	2261.64
708.296	2325.13
708.484	2269.83
708.672	2347.65
708.86	2292.36
709.048	2366.09
709.236	2245.26
709.424	2273.93
709.612	2425.48
709.8	2310.79
709.988	2331.27
710.176	2321.03
710.364	2353.8
710.551	2292.36
710.739	2136.71
710.927	2312.84
711.115	2261.64
711.303	2165.39
711.491	2237.06
711.679	2275.98
711.866	2351.75
712.054	2194.06
712.242	2232.97
712.43	2290.31
712.617	2263.69
712.805	2237.06
712.993	2235.02
713.181	2247.3
713.368	2222.73
713.556	2265.74
713.744	2304.65
713.931	2259.59
714.119	2259.59
714.306	2222.73
714.494	2196.11
714.682	2196.11
714.869	2161.29
715.057	2370.18
715.244	2200.2
715.432	2200.2
715.619	2206.35
715.807	2237.06
715.994	2202.25
716.182	2286.22
716.369	2269.83
716.556	2263.69
716.744	2116.23
716.931	2173.58
717.119	2204.3
717.306	2206.35
717.493	2175.63
717.681	2210.44
717.868	2235.02
718.055	2230.92
718.242	2263.69
718.43	2226.82
718.617	2192.01
718.804	2128.52
718.991	2290.31
719.179	2298.5
719.366	2235.02
719.553	2212.49
719.74	2259.59
719.927	2149
720.114	2263.69
720.301	2210.44
720.488	2077.32
720.676	2245.26
720.863	2175.63
721.05	2226.82
721.237	2243.21
721.424	2079.37
721.611	2222.73
721.798	2218.63
721.985	2194.06
722.172	2165.39
722.358	2241.16
722.545	2206.35
722.732	2192.01
722.919	2237.06
723.106	2187.91
723.293	2218.63
723.48	2124.43
723.667	2286.22
723.853	2253.45
724.04	2155.15
724.227	2187.91
724.414	2218.63
724.6	2151.05
724.787	2101.9
724.974	2206.35
725.161	2253.45
725.347	2185.87
725.534	2251.4
725.72	2333.32
725.907	2278.02
726.094	2226.82
726.28	2151.05
726.467	2214.54
726.653	2169.48
726.84	2116.23
727.027	2192.01
727.213	2232.97
727.4	2202.25
727.586	2175.63
727.773	2183.82
727.959	2062.99
728.145	2220.68
728.332	2298.5
728.518	2245.26
728.705	2284.17
728.891	2218.63
729.077	2384.52
729.264	2325.13
729.45	2237.06
729.636	2284.17
729.823	2226.82
730.009	2212.49
730.195	2220.68
730.382	2271.88
730.568	2316.94
730.754	2232.97
730.94	2247.3
731.126	2173.58
731.313	2335.37
731.499	2265.74
731.685	2374.28
731.871	2366.09
732.057	2321.03
732.243	2316.94
732.429	2269.83
732.615	2210.44
732.801	2257.54
732.987	2368.13
733.173	2259.59
733.359	2349.7
733.545	2278.02
733.731	2292.36
733.917	2241.16
734.103	2224.78
734.289	2241.16
734.475	2278.02
734.661	2308.74
734.847	2435.72
735.033	2255.5
735.219	2257.54
735.404	2179.72
735.59	2218.63
735.776	2302.6
735.962	2355.85
736.148	2218.63
736.333	2280.07
736.519	2259.59
736.705	2376.33
736.89	2304.65
737.076	2382.47
737.262	2308.74
737.447	2232.97
737.633	2341.51
737.819	2302.6
738.004	2296.46
738.19	2232.97
738.375	2308.74
738.561	2267.78
738.747	2331.27
738.932	2271.88
739.118	2402.95
739.303	2206.35
739.489	2298.5
739.674	2138.76
739.859	2273.93
740.045	2310.79
740.23	2306.7
740.416	2210.44
740.601	2323.08
740.786	2296.46
740.972	2175.63
741.157	2159.24
741.342	2177.67
741.528	2232.97
741.713	2239.11
741.898	2232.97
742.084	2286.22
742.269	2181.77
742.454	2169.48
742.639	2189.96
742.824	2335.37
743.01	2167.43
743.195	2097.8
743.38	2198.15
743.565	2136.71
743.75	2134.67
743.935	2103.95
744.12	2177.67
744.305	2153.1
744.49	2175.63
744.675	2136.71
744.86	2159.24
745.045	2202.25
745.23	2194.06
745.415	2112.14
745.6	2079.37
745.785	2019.98
745.97	2079.37
746.155	2124.43
746.34	2163.34
746.525	2108.04
746.71	2071.18
746.895	2050.7
747.079	2071.18
747.264	1960.59
747.449	2030.22
747.634	2052.75
747.819	1921.68
748.003	1968.78
748.188	1901.2
748.373	1940.11
748.557	1823.37
748.742	1968.78
748.927	1843.85
749.111	1956.49
749.296	1897.1
749.481	1997.45
749.665	1866.38
749.85	1856.14
750.034	1897.1
750.219	1852.05
750.404	1811.09
750.588	1856.14
750.773	1763.98
750.957	1800.85
751.141	1845.9
751.326	1774.22
751.51	1673.87
751.695	1850
751.879	1766.03
752.064	1735.31
752.248	1696.4
752.432	1671.83
752.617	1745.55
752.801	1714.83
752.985	1698.45
753.17	1757.84
753.354	1696.4
753.538	1680.02
753.722	1624.72
753.907	1731.22
754.091	1698.45
754.275	1510.04
754.459	1634.96
754.643	1501.84
754.828	1528.47
755.012	1567.38
755.196	1563.28
755.38	1526.42
755.564	1485.46
755.748	1487.51
755.932	1665.68
756.116	1446.55
756.3	1479.32
756.484	1438.36
756.668	1483.41
756.852	1344.15
757.036	1493.65
757.22	1538.71
757.404	1434.26
757.588	1454.74
757.772	1344.15
757.956	1372.82
758.14	1413.78
758.323	1477.27
758.507	1321.62
758.691	1360.53
758.875	1395.35
759.059	1460.88
759.242	1389.21
759.426	1385.11
759.61	1381.01
759.794	1323.67
759.977	1503.89
760.161	1407.64
760.345	1288.85
760.528	1239.7
760.712	1378.97
760.895	1303.19
761.079	1241.75
761.263	1325.72
761.446	1264.28
761.63	1223.32
761.813	1235.61
761.997	1262.23
762.18	1239.7
762.364	1231.51
762.547	1235.61
762.731	1272.47
762.914	1299.09
763.098	1221.27
763.281	1147.55
763.464	1198.74
763.648	1184.41
763.831	1149.59
764.015	1155.74
764.198	1135.26
764.381	1174.17
764.564	1141.4
764.748	1157.79
764.931	1235.61
765.114	1120.92
765.297	1161.88
765.481	1096.35
765.664	1213.08
765.847	1061.53
766.03	1079.96
766.213	1120.92
766.397	1073.82
766.58	1041.05
766.763	1034.91
766.946	1077.91
767.129	1067.67
767.312	1053.34
767.495	1174.17
767.678	1071.77
767.861	1055.39
768.044	1014.43
768.227	1049.24
768.41	1024.67
768.593	1016.48
768.776	989.85
768.959	996
769.142	1022.62
769.324	1045.15
769.507	1012.38
769.69	1014.43
769.873	1022.62
770.056	1028.76
770.239	977.56
770.421	977.56
770.604	979.61
770.787	850.59
770.97	930.46
771.152	959.13
771.335	977.56
771.518	1020.57
771.7	977.56
771.883	1043.1
772.066	1000.09
772.248	971.42
772.431	965.28
772.613	983.71
772.796	854.69
772.978	879.26
773.161	969.37
773.343	965.28
773.526	881.31
773.708	858.78
773.891	864.93
774.073	942.75
774.256	850.59
774.438	981.66
774.621	838.3
774.803	936.6
774.985	809.63
775.168	889.5
775.35	799.39
775.532	891.55
775.715	768.67
775.897	764.58
776.079	836.25
776.261	793.25
776.444	856.73
776.626	727.71
776.808	764.58
776.99	729.76
777.173	750.24
777.355	764.58
777.537	756.38
777.719	764.58
777.901	778.91
778.083	768.67
778.265	711.33
778.447	742.05
778.629	723.62
778.811	797.34
778.993	735.9
779.175	688.8
779.357	684.7
779.539	733.86
779.721	750.24
779.903	633.5
780.085	815.77
780.267	660.13
780.449	643.74
780.631	699.04
780.812	590.5
780.994	664.22
781.176	670.37
781.358	656.03
781.54	668.32
781.721	666.27
781.903	582.31
782.085	606.88
782.267	586.4
782.448	637.6
782.63	664.22
782.812	613.03
782.993	543.39
783.175	561.83
783.357	588.45
783.538	651.94
783.72	621.22
783.901	527.01
784.083	567.97
784.264	567.97
784.446	561.83
784.627	498.34
784.809	557.73
784.99	539.3
785.172	565.92
785.353	539.3
785.535	512.67
785.716	563.87
785.897	529.06
786.079	584.35
786.26	563.87
786.441	477.86
786.623	477.86
786.804	537.25
786.985	527.01
787.167	508.58
787.348	469.67
787.529	397.99
787.71	492.2
787.891	520.87
788.073	438.95
788.254	459.43
788.435	395.94
788.616	438.95
788.797	492.2
788.978	393.89
789.159	383.65
789.34	459.43
789.522	471.72
789.703	459.43
789.884	430.76
790.065	428.71
790.246	522.91
790.427	416.42
790.607	453.28
790.788	455.33
790.969	373.41
791.15	395.94
791.331	455.33
791.512	389.8
791.693	344.74
791.874	359.08
792.054	477.86
792.235	371.37
792.416	365.22
792.597	430.76
792.778	375.46
792.958	348.84
793.139	334.5
793.32	387.75
793.5	338.6
793.681	314.02
793.862	326.31
794.042	334.5
794.223	320.17
794.404	324.26
794.584	352.93
794.765	303.78
794.945	359.08
795.126	412.32
795.306	414.37
795.487	279.21
795.667	404.13
795.848	332.45
796.028	361.13
796.209	316.07
796.389	373.41
796.57	322.21
796.75	307.88
796.93	285.35
797.111	293.54
797.291	377.51
797.471	383.65
797.652	287.4
797.832	338.6
798.012	320.17
798.192	322.21
798.373	277.16
798.553	299.69
798.733	264.87
798.913	256.68
799.093	316.07
799.274	330.41
799.454	293.54
799.634	295.59
799.814	291.49
799.994	264.87
800.174	287.4
800.354	285.35
800.534	266.92
800.714	264.87
800.894	260.77
801.074	240.3
801.254	236.2
801.434	240.3
801.614	289.45
801.794	205.48
801.974	623.27
802.154	215.72
802.334	191.14
802.514	232.1
802.693	242.34
802.873	187.05
803.053	371.37
803.233	271.01
803.413	193.19
803.592	236.2
803.772	273.06
803.952	311.97
804.131	223.91
804.311	277.16
804.491	207.53
804.67	246.44
804.85	266.92
805.03	230.06
805.209	363.17
805.389	299.69
805.568	191.14
805.748	240.3
805.928	199.34
806.107	271.01
806.287	215.72
806.466	277.16
806.646	242.34
806.825	209.58
807.004	303.78
807.184	236.2
807.363	207.53
807.543	252.58
807.722	250.53
807.901	195.24
808.081	135.85
808.26	176.81
808.439	154.28
808.619	242.34
808.798	223.91
808.977	209.58
809.156	252.58
809.336	187.05
809.515	197.29
809.694	164.52
809.873	213.67
810.052	221.86
810.231	309.93
810.411	182.95
810.59	242.34
810.769	174.76
810.948	238.25
811.127	160.42
811.306	215.72
811.485	170.66
811.664	209.58
811.843	185
812.022	148.14
812.201	228.01
812.38	164.52
812.559	191.14
812.737	314.02
812.916	189.1
813.095	141.99
813.274	223.91
813.453	127.66
813.632	248.49
813.811	174.76
813.989	76.46
814.168	207.53
814.347	209.58
814.526	137.9
814.704	197.29
814.883	144.04
815.062	111.27
815.24	162.47
815.419	197.29
815.598	205.48
815.776	158.38
815.955	281.25
816.133	158.38
816.312	152.23
816.49	176.81
816.669	111.27
816.847	162.47
817.026	176.81
817.204	72.36
817.383	148.14
817.561	135.85
817.74	207.53
817.918	119.46
818.097	70.31
818.275	197.29
818.453	125.61
818.632	121.51
818.81	256.68
818.988	131.75
819.167	94.89
819.345	117.42
819.523	160.42
819.701	197.29
819.879	131.75
820.058	129.7
820.236	131.75
820.414	98.99
820.592	176.81
820.77	133.8
820.948	127.66
821.127	88.75
821.305	137.9
821.483	96.94
821.661	160.42
821.839	148.14
822.017	139.94
822.195	31.4
822.373	182.95
822.551	150.18
822.729	131.75
822.907	195.24
823.085	197.29
823.262	174.76
823.44	156.33
823.618	113.32
823.796	115.37
823.974	113.32
824.152	111.27
824.329	92.84
824.507	107.18
824.685	129.7
824.863	182.95
825.04	96.94
825.218	84.65
825.396	121.51
825.574	115.37
825.751	107.18
825.929	185
826.107	107.18
826.284	96.94
826.462	111.27
826.639	205.48
826.817	103.08
826.994	139.94
827.172	12.97
827.349	189.1
827.527	76.46
827.704	96.94
827.882	121.51
828.059	58.03
828.237	-32.08
828.414	137.9
828.591	84.65
828.769	123.56
828.946	129.7
829.124	174.76
829.301	119.46
829.478	150.18
829.655	92.84
829.833	68.27
830.01	41.64
830.187	29.35
830.364	88.75
830.542	160.42
830.719	144.04
830.896	109.22
831.073	80.55
831.25	144.04
831.427	90.79
831.604	101.03
831.782	58.03
831.959	160.42
832.136	25.26
832.313	154.28
832.49	70.31
832.667	111.27
832.844	113.32
833.021	80.55
833.198	119.46
833.374	86.7
833.551	125.61
833.728	107.18
833.905	64.17
834.082	96.94
834.259	168.62
834.436	187.05
834.612	86.7
834.789	76.46
834.966	105.13
835.143	150.18
835.319	121.51
835.496	111.27
835.673	64.17
835.85	68.27
836.026	82.6
836.203	131.75
836.38	53.93
836.556	60.07
836.733	86.7
836.909	72.36
837.086	103.08
837.262	88.75
837.439	96.94
837.616	4.78
837.792	10.92
837.968	53.93
838.145	45.74
838.321	103.08
838.498	17.07
838.674	144.04
838.851	96.94
839.027	-5.46
839.203	101.03
839.38	60.07
839.556	23.21
839.732	37.55
839.909	82.6
840.085	66.22
840.261	72.36
840.437	62.12
840.614	47.79
840.79	72.36
840.966	162.47
841.142	105.13
841.318	60.07
841.494	-21.85
841.671	43.69
841.847	55.98
842.023	51.88
842.199	10.92
842.375	105.13
842.551	62.12
842.727	41.64
842.903	103.08
843.079	17.07
843.255	119.46
843.431	55.98
843.607	41.64
843.783	-15.7
843.959	98.99
844.134	72.36
844.31	33.45
844.486	62.12
844.662	76.46
844.838	72.36
845.013	23.21
845.189	4.78
845.365	131.75
845.541	51.88
845.716	45.74
845.892	137.9
846.068	72.36
846.244	-52.56
846.419	43.69
846.595	119.46
846.77	39.59
846.946	62.12
847.122	66.22
847.297	47.79
847.473	125.61
847.648	53.93
847.824	76.46
847.999	0.68
848.175	55.98
848.35	37.55
848.526	60.07
848.701	76.46
848.876	64.17
849.052	84.65
849.227	53.93
849.403	66.22
849.578	111.27
849.753	80.55
849.929	98.99
850.104	51.88
850.279	47.79
850.454	51.88
850.63	45.74
850.805	96.94
850.98	117.42
851.155	2.73
851.33	37.55
851.505	64.17
851.681	107.18
851.856	41.64
852.031	-30.04
852.206	19.11
852.381	8.87
852.556	29.35
852.731	101.03
852.906	33.45
853.081	53.93
853.256	62.12
853.431	58.03
853.606	33.45
853.781	82.6
853.956	78.51
854.131	-1.37
854.305	-19.8
854.48	-36.18
854.655	80.55
854.83	35.5
855.005	96.94
855.18	76.46
855.354	0.68
855.529	37.55
855.704	25.26
855.879	53.93
856.053	8.87
856.228	123.56
856.403	78.51
856.577	82.6
856.752	53.93
856.926	23.21
857.101	37.55
857.276	-9.56
857.45	47.79
857.625	27.31
857.799	39.59
857.974	72.36
858.148	-7.51
858.323	68.27
858.497	53.93
858.672	-30.04
858.846	51.88
859.02	66.22
859.195	17.07
859.369	37.55
859.543	12.97
859.718	-21.85
859.892	88.75
860.066	105.13
860.241	25.26
860.415	-23.89
860.589	-40.28
860.763	35.5
860.938	-36.18
861.112	96.94
861.286	-17.75
861.46	10.92
861.634	-19.8
861.808	84.65
861.982	-3.41
862.157	2.73
862.331	37.55
862.505	68.27
862.679	-27.99
862.853	19.11
863.027	12.97
863.201	33.45
863.375	10.92
863.549	55.98
863.722	55.98
863.896	45.74
864.07	35.5
864.244	8.87
864.418	74.41
864.592	-25.94
864.766	33.45
864.939	55.98
865.113	21.16
865.287	23.21
865.461	-23.89
865.634	43.69
865.808	0.68
865.982	-38.23
866.156	-75.09
866.329	70.31
866.503	-13.65
866.676	129.7
866.85	4.78
867.024	21.16
867.197	39.59
867.371	66.22
867.544	80.55
867.718	-7.51
867.891	27.31
868.065	64.17
868.238	60.07
868.412	66.22
868.585	45.74
868.759	-21.85
868.932	-9.56
869.105	15.02
869.279	39.59
869.452	-15.7
869.625	10.92
869.799	10.92
869.972	53.93
870.145	2.73
870.319	60.07
870.492	6.83
870.665	-42.32
870.838	43.69
871.011	-11.61
871.185	51.88
871.358	51.88
871.531	-5.46
871.704	53.93
871.877	58.03
872.05	29.35
872.223	-44.37
872.396	4.78
872.569	53.93
872.742	2.73
872.915	17.07
873.088	8.87
873.261	64.17
873.434	27.31
873.607	-1.37
873.78	55.98
873.953	-23.89
874.126	141.99
874.299	19.11
874.471	58.03
874.644	-1.37
874.817	8.87
874.99	41.64
875.163	33.45
875.335	29.35
875.508	64.17
875.681	10.92
875.853	53.93
876.026	68.27
876.199	45.74
876.371	-42.32
876.544	-3.41
876.717	123.56
876.889	-62.8
877.062	6.83
877.234	-50.52
877.407	64.17
877.579	12.97
877.752	8.87
877.924	86.7
878.097	68.27
878.269	51.88
878.442	-21.85
878.614	19.11
878.786	84.65
878.959	4.78
879.131	64.17
879.303	-36.18
879.476	-36.18
879.648	43.69
879.82	10.92
879.993	-23.89
880.165	105.13
880.337	-5.46
880.509	33.45
880.681	-46.42
880.854	29.35
881.026	-27.99
881.198	88.75
881.37	53.93
881.542	-58.71
881.714	-52.56
881.886	29.35
882.058	43.69
882.23	-1.37
882.402	74.41
882.574	-15.7
882.746	53.93
882.918	90.79
883.09	-5.46
883.262	-11.61
883.434	-13.65
883.606	-5.46
883.778	10.92
883.95	101.03
884.122	-21.85
884.293	49.83
884.465	39.59
884.637	62.12
884.809	-7.51
884.98	-7.51
885.152	-15.7
885.324	58.03
885.496	21.16
885.667	41.64
885.839	-13.65
886.011	-9.56
886.182	10.92
886.354	27.31
886.525	70.31
886.697	35.5
886.869	-19.8
887.04	35.5
887.212	74.41
887.383	74.41
887.555	-25.94
887.726	41.64
887.897	19.11
888.069	62.12
888.24	-34.13
888.412	-25.94
888.583	-17.75
888.754	31.4
888.926	43.69
889.097	135.85
889.268	-42.32
889.44	-97.62
889.611	-30.04
889.782	35.5
889.953	6.83
890.125	39.59
890.296	68.27
890.467	-15.7
890.638	-13.65
890.809	-19.8
890.98	0.68
891.151	94.89
891.323	21.16
891.494	-11.61
891.665	-7.51
891.836	-11.61
892.007	-5.46
892.178	-9.56
892.349	-9.56
892.52	-30.04
892.691	82.6
892.862	33.45
893.032	6.83
893.203	-27.99
893.374	10.92
893.545	33.45
893.716	37.55
893.887	66.22
894.057	8.87
894.228	-38.23
894.399	29.35
894.57	10.92
894.74	-15.7
894.911	-7.51
895.082	39.59
895.253	-5.46
895.423	-21.85
895.594	0.68
895.764	4.78
895.935	6.83
896.106	37.55
896.276	33.45
896.447	-17.75
896.617	-17.75
896.788	6.83
896.958	-1.37
897.129	74.41
897.299	-30.04
897.47	19.11
897.64	-38.23
897.81	-62.8
897.981	55.98
898.151	10.92
898.322	29.35
898.492	23.21
898.662	76.46
898.832	-30.04
899.003	-19.8
899.173	19.11
899.343	51.88
899.513	115.37
