Data from USB4F104151__25__11-44-48-473.txt Node

Date: Fri Mar 14 11:44:48 EDT 2025
User: louis
Spectrometer: USB4F10415
Trigger mode: 4
Integration Time (sec): 2.000000E-2
Scans to average: 1
Electric dark correction enabled: true
Nonlinearity correction enabled: false
Boxcar width: 0
XAxis mode: Wavelengths
Number of Pixels in Spectrum: 3648
>>>>>Begin Spectral Data<<<<<
178.204	-91.65
178.424	-91.65
178.644	-91.65
178.864	-101.89
179.084	-77.31
179.304	-67.07
179.524	-5.63
179.744	-34.3
179.964	25.09
180.184	35.33
180.404	2.56
180.624	23.04
180.844	88.57
181.064	-28.16
181.283	-46.59
181.503	10.75
181.723	-3.58
181.943	-30.21
182.163	53.76
182.383	-5.63
182.602	72.19
182.822	104.96
183.042	-17.92
183.262	-7.68
183.482	68.09
183.701	55.81
183.921	94.72
184.141	-22.02
184.361	80.38
184.58	88.57
184.8	113.15
185.02	10.75
185.239	76.29
185.459	98.81
185.679	27.14
185.898	-62.98
186.118	53.76
186.338	51.71
186.557	39.42
186.777	-7.68
186.997	2.56
187.216	39.42
187.436	86.53
187.655	96.77
187.875	61.95
188.095	-17.92
188.314	72.19
188.534	57.86
188.753	78.33
188.973	-24.06
189.192	-22.02
189.412	41.47
189.631	51.71
189.851	43.52
190.07	86.53
190.29	-46.59
190.509	10.75
190.729	55.81
190.948	-48.64
191.168	117.25
191.387	59.9
191.607	4.61
191.826	66.05
192.045	41.47
192.265	49.66
192.484	33.28
192.704	27.14
192.923	-40.45
193.142	162.3
193.362	59.9
193.581	35.33
193.8	23.04
194.02	78.33
194.239	76.29
194.458	104.96
194.678	51.71
194.897	139.77
195.116	33.28
195.335	27.14
195.555	8.7
195.774	35.33
195.993	41.47
196.212	29.18
196.432	33.28
196.651	47.62
196.87	29.18
197.089	84.48
197.308	43.52
197.528	27.14
197.747	10.75
197.966	16.9
198.185	29.18
198.404	33.28
198.623	82.43
198.842	59.9
199.062	14.85
199.281	18.94
199.5	6.66
199.719	2.56
199.938	27.14
200.157	45.57
200.376	33.28
200.595	84.48
200.814	12.8
201.033	8.7
201.252	43.52
201.471	94.72
201.69	92.67
201.909	53.76
202.128	18.94
202.347	-32.26
202.566	25.09
202.785	39.42
203.004	88.57
203.223	27.14
203.442	14.85
203.661	117.25
203.879	53.76
204.098	53.76
204.317	61.95
204.536	84.48
204.755	104.96
204.974	47.62
205.193	18.94
205.411	49.66
205.63	41.47
205.849	25.09
206.068	61.95
206.287	18.94
206.505	2.56
206.724	39.42
206.943	-22.02
207.162	47.62
207.381	55.81
207.599	59.9
207.818	-7.68
208.037	55.81
208.255	-58.88
208.474	43.52
208.693	33.28
208.911	61.95
209.13	20.99
209.349	86.53
209.567	57.86
209.786	96.77
210.005	37.38
210.223	70.14
210.442	-46.59
210.661	166.4
210.879	53.76
211.098	66.05
211.316	-3.58
211.535	-1.54
211.753	82.43
211.972	64
212.191	-3.58
212.409	12.8
212.628	74.24
212.846	98.81
213.065	-13.82
213.283	31.23
213.502	-1.54
213.72	78.33
213.938	35.33
214.157	102.91
214.375	10.75
214.594	-44.54
214.812	39.42
215.031	111.1
215.249	4.61
215.467	-3.58
215.686	31.23
215.904	-79.36
216.122	10.75
216.341	25.09
216.559	90.62
216.778	14.85
216.996	45.57
217.214	84.48
217.432	78.33
217.651	25.09
217.869	-28.16
218.087	98.81
218.306	16.9
218.524	55.81
218.742	-30.21
218.96	68.09
219.179	84.48
219.397	111.1
219.615	133.63
219.833	47.62
220.051	-54.78
220.27	88.57
220.488	88.57
220.706	27.14
220.924	-3.58
221.142	-1.54
221.36	127.49
221.578	121.34
221.796	25.09
222.015	10.75
222.233	2.56
222.451	55.81
222.669	-9.73
222.887	86.53
223.105	51.71
223.323	10.75
223.541	-26.11
223.759	92.67
223.977	43.52
224.195	-11.78
224.413	53.76
224.631	10.75
224.849	-48.64
225.067	100.86
225.285	39.42
225.503	55.81
225.721	-5.63
225.939	37.38
226.157	59.9
226.375	109.05
226.592	61.95
226.81	82.43
227.028	107.01
227.246	113.15
227.464	4.61
227.682	35.33
227.9	94.72
228.117	31.23
228.335	-40.45
228.553	94.72
228.771	176.64
228.989	53.76
229.206	57.86
229.424	49.66
229.642	12.8
229.86	10.75
230.077	53.76
230.295	78.33
230.513	59.9
230.731	31.23
230.948	61.95
231.166	57.86
231.384	10.75
231.601	66.05
231.819	66.05
232.037	86.53
232.254	51.71
232.472	53.76
232.689	55.81
232.907	74.24
233.125	31.23
233.342	66.05
233.56	45.57
233.777	39.42
233.995	37.38
234.213	16.9
234.43	-22.02
234.648	102.91
234.865	102.91
235.083	107.01
235.3	37.38
235.518	70.14
235.735	31.23
235.953	64
236.17	0.51
236.388	39.42
236.605	76.29
236.822	41.47
237.04	92.67
237.257	55.81
237.475	0.51
237.692	27.14
237.909	94.72
238.127	35.33
238.344	18.94
238.562	115.2
238.779	-15.87
238.996	27.14
239.214	39.42
239.431	90.62
239.648	29.18
239.865	57.86
240.083	49.66
240.3	70.14
240.517	10.75
240.735	29.18
240.952	43.52
241.169	-28.16
241.386	123.39
241.603	45.57
241.821	25.09
242.038	43.52
242.255	74.24
242.472	39.42
242.689	53.76
242.907	74.24
243.124	-28.16
243.341	68.09
243.558	-17.92
243.775	12.8
243.992	-1.54
244.209	33.28
244.426	70.14
244.643	76.29
244.86	59.9
245.078	18.94
245.295	74.24
245.512	29.18
245.729	2.56
245.946	111.1
246.163	68.09
246.38	47.62
246.597	82.43
246.814	0.51
247.031	49.66
247.248	64
247.464	43.52
247.681	0.51
247.898	6.66
248.115	96.77
248.332	41.47
248.549	59.9
248.766	51.71
248.983	66.05
249.2	88.57
249.417	31.23
249.633	14.85
249.85	53.76
250.067	25.09
250.284	96.77
250.501	96.77
250.717	70.14
250.934	16.9
251.151	76.29
251.368	66.05
251.585	96.77
251.801	14.85
252.018	33.28
252.235	37.38
252.451	-11.78
252.668	18.94
252.885	80.38
253.102	39.42
253.318	72.19
253.535	4.61
253.752	-13.82
253.968	59.9
254.185	66.05
254.401	-52.74
254.618	23.04
254.835	39.42
255.051	41.47
255.268	76.29
255.484	68.09
255.701	0.51
255.917	59.9
256.134	51.71
256.351	121.34
256.567	14.85
256.784	98.81
257	14.85
257.217	96.77
257.433	-1.54
257.65	68.09
257.866	64
258.082	-9.73
258.299	45.57
258.515	117.25
258.732	0.51
258.948	-3.58
259.165	78.33
259.381	2.56
259.597	25.09
259.814	-5.63
260.03	31.23
260.246	78.33
260.463	37.38
260.679	84.48
260.895	47.62
261.112	53.76
261.328	125.44
261.544	55.81
261.761	82.43
261.977	25.09
262.193	35.33
262.409	29.18
262.626	64
262.842	53.76
263.058	6.66
263.274	37.38
263.49	96.77
263.707	59.9
263.923	33.28
264.139	49.66
264.355	12.8
264.571	135.68
264.787	55.81
265.004	82.43
265.22	-15.87
265.436	6.66
265.652	-9.73
265.868	80.38
266.084	41.47
266.3	66.05
266.516	31.23
266.732	55.81
266.948	35.33
267.164	70.14
267.38	12.8
267.596	117.25
267.812	104.96
268.028	84.48
268.244	20.99
268.46	6.66
268.676	37.38
268.892	115.2
269.108	43.52
269.324	80.38
269.54	41.47
269.756	49.66
269.972	2.56
270.188	45.57
270.403	100.86
270.619	66.05
270.835	49.66
271.051	-32.26
271.267	102.91
271.483	-9.73
271.698	47.62
271.914	0.51
272.13	80.38
272.346	70.14
272.562	37.38
272.777	96.77
272.993	43.52
273.209	66.05
273.425	64
273.64	55.81
273.856	43.52
274.072	61.95
274.287	47.62
274.503	107.01
274.719	94.72
274.934	-15.87
275.15	-1.54
275.366	78.33
275.581	80.38
275.797	64
276.012	33.28
276.228	33.28
276.444	49.66
276.659	37.38
276.875	2.56
277.09	33.28
277.306	25.09
277.521	70.14
277.737	98.81
277.952	64
278.168	6.66
278.383	98.81
278.599	25.09
278.814	20.99
279.03	96.77
279.245	78.33
279.461	64
279.676	53.76
279.892	6.66
280.107	18.94
280.322	-26.11
280.538	29.18
280.753	41.47
280.969	35.33
281.184	8.7
281.399	33.28
281.615	43.52
281.83	68.09
282.045	59.9
282.26	-7.68
282.476	51.71
282.691	39.42
282.906	100.86
283.122	61.95
283.337	49.66
283.552	16.9
283.767	6.66
283.983	84.48
284.198	-1.54
284.413	41.47
284.628	33.28
284.843	47.62
285.058	39.42
285.274	-15.87
285.489	70.14
285.704	51.71
285.919	76.29
286.134	39.42
286.349	49.66
286.564	68.09
286.779	90.62
286.995	43.52
287.21	-22.02
287.425	68.09
287.64	10.75
287.855	43.52
288.07	-11.78
288.285	61.95
288.5	14.85
288.715	8.7
288.93	59.9
289.145	35.33
289.36	39.42
289.575	45.57
289.79	68.09
290.004	90.62
290.219	66.05
290.434	82.43
290.649	18.94
290.864	-32.26
291.079	10.75
291.294	29.18
291.509	78.33
291.724	33.28
291.938	23.04
292.153	16.9
292.368	8.7
292.583	16.9
292.798	37.38
293.012	94.72
293.227	18.94
293.442	31.23
293.657	43.52
293.871	49.66
294.086	86.53
294.301	59.9
294.516	12.8
294.73	74.24
294.945	4.61
295.16	121.34
295.374	74.24
295.589	123.39
295.804	37.38
296.018	16.9
296.233	31.23
296.447	35.33
296.662	35.33
296.877	80.38
297.091	92.67
297.306	23.04
297.52	25.09
297.735	94.72
297.949	55.81
298.164	107.01
298.378	55.81
298.593	14.85
298.807	39.42
299.022	37.38
299.236	104.96
299.451	39.42
299.665	6.66
299.88	2.56
300.094	57.86
300.309	-7.68
300.523	41.47
300.737	16.9
300.952	70.14
301.166	55.81
301.381	27.14
301.595	43.52
301.809	68.09
302.024	76.29
302.238	37.38
302.452	-38.4
302.667	35.33
302.881	72.19
303.095	47.62
303.309	68.09
303.524	-7.68
303.738	-30.21
303.952	-5.63
304.166	96.77
304.381	18.94
304.595	76.29
304.809	68.09
305.023	2.56
305.237	27.14
305.452	72.19
305.666	20.99
305.88	84.48
306.094	70.14
306.308	45.57
306.522	47.62
306.736	45.57
306.95	35.33
307.164	72.19
307.379	-5.63
307.593	76.29
307.807	4.61
308.021	33.28
308.235	-19.97
308.449	61.95
308.663	29.18
308.877	152.06
309.091	53.76
309.305	68.09
309.519	43.52
309.733	86.53
309.947	82.43
310.161	53.76
310.374	109.05
310.588	31.23
310.802	51.71
311.016	88.57
311.23	45.57
311.444	47.62
311.658	74.24
311.872	111.1
312.085	129.53
312.299	66.05
312.513	104.96
312.727	94.72
312.941	109.05
313.154	18.94
313.368	23.04
313.582	57.86
313.796	98.81
314.009	96.77
314.223	33.28
314.437	70.14
314.651	49.66
314.864	121.34
315.078	57.86
315.292	31.23
315.505	4.61
315.719	47.62
315.933	86.53
316.146	8.7
316.36	-17.92
316.573	127.49
316.787	66.05
317.001	6.66
317.214	82.43
317.428	117.25
317.641	98.81
317.855	90.62
318.068	86.53
318.282	51.71
318.495	100.86
318.709	86.53
318.922	39.42
319.136	100.86
319.349	47.62
319.563	66.05
319.776	27.14
319.99	45.57
320.203	80.38
320.417	37.38
320.63	76.29
320.843	129.53
321.057	51.71
321.27	-3.58
321.483	107.01
321.697	78.33
321.91	57.86
322.124	-1.54
322.337	82.43
322.55	61.95
322.763	-13.82
322.977	49.66
323.19	18.94
323.403	135.68
323.617	59.9
323.83	64
324.043	51.71
324.256	145.92
324.469	102.91
324.683	47.62
324.896	47.62
325.109	35.33
325.322	25.09
325.535	86.53
325.748	23.04
325.962	111.1
326.175	25.09
326.388	8.7
326.601	68.09
326.814	37.38
327.027	57.86
327.24	123.39
327.453	47.62
327.666	72.19
327.879	37.38
328.092	35.33
328.305	64
328.518	55.81
328.731	-1.54
328.944	111.1
329.157	31.23
329.37	41.47
329.583	57.86
329.796	154.11
330.009	92.67
330.222	-15.87
330.435	131.58
330.648	98.81
330.861	76.29
331.073	127.49
331.286	27.14
331.499	66.05
331.712	96.77
331.925	55.81
332.138	37.38
332.35	61.95
332.563	84.48
332.776	109.05
332.989	4.61
333.202	66.05
333.414	-17.92
333.627	37.38
333.84	59.9
334.053	49.66
334.265	94.72
334.478	57.86
334.691	55.81
334.903	94.72
335.116	18.94
335.329	41.47
335.541	27.14
335.754	102.91
335.966	121.34
336.179	0.51
336.392	49.66
336.604	145.92
336.817	78.33
337.029	61.95
337.242	27.14
337.454	74.24
337.667	49.66
337.88	133.63
338.092	80.38
338.305	76.29
338.517	37.38
338.729	64
338.942	55.81
339.154	49.66
339.367	33.28
339.579	78.33
339.792	49.66
340.004	49.66
340.217	127.49
340.429	133.63
340.641	18.94
340.854	100.86
341.066	57.86
341.278	57.86
341.491	102.91
341.703	4.61
341.915	90.62
342.128	137.73
342.34	100.86
342.552	20.99
342.764	96.77
342.977	147.97
343.189	57.86
343.401	16.9
343.613	127.49
343.826	133.63
344.038	-26.11
344.25	84.48
344.462	45.57
344.674	121.34
344.886	33.28
345.099	31.23
345.311	82.43
345.523	107.01
345.735	47.62
345.947	113.15
346.159	27.14
346.371	-11.78
346.583	131.58
346.795	84.48
347.007	27.14
347.219	68.09
347.431	-1.54
347.643	74.24
347.855	49.66
348.067	76.29
348.279	6.66
348.491	45.57
348.703	86.53
348.915	94.72
349.127	35.33
349.339	72.19
349.551	31.23
349.763	14.85
349.975	41.47
350.187	82.43
350.399	31.23
350.61	16.9
350.822	0.51
351.034	80.38
351.246	61.95
351.458	111.1
351.669	131.58
351.881	61.95
352.093	111.1
352.305	143.87
352.517	102.91
352.728	55.81
352.94	0.51
353.152	20.99
353.363	78.33
353.575	2.56
353.787	-13.82
353.999	72.19
354.21	88.57
354.422	18.94
354.633	127.49
354.845	76.29
355.057	100.86
355.268	107.01
355.48	76.29
355.692	25.09
355.903	68.09
356.115	94.72
356.326	41.47
356.538	55.81
356.749	131.58
356.961	76.29
357.172	82.43
357.384	35.33
357.595	88.57
357.807	86.53
358.018	66.05
358.23	33.28
358.441	84.48
358.653	100.86
358.864	78.33
359.075	-9.73
359.287	102.91
359.498	76.29
359.709	59.9
359.921	31.23
360.132	43.52
360.344	133.63
360.555	23.04
360.766	88.57
360.977	70.14
361.189	61.95
361.4	53.76
361.611	80.38
361.823	70.14
362.034	20.99
362.245	-5.63
362.456	25.09
362.667	92.67
362.879	80.38
363.09	80.38
363.301	61.95
363.512	39.42
363.723	84.48
363.935	31.23
364.146	45.57
364.357	61.95
364.568	55.81
364.779	45.57
364.99	45.57
365.201	57.86
365.412	80.38
365.623	57.86
365.834	86.53
366.045	66.05
366.256	55.81
366.467	117.25
366.678	88.57
366.889	64
367.1	72.19
367.311	113.15
367.522	29.18
367.733	78.33
367.944	102.91
368.155	14.85
368.366	104.96
368.577	88.57
368.788	129.53
368.999	53.76
369.209	57.86
369.42	45.57
369.631	137.73
369.842	119.29
370.053	70.14
370.264	66.05
370.474	49.66
370.685	74.24
370.896	35.33
371.107	55.81
371.317	82.43
371.528	84.48
371.739	88.57
371.95	94.72
372.16	107.01
372.371	113.15
372.582	115.2
372.792	80.38
373.003	55.81
373.214	80.38
373.424	111.1
373.635	117.25
373.846	92.67
374.056	80.38
374.267	82.43
374.477	-40.45
374.688	102.91
374.898	82.43
375.109	100.86
375.319	78.33
375.53	154.11
375.74	92.67
375.951	-1.54
376.161	111.1
376.372	70.14
376.582	43.52
376.793	33.28
377.003	37.38
377.214	94.72
377.424	12.8
377.635	117.25
377.845	78.33
378.055	57.86
378.266	82.43
378.476	53.76
378.686	43.52
378.897	55.81
379.107	2.56
379.317	137.73
379.528	137.73
379.738	70.14
379.948	104.96
380.158	74.24
380.369	29.18
380.579	86.53
380.789	41.47
380.999	55.81
381.21	104.96
381.42	102.91
381.63	88.57
381.84	94.72
382.05	61.95
382.261	145.92
382.471	0.51
382.681	49.66
382.891	94.72
383.101	55.81
383.311	20.99
383.521	43.52
383.731	66.05
383.941	84.48
384.151	104.96
384.361	133.63
384.571	39.42
384.781	88.57
384.991	39.42
385.201	152.06
385.411	25.09
385.621	12.8
385.831	16.9
386.041	68.09
386.251	27.14
386.461	102.91
386.671	100.86
386.881	117.25
387.091	-42.5
387.301	57.86
387.511	100.86
387.72	147.97
387.93	64
388.14	113.15
388.35	115.2
388.56	20.99
388.769	96.77
388.979	68.09
389.189	59.9
389.399	143.87
389.609	47.62
389.818	98.81
390.028	147.97
390.238	47.62
390.447	41.47
390.657	25.09
390.867	45.57
391.076	86.53
391.286	68.09
391.496	78.33
391.705	96.77
391.915	104.96
392.125	102.91
392.334	104.96
392.544	68.09
392.753	137.73
392.963	125.44
393.172	66.05
393.382	86.53
393.591	135.68
393.801	55.81
394.01	117.25
394.22	39.42
394.429	78.33
394.639	90.62
394.848	102.91
395.058	104.96
395.267	70.14
395.477	139.77
395.686	133.63
395.895	133.63
396.105	162.3
396.314	123.39
396.524	147.97
396.733	115.2
396.942	74.24
397.152	113.15
397.361	104.96
397.57	121.34
397.78	96.77
397.989	51.71
398.198	166.4
398.407	80.38
398.617	141.82
398.826	141.82
399.035	158.21
399.244	172.54
399.453	117.25
399.663	70.14
399.872	154.11
400.081	66.05
400.29	125.44
400.499	143.87
400.708	145.92
400.917	195.07
401.127	186.88
401.336	90.62
401.545	209.4
401.754	100.86
401.963	127.49
402.172	129.53
402.381	166.4
402.59	158.21
402.799	166.4
403.008	135.68
403.217	215.55
403.426	158.21
403.635	121.34
403.844	133.63
404.053	195.07
404.262	221.69
404.471	209.4
404.68	131.58
404.888	150.01
405.097	115.2
405.306	207.36
405.515	135.68
405.724	147.97
405.933	186.88
406.142	211.45
406.35	190.97
406.559	154.11
406.768	256.51
406.977	254.46
407.185	236.03
407.394	264.7
407.603	211.45
407.812	188.93
408.02	317.95
408.229	264.7
408.438	244.22
408.646	238.08
408.855	313.85
409.064	328.19
409.272	334.33
409.481	324.09
409.69	334.33
409.898	344.57
410.107	295.42
410.315	457.21
410.524	406.01
410.733	385.53
410.941	442.87
411.15	444.92
411.358	473.59
411.567	436.73
411.775	426.49
411.984	401.91
412.192	504.31
412.401	635.38
412.609	479.74
412.818	514.55
413.026	551.42
413.234	592.37
413.443	653.81
413.651	649.72
413.86	666.1
414.068	571.9
414.276	700.92
414.485	657.91
414.693	764.4
414.901	745.97
415.11	811.51
415.318	811.51
415.526	821.75
415.734	897.52
415.943	870.9
416.151	893.43
416.359	1053.17
416.567	991.73
416.776	1001.97
416.984	1022.45
417.192	1149.42
417.4	1028.59
417.608	1161.71
417.817	1012.21
418.025	1182.19
418.233	1366.51
418.441	1274.35
418.649	1339.88
418.857	1450.47
419.065	1516.01
419.273	1440.23
419.481	1593.83
419.689	1655.27
419.897	1634.79
420.105	1675.75
420.313	1796.58
420.521	1853.92
420.729	1898.98
420.937	1833.44
421.145	1933.79
421.353	2132.45
421.561	2197.98
421.769	2249.18
421.977	2343.39
422.185	2265.57
422.393	2486.75
422.601	2603.48
422.809	2599.38
423.017	2646.49
423.224	2656.73
423.432	2763.22
423.64	2791.89
423.848	3135.95
424.056	2974.16
424.263	3408.33
424.471	3199.44
424.679	3269.07
424.887	3394
425.094	3594.7
425.302	3549.64
425.51	3606.98
425.718	3674.57
425.925	3938.76
426.133	4037.06
426.341	4198.85
426.548	4428.22
426.756	4481.47
426.964	4542.91
427.171	4827.57
427.379	4911.54
427.586	4979.12
427.794	5183.92
428.001	5265.84
428.209	5372.33
428.417	5347.76
428.624	5695.91
428.832	5794.22
429.039	5794.22
429.247	5763.5
429.454	6312.35
429.662	6877.59
429.869	6285.73
430.076	6717.85
430.284	6640.03
430.491	6662.55
430.699	7494.03
430.906	7305.62
431.114	7494.03
431.321	7457.17
431.528	7764.36
431.736	8247.68
431.943	8577.41
432.15	8382.85
432.358	8696.19
432.565	8952.18
432.772	8915.32
432.979	9267.57
433.187	9705.84
433.394	9750.89
433.601	10180.96
433.808	10275.17
434.016	10213.73
434.223	10701.15
434.43	11245.91
434.637	11188.57
434.844	11565.39
435.052	12048.71
435.259	11741.52
435.466	11983.18
435.673	11962.7
435.88	12753.21
436.087	13246.77
436.294	13054.26
436.501	13021.5
436.708	13318.45
436.915	13932.84
437.122	14309.67
437.329	14375.2
437.537	14889.24
437.743	15061.27
437.95	14891.29
438.157	15679.76
438.364	16277.77
438.571	16054.54
438.778	16445.7
438.985	17715.44
439.192	17094.91
439.399	17559.8
439.606	17281.27
439.813	18258.15
440.02	18981.09
440.227	19017.95
440.433	19003.61
440.64	19296.47
440.847	19243.23
441.054	19921.1
441.261	21278.91
441.467	20889.79
441.674	21145.79
441.881	22014.13
442.088	22218.92
442.294	21833.91
442.501	22464.68
442.708	22982.82
442.914	23552.15
443.121	24760.45
443.328	24006.8
443.534	25673.85
443.741	25053.31
443.948	24811.65
444.154	26482.8
444.361	26415.21
444.568	26593.39
444.774	26286.19
444.981	27082.85
445.187	27316.32
445.394	28581.96
445.6	28368.98
445.807	31080.49
446.013	29872.18
446.22	30328.88
446.426	31608.86
446.633	31887.39
446.839	32622.61
447.046	31244.32
447.252	33505.28
447.459	33167.37
447.665	33144.84
447.871	34867.18
448.078	35882.97
448.284	34287.6
448.491	35454.95
448.697	36632.53
448.903	37265.35
449.11	37314.5
449.316	36736.98
449.522	36855.76
449.728	38309.82
449.935	38424.5
450.141	38596.53
450.347	39661.47
450.553	38125.5
450.76	38739.89
450.966	39792.54
451.172	39645.09
451.378	40423.32
451.584	39907.23
451.791	40728.47
451.997	40529.81
452.203	41222.03
452.409	40994.7
452.615	40779.67
452.821	39405.48
453.027	39227.31
453.233	41406.34
453.44	39634.85
453.646	39864.22
453.852	40415.13
454.058	41006.99
454.264	39350.18
454.47	40378.26
454.676	38969.26
454.882	40767.38
455.088	36999.12
455.294	37425.09
455.5	38092.73
455.705	38531
455.911	36806.61
456.117	36466.64
456.323	35981.27
456.529	34170.87
456.735	35647.46
456.941	34514.93
457.147	34220.02
457.352	33222.66
457.558	32694.29
457.764	32813.07
457.97	31963.16
458.176	31385.63
458.381	31436.83
458.587	29710.39
458.793	30144.56
458.999	28403.79
459.204	30566.45
459.41	29403.2
459.616	27687
459.821	28035.16
460.027	27562.08
460.233	27097.19
460.438	25460.86
460.644	25723
460.85	24823.94
461.055	24754.31
461.261	24316.04
461.466	22448.3
461.672	21653.69
461.878	23638.17
462.083	21735.6
462.289	21418.17
462.494	21190.84
462.7	20289.74
462.905	19714.26
463.111	20377.8
463.316	20523.21
463.522	20048.08
463.727	20355.27
463.932	20232.4
464.138	19839.19
464.343	19822.8
464.549	19067.1
464.754	19962.06
464.959	19861.71
465.165	19810.51
465.37	18831.58
465.575	18092.27
465.781	18913.5
465.986	19146.97
466.191	18778.34
466.397	18127.08
466.602	17127.67
466.807	17983.73
467.012	17854.7
467.218	17713.39
467.423	17584.37
467.628	17840.37
467.833	18354.41
468.038	17858.8
468.244	17170.68
468.449	17817.84
468.654	17391.86
468.859	17144.06
469.064	17107.19
469.269	16464.13
469.474	16527.62
469.679	16949.5
469.885	16298.25
470.09	16615.68
470.295	16359.69
470.5	15993.1
470.705	16273.67
470.91	15870.22
471.115	15638.8
471.32	15898.89
471.525	15696.14
471.73	15382.81
471.935	15479.06
472.139	14889.24
472.344	15030.55
472.549	14813.47
472.754	14786.85
472.959	14342.44
473.164	14205.22
473.369	13992.23
473.574	14223.65
473.778	14438.69
473.983	14180.65
474.188	14225.7
474.393	13467.95
474.598	13527.35
474.802	13517.11
475.007	13375.8
475.212	13377.84
475.417	12931.39
475.621	12884.28
475.826	12833.08
476.031	12738.88
476.235	12583.23
476.44	12695.87
476.645	12329.28
476.849	12611.9
477.054	12153.16
477.259	12101.96
477.463	12163.4
477.668	11852.11
477.872	11864.39
478.077	11618.64
478.282	11311.44
478.486	11295.06
478.691	11297.11
478.895	11118.93
479.1	11094.36
479.304	11204.95
479.509	10678.62
479.713	11139.41
479.918	10764.64
480.122	10690.91
480.326	10676.57
480.531	10692.96
480.735	10541.41
480.94	10506.59
481.144	10785.12
481.348	10420.58
481.553	10522.98
481.757	10279.27
481.961	10576.22
482.166	10494.3
482.37	10473.82
482.574	10385.76
482.778	10363.23
482.983	10301.79
483.187	10287.46
483.391	10402.15
483.595	10375.52
483.8	10168.68
484.004	10160.48
484.208	10348.9
484.412	10279.27
484.616	10217.83
484.821	10322.27
485.025	10238.31
485.229	10502.5
485.433	10262.88
485.637	10094.95
485.841	10027.37
486.045	10185.06
486.249	10244.45
486.453	9996.65
486.657	10226.02
486.861	10406.24
487.065	10023.27
487.269	10256.74
487.473	10029.41
487.677	10350.95
487.881	10332.51
488.085	10131.81
488.289	10393.95
488.493	10430.82
488.697	10359.14
488.901	10164.58
489.105	10324.32
489.309	10334.56
489.512	10277.22
489.716	10406.24
489.92	10340.71
490.124	10451.3
490.328	10518.88
490.531	10260.84
490.735	10654.05
490.939	10541.41
491.143	10520.93
491.346	10320.23
491.55	10627.42
491.754	10641.76
491.958	10717.53
492.161	10703.2
492.365	10758.49
492.569	10662.24
492.772	10836.31
492.976	10770.78
493.18	11004.25
493.383	11147.61
493.587	11037.02
493.79	11032.92
493.994	10832.22
494.197	11131.22
494.401	11311.44
494.605	11522.38
494.808	11549.01
495.012	11491.66
495.215	11639.12
495.419	11669.84
495.622	11694.41
495.825	12052.81
496.029	11843.92
496.232	12069.19
496.436	12028.23
496.639	12374.34
496.843	12433.73
497.046	12515.65
497.249	12572.99
497.453	12728.64
497.656	12919.1
497.859	12796.22
498.063	13001.02
498.266	13418.8
498.469	13162.81
498.673	13443.38
498.876	13525.3
499.079	13672.75
499.282	13769.01
499.485	14160.17
499.689	13914.41
499.892	14205.22
500.095	14194.98
500.298	14625.06
500.501	14602.53
500.705	14993.69
500.908	14907.68
501.111	15194.39
501.314	15221.02
501.517	15245.59
501.72	15603.99
501.923	15386.9
502.126	15927.56
502.329	16167.18
502.532	16341.25
502.735	16417.03
502.938	16746.75
503.141	16789.76
503.344	16937.21
503.547	17076.48
503.75	17324.28
503.953	17565.94
504.156	17998.06
504.359	17754.35
504.562	17940.72
504.765	18319.59
504.968	18460.9
505.17	18481.38
505.373	18634.98
505.576	19079.39
505.779	19312.86
505.982	19185.88
506.185	19710.16
506.387	19814.61
506.59	19906.77
506.793	20082.89
506.996	20158.67
507.198	20844.74
507.401	20445.38
507.604	20816.07
507.807	21096.64
508.009	21119.17
508.212	21575.86
508.415	21829.81
508.617	22175.92
508.82	22108.33
509.022	22083.76
509.225	22780.07
509.428	22921.38
509.63	22950.05
509.833	22964.39
510.035	23666.84
510.238	23257.25
510.44	23652.5
510.643	23998.61
510.845	24426.64
511.048	24184.97
511.25	24613
511.453	24840.32
511.655	25819.25
511.858	25323.65
512.06	25473.15
512.262	25905.27
512.465	25884.79
512.667	26132.59
512.87	26546.28
513.072	26445.93
513.274	27179.11
513.477	27052.13
513.679	27461.72
513.881	27689.05
514.084	27908.18
514.286	27936.85
514.488	28215.38
514.69	29079.62
514.893	28768.33
515.095	29003.85
515.297	29493.31
515.499	29454.4
515.701	29614.14
515.904	30083.12
516.106	30339.12
516.308	30404.66
516.51	31098.92
516.712	30711.85
516.914	31129.64
517.116	31561.76
517.318	31676.44
517.52	32026.65
517.722	31963.16
517.925	32354.32
518.127	32788.49
518.329	33107.97
518.531	32755.72
518.733	33300.48
518.935	33587.2
519.136	34025.46
519.338	34664.43
519.54	34033.66
519.742	34678.77
519.944	34803.69
520.146	35317.73
520.348	35454.95
520.55	35225.57
520.752	35817.44
520.954	36431.83
521.155	36171.74
521.357	36794.32
521.559	36399.06
521.761	37267.4
521.963	37498.82
522.164	37312.45
522.366	37660.61
522.568	37932.99
522.77	38223.8
522.971	38752.18
523.173	38498.23
523.375	38707.12
523.576	38936.49
523.778	39079.85
523.98	39309.22
524.181	39456.68
524.383	39765.92
524.584	40069.02
524.786	39980.96
524.988	39890.85
525.189	40380.31
525.391	40703.89
525.592	41189.26
525.794	41078.67
525.995	40959.89
526.197	41006.99
526.398	41095.05
526.6	41699.2
526.801	41654.15
527.003	41994.11
527.204	41635.72
527.406	42241.92
527.607	42749.81
527.808	42545.01
528.01	41777.03
528.211	42512.25
528.412	43390.83
528.614	42420.09
528.815	42807.15
529.016	42706.8
529.218	42911.6
529.419	43327.34
529.62	43329.39
529.822	43280.24
530.023	43325.29
530.224	43661.16
530.425	43542.38
530.626	43075.44
530.828	43106.16
531.029	44236.64
531.23	43566.95
531.431	43497.32
531.632	44013.41
531.833	44253.02
532.035	44097.38
532.236	44050.27
532.437	44244.83
532.638	43786.08
532.839	44474.2
533.04	44357.47
533.241	43458.41
533.442	44466.01
533.643	44076.9
533.844	44179.29
534.045	44476.25
534.246	43913.06
534.447	44693.33
534.648	44203.87
534.849	44099.42
535.05	43945.83
535.251	44388.19
535.451	44085.09
535.652	44400.47
535.853	44095.33
536.054	44355.42
536.255	44556.12
536.456	44040.03
536.657	44640.09
536.857	44365.66
537.058	44011.36
537.259	44519.26
537.46	44472.15
537.66	44117.85
537.861	44517.21
538.062	43970.4
538.263	44463.96
538.463	43949.92
538.664	44377.95
538.865	44226.4
539.065	44549.98
539.266	43954.02
539.466	44928.85
539.667	43937.63
539.868	44648.28
540.068	44382.04
540.269	44291.93
540.469	44048.22
540.67	44046.18
540.87	44435.29
541.071	44064.61
541.271	44277.6
541.472	44259.16
541.672	44363.61
541.873	44019.55
542.073	43777.89
542.274	44482.39
542.474	43876.19
542.675	44056.42
542.875	44293.98
543.075	44322.65
543.276	43716.45
543.476	44134.24
543.676	44244.83
543.877	44226.4
544.077	44142.43
544.277	43851.62
544.478	43904.87
544.678	44291.93
544.878	43900.77
545.078	44037.98
545.279	43636.58
545.479	44003.17
545.679	43962.21
545.879	44328.8
546.079	43534.18
546.28	43945.83
546.48	43569
546.68	44109.66
546.88	43833.19
547.08	44240.73
547.28	43612.01
547.48	43335.53
547.68	43923.3
547.88	43493.22
548.081	44289.88
548.281	43632.49
548.481	43546.47
548.681	43790.18
548.881	43781.99
549.081	43491.18
549.28	43198.32
549.48	43992.93
549.68	43104.11
549.88	43845.47
550.08	43349.87
550.28	43229.04
550.48	43265.9
550.68	43820.9
550.88	43675.49
551.08	43859.81
551.279	43229.04
551.479	43333.48
551.679	43603.81
551.879	43093.87
552.079	43661.16
552.278	43468.65
552.478	43767.65
552.678	43308.91
552.878	43790.18
553.077	43476.84
553.277	42874.74
553.477	43882.34
553.676	43323.24
553.876	43306.86
554.076	43491.18
554.275	43143.02
554.475	42678.13
554.674	42919.79
554.874	43392.87
555.074	43079.53
555.273	43331.43
555.473	42964.85
555.672	42901.36
555.872	42938.22
556.071	42807.15
556.271	42905.46
556.47	42577.78
556.67	42241.92
556.869	42415.99
557.068	42534.77
557.268	42393.47
557.467	42413.94
557.667	42295.16
557.866	42426.23
558.065	42481.53
558.265	42114.94
558.464	41811.84
558.663	42801.01
558.863	41570.18
559.062	42602.36
559.261	42143.61
559.461	42463.1
559.66	41629.57
559.859	41813.89
560.058	41957.25
560.258	42250.11
560.457	41164.68
560.656	41975.68
560.855	41662.34
561.054	41727.88
561.253	41494.41
561.453	41406.34
561.652	41836.42
561.851	41947.01
562.05	41279.37
562.249	41101.2
562.448	41637.76
562.647	41250.7
562.846	41121.68
563.045	41588.61
563.244	40896.4
563.443	41260.94
563.642	40159.13
563.841	40791.95
564.04	40935.31
564.239	41090.96
564.438	40398.74
564.637	41002.89
564.836	40634.26
565.035	40320.92
565.234	40488.85
565.432	40085.4
565.631	39985.05
565.83	40200.09
566.029	39841.7
566.228	40157.08
566.427	39755.68
566.625	39647.14
566.824	39362.47
567.023	40105.88
567.222	38768.56
567.42	39874.46
567.619	39509.93
567.818	39632.8
568.016	39135.15
568.215	39505.83
568.414	38899.63
568.612	39772.07
568.811	39110.57
569.01	39290.79
569.208	38641.59
569.407	39245.74
569.605	38600.63
569.804	38977.45
570.002	38322.1
570.201	38922.16
570.4	38299.58
570.598	38619.06
570.797	38139.83
570.995	38301.62
571.193	37900.22
571.392	38221.75
571.59	38277.05
571.789	38006.72
571.987	37541.83
572.186	37619.65
572.384	37699.52
572.582	37826.49
572.781	37793.73
572.979	37025.74
573.177	37498.82
573.376	37771.2
573.574	37193.67
573.772	37187.53
573.971	36933.58
574.169	36650.96
574.367	36829.13
574.565	36859.85
574.763	36571.09
574.962	36616.15
575.16	36351.96
575.358	36515.79
575.556	36069.34
575.754	36700.11
575.952	35991.51
576.151	36192.22
576.349	35844.06
576.547	36016.09
576.745	35954.65
576.943	35776.48
577.141	36136.92
577.339	35876.83
577.537	35663.84
577.735	35813.34
577.933	35334.12
578.131	35239.91
578.329	34902
578.527	35028.97
578.725	35149.8
578.923	35057.64
579.121	35016.68
579.319	34881.52
579.516	35139.56
579.714	34867.18
579.912	34752.49
580.11	34621.42
580.308	34850.8
580.506	34412.53
580.704	33937.4
580.901	34385.91
581.099	34179.06
581.297	33970.17
581.495	33966.07
581.692	34162.68
581.89	33323.01
582.088	34314.23
582.285	33841.15
582.483	33669.12
582.681	33519.62
582.878	33165.32
583.076	33042.44
583.274	33300.48
583.471	32751.63
583.669	33060.87
583.866	32753.68
584.064	33071.11
584.262	32768.01
584.459	33280
584.657	32823.31
584.854	32784.4
585.052	32038.94
585.249	32473.1
585.447	32618.51
585.644	32137.24
585.841	32276.5
586.039	32315.41
586.236	31793.18
586.434	31954.97
586.631	31866.91
586.828	31981.59
587.026	31578.14
587.223	31897.63
587.42	31440.93
587.618	31348.77
587.815	30898.22
588.012	31246.37
588.21	30984.23
588.407	31500.32
588.604	30957.61
588.801	30937.13
588.999	31481.89
589.196	30986.28
589.393	30885.93
589.59	30373.94
589.787	30296.11
589.984	30359.6
590.182	30273.59
590.379	30496.81
590.576	30195.76
590.773	30380.08
590.97	30038.07
591.167	30150.71
591.364	29597.76
591.561	29589.56
591.758	29687.87
591.955	29481.02
592.152	29849.66
592.349	29370.43
592.546	29216.83
592.743	29552.7
592.94	28915.78
593.137	29182.02
593.334	29571.13
593.531	28618.83
593.727	28958.79
593.924	29042.76
594.121	28758.09
594.318	28723.27
594.515	28842.06
594.712	29034.56
594.908	28366.93
595.105	28465.23
595.302	28008.53
595.499	28498
595.696	28074.07
595.892	28125.27
596.089	28061.78
596.286	28344.4
596.482	27783.26
596.679	27791.45
596.876	27703.39
597.072	27500.64
597.269	27545.69
597.466	27367.52
597.662	27082.85
597.859	27261.02
598.055	27095.14
598.252	27072.61
598.448	26890.34
598.645	27146.34
598.841	26536.04
599.038	26869.86
599.234	27043.94
599.431	26650.73
599.627	26464.36
599.824	26734.7
600.02	26411.12
600.217	26196.08
600.413	26429.55
600.609	26253.42
600.806	26116.21
601.002	26241.14
601.198	26083.44
601.395	25739.38
601.591	25952.37
601.787	25964.66
601.984	25288.83
602.18	25647.22
602.376	25499.77
602.572	25747.58
602.769	25335.93
602.965	24926.34
603.161	25442.43
603.357	24942.72
603.553	25299.07
603.75	25145.47
603.946	24995.97
604.142	25057.41
604.338	24842.37
604.534	24793.22
604.73	24363.15
604.926	24469.64
605.122	24574.09
605.318	24266.89
605.514	24338.57
605.71	24076.43
605.906	24270.99
606.102	24062.1
606.298	23998.61
606.494	23984.27
606.69	23922.83
606.886	24101.01
607.082	23398.55
607.278	23904.4
607.474	23472.28
607.67	23689.37
607.866	23554.2
608.062	23939.22
608.257	23412.89
608.453	23617.69
608.649	23738.52
608.845	23462.04
609.041	23636.12
609.236	23496.86
609.432	23402.65
609.628	23199.9
609.824	23105.7
610.019	23183.52
610.215	22771.88
610.411	22847.65
610.606	22685.86
610.802	22722.73
610.998	23083.17
611.193	23150.75
611.389	22663.33
611.584	22567.08
611.78	22585.51
611.976	22683.81
612.171	22511.78
612.367	22364.33
612.562	22436.01
612.758	22438.06
612.953	22317.23
613.149	22485.16
613.344	22096.05
613.539	22423.72
613.735	22251.69
613.93	22368.43
614.126	22077.62
614.321	22331.56
614.517	22270.12
614.712	22005.94
614.907	21612.73
615.103	22259.88
615.298	21754.04
615.493	22169.77
615.688	21782.71
615.884	22104.24
616.079	21608.63
616.274	21776.56
616.47	21342.39
616.665	21614.77
616.86	21455.03
617.055	21676.21
617.25	21547.19
617.445	21676.21
617.641	21076.16
617.836	21358.78
618.031	21276.86
618.226	21330.11
618.421	21045.44
618.616	21381.31
618.811	20576.45
619.006	21170.36
619.201	20664.52
619.396	20814.02
619.591	20738.24
619.786	20652.23
619.981	20324.55
620.176	20484.3
620.371	20324.55
620.566	20455.62
620.761	20248.78
620.956	20447.43
621.151	19945.68
621.346	20033.74
621.541	19671.25
621.735	19900.62
621.93	19888.34
622.125	19679.44
622.32	19585.24
622.515	19595.48
622.709	19405.02
622.904	19368.15
623.099	19321.05
623.294	19146.97
623.488	19185.88
623.683	19151.07
623.878	18735.33
624.072	18821.34
624.267	18485.48
624.462	18729.19
624.656	18387.18
624.851	18260.2
625.046	18374.89
625.24	18192.62
625.435	17957.1
625.629	17905.9
625.824	17750.26
626.018	17707.25
626.213	17457.4
626.407	17438.97
626.602	17414.39
626.796	17336.57
626.991	17336.57
627.185	17266.94
627.38	17099
627.574	16978.17
627.768	16675.07
627.963	16820.48
628.157	16740.61
628.352	16654.59
628.546	16308.49
628.74	16367.88
628.935	16681.22
629.129	16279.82
629.323	16218.38
629.517	16154.89
629.712	15931.66
629.906	16040.2
630.1	15763.73
630.294	15841.55
630.489	15626.51
630.683	15915.28
630.877	15612.18
631.071	15200.54
631.265	15341.85
631.459	15225.11
631.653	15081.75
631.848	15116.57
632.042	14803.23
632.236	15366.42
632.43	14944.54
632.624	14940.44
632.818	14872.86
633.012	14477.6
633.206	14536.99
633.4	14612.77
633.594	14342.44
633.788	14309.67
633.982	14557.47
634.176	14295.33
634.369	14291.24
634.563	14168.36
634.757	13979.95
634.951	14010.67
635.145	13951.28
635.339	13953.32
635.533	13687.09
635.726	13734.19
635.92	13558.07
636.114	13590.83
636.308	13498.67
636.501	13510.96
636.695	13502.77
636.889	13314.36
637.083	13254.97
637.276	13175.09
637.47	12990.78
637.664	13039.93
637.857	13017.4
638.051	12955.96
638.244	12900.67
638.438	12880.19
638.632	12654.91
638.825	12534.08
639.019	12687.68
639.212	12263.75
639.406	12509.51
639.599	12486.98
639.793	12290.37
639.986	11886.92
640.18	12294.47
640.373	12005.7
640.567	12011.85
640.76	12099.91
640.954	11891.02
641.147	11747.66
641.34	11753.8
641.534	11733.32
641.727	11829.58
641.92	11661.65
642.114	11553.1
642.307	11553.1
642.5	11297.11
642.694	11331.92
642.887	11311.44
643.08	11325.78
643.273	11196.76
643.467	11118.93
643.66	11153.75
643.853	10940.76
644.046	10948.95
644.239	11026.78
644.432	10912.09
644.626	10684.76
644.819	10699.1
645.012	10606.94
645.205	10692.96
645.398	10578.27
645.591	10533.22
645.784	10662.24
645.977	10367.33
646.17	10301.79
646.363	10301.79
646.556	10213.73
646.749	10314.08
646.942	10375.52
647.135	10082.66
647.328	9978.22
647.521	10045.8
647.714	9951.59
647.907	9855.34
648.099	9857.39
648.292	9871.72
648.485	9937.26
648.678	9666.92
648.871	9841
649.064	9560.43
649.256	9648.49
649.449	9496.94
649.642	9505.13
649.835	9455.98
650.027	9394.54
650.22	9257.33
650.413	9447.79
650.605	9242.99
650.798	9148.79
650.991	9001.33
651.183	9025.91
651.376	9046.39
651.568	9034.1
651.761	9099.64
651.954	9064.82
652.146	8808.83
652.339	8898.94
652.531	8735.1
652.724	8769.91
652.916	8442.24
653.109	8718.71
653.301	8591.74
653.494	8612.22
653.686	8321.41
653.879	8466.81
654.071	8384.9
654.263	8274.31
654.456	8462.72
654.648	8202.63
654.84	8079.75
655.033	8368.51
655.225	8044.93
655.417	8178.05
655.61	8094.08
655.802	8020.36
655.994	8087.94
656.186	8145.28
656.379	7887.24
656.571	7807.37
656.763	7756.17
656.955	7690.63
657.148	7770.51
657.34	7758.22
657.532	7457.17
657.724	7649.68
657.916	7731.59
658.108	7569.8
658.3	7522.7
658.492	7399.82
658.684	7422.35
658.876	7477.65
659.068	7461.26
659.26	7358.86
659.452	7340.43
659.644	7272.85
659.836	7266.71
660.028	7235.99
660.22	6922.65
660.412	7084.44
660.604	7023
660.796	6955.41
660.988	6928.79
661.18	6857.11
661.372	7092.63
661.563	6953.37
661.755	6773.14
661.947	6760.86
662.139	6750.62
662.331	6871.45
662.522	6683.03
662.714	6574.49
662.906	6642.07
663.097	6496.67
663.289	6488.48
663.481	6556.06
663.673	6449.57
663.864	6308.26
664.056	6447.52
664.247	6455.71
664.439	6349.22
664.631	6320.54
664.822	6306.21
665.014	6410.65
665.205	6355.36
665.397	6183.33
665.588	6295.97
665.78	6212
665.971	6197.67
666.163	6185.38
666.354	5990.82
666.546	6066.6
666.737	6005.16
666.929	5994.92
667.12	5929.38
667.311	5923.24
667.503	5900.71
667.694	5921.19
667.885	5720.49
668.077	5724.58
668.268	5822.89
668.459	5839.27
668.651	5814.7
668.842	5771.69
669.033	5681.58
669.224	5734.82
669.416	5544.36
669.607	5671.34
669.798	5630.38
669.989	5536.17
670.18	5331.37
670.371	5548.46
670.563	5546.41
670.754	5478.83
670.945	5384.62
671.136	5401.01
671.327	5401.01
671.518	5423.53
671.709	5360.05
671.9	5433.77
672.091	5441.96
672.282	5390.77
672.473	5429.68
672.664	5276.08
672.855	5128.63
673.046	5112.24
673.237	5407.15
673.428	5274.03
673.619	5075.38
673.809	5181.87
674	5110.19
674.191	5081.52
674.382	5013.94
674.573	5030.32
674.764	4954.55
674.954	5118.39
675.145	4991.41
675.336	5034.42
675.527	4846.01
675.717	4852.15
675.908	4979.12
676.099	4925.88
676.289	4866.49
676.48	4946.36
676.671	4860.34
676.861	4790.71
677.052	4862.39
677.243	4698.55
677.433	4821.43
677.624	4841.91
677.814	4633.02
678.005	4848.05
678.195	4669.88
678.386	4784.57
678.576	4698.55
678.767	4661.69
678.957	4731.32
679.148	4682.17
679.338	4532.67
679.529	4596.15
679.719	4524.47
679.909	4682.17
680.1	4483.52
680.29	4393.4
680.481	4487.61
680.671	4518.33
680.861	4594.11
681.052	4422.08
681.242	4567.48
681.432	4495.8
681.622	4430.27
681.813	4356.54
682.003	4424.12
682.193	4323.77
682.383	4374.97
682.573	4362.69
682.764	4334.01
682.954	4372.93
683.144	4315.58
683.334	4139.46
683.524	4401.6
683.714	4344.25
683.904	4258.24
684.094	4262.33
684.284	4260.29
684.474	4334.01
684.664	4180.42
684.854	4168.13
685.044	4250.05
685.234	4094.4
685.424	4166.08
685.614	4135.36
685.804	4086.21
685.994	4118.98
686.184	4164.03
686.374	4186.56
686.564	4071.87
686.753	4084.16
686.943	3987.91
687.133	4174.27
687.323	4026.82
687.513	4055.49
687.702	3996.1
687.892	3985.86
688.082	3946.95
688.272	3828.17
688.461	3854.79
688.651	3860.93
688.841	3865.03
689.03	3809.73
689.22	3791.3
689.41	3918.28
689.599	3684.81
689.789	3658.18
689.979	3744.2
690.168	3711.43
690.358	3697.1
690.547	3697.1
690.737	3701.19
690.926	3584.46
691.116	3434.96
691.305	3547.59
691.495	3670.47
691.684	3502.54
691.874	3432.91
692.063	3561.93
692.252	3400.14
692.442	3496.39
692.631	3514.83
692.82	3529.16
693.01	3422.67
693.199	3441.1
693.388	3426.76
693.578	3398.09
693.767	3490.25
693.956	3293.65
694.146	3205.58
694.335	3260.88
694.524	3168.72
694.713	3359.18
694.902	3408.33
695.092	3328.46
695.281	3277.26
695.47	3094.99
695.659	3254.73
695.848	3240.4
696.037	3201.49
696.226	3267.02
696.415	3189.2
696.604	3103.18
696.793	3113.42
696.982	3207.63
697.171	3127.76
697.36	3029.46
697.549	3170.77
697.738	3062.23
697.927	3115.47
698.116	3017.17
698.305	3094.99
698.494	3051.99
698.683	3092.94
698.872	3246.54
699.061	3023.31
699.25	3041.75
699.438	3049.94
699.627	3041.75
699.816	3006.93
700.005	2918.87
700.193	3019.22
700.382	3035.6
700.571	3068.37
700.76	2955.73
700.948	2992.59
701.137	2890.2
701.326	2855.38
701.514	2922.96
701.703	3011.03
701.892	2920.92
702.08	3086.8
702.269	2925.01
702.457	2939.35
702.646	2914.77
702.834	2722.26
703.023	2861.52
703.212	2937.3
703.4	2939.35
703.589	2953.68
703.777	3013.07
703.965	2843.09
704.154	2953.68
704.342	2861.52
704.531	2961.87
704.719	2775.51
704.907	2861.52
705.096	2775.51
705.284	2806.23
705.472	2929.11
705.661	2890.2
705.849	2804.18
706.037	2900.44
706.226	2894.29
706.414	2779.61
706.602	2912.72
706.79	2886.1
706.979	2787.8
707.167	2812.37
707.355	2724.31
707.543	2738.65
707.731	2761.17
707.919	2824.66
708.107	2738.65
708.296	2714.07
708.484	2812.37
708.672	2810.33
708.86	2695.64
709.048	2736.6
709.236	2734.55
709.424	2761.17
709.612	2720.21
709.8	2748.89
709.988	2791.89
710.176	2742.74
710.364	2806.23
710.551	2861.52
710.739	2765.27
710.927	2718.17
711.115	2703.83
711.303	2742.74
711.491	2593.24
711.679	2722.26
711.866	2775.51
712.054	2656.73
712.242	2494.94
712.43	2683.35
712.617	2705.88
712.805	2669.02
712.993	2632.15
713.181	2664.92
713.368	2685.4
713.556	2660.82
713.744	2697.69
713.931	2798.04
714.119	2654.68
714.306	2742.74
714.494	2773.46
714.682	2648.54
714.869	2724.31
715.057	2716.12
715.244	2793.94
715.432	2742.74
715.619	2634.2
715.807	2748.89
715.994	2652.63
716.182	2707.93
716.369	2601.43
716.556	2808.28
716.744	2634.2
716.931	2705.88
717.119	2705.88
717.306	2630.1
717.493	2726.36
717.681	2759.13
717.868	2732.5
718.055	2595.29
718.242	2718.17
718.43	2722.26
718.617	2781.65
718.804	2679.26
718.991	2691.54
719.179	2669.02
719.366	2648.54
719.553	2703.83
719.74	2583
719.927	2564.57
720.114	2611.67
720.301	2714.07
720.488	2646.49
720.676	2728.41
720.863	2703.83
721.05	2660.82
721.237	2619.86
721.424	2644.44
721.611	2656.73
721.798	2544.09
721.985	2535.9
722.172	2765.27
722.358	2628.06
722.545	2650.58
722.732	2621.91
722.919	2660.82
723.106	2605.53
723.293	2644.44
723.48	2603.48
723.667	2609.62
723.853	2576.86
724.04	2703.83
724.227	2509.27
724.414	2613.72
724.6	2554.33
724.787	2673.11
724.974	2666.97
725.161	2669.02
725.347	2660.82
725.534	2718.17
725.72	2771.41
725.907	2656.73
726.094	2689.49
726.28	2628.06
726.467	2640.34
726.653	2669.02
726.84	2556.38
727.027	2697.69
727.213	2535.9
727.4	2605.53
727.586	2658.78
727.773	2640.34
727.959	2634.2
728.145	2578.9
728.332	2681.3
728.518	2714.07
728.705	2683.35
728.891	2617.82
729.077	2666.97
729.264	2683.35
729.45	2632.15
729.636	2677.21
729.823	2638.3
730.009	2720.21
730.195	2603.48
730.382	2671.06
730.568	2673.11
730.754	2660.82
730.94	2658.78
731.126	2744.79
731.313	2656.73
731.499	2720.21
731.685	2738.65
731.871	2595.29
732.057	2757.08
732.243	2677.21
732.429	2595.29
732.615	2720.21
732.801	2519.51
732.987	2673.11
733.173	2636.25
733.359	2681.3
733.545	2589.14
733.731	2699.73
733.917	2709.97
734.103	2623.96
734.289	2666.97
734.475	2693.59
734.661	2638.3
734.847	2664.92
735.033	2716.12
735.219	2800.09
735.404	2705.88
735.59	2589.14
735.776	2699.73
735.962	2730.45
736.148	2644.44
736.333	2542.04
736.519	2509.27
736.705	2613.72
736.89	2554.33
737.076	2695.64
737.262	2609.62
737.447	2709.97
737.633	2732.5
737.819	2568.66
738.004	2689.49
738.19	2542.04
738.375	2636.25
738.561	2771.41
738.747	2578.9
738.932	2650.58
739.118	2628.06
739.303	2617.82
739.489	2466.27
739.674	2580.95
739.859	2636.25
740.045	2697.69
740.23	2556.38
740.416	2595.29
740.601	2671.06
740.786	2509.27
740.972	2576.86
741.157	2548.19
741.342	2619.86
741.528	2566.62
741.713	2558.42
741.898	2466.27
742.084	2578.9
742.269	2587.1
742.454	2583
742.639	2478.55
742.824	2599.38
743.01	2445.79
743.195	2513.37
743.38	2523.61
743.565	2470.36
743.75	2394.59
743.935	2435.55
744.12	2496.99
744.305	2433.5
744.49	2380.25
744.675	2359.77
744.86	2329.05
745.045	2472.41
745.23	2396.64
745.415	2359.77
745.6	2329.05
745.785	2410.97
745.97	2374.11
746.155	2361.82
746.34	2316.76
746.525	2378.2
746.71	2296.28
746.895	2163.17
747.079	2187.74
747.264	2279.9
747.449	2390.49
747.634	2200.03
747.819	2271.71
748.003	2107.87
748.188	2302.43
748.373	2179.55
748.557	2152.93
748.742	2150.88
748.927	2167.26
749.111	2228.7
749.296	2161.12
749.481	2109.92
749.665	2185.69
749.85	2079.2
750.034	2073.06
750.219	2056.67
750.404	2097.63
750.588	2036.19
750.773	2097.63
750.957	2122.21
751.141	2097.63
751.326	1939.94
751.51	2042.34
751.695	2003.43
751.879	2011.62
752.064	1868.26
752.248	1946.08
752.432	1991.14
752.617	1911.27
752.801	1931.75
752.985	1903.07
753.17	1835.49
753.354	1847.78
753.538	1784.29
753.722	1733.09
753.907	1819.11
754.091	1769.96
754.275	1864.16
754.459	1702.37
754.643	1837.54
754.828	1776.1
755.012	1829.35
755.196	1698.28
755.38	1688.04
755.564	1851.88
755.748	1706.47
755.932	1749.48
756.116	1757.67
756.3	1669.61
756.484	1569.26
756.668	1706.47
756.852	1661.41
757.036	1620.46
757.22	1642.98
757.404	1513.96
757.588	1550.82
757.772	1620.46
757.956	1516.01
758.14	1481.19
758.323	1599.98
758.507	1481.19
758.691	1569.26
758.875	1604.07
759.059	1481.19
759.242	1501.67
759.426	1489.39
759.61	1516.01
759.794	1524.2
759.977	1403.37
760.161	1518.06
760.345	1518.06
760.528	1427.95
760.712	1311.21
760.895	1419.75
761.079	1317.36
761.263	1427.95
761.446	1440.23
761.63	1415.66
761.813	1362.41
761.997	1391.08
762.18	1372.65
762.364	1372.65
762.547	1321.45
762.731	1356.27
762.914	1407.47
763.098	1327.6
763.281	1427.95
763.464	1276.4
763.648	1323.5
763.831	1294.83
764.015	1364.46
764.198	1237.49
764.381	1231.34
764.564	1202.67
764.748	1221.1
764.931	1303.02
765.114	1245.68
765.297	1305.07
765.481	1180.14
765.664	1260.01
765.847	1251.82
766.03	1229.29
766.213	1159.66
766.397	1253.87
766.58	1151.47
766.763	1223.15
766.946	1122.8
767.129	1198.57
767.312	1135.09
767.495	1184.24
767.678	1217.01
767.861	1200.62
768.044	1237.49
768.227	1225.2
768.41	1065.46
768.593	1094.13
768.776	1122.8
768.959	1182.19
769.142	1174
769.324	1114.61
769.507	1135.09
769.69	1163.76
769.873	1116.65
770.056	1139.18
770.239	1130.99
770.421	1049.07
770.604	1178.09
770.787	1073.65
770.97	1081.84
771.152	1174
771.335	1079.79
771.518	1047.02
771.7	1055.22
771.883	1008.11
772.066	1028.59
772.248	1110.51
772.431	985.58
772.613	1040.88
772.796	1049.07
772.978	1122.8
773.161	1036.78
773.343	1040.88
773.526	1020.4
773.708	973.3
773.891	975.35
774.073	1038.83
774.256	961.01
774.438	1020.4
774.621	911.86
774.803	956.91
774.985	1030.64
775.168	918
775.35	915.95
775.532	928.24
775.715	1049.07
775.897	1006.06
776.079	1004.02
776.261	909.81
776.444	815.6
776.626	825.84
776.808	868.85
776.99	803.32
777.173	782.84
777.355	889.33
777.537	874.99
777.719	848.37
777.901	885.23
778.083	784.88
778.265	834.04
778.447	784.88
778.629	741.88
778.811	825.84
778.993	811.51
779.175	786.93
779.357	825.84
779.539	731.64
779.721	670.2
779.903	772.6
780.085	752.12
780.267	827.89
780.449	770.55
780.631	745.97
780.812	821.75
780.994	727.54
781.176	750.07
781.358	748.02
781.54	680.44
781.721	760.31
781.903	698.87
782.085	688.63
782.267	733.68
782.448	674.29
782.63	694.77
782.812	682.49
782.993	596.47
783.175	725.49
783.357	659.96
783.538	690.68
783.72	641.53
783.901	662.01
784.083	651.77
784.264	657.91
784.446	645.62
784.627	612.85
784.809	666.1
784.99	563.7
785.172	633.33
785.353	633.33
785.535	549.37
785.716	641.53
785.897	563.7
786.079	633.33
786.26	547.32
786.441	530.94
786.623	555.51
786.804	602.61
786.985	582.14
787.167	506.36
787.348	588.28
787.529	662.01
787.71	575.99
787.891	520.7
788.073	541.18
788.254	563.7
788.435	537.08
788.616	610.81
788.797	471.54
788.978	547.32
789.159	459.26
789.34	518.65
789.522	500.22
789.703	414.2
789.884	494.07
790.065	508.41
790.246	455.16
790.427	567.8
790.607	440.83
790.788	481.78
790.969	420.35
791.15	514.55
791.331	473.59
791.512	481.78
791.693	489.98
791.874	430.59
792.054	504.31
792.235	449.02
792.416	483.83
792.597	457.21
792.778	397.82
792.958	420.35
793.139	444.92
793.32	502.26
793.5	387.58
793.681	418.3
793.862	334.33
794.042	352.76
794.223	416.25
794.404	393.72
794.584	373.24
794.765	385.53
794.945	377.34
795.126	379.39
795.306	387.58
795.487	434.68
795.667	354.81
795.848	326.14
796.028	334.33
796.209	326.14
796.389	416.25
796.57	418.3
796.75	377.34
796.93	432.63
797.111	311.8
797.291	315.9
797.471	432.63
797.652	391.67
797.832	276.99
798.012	330.23
798.192	379.39
798.373	297.47
798.553	334.33
798.733	324.09
798.913	289.28
799.093	285.18
799.274	305.66
799.454	358.91
799.634	356.86
799.814	469.5
799.994	379.39
800.174	383.48
800.354	358.91
800.534	233.98
800.714	332.28
800.894	258.56
801.074	256.51
801.254	322.04
801.434	332.28
801.614	334.33
801.794	215.55
801.974	745.97
802.154	344.57
802.334	262.65
802.514	297.47
802.693	307.71
802.873	344.57
803.053	360.95
803.233	299.52
803.413	236.03
803.592	303.61
803.772	205.31
803.952	330.23
804.131	268.8
804.311	320
804.491	272.89
804.67	276.99
804.85	260.6
805.03	248.32
805.209	320
805.389	250.36
805.568	233.98
805.748	276.99
805.928	301.56
806.107	311.8
806.287	217.6
806.466	301.56
806.646	262.65
806.825	299.52
807.004	262.65
807.184	256.51
807.363	285.18
807.543	264.7
807.722	225.79
807.901	305.66
808.081	217.6
808.26	246.27
808.439	256.51
808.619	260.6
808.798	219.64
808.977	215.55
809.156	205.31
809.336	176.64
809.515	270.84
809.694	166.4
809.873	201.21
810.052	236.03
810.231	264.7
810.411	162.3
810.59	297.47
810.769	289.28
810.948	207.36
811.127	221.69
811.306	258.56
811.485	209.4
811.664	274.94
811.843	186.88
812.022	203.26
812.201	160.25
812.38	199.16
812.559	227.84
812.737	217.6
812.916	158.21
813.095	223.74
813.274	197.12
813.453	219.64
813.632	195.07
813.811	244.22
813.989	150.01
814.168	207.36
814.347	197.12
814.526	211.45
814.704	225.79
814.883	195.07
815.062	133.63
815.24	250.36
815.419	188.93
815.598	227.84
815.776	150.01
815.955	156.16
816.133	121.34
816.312	164.35
816.49	127.49
816.669	184.83
816.847	158.21
817.026	262.65
817.204	129.53
817.383	182.78
817.561	190.97
817.74	199.16
817.918	178.69
818.097	133.63
818.275	125.44
818.453	231.93
818.632	127.49
818.81	180.73
818.988	217.6
819.167	203.26
819.345	166.4
819.523	193.02
819.701	168.45
819.879	154.11
820.058	207.36
820.236	133.63
820.414	92.67
820.592	168.45
820.77	115.2
820.948	117.25
821.127	223.74
821.305	160.25
821.483	193.02
821.661	182.78
821.839	129.53
822.017	166.4
822.195	172.54
822.373	231.93
822.551	197.12
822.729	154.11
822.907	152.06
823.085	168.45
823.262	152.06
823.44	139.77
823.618	129.53
823.796	168.45
823.974	186.88
824.152	178.69
824.329	119.29
824.507	147.97
824.685	131.58
824.863	96.77
825.04	125.44
825.218	186.88
825.396	150.01
825.574	121.34
825.751	84.48
825.929	164.35
826.107	139.77
826.284	203.26
826.462	176.64
826.639	150.01
826.817	90.62
826.994	154.11
827.172	135.68
827.349	131.58
827.527	178.69
827.704	158.21
827.882	170.49
828.059	119.29
828.237	102.91
828.414	117.25
828.591	72.19
828.769	174.59
828.946	139.77
829.124	158.21
829.301	96.77
829.478	109.05
829.655	94.72
829.833	184.83
830.01	170.49
830.187	176.64
830.364	47.62
830.542	156.16
830.719	172.54
830.896	98.81
831.073	158.21
831.25	55.81
831.427	162.3
831.604	115.2
831.782	111.1
831.959	156.16
832.136	121.34
832.313	119.29
832.49	102.91
832.667	203.26
832.844	82.43
833.021	96.77
833.198	133.63
833.374	66.05
833.551	127.49
833.728	117.25
833.905	180.73
834.082	88.57
834.259	92.67
834.436	158.21
834.612	94.72
834.789	113.15
834.966	193.02
835.143	113.15
835.319	6.66
835.496	143.87
835.673	111.1
835.85	141.82
836.026	143.87
836.203	201.21
836.38	55.81
836.556	135.68
836.733	213.5
836.909	121.34
837.086	92.67
837.262	143.87
837.439	131.58
837.616	98.81
837.792	70.14
837.968	74.24
838.145	-5.63
838.321	18.94
838.498	129.53
838.674	39.42
838.851	133.63
839.027	74.24
839.203	86.53
839.38	23.04
839.556	64
839.732	41.47
839.909	16.9
840.085	135.68
840.261	57.86
840.437	51.71
840.614	61.95
840.79	96.77
840.966	59.9
841.142	137.73
841.318	39.42
841.494	55.81
841.671	158.21
841.847	6.66
842.023	70.14
842.199	104.96
842.375	70.14
842.551	109.05
842.727	33.28
842.903	164.35
843.079	47.62
843.255	109.05
843.431	88.57
843.607	107.01
843.783	-13.82
843.959	88.57
844.134	-1.54
844.31	125.44
844.486	150.01
844.662	84.48
844.838	66.05
845.013	92.67
845.189	104.96
845.365	76.29
845.541	117.25
845.716	100.86
845.892	94.72
846.068	29.18
846.244	25.09
846.419	53.76
846.595	47.62
846.77	61.95
846.946	2.56
847.122	86.53
847.297	37.38
847.473	64
847.648	96.77
847.824	20.99
847.999	102.91
848.175	6.66
848.35	2.56
848.526	119.29
848.701	27.14
848.876	125.44
849.052	47.62
849.227	88.57
849.403	2.56
849.578	16.9
849.753	72.19
849.929	49.66
850.104	96.77
850.279	27.14
850.454	35.33
850.63	111.1
850.805	47.62
850.98	80.38
851.155	43.52
851.33	109.05
851.505	27.14
851.681	104.96
851.856	37.38
852.031	98.81
852.206	-13.82
852.381	61.95
852.556	25.09
852.731	90.62
852.906	-50.69
853.081	20.99
853.256	86.53
853.431	57.86
853.606	25.09
853.781	29.18
853.956	-32.26
854.131	37.38
854.305	57.86
854.48	-9.73
854.655	82.43
854.83	47.62
855.005	84.48
855.18	76.29
855.354	127.49
855.529	145.92
855.704	47.62
855.879	57.86
856.053	66.05
856.228	-69.12
856.403	76.29
856.577	18.94
856.752	35.33
856.926	53.76
857.101	98.81
857.276	37.38
857.45	-19.97
857.625	88.57
857.799	92.67
857.974	66.05
858.148	18.94
858.323	20.99
858.497	64
858.672	-11.78
858.846	31.23
859.02	23.04
859.195	-19.97
859.369	45.57
859.543	-9.73
859.718	23.04
859.892	43.52
860.066	76.29
860.241	6.66
860.415	49.66
860.589	29.18
860.763	57.86
860.938	20.99
861.112	53.76
861.286	8.7
861.46	88.57
861.634	10.75
861.808	-22.02
861.982	100.86
862.157	102.91
862.331	41.47
862.505	16.9
862.679	8.7
862.853	41.47
863.027	53.76
863.201	55.81
863.375	14.85
863.549	43.52
863.722	16.9
863.896	154.11
864.07	57.86
864.244	109.05
864.418	37.38
864.592	25.09
864.766	33.28
864.939	107.01
865.113	-28.16
865.287	29.18
865.461	35.33
865.634	86.53
865.808	-52.74
865.982	-3.58
866.156	86.53
866.329	12.8
866.503	-19.97
866.676	143.87
866.85	27.14
867.024	66.05
867.197	45.57
867.371	-5.63
867.544	20.99
867.718	53.76
867.891	33.28
868.065	25.09
868.238	-5.63
868.412	39.42
868.585	-1.54
868.759	98.81
868.932	4.61
869.105	-1.54
869.279	80.38
869.452	51.71
869.625	2.56
869.799	61.95
869.972	25.09
870.145	-7.68
870.319	92.67
870.492	39.42
870.665	0.51
870.838	53.76
871.011	6.66
871.185	-13.82
871.358	18.94
871.531	59.9
871.704	-30.21
871.877	59.9
872.05	68.09
872.223	55.81
872.396	51.71
872.569	43.52
872.742	41.47
872.915	143.87
873.088	39.42
873.261	27.14
873.434	49.66
873.607	92.67
873.78	33.28
873.953	76.29
874.126	27.14
874.299	90.62
874.471	20.99
874.644	-7.68
874.817	0.51
874.99	43.52
875.163	23.04
875.335	37.38
875.508	35.33
875.681	33.28
875.853	-54.78
876.026	47.62
876.199	35.33
876.371	47.62
876.544	51.71
876.717	6.66
876.889	88.57
877.062	55.81
877.234	-7.68
877.407	4.61
877.579	39.42
877.752	8.7
877.924	2.56
878.097	-24.06
878.269	74.24
878.442	-17.92
878.614	47.62
878.786	29.18
878.959	23.04
879.131	-22.02
879.303	59.9
879.476	20.99
879.648	53.76
879.82	51.71
879.993	47.62
880.165	45.57
880.337	8.7
880.509	41.47
880.681	47.62
880.854	2.56
881.026	2.56
881.198	72.19
881.37	-13.82
881.542	55.81
881.714	-26.11
881.886	4.61
882.058	0.51
882.23	119.29
882.402	115.2
882.574	27.14
882.746	57.86
882.918	96.77
883.09	41.47
883.262	39.42
883.434	-7.68
883.606	59.9
883.778	10.75
883.95	16.9
884.122	12.8
884.293	-40.45
884.465	61.95
884.637	55.81
884.809	27.14
884.98	25.09
885.152	18.94
885.324	61.95
885.496	35.33
885.667	72.19
885.839	57.86
886.011	14.85
886.182	-5.63
886.354	45.57
886.525	98.81
886.697	133.63
886.869	25.09
887.04	27.14
887.212	25.09
887.383	37.38
887.555	-44.54
887.726	18.94
887.897	45.57
888.069	70.14
888.24	82.43
888.412	10.75
888.583	8.7
888.754	-48.64
888.926	-1.54
889.097	51.71
889.268	66.05
889.44	76.29
889.611	-22.02
889.782	35.33
889.953	-5.63
890.125	94.72
890.296	-1.54
890.467	31.23
890.638	-9.73
890.809	-3.58
890.98	49.66
891.151	-3.58
891.323	27.14
891.494	53.76
891.665	-65.02
891.836	8.7
892.007	27.14
892.178	45.57
892.349	14.85
892.52	43.52
892.691	-13.82
892.862	61.95
893.032	-26.11
893.203	68.09
893.374	59.9
893.545	51.71
893.716	-5.63
893.887	25.09
894.057	51.71
894.228	20.99
894.399	-48.64
894.57	27.14
894.74	80.38
894.911	55.81
895.082	64
895.253	6.66
895.423	4.61
895.594	51.71
895.764	70.14
895.935	29.18
896.106	47.62
896.276	33.28
896.447	12.8
896.617	-9.73
896.788	6.66
896.958	18.94
897.129	4.61
897.299	35.33
897.47	72.19
897.64	18.94
897.81	51.71
897.981	82.43
898.151	2.56
898.322	82.43
898.492	-3.58
898.662	6.66
898.832	25.09
899.003	14.85
899.173	4.61
899.343	59.9
899.513	2.56
