Data from USB4F104151__21__11-44-39-753.txt Node

Date: Fri Mar 14 11:44:39 EDT 2025
User: louis
Spectrometer: USB4F10415
Trigger mode: 4
Integration Time (sec): 2.000000E-2
Scans to average: 1
Electric dark correction enabled: true
Nonlinearity correction enabled: false
Boxcar width: 0
XAxis mode: Wavelengths
Number of Pixels in Spectrum: 3648
>>>>>Begin Spectral Data<<<<<
178.204	-50.86
178.424	-50.86
178.644	-50.86
178.864	-50.86
179.084	-120.49
179.304	10.58
179.524	-28.33
179.744	-13.99
179.964	-1.71
180.184	-5.8
180.404	-48.81
180.624	49.49
180.844	33.11
181.064	-9.9
181.283	-42.67
181.503	-13.99
181.723	72.02
181.943	-30.38
182.163	29.01
182.383	24.92
182.602	61.78
182.822	10.58
183.042	108.88
183.262	10.58
183.482	-5.8
183.701	63.83
183.921	59.73
184.141	-28.33
184.361	78.16
184.58	37.2
184.8	-18.09
185.02	6.49
185.239	55.64
185.459	35.16
185.679	49.49
185.898	-5.8
186.118	14.68
186.338	-1.71
186.557	-20.14
186.777	18.77
186.997	29.01
187.216	-3.75
187.436	80.21
187.655	59.73
187.875	61.78
188.095	49.49
188.314	82.26
188.534	2.39
188.753	37.2
188.973	6.49
189.192	55.64
189.412	57.68
189.631	33.11
189.851	41.3
190.07	47.44
190.29	31.06
190.509	125.27
190.729	-1.71
190.948	14.68
191.168	129.36
191.387	20.82
191.607	-20.14
191.826	22.87
192.045	35.16
192.265	-32.43
192.484	26.96
192.704	110.93
192.923	18.77
193.142	106.84
193.362	55.64
193.581	8.53
193.8	-1.71
194.02	98.64
194.239	33.11
194.458	53.59
194.678	-13.99
194.897	37.2
195.116	72.02
195.335	65.88
195.555	43.35
195.774	49.49
195.993	96.6
196.212	100.69
196.432	-22.19
196.651	39.25
196.87	51.54
197.089	96.6
197.308	47.44
197.528	90.45
197.747	-13.99
197.966	-11.95
198.185	39.25
198.404	-30.38
198.623	-24.23
198.842	22.87
199.062	4.44
199.281	121.17
199.5	8.53
199.719	108.88
199.938	96.6
200.157	22.87
200.376	41.3
200.595	24.92
200.814	67.92
201.033	18.77
201.252	-7.85
201.471	74.07
201.69	55.64
201.909	18.77
202.128	53.59
202.347	-5.8
202.566	63.83
202.785	8.53
203.004	14.68
203.223	76.12
203.442	29.01
203.661	59.73
203.879	37.2
204.098	4.44
204.317	-7.85
204.536	55.64
204.755	47.44
204.974	65.88
205.193	35.16
205.411	51.54
205.63	67.92
205.849	49.49
206.068	67.92
206.287	22.87
206.505	49.49
206.724	12.63
206.943	45.4
207.162	31.06
207.381	22.87
207.599	26.96
207.818	47.44
208.037	39.25
208.255	72.02
208.474	51.54
208.693	104.79
208.911	0.34
209.13	65.88
209.349	22.87
209.567	-9.9
209.786	31.06
210.005	45.4
210.223	63.83
210.442	-20.14
210.661	41.3
210.879	61.78
211.098	106.84
211.316	14.68
211.535	29.01
211.753	-22.19
211.972	108.88
212.191	14.68
212.409	39.25
212.628	57.68
212.846	63.83
213.065	37.2
213.283	104.79
213.502	57.68
213.72	92.5
213.938	-7.85
214.157	49.49
214.375	80.21
214.594	-5.8
214.812	51.54
215.031	8.53
215.249	31.06
215.467	49.49
215.686	43.35
215.904	86.36
216.122	80.21
216.341	51.54
216.559	33.11
216.778	-5.8
216.996	31.06
217.214	65.88
217.432	53.59
217.651	-22.19
217.869	69.97
218.087	-18.09
218.306	119.12
218.524	78.16
218.742	22.87
218.96	-22.19
219.179	108.88
219.397	80.21
219.615	49.49
219.833	26.96
220.051	26.96
220.27	82.26
220.488	61.78
220.706	45.4
220.924	92.5
221.142	-5.8
221.36	-9.9
221.578	4.44
221.796	-1.71
222.015	84.31
222.233	41.3
222.451	69.97
222.669	10.58
222.887	123.22
223.105	-87.72
223.323	80.21
223.541	-46.76
223.759	104.79
223.977	78.16
224.195	65.88
224.413	117.08
224.631	31.06
224.849	55.64
225.067	84.31
225.285	-5.8
225.503	80.21
225.721	-30.38
225.939	69.97
226.157	37.2
226.375	20.82
226.592	20.82
226.81	131.41
227.028	49.49
227.246	94.55
227.464	16.73
227.682	43.35
227.9	29.01
228.117	43.35
228.335	129.36
228.553	92.5
228.771	18.77
228.989	67.92
229.206	0.34
229.424	82.26
229.642	49.49
229.86	69.97
230.077	6.49
230.295	43.35
230.513	78.16
230.731	43.35
230.948	123.22
231.166	100.69
231.384	-9.9
231.601	47.44
231.819	96.6
232.037	24.92
232.254	33.11
232.472	-24.23
232.689	63.83
232.907	8.53
233.125	33.11
233.342	55.64
233.56	-11.95
233.777	57.68
233.995	-34.47
234.213	37.2
234.43	26.96
234.648	-3.75
234.865	29.01
235.083	108.88
235.3	33.11
235.518	65.88
235.735	43.35
235.953	43.35
236.17	6.49
236.388	24.92
236.605	24.92
236.822	84.31
237.04	96.6
237.257	-22.19
237.475	61.78
237.692	53.59
237.909	-13.99
238.127	49.49
238.344	39.25
238.562	72.02
238.779	26.96
238.996	12.63
239.214	24.92
239.431	55.64
239.648	14.68
239.865	57.68
240.083	92.5
240.3	72.02
240.517	-28.33
240.735	6.49
240.952	69.97
241.169	51.54
241.386	90.45
241.603	41.3
241.821	115.03
242.038	133.46
242.255	67.92
242.472	43.35
242.689	45.4
242.907	53.59
243.124	14.68
243.341	94.55
243.558	41.3
243.775	63.83
243.992	35.16
244.209	53.59
244.426	6.49
244.643	112.98
244.86	20.82
245.078	-32.43
245.295	22.87
245.512	100.69
245.729	16.73
245.946	0.34
246.163	84.31
246.38	108.88
246.597	37.2
246.814	76.12
247.031	65.88
247.248	43.35
247.464	41.3
247.681	90.45
247.898	37.2
248.115	80.21
248.332	72.02
248.549	63.83
248.766	26.96
248.983	49.49
249.2	2.39
249.417	69.97
249.633	74.07
249.85	94.55
250.067	39.25
250.284	84.31
250.501	47.44
250.717	43.35
250.934	67.92
251.151	53.59
251.368	41.3
251.585	76.12
251.801	41.3
252.018	31.06
252.235	96.6
252.451	16.73
252.668	-63.15
252.885	10.58
253.102	18.77
253.318	72.02
253.535	-18.09
253.752	137.56
253.968	-34.47
254.185	37.2
254.401	37.2
254.618	84.31
254.835	59.73
255.051	131.41
255.268	51.54
255.484	117.08
255.701	-1.71
255.917	127.32
256.134	-5.8
256.351	22.87
256.567	33.11
256.784	35.16
257	-36.52
257.217	80.21
257.433	-1.71
257.65	65.88
257.866	59.73
258.082	74.07
258.299	92.5
258.515	45.4
258.732	-18.09
258.948	-13.99
259.165	63.83
259.381	-3.75
259.597	102.74
259.814	72.02
260.03	61.78
260.246	110.93
260.463	-9.9
260.679	43.35
260.895	76.12
261.112	49.49
261.328	76.12
261.544	90.45
261.761	59.73
261.977	45.4
262.193	45.4
262.409	12.63
262.626	65.88
262.842	96.6
263.058	47.44
263.274	61.78
263.49	78.16
263.707	49.49
263.923	51.54
264.139	-38.57
264.355	65.88
264.571	96.6
264.787	80.21
265.004	43.35
265.22	96.6
265.436	72.02
265.652	14.68
265.868	86.36
266.084	22.87
266.3	57.68
266.516	-7.85
266.732	53.59
266.948	45.4
267.164	22.87
267.38	29.01
267.596	104.79
267.812	115.03
268.028	78.16
268.244	14.68
268.46	96.6
268.676	57.68
268.892	65.88
269.108	41.3
269.324	35.16
269.54	59.73
269.756	92.5
269.972	33.11
270.188	-44.71
270.403	-9.9
270.619	96.6
270.835	49.49
271.051	96.6
271.267	112.98
271.483	47.44
271.698	57.68
271.914	12.63
272.13	47.44
272.346	43.35
272.562	31.06
272.777	37.2
272.993	24.92
273.209	76.12
273.425	39.25
273.64	-5.8
273.856	37.2
274.072	31.06
274.287	49.49
274.503	2.39
274.719	133.46
274.934	84.31
275.15	2.39
275.366	33.11
275.581	55.64
275.797	-59.05
276.012	-36.52
276.228	119.12
276.444	41.3
276.659	43.35
276.875	43.35
277.09	80.21
277.306	-34.47
277.521	65.88
277.737	26.96
277.952	20.82
278.168	39.25
278.383	82.26
278.599	86.36
278.814	76.12
279.03	88.4
279.245	74.07
279.461	63.83
279.676	69.97
279.892	2.39
280.107	-30.38
280.322	47.44
280.538	29.01
280.753	57.68
280.969	45.4
281.184	80.21
281.399	123.22
281.615	31.06
281.83	45.4
282.045	137.56
282.26	-11.95
282.476	-42.67
282.691	45.4
282.906	20.82
283.122	47.44
283.337	63.83
283.552	10.58
283.767	4.44
283.983	24.92
284.198	80.21
284.413	22.87
284.628	0.34
284.843	55.64
285.058	57.68
285.274	49.49
285.489	14.68
285.704	100.69
285.919	141.65
286.134	51.54
286.349	43.35
286.564	-54.95
286.779	76.12
286.995	47.44
287.21	55.64
287.425	14.68
287.64	72.02
287.855	14.68
288.07	0.34
288.285	80.21
288.5	18.77
288.715	100.69
288.93	14.68
289.145	31.06
289.36	18.77
289.575	45.4
289.79	76.12
290.004	80.21
290.219	6.49
290.434	41.3
290.649	74.07
290.864	20.82
291.079	41.3
291.294	53.59
291.509	8.53
291.724	67.92
291.938	67.92
292.153	125.27
292.368	-50.86
292.583	104.79
292.798	119.12
293.012	59.73
293.227	55.64
293.442	80.21
293.657	45.4
293.871	51.54
294.086	115.03
294.301	90.45
294.516	76.12
294.73	29.01
294.945	26.96
295.16	-28.33
295.374	55.64
295.589	78.16
295.804	76.12
296.018	18.77
296.233	86.36
296.447	16.73
296.662	-34.47
296.877	0.34
297.091	41.3
297.306	74.07
297.52	-20.14
297.735	45.4
297.949	14.68
298.164	-34.47
298.378	67.92
298.593	20.82
298.807	61.78
299.022	69.97
299.236	65.88
299.451	80.21
299.665	12.63
299.88	-38.57
300.094	18.77
300.309	108.88
300.523	-16.04
300.737	-1.71
300.952	45.4
301.166	80.21
301.381	39.25
301.595	102.74
301.809	-16.04
302.024	61.78
302.238	43.35
302.452	92.5
302.667	65.88
302.881	98.64
303.095	82.26
303.309	37.2
303.524	53.59
303.738	72.02
303.952	31.06
304.166	74.07
304.381	-67.24
304.595	106.84
304.809	39.25
305.023	59.73
305.237	47.44
305.452	18.77
305.666	119.12
305.88	35.16
306.094	47.44
306.308	41.3
306.522	22.87
306.736	29.01
306.95	59.73
307.164	41.3
307.379	119.12
307.593	45.4
307.807	80.21
308.021	115.03
308.235	112.98
308.449	10.58
308.663	47.44
308.877	117.08
309.091	65.88
309.305	78.16
309.519	14.68
309.733	82.26
309.947	35.16
310.161	22.87
310.374	141.65
310.588	67.92
310.802	53.59
311.016	37.2
311.23	33.11
311.444	45.4
311.658	22.87
311.872	96.6
312.085	57.68
312.299	80.21
312.513	57.68
312.727	108.88
312.941	55.64
313.154	61.78
313.368	78.16
313.582	-16.04
313.796	57.68
314.009	-7.85
314.223	31.06
314.437	26.96
314.651	57.68
314.864	72.02
315.078	-7.85
315.292	49.49
315.505	76.12
315.719	49.49
315.933	92.5
316.146	69.97
316.36	16.73
316.573	74.07
316.787	84.31
317.001	24.92
317.214	-18.09
317.428	67.92
317.641	98.64
317.855	12.63
318.068	-5.8
318.282	63.83
318.495	112.98
318.709	55.64
318.922	78.16
319.136	20.82
319.349	69.97
319.563	12.63
319.776	-3.75
319.99	35.16
320.203	49.49
320.417	24.92
320.63	69.97
320.843	108.88
321.057	39.25
321.27	51.54
321.483	18.77
321.697	76.12
321.91	82.26
322.124	8.53
322.337	80.21
322.55	82.26
322.763	55.64
322.977	61.78
323.19	37.2
323.403	112.98
323.617	96.6
323.83	90.45
324.043	43.35
324.256	-5.8
324.469	63.83
324.683	98.64
324.896	78.16
325.109	-3.75
325.322	-9.9
325.535	-22.19
325.748	18.77
325.962	57.68
326.175	51.54
326.388	72.02
326.601	49.49
326.814	-13.99
327.027	-16.04
327.24	47.44
327.453	18.77
327.666	-1.71
327.879	14.68
328.092	57.68
328.305	14.68
328.518	108.88
328.731	59.73
328.944	37.2
329.157	117.08
329.37	16.73
329.583	96.6
329.796	139.6
330.009	33.11
330.222	37.2
330.435	86.36
330.648	88.4
330.861	57.68
331.073	55.64
331.286	67.92
331.499	61.78
331.712	33.11
331.925	26.96
332.138	-16.04
332.35	37.2
332.563	35.16
332.776	135.51
332.989	112.98
333.202	2.39
333.414	55.64
333.627	59.73
333.84	39.25
334.053	57.68
334.265	-11.95
334.478	63.83
334.691	102.74
334.903	43.35
335.116	-3.75
335.329	41.3
335.541	59.73
335.754	76.12
335.966	63.83
336.179	18.77
336.392	63.83
336.604	47.44
336.817	65.88
337.029	45.4
337.242	14.68
337.454	74.07
337.667	-59.05
337.88	131.41
338.092	98.64
338.305	92.5
338.517	-1.71
338.729	61.78
338.942	96.6
339.154	76.12
339.367	86.36
339.579	39.25
339.792	45.4
340.004	47.44
340.217	80.21
340.429	78.16
340.641	115.03
340.854	108.88
341.066	61.78
341.278	145.75
341.491	65.88
341.703	80.21
341.915	37.2
342.128	90.45
342.34	115.03
342.552	96.6
342.764	69.97
342.977	22.87
343.189	57.68
343.401	45.4
343.613	31.06
343.826	84.31
344.038	49.49
344.25	51.54
344.462	-24.23
344.674	104.79
344.886	59.73
345.099	67.92
345.311	80.21
345.523	-5.8
345.735	80.21
345.947	86.36
346.159	53.59
346.371	51.54
346.583	24.92
346.795	84.31
347.007	72.02
347.219	125.27
347.431	16.73
347.643	129.36
347.855	41.3
348.067	82.26
348.279	106.84
348.491	-67.24
348.703	49.49
348.915	55.64
349.127	33.11
349.339	14.68
349.551	119.12
349.763	100.69
349.975	55.64
350.187	90.45
350.399	74.07
350.61	76.12
350.822	78.16
351.034	72.02
351.246	6.49
351.458	72.02
351.669	14.68
351.881	76.12
352.093	102.74
352.305	29.01
352.517	80.21
352.728	94.55
352.94	106.84
353.152	61.78
353.363	26.96
353.575	168.27
353.787	96.6
353.999	98.64
354.21	96.6
354.422	14.68
354.633	26.96
354.845	59.73
355.057	88.4
355.268	127.32
355.48	26.96
355.692	76.12
355.903	59.73
356.115	65.88
356.326	49.49
356.538	39.25
356.749	57.68
356.961	35.16
357.172	24.92
357.384	39.25
357.595	74.07
357.807	57.68
358.018	112.98
358.23	137.56
358.441	98.64
358.653	51.54
358.864	65.88
359.075	8.53
359.287	-5.8
359.498	117.08
359.709	49.49
359.921	10.58
360.132	37.2
360.344	63.83
360.555	82.26
360.766	67.92
360.977	51.54
361.189	117.08
361.4	80.21
361.611	88.4
361.823	139.6
362.034	51.54
362.245	35.16
362.456	39.25
362.667	6.49
362.879	119.12
363.09	108.88
363.301	102.74
363.512	49.49
363.723	35.16
363.935	65.88
364.146	57.68
364.357	18.77
364.568	63.83
364.779	8.53
364.99	143.7
365.201	-1.71
365.412	98.64
365.623	55.64
365.834	69.97
366.045	78.16
366.256	166.23
366.467	65.88
366.678	35.16
366.889	45.4
367.1	86.36
367.311	29.01
367.522	41.3
367.733	31.06
367.944	65.88
368.155	35.16
368.366	102.74
368.577	112.98
368.788	55.64
368.999	49.49
369.209	41.3
369.42	69.97
369.631	125.27
369.842	102.74
370.053	2.39
370.264	133.46
370.474	43.35
370.685	51.54
370.896	67.92
371.107	67.92
371.317	61.78
371.528	100.69
371.739	125.27
371.95	49.49
372.16	6.49
372.371	43.35
372.582	49.49
372.792	133.46
373.003	90.45
373.214	67.92
373.424	47.44
373.635	35.16
373.846	108.88
374.056	59.73
374.267	59.73
374.477	67.92
374.688	43.35
374.898	55.64
375.109	53.59
375.319	121.17
375.53	39.25
375.74	115.03
375.951	133.46
376.161	59.73
376.372	106.84
376.582	123.22
376.793	76.12
377.003	29.01
377.214	123.22
377.424	31.06
377.635	133.46
377.845	104.79
378.055	49.49
378.266	98.64
378.476	12.63
378.686	94.55
378.897	84.31
379.107	37.2
379.317	35.16
379.528	67.92
379.738	135.51
379.948	84.31
380.158	125.27
380.369	69.97
380.579	45.4
380.789	39.25
380.999	106.84
381.21	117.08
381.42	69.97
381.63	80.21
381.84	74.07
382.05	139.6
382.261	76.12
382.471	96.6
382.681	88.4
382.891	121.17
383.101	112.98
383.311	6.49
383.521	80.21
383.731	57.68
383.941	108.88
384.151	65.88
384.361	98.64
384.571	78.16
384.781	133.46
384.991	139.6
385.201	137.56
385.411	115.03
385.621	102.74
385.831	47.44
386.041	121.17
386.251	135.51
386.461	96.6
386.671	96.6
386.881	92.5
387.091	47.44
387.301	143.7
387.511	166.23
387.72	92.5
387.93	57.68
388.14	147.8
388.35	135.51
388.56	117.08
388.769	94.55
388.979	135.51
389.189	117.08
389.399	108.88
389.609	80.21
389.818	96.6
390.028	106.84
390.238	162.13
390.447	84.31
390.657	90.45
390.867	84.31
391.076	57.68
391.286	92.5
391.496	102.74
391.705	84.31
391.915	98.64
392.125	112.98
392.334	112.98
392.544	102.74
392.753	123.22
392.963	78.16
393.172	84.31
393.382	186.71
393.591	90.45
393.801	133.46
394.01	137.56
394.22	131.41
394.429	80.21
394.639	51.54
394.848	43.35
395.058	106.84
395.267	137.56
395.477	141.65
395.686	65.88
395.895	141.65
396.105	141.65
396.314	90.45
396.524	231.76
396.733	137.56
396.942	158.03
397.152	172.37
397.361	143.7
397.57	110.93
397.78	127.32
397.989	121.17
398.198	250.19
398.407	207.19
398.617	207.19
398.826	153.94
399.035	178.51
399.244	137.56
399.453	153.94
399.663	250.19
399.872	129.36
400.081	86.36
400.29	133.46
400.499	158.03
400.708	112.98
400.917	248.15
401.127	143.7
401.336	178.51
401.545	291.15
401.754	155.99
401.963	219.47
402.172	143.7
402.381	131.41
402.59	153.94
402.799	184.66
403.008	196.95
403.217	184.66
403.426	174.42
403.635	104.79
403.844	242
404.053	248.15
404.262	145.75
404.471	215.38
404.68	104.79
404.888	188.75
405.097	231.76
405.306	223.57
405.515	209.23
405.724	256.34
405.933	246.1
406.142	235.86
406.35	254.29
406.559	221.52
406.768	282.96
406.977	235.86
407.185	219.47
407.394	280.91
407.603	188.75
407.812	262.48
408.02	362.83
408.229	344.4
408.438	371.02
408.646	354.64
408.855	348.5
409.064	414.03
409.272	315.73
409.481	313.68
409.69	338.26
409.898	459.09
410.107	393.55
410.315	452.94
410.524	420.17
410.733	477.52
410.941	506.19
411.15	551.24
411.358	549.2
411.567	610.64
411.775	579.92
411.984	489.81
412.192	584.01
412.401	612.68
412.609	737.61
412.818	696.65
413.026	688.46
413.234	803.15
413.443	751.95
413.651	743.75
413.86	846.15
414.068	749.9
414.276	942.41
414.485	823.62
414.693	909.64
414.901	883.02
415.11	1042.76
415.318	919.88
415.526	960.84
415.734	1139.01
415.943	997.7
416.151	1055.05
416.359	1153.35
416.567	1155.4
416.776	1145.16
416.984	1337.66
417.192	1456.45
417.4	1368.38
417.608	1368.38
417.817	1503.55
418.025	1552.7
418.233	1610.04
418.441	1591.61
418.649	1714.49
418.857	1704.25
419.065	1800.51
419.273	1775.93
419.481	1931.58
419.689	1974.58
419.897	2099.51
420.105	2064.69
420.313	2201.91
420.521	2195.76
420.729	2156.85
420.937	2328.88
421.145	2371.89
421.353	2580.78
421.561	2689.32
421.769	2767.15
421.977	2781.48
422.185	2859.31
422.393	3182.88
422.601	3096.87
422.809	3252.52
423.017	3242.28
423.224	3373.35
423.432	3363.11
423.64	3397.92
423.848	3797.28
424.056	3625.25
424.263	3961.11
424.471	3932.44
424.679	4040.98
424.887	4256.02
425.094	4231.44
425.302	4548.88
425.51	4581.65
425.718	4763.92
425.925	4798.73
426.133	4972.81
426.341	5163.27
426.548	5585.15
426.756	5368.07
426.964	5513.47
427.171	5953.79
427.379	6013.18
427.586	6205.69
427.794	6150.39
428.001	6357.24
428.209	6994.15
428.417	6775.02
428.624	7420.13
428.832	7303.4
429.039	7178.47
429.247	7268.58
429.454	7751.9
429.662	8231.13
429.869	7889.12
430.076	8390.87
430.284	8143.07
430.491	8642.77
430.699	9048.27
430.906	9019.6
431.114	9236.68
431.321	9769.15
431.528	9726.14
431.736	10238.14
431.943	10883.25
432.15	10426.55
432.358	10776.75
432.565	11200.68
432.772	11065.52
432.979	11645.09
433.187	11817.12
433.394	12079.26
433.601	12990.61
433.808	12939.41
434.016	12781.71
434.223	13435.02
434.43	14092.41
434.637	13682.82
434.844	14485.62
435.052	14964.85
435.259	14819.44
435.466	15005.81
435.673	14968.94
435.88	15831.14
436.087	16543.83
436.294	16625.75
436.501	16343.13
436.708	16592.98
436.915	17168.46
437.122	18128.96
437.329	17903.68
437.537	18720.82
437.743	18630.71
437.95	18534.46
438.157	19527.72
438.364	20279.33
438.571	20084.77
438.778	20269.09
438.985	22265.86
439.192	21352.46
439.399	21940.23
439.606	21467.15
439.813	22902.78
440.02	24176.61
440.227	23482.35
440.433	23570.41
440.64	24391.65
440.847	24193
441.054	24539.1
441.261	26394.56
441.467	26263.49
441.674	26750.91
441.881	27592.62
442.088	27631.54
442.294	27402.16
442.501	27824.04
442.708	28602.27
442.914	29532.05
443.121	30613.38
443.328	30154.63
443.534	31752.05
443.741	31156.09
443.948	30652.29
444.154	32984.93
444.361	32986.97
444.568	32857.95
444.774	33197.91
444.981	33673.04
445.187	34336.59
445.394	36181.81
445.6	35653.43
445.807	38842.12
446.013	36927.27
446.22	37846.8
446.426	39315.2
446.633	39436.03
446.839	40900.33
447.046	39481.08
447.252	41373.41
447.459	41228
447.665	41316.06
447.871	43220.67
448.078	44813.99
448.284	42794.7
448.491	43546.3
448.697	45461.15
448.903	46513.81
449.11	46562.96
449.316	45559.45
449.522	46636.69
449.728	48135.8
449.935	48336.5
450.141	48486
450.347	49124.97
450.553	47566.46
450.76	48428.66
450.966	49874.52
451.172	49186.41
451.378	50277.97
451.584	49385.06
451.791	50835.02
451.997	50146.9
452.203	51496.52
452.409	51156.55
452.615	50966.09
452.821	49036.91
453.027	49004.14
453.233	50947.66
453.44	49311.33
453.646	50042.46
453.852	49829.47
454.058	50925.13
454.264	49241.7
454.47	50343.51
454.676	48772.72
454.882	51050.06
455.088	46476.94
455.294	47044.23
455.5	47947.39
455.705	48205.43
455.911	46003.86
456.117	45473.44
456.323	44691.12
456.529	42344.14
456.735	44740.27
456.941	43335.36
457.147	42606.28
457.352	41367.26
457.558	40881.89
457.764	41168.61
457.97	40406.76
458.176	39882.48
458.381	39595.77
458.587	38004.5
458.793	37762.84
458.999	35497.78
459.204	38024.98
459.41	36886.31
459.616	34662.21
459.821	34746.18
460.027	34418.5
460.233	33826.64
460.438	32175.98
460.644	32604
460.85	31113.08
461.055	30660.48
461.261	30797.7
461.466	28311.46
461.672	27381.68
461.878	29462.42
462.083	27494.32
462.289	26789.82
462.494	26462.15
462.7	25595.85
462.905	24424.42
463.111	25681.87
463.316	26060.74
463.522	24924.12
463.727	24973.27
463.932	24924.12
464.138	24920.03
464.343	24872.92
464.549	24362.98
464.754	25077.72
464.959	24995.8
465.165	24715.23
465.37	23728.11
465.575	22802.43
465.781	23992.3
465.986	24213.48
466.191	23308.27
466.397	22624.25
466.602	21483.53
466.807	22630.4
467.012	22401.02
467.218	22560.77
467.423	21950.47
467.628	22286.34
467.833	23232.5
468.038	22390.78
468.244	21862.41
468.449	22847.48
468.654	21633.04
468.859	21647.37
469.064	21706.76
469.269	20762.65
469.474	20928.53
469.679	21293.07
469.885	20598.81
470.09	20774.94
470.295	20811.8
470.5	20293.66
470.705	20308
470.91	20168.74
471.115	19650.6
471.32	20062.24
471.525	19935.27
471.73	19716.14
471.935	19402.8
472.139	18661.43
472.344	19206.19
472.549	19009.59
472.754	18810.93
472.959	18018.37
473.164	17694.79
473.369	17510.47
473.574	18249.79
473.778	18180.16
473.983	17836.1
474.188	18012.23
474.393	16945.23
474.598	17199.18
474.802	16881.75
475.007	16801.88
475.212	16932.95
475.417	16281.69
475.621	16056.42
475.826	16410.71
476.031	16033.89
476.235	15644.77
476.44	15945.83
476.645	15415.4
476.849	15552.62
477.054	15284.33
477.259	15169.65
477.463	15114.35
477.668	14768.24
477.872	14970.99
478.077	14569.59
478.282	14344.31
478.486	14516.34
478.691	14332.03
478.895	14149.76
479.1	13869.19
479.304	14123.13
479.509	13723.78
479.713	14106.75
479.918	13635.72
480.122	13588.61
480.326	13596.81
480.531	13439.11
480.735	13377.67
480.94	13052.05
481.144	13564.04
481.348	13113.49
481.553	13183.12
481.757	12949.65
481.961	13189.26
482.166	13346.95
482.37	13162.64
482.574	12738.71
482.778	12939.41
482.983	13314.19
483.187	12904.59
483.391	13107.34
483.595	13021.33
483.8	12877.97
484.004	12875.92
484.208	12943.5
484.412	12875.92
484.616	13033.61
484.821	12945.55
485.025	12867.73
485.229	13019.28
485.433	12816.53
485.637	12685.46
485.841	12945.55
486.045	12957.84
486.249	12996.75
486.453	12982.42
486.657	12845.2
486.861	12978.32
487.065	12630.16
487.269	12988.56
487.473	12742.8
487.677	13019.28
487.881	13019.28
488.085	13054.09
488.289	13074.57
488.493	12927.12
488.697	13068.43
488.901	13107.34
489.105	13043.85
489.309	13035.66
489.512	13086.86
489.716	13181.07
489.92	12955.79
490.124	13027.47
490.328	13209.74
490.531	13150.35
490.735	13258.89
490.939	13375.63
491.143	13293.71
491.346	13305.99
491.55	13654.15
491.754	13453.45
491.958	13619.33
492.161	13461.64
492.365	13658.24
492.569	13262.99
492.772	13701.25
492.976	13693.06
493.18	13787.27
493.383	13832.32
493.587	14133.37
493.79	14035.07
493.994	14094.46
494.197	14315.64
494.401	14334.07
494.605	14434.43
494.808	14534.78
495.012	14616.69
495.215	14633.08
495.419	14755.96
495.622	14358.65
495.825	15083.63
496.029	14977.14
496.232	15335.53
496.436	15151.21
496.639	15470.7
496.843	15554.66
497.046	15820.9
497.249	16013.41
497.453	15908.96
497.656	16023.65
497.859	16273.5
498.063	16486.49
498.266	16427.1
498.469	16562.26
498.673	16871.51
498.876	17012.82
499.079	17498.19
499.282	17141.84
499.485	17569.87
499.689	17479.75
499.892	17999.94
500.095	18135.1
500.298	18296.89
500.501	18059.33
500.705	18829.37
500.908	18853.94
501.111	19193.9
501.314	19171.38
501.517	19261.49
501.72	19519.53
501.923	19789.86
502.126	20140.07
502.329	20473.88
502.532	20176.93
502.735	20514.84
502.938	20932.63
503.141	20873.24
503.344	21469.2
503.547	21592.08
503.75	21698.57
503.953	21944.33
504.156	22595.58
504.359	22466.56
504.562	22390.78
504.765	22925.3
504.968	23261.17
505.17	23326.71
505.373	23439.34
505.576	23832.55
505.779	24031.21
505.982	24248.29
506.185	24487.9
506.387	24782.81
506.59	25141.21
506.793	25409.49
506.996	25409.49
507.198	25823.18
507.401	26081.22
507.604	26154.95
507.807	26697.66
508.009	26804.16
508.212	27252.66
508.415	27439.03
508.617	27789.23
508.82	27684.78
509.022	27518.9
509.225	28483.49
509.428	28446.63
509.63	28725.15
509.833	29263.77
510.035	29681.55
510.238	29165.46
510.44	29738.9
510.643	30158.73
510.845	30457.73
511.048	30396.29
511.25	30957.44
511.453	31209.34
511.655	32044.91
511.858	31756.14
512.06	31766.38
512.262	32526.18
512.465	32446.31
512.667	32880.48
512.87	32956.25
513.072	33193.82
513.274	33726.29
513.477	33953.62
513.679	34289.48
513.881	34410.31
514.084	34842.43
514.286	35106.62
514.488	35196.73
514.69	36087.6
514.893	36263.72
515.095	36347.69
515.297	36583.21
515.499	36708.13
515.701	37400.35
515.904	37369.63
516.106	37326.62
516.308	37955.35
516.51	38211.34
516.712	38330.12
516.914	38616.84
517.116	39503.61
517.318	39538.43
517.52	39565.05
517.722	39755.51
517.925	40374
518.127	40591.08
518.329	40937.19
518.531	40679.14
518.733	41594.59
518.935	41019.11
519.136	41484
519.338	42223.31
519.54	42305.23
519.742	42946.25
519.944	42682.06
520.146	43515.58
520.348	43798.2
520.55	43794.11
520.752	43990.71
520.954	44824.23
521.155	44132.02
521.357	45100.71
521.559	44895.91
521.761	45629.09
521.963	45500.06
522.164	45608.61
522.366	46167.7
522.568	46526.1
522.77	46378.64
522.971	47365.76
523.173	46677.65
523.375	47668.86
523.576	47148.68
523.778	47451.78
523.98	47836.8
524.181	48014.97
524.383	48133.75
524.584	48914.03
524.786	48322.16
524.988	48543.34
525.189	49038.95
525.391	49389.16
525.592	49776.22
525.794	49790.56
525.995	49403.49
526.197	49843.8
526.398	49880.67
526.6	50429.52
526.801	50605.65
527.003	50288.21
527.204	50568.79
527.406	51007.05
527.607	50869.84
527.808	51363.4
528.01	50562.64
528.211	51263.05
528.412	51957.31
528.614	51934.78
528.815	51557.95
529.016	52131.39
529.218	51674.69
529.419	52233.78
529.62	51840.57
529.822	51656.26
530.023	52131.39
530.224	51754.56
530.425	52063.8
530.626	51641.92
530.828	51703.36
531.029	52770.35
531.23	51852.86
531.431	51996.22
531.632	52299.32
531.833	52641.33
532.035	52395.57
532.236	52325.94
532.437	52600.37
532.638	52379.19
532.839	52702.77
533.04	53048.88
533.241	52203.06
533.442	53333.54
533.643	52514.36
533.844	52948.53
534.045	52637.23
534.246	52639.28
534.447	52751.92
534.648	52661.81
534.849	52571.7
535.05	52379.19
535.251	52989.48
535.451	52682.29
535.652	52969.01
535.853	52698.67
536.054	52438.58
536.255	52760.11
536.456	52313.66
536.657	52977.2
536.857	52311.61
537.058	52098.62
537.259	52719.15
537.46	52629.04
537.66	52440.63
537.861	52508.21
538.062	52518.45
538.263	53257.77
538.463	52694.58
538.664	52633.14
538.865	52604.47
539.065	52530.74
539.266	52217.4
539.466	52993.58
539.667	52063.8
539.868	52829.74
540.068	52332.09
540.269	52375.09
540.469	52600.37
540.67	52186.68
540.87	52184.63
541.071	52428.34
541.271	52448.82
541.472	52309.56
541.672	52096.57
541.873	52164.15
542.073	51654.21
542.274	52258.36
542.474	52391.48
542.675	51930.68
542.875	52469.3
543.075	52244.02
543.276	51770.94
543.476	52694.58
543.676	51809.85
543.877	52024.89
544.077	51981.88
544.277	51981.88
544.478	52325.94
544.678	52397.62
544.878	52026.94
545.078	51973.69
545.279	51838.53
545.479	51396.17
545.679	51985.98
545.879	51998.27
546.079	51557.95
546.28	51938.88
546.48	51338.82
546.68	51963.45
546.88	52006.46
547.08	51992.12
547.28	51555.91
547.48	51275.33
547.68	51514.95
547.88	51273.29
548.081	51779.14
548.281	51646.02
548.481	51560
548.681	51891.77
548.881	51676.74
549.081	51199.56
549.28	51455.56
549.48	51902.01
549.68	51179.08
549.88	52104.76
550.08	51279.43
550.28	51961.4
550.48	51258.95
550.68	51787.33
550.88	51371.59
551.08	51326.53
551.279	51281.48
551.479	50918.99
551.679	51568.19
551.879	51330.63
552.079	51648.07
552.278	51351.11
552.478	51445.32
552.678	51400.26
552.878	51607.11
553.077	51037.77
553.277	50783.82
553.477	51527.24
553.676	50693.71
553.876	51154.5
554.076	50835.02
554.275	51048.01
554.475	50183.77
554.674	50875.98
554.874	51002.96
555.074	50673.23
555.273	51002.96
555.473	51369.54
555.672	50585.17
555.872	50773.58
556.071	50617.94
556.271	50880.08
556.47	50107.99
556.67	50361.94
556.869	50402.9
557.068	50828.88
557.268	50054.75
557.467	50517.59
557.667	50325.08
557.866	50628.18
558.065	50046.55
558.265	50191.96
558.464	49950.3
558.663	50851.41
558.863	50105.94
559.062	50257.49
559.261	49722.97
559.461	50470.48
559.66	49561.19
559.859	49626.72
560.058	49548.9
560.258	49944.16
560.457	49176.17
560.656	49958.49
560.855	49323.62
561.054	50081.37
561.253	49241.7
561.453	49686.11
561.652	49264.23
561.851	49770.08
562.05	49479.27
562.249	48807.53
562.448	49163.88
562.647	49387.11
562.846	49213.03
563.045	49356.39
563.244	48326.26
563.443	49552.99
563.642	48516.72
563.841	49014.38
564.04	48901.74
564.239	49428.07
564.438	48658.03
564.637	48864.88
564.836	48764.53
565.035	48234.1
565.234	48600.69
565.432	48496.24
565.631	48039.54
565.83	48260.72
566.029	47986.3
566.228	48459.38
566.427	48041.59
566.625	48008.82
566.824	47609.47
567.023	48000.63
567.222	46790.28
567.42	47836.8
567.619	47306.37
567.818	47298.18
568.016	47488.64
568.215	47675.01
568.414	47074.95
568.612	47746.68
568.811	47333
569.01	47574.66
569.208	46517.9
569.407	47074.95
569.605	46939.79
569.804	47023.75
570.002	46726.8
570.201	46931.59
570.4	46681.74
570.598	46732.94
570.797	46200.47
570.995	46321.3
571.193	46274.2
571.392	46788.24
571.59	46233.24
571.789	46018.2
571.987	45948.57
572.186	46096.02
572.384	45846.17
572.582	46108.31
572.781	45907.61
572.979	45473.44
573.177	45721.24
573.376	45948.57
573.574	45446.82
573.772	45813.4
573.971	45461.15
574.169	45162.15
574.367	44744.36
574.565	45029.03
574.763	44932.78
574.962	44928.68
575.16	44461.74
575.358	45029.03
575.556	44295.86
575.754	45006.5
575.952	44050.1
576.151	44525.23
576.349	43929.27
576.547	44168.88
576.745	44416.69
576.943	44144.31
577.141	43693.75
577.339	44289.71
577.537	44023.48
577.735	43722.43
577.933	43515.58
578.131	43691.71
578.329	43224.77
578.527	43155.14
578.725	43218.63
578.923	43347.65
579.121	43036.36
579.319	43077.32
579.516	43241.15
579.714	43073.22
579.912	43013.83
580.11	42839.75
580.308	42819.27
580.506	42598.09
580.704	42290.9
580.901	42747.59
581.099	42329.81
581.297	42155.73
581.495	41877.21
581.692	42544.84
581.89	41901.78
582.088	42350.29
582.285	41408.22
582.483	41518.81
582.681	41459.42
582.878	41553.63
583.076	40894.18
583.274	41381.6
583.471	40894.18
583.669	41653.98
583.866	40656.62
584.064	41391.84
584.262	40296.17
584.459	40632.04
584.657	40599.27
584.854	40918.76
585.052	39972.6
585.249	40249.07
585.447	40404.72
585.644	40019.7
585.841	40247.02
586.039	40617.71
586.236	39552.76
586.434	40031.99
586.631	39587.58
586.828	39626.49
587.026	39659.26
587.223	39591.67
587.42	39108.35
587.618	39128.83
587.815	38579.98
588.012	39210.75
588.21	38622.98
588.407	39317.25
588.604	39089.92
588.801	38211.34
588.999	38594.31
589.196	38608.65
589.393	38510.35
589.59	38399.76
589.787	38002.45
589.984	38174.48
590.182	37433.11
590.379	37920.53
590.576	37734.17
590.773	37555.99
590.97	37457.69
591.167	37377.82
591.364	37066.53
591.561	37506.84
591.758	36802.34
591.955	36935.46
592.152	37273.37
592.349	37023.52
592.546	36841.25
592.743	37191.45
592.94	36181.81
593.137	36548.39
593.334	36646.69
593.531	35907.38
593.727	36499.24
593.924	36323.12
594.121	35694.39
594.318	36568.87
594.515	35487.54
594.712	36364.07
594.908	35409.72
595.105	35704.63
595.302	35559.22
595.499	35612.47
595.696	35036.99
595.892	34869.06
596.089	35387.19
596.286	35110.72
596.482	34623.3
596.679	35024.7
596.876	34873.15
597.072	34557.77
597.269	34924.35
597.466	34264.91
597.662	34531.14
597.859	34443.08
598.055	34613.06
598.252	34283.34
598.448	33976.14
598.645	34115.4
598.841	34062.16
599.038	34043.73
599.234	33773.39
599.431	33273.69
599.627	33355.61
599.824	33566.55
600.02	33316.7
600.217	32847.71
600.413	33089.37
600.609	32806.75
600.806	32796.51
601.002	32765.79
601.198	32403.3
601.395	32438.12
601.591	32218.99
601.787	32776.03
601.984	32452.45
602.18	32632.68
602.376	32321.38
602.572	31901.55
602.769	31876.97
602.965	31582.07
603.161	31741.81
603.357	31612.79
603.553	31498.1
603.75	31702.9
603.946	31274.87
604.142	31088.51
604.338	30836.61
604.534	31317.88
604.73	30881.66
604.926	30685.06
605.122	31235.96
605.318	30969.72
605.514	30594.95
605.71	30490.5
605.906	30572.42
606.102	30171.02
606.298	30427.01
606.494	30306.18
606.69	30703.49
606.886	30404.49
607.082	29804.43
607.278	30232.46
607.474	29763.47
607.67	29857.68
607.866	29493.14
608.062	30156.68
608.257	29620.11
608.453	29706.13
608.649	29628.31
608.845	29392.79
609.041	29439.89
609.236	29503.38
609.432	29388.69
609.628	29079.45
609.824	29468.56
610.019	29163.42
610.215	29323.16
610.411	28927.9
610.606	28653.47
610.802	29097.88
610.998	28878.75
611.193	28960.67
611.389	28512.16
611.584	28567.46
611.78	28643.23
611.976	28491.68
612.171	29118.36
612.367	28706.72
612.562	28426.15
612.758	28280.74
612.953	28131.24
613.149	28473.25
613.344	28123.05
613.539	28395.43
613.735	28344.23
613.93	28186.54
614.126	28014.51
614.321	28344.23
614.517	28153.77
614.712	27973.55
614.907	27867.05
615.103	28198.82
615.298	27832.24
615.493	28086.18
615.688	27479.99
615.884	28370.85
616.079	27211.7
616.274	27809.71
616.47	27469.75
616.665	27682.73
616.86	27576.24
617.055	27727.79
617.25	27121.59
617.445	27621.3
617.641	26943.42
617.836	27285.43
618.031	26734.53
618.226	27054.01
618.421	26988.47
618.616	27054.01
618.811	26513.34
619.006	27037.62
619.201	26849.21
619.396	26879.93
619.591	26369.99
619.786	26531.78
619.981	25941.96
620.176	26531.78
620.371	25825.23
620.566	25944.01
620.761	25868.23
620.956	25984.97
621.151	25317.33
621.346	25485.26
621.541	25198.55
621.735	25716.68
621.93	24950.74
622.125	25079.77
622.32	24743.9
622.515	25214.93
622.709	24438.75
622.904	24565.73
623.099	24500.19
623.294	24410.08
623.488	24287.2
623.683	24236
623.878	23697.39
624.072	23748.59
624.267	23752.68
624.462	23521.26
624.656	23308.27
624.851	23431.15
625.046	23121.91
625.24	23142.39
625.435	22833.14
625.629	23138.29
625.824	22636.54
626.018	22802.43
626.213	22161.41
626.407	22417.41
626.602	21825.54
626.796	22288.39
626.991	22411.26
627.185	22040.58
627.38	21712.91
627.574	21663.75
627.768	21549.07
627.963	21626.89
628.157	21360.66
628.352	21463.05
628.546	20989.97
628.74	20783.13
628.935	20920.34
629.129	20809.75
629.323	20736.02
629.517	20607
629.712	20682.78
629.906	20504.6
630.1	19978.28
630.294	20088.87
630.489	20000.8
630.683	19918.89
630.877	19769.38
631.071	19681.32
631.265	19738.66
631.459	19646.51
631.653	19521.58
631.848	19439.66
632.042	19030.07
632.236	19245.1
632.43	18980.92
632.624	19171.38
632.818	18835.51
633.012	18542.65
633.206	18724.92
633.4	18927.67
633.594	18200.64
633.788	18614.33
633.982	18282.56
634.176	18262.08
634.369	17958.98
634.563	18038.85
634.757	17897.54
634.951	18106.43
635.145	17979.46
635.339	17510.47
635.533	17469.51
635.726	17690.7
635.92	17262.67
636.114	17453.13
636.308	17117.26
636.501	17328.2
636.695	17100.88
636.889	16769.11
637.083	16781.4
637.276	16885.84
637.47	16734.29
637.664	16445.53
637.857	16605.27
638.051	16263.26
638.244	16388.19
638.438	16150.62
638.632	16347.23
638.825	15988.83
639.019	15904.87
639.212	15798.37
639.406	15710.31
639.599	15884.39
639.793	15908.96
639.986	15624.29
640.18	15636.58
640.373	15620.2
640.567	15300.72
640.76	15358.06
640.954	15302.76
641.147	15169.65
641.34	15065.2
641.534	15102.06
641.727	14970.99
641.92	14909.55
642.114	14983.28
642.307	14790.77
642.5	14762.1
642.694	14393.47
642.887	14512.25
643.08	14618.74
643.273	14405.75
643.467	14063.74
643.66	14186.62
643.853	14137.47
644.046	13971.58
644.239	13990.02
644.432	13906.05
644.626	13766.79
644.819	13844.61
645.012	13817.99
645.205	13709.44
645.398	13580.42
645.591	13480.07
645.784	13736.07
645.977	13207.69
646.17	13256.84
646.363	13238.41
646.556	13029.52
646.749	12990.61
646.942	13039.76
647.135	12923.02
647.328	12880.02
647.521	12777.62
647.714	12814.48
647.907	12738.71
648.099	12724.37
648.292	12646.55
648.485	12662.93
648.678	12468.38
648.871	12249.24
649.064	12325.02
649.256	12374.17
649.449	12097.69
649.642	12368.02
649.835	12036.25
650.027	11772.07
650.22	11907.23
650.413	11651.24
650.605	11729.06
650.798	11626.66
650.991	11452.58
651.183	11597.99
651.376	11591.84
651.568	11499.69
651.761	11452.58
651.954	11274.41
652.146	11200.68
652.339	11399.34
652.531	11104.43
652.724	11186.35
652.916	11280.55
653.109	11106.48
653.301	10956.97
653.494	10967.21
653.686	10676.4
653.879	11147.44
654.071	10766.51
654.263	10696.88
654.456	10838.19
654.648	10729.65
654.84	10203.32
655.033	10553.52
655.225	10275
655.417	10363.06
655.61	10318.01
655.802	10393.78
655.994	10047.68
656.186	10123.45
656.379	10154.17
656.571	10012.86
656.763	9928.89
656.955	9855.17
657.148	10012.86
657.34	10062.01
657.532	9814.21
657.724	9851.07
657.916	9709.76
658.108	9687.23
658.3	9666.75
658.492	9492.68
658.684	9443.53
658.876	9365.7
659.068	9547.97
659.26	9341.13
659.452	9287.88
659.644	9375.94
659.836	9169.1
660.028	9359.56
660.22	8919.25
660.412	9277.64
660.604	9013.45
660.796	9111.75
660.988	8941.77
661.18	8872.14
661.372	8868.05
661.563	8878.29
661.755	8616.15
661.947	8618.19
662.139	8693.97
662.331	8552.66
662.522	8562.9
662.714	8458.45
662.906	8548.56
663.097	8501.46
663.289	8478.93
663.481	8149.21
663.673	8161.5
663.864	8321.24
664.056	8241.37
664.247	8204.5
664.439	8122.59
664.631	7991.52
664.822	8118.49
665.014	8104.15
665.205	7932.12
665.397	7948.51
665.588	7891.16
665.78	7960.8
665.971	7934.17
666.163	7821.53
666.354	7665.89
666.546	7600.35
666.737	7586.02
666.929	7657.7
667.12	7645.41
667.311	7545.06
667.503	7506.15
667.694	7475.43
667.885	7305.45
668.077	7491.81
668.268	7311.59
668.459	7295.21
668.651	7291.11
668.842	7354.6
669.033	7248.1
669.224	7237.86
669.416	7051.5
669.607	7278.82
669.798	7108.84
669.989	7104.74
670.18	7172.33
670.371	6926.57
670.563	6951.15
670.754	6865.13
670.945	6834.41
671.136	6953.2
671.327	6772.97
671.518	6672.62
671.709	6793.45
671.9	6955.24
672.091	6660.34
672.282	6600.94
672.473	6631.66
672.664	6648.05
672.855	6631.66
673.046	6656.24
673.237	6748.4
673.428	6600.94
673.619	6551.79
673.809	6459.63
674	6433.01
674.191	6559.99
674.382	6408.44
674.573	6373.62
674.764	6250.74
674.954	6267.13
675.145	6271.22
675.336	6185.21
675.527	6174.97
675.717	6263.03
675.908	6086.9
676.099	6191.35
676.289	6156.54
676.48	5986.55
676.671	5900.54
676.861	6134.01
677.052	5990.65
677.243	5994.75
677.433	5769.47
677.624	6172.92
677.814	5994.75
678.005	5994.75
678.195	5918.97
678.386	5810.43
678.576	5886.2
678.767	5787.9
678.957	5787.9
679.148	5769.47
679.338	5671.17
679.529	5775.61
679.719	5730.56
679.909	5798.14
680.1	5521.67
680.29	5722.37
680.481	5699.84
680.671	5632.26
680.861	5550.34
681.052	5789.95
681.242	5347.59
681.432	5564.67
681.622	5386.5
681.813	5435.65
682.003	5492.99
682.193	5497.09
682.383	5501.19
682.573	5259.53
682.764	5300.48
682.954	5425.41
683.144	5355.78
683.334	5288.2
683.524	5212.42
683.714	5234.95
683.904	5155.08
684.094	5277.96
684.284	5138.69
684.474	5257.48
684.664	5114.12
684.854	5218.57
685.044	5200.13
685.234	5110.02
685.424	5132.55
685.614	5177.61
685.804	5107.98
685.994	4995.34
686.184	5101.83
686.374	4972.81
686.564	4968.71
686.753	5032.2
686.943	4937.99
687.133	4950.28
687.323	4802.83
687.513	4921.61
687.702	4839.69
687.892	4823.31
688.082	4765.96
688.272	4714.77
688.461	4780.3
688.651	4892.94
688.841	4757.77
689.03	4704.53
689.22	4604.18
689.41	4671.76
689.599	4569.36
689.789	4534.54
689.979	4483.34
690.168	4595.98
690.358	4530.45
690.547	4438.29
690.737	4538.64
690.926	4405.52
691.116	4399.38
691.305	4305.17
691.495	4385.04
691.684	4372.75
691.874	4264.21
692.063	4440.34
692.252	4247.83
692.442	4387.09
692.631	4192.53
692.82	4319.51
693.01	4075.8
693.199	4229.4
693.388	4147.48
693.578	4094.23
693.767	4104.47
693.956	4067.61
694.146	4055.32
694.335	3942.68
694.524	3877.15
694.713	4200.73
694.902	4045.08
695.092	3924.25
695.281	3825.95
695.47	3965.21
695.659	3877.15
695.848	3756.32
696.037	4022.55
696.226	3942.68
696.415	3791.13
696.604	3787.04
696.793	3803.42
696.982	3766.56
697.171	3674.4
697.36	3668.25
697.549	3617.05
697.738	3758.36
697.927	3686.69
698.116	3676.45
698.305	3510.56
698.494	3588.38
698.683	3545.38
698.872	3488.03
699.061	3606.81
699.25	3545.38
699.438	3541.28
699.627	3602.72
699.816	3619.1
700.005	3586.33
700.193	3465.5
700.382	3467.55
700.571	3465.5
700.76	3447.07
700.948	3533.09
701.137	3467.55
701.326	3465.5
701.514	3330.34
701.703	3342.63
701.892	3375.39
702.08	3377.44
702.269	3356.96
702.457	3277.09
702.646	3287.33
702.834	3395.87
703.023	3189.03
703.212	3381.54
703.4	3301.67
703.589	3291.43
703.777	3262.76
703.965	3152.17
704.154	3326.24
704.342	3262.76
704.531	3270.95
704.719	3262.76
704.907	3162.41
705.096	3141.93
705.284	3225.89
705.472	3281.19
705.661	3221.8
705.849	3209.51
706.037	3201.32
706.226	3010.86
706.414	3191.08
706.602	3072.29
706.79	3098.92
706.979	3062.05
707.167	3082.53
707.355	3043.62
707.543	3027.24
707.731	3039.53
707.919	3117.35
708.107	3148.07
708.296	3057.96
708.484	3027.24
708.672	3033.38
708.86	3125.54
709.048	2965.8
709.236	2967.85
709.424	2990.38
709.612	2961.7
709.8	2957.61
709.988	3055.91
710.176	2990.38
710.364	2988.33
710.551	3008.81
710.739	3019.05
710.927	2994.47
711.115	3017
711.303	2896.17
711.491	2957.61
711.679	2916.65
711.866	2783.53
712.054	2887.98
712.242	2771.24
712.43	2853.16
712.617	2885.93
712.805	2834.73
712.993	2840.87
713.181	2988.33
713.368	2894.12
713.556	2904.36
713.744	2779.43
713.931	2898.22
714.119	2781.48
714.306	2896.17
714.494	2744.62
714.682	2877.74
714.869	2785.58
715.057	2904.36
715.244	2922.79
715.432	2890.03
715.619	2801.96
715.807	2890.03
715.994	2820.39
716.182	2808.11
716.369	2900.27
716.556	2808.11
716.744	2785.58
716.931	2773.29
717.119	2724.14
717.306	2754.86
717.493	2668.84
717.681	2814.25
717.868	2726.19
718.055	2799.91
718.242	2744.62
718.43	2752.81
718.617	2836.78
718.804	2654.51
718.991	2720.04
719.179	2795.82
719.366	2920.74
719.553	2726.19
719.74	2685.23
719.927	2810.15
720.114	2746.67
720.301	2771.24
720.488	2754.86
720.676	2746.67
720.863	2640.17
721.05	2634.03
721.237	2584.88
721.424	2736.43
721.611	2820.39
721.798	2683.18
721.985	2748.72
722.172	2713.9
722.358	2820.39
722.545	2771.24
722.732	2687.28
722.919	2662.7
723.106	2777.39
723.293	2771.24
723.48	2640.17
723.667	2591.02
723.853	2722.09
724.04	2683.18
724.227	2838.83
724.414	2685.23
724.6	2754.86
724.787	2840.87
724.974	2726.19
725.161	2750.76
725.347	2734.38
725.534	2724.14
725.72	2781.48
725.907	2742.57
726.094	2789.67
726.28	2709.8
726.467	2672.94
726.653	2761
726.84	2713.9
727.027	2775.34
727.213	2709.8
727.4	2681.13
727.586	2791.72
727.773	2801.96
727.959	2689.32
728.145	2677.04
728.332	2820.39
728.518	2736.43
728.705	2722.09
728.891	2779.43
729.077	2677.04
729.264	2722.09
729.45	2705.71
729.636	2908.46
729.823	2756.91
730.009	2638.13
730.195	2820.39
730.382	2857.26
730.568	2707.76
730.754	2654.51
730.94	2681.13
731.126	2660.65
731.313	2625.84
731.499	2826.54
731.685	2699.56
731.871	2654.51
732.057	2771.24
732.243	2726.19
732.429	2793.77
732.615	2834.73
732.801	2689.32
732.987	2793.77
733.173	2754.86
733.359	2689.32
733.545	2687.28
733.731	2730.28
733.917	2744.62
734.103	2785.58
734.289	2804.01
734.475	2779.43
734.661	2791.72
734.847	2709.8
735.033	2699.56
735.219	2701.61
735.404	2736.43
735.59	2861.35
735.776	2754.86
735.962	2763.05
736.148	2773.29
736.333	2754.86
736.519	2681.13
736.705	2724.14
736.89	2844.97
737.076	2724.14
737.262	2724.14
737.447	2765.1
737.633	2646.32
737.819	2683.18
738.004	2773.29
738.19	2705.71
738.375	2699.56
738.561	2795.82
738.747	2709.8
738.932	2691.37
739.118	2679.08
739.303	2742.57
739.489	2785.58
739.674	2679.08
739.859	2693.42
740.045	2726.19
740.23	2738.48
740.416	2603.31
740.601	2642.22
740.786	2636.08
740.972	2634.03
741.157	2601.26
741.342	2652.46
741.528	2765.1
741.713	2627.89
741.898	2732.33
742.084	2654.51
742.269	2674.99
742.454	2476.34
742.639	2576.69
742.824	2574.64
743.01	2660.65
743.195	2576.69
743.38	2631.98
743.565	2490.67
743.75	2574.64
743.935	2570.54
744.12	2527.53
744.305	2623.79
744.49	2556.21
744.675	2468.14
744.86	2584.88
745.045	2470.19
745.23	2500.91
745.415	2543.92
745.6	2515.25
745.785	2474.29
745.97	2459.95
746.155	2400.56
746.34	2502.96
746.525	2443.57
746.71	2351.41
746.895	2384.18
747.079	2472.24
747.264	2425.14
747.449	2349.36
747.634	2378.03
747.819	2365.75
748.003	2380.08
748.188	2298.16
748.373	2455.86
748.557	2345.27
748.742	2230.58
748.927	2339.12
749.111	2343.22
749.296	2222.39
749.481	2261.3
749.665	2224.44
749.85	2226.48
750.034	2183.48
750.219	2257.2
750.404	2068.79
750.588	2048.31
750.773	2109.75
750.957	2044.21
751.141	2224.44
751.326	2175.28
751.51	2206
751.695	2128.18
751.879	2124.08
752.064	2095.41
752.248	2019.64
752.432	2052.41
752.617	2058.55
752.801	2040.12
752.985	1986.87
753.17	1974.58
753.354	1982.78
753.538	1923.38
753.722	2027.83
753.907	1931.58
754.091	1976.63
754.275	1909.05
754.459	1921.34
754.643	1855.8
754.828	1888.57
755.012	1880.38
755.196	1825.08
755.38	1796.41
755.564	1804.6
755.748	1714.49
755.932	1825.08
756.116	1790.27
756.3	1737.02
756.484	1763.64
756.668	1657.15
756.852	1694.01
757.036	1687.87
757.22	1669.44
757.404	1708.35
757.588	1671.48
757.772	1636.67
757.956	1632.57
758.14	1761.59
758.323	1610.04
758.507	1675.58
758.691	1673.53
758.875	1708.35
759.059	1640.76
759.242	1608
759.426	1636.67
759.61	1513.79
759.794	1581.37
759.977	1599.8
760.161	1661.24
760.345	1532.22
760.528	1564.99
760.712	1538.37
760.895	1446.21
761.079	1466.69
761.263	1554.75
761.446	1577.28
761.63	1440.06
761.813	1470.78
761.997	1558.85
762.18	1528.13
762.364	1384.77
762.547	1532.22
762.731	1429.82
762.914	1442.11
763.098	1360.19
763.281	1356.1
763.464	1425.73
763.648	1382.72
763.831	1399.1
764.015	1423.68
764.198	1382.72
764.381	1335.62
764.564	1241.41
764.748	1372.48
764.931	1411.39
765.114	1411.39
765.297	1298.75
765.481	1337.66
765.664	1352
765.847	1325.38
766.03	1343.81
766.213	1272.13
766.397	1298.75
766.58	1282.37
766.763	1317.19
766.946	1317.19
767.129	1233.22
767.312	1272.13
767.495	1243.46
767.678	1270.08
767.861	1302.85
768.044	1280.32
768.227	1274.18
768.41	1259.84
768.593	1284.42
768.776	1227.07
768.959	1245.51
769.142	1352
769.324	1179.97
769.507	1245.51
769.69	1122.63
769.873	1276.23
770.056	1130.82
770.239	1218.88
770.421	1218.88
770.604	1222.98
770.787	1132.87
770.97	1179.97
771.152	1087.81
771.335	1194.31
771.518	1005.89
771.7	1083.72
771.883	1173.83
772.066	1194.31
772.248	1132.87
772.431	1112.39
772.613	1124.68
772.796	1130.82
772.978	1188.16
773.161	1020.23
773.343	1038.66
773.526	1042.76
773.708	1024.33
773.891	1034.57
774.073	964.93
774.256	971.08
774.438	1014.09
774.621	1046.85
774.803	1018.18
774.985	1044.81
775.168	1009.99
775.35	932.17
775.532	1024.33
775.715	913.74
775.897	1044.81
776.079	907.59
776.261	964.93
776.444	1018.18
776.626	946.5
776.808	962.89
776.99	901.45
777.173	948.55
777.355	893.26
777.537	950.6
777.719	872.78
777.901	893.26
778.083	899.4
778.265	899.4
778.447	854.34
778.629	870.73
778.811	942.41
778.993	772.43
779.175	854.34
779.357	801.1
779.539	913.74
779.721	782.67
779.903	844.1
780.085	766.28
780.267	833.86
780.449	803.15
780.631	799.05
780.812	702.79
780.994	799.05
781.176	850.25
781.358	801.1
781.54	721.23
781.721	768.33
781.903	672.08
782.085	786.76
782.267	801.1
782.448	672.08
782.63	715.08
782.812	696.65
782.993	682.31
783.175	663.88
783.357	678.22
783.538	667.98
783.72	756.04
783.901	741.71
784.083	735.56
784.264	735.56
784.446	645.45
784.627	653.64
784.809	659.79
784.99	573.77
785.172	729.42
785.353	665.93
785.535	737.61
785.716	678.22
785.897	631.12
786.079	549.2
786.26	481.61
786.441	567.63
786.623	627.02
786.804	604.49
786.985	629.07
787.167	602.44
787.348	549.2
787.529	592.2
787.71	543.05
787.891	563.53
788.073	516.43
788.254	514.38
788.435	629.07
788.616	493.9
788.797	541.01
788.978	483.66
789.159	571.72
789.34	549.2
789.522	498
789.703	524.62
789.884	504.14
790.065	561.48
790.246	577.87
790.427	581.96
790.607	495.95
790.788	498
790.969	448.85
791.15	444.75
791.331	493.9
791.512	506.19
791.693	430.41
791.874	416.08
792.054	471.37
792.235	541.01
792.416	465.23
792.597	469.33
792.778	463.18
792.958	454.99
793.139	481.61
793.32	516.43
793.5	414.03
793.681	485.71
793.862	407.89
794.042	430.41
794.223	422.22
794.404	446.8
794.584	430.41
794.765	373.07
794.945	397.65
795.126	434.51
795.306	444.75
795.487	407.89
795.667	442.7
795.848	397.65
796.028	405.84
796.209	391.5
796.389	397.65
796.57	409.94
796.75	391.5
796.93	401.74
797.111	442.7
797.291	321.87
797.471	375.12
797.652	389.46
797.832	377.17
798.012	416.08
798.192	356.69
798.373	379.22
798.553	330.06
798.733	383.31
798.913	307.54
799.093	344.4
799.274	317.78
799.454	434.51
799.634	358.74
799.814	348.5
799.994	323.92
800.174	293.2
800.354	289.1
800.534	334.16
800.714	336.21
800.894	291.15
801.074	325.97
801.254	309.58
801.434	379.22
801.614	315.73
801.794	313.68
801.974	680.27
802.154	334.16
802.334	371.02
802.514	307.54
802.693	313.68
802.873	422.22
803.053	280.91
803.233	379.22
803.413	317.78
803.592	276.82
803.772	307.54
803.952	287.06
804.131	344.4
804.311	272.72
804.491	311.63
804.67	293.2
804.85	272.72
805.03	321.87
805.209	375.12
805.389	305.49
805.568	315.73
805.748	252.24
805.928	264.53
806.107	278.87
806.287	287.06
806.466	293.2
806.646	231.76
806.825	194.9
807.004	285.01
807.184	319.82
807.363	266.58
807.543	268.63
807.722	250.19
807.901	315.73
808.081	227.67
808.26	207.19
808.439	282.96
808.619	264.53
808.798	235.86
808.977	244.05
809.156	266.58
809.336	196.95
809.515	250.19
809.694	203.09
809.873	295.25
810.052	264.53
810.231	233.81
810.411	262.48
810.59	295.25
810.769	258.39
810.948	225.62
811.127	164.18
811.306	246.1
811.485	229.71
811.664	225.62
811.843	194.9
812.022	147.8
812.201	209.23
812.38	235.86
812.559	213.33
812.737	190.8
812.916	203.09
813.095	182.61
813.274	268.63
813.453	233.81
813.632	256.34
813.811	229.71
813.989	231.76
814.168	176.47
814.347	145.75
814.526	250.19
814.704	246.1
814.883	282.96
815.062	143.7
815.24	229.71
815.419	207.19
815.598	299.34
815.776	145.75
815.955	282.96
816.133	205.14
816.312	231.76
816.49	225.62
816.669	166.23
816.847	215.38
817.026	153.94
817.204	184.66
817.383	205.14
817.561	194.9
817.74	276.82
817.918	168.27
818.097	174.42
818.275	223.57
818.453	115.03
818.632	176.47
818.81	190.8
818.988	207.19
819.167	125.27
819.345	203.09
819.523	211.28
819.701	235.86
819.879	209.23
820.058	158.03
820.236	198.99
820.414	180.56
820.592	299.34
820.77	198.99
820.948	223.57
821.127	131.41
821.305	192.85
821.483	160.08
821.661	213.33
821.839	213.33
822.017	217.43
822.195	168.27
822.373	115.03
822.551	172.37
822.729	250.19
822.907	115.03
823.085	215.38
823.262	225.62
823.44	119.12
823.618	131.41
823.796	151.89
823.974	139.6
824.152	88.4
824.329	141.65
824.507	180.56
824.685	147.8
824.863	149.84
825.04	158.03
825.218	178.51
825.396	143.7
825.574	188.75
825.751	119.12
825.929	104.79
826.107	117.08
826.284	86.36
826.462	102.74
826.639	188.75
826.817	211.28
826.994	203.09
827.172	82.26
827.349	176.47
827.527	57.68
827.704	168.27
827.882	174.42
828.059	41.3
828.237	170.32
828.414	184.66
828.591	35.16
828.769	129.36
828.946	162.13
829.124	211.28
829.301	155.99
829.478	178.51
829.655	168.27
829.833	145.75
830.01	129.36
830.187	123.22
830.364	123.22
830.542	88.4
830.719	115.03
830.896	110.93
831.073	106.84
831.25	133.46
831.427	174.42
831.604	106.84
831.782	164.18
831.959	196.95
832.136	133.46
832.313	108.88
832.49	100.69
832.667	117.08
832.844	78.16
833.021	65.88
833.198	123.22
833.374	141.65
833.551	125.27
833.728	102.74
833.905	90.45
834.082	80.21
834.259	168.27
834.436	92.5
834.612	69.97
834.789	143.7
834.966	141.65
835.143	106.84
835.319	164.18
835.496	131.41
835.673	129.36
835.85	92.5
836.026	45.4
836.203	121.17
836.38	67.92
836.556	76.12
836.733	112.98
836.909	80.21
837.086	63.83
837.262	110.93
837.439	151.89
837.616	94.55
837.792	110.93
837.968	141.65
838.145	4.44
838.321	112.98
838.498	106.84
838.674	135.51
838.851	94.55
839.027	74.07
839.203	69.97
839.38	162.13
839.556	121.17
839.732	108.88
839.909	47.44
840.085	12.63
840.261	90.45
840.437	127.32
840.614	98.64
840.79	119.12
840.966	84.31
841.142	110.93
841.318	43.35
841.494	98.64
841.671	-1.71
841.847	72.02
842.023	98.64
842.199	125.27
842.375	133.46
842.551	59.73
842.727	2.39
842.903	174.42
843.079	59.73
843.255	119.12
843.431	72.02
843.607	82.26
843.783	6.49
843.959	67.92
844.134	96.6
844.31	57.68
844.486	47.44
844.662	82.26
844.838	98.64
845.013	43.35
845.189	133.46
845.365	127.32
845.541	98.64
845.716	121.17
845.892	104.79
846.068	86.36
846.244	86.36
846.419	29.01
846.595	18.77
846.77	84.31
846.946	135.51
847.122	80.21
847.297	37.2
847.473	49.49
847.648	59.73
847.824	59.73
847.999	74.07
848.175	100.69
848.35	51.54
848.526	80.21
848.701	98.64
848.876	65.88
849.052	115.03
849.227	98.64
849.403	55.64
849.578	47.44
849.753	-32.43
849.929	94.55
850.104	59.73
850.279	65.88
850.454	131.41
850.63	41.3
850.805	133.46
850.98	20.82
851.155	53.59
851.33	174.42
851.505	86.36
851.681	72.02
851.856	22.87
852.031	102.74
852.206	55.64
852.381	22.87
852.556	92.5
852.731	80.21
852.906	12.63
853.081	35.16
853.256	59.73
853.431	92.5
853.606	80.21
853.781	47.44
853.956	88.4
854.131	72.02
854.305	43.35
854.48	69.97
854.655	51.54
854.83	49.49
855.005	92.5
855.18	123.22
855.354	-7.85
855.529	49.49
855.704	65.88
855.879	129.36
856.053	35.16
856.228	26.96
856.403	41.3
856.577	76.12
856.752	-32.43
856.926	55.64
857.101	86.36
857.276	78.16
857.45	41.3
857.625	51.54
857.799	24.92
857.974	39.25
858.148	133.46
858.323	110.93
858.497	47.44
858.672	61.78
858.846	-40.62
859.02	74.07
859.195	59.73
859.369	45.4
859.543	47.44
859.718	41.3
859.892	16.73
860.066	55.64
860.241	61.78
860.415	-3.75
860.589	-18.09
860.763	65.88
860.938	24.92
861.112	53.59
861.286	86.36
861.46	22.87
861.634	69.97
861.808	96.6
861.982	61.78
862.157	84.31
862.331	22.87
862.505	37.2
862.679	35.16
862.853	104.79
863.027	45.4
863.201	63.83
863.375	16.73
863.549	72.02
863.722	61.78
863.896	24.92
864.07	2.39
864.244	96.6
864.418	47.44
864.592	16.73
864.766	18.77
864.939	18.77
865.113	10.58
865.287	67.92
865.461	-34.47
865.634	26.96
865.808	-28.33
865.982	65.88
866.156	35.16
866.329	18.77
866.503	33.11
866.676	33.11
866.85	-42.67
867.024	51.54
867.197	22.87
867.371	51.54
867.544	47.44
867.718	6.49
867.891	16.73
868.065	16.73
868.238	51.54
868.412	16.73
868.585	29.01
868.759	76.12
868.932	26.96
869.105	41.3
869.279	53.59
869.452	35.16
869.625	37.2
869.799	90.45
869.972	82.26
870.145	61.78
870.319	18.77
870.492	29.01
870.665	8.53
870.838	-34.47
871.011	0.34
871.185	74.07
871.358	8.53
871.531	29.01
871.704	69.97
871.877	88.4
872.05	22.87
872.223	12.63
872.396	2.39
872.569	80.21
872.742	-9.9
872.915	53.59
873.088	72.02
873.261	-30.38
873.434	67.92
873.607	18.77
873.78	22.87
873.953	-7.85
874.126	8.53
874.299	-1.71
874.471	69.97
874.644	57.68
874.817	72.02
874.99	76.12
875.163	55.64
875.335	35.16
875.508	55.64
875.681	59.73
875.853	63.83
876.026	51.54
876.199	53.59
876.371	18.77
876.544	4.44
876.717	59.73
876.889	55.64
877.062	59.73
877.234	53.59
877.407	69.97
877.579	43.35
877.752	24.92
877.924	-46.76
878.097	-1.71
878.269	63.83
878.442	-28.33
878.614	106.84
878.786	112.98
878.959	26.96
879.131	14.68
879.303	35.16
879.476	31.06
879.648	78.16
879.82	8.53
879.993	0.34
880.165	20.82
880.337	-9.9
880.509	-65.19
880.681	-91.82
880.854	-34.47
881.026	-7.85
881.198	57.68
881.37	4.44
881.542	20.82
881.714	6.49
881.886	18.77
882.058	22.87
882.23	112.98
882.402	18.77
882.574	-5.8
882.746	59.73
882.918	43.35
883.09	63.83
883.262	10.58
883.434	20.82
883.606	76.12
883.778	20.82
883.95	43.35
884.122	6.49
884.293	57.68
884.465	-22.19
884.637	39.25
884.809	-7.85
884.98	12.63
885.152	55.64
885.324	47.44
885.496	-22.19
885.667	-1.71
885.839	51.54
886.011	37.2
886.182	26.96
886.354	61.78
886.525	57.68
886.697	59.73
886.869	115.03
887.04	51.54
887.212	61.78
887.383	55.64
887.555	61.78
887.726	35.16
887.897	20.82
888.069	-3.75
888.24	63.83
888.412	33.11
888.583	106.84
888.754	39.25
888.926	63.83
889.097	20.82
889.268	33.11
889.44	10.58
889.611	88.4
889.782	-7.85
889.953	-34.47
890.125	39.25
890.296	-26.28
890.467	22.87
890.638	59.73
890.809	39.25
890.98	10.58
891.151	86.36
891.323	-63.15
891.494	26.96
891.665	-16.04
891.836	16.73
892.007	-32.43
892.178	74.07
892.349	74.07
892.52	-18.09
892.691	-57
892.862	57.68
893.032	-57
893.203	43.35
893.374	-32.43
893.545	76.12
893.716	-104.11
893.887	94.55
894.057	6.49
894.228	69.97
894.399	55.64
894.57	20.82
894.74	29.01
894.911	24.92
895.082	2.39
895.253	-1.71
895.423	35.16
895.594	49.49
895.764	-9.9
895.935	45.4
896.106	22.87
896.276	12.63
896.447	-1.71
896.617	6.49
896.788	-30.38
896.958	74.07
897.129	12.63
897.299	63.83
897.47	-26.28
897.64	31.06
897.81	-16.04
897.981	8.53
898.151	35.16
898.322	2.39
898.492	59.73
898.662	-9.9
898.832	-50.86
899.003	18.77
899.173	43.35
899.343	-7.85
899.513	63.83
