Data from USB4F104151__85__11-45-39-966.txt Node

Date: Fri Mar 14 11:45:39 EDT 2025
User: louis
Spectrometer: USB4F10415
Trigger mode: 4
Integration Time (sec): 2.000000E-2
Scans to average: 1
Electric dark correction enabled: true
Nonlinearity correction enabled: false
Boxcar width: 0
XAxis mode: Wavelengths
Number of Pixels in Spectrum: 3648
>>>>>Begin Spectral Data<<<<<
178.204	-88.06
178.424	-88.06
178.644	-88.06
178.864	-43.01
179.084	-96.25
179.304	-34.82
179.524	26.62
179.744	55.3
179.964	-8.19
180.184	16.38
180.404	-24.58
180.624	14.34
180.844	-20.48
181.064	-100.35
181.283	26.62
181.503	-10.24
181.723	59.39
181.943	8.19
182.163	88.06
182.383	-10.24
182.602	12.29
182.822	36.86
183.042	16.38
183.262	4.1
183.482	8.19
183.701	36.86
183.921	-79.87
184.141	-14.34
184.361	-57.34
184.58	-47.1
184.8	34.82
185.02	10.24
185.239	110.59
185.459	-18.43
185.679	57.34
185.898	0
186.118	34.82
186.338	-28.67
186.557	53.25
186.777	14.34
186.997	92.16
187.216	-36.86
187.436	124.93
187.655	-6.14
187.875	18.43
188.095	-55.3
188.314	67.58
188.534	102.4
188.753	4.1
188.973	2.05
189.192	59.39
189.412	38.91
189.631	12.29
189.851	-38.91
190.07	49.15
190.29	-69.63
190.509	-4.1
190.729	-6.14
190.948	34.82
191.168	120.83
191.387	0
191.607	-43.01
191.826	94.21
192.045	20.48
192.265	-10.24
192.484	28.67
192.704	61.44
192.923	-32.77
193.142	49.15
193.362	96.25
193.581	2.05
193.8	24.58
194.02	71.68
194.239	67.58
194.458	55.3
194.678	-20.48
194.897	8.19
195.116	-28.67
195.335	-77.82
195.555	20.48
195.774	51.2
195.993	-8.19
196.212	26.62
196.432	30.72
196.651	16.38
196.87	-55.3
197.089	16.38
197.308	-10.24
197.528	-2.05
197.747	-26.62
197.966	26.62
198.185	-28.67
198.404	-26.62
198.623	59.39
198.842	-10.24
199.062	12.29
199.281	10.24
199.5	22.53
199.719	-57.34
199.938	98.3
200.157	-22.53
200.376	32.77
200.595	-2.05
200.814	6.14
201.033	8.19
201.252	38.91
201.471	30.72
201.69	30.72
201.909	73.73
202.128	47.1
202.347	104.45
202.566	-38.91
202.785	4.1
203.004	65.53
203.223	79.87
203.442	71.68
203.661	49.15
203.879	-36.86
204.098	34.82
204.317	22.53
204.536	-8.19
204.755	-6.14
204.974	36.86
205.193	-40.96
205.411	24.58
205.63	141.31
205.849	-102.4
206.068	-22.53
206.287	-2.05
206.505	55.3
206.724	61.44
206.943	-2.05
207.162	71.68
207.381	0
207.599	12.29
207.818	18.43
208.037	69.63
208.255	32.77
208.474	108.54
208.693	36.86
208.911	61.44
209.13	-10.24
209.349	-22.53
209.567	14.34
209.786	38.91
210.005	6.14
210.223	53.25
210.442	18.43
210.661	-16.38
210.879	-12.29
211.098	75.77
211.316	28.67
211.535	75.77
211.753	-22.53
211.972	40.96
212.191	-26.62
212.409	0
212.628	24.58
212.846	6.14
213.065	40.96
213.283	51.2
213.502	-45.06
213.72	-4.1
213.938	0
214.157	8.19
214.375	28.67
214.594	-47.1
214.812	-47.1
215.031	75.77
215.249	55.3
215.467	34.82
215.686	22.53
215.904	-36.86
216.122	-59.39
216.341	53.25
216.559	69.63
216.778	-26.62
216.996	-6.14
217.214	-36.86
217.432	24.58
217.651	-22.53
217.869	-18.43
218.087	-10.24
218.306	14.34
218.524	86.01
218.742	-10.24
218.96	51.2
219.179	32.77
219.397	20.48
219.615	92.16
219.833	30.72
220.051	36.86
220.27	40.96
220.488	57.34
220.706	6.14
220.924	20.48
221.142	-43.01
221.36	16.38
221.578	75.77
221.796	-10.24
222.015	-32.77
222.233	-2.05
222.451	86.01
222.669	-43.01
222.887	20.48
223.105	-43.01
223.323	49.15
223.541	32.77
223.759	94.21
223.977	4.1
224.195	4.1
224.413	22.53
224.631	-30.72
224.849	-2.05
225.067	67.58
225.285	38.91
225.503	12.29
225.721	-79.87
225.939	26.62
226.157	12.29
226.375	51.2
226.592	-14.34
226.81	43.01
227.028	-40.96
227.246	47.1
227.464	-22.53
227.682	22.53
227.9	22.53
228.117	-14.34
228.335	45.06
228.553	24.58
228.771	30.72
228.989	10.24
229.206	4.1
229.424	20.48
229.642	-10.24
229.86	-12.29
230.077	118.78
230.295	-4.1
230.513	65.53
230.731	53.25
230.948	96.25
231.166	-20.48
231.384	-20.48
231.601	4.1
231.819	18.43
232.037	57.34
232.254	38.91
232.472	10.24
232.689	14.34
232.907	-8.19
233.125	34.82
233.342	2.05
233.56	38.91
233.777	-24.58
233.995	12.29
234.213	43.01
234.43	0
234.648	40.96
234.865	10.24
235.083	49.15
235.3	-24.58
235.518	77.82
235.735	79.87
235.953	30.72
236.17	45.06
236.388	81.92
236.605	-10.24
236.822	10.24
237.04	8.19
237.257	-14.34
237.475	-28.67
237.692	0
237.909	20.48
238.127	22.53
238.344	30.72
238.562	38.91
238.779	14.34
238.996	-8.19
239.214	90.11
239.431	-24.58
239.648	-18.43
239.865	30.72
240.083	-18.43
240.3	-51.2
240.517	-34.82
240.735	-24.58
240.952	8.19
241.169	-16.38
241.386	96.25
241.603	0
241.821	-18.43
242.038	47.1
242.255	-71.68
242.472	10.24
242.689	-10.24
242.907	45.06
243.124	26.62
243.341	81.92
243.558	-26.62
243.775	30.72
243.992	4.1
244.209	16.38
244.426	4.1
244.643	14.34
244.86	-2.05
245.078	22.53
245.295	61.44
245.512	65.53
245.729	-4.1
245.946	75.77
246.163	-8.19
246.38	4.1
246.597	18.43
246.814	-43.01
247.031	22.53
247.248	-2.05
247.464	4.1
247.681	57.34
247.898	10.24
248.115	38.91
248.332	8.19
248.549	-14.34
248.766	59.39
248.983	32.77
249.2	-14.34
249.417	-20.48
249.633	-14.34
249.85	18.43
250.067	-18.43
250.284	47.1
250.501	18.43
250.717	-38.91
250.934	-36.86
251.151	-22.53
251.368	12.29
251.585	63.49
251.801	69.63
252.018	-49.15
252.235	-10.24
252.451	-30.72
252.668	-8.19
252.885	102.4
253.102	2.05
253.318	-20.48
253.535	18.43
253.752	-30.72
253.968	38.91
254.185	-59.39
254.401	36.86
254.618	30.72
254.835	-61.44
255.051	8.19
255.268	-16.38
255.484	71.68
255.701	63.49
255.917	104.45
256.134	2.05
256.351	-36.86
256.567	38.91
256.784	-47.1
257	-20.48
257.217	63.49
257.433	18.43
257.65	-59.39
257.866	102.4
258.082	-14.34
258.299	-12.29
258.515	-38.91
258.732	18.43
258.948	4.1
259.165	47.1
259.381	16.38
259.597	10.24
259.814	-30.72
260.03	-20.48
260.246	-6.14
260.463	-8.19
260.679	61.44
260.895	104.45
261.112	32.77
261.328	-24.58
261.544	-40.96
261.761	79.87
261.977	4.1
262.193	34.82
262.409	-16.38
262.626	38.91
262.842	45.06
263.058	-4.1
263.274	-16.38
263.49	67.58
263.707	16.38
263.923	0
264.139	28.67
264.355	83.97
264.571	14.34
264.787	-14.34
265.004	38.91
265.22	38.91
265.436	0
265.652	16.38
265.868	51.2
266.084	61.44
266.3	59.39
266.516	40.96
266.732	120.83
266.948	-20.48
267.164	57.34
267.38	34.82
267.596	2.05
267.812	43.01
268.028	6.14
268.244	-18.43
268.46	6.14
268.676	-4.1
268.892	67.58
269.108	47.1
269.324	24.58
269.54	-6.14
269.756	-38.91
269.972	-16.38
270.188	26.62
270.403	-16.38
270.619	32.77
270.835	55.3
271.051	51.2
271.267	-40.96
271.483	-32.77
271.698	28.67
271.914	-10.24
272.13	6.14
272.346	-36.86
272.562	28.67
272.777	55.3
272.993	10.24
273.209	-22.53
273.425	59.39
273.64	-10.24
273.856	79.87
274.072	63.49
274.287	-20.48
274.503	-10.24
274.719	-59.39
274.934	-65.54
275.15	43.01
275.366	-30.72
275.581	26.62
275.797	12.29
276.012	-2.05
276.228	112.64
276.444	32.77
276.659	-22.53
276.875	-75.77
277.09	63.49
277.306	12.29
277.521	10.24
277.737	-32.77
277.952	126.97
278.168	71.68
278.383	2.05
278.599	-34.82
278.814	63.49
279.03	6.14
279.245	-36.86
279.461	47.1
279.676	-12.29
279.892	-8.19
280.107	-14.34
280.322	-32.77
280.538	38.91
280.753	-30.72
280.969	12.29
281.184	18.43
281.399	-18.43
281.615	-10.24
281.83	-10.24
282.045	-28.67
282.26	-67.58
282.476	6.14
282.691	10.24
282.906	-2.05
283.122	22.53
283.337	24.58
283.552	100.35
283.767	-61.44
283.983	28.67
284.198	12.29
284.413	14.34
284.628	-10.24
284.843	0
285.058	51.2
285.274	-10.24
285.489	0
285.704	34.82
285.919	-22.53
286.134	-28.67
286.349	-16.38
286.564	49.15
286.779	20.48
286.995	-22.53
287.21	-30.72
287.425	20.48
287.64	-4.1
287.855	34.82
288.07	53.25
288.285	36.86
288.5	108.54
288.715	36.86
288.93	47.1
289.145	-2.05
289.36	12.29
289.575	0
289.79	108.54
290.004	43.01
290.219	-83.97
290.434	-14.34
290.649	22.53
290.864	-8.19
291.079	10.24
291.294	6.14
291.509	67.58
291.724	-75.77
291.938	8.19
292.153	8.19
292.368	-28.67
292.583	-10.24
292.798	45.06
293.012	-10.24
293.227	34.82
293.442	0
293.657	26.62
293.871	32.77
294.086	71.68
294.301	28.67
294.516	22.53
294.73	-4.1
294.945	-40.96
295.16	43.01
295.374	34.82
295.589	12.29
295.804	-16.38
296.018	0
296.233	38.91
296.447	38.91
296.662	49.15
296.877	26.62
297.091	110.59
297.306	-18.43
297.52	-30.72
297.735	36.86
297.949	-8.19
298.164	55.3
298.378	47.1
298.593	40.96
298.807	30.72
299.022	16.38
299.236	63.49
299.451	-10.24
299.665	32.77
299.88	86.01
300.094	0
300.309	55.3
300.523	86.01
300.737	14.34
300.952	6.14
301.166	-12.29
301.381	-63.49
301.595	-65.54
301.809	-2.05
302.024	-20.48
302.238	-16.38
302.452	51.2
302.667	22.53
302.881	79.87
303.095	10.24
303.309	28.67
303.524	43.01
303.738	-14.34
303.952	-14.34
304.166	-10.24
304.381	-2.05
304.595	28.67
304.809	-45.06
305.023	16.38
305.237	-28.67
305.452	26.62
305.666	34.82
305.88	-32.77
306.094	16.38
306.308	28.67
306.522	30.72
306.736	34.82
306.95	22.53
307.164	-63.49
307.379	-14.34
307.593	-22.53
307.807	40.96
308.021	55.3
308.235	38.91
308.449	-4.1
308.663	-36.86
308.877	16.38
309.091	51.2
309.305	108.54
309.519	28.67
309.733	12.29
309.947	-61.44
310.161	18.43
310.374	-49.15
310.588	57.34
310.802	-26.62
311.016	63.49
311.23	8.19
311.444	-36.86
311.658	67.58
311.872	24.58
312.085	34.82
312.299	30.72
312.513	-18.43
312.727	67.58
312.941	24.58
313.154	57.34
313.368	34.82
313.582	34.82
313.796	38.91
314.009	-30.72
314.223	61.44
314.437	-34.82
314.651	16.38
314.864	20.48
315.078	-4.1
315.292	-6.14
315.505	55.3
315.719	4.1
315.933	57.34
316.146	28.67
316.36	38.91
316.573	67.58
316.787	45.06
317.001	75.77
317.214	-4.1
317.428	20.48
317.641	30.72
317.855	-16.38
318.068	40.96
318.282	55.3
318.495	43.01
318.709	-32.77
318.922	59.39
319.136	4.1
319.349	55.3
319.563	6.14
319.776	12.29
319.99	-34.82
320.203	53.25
320.417	-47.1
320.63	63.49
320.843	18.43
321.057	24.58
321.27	43.01
321.483	4.1
321.697	100.35
321.91	-6.14
322.124	43.01
322.337	-71.68
322.55	8.19
322.763	30.72
322.977	51.2
323.19	47.1
323.403	-10.24
323.617	-14.34
323.83	67.58
324.043	-14.34
324.256	34.82
324.469	-49.15
324.683	69.63
324.896	-12.29
325.109	-20.48
325.322	10.24
325.535	-22.53
325.748	-20.48
325.962	-2.05
326.175	-26.62
326.388	6.14
326.601	43.01
326.814	8.19
327.027	-4.1
327.24	71.68
327.453	-2.05
327.666	59.39
327.879	55.3
328.092	57.34
328.305	55.3
328.518	22.53
328.731	47.1
328.944	28.67
329.157	10.24
329.37	8.19
329.583	88.06
329.796	6.14
330.009	45.06
330.222	22.53
330.435	67.58
330.648	32.77
330.861	61.44
331.073	55.3
331.286	63.49
331.499	65.53
331.712	88.06
331.925	55.3
332.138	16.38
332.35	22.53
332.563	0
332.776	20.48
332.989	14.34
333.202	49.15
333.414	26.62
333.627	28.67
333.84	-4.1
334.053	61.44
334.265	45.06
334.478	22.53
334.691	69.63
334.903	32.77
335.116	-53.25
335.329	10.24
335.541	63.49
335.754	18.43
335.966	-14.34
336.179	75.77
336.392	-51.2
336.604	-16.38
336.817	20.48
337.029	51.2
337.242	75.77
337.454	22.53
337.667	18.43
337.88	28.67
338.092	20.48
338.305	34.82
338.517	-8.19
338.729	34.82
338.942	32.77
339.154	-86.01
339.367	49.15
339.579	-32.77
339.792	-10.24
340.004	-73.73
340.217	61.44
340.429	-10.24
340.641	26.62
340.854	8.19
341.066	36.86
341.278	79.87
341.491	-4.1
341.703	-14.34
341.915	55.3
342.128	83.97
342.34	32.77
342.552	-34.82
342.764	16.38
342.977	-2.05
343.189	59.39
343.401	16.38
343.613	71.68
343.826	-45.06
344.038	28.67
344.25	18.43
344.462	14.34
344.674	26.62
344.886	-71.68
345.099	45.06
345.311	71.68
345.523	34.82
345.735	45.06
345.947	51.2
346.159	10.24
346.371	4.1
346.583	83.97
346.795	32.77
347.007	14.34
347.219	65.53
347.431	6.14
347.643	14.34
347.855	10.24
348.067	79.87
348.279	-38.91
348.491	40.96
348.703	18.43
348.915	-12.29
349.127	61.44
349.339	69.63
349.551	-8.19
349.763	16.38
349.975	36.86
350.187	14.34
350.399	-18.43
350.61	-6.14
350.822	-6.14
351.034	53.25
351.246	59.39
351.458	38.91
351.669	16.38
351.881	12.29
352.093	34.82
352.305	12.29
352.517	20.48
352.728	40.96
352.94	55.3
353.152	8.19
353.363	-8.19
353.575	18.43
353.787	2.05
353.999	57.34
354.21	10.24
354.422	22.53
354.633	-43.01
354.845	114.69
355.057	10.24
355.268	43.01
355.48	-6.14
355.692	26.62
355.903	24.58
356.115	-6.14
356.326	18.43
356.538	20.48
356.749	43.01
356.961	14.34
357.172	-51.2
357.384	26.62
357.595	36.86
357.807	43.01
358.018	-61.44
358.23	22.53
358.441	69.63
358.653	-59.39
358.864	6.14
359.075	20.48
359.287	90.11
359.498	34.82
359.709	47.1
359.921	59.39
360.132	75.77
360.344	12.29
360.555	2.05
360.766	-24.58
360.977	63.49
361.189	110.59
361.4	-2.05
361.611	16.38
361.823	57.34
362.034	34.82
362.245	32.77
362.456	38.91
362.667	24.58
362.879	34.82
363.09	75.77
363.301	36.86
363.512	14.34
363.723	14.34
363.935	77.82
364.146	18.43
364.357	-6.14
364.568	40.96
364.779	26.62
364.99	79.87
365.201	18.43
365.412	83.97
365.623	36.86
365.834	-4.1
366.045	0
366.256	45.06
366.467	-18.43
366.678	96.25
366.889	20.48
367.1	57.34
367.311	63.49
367.522	28.67
367.733	67.58
367.944	18.43
368.155	-24.58
368.366	22.53
368.577	2.05
368.788	0
368.999	-20.48
369.209	32.77
369.42	55.3
369.631	57.34
369.842	59.39
370.053	-4.1
370.264	-18.43
370.474	-18.43
370.685	-4.1
370.896	69.63
371.107	104.45
371.317	104.45
371.528	26.62
371.739	110.59
371.95	32.77
372.16	79.87
372.371	28.67
372.582	-47.1
372.792	-24.58
373.003	-47.1
373.214	53.25
373.424	-43.01
373.635	71.68
373.846	-55.3
374.056	28.67
374.267	40.96
374.477	36.86
374.688	20.48
374.898	-20.48
375.109	16.38
375.319	0
375.53	102.4
375.74	-4.1
375.951	53.25
376.161	55.3
376.372	-16.38
376.582	-12.29
376.793	40.96
377.003	-16.38
377.214	22.53
377.424	73.73
377.635	49.15
377.845	-102.4
378.055	4.1
378.266	-16.38
378.476	16.38
378.686	32.77
378.897	45.06
379.107	24.58
379.317	8.19
379.528	-45.06
379.738	-8.19
379.948	40.96
380.158	34.82
380.369	34.82
380.579	22.53
380.789	2.05
380.999	20.48
381.21	67.58
381.42	61.44
381.63	10.24
381.84	75.77
382.05	45.06
382.261	65.53
382.471	18.43
382.681	24.58
382.891	49.15
383.101	83.97
383.311	36.86
383.521	6.14
383.731	14.34
383.941	-24.58
384.151	2.05
384.361	18.43
384.571	43.01
384.781	77.82
384.991	51.2
385.201	24.58
385.411	61.44
385.621	16.38
385.831	0
386.041	16.38
386.251	-40.96
386.461	-18.43
386.671	32.77
386.881	26.62
387.091	38.91
387.301	0
387.511	10.24
387.72	6.14
387.93	20.48
388.14	-45.06
388.35	57.34
388.56	104.45
388.769	63.49
388.979	-36.86
389.189	53.25
389.399	73.73
389.609	67.58
389.818	79.87
390.028	-57.34
390.238	16.38
390.447	-34.82
390.657	2.05
390.867	20.48
391.076	-43.01
391.286	38.91
391.496	51.2
391.705	24.58
391.915	126.97
392.125	26.62
392.334	53.25
392.544	94.21
392.753	2.05
392.963	22.53
393.172	49.15
393.382	2.05
393.591	61.44
393.801	-20.48
394.01	65.53
394.22	34.82
394.429	49.15
394.639	26.62
394.848	45.06
395.058	14.34
395.267	-24.58
395.477	67.58
395.686	143.36
395.895	51.2
396.105	137.21
396.314	-14.34
396.524	16.38
396.733	49.15
396.942	47.1
397.152	-10.24
397.361	-12.29
397.57	57.34
397.78	34.82
397.989	47.1
398.198	98.3
398.407	20.48
398.617	83.97
398.826	-26.62
399.035	38.91
399.244	77.82
399.453	77.82
399.663	28.67
399.872	26.62
400.081	-43.01
400.29	135.17
400.499	53.25
400.708	106.49
400.917	98.3
401.127	28.67
401.336	61.44
401.545	75.77
401.754	94.21
401.963	110.59
402.172	83.97
402.381	53.25
402.59	6.14
402.799	108.54
403.008	24.58
403.217	8.19
403.426	102.4
403.635	28.67
403.844	57.34
404.053	77.82
404.262	55.3
404.471	141.31
404.68	98.3
404.888	-22.53
405.097	77.82
405.306	83.97
405.515	79.87
405.724	88.06
405.933	75.77
406.142	45.06
406.35	47.1
406.559	172.03
406.768	77.82
406.977	98.3
407.185	204.8
407.394	26.62
407.603	100.35
407.812	83.97
408.02	198.65
408.229	47.1
408.438	188.41
408.646	32.77
408.855	102.4
409.064	65.53
409.272	141.31
409.481	184.32
409.69	143.36
409.898	165.89
410.107	81.92
410.315	241.66
410.524	75.77
410.733	129.02
410.941	174.08
411.15	212.99
411.358	239.61
411.567	286.72
411.775	176.13
411.984	196.61
412.192	169.98
412.401	190.46
412.609	196.61
412.818	284.67
413.026	260.09
413.234	243.71
413.443	260.09
413.651	258.04
413.86	233.47
414.068	346.11
414.276	288.76
414.485	354.3
414.693	344.06
414.901	393.21
415.11	335.87
415.318	321.53
415.526	354.3
415.734	378.87
415.943	344.06
416.151	348.15
416.359	430.07
416.567	374.78
416.776	497.66
416.984	448.51
417.192	448.51
417.4	481.27
417.608	489.46
417.817	481.27
418.025	557.05
418.233	544.76
418.441	514.04
418.649	552.95
418.857	559.1
419.065	665.59
419.273	555
419.481	647.16
419.689	686.07
419.897	669.69
420.105	710.65
420.313	722.93
420.521	833.52
420.729	782.32
420.937	790.52
421.145	858.1
421.353	864.24
421.561	888.82
421.769	901.11
421.977	974.83
422.185	880.63
422.393	1011.7
422.601	1144.81
422.809	1019.89
423.017	1087.47
423.224	1130.48
423.432	1165.29
423.64	1157.1
423.848	1269.74
424.056	1232.88
424.263	1341.42
424.471	1226.73
424.679	1376.23
424.887	1413.1
425.094	1406.95
425.302	1404.91
425.51	1425.39
425.718	1591.27
425.925	1560.55
426.133	1679.33
426.341	1722.34
426.548	1773.54
426.756	1755.11
426.964	1794.02
427.171	1902.56
427.379	2117.6
427.586	1976.29
427.794	2009.06
428.001	2185.18
428.209	2254.81
428.417	2095.07
428.624	2492.38
428.832	2289.63
429.039	2279.39
429.247	2426.84
429.454	2648.02
429.662	2783.19
429.869	2600.92
430.076	2731.99
430.284	2701.27
430.491	2807.77
430.699	3022.8
430.906	2830.29
431.114	2965.46
431.321	3014.61
431.528	3160.02
431.736	3403.72
431.943	3663.82
432.15	3549.13
432.358	3456.97
432.565	3651.53
432.772	3667.91
432.979	3841.99
433.187	3921.86
433.394	3983.3
433.601	4241.34
433.808	4231.1
434.016	4190.14
434.223	4337.6
434.43	4695.99
434.637	4548.54
434.844	4868.02
435.052	4951.99
435.259	4808.63
435.466	5031.86
435.673	4896.69
435.88	5240.75
436.087	5498.8
436.294	5476.27
436.501	5216.18
436.708	5603.24
436.915	5670.83
437.122	6012.84
437.329	5928.87
437.537	6180.77
437.743	6231.97
437.95	6115.23
438.157	6506.4
438.364	6604.7
438.571	6684.57
438.778	6631.32
438.985	7235.47
439.192	7032.72
439.399	7237.52
439.606	7133.08
439.813	7624.59
440.02	7999.37
440.227	7905.16
440.433	7813
440.64	7974.79
440.847	7980.93
441.054	8140.68
441.261	8814.46
441.467	8617.85
441.674	8580.99
441.881	9035.64
442.088	8982.39
442.294	8968.06
442.501	9129.84
442.708	9222
442.914	9844.59
443.121	10071.91
443.328	9856.87
443.534	10393.44
443.741	10137.45
443.948	10147.69
444.154	10919.77
444.361	10753.88
444.568	10850.14
444.774	10946.39
444.981	10876.76
445.187	11132.76
445.394	11888.46
445.6	11611.98
445.807	12887.87
446.013	12525.38
446.22	12527.42
446.426	13023.03
446.633	13088.57
446.839	13520.69
447.046	13107
447.252	13694.77
447.459	13817.65
447.665	13778.73
447.871	14108.46
448.078	14804.77
448.284	14049.07
448.491	14434.08
448.697	15228.7
448.903	15587.09
449.11	15548.18
449.316	15365.91
449.522	15621.91
449.728	15998.73
449.935	16156.43
450.141	16015.12
450.347	16400.13
450.553	15965.96
450.76	16301.83
450.966	16396.04
451.172	16449.28
451.378	16756.48
451.584	16545.54
451.791	17186.55
451.997	16865.02
452.203	17133.31
452.409	17096.44
452.615	16920.32
452.821	16275.21
453.027	16240.39
453.233	17051.39
453.44	16707.33
453.646	16721.66
453.852	16707.33
454.058	16930.56
454.264	16477.96
454.47	16752.38
454.676	16473.86
454.882	17184.51
455.088	15539.99
455.294	15841.04
455.5	15935.24
455.705	16260.87
455.911	15734.54
456.117	15343.38
456.323	14966.56
456.529	14458.66
456.735	14776.09
456.941	14511.91
457.147	14169.9
457.352	13776.69
457.558	13772.59
457.764	13643.57
457.97	13618.99
458.176	13018.94
458.381	12877.63
458.587	12535.62
458.793	12420.93
458.999	11999.05
459.204	12703.55
459.41	12418.88
459.616	11538.26
459.821	11702.09
460.027	11581.26
460.233	11218.77
460.438	10665.82
460.644	10833.75
460.85	10323.81
461.055	10076.01
461.261	10065.77
461.466	9357.17
461.672	9052.02
461.878	9860.97
462.083	9224.05
462.289	8986.49
462.494	8976.25
462.7	8439.68
462.905	8390.53
463.111	8546.17
463.316	8542.08
463.522	8365.95
463.727	8361.86
463.932	8521.6
464.138	8202.11
464.343	8181.64
464.549	7935.88
464.754	8406.91
464.959	8251.27
465.165	8216.45
465.37	7860.1
465.575	7647.12
465.781	7837.58
465.986	7792.52
466.191	7860.1
466.397	7628.68
466.602	7073.68
466.807	7456.65
467.012	7456.65
467.218	7479.18
467.423	7432.08
467.628	7393.17
467.833	7657.36
468.038	7440.27
468.244	7274.38
468.449	7456.65
468.654	7131.03
468.859	7190.42
469.064	7071.64
469.269	6942.61
469.474	6842.26
469.679	7184.27
469.885	6696.86
470.09	6936.47
470.295	6907.8
470.5	6703
470.705	6576.03
470.91	6717.34
471.115	6494.11
471.32	6473.63
471.525	6639.51
471.73	6428.57
471.935	6422.43
472.139	6258.59
472.344	6279.07
472.549	6379.42
472.754	6293.41
472.959	6029.22
473.164	5957.54
473.369	5851.05
473.574	6037.41
473.778	6188.96
473.983	5947.3
474.188	5967.78
474.393	5615.53
474.598	5734.31
474.802	5683.11
475.007	5568.43
475.212	5582.76
475.417	5306.29
475.621	5572.52
475.826	5509.04
476.031	5300.14
476.235	5033.91
476.44	5353.39
476.645	5068.72
476.849	5177.26
477.054	5076.91
477.259	4915.12
477.463	4970.42
477.668	4915.12
477.872	4997.04
478.077	4812.73
478.282	4802.49
478.486	4775.86
478.691	4601.79
478.895	4487.1
479.1	4693.94
479.304	4560.83
479.509	4591.55
479.713	4587.45
479.918	4521.91
480.122	4523.96
480.326	4468.67
480.531	4411.32
480.735	4362.17
480.94	4321.21
481.144	4540.35
481.348	4274.11
481.553	4470.72
481.757	4249.54
481.961	4321.21
482.166	4353.98
482.37	4300.73
482.574	4313.02
482.778	4255.68
482.983	4337.6
483.187	4280.25
483.391	4401.08
483.595	4386.75
483.8	4224.96
484.004	4437.95
484.208	4372.41
484.412	4257.73
484.616	4276.16
484.821	4319.17
485.025	4325.31
485.229	4327.36
485.433	4216.77
485.637	4319.17
485.841	4184
486.045	4417.47
486.249	4239.3
486.453	4235.2
486.657	4327.36
486.861	4286.4
487.065	4179.9
487.269	4458.43
487.473	4286.4
487.677	4517.82
487.881	4353.98
488.085	4405.18
488.289	4165.57
488.493	4310.97
488.697	4243.39
488.901	4351.93
489.105	4327.36
489.309	4310.97
489.512	4511.68
489.716	4343.74
489.92	4409.28
490.124	4360.13
490.328	4362.17
490.531	4403.13
490.735	4442.04
490.939	4501.44
491.143	4403.13
491.346	4263.87
491.55	4458.43
491.754	4480.96
491.958	4530.11
492.161	4392.89
492.365	4538.3
492.569	4589.5
492.772	4464.57
492.976	4493.24
493.18	4614.07
493.383	4700.09
493.587	4638.65
493.79	4773.82
493.994	4679.61
494.197	4868.02
494.401	4859.83
494.605	4898.74
494.808	4771.77
495.012	4798.39
495.215	4896.69
495.419	4982.71
495.622	4765.62
495.825	4919.22
496.029	5007.28
496.232	5046.19
496.436	5162.93
496.639	5173.17
496.843	5173.17
497.046	5171.12
497.249	5281.71
497.453	5132.21
497.656	5423.02
497.859	5439.4
498.063	5388.21
498.266	5558.19
498.469	5576.62
498.673	5560.24
498.876	5717.93
499.079	5773.22
499.282	5754.79
499.485	5877.67
499.689	5867.43
499.892	5932.97
500.095	5756.84
500.298	6193.06
500.501	5984.16
500.705	6158.24
500.908	6330.27
501.111	6404
501.314	6440.86
501.517	6457.25
501.72	6510.49
501.923	6457.25
502.126	6782.87
502.329	6805.4
502.532	6807.45
502.735	6786.97
502.938	7051.16
503.141	7028.63
503.344	7083.92
503.547	7067.54
503.75	7247.76
503.953	7511.95
504.156	7534.48
504.359	7528.33
504.562	7649.16
504.765	7546.76
504.968	7847.82
505.17	7874.44
505.373	7831.43
505.576	7827.34
505.779	8069
505.982	8185.73
506.185	8251.27
506.387	8394.62
506.59	8320.9
506.793	8753.02
506.996	8523.65
507.198	8867.7
507.401	8720.25
507.604	8804.22
507.807	8929.14
508.009	8949.62
508.212	9183.09
508.415	9230.2
508.617	9299.83
508.82	9408.37
509.022	9144.18
509.225	9439.09
509.428	9772.91
509.63	9926.5
509.833	9885.55
510.035	10215.27
510.238	9832.3
510.44	10143.59
510.643	10143.59
510.845	10356.58
511.048	10100.58
511.25	10563.42
511.453	10592.09
511.655	10823.51
511.858	10678.11
512.06	10860.38
512.262	11038.55
512.465	11179.86
512.667	11315.03
512.87	11415.38
513.072	11353.94
513.274	11796.3
513.477	11865.93
513.679	11933.51
513.881	12060.49
514.084	12257.09
514.286	11929.42
514.488	12169.03
514.69	12570.43
514.893	12355.4
515.095	12969.79
515.297	12943.16
515.499	12787.52
515.701	12957.5
515.904	13168.44
516.106	13162.3
516.308	13494.07
516.51	13485.87
516.712	13530.93
516.914	13666.1
517.116	13899.56
517.318	14085.93
517.52	13999.91
517.722	14427.94
517.925	14585.63
518.127	14614.31
518.329	14831.39
518.531	14606.11
518.733	14935.84
518.935	15116.06
519.136	15136.54
519.338	15212.31
519.54	15382.29
519.742	15800.08
519.944	15621.91
520.146	16080.65
520.348	16103.18
520.55	16496.39
520.752	16094.99
520.954	16551.68
521.155	16307.98
521.357	17071.87
521.559	16680.71
521.761	17225.47
521.963	17256.18
522.164	17145.59
522.366	17393.4
522.568	17563.38
522.77	17802.99
522.971	17651.44
523.173	17737.46
523.375	17999.6
523.576	18024.17
523.778	18108.14
523.98	18362.09
524.181	18341.61
524.383	18583.27
524.584	18640.61
524.786	19130.08
524.988	18886.37
525.189	19328.73
525.391	19197.66
525.592	19328.73
525.794	19504.85
525.995	19437.27
526.197	19597.01
526.398	19652.31
526.6	19846.87
526.801	20131.53
527.003	19988.17
527.204	19959.5
527.406	20254.41
527.607	20260.55
527.808	20655.81
528.01	20252.36
528.211	20344.52
528.412	20750.02
528.614	21096.13
528.815	20594.37
529.016	20870.85
529.218	20807.36
529.419	21094.08
529.62	21016.26
529.822	20915.9
530.023	21208.76
530.224	21305.02
530.425	21642.93
530.626	21104.32
530.828	21397.18
531.029	21786.29
531.23	21528.25
531.431	21675.7
531.632	21440.18
531.833	22077.1
532.035	21546.68
532.236	21716.66
532.437	21874.35
532.638	21532.34
532.839	21927.6
533.04	21919.41
533.241	21739.19
533.442	22005.42
533.643	22068.91
533.844	22009.52
534.045	21833.39
534.246	21796.53
534.447	22208.17
534.648	21956.27
534.849	22111.92
535.05	22052.53
535.251	22408.87
535.451	21974.7
535.652	22015.66
535.853	22310.57
536.054	22527.66
536.255	22124.21
536.456	21823.15
536.657	22458.03
536.857	22113.97
537.058	22032.05
537.259	22277.8
537.46	22376.11
537.66	22271.66
537.861	22406.83
538.062	22085.29
538.263	22501.03
538.463	22208.17
538.664	22281.9
538.865	22374.06
539.065	22290.09
539.266	22255.28
539.466	22683.3
539.667	22245.04
539.868	22400.68
540.068	22242.99
540.269	22212.27
540.469	22419.11
540.67	22220.46
540.87	22337.2
541.071	22152.88
541.271	22544.04
541.472	22351.53
541.672	22367.91
541.873	22058.67
542.073	22003.38
542.274	22218.41
542.474	22329
542.675	22107.82
542.875	22382.25
543.075	22353.58
543.276	22023.86
543.476	22519.46
543.676	22415.02
543.877	22458.03
544.077	22140.59
544.277	22302.38
544.478	22292.14
544.678	22462.12
544.878	22222.51
545.078	22128.3
545.279	21974.7
545.479	22380.2
545.679	22441.64
545.879	22490.79
546.079	22390.44
546.28	22261.42
546.48	22099.63
546.68	22345.39
546.88	22208.17
547.08	22242.99
547.28	22103.73
547.48	22093.49
547.68	22320.81
547.88	21925.55
548.081	22103.73
548.281	22167.21
548.481	22230.7
548.681	22189.74
548.881	22146.73
549.081	21946.03
549.28	21960.37
549.48	22417.07
549.68	22251.18
549.88	22517.42
550.08	22206.13
550.28	22167.21
550.48	22128.3
550.68	22197.93
550.88	21829.3
551.08	22150.83
551.279	22245.04
551.479	22113.97
551.679	21999.28
551.879	22294.19
552.079	22277.8
552.278	21857.97
552.478	22187.69
552.678	22091.44
552.878	22073.01
553.077	21939.89
553.277	21939.89
553.477	22318.76
553.676	21989.04
553.876	21946.03
554.076	21776.05
554.275	21722.8
554.475	21415.61
554.674	21913.27
554.874	21903.03
555.074	21667.51
555.273	22073.01
555.473	21874.35
555.672	21804.72
555.872	21825.2
556.071	21573.3
556.271	21577.4
556.47	21825.2
556.67	21567.16
556.869	21604.02
557.068	21903.03
557.268	21534.39
557.467	21763.76
557.667	21608.12
557.866	21364.41
558.065	21479.1
558.265	21145.28
558.464	21227.2
558.663	21358.27
558.863	21223.1
559.062	21513.91
559.261	20838.08
559.461	21192.38
559.66	20971.2
559.859	21229.24
560.058	21069.5
560.258	21032.64
560.457	20913.86
560.656	21032.64
560.855	21051.07
561.054	20936.38
561.253	20680.39
561.453	20647.62
561.652	21044.93
561.851	21014.21
562.05	20500.17
562.249	20596.42
562.448	20547.27
562.647	20696.77
562.846	20502.22
563.045	20352.71
563.244	20369.1
563.443	20592.33
563.642	20215.5
563.841	20113.1
564.04	20147.92
564.239	20115.15
564.438	20033.23
564.637	20221.64
564.836	19699.41
565.035	19699.41
565.234	19992.27
565.432	19625.68
565.631	19529.43
565.83	19920.59
566.029	19443.42
566.228	19592.92
566.427	19293.91
566.625	19298.01
566.824	19089.12
567.023	19420.89
567.222	18765.54
567.42	19025.63
567.619	19338.97
567.818	19285.72
568.016	19066.59
568.215	18972.38
568.414	18994.91
568.612	18849.5
568.811	18691.81
569.01	18505.45
569.208	18650.85
569.407	18808.54
569.605	18329.32
569.804	18575.08
570.002	18120.43
570.201	18239.21
570.4	18376.42
570.598	18353.9
570.797	18271.98
570.995	17807.09
571.193	18130.67
571.392	18149.1
571.59	17884.91
571.789	18067.18
571.987	17792.75
572.186	17929.97
572.384	17706.74
572.582	17741.55
572.781	17682.16
572.979	17401.59
573.177	17497.85
573.376	17911.53
573.574	17469.17
573.772	17229.56
573.971	17544.95
574.169	17135.35
574.367	17202.94
574.565	17458.93
574.763	17239.8
574.962	17166.07
575.16	16594.69
575.358	17168.12
575.556	16819.97
575.754	16836.35
575.952	16717.57
576.151	16758.53
576.349	16535.3
576.547	16590.59
576.745	16670.47
576.943	16535.3
577.141	16529.16
577.339	16422.66
577.537	16549.64
577.735	16279.3
577.933	16285.45
578.131	16113.42
578.329	16357.13
578.527	16144.14
578.725	15777.55
578.923	16054.03
579.121	16011.02
579.319	15701.78
579.516	15970.06
579.714	16035.6
579.912	15832.85
580.11	15882
580.308	15877.9
580.506	15542.03
580.704	15343.38
580.901	15591.19
581.099	15613.71
581.297	15437.59
581.495	15247.13
581.692	15331.09
581.89	15152.92
582.088	15511.32
582.285	15200.02
582.483	15259.42
582.681	15296.28
582.878	15179.54
583.076	14921.5
583.274	15376.15
583.471	14862.11
583.669	15091.48
583.866	15023.9
584.064	15021.85
584.262	14688.03
584.459	14569.25
584.657	14632.74
584.854	14786.33
585.052	14610.21
585.249	14753.57
585.447	14489.38
585.644	14386.98
585.841	14429.99
586.039	14655.26
586.236	14325.54
586.434	14014.25
586.631	14108.46
586.828	14382.88
587.026	14053.16
587.223	14223.14
587.42	14276.39
587.618	14038.83
587.815	13881.13
588.012	14057.26
588.21	13877.04
588.407	13807.41
588.604	13950.76
588.801	14067.5
588.999	13903.66
589.196	13524.79
589.393	13764.4
589.59	13797.17
589.787	13524.79
589.984	13428.53
590.182	13410.1
590.379	13680.43
590.576	13512.5
590.773	13371.19
590.97	13326.13
591.167	13365.04
591.364	13059.9
591.561	13219.64
591.758	13195.06
591.955	13096.76
592.152	13477.68
592.349	12818.24
592.546	13008.7
592.743	13330.23
592.94	12728.13
593.137	12855.1
593.334	13066.04
593.531	12877.63
593.727	12848.96
593.924	12693.31
594.121	12515.14
594.318	12990.27
594.515	12666.69
594.712	12801.85
594.908	12496.71
595.105	12752.7
595.302	12515.14
595.499	12486.47
595.696	12431.17
595.892	12392.26
596.089	12414.79
596.286	12420.93
596.482	12519.23
596.679	12226.37
596.876	12355.4
597.072	12179.27
597.269	12205.89
597.466	12025.67
597.662	12101.45
597.859	12111.69
598.055	12095.3
598.252	11884.36
598.448	11937.61
598.645	11894.6
598.841	11919.18
599.038	11865.93
599.234	11863.88
599.431	11738.96
599.627	11677.52
599.824	11749.2
600.02	11571.02
600.217	11845.45
600.413	11646.8
600.609	11618.13
600.806	11462.48
601.002	11464.53
601.198	11546.45
601.395	11515.73
601.591	11251.54
601.787	11265.88
601.984	11167.57
602.18	11409.23
602.376	11179.86
602.572	11126.61
602.769	11255.64
602.965	11069.27
603.161	11190.1
603.357	11069.27
603.553	11003.74
603.75	10905.43
603.946	10911.58
604.142	11001.69
604.338	10901.34
604.534	10786.65
604.73	10727.26
604.926	10831.71
605.122	10882.91
605.318	10499.94
605.514	10583.9
605.71	10598.24
605.906	10692.44
606.102	10508.13
606.298	10561.37
606.494	10372.96
606.69	10497.89
606.886	10493.79
607.082	10436.45
607.278	10407.78
607.474	10239.84
607.67	10258.28
607.866	10252.13
608.062	10223.46
608.257	10268.52
608.453	10379.11
608.649	10286.95
608.845	10233.7
609.041	10123.11
609.236	10338.15
609.432	10151.78
609.628	10332
609.824	10184.55
610.019	9920.36
610.215	10063.72
610.411	10129.25
610.606	9869.16
610.802	10030.95
610.998	9944.94
611.193	10010.47
611.389	9762.67
611.584	9877.35
611.78	9856.87
611.976	9762.67
612.171	9879.4
612.367	9748.33
612.562	9742.19
612.758	9453.42
612.953	9621.36
613.149	9713.52
613.344	9672.56
613.539	9983.85
613.735	9707.37
613.93	9478
614.126	9690.99
614.321	9598.83
614.517	9564.01
614.712	9344.88
614.907	9527.15
615.103	9676.65
615.298	9445.23
615.493	9701.23
615.688	9494.38
615.884	9568.11
616.079	9193.33
616.274	9555.82
616.47	9314.16
616.665	9342.83
616.86	9420.66
617.055	9254.77
617.25	9219.96
617.445	9250.67
617.641	8918.9
617.836	9164.66
618.031	9127.8
618.226	9230.2
618.421	9111.41
618.616	9234.29
618.811	9033.59
619.006	9305.97
619.201	8990.58
619.396	8806.27
619.591	8959.86
619.786	8931.19
619.981	8806.27
620.176	8972.15
620.371	8701.82
620.566	8898.42
620.761	8644.48
620.956	8552.32
621.151	8730.49
621.346	8687.48
621.541	8566.65
621.735	8599.42
621.93	8347.52
622.125	8494.97
622.32	8308.61
622.515	8374.14
622.709	8232.83
622.904	8193.92
623.099	8226.69
623.294	8388.48
623.488	8091.52
623.683	8222.59
623.878	7890.82
624.072	8099.72
624.267	7886.73
624.462	7882.63
624.656	7845.77
624.851	7896.97
625.046	7909.26
625.24	7708.55
625.435	7716.75
625.629	7778.19
625.824	7497.61
626.018	7671.69
626.213	7473.04
626.407	7565.2
626.602	7602.06
626.796	7470.99
626.991	7522.19
627.185	7444.37
627.38	7405.45
627.574	7128.98
627.768	7112.6
627.963	7210.9
628.157	7045.01
628.352	7237.52
628.546	6965.14
628.74	7059.35
628.935	6868.89
629.129	6944.66
629.323	6860.7
629.517	6942.61
629.712	6848.41
629.906	6940.57
630.1	6895.51
630.294	6807.45
630.489	6645.66
630.683	6786.97
630.877	6535.07
631.071	6705.05
631.265	6586.27
631.459	6492.06
631.653	6504.35
631.848	6469.53
632.042	6526.88
632.236	6459.29
632.43	6418.33
632.624	6338.46
632.818	6363.04
633.012	6342.56
633.206	6096.8
633.4	6270.88
633.594	6295.46
633.788	6184.87
633.982	6154.15
634.176	6170.53
634.369	6096.8
634.563	6121.38
634.757	6021.03
634.951	6145.95
635.145	5826.47
635.339	6078.37
635.533	5810.09
635.726	5943.21
635.92	5877.67
636.114	5779.37
636.308	5617.58
636.501	5820.33
636.695	5668.78
636.889	5576.62
637.083	5451.69
637.276	5558.19
637.47	5459.88
637.664	5441.45
637.857	5478.32
638.051	5506.99
638.244	5414.83
638.438	5373.87
638.632	5337.01
638.825	5375.92
639.019	5412.78
639.212	5164.98
639.406	5349.29
639.599	5121.97
639.793	5302.19
639.986	5134.26
640.18	5267.38
640.373	5044.15
640.567	5060.53
640.76	5158.83
640.954	4984.76
641.147	5113.78
641.34	4997.04
641.534	4990.9
641.727	4980.66
641.92	4945.84
642.114	4827.06
642.307	4894.65
642.5	4759.48
642.694	4829.11
642.887	4569.02
643.08	4908.98
643.273	4640.7
643.467	4706.23
643.66	4655.03
643.853	4681.66
644.046	4503.48
644.239	4648.89
644.432	4618.17
644.626	4480.96
644.819	4532.15
645.012	4585.4
645.205	4550.59
645.398	4558.78
645.591	4444.09
645.784	4413.37
645.977	4370.37
646.17	4429.76
646.363	4339.65
646.556	4339.65
646.749	4360.13
646.942	4370.37
647.135	4161.47
647.328	4233.15
647.521	4196.29
647.714	4196.29
647.907	4173.76
648.099	4042.69
648.292	4077.51
648.485	4282.3
648.678	3995.59
648.871	4069.31
649.064	3999.68
649.256	3964.87
649.449	4044.74
649.642	3997.63
649.835	3905.48
650.027	3901.38
650.22	3813.32
650.413	4011.97
650.605	3915.72
650.798	3880.9
650.991	3891.14
651.183	3905.48
651.376	3704.78
651.568	3807.17
651.761	3649.48
651.954	3829.7
652.146	3672.01
652.339	3772.36
652.531	3651.53
652.724	3635.14
652.916	3540.94
653.109	3594.19
653.301	3624.9
653.494	3581.9
653.686	3530.7
653.879	3526.6
654.071	3665.86
654.263	3356.62
654.456	3497.93
654.648	3493.83
654.84	3434.44
655.033	3459.02
655.225	3305.42
655.417	3403.72
655.61	3325.9
655.802	3243.98
655.994	3317.71
656.186	3250.13
656.379	3254.22
656.571	3368.91
656.763	3250.13
656.955	3233.74
657.148	3231.69
657.34	3321.81
657.532	3293.13
657.724	3168.21
657.916	3160.02
658.108	3137.49
658.3	3147.73
658.492	3123.15
658.684	3147.73
658.876	3186.64
659.068	3024.85
659.26	3053.52
659.452	2994.13
659.644	3119.06
659.836	3020.75
660.028	3049.43
660.22	2897.88
660.412	3010.51
660.604	2934.74
660.796	3092.43
660.988	3092.43
661.18	2971.6
661.372	2873.3
661.563	2897.88
661.755	2924.5
661.947	2858.96
662.139	2908.12
662.331	2920.4
662.522	2762.71
662.714	2824.15
662.906	2809.81
663.097	2822.1
663.289	2793.43
663.481	2822.1
663.673	2815.96
663.864	2676.7
664.056	2721.75
664.247	2727.89
664.439	2660.31
664.631	2775
664.822	2822.1
665.014	2602.97
665.205	2600.92
665.397	2721.75
665.588	2766.81
665.78	2641.88
665.971	2666.46
666.163	2650.07
666.354	2580.44
666.546	2652.12
666.737	2553.82
666.929	2533.34
667.12	2566.1
667.311	2629.59
667.503	2590.68
667.694	2531.29
667.885	2543.58
668.077	2457.56
668.268	2660.31
668.459	2531.29
668.651	2519
668.842	2611.16
669.033	2510.81
669.224	2447.32
669.416	2570.2
669.607	2383.84
669.798	2396.12
669.989	2537.43
670.18	2398.17
670.371	2346.97
670.563	2432.99
670.754	2504.67
670.945	2447.32
671.136	2392.03
671.327	2416.6
671.518	2492.38
671.709	2387.93
671.9	2396.12
672.091	2338.78
672.282	2328.54
672.473	2389.98
672.664	2263.01
672.855	2349.02
673.046	2269.15
673.237	2379.74
673.428	2344.92
673.619	2340.83
673.809	2293.72
674	2377.69
674.191	2271.2
674.382	2318.3
674.573	2263.01
674.764	2260.96
674.954	2346.97
675.145	2250.72
675.336	2197.47
675.527	2260.96
675.717	2293.72
675.908	2256.86
676.099	2215.9
676.289	2217.95
676.48	2346.97
676.671	2287.58
676.861	2308.06
677.052	2344.92
677.243	2176.99
677.433	2308.06
677.624	2113.5
677.814	2303.96
678.005	2322.4
678.195	2301.92
678.386	2228.19
678.576	2230.24
678.767	2299.87
678.957	2297.82
679.148	2271.2
679.338	2181.09
679.529	2258.91
679.719	2185.18
679.909	2353.12
680.1	2254.81
680.29	2160.61
680.481	2187.23
680.671	2115.55
680.861	2228.19
681.052	2303.96
681.242	2121.7
681.432	2234.33
681.622	2039.78
681.813	2189.28
682.003	2148.32
682.193	2174.94
682.383	2254.81
682.573	2228.19
682.764	2203.61
682.954	2203.61
683.144	2299.87
683.334	2142.18
683.524	2170.85
683.714	2142.18
683.904	2111.46
684.094	2240.48
684.284	2166.75
684.474	2179.04
684.664	2164.7
684.854	2220
685.044	2033.63
685.234	2164.7
685.424	2148.32
685.614	2062.3
685.804	2129.89
685.994	2131.94
686.184	2195.42
686.374	2156.51
686.564	2123.74
686.753	2217.95
686.943	2015.2
687.133	2064.35
687.323	2078.69
687.513	2050.02
687.702	2197.47
687.892	1984.48
688.082	2125.79
688.272	2113.5
688.461	2023.39
688.651	2074.59
688.841	1982.43
689.03	2080.74
689.22	2068.45
689.41	2078.69
689.599	2086.88
689.789	2019.3
689.979	1947.62
690.168	1918.95
690.358	2111.46
690.547	1996.77
690.737	1867.75
690.926	1972.19
691.116	1955.81
691.305	2004.96
691.495	1853.41
691.684	1857.51
691.874	1910.75
692.063	1916.9
692.252	1955.81
692.442	1947.62
692.631	1847.27
692.82	1847.27
693.01	1816.55
693.199	1910.75
693.388	1871.84
693.578	1955.81
693.767	1767.4
693.956	1824.74
694.146	1812.45
694.335	1718.25
694.524	1785.83
694.713	1865.7
694.902	1849.32
695.092	1753.06
695.281	1736.68
695.47	1791.97
695.659	1705.96
695.848	1779.68
696.037	1757.16
696.226	1728.49
696.415	1767.4
696.604	1751.01
696.793	1787.88
696.982	1738.73
697.171	1740.77
697.36	1701.86
697.549	1697.77
697.738	1689.57
697.927	1712.1
698.116	1697.77
698.305	1726.44
698.494	1726.44
698.683	1773.54
698.872	1787.88
699.061	1671.14
699.25	1804.26
699.438	1834.98
699.627	1705.96
699.816	1718.25
700.005	1624.04
700.193	1738.73
700.382	1777.64
700.571	1724.39
700.76	1759.21
700.948	1736.68
701.137	1779.68
701.326	1796.07
701.514	1820.64
701.703	1759.21
701.892	1720.29
702.08	1773.54
702.269	1699.81
702.457	1691.62
702.646	1714.15
702.834	1755.11
703.023	1728.49
703.212	1837.03
703.4	1896.42
703.589	1693.67
703.777	1806.31
703.965	1755.11
704.154	1861.6
704.342	1806.31
704.531	1773.54
704.719	1714.15
704.907	1976.29
705.096	1738.73
705.284	1888.23
705.472	1734.63
705.661	1804.26
705.849	1742.82
706.037	1714.15
706.226	1822.69
706.414	1744.87
706.602	1740.77
706.79	1787.88
706.979	1814.5
707.167	1738.73
707.355	1884.13
707.543	1847.27
707.731	1775.59
707.919	1777.64
708.107	1746.92
708.296	1767.4
708.484	1755.11
708.672	1859.56
708.86	1834.98
709.048	1945.57
709.236	1830.88
709.424	1781.73
709.612	1820.64
709.8	1791.97
709.988	1855.46
710.176	1884.13
710.364	1843.17
710.551	1783.78
710.739	1851.36
710.927	1861.6
711.115	1918.95
711.303	1869.8
711.491	1882.08
711.679	1875.94
711.866	1869.8
712.054	1939.43
712.242	1808.36
712.43	1890.28
712.617	1859.56
712.805	1929.19
712.993	1867.75
713.181	1900.51
713.368	1843.17
713.556	1986.53
713.744	1935.33
713.931	1957.86
714.119	1916.9
714.306	1923.04
714.494	1929.19
714.682	1906.66
714.869	1882.08
715.057	1994.72
715.244	1902.56
715.432	1912.8
715.619	1943.52
715.807	1898.47
715.994	1939.43
716.182	1986.53
716.369	1980.39
716.556	1937.38
716.744	1970.15
716.931	1843.17
717.119	1916.9
717.306	2060.26
717.493	1951.71
717.681	1980.39
717.868	1933.28
718.055	2007.01
718.242	2023.39
718.43	1947.62
718.617	1859.56
718.804	1920.99
718.991	1980.39
719.179	1841.12
719.366	1945.57
719.553	2004.96
719.74	1957.86
719.927	1849.32
720.114	1951.71
720.301	1884.13
720.488	1974.24
720.676	1943.52
720.863	1980.39
721.05	2043.87
721.237	1974.24
721.424	2050.02
721.611	2015.2
721.798	1910.75
721.985	2045.92
722.172	1927.14
722.358	1976.29
722.545	1957.86
722.732	2035.68
722.919	2054.11
723.106	2064.35
723.293	2060.26
723.48	2052.06
723.667	1953.76
723.853	1986.53
724.04	1964
724.227	2117.6
724.414	2045.92
724.6	2004.96
724.787	2070.5
724.974	2142.18
725.161	2043.87
725.347	2017.25
725.534	2090.98
725.72	1996.77
725.907	2148.32
726.094	2084.83
726.28	2058.21
726.467	2047.97
726.653	2002.91
726.84	2158.56
727.027	2154.46
727.213	2105.31
727.4	2068.45
727.586	2039.78
727.773	2160.61
727.959	2140.13
728.145	2113.5
728.332	2107.36
728.518	2111.46
728.705	2066.4
728.891	2172.89
729.077	2146.27
729.264	2045.92
729.45	2138.08
729.636	2187.23
729.823	2121.7
730.009	2105.31
730.195	2176.99
730.382	2160.61
730.568	2174.94
730.754	2215.9
730.94	2185.18
731.126	2185.18
731.313	2211.81
731.499	2111.46
731.685	2181.09
731.871	2142.18
732.057	2240.48
732.243	2260.96
732.429	2185.18
732.615	2176.99
732.801	2148.32
732.987	2156.51
733.173	2271.2
733.359	2168.8
733.545	2170.85
733.731	2095.07
733.917	2107.36
734.103	2119.65
734.289	2068.45
734.475	2254.81
734.661	2207.71
734.847	2154.46
735.033	2103.26
735.219	2228.19
735.404	2260.96
735.59	2250.72
735.776	2140.13
735.962	2125.79
736.148	2254.81
736.333	2205.66
736.519	2107.36
736.705	2197.47
736.89	2146.27
737.076	2154.46
737.262	2025.44
737.447	2164.7
737.633	2054.11
737.819	2136.03
738.004	2148.32
738.19	2164.7
738.375	2203.61
738.561	2226.14
738.747	2142.18
738.932	2111.46
739.118	2154.46
739.303	2109.41
739.489	2111.46
739.674	2138.08
739.859	2187.23
740.045	2183.13
740.23	2203.61
740.416	2105.31
740.601	2193.37
740.786	2209.76
740.972	2115.55
741.157	2021.35
741.342	2025.44
741.528	2082.78
741.713	2080.74
741.898	2109.41
742.084	2090.98
742.269	2129.89
742.454	2041.82
742.639	2160.61
742.824	2107.36
743.01	2031.58
743.195	2052.06
743.38	2041.82
743.565	1988.58
743.75	2197.47
743.935	2054.11
744.12	2150.37
744.305	1898.47
744.49	2021.35
744.675	2029.54
744.86	1925.09
745.045	1873.89
745.23	2052.06
745.415	1988.58
745.6	1982.43
745.785	1941.47
745.97	1968.1
746.155	1961.95
746.34	1869.8
746.525	2027.49
746.71	2002.91
746.895	1865.7
747.079	2109.41
747.264	1961.95
747.449	1980.39
747.634	1814.5
747.819	1951.71
748.003	1824.74
748.188	1742.82
748.373	1865.7
748.557	1800.16
748.742	1914.85
748.927	1765.35
749.111	1839.08
749.296	1675.24
749.481	1773.54
749.665	1880.04
749.85	1722.34
750.034	1783.78
750.219	1789.92
750.404	1720.29
750.588	1771.49
750.773	1755.11
750.957	1607.66
751.141	1753.06
751.326	1667.05
751.51	1685.48
751.695	1619.94
751.879	1681.38
752.064	1736.68
752.248	1658.85
752.432	1642.47
752.617	1570.79
752.801	1540.07
752.985	1503.21
753.17	1705.96
753.354	1527.78
753.538	1507.31
753.722	1544.17
753.907	1499.11
754.091	1458.15
754.275	1519.59
754.459	1443.82
754.643	1513.45
754.828	1419.24
755.012	1482.73
755.196	1472.49
755.38	1400.81
755.564	1429.48
755.748	1433.58
755.932	1402.86
756.116	1439.72
756.3	1396.71
756.484	1394.67
756.668	1265.64
756.852	1400.81
757.036	1316.84
757.22	1279.98
757.404	1406.95
757.588	1325.04
757.772	1255.4
757.956	1359.85
758.14	1357.8
758.323	1320.94
758.507	1302.51
758.691	1212.4
758.875	1345.52
759.059	1173.49
759.242	1288.17
759.426	1234.93
759.61	1226.73
759.794	1259.5
759.977	1241.07
760.161	1275.88
760.345	1286.12
760.528	1097.71
760.712	1202.16
760.895	1087.47
761.079	1150.96
761.263	1144.81
761.446	1171.44
761.63	1132.53
761.813	1183.73
761.997	1218.54
762.18	1122.29
762.364	1167.34
762.547	1081.33
762.731	1087.47
762.914	1064.94
763.098	1036.27
763.281	1196.01
763.464	1066.99
763.648	1071.09
763.831	1112.05
764.015	1148.91
764.198	1064.94
764.381	1079.28
764.564	1091.57
764.748	1042.42
764.931	1044.46
765.114	946.16
765.297	1091.57
765.481	1021.94
765.664	1048.56
765.847	1032.18
766.03	980.98
766.213	921.59
766.397	954.35
766.58	985.07
766.763	991.22
766.946	991.22
767.129	1011.7
767.312	1040.37
767.495	970.74
767.678	944.11
767.861	1001.46
768.044	915.44
768.227	954.35
768.41	911.35
768.593	962.55
768.776	894.96
768.959	884.72
769.142	1005.55
769.324	989.17
769.507	849.91
769.69	950.26
769.873	876.53
770.056	876.53
770.239	907.25
770.421	921.59
770.604	878.58
770.787	997.36
770.97	913.39
771.152	892.91
771.335	860.15
771.518	849.91
771.7	886.77
771.883	868.34
772.066	821.24
772.248	878.58
772.431	950.26
772.613	864.24
772.796	847.86
772.978	886.77
773.161	815.09
773.343	843.76
773.526	835.57
773.708	794.61
773.891	854
774.073	790.52
774.256	790.52
774.438	821.24
774.621	792.56
774.803	811
774.985	724.98
775.168	786.42
775.35	817.14
775.532	782.32
775.715	757.75
775.897	692.21
776.079	741.36
776.261	716.79
776.444	722.93
776.626	686.07
776.808	770.04
776.99	690.17
777.173	634.87
777.355	722.93
777.537	739.32
777.719	669.69
777.901	630.77
778.083	686.07
778.265	608.25
778.447	679.93
778.629	563.19
778.811	665.59
778.993	622.58
779.175	659.45
779.357	641.01
779.539	546.81
779.721	626.68
779.903	727.03
780.085	675.83
780.267	598.01
780.449	612.34
780.631	604.15
780.812	681.97
780.994	593.91
781.176	524.28
781.358	559.1
781.54	595.96
781.721	565.24
781.903	532.47
782.085	595.96
782.267	585.72
782.448	497.66
782.63	546.81
782.812	468.98
782.993	571.38
783.175	462.84
783.357	481.27
783.538	559.1
783.72	528.38
783.901	442.36
784.083	511.99
784.264	423.93
784.446	423.93
784.627	503.8
784.809	479.22
784.99	550.9
785.172	479.22
785.353	516.09
785.535	450.55
785.716	497.66
785.897	489.46
786.079	471.03
786.26	389.11
786.441	393.21
786.623	385.02
786.804	495.61
786.985	487.42
787.167	452.6
787.348	368.63
787.529	415.74
787.71	466.94
787.891	460.79
788.073	468.98
788.254	401.4
788.435	468.98
788.616	407.55
788.797	399.35
788.978	389.11
789.159	360.44
789.34	382.97
789.522	360.44
789.703	370.68
789.884	344.06
790.065	329.72
790.246	409.59
790.427	372.73
790.607	296.96
790.788	409.59
790.969	327.67
791.15	329.72
791.331	327.67
791.512	307.2
791.693	339.96
791.874	315.39
792.054	362.49
792.235	374.78
792.416	290.81
792.597	325.63
792.778	317.44
792.958	376.83
793.139	317.44
793.32	264.19
793.5	243.71
793.681	331.77
793.862	358.39
794.042	253.95
794.223	247.8
794.404	319.48
794.584	206.84
794.765	342.01
794.945	311.29
795.126	319.48
795.306	382.97
795.487	346.11
795.667	319.48
795.848	348.15
796.028	256
796.209	221.18
796.389	227.32
796.57	288.76
796.75	313.34
796.93	299
797.111	264.19
797.291	202.75
797.471	346.11
797.652	286.72
797.832	251.9
798.012	223.23
798.192	294.91
798.373	217.08
798.553	210.94
798.733	258.04
798.913	147.45
799.093	321.53
799.274	208.89
799.454	241.66
799.634	284.67
799.814	317.44
799.994	223.23
800.174	260.09
800.354	276.48
800.534	219.13
800.714	198.65
800.894	286.72
801.074	333.82
801.254	247.8
801.434	217.08
801.614	278.52
801.794	247.8
801.974	645.11
802.154	256
802.334	200.7
802.514	225.28
802.693	223.23
802.873	186.37
803.053	282.62
803.233	174.08
803.413	219.13
803.592	188.41
803.772	114.69
803.952	217.08
804.131	184.32
804.311	200.7
804.491	241.66
804.67	163.84
804.85	223.23
805.03	159.74
805.209	251.9
805.389	169.98
805.568	188.41
805.748	202.75
805.928	174.08
806.107	270.33
806.287	196.61
806.466	196.61
806.646	241.66
806.825	159.74
807.004	292.86
807.184	231.42
807.363	200.7
807.543	165.89
807.722	233.47
807.901	190.46
808.081	221.18
808.26	206.84
808.439	206.84
808.619	161.79
808.798	215.04
808.977	174.08
809.156	163.84
809.336	141.31
809.515	245.76
809.694	153.6
809.873	206.84
810.052	180.22
810.231	235.52
810.411	227.32
810.59	178.17
810.769	217.08
810.948	194.56
811.127	135.17
811.306	65.53
811.485	184.32
811.664	124.93
811.843	196.61
812.022	182.27
812.201	151.55
812.38	110.59
812.559	79.87
812.737	153.6
812.916	147.45
813.095	40.96
813.274	194.56
813.453	129.02
813.632	122.88
813.811	176.13
813.989	159.74
814.168	149.5
814.347	126.97
814.526	135.17
814.704	122.88
814.883	143.36
815.062	174.08
815.24	129.02
815.419	126.97
815.598	137.21
815.776	73.73
815.955	178.17
816.133	176.13
816.312	217.08
816.49	100.35
816.669	161.79
816.847	159.74
817.026	108.54
817.204	112.64
817.383	137.21
817.561	137.21
817.74	100.35
817.918	180.22
818.097	102.4
818.275	182.27
818.453	145.41
818.632	155.65
818.81	169.98
818.988	106.49
819.167	77.82
819.345	98.3
819.523	112.64
819.701	106.49
819.879	186.37
820.058	133.12
820.236	167.93
820.414	116.73
820.592	145.41
820.77	133.12
820.948	98.3
821.127	63.49
821.305	67.58
821.483	88.06
821.661	129.02
821.839	92.16
822.017	221.18
822.195	120.83
822.373	104.45
822.551	116.73
822.729	43.01
822.907	135.17
823.085	88.06
823.262	75.77
823.44	129.02
823.618	53.25
823.796	137.21
823.974	90.11
824.152	106.49
824.329	96.25
824.507	104.45
824.685	108.54
824.863	59.39
825.04	139.26
825.218	114.69
825.396	73.73
825.574	51.2
825.751	43.01
825.929	63.49
826.107	122.88
826.284	26.62
826.462	143.36
826.639	12.29
826.817	102.4
826.994	69.63
827.172	86.01
827.349	77.82
827.527	67.58
827.704	67.58
827.882	126.97
828.059	75.77
828.237	112.64
828.414	28.67
828.591	53.25
828.769	145.41
828.946	77.82
829.124	184.32
829.301	61.44
829.478	55.3
829.655	96.25
829.833	55.3
830.01	57.34
830.187	51.2
830.364	104.45
830.542	108.54
830.719	145.41
830.896	59.39
831.073	131.07
831.25	55.3
831.427	73.73
831.604	176.13
831.782	6.14
831.959	86.01
832.136	104.45
832.313	112.64
832.49	24.58
832.667	147.45
832.844	110.59
833.021	165.89
833.198	14.34
833.374	38.91
833.551	104.45
833.728	61.44
833.905	24.58
834.082	53.25
834.259	36.86
834.436	141.31
834.612	49.15
834.789	98.3
834.966	90.11
835.143	53.25
835.319	10.24
835.496	71.68
835.673	106.49
835.85	86.01
836.026	55.3
836.203	104.45
836.38	47.1
836.556	126.97
836.733	120.83
836.909	61.44
837.086	-16.38
837.262	79.87
837.439	8.19
837.616	51.2
837.792	75.77
837.968	131.07
838.145	4.1
838.321	38.91
838.498	108.54
838.674	100.35
838.851	118.78
839.027	49.15
839.203	65.53
839.38	104.45
839.556	43.01
839.732	129.02
839.909	-24.58
840.085	38.91
840.261	10.24
840.437	116.73
840.614	51.2
840.79	45.06
840.966	34.82
841.142	10.24
841.318	36.86
841.494	0
841.671	69.63
841.847	16.38
842.023	32.77
842.199	94.21
842.375	73.73
842.551	116.73
842.727	-14.34
842.903	69.63
843.079	-2.05
843.255	18.43
843.431	61.44
843.607	57.34
843.783	-12.29
843.959	12.29
844.134	49.15
844.31	116.73
844.486	30.72
844.662	59.39
844.838	6.14
845.013	45.06
845.189	-20.48
845.365	108.54
845.541	65.53
845.716	77.82
845.892	90.11
846.068	79.87
846.244	45.06
846.419	45.06
846.595	-20.48
846.77	67.58
846.946	28.67
847.122	55.3
847.297	0
847.473	45.06
847.648	-6.14
847.824	49.15
847.999	6.14
848.175	-28.67
848.35	40.96
848.526	104.45
848.701	32.77
848.876	55.3
849.052	88.06
849.227	51.2
849.403	40.96
849.578	65.53
849.753	10.24
849.929	47.1
850.104	10.24
850.279	79.87
850.454	88.06
850.63	-28.67
850.805	55.3
850.98	-2.05
851.155	26.62
851.33	100.35
851.505	0
851.681	43.01
851.856	47.1
852.031	63.49
852.206	16.38
852.381	28.67
852.556	73.73
852.731	-20.48
852.906	96.25
853.081	12.29
853.256	100.35
853.431	-26.62
853.606	100.35
853.781	75.77
853.956	18.43
854.131	63.49
854.305	22.53
854.48	8.19
854.655	53.25
854.83	22.53
855.005	4.1
855.18	38.91
855.354	81.92
855.529	2.05
855.704	-10.24
855.879	30.72
856.053	-6.14
856.228	75.77
856.403	30.72
856.577	-4.1
856.752	126.97
856.926	-6.14
857.101	4.1
857.276	-2.05
857.45	38.91
857.625	57.34
857.799	94.21
857.974	47.1
858.148	22.53
858.323	51.2
858.497	14.34
858.672	10.24
858.846	-26.62
859.02	12.29
859.195	43.01
859.369	55.3
859.543	-16.38
859.718	59.39
859.892	26.62
860.066	20.48
860.241	-26.62
860.415	-28.67
860.589	6.14
860.763	-59.39
860.938	75.77
861.112	40.96
861.286	38.91
861.46	20.48
861.634	-14.34
861.808	43.01
861.982	26.62
862.157	30.72
862.331	67.58
862.505	-10.24
862.679	6.14
862.853	0
863.027	-2.05
863.201	-4.1
863.375	-4.1
863.549	-6.14
863.722	24.58
863.896	75.77
864.07	-26.62
864.244	32.77
864.418	59.39
864.592	65.53
864.766	-40.96
864.939	24.58
865.113	-63.49
865.287	24.58
865.461	-73.73
865.634	12.29
865.808	59.39
865.982	47.1
866.156	12.29
866.329	40.96
866.503	2.05
866.676	14.34
866.85	67.58
867.024	-6.14
867.197	-10.24
867.371	-4.1
867.544	38.91
867.718	-12.29
867.891	2.05
868.065	22.53
868.238	47.1
868.412	38.91
868.585	-40.96
868.759	34.82
868.932	-28.67
869.105	-38.91
869.279	69.63
869.452	49.15
869.625	65.53
869.799	-2.05
869.972	-49.15
870.145	-22.53
870.319	28.67
870.492	53.25
870.665	67.58
870.838	-14.34
871.011	32.77
871.185	24.58
871.358	-14.34
871.531	24.58
871.704	32.77
871.877	-49.15
872.05	51.2
872.223	-12.29
872.396	-81.92
872.569	59.39
872.742	32.77
872.915	34.82
873.088	20.48
873.261	-16.38
873.434	4.1
873.607	38.91
873.78	34.82
873.953	-20.48
874.126	-34.82
874.299	26.62
874.471	4.1
874.644	0
874.817	12.29
874.99	16.38
875.163	-6.14
875.335	83.97
875.508	0
875.681	26.62
875.853	-4.1
876.026	-10.24
876.199	38.91
876.371	4.1
876.544	4.1
876.717	40.96
876.889	-49.15
877.062	-10.24
877.234	-6.14
877.407	6.14
877.579	36.86
877.752	16.38
877.924	59.39
878.097	20.48
878.269	-24.58
878.442	22.53
878.614	-69.63
878.786	-30.72
878.959	-49.15
879.131	14.34
879.303	-51.2
879.476	34.82
879.648	2.05
879.82	-16.38
879.993	-24.58
880.165	-43.01
880.337	-49.15
880.509	-28.67
880.681	34.82
880.854	-2.05
881.026	-14.34
881.198	81.92
881.37	-20.48
881.542	49.15
881.714	-30.72
881.886	22.53
882.058	-20.48
882.23	47.1
882.402	4.1
882.574	22.53
882.746	43.01
882.918	-12.29
883.09	10.24
883.262	32.77
883.434	55.3
883.606	-59.39
883.778	55.3
883.95	36.86
884.122	43.01
884.293	22.53
884.465	-28.67
884.637	2.05
884.809	34.82
884.98	30.72
885.152	-6.14
885.324	-18.43
885.496	-34.82
885.667	14.34
885.839	-32.77
886.011	77.82
886.182	71.68
886.354	34.82
886.525	55.3
886.697	-2.05
886.869	24.58
887.04	-4.1
887.212	63.49
887.383	49.15
887.555	10.24
887.726	-4.1
887.897	12.29
888.069	18.43
888.24	-38.91
888.412	-12.29
888.583	57.34
888.754	88.06
888.926	-71.68
889.097	-36.86
889.268	20.48
889.44	2.05
889.611	20.48
889.782	18.43
889.953	-14.34
890.125	10.24
890.296	-32.77
890.467	2.05
890.638	8.19
890.809	-18.43
890.98	26.62
891.151	-32.77
891.323	34.82
891.494	-65.54
891.665	-38.91
891.836	-12.29
892.007	-71.68
892.178	-2.05
892.349	4.1
892.52	34.82
892.691	14.34
892.862	-4.1
893.032	-32.77
893.203	40.96
893.374	43.01
893.545	28.67
893.716	-79.87
893.887	-40.96
894.057	-110.59
894.228	-26.62
894.399	-75.77
894.57	57.34
894.74	0
894.911	12.29
895.082	-30.72
895.253	20.48
895.423	6.14
895.594	20.48
895.764	51.2
895.935	30.72
896.106	32.77
896.276	-40.96
896.447	75.77
896.617	43.01
896.788	2.05
896.958	-20.48
897.129	32.77
897.299	18.43
897.47	4.1
897.64	14.34
897.81	-24.58
897.981	-14.34
898.151	-16.38
898.322	73.73
898.492	108.54
898.662	-61.44
898.832	18.43
899.003	-2.05
899.173	-36.86
899.343	-18.43
899.513	30.72
