Data from USB4F104151__48__11-45-08-710.txt Node

Date: Fri Mar 14 11:45:08 EDT 2025
User: louis
Spectrometer: USB4F10415
Trigger mode: 4
Integration Time (sec): 2.000000E-2
Scans to average: 1
Electric dark correction enabled: true
Nonlinearity correction enabled: false
Boxcar width: 0
XAxis mode: Wavelengths
Number of Pixels in Spectrum: 3648
>>>>>Begin Spectral Data<<<<<
178.204	-62.63
178.424	-62.63
178.644	-62.63
178.864	-68.78
179.084	-52.39
179.304	60.24
179.524	-58.54
179.744	-1.19
179.964	-5.29
180.184	7
180.404	4.95
180.624	9.05
180.844	37.72
181.064	7
181.283	-50.35
181.503	-33.96
181.723	23.38
181.943	-58.54
182.163	-11.43
182.383	29.52
182.602	68.44
182.822	52.05
183.042	11.09
183.262	17.24
183.482	17.24
183.701	-27.82
183.921	19.29
184.141	-31.91
184.361	80.72
184.58	-46.25
184.8	37.72
185.02	-1.19
185.239	76.63
185.459	11.09
185.679	-15.53
185.898	23.38
186.118	21.33
186.338	39.76
186.557	-5.29
186.777	13.14
186.997	-9.39
187.216	9.05
187.436	62.29
187.655	17.24
187.875	13.14
188.095	17.24
188.314	21.33
188.534	88.92
188.753	-31.91
188.973	25.43
189.192	-17.58
189.412	47.96
189.631	68.44
189.851	43.86
190.07	70.48
190.29	23.38
190.509	19.29
190.729	37.72
190.948	82.77
191.168	74.58
191.387	-3.24
191.607	2.9
191.826	15.19
192.045	4.95
192.265	39.76
192.484	-5.29
192.704	13.14
192.923	-21.67
193.142	72.53
193.362	-1.19
193.581	13.14
193.8	31.57
194.02	68.44
194.239	-40.11
194.458	2.9
194.678	-5.29
194.897	11.09
195.116	25.43
195.335	62.29
195.555	-25.77
195.774	37.72
195.993	15.19
196.212	41.81
196.432	-44.2
196.651	29.52
196.87	58.2
197.089	123.73
197.308	-3.24
197.528	-23.72
197.747	25.43
197.966	25.43
198.185	-3.24
198.404	7
198.623	-15.53
198.842	15.19
199.062	56.15
199.281	45.91
199.5	-21.67
199.719	39.76
199.938	21.33
200.157	23.38
200.376	-11.43
200.595	50
200.814	-5.29
201.033	-40.11
201.252	62.29
201.471	-1.19
201.69	-7.34
201.909	15.19
202.128	64.34
202.347	29.52
202.566	41.81
202.785	-38.06
203.004	-33.96
203.223	11.09
203.442	-11.43
203.661	62.29
203.879	-3.24
204.098	-9.39
204.317	43.86
204.536	19.29
204.755	-3.24
204.974	84.82
205.193	17.24
205.411	72.53
205.63	-3.24
205.849	68.44
206.068	45.91
206.287	-5.29
206.505	13.14
206.724	7
206.943	-36.01
207.162	76.63
207.381	2.9
207.599	4.95
207.818	-29.87
208.037	17.24
208.255	33.62
208.474	103.25
208.693	37.72
208.911	52.05
209.13	31.57
209.349	74.58
209.567	39.76
209.786	0.85
210.005	29.52
210.223	-15.53
210.442	15.19
210.661	-50.35
210.879	-48.3
211.098	-7.34
211.316	33.62
211.535	13.14
211.753	-38.06
211.972	23.38
212.191	-38.06
212.409	56.15
212.628	35.67
212.846	82.77
213.065	-17.58
213.283	58.2
213.502	29.52
213.72	58.2
213.938	31.57
214.157	58.2
214.375	41.81
214.594	-46.25
214.812	-17.58
215.031	33.62
215.249	-25.77
215.467	9.05
215.686	84.82
215.904	-25.77
216.122	33.62
216.341	-29.87
216.559	-44.2
216.778	15.19
216.996	13.14
217.214	43.86
217.432	56.15
217.651	-21.67
217.869	21.33
218.087	-11.43
218.306	39.76
218.524	60.24
218.742	52.05
218.96	25.43
219.179	-23.72
219.397	-42.15
219.615	90.96
219.833	41.81
220.051	21.33
220.27	47.96
220.488	-13.48
220.706	13.14
220.924	-72.87
221.142	-3.24
221.36	15.19
221.578	13.14
221.796	56.15
222.015	0.85
222.233	-48.3
222.451	-33.96
222.669	27.48
222.887	-42.15
223.105	-11.43
223.323	-58.54
223.541	25.43
223.759	-36.01
223.977	17.24
224.195	54.1
224.413	-19.63
224.631	-11.43
224.849	-13.48
225.067	62.29
225.285	-33.96
225.503	-1.19
225.721	17.24
225.939	66.39
226.157	25.43
226.375	82.77
226.592	-1.19
226.81	11.09
227.028	74.58
227.246	56.15
227.464	25.43
227.682	39.76
227.9	78.68
228.117	93.01
228.335	23.38
228.553	2.9
228.771	29.52
228.989	35.67
229.206	31.57
229.424	17.24
229.642	-36.01
229.86	21.33
230.077	29.52
230.295	45.91
230.513	43.86
230.731	17.24
230.948	35.67
231.166	82.77
231.384	15.19
231.601	27.48
231.819	76.63
232.037	0.85
232.254	2.9
232.472	-23.72
232.689	-48.3
232.907	7
233.125	4.95
233.342	25.43
233.56	13.14
233.777	-31.91
233.995	103.25
234.213	54.1
234.43	2.9
234.648	74.58
234.865	-7.34
235.083	13.14
235.3	4.95
235.518	-5.29
235.735	21.33
235.953	43.86
236.17	-15.53
236.388	17.24
236.605	56.15
236.822	45.91
237.04	-1.19
237.257	-36.01
237.475	54.1
237.692	74.58
237.909	-42.15
238.127	2.9
238.344	-19.63
238.562	0.85
238.779	19.29
238.996	-48.3
239.214	15.19
239.431	-7.34
239.648	-21.67
239.865	25.43
240.083	23.38
240.3	2.9
240.517	29.52
240.735	-1.19
240.952	-36.01
241.169	-13.48
241.386	43.86
241.603	19.29
241.821	64.34
242.038	37.72
242.255	-3.24
242.472	-68.78
242.689	-3.24
242.907	-7.34
243.124	-15.53
243.341	33.62
243.558	-9.39
243.775	33.62
243.992	19.29
244.209	80.72
244.426	93.01
244.643	0.85
244.86	13.14
245.078	13.14
245.295	54.1
245.512	17.24
245.729	31.57
245.946	-5.29
246.163	62.29
246.38	-56.49
246.597	25.43
246.814	-1.19
247.031	17.24
247.248	-5.29
247.464	-3.24
247.681	21.33
247.898	-27.82
248.115	-9.39
248.332	-107.69
248.549	33.62
248.766	60.24
248.983	62.29
249.2	27.48
249.417	76.63
249.633	-56.49
249.85	80.72
250.067	31.57
250.284	66.39
250.501	50
250.717	-3.24
250.934	27.48
251.151	11.09
251.368	43.86
251.585	0.85
251.801	0.85
252.018	4.95
252.235	29.52
252.451	29.52
252.668	-60.59
252.885	93.01
253.102	54.1
253.318	35.67
253.535	19.29
253.752	86.87
253.968	47.96
254.185	-5.29
254.401	111.44
254.618	37.72
254.835	-5.29
255.051	82.77
255.268	-13.48
255.484	33.62
255.701	62.29
255.917	105.3
256.134	-31.91
256.351	31.57
256.567	-19.63
256.784	2.9
257	15.19
257.217	-25.77
257.433	-19.63
257.65	7
257.866	56.15
258.082	58.2
258.299	27.48
258.515	45.91
258.732	-87.21
258.948	54.1
259.165	21.33
259.381	-38.06
259.597	0.85
259.814	-17.58
260.03	-15.53
260.246	29.52
260.463	29.52
260.679	101.2
260.895	-9.39
261.112	33.62
261.328	-31.91
261.544	23.38
261.761	31.57
261.977	-9.39
262.193	72.53
262.409	56.15
262.626	60.24
262.842	13.14
263.058	-3.24
263.274	66.39
263.49	-50.35
263.707	13.14
263.923	25.43
264.139	-9.39
264.355	35.67
264.571	52.05
264.787	15.19
265.004	35.67
265.22	82.77
265.436	4.95
265.652	-19.63
265.868	33.62
266.084	21.33
266.3	-25.77
266.516	-5.29
266.732	70.48
266.948	90.96
267.164	93.01
267.38	2.9
267.596	54.1
267.812	43.86
268.028	-52.39
268.244	21.33
268.46	-19.63
268.676	-9.39
268.892	-3.24
269.108	23.38
269.324	19.29
269.54	-68.78
269.756	-21.67
269.972	11.09
270.188	33.62
270.403	-33.96
270.619	41.81
270.835	47.96
271.051	7
271.267	-33.96
271.483	82.77
271.698	25.43
271.914	82.77
272.13	-1.19
272.346	-25.77
272.562	41.81
272.777	21.33
272.993	-48.3
273.209	11.09
273.425	23.38
273.64	-15.53
273.856	107.35
274.072	4.95
274.287	35.67
274.503	62.29
274.719	35.67
274.934	39.76
275.15	11.09
275.366	39.76
275.581	68.44
275.797	66.39
276.012	35.67
276.228	7
276.444	-3.24
276.659	113.49
276.875	4.95
277.09	90.96
277.306	-13.48
277.521	4.95
277.737	-15.53
277.952	-5.29
278.168	0.85
278.383	27.48
278.599	41.81
278.814	-1.19
279.03	-19.63
279.245	35.67
279.461	25.43
279.676	-9.39
279.892	-15.53
280.107	-29.87
280.322	33.62
280.538	2.9
280.753	-11.43
280.969	4.95
281.184	50
281.399	31.57
281.615	-13.48
281.83	54.1
282.045	-36.01
282.26	47.96
282.476	-23.72
282.691	123.73
282.906	-42.15
283.122	-15.53
283.337	27.48
283.552	27.48
283.767	-5.29
283.983	62.29
284.198	27.48
284.413	45.91
284.628	25.43
284.843	127.83
285.058	-62.63
285.274	19.29
285.489	60.24
285.704	-44.2
285.919	-19.63
286.134	74.58
286.349	64.34
286.564	13.14
286.779	17.24
286.995	105.3
287.21	37.72
287.425	37.72
287.64	-7.34
287.855	76.63
288.07	64.34
288.285	74.58
288.5	4.95
288.715	4.95
288.93	35.67
289.145	2.9
289.36	21.33
289.575	-7.34
289.79	-42.15
290.004	-5.29
290.219	9.05
290.434	52.05
290.649	43.86
290.864	4.95
291.079	-11.43
291.294	-40.11
291.509	-3.24
291.724	41.81
291.938	78.68
292.153	43.86
292.368	23.38
292.583	35.67
292.798	41.81
293.012	7
293.227	-36.01
293.442	-3.24
293.657	-31.91
293.871	93.01
294.086	2.9
294.301	-11.43
294.516	45.91
294.73	-58.54
294.945	-31.91
295.16	62.29
295.374	13.14
295.589	-74.92
295.804	37.72
296.018	31.57
296.233	-15.53
296.447	52.05
296.662	2.9
296.877	13.14
297.091	-27.82
297.306	-5.29
297.52	45.91
297.735	0.85
297.949	33.62
298.164	-7.34
298.378	50
298.593	23.38
298.807	31.57
299.022	7
299.236	29.52
299.451	47.96
299.665	99.16
299.88	33.62
300.094	4.95
300.309	-25.77
300.523	0.85
300.737	13.14
300.952	31.57
301.166	70.48
301.381	-19.63
301.595	37.72
301.809	11.09
302.024	13.14
302.238	-23.72
302.452	119.64
302.667	-3.24
302.881	37.72
303.095	54.1
303.309	35.67
303.524	-31.91
303.738	7
303.952	58.2
304.166	7
304.381	-9.39
304.595	-27.82
304.809	19.29
305.023	-21.67
305.237	-62.63
305.452	80.72
305.666	-5.29
305.88	66.39
306.094	2.9
306.308	21.33
306.522	56.15
306.736	29.52
306.95	-19.63
307.164	33.62
307.379	80.72
307.593	86.87
307.807	74.58
308.021	29.52
308.235	17.24
308.449	52.05
308.663	27.48
308.877	45.91
309.091	9.05
309.305	-29.87
309.519	7
309.733	43.86
309.947	-13.48
310.161	31.57
310.374	45.91
310.588	74.58
310.802	19.29
311.016	31.57
311.23	7
311.444	9.05
311.658	11.09
311.872	-11.43
312.085	58.2
312.299	7
312.513	62.29
312.727	27.48
312.941	-58.54
313.154	17.24
313.368	7
313.582	-21.67
313.796	-1.19
314.009	11.09
314.223	54.1
314.437	-56.49
314.651	-5.29
314.864	86.87
315.078	-3.24
315.292	-7.34
315.505	-42.15
315.719	-38.06
315.933	19.29
316.146	37.72
316.36	23.38
316.573	29.52
316.787	0.85
317.001	60.24
317.214	-5.29
317.428	109.4
317.641	0.85
317.855	23.38
318.068	50
318.282	-38.06
318.495	68.44
318.709	105.3
318.922	58.2
319.136	70.48
319.349	27.48
319.563	58.2
319.776	47.96
319.99	66.39
320.203	56.15
320.417	-64.68
320.63	41.81
320.843	47.96
321.057	15.19
321.27	9.05
321.483	25.43
321.697	56.15
321.91	93.01
322.124	19.29
322.337	-15.53
322.55	7
322.763	-19.63
322.977	88.92
323.19	25.43
323.403	-3.24
323.617	25.43
323.83	21.33
324.043	17.24
324.256	78.68
324.469	11.09
324.683	115.54
324.896	13.14
325.109	-5.29
325.322	11.09
325.535	25.43
325.748	33.62
325.962	2.9
326.175	80.72
326.388	74.58
326.601	50
326.814	52.05
327.027	-3.24
327.24	125.78
327.453	-38.06
327.666	15.19
327.879	-25.77
328.092	29.52
328.305	-40.11
328.518	101.2
328.731	15.19
328.944	72.53
329.157	31.57
329.37	-23.72
329.583	0.85
329.796	31.57
330.009	21.33
330.222	68.44
330.435	9.05
330.648	-9.39
330.861	31.57
331.073	0.85
331.286	-19.63
331.499	88.92
331.712	-36.01
331.925	60.24
332.138	0.85
332.35	-29.87
332.563	-13.48
332.776	33.62
332.989	27.48
333.202	23.38
333.414	50
333.627	-5.29
333.84	-36.01
334.053	64.34
334.265	27.48
334.478	2.9
334.691	4.95
334.903	13.14
335.116	-1.19
335.329	72.53
335.541	37.72
335.754	93.01
335.966	-15.53
336.179	-76.97
336.392	41.81
336.604	25.43
336.817	9.05
337.029	-40.11
337.242	37.72
337.454	27.48
337.667	19.29
337.88	-9.39
338.092	35.67
338.305	45.91
338.517	-5.29
338.729	13.14
338.942	2.9
339.154	17.24
339.367	-27.82
339.579	70.48
339.792	15.19
340.004	31.57
340.217	31.57
340.429	37.72
340.641	17.24
340.854	78.68
341.066	25.43
341.278	78.68
341.491	93.01
341.703	7
341.915	-9.39
342.128	82.77
342.34	-19.63
342.552	-9.39
342.764	0.85
342.977	-60.59
343.189	47.96
343.401	58.2
343.613	11.09
343.826	76.63
344.038	37.72
344.25	43.86
344.462	4.95
344.674	25.43
344.886	41.81
345.099	0.85
345.311	13.14
345.523	45.91
345.735	-11.43
345.947	52.05
346.159	66.39
346.371	29.52
346.583	62.29
346.795	56.15
347.007	-15.53
347.219	-3.24
347.431	45.91
347.643	80.72
347.855	39.76
348.067	21.33
348.279	54.1
348.491	45.91
348.703	52.05
348.915	19.29
349.127	-15.53
349.339	-15.53
349.551	23.38
349.763	9.05
349.975	-1.19
350.187	-9.39
350.399	37.72
350.61	25.43
350.822	-17.58
351.034	76.63
351.246	62.29
351.458	39.76
351.669	45.91
351.881	47.96
352.093	4.95
352.305	-1.19
352.517	35.67
352.728	29.52
352.94	43.86
353.152	70.48
353.363	0.85
353.575	25.43
353.787	9.05
353.999	23.38
354.21	60.24
354.422	109.4
354.633	60.24
354.845	4.95
355.057	72.53
355.268	15.19
355.48	4.95
355.692	64.34
355.903	13.14
356.115	35.67
356.326	-19.63
356.538	-11.43
356.749	29.52
356.961	80.72
357.172	-9.39
357.384	21.33
357.595	43.86
357.807	-36.01
358.018	-3.24
358.23	2.9
358.441	35.67
358.653	86.87
358.864	62.29
359.075	17.24
359.287	15.19
359.498	7
359.709	31.57
359.921	80.72
360.132	45.91
360.344	-23.72
360.555	9.05
360.766	-17.58
360.977	45.91
361.189	4.95
361.4	11.09
361.611	72.53
361.823	72.53
362.034	7
362.245	39.76
362.456	27.48
362.667	-3.24
362.879	-68.78
363.09	-11.43
363.301	74.58
363.512	2.9
363.723	-17.58
363.935	-7.34
364.146	9.05
364.357	54.1
364.568	-23.72
364.779	0.85
364.99	52.05
365.201	27.48
365.412	23.38
365.623	101.2
365.834	-25.77
366.045	-36.01
366.256	58.2
366.467	23.38
366.678	11.09
366.889	33.62
367.1	64.34
367.311	70.48
367.522	76.63
367.733	31.57
367.944	84.82
368.155	33.62
368.366	93.01
368.577	0.85
368.788	76.63
368.999	-23.72
369.209	0.85
369.42	17.24
369.631	76.63
369.842	13.14
370.053	27.48
370.264	54.1
370.474	43.86
370.685	23.38
370.896	56.15
371.107	68.44
371.317	43.86
371.528	74.58
371.739	-52.39
371.95	31.57
372.16	15.19
372.371	-40.11
372.582	97.11
372.792	31.57
373.003	52.05
373.214	39.76
373.424	13.14
373.635	-7.34
373.846	56.15
374.056	70.48
374.267	13.14
374.477	23.38
374.688	27.48
374.898	21.33
375.109	78.68
375.319	4.95
375.53	-3.24
375.74	-40.11
375.951	37.72
376.161	41.81
376.372	60.24
376.582	54.1
376.793	117.59
377.003	-25.77
377.214	-83.11
377.424	13.14
377.635	9.05
377.845	37.72
378.055	29.52
378.266	7
378.476	-9.39
378.686	47.96
378.897	35.67
379.107	-17.58
379.317	45.91
379.528	-27.82
379.738	25.43
379.948	11.09
380.158	43.86
380.369	-1.19
380.579	58.2
380.789	39.76
380.999	17.24
381.21	41.81
381.42	80.72
381.63	-19.63
381.84	82.77
382.05	58.2
382.261	52.05
382.471	43.86
382.681	2.9
382.891	33.62
383.101	19.29
383.311	88.92
383.521	-31.91
383.731	50
383.941	78.68
384.151	-38.06
384.361	23.38
384.571	107.35
384.781	-15.53
384.991	21.33
385.201	111.44
385.411	66.39
385.621	43.86
385.831	76.63
386.041	52.05
386.251	105.3
386.461	129.88
386.671	35.67
386.881	43.86
387.091	66.39
387.301	82.77
387.511	9.05
387.72	80.72
387.93	25.43
388.14	86.87
388.35	54.1
388.56	103.25
388.769	66.39
388.979	45.91
389.189	45.91
389.399	76.63
389.609	66.39
389.818	107.35
390.028	43.86
390.238	70.48
390.447	19.29
390.657	45.91
390.867	37.72
391.076	74.58
391.286	103.25
391.496	56.15
391.705	99.16
391.915	123.73
392.125	-31.91
392.334	29.52
392.544	82.77
392.753	70.48
392.963	80.72
393.172	15.19
393.382	25.43
393.591	78.68
393.801	17.24
394.01	136.02
394.22	13.14
394.429	52.05
394.639	4.95
394.848	95.06
395.058	13.14
395.267	25.43
395.477	25.43
395.686	86.87
395.895	56.15
396.105	113.49
396.314	23.38
396.524	39.76
396.733	72.53
396.942	111.44
397.152	95.06
397.361	37.72
397.57	60.24
397.78	93.01
397.989	41.81
398.198	82.77
398.407	60.24
398.617	144.21
398.826	37.72
399.035	84.82
399.244	127.83
399.453	82.77
399.663	90.96
399.872	45.91
400.081	31.57
400.29	43.86
400.499	54.1
400.708	76.63
400.917	66.39
401.127	29.52
401.336	39.76
401.545	88.92
401.754	95.06
401.963	117.59
402.172	19.29
402.381	60.24
402.59	146.26
402.799	90.96
403.008	86.87
403.217	90.96
403.426	142.16
403.635	50
403.844	117.59
404.053	99.16
404.262	101.2
404.471	86.87
404.68	84.82
404.888	78.68
405.097	78.68
405.306	105.3
405.515	103.25
405.724	82.77
405.933	88.92
406.142	99.16
406.35	158.55
406.559	162.64
406.768	88.92
406.977	95.06
407.185	125.78
407.394	156.5
407.603	35.67
407.812	172.88
408.02	170.83
408.229	103.25
408.438	148.31
408.646	138.07
408.855	138.07
409.064	197.46
409.272	138.07
409.481	219.99
409.69	230.23
409.898	228.18
410.107	154.45
410.315	201.55
410.524	160.59
410.733	289.62
410.941	189.27
411.15	232.27
411.358	170.83
411.567	213.84
411.775	279.38
411.984	291.66
412.192	289.62
412.401	369.49
412.609	283.47
412.818	269.14
413.026	285.52
413.234	326.48
413.443	336.72
413.651	299.86
413.86	310.1
414.068	394.06
414.276	394.06
414.485	334.67
414.693	389.97
414.901	498.51
415.11	465.74
415.318	426.83
415.526	443.21
415.734	428.88
415.943	508.75
416.151	594.76
416.359	611.15
416.567	533.33
416.776	553.8
416.984	637.77
417.192	650.06
417.4	672.59
417.608	590.67
417.817	674.64
418.025	631.63
418.233	752.46
418.441	719.69
418.649	824.14
418.857	826.18
419.065	799.56
419.273	799.56
419.481	801.61
419.689	963.4
419.897	998.21
420.105	1008.45
420.313	1000.26
420.521	973.64
420.729	1047.37
420.937	1219.39
421.145	1198.92
421.353	1215.3
421.561	1180.48
421.769	1284.93
421.977	1360.7
422.185	1354.56
422.393	1387.33
422.601	1536.83
422.809	1459.01
423.017	1528.64
423.224	1495.87
423.432	1598.27
423.64	1669.95
423.848	1776.44
424.056	1737.53
424.263	1823.55
424.471	1831.74
424.679	1936.18
424.887	2063.16
425.094	2022.2
425.302	2087.73
425.51	2091.83
425.718	2161.46
425.925	2227
426.133	2304.82
426.341	2366.26
426.548	2640.69
426.756	2577.2
426.964	2652.97
427.171	2820.91
427.379	2900.78
427.586	2872.11
427.794	2902.83
428.001	3042.09
428.209	3183.4
428.417	3257.12
428.624	3478.3
428.832	3390.24
429.039	3375.91
429.247	3468.06
429.454	3812.12
429.662	3842.84
429.869	3937.05
430.076	4035.35
430.284	3746.59
430.491	4061.98
430.699	4297.49
430.906	4315.92
431.114	4455.19
431.321	4485.9
431.528	4625.17
431.736	4825.87
431.943	5110.54
432.15	4934.41
432.358	5090.06
432.565	5255.94
432.772	5296.9
432.979	5405.44
433.187	5638.91
433.394	5792.51
433.601	6052.6
433.808	6138.62
434.016	6007.55
434.223	6198.01
434.43	6615.79
434.637	6763.25
434.844	6802.16
435.052	7140.07
435.259	6980.33
435.466	7066.35
435.673	7019.24
435.88	7430.88
436.087	7867.1
436.294	7883.49
436.501	7600.87
436.708	7623.39
436.915	8110.81
437.122	8415.96
437.329	8573.65
437.537	8760.02
437.743	8946.38
437.95	8983.24
438.157	9274.06
438.364	9585.35
438.571	9638.59
438.778	9679.55
438.985	10787.5
439.192	10044.09
439.399	10291.9
439.606	10156.73
439.813	10672.82
440.02	11412.14
440.227	11342.5
440.433	11154.09
440.64	11518.63
440.847	11328.17
441.054	11805.35
441.261	12264.09
441.467	12284.57
441.674	12483.22
441.881	12956.3
442.088	12890.77
442.294	13060.75
442.501	13005.45
442.708	13697.67
442.914	13881.99
443.121	14604.92
443.328	14178.94
443.534	15184.49
443.741	14637.69
443.948	14244.48
444.154	15649.38
444.361	15647.33
444.568	15475.31
444.774	15514.22
444.981	15749.73
445.187	16362.08
445.394	16861.78
445.6	17117.78
445.807	18416.19
446.013	17490.51
446.22	17990.21
446.426	18498.11
446.633	18807.35
446.839	19614.25
447.046	18481.72
447.252	19657.26
447.459	19864.1
447.665	19311.15
447.871	20394.53
448.078	21447.18
448.284	20128.29
448.491	21033.49
448.697	21889.54
448.903	21946.89
449.11	22166.02
449.316	21731.85
449.522	22075.91
449.728	22868.47
449.935	23052.79
450.141	23083.51
450.347	23370.22
450.553	22602.24
450.76	22764.03
450.966	23722.48
451.172	23443.95
451.378	24029.67
451.584	23724.52
451.791	24259.04
451.997	23992.81
452.203	24736.22
452.409	24476.13
452.615	24476.13
452.821	23503.34
453.027	23179.76
453.233	24375.78
453.44	23607.79
453.646	24148.45
453.852	24158.69
454.058	24500.7
454.264	23628.27
454.47	24306.15
454.676	23583.21
454.882	24580.57
455.088	22333.95
455.294	22733.31
455.5	22757.88
455.705	22831.61
455.911	22401.54
456.117	21791.24
456.323	21277.2
456.529	20341.28
456.735	21281.3
456.941	20568.6
457.147	20441.63
457.352	19927.59
457.558	19507.76
457.764	19616.3
457.97	19284.53
458.176	18958.9
458.381	18807.35
458.587	17910.34
458.793	17900.1
458.999	16831.06
459.204	18164.29
459.41	17560.14
459.616	16636.5
459.821	16556.63
460.027	16425.56
460.233	16282.2
460.438	15424.11
460.644	15135.34
460.85	14738.04
461.055	14574.2
461.261	14424.7
461.466	13517.45
461.672	12927.63
461.878	13978.24
462.083	13181.58
462.289	12876.43
462.494	12530.33
462.7	12198.56
462.905	11944.61
463.111	12196.51
463.316	12280.47
463.522	12016.29
463.727	11932.32
463.932	12081.82
464.138	11793.06
464.343	11946.66
464.549	11342.5
464.754	11854.5
464.959	11588.26
465.165	11721.38
465.37	11115.18
465.575	10924.72
465.781	11256.49
465.986	11492.01
466.191	10795.7
466.397	10721.97
466.602	10339
466.807	10699.44
467.012	10834.61
467.218	10431.16
467.423	10439.35
467.628	10613.43
467.833	10894
468.038	10527.41
468.244	10158.78
468.449	10736.31
468.654	10388.15
468.859	10005.18
469.064	10113.72
469.269	9777.86
469.474	9749.18
469.679	10031.8
469.885	9896.64
470.09	9937.6
470.295	9702.08
470.5	9657.03
470.705	9812.67
470.91	9517.76
471.115	9235.14
471.32	9429.7
471.525	9370.31
471.73	9362.12
471.935	9235.14
472.139	8819.41
472.344	8968.91
472.549	8798.93
472.754	8784.59
472.959	8682.19
473.164	8336.09
473.369	8327.89
473.574	8813.26
473.778	8530.64
473.983	8565.46
474.188	8401.62
474.393	8016.6
474.598	8010.46
474.802	8096.47
475.007	8032.99
475.212	8055.51
475.417	7852.77
475.621	7717.6
475.826	7736.03
476.031	7650.02
476.235	7582.43
476.44	7361.25
476.645	7314.15
476.849	7375.59
477.054	7351.01
477.259	7394.02
477.463	7189.22
477.668	6998.76
477.872	7095.02
478.077	6994.67
478.282	6910.7
478.486	6861.55
478.691	6769.39
478.895	6728.43
479.1	6720.24
479.304	6841.07
479.509	6542.07
479.713	6669.04
479.918	6468.34
480.122	6204.15
480.326	6556.4
480.531	6542.07
480.735	6363.89
480.94	6363.89
481.144	6482.67
481.348	6247.16
481.553	6204.15
481.757	6183.67
481.961	6298.36
482.166	6380.28
482.37	6320.88
482.574	6120.18
482.778	6054.65
482.983	6206.2
483.187	6214.39
483.391	6288.12
483.595	6036.22
483.8	6101.75
484.004	6195.96
484.208	6122.23
484.412	5980.92
484.616	6128.38
484.821	6099.7
485.025	6046.46
485.229	6259.45
485.433	6152.95
485.637	6310.65
485.841	6216.44
486.045	6181.62
486.249	6111.99
486.453	6118.14
486.657	6152.95
486.861	6062.84
487.065	6017.79
487.269	6138.62
487.473	5987.07
487.677	6138.62
487.881	6130.42
488.085	6011.64
488.289	6218.49
488.493	6222.58
488.697	6001.4
488.901	6312.69
489.105	6103.8
489.309	6195.96
489.512	6304.5
489.716	6300.41
489.92	6169.34
490.124	6257.4
490.328	6365.94
490.531	6331.12
490.735	6185.72
490.939	6427.38
491.143	6386.42
491.346	6390.52
491.55	6388.47
491.754	6607.6
491.958	6304.5
492.161	6480.63
492.365	6392.56
492.569	6376.18
492.772	6431.48
492.976	6433.52
493.18	6560.5
493.383	6728.43
493.587	6779.63
493.79	6830.83
493.994	6638.32
494.197	6763.25
494.401	6785.77
494.605	6832.88
494.808	6847.21
495.012	7000.81
495.215	7086.83
495.419	7144.17
495.622	6980.33
495.825	7009
496.029	7062.25
496.232	7351.01
496.436	7420.64
496.639	7334.63
496.843	7500.51
497.046	7537.38
497.249	7756.51
497.453	7865.05
497.656	7824.09
497.859	7824.09
498.063	7820
498.266	8018.65
498.469	7944.92
498.673	8157.91
498.876	8284.89
499.079	8323.8
499.282	8348.37
499.485	8389.33
499.689	8475.35
499.892	8692.43
500.095	8651.47
500.298	8710.86
500.501	8671.95
500.705	9030.35
500.908	9245.38
501.111	9327.3
501.314	9323.21
501.517	9415.37
501.72	9480.9
501.923	9382.6
502.126	9714.37
502.329	9847.49
502.532	9839.3
502.735	9972.41
502.938	10126.01
503.141	9925.31
503.344	10394.29
503.547	10406.58
503.75	10642.1
503.953	10656.43
504.156	10812.08
504.359	10891.95
504.562	11141.8
504.765	11193
504.968	11334.31
505.17	11383.46
505.373	11330.22
505.576	11764.39
505.779	11645.6
505.982	11936.42
506.185	12173.98
506.387	12114.59
506.59	12114.59
506.793	12251.8
506.996	12472.98
507.198	12780.18
507.401	12685.97
507.604	12739.22
507.807	13150.86
508.009	13025.93
508.212	13312.65
508.415	13394.57
508.617	13378.19
508.82	13722.24
509.022	13669
509.225	14176.89
509.428	14129.79
509.63	14199.42
509.833	14035.58
510.035	14658.17
510.238	14199.42
510.44	14652.02
510.643	15157.87
510.845	14934.64
511.048	15088.24
511.25	15340.14
511.453	15606.38
511.655	15604.33
511.858	15659.62
512.06	15962.72
512.262	15944.29
512.465	16044.64
512.667	16267.87
512.87	16523.87
513.072	16513.63
513.274	16749.14
513.477	17113.68
513.679	17259.09
513.881	17310.29
514.084	17570.38
514.286	17504.84
514.488	17754.69
514.69	18211.39
514.893	18094.66
515.095	18360.89
515.297	18496.06
515.499	18647.61
515.701	18768.44
515.904	19173.94
516.106	19210.8
516.308	19370.54
516.51	19507.76
516.712	19534.38
516.914	20109.86
517.116	20251.17
517.318	20148.77
517.52	20498.97
517.722	20546.08
517.925	20888.09
518.127	21269.01
518.329	21377.55
518.531	21240.34
518.733	21611.02
518.935	21815.82
519.136	21541.39
519.338	22278.66
519.54	22192.64
519.742	22665.72
519.944	22551.04
520.146	23005.69
520.348	23126.52
520.55	23185.91
520.752	23075.32
520.954	23941.61
521.155	23650.8
521.357	24076.77
521.559	24115.69
521.761	24621.53
521.963	24379.87
522.164	24719.84
522.366	24576.48
522.568	25262.55
522.77	25301.46
522.971	25756.11
523.173	25223.64
523.375	25586.13
523.576	25958.86
523.778	25856.46
523.98	26253.76
524.181	26583.49
524.383	26425.79
524.584	26933.69
524.786	26728.89
524.988	26767.8
525.189	27019.71
525.391	27115.96
525.592	27607.47
525.794	27451.83
525.995	27365.81
526.197	27707.82
526.398	27908.52
526.6	28111.27
526.801	28305.83
527.003	28369.32
527.204	28477.86
527.406	29032.86
527.607	28805.53
527.808	28946.84
528.01	28350.88
528.211	28529.06
528.412	29794.7
528.614	29043.1
528.815	29458.84
529.016	29569.43
529.218	29385.11
529.419	29729.17
529.62	29544.85
529.822	29614.48
530.023	29684.11
530.224	30118.28
530.425	29694.35
530.626	29905.29
530.828	29952.4
531.029	30400.9
531.23	29876.62
531.431	30181.77
531.632	30218.63
531.833	30339.46
532.035	30411.14
532.236	30366.09
532.437	30398.85
532.638	30269.83
532.839	30941.57
533.04	30710.14
533.241	30349.7
533.442	30941.57
533.643	30574.98
533.844	30595.46
534.045	30921.09
534.246	30374.28
534.447	31078.78
534.648	30402.95
534.849	31060.35
535.05	30673.28
535.251	30935.42
535.451	30658.95
535.652	30871.93
535.853	30759.3
536.054	30830.97
536.255	31086.97
536.456	30474.63
536.657	31322.49
536.857	30914.94
537.058	30613.89
537.259	31379.83
537.46	31199.61
537.66	31009.15
537.861	31342.97
538.062	30767.49
538.263	31166.84
538.463	30882.17
538.664	30960
538.865	30884.22
539.065	31455.61
539.266	30955.9
539.466	31281.53
539.667	30818.69
539.868	31166.84
540.068	31007.1
540.269	31101.31
540.469	31168.89
540.67	30996.86
540.87	31000.96
541.071	31197.56
541.271	31193.47
541.472	31183.23
541.672	31076.73
541.873	31117.69
542.073	30478.72
542.274	31046.01
542.474	30665.09
542.675	30730.62
542.875	30898.56
543.075	30914.94
543.276	30687.62
543.476	31076.73
543.676	30581.12
543.877	30708.1
544.077	31050.11
544.277	30888.32
544.478	30527.88
544.678	31193.47
544.878	31117.69
545.078	31306.1
545.279	30456.2
545.479	30738.82
545.679	31025.53
545.879	30628.23
546.079	30628.23
546.28	30867.84
546.48	30546.31
546.68	30878.08
546.88	31013.24
547.08	30298.5
547.28	30880.13
547.48	30345.61
547.68	30708.1
547.88	30390.66
548.081	30945.66
548.281	30636.42
548.481	30693.76
548.681	30724.48
548.881	30728.58
549.081	30810.5
549.28	30724.48
549.48	30605.7
549.68	30308.74
549.88	31052.16
550.08	30501.25
550.28	30775.68
550.48	30601.6
550.68	30671.23
550.88	30628.23
551.08	30634.37
551.279	30757.25
551.479	30603.65
551.679	30794.11
551.879	30228.87
552.079	31062.4
552.278	30493.06
552.478	30816.64
552.678	30804.35
552.878	30751.1
553.077	30884.22
553.277	30353.8
553.477	30611.84
553.676	30458.24
553.876	30980.48
554.076	30171.53
554.275	30241.16
554.475	30175.62
554.674	30622.08
554.874	30226.82
555.074	30157.19
555.273	30216.58
555.473	30495.11
555.672	30243.21
555.872	29763.98
556.071	30335.37
556.271	30390.66
556.47	29880.72
556.67	29712.78
556.869	30038.41
557.068	30042.51
557.268	29987.21
557.467	30095.75
557.667	30022.03
557.866	29786.51
558.065	29946.25
558.265	29712.78
558.464	29575.57
558.663	29895.05
558.863	29479.32
559.062	29880.72
559.261	29489.56
559.461	29784.46
559.66	29284.76
559.859	29686.16
560.058	29041.05
560.258	29434.26
560.457	28795.29
560.656	29438.36
560.855	29084.06
561.054	29219.22
561.253	28760.48
561.453	28721.57
561.652	29008.28
561.851	29034.91
562.05	29006.23
562.249	29125.02
562.448	28737.95
562.647	28780.96
562.846	28848.54
563.045	28518.82
563.244	28733.85
563.443	28449.19
563.642	28144.04
563.841	28469.67
564.04	28197.29
564.239	28391.84
564.438	28012.97
564.637	28236.2
564.836	28264.87
565.035	27781.55
565.234	27840.94
565.432	27650.48
565.631	27417.01
565.83	27849.13
566.029	27339.19
566.228	27462.07
566.427	27435.44
566.625	27185.59
566.824	26995.13
567.023	27224.5
567.222	26726.85
567.42	27320.76
567.619	27068.86
567.818	26831.29
568.016	26757.57
568.215	27267.51
568.414	27015.61
568.612	27312.56
568.811	26593.73
569.01	26835.39
569.208	26464.71
569.407	26771.9
569.605	26376.64
569.804	26524.1
570.002	26036.68
570.201	26337.73
570.4	25768.4
570.598	25670.09
570.797	25604.56
570.995	26012.1
571.193	25448.91
571.392	25686.48
571.59	25561.55
571.789	25582.03
571.987	25182.68
572.186	25231.83
572.384	25285.08
572.582	25285.08
572.781	25528.78
572.979	24799.71
573.177	25315.8
573.376	25328.08
573.574	24830.43
573.772	24945.11
573.971	24869.34
574.169	24451.55
574.367	24463.84
574.565	24773.08
574.763	24572.38
574.962	24314.34
575.16	24250.85
575.358	24590.81
575.556	24170.98
575.754	24719.84
575.952	23966.18
576.151	23927.27
576.349	23669.23
576.547	23890.41
576.745	23851.5
576.943	23564.78
577.141	23732.72
577.339	23867.88
577.537	23759.34
577.735	23562.73
577.933	23423.47
578.131	23484.91
578.329	23054.84
578.527	23089.65
578.725	23284.21
578.923	23409.14
579.121	22680.06
579.319	22958.58
579.516	23271.92
579.714	22788.6
579.912	22833.66
580.11	22839.8
580.308	22737.4
580.506	22569.47
580.704	22620.67
580.901	22753.79
581.099	22501.89
581.297	22190.59
581.495	22211.07
581.692	22352.38
581.89	21893.64
582.088	22188.55
582.285	22168.07
582.483	22213.12
582.681	22028.81
582.878	21965.32
583.076	21619.21
583.274	21746.19
583.471	21494.29
583.669	21950.98
583.866	21400.08
584.064	21815.82
584.262	21312.02
584.459	21490.19
584.657	21219.86
584.854	21606.92
585.052	21019.16
585.249	21189.14
585.447	21182.99
585.644	20797.98
585.841	20800.02
586.039	21207.57
586.236	20857.37
586.434	20666.91
586.631	20636.19
586.828	20918.81
587.026	21064.21
587.223	20601.37
587.42	20539.93
587.618	20568.6
587.815	20288.03
588.012	20118.05
588.21	20062.76
588.407	20455.97
588.604	20122.15
588.801	20003.36
588.999	20177.44
589.196	19952.16
589.393	19939.88
589.59	19776.04
589.787	19704.36
589.984	19673.64
590.182	19659.31
590.379	19644.97
590.576	19458.6
590.773	19690.02
590.97	19399.21
591.167	19536.43
591.364	19239.47
591.561	19548.72
591.758	19325.49
591.955	18876.98
592.152	19305.01
592.349	19438.12
592.546	19018.29
592.743	18973.24
592.94	18692.66
593.137	18723.38
593.334	19061.3
593.531	18401.85
593.727	18752.06
593.924	18733.62
594.121	18547.26
594.318	18506.3
594.515	18256.45
594.712	18321.98
594.908	18410.04
595.105	18444.86
595.302	18332.22
595.499	18242.11
595.696	18250.3
595.892	18027.07
596.089	18227.78
596.286	18170.43
596.482	17791.56
596.679	17832.52
596.876	17791.56
597.072	17863.24
597.269	17695.3
597.466	17789.51
597.662	17637.96
597.859	17521.23
598.055	17807.94
598.252	17332.81
598.448	17586.76
598.645	17332.81
598.841	17146.45
599.038	17211.98
599.234	17205.84
599.431	17125.97
599.627	17111.63
599.824	17248.85
600.02	17095.25
600.217	16820.82
600.413	16861.78
600.609	17046.1
600.806	16861.78
601.002	16583.26
601.198	16558.68
601.395	16530.01
601.591	16552.54
601.787	16448.09
601.984	16419.42
602.18	16704.09
602.376	16357.98
602.572	16355.93
602.769	16413.27
602.965	16128.61
603.161	16378.46
603.357	16120.42
603.553	16175.71
603.75	16081.5
603.946	15802.98
604.142	16101.98
604.338	15745.64
604.534	16101.98
604.73	16032.35
604.926	15567.46
605.122	15747.69
605.318	15551.08
605.514	15446.63
605.71	15628.9
605.906	15444.59
606.102	15641.19
606.298	15589.99
606.494	15479.4
606.69	15499.88
606.886	15362.67
607.082	15159.92
607.278	15456.87
607.474	15080.05
607.67	15164.01
607.866	15272.56
608.062	15026.8
608.257	14795.38
608.453	15192.69
608.649	15094.38
608.845	14994.03
609.041	14766.71
609.236	14985.84
609.432	14926.45
609.628	14963.31
609.824	14811.76
610.019	14932.59
610.215	14852.72
610.411	14594.68
610.606	14469.75
610.802	14649.97
610.998	14486.14
611.193	14424.7
611.389	14676.6
611.584	14484.09
611.78	14322.3
611.976	14402.17
612.171	14486.14
612.367	14285.44
612.562	14056.06
612.758	14160.51
612.953	14234.24
613.149	14572.15
613.344	14193.28
613.539	14295.68
613.735	14121.6
613.93	14353.02
614.126	14072.45
614.321	14242.43
614.517	14062.21
614.712	14074.49
614.907	14043.78
615.103	13941.38
615.298	13703.81
615.493	14082.69
615.688	13875.84
615.884	14230.14
616.079	13757.06
616.274	13980.29
616.47	13593.22
616.665	13810.31
616.86	13712
617.055	13347.47
617.25	13580.93
617.445	13730.44
617.641	13449.86
617.836	13597.32
618.031	13181.58
618.226	13466.25
618.421	13398.66
618.616	13413
618.811	13097.61
619.006	13222.54
619.201	13060.75
619.396	13306.51
619.591	13116.05
619.786	13163.15
619.981	12970.64
620.176	13210.25
620.371	12810.9
620.566	12970.64
620.761	12907.15
620.956	12860.05
621.151	12622.48
621.346	12737.17
621.541	12212.89
621.735	12778.13
621.93	12487.32
622.125	12350.1
622.32	12266.14
622.515	12094.11
622.709	11973.28
622.904	12100.25
623.099	12077.73
623.294	12096.16
623.488	11823.78
623.683	11772.58
623.878	11737.76
624.072	12063.39
624.267	11715.23
624.462	11580.07
624.656	11686.56
624.851	11539.11
625.046	11518.63
625.24	11451.05
625.435	11354.79
625.629	11395.75
625.824	11393.7
626.018	11371.18
626.213	10947.25
626.407	11256.49
626.602	10934.96
626.796	11029.17
626.991	10980.01
627.185	10918.57
627.38	10715.83
627.574	10812.08
627.768	10713.78
627.963	10601.14
628.157	10412.73
628.352	10588.85
628.546	10472.12
628.74	10631.86
628.935	10310.33
629.129	10316.47
629.323	10287.8
629.517	10154.68
629.712	10269.37
629.906	10076.86
630.1	9816.77
630.294	10031.8
630.489	9898.69
630.683	10005.18
630.877	9784
631.071	9743.04
631.265	9673.41
631.459	9740.99
631.653	9603.78
631.848	9487.04
632.042	9548.48
632.236	9607.87
632.43	9405.13
632.624	9466.56
632.818	9337.54
633.012	9190.09
633.206	9233.1
633.4	9206.47
633.594	9048.78
633.788	9040.59
633.982	9063.12
634.176	8927.95
634.369	9052.88
634.563	8821.45
634.757	8817.36
634.951	8762.06
635.145	8807.12
635.339	8780.5
635.533	8764.11
635.726	8645.33
635.92	8440.53
636.114	8483.54
636.308	8520.4
636.501	8430.29
636.695	8418
636.889	8270.55
637.083	8407.77
637.276	8432.34
637.47	8221.4
637.664	8303.32
637.857	8080.09
638.051	8028.89
638.244	8012.51
638.438	7940.83
638.632	8106.71
638.825	7959.26
639.019	7740.13
639.212	7723.74
639.406	7953.12
639.599	7867.1
639.793	7576.29
639.986	7654.11
640.18	7645.92
640.373	7469.8
640.567	7416.55
640.76	7500.51
640.954	7441.12
641.147	7346.92
641.34	7185.13
641.534	7283.43
641.727	7328.49
641.92	7308.01
642.114	7058.15
642.307	7088.87
642.5	7131.88
642.694	6830.83
642.887	7017.19
643.08	7297.77
643.273	6943.47
643.467	7080.68
643.66	6863.6
643.853	6929.13
644.046	6904.56
644.239	7004.91
644.432	6638.32
644.626	6736.62
644.819	6798.06
645.012	6568.69
645.205	6578.93
645.398	6765.29
645.591	6609.65
645.784	6472.43
645.977	6384.37
646.17	6398.71
646.363	6490.87
646.556	6255.35
646.749	6333.17
646.942	6281.97
647.135	6214.39
647.328	6124.28
647.521	6062.84
647.714	6329.08
647.907	6204.15
648.099	6202.1
648.292	6271.73
648.485	5913.34
648.678	5995.26
648.871	5962.49
649.064	5935.87
649.256	6064.89
649.449	5933.82
649.642	5817.08
649.835	5841.66
650.027	5765.89
650.22	5718.78
650.413	5714.69
650.605	5772.03
650.798	5632.77
650.991	5714.69
651.183	5765.89
651.376	5489.41
651.568	5530.37
651.761	5542.66
651.954	5446.4
652.146	5511.94
652.339	5460.74
652.531	5497.6
652.724	5569.28
652.916	5192.45
653.109	5362.44
653.301	5276.42
653.494	5153.54
653.686	5159.69
653.879	5202.69
654.071	5157.64
654.263	5110.54
654.456	5194.5
654.648	5176.07
654.84	4989.71
655.033	4987.66
655.225	5196.55
655.417	5085.96
655.61	5032.71
655.802	5116.68
655.994	4997.9
656.186	5159.69
656.379	4911.88
656.571	4801.29
656.763	4731.66
656.955	4774.67
657.148	4852.49
657.34	4850.44
657.532	4649.74
657.724	4692.75
657.916	4522.77
658.108	4651.79
658.3	4668.17
658.492	4721.42
658.684	4651.79
658.876	4700.94
659.068	4649.74
659.26	4672.27
659.452	4633.36
659.644	4535.06
659.836	4352.79
660.028	4516.62
660.22	4561.68
660.412	4231.96
660.604	4313.88
660.796	4463.38
660.988	4199.19
661.18	4326.16
661.372	4184.85
661.563	4373.27
661.755	4242.2
661.947	4274.96
662.139	4223.76
662.331	4143.89
662.522	4197.14
662.714	4184.85
662.906	4051.74
663.097	4025.11
663.289	4109.08
663.481	4076.31
663.673	4039.45
663.864	4092.69
664.056	4072.22
664.247	3894.04
664.439	3975.96
664.631	3986.2
664.822	3951.39
665.014	3814.17
665.205	3830.55
665.397	3949.34
665.588	3867.42
665.78	3922.71
665.971	3873.56
666.163	3920.67
666.354	3810.08
666.546	3719.96
666.737	3726.11
666.929	3707.68
667.12	3646.24
667.311	3767.07
667.503	3724.06
667.694	3758.88
667.885	3629.85
668.077	3732.25
668.268	3717.92
668.459	3695.39
668.651	3519.26
668.842	3595.04
669.033	3580.7
669.224	3568.41
669.416	3580.7
669.607	3341.09
669.798	3611.42
669.989	3543.84
670.18	3529.5
670.371	3564.32
670.563	3396.39
670.754	3607.33
670.945	3468.06
671.136	3441.44
671.327	3359.52
671.518	3531.55
671.709	3382.05
671.9	3468.06
672.091	3427.11
672.282	3318.56
672.473	3504.93
672.664	3453.73
672.855	3334.95
673.046	3433.25
673.237	3345.19
673.428	3459.87
673.619	3396.39
673.809	3228.45
674	3363.62
674.191	3410.72
674.382	3255.08
674.573	3203.88
674.764	3384.1
674.954	3277.6
675.145	3269.41
675.336	3265.32
675.527	3324.71
675.717	3250.98
675.908	3236.64
676.099	3179.3
676.289	3234.6
676.48	3093.29
676.671	3210.02
676.861	3126.05
677.052	3033.9
677.243	3048.23
677.433	3101.48
677.624	3107.62
677.814	3140.39
678.005	3132.2
678.195	3121.96
678.386	3154.73
678.576	3183.4
678.767	2988.84
678.957	3052.33
679.148	3124.01
679.338	3097.38
679.529	3027.75
679.719	3177.25
679.909	3253.03
680.1	3056.42
680.29	3119.91
680.481	3072.81
680.671	3210.02
680.861	3054.37
681.052	3070.76
681.242	2966.31
681.432	3173.16
681.622	3087.14
681.813	3044.13
682.003	3085.09
682.193	3126.05
682.383	3056.42
682.573	2992.94
682.764	3035.94
682.954	3031.85
683.144	2951.98
683.334	2978.6
683.524	2986.79
683.714	2831.15
683.904	2966.31
684.094	2931.5
684.284	3046.18
684.474	2945.83
684.664	2933.54
684.854	3050.28
685.044	2966.31
685.234	2964.26
685.424	2919.21
685.614	2945.83
685.804	2982.7
685.994	2868.01
686.184	2777.9
686.374	2868.01
686.564	2720.56
686.753	2958.12
686.943	2929.45
687.133	2820.91
687.323	2804.52
687.513	3023.66
687.702	2816.81
687.892	2747.18
688.082	2874.15
688.272	2777.9
688.461	2720.56
688.651	2882.35
688.841	2712.36
689.03	2759.47
689.22	2759.47
689.41	2822.95
689.599	2738.99
689.789	2575.15
689.979	2720.56
690.168	2691.88
690.358	2765.61
690.547	2655.02
690.737	2706.22
690.926	2655.02
691.116	2757.42
691.305	2777.9
691.495	2564.91
691.684	2485.04
691.874	2634.54
692.063	2634.54
692.252	2575.15
692.442	2538.29
692.631	2523.95
692.82	2771.76
693.01	2622.25
693.199	2560.81
693.388	2433.84
693.578	2503.47
693.767	2609.97
693.956	2437.94
694.146	2382.64
694.335	2480.94
694.524	2384.69
694.713	2446.13
694.902	2448.18
695.092	2429.74
695.281	2362.16
695.47	2407.22
695.659	2439.98
695.848	2351.92
696.037	2302.77
696.226	2437.94
696.415	2399.02
696.604	2358.07
696.793	2403.12
696.982	2296.63
697.171	2421.55
697.36	2429.74
697.549	2386.74
697.738	2374.45
697.927	2364.21
698.116	2333.49
698.305	2284.34
698.494	2370.35
698.683	2282.29
698.872	2511.66
699.061	2319.15
699.25	2308.91
699.438	2325.3
699.627	2241.33
699.816	2366.26
700.005	2169.65
700.193	2435.89
700.382	2413.36
700.571	2360.11
700.76	2349.87
700.948	2317.11
701.137	2280.24
701.326	2319.15
701.514	2274.1
701.703	2310.96
701.892	2462.51
702.08	2290.48
702.269	2265.91
702.457	2323.25
702.646	2349.87
702.834	2272.05
703.023	2335.54
703.212	2286.39
703.4	2308.91
703.589	2380.59
703.777	2429.74
703.965	2304.82
704.154	2302.77
704.342	2300.72
704.531	2419.5
704.719	2331.44
704.907	2288.43
705.096	2224.95
705.284	2173.75
705.472	2331.44
705.661	2370.35
705.849	2313.01
706.037	2284.34
706.226	2247.48
706.414	2327.35
706.602	2276.15
706.79	2306.87
706.979	2274.1
707.167	2218.8
707.355	2339.63
707.543	2261.81
707.731	2493.23
707.919	2384.69
708.107	2267.95
708.296	2284.34
708.484	2333.49
708.672	2337.59
708.86	2394.93
709.048	2347.83
709.236	2315.06
709.424	2323.25
709.612	2249.52
709.8	2253.62
709.988	2347.83
710.176	2298.67
710.364	2323.25
710.551	2425.65
710.739	2347.83
710.927	2458.42
711.115	2315.06
711.303	2249.52
711.491	2290.48
711.679	2235.19
711.866	2372.4
712.054	2364.21
712.242	2241.33
712.43	2495.28
712.617	2259.76
712.805	2343.73
712.993	2378.55
713.181	2415.41
713.368	2442.03
713.556	2286.39
713.744	2368.31
713.931	2401.07
714.119	2386.74
714.306	2341.68
714.494	2255.67
714.682	2392.88
714.869	2372.4
715.057	2300.72
715.244	2278.19
715.432	2323.25
715.619	2294.58
715.807	2417.46
715.994	2423.6
716.182	2317.11
716.369	2304.82
716.556	2353.97
716.744	2423.6
716.931	2325.3
717.119	2356.02
717.306	2321.2
717.493	2296.63
717.681	2378.55
717.868	2370.35
718.055	2345.78
718.242	2407.22
718.43	2366.26
718.617	2536.24
718.804	2349.87
718.991	2378.55
719.179	2468.66
719.366	2405.17
719.553	2343.73
719.74	2243.38
719.927	2302.77
720.114	2444.08
720.301	2347.83
720.488	2333.49
720.676	2394.93
720.863	2439.98
721.05	2372.4
721.237	2343.73
721.424	2437.94
721.611	2427.7
721.798	2310.96
721.985	2439.98
722.172	2347.83
722.358	2396.98
722.545	2417.46
722.732	2308.91
722.919	2423.6
723.106	2444.08
723.293	2466.61
723.48	2427.7
723.667	2423.6
723.853	2472.75
724.04	2480.94
724.227	2482.99
724.414	2401.07
724.6	2454.32
724.787	2523.95
724.974	2403.12
725.161	2501.42
725.347	2442.03
725.534	2472.75
725.72	2526
725.907	2513.71
726.094	2511.66
726.28	2413.36
726.467	2497.33
726.653	2394.93
726.84	2499.38
727.027	2388.78
727.213	2526
727.4	2509.62
727.586	2503.47
727.773	2476.85
727.959	2544.43
728.145	2495.28
728.332	2523.95
728.518	2476.85
728.705	2566.96
728.891	2573.1
729.077	2558.77
729.264	2571.05
729.45	2509.62
729.636	2583.34
729.823	2474.8
730.009	2521.9
730.195	2607.92
730.382	2720.56
730.568	2433.84
730.754	2521.9
730.94	2482.99
731.126	2523.95
731.313	2663.21
731.499	2546.48
731.685	2575.15
731.871	2665.26
732.057	2597.68
732.243	2552.62
732.429	2607.92
732.615	2614.06
732.801	2472.75
732.987	2595.63
733.173	2523.95
733.359	2597.68
733.545	2454.32
733.731	2546.48
733.917	2517.81
734.103	2597.68
734.289	2616.11
734.475	2609.97
734.661	2630.45
734.847	2632.49
735.033	2685.74
735.219	2534.19
735.404	2501.42
735.59	2648.88
735.776	2540.33
735.962	2550.57
736.148	2583.34
736.333	2720.56
736.519	2552.62
736.705	2612.01
736.89	2546.48
737.076	2599.73
737.262	2532.14
737.447	2558.77
737.633	2554.67
737.819	2632.49
738.004	2638.64
738.19	2546.48
738.375	2542.38
738.561	2544.43
738.747	2573.1
738.932	2446.13
739.118	2538.29
739.303	2562.86
739.489	2466.61
739.674	2401.07
739.859	2560.81
740.045	2521.9
740.23	2423.6
740.416	2439.98
740.601	2607.92
740.786	2495.28
740.972	2448.18
741.157	2507.57
741.342	2523.95
741.528	2464.56
741.713	2482.99
741.898	2421.55
742.084	2468.66
742.269	2528.05
742.454	2448.18
742.639	2497.33
742.824	2497.33
743.01	2349.87
743.195	2423.6
743.38	2417.46
743.565	2435.89
743.75	2358.07
743.935	2360.11
744.12	2442.03
744.305	2333.49
744.49	2233.14
744.675	2349.87
744.86	2347.83
745.045	2325.3
745.23	2356.02
745.415	2288.43
745.6	2446.13
745.785	2278.19
745.97	2253.62
746.155	2274.1
746.34	2194.23
746.525	2159.41
746.71	2251.57
746.895	2206.52
747.079	2114.36
747.264	2229.04
747.449	2106.17
747.634	2220.85
747.819	2255.67
748.003	2161.46
748.188	2095.93
748.373	2065.21
748.557	2134.84
748.742	2089.78
748.927	2188.08
749.111	2089.78
749.296	2245.43
749.481	2024.25
749.665	2057.01
749.85	2032.44
750.034	2212.66
750.219	1956.66
750.404	2048.82
750.588	2048.82
750.773	1997.62
750.957	1925.94
751.141	1936.18
751.326	1909.56
751.51	1936.18
751.695	1971
751.879	1960.76
752.064	1944.38
752.248	1905.46
752.432	1948.47
752.617	1913.66
752.801	1827.64
752.985	1798.97
753.17	1735.48
753.354	1741.63
753.538	1895.22
753.722	1741.63
753.907	1815.35
754.091	1794.87
754.275	1700.67
754.459	1764.15
754.643	1792.83
754.828	1745.72
755.012	1727.29
755.196	1604.41
755.38	1643.32
755.564	1598.27
755.748	1692.48
755.932	1708.86
756.116	1635.13
756.3	1569.6
756.484	1727.29
756.668	1555.26
756.852	1583.93
757.036	1524.54
757.22	1538.88
757.404	1508.16
757.588	1532.73
757.772	1467.2
757.956	1528.64
758.14	1528.64
758.323	1358.66
758.507	1475.39
758.691	1534.78
758.875	1452.86
759.059	1481.53
759.242	1542.97
759.426	1502.01
759.61	1499.97
759.794	1518.4
759.977	1475.39
760.161	1477.44
760.345	1489.73
760.528	1461.06
760.712	1381.18
760.895	1368.9
761.079	1358.66
761.263	1342.27
761.446	1450.82
761.63	1397.57
761.813	1372.99
761.997	1235.78
762.18	1219.39
762.364	1303.36
762.547	1291.07
762.731	1375.04
762.914	1293.12
763.098	1319.75
763.281	1289.03
763.464	1297.22
763.648	1278.79
763.831	1246.02
764.015	1297.22
764.198	1254.21
764.381	1278.79
764.564	1262.4
764.748	1221.44
764.931	1233.73
765.114	1147.72
765.297	1209.15
765.481	1319.75
765.664	1221.44
765.847	1141.57
766.03	1200.96
766.213	1241.92
766.397	1196.87
766.58	1180.48
766.763	1063.75
766.946	1225.54
767.129	1196.87
767.312	1131.33
767.495	1170.24
767.678	1104.71
767.861	1094.47
768.044	1135.43
768.227	1133.38
768.41	1100.61
768.593	1151.81
768.776	1039.17
768.959	1121.09
769.142	1127.24
769.324	975.69
769.507	1078.08
769.69	1073.99
769.873	1030.98
770.056	1139.52
770.239	1028.93
770.421	1065.8
770.604	1063.75
770.787	1071.94
770.97	1065.8
771.152	998.21
771.335	1041.22
771.518	969.54
771.7	1102.66
771.883	1039.17
772.066	963.4
772.248	934.73
772.431	1000.26
772.613	1028.93
772.796	910.15
772.978	1030.98
773.161	987.97
773.343	846.66
773.526	949.06
773.708	869.19
773.891	979.78
774.073	926.54
774.256	947.01
774.438	1016.65
774.621	879.43
774.803	1018.69
774.985	928.58
775.168	901.96
775.35	893.77
775.532	817.99
775.715	834.38
775.897	885.58
776.079	955.21
776.261	883.53
776.444	805.71
776.626	893.77
776.808	832.33
776.99	727.88
777.173	779.08
777.355	791.37
777.537	645.96
777.719	791.37
777.901	770.89
778.083	836.42
778.265	701.26
778.447	721.74
778.629	736.07
778.811	727.88
778.993	764.75
779.175	678.73
779.357	729.93
779.539	791.37
779.721	695.11
779.903	734.03
780.085	672.59
780.267	711.5
780.449	678.73
780.631	658.25
780.812	680.78
780.994	740.17
781.176	609.1
781.358	682.83
781.54	613.2
781.721	686.92
781.903	607.05
782.085	617.29
782.267	703.31
782.448	629.58
782.63	535.37
782.812	584.52
782.993	602.96
783.175	688.97
783.357	574.28
783.538	576.33
783.72	582.48
783.901	633.68
784.083	637.77
784.264	613.2
784.446	600.91
784.627	537.42
784.809	566.09
784.99	449.36
785.172	615.24
785.353	582.48
785.535	533.33
785.716	525.13
785.897	482.13
786.079	518.99
786.26	486.22
786.441	600.91
786.623	512.85
786.804	416.59
786.985	400.21
787.167	496.46
787.348	478.03
787.529	488.27
787.71	447.31
787.891	490.32
788.073	492.37
788.254	496.46
788.435	482.13
788.616	455.5
788.797	451.41
788.978	451.41
789.159	514.89
789.34	424.78
789.522	457.55
789.703	398.16
789.884	451.41
790.065	422.73
790.246	455.5
790.427	418.64
790.607	394.06
790.788	447.31
790.969	404.3
791.15	428.88
791.331	410.45
791.512	432.97
791.693	424.78
791.874	486.22
792.054	424.78
792.235	404.3
792.416	373.58
792.597	367.44
792.778	373.58
792.958	355.15
793.139	396.11
793.32	363.34
793.5	367.44
793.681	381.78
793.862	318.29
794.042	295.76
794.223	326.48
794.404	295.76
794.584	392.02
794.765	367.44
794.945	344.91
795.126	301.9
795.306	365.39
795.487	328.53
795.667	334.67
795.848	312.14
796.028	344.91
796.209	275.28
796.389	330.58
796.57	336.72
796.75	328.53
796.93	295.76
797.111	271.19
797.291	367.44
797.471	349.01
797.652	291.66
797.832	258.9
798.012	344.91
798.192	295.76
798.373	285.52
798.553	275.28
798.733	291.66
798.913	273.23
799.093	289.62
799.274	353.1
799.454	265.04
799.634	226.13
799.814	308.05
799.994	303.95
800.174	330.58
800.354	318.29
800.534	232.27
800.714	291.66
800.894	293.71
801.074	219.99
801.254	334.67
801.434	246.61
801.614	285.52
801.794	297.81
801.974	656.2
802.154	232.27
802.334	254.8
802.514	136.02
802.693	299.86
802.873	269.14
803.053	299.86
803.233	181.07
803.413	291.66
803.592	262.99
803.772	217.94
803.952	338.77
804.131	181.07
804.311	256.85
804.491	240.47
804.67	142.16
804.85	226.13
805.03	318.29
805.209	328.53
805.389	254.8
805.568	203.6
805.748	238.42
805.928	193.36
806.107	238.42
806.287	234.32
806.466	217.94
806.646	187.22
806.825	176.98
807.004	185.17
807.184	219.99
807.363	215.89
807.543	201.55
807.722	195.41
807.901	303.95
808.081	273.23
808.26	164.69
808.439	189.27
808.619	191.31
808.798	170.83
808.977	179.03
809.156	187.22
809.336	222.03
809.515	234.32
809.694	166.74
809.873	127.83
810.052	172.88
810.231	273.23
810.411	201.55
810.59	246.61
810.769	179.03
810.948	160.59
811.127	144.21
811.306	99.16
811.485	162.64
811.664	234.32
811.843	148.31
812.022	168.79
812.201	148.31
812.38	181.07
812.559	176.98
812.737	244.56
812.916	172.88
813.095	250.71
813.274	179.03
813.453	213.84
813.632	162.64
813.811	191.31
813.989	115.54
814.168	107.35
814.347	127.83
814.526	193.36
814.704	131.92
814.883	162.64
815.062	148.31
815.24	195.41
815.419	113.49
815.598	215.89
815.776	148.31
815.955	152.4
816.133	138.07
816.312	176.98
816.49	185.17
816.669	154.45
816.847	166.74
817.026	203.6
817.204	152.4
817.383	199.51
817.561	133.97
817.74	209.75
817.918	275.28
818.097	125.78
818.275	131.92
818.453	154.45
818.632	121.68
818.81	103.25
818.988	136.02
819.167	183.12
819.345	191.31
819.523	179.03
819.701	129.88
819.879	166.74
820.058	195.41
820.236	201.55
820.414	111.44
820.592	179.03
820.77	39.76
820.948	99.16
821.127	138.07
821.305	148.31
821.483	109.4
821.661	195.41
821.839	129.88
822.017	45.91
822.195	93.01
822.373	107.35
822.551	127.83
822.729	140.12
822.907	146.26
823.085	123.73
823.262	45.91
823.44	107.35
823.618	90.96
823.796	103.25
823.974	66.39
824.152	125.78
824.329	64.34
824.507	136.02
824.685	115.54
824.863	113.49
825.04	117.59
825.218	105.3
825.396	82.77
825.574	99.16
825.751	111.44
825.929	107.35
826.107	68.44
826.284	152.4
826.462	66.39
826.639	82.77
826.817	88.92
826.994	82.77
827.172	119.64
827.349	103.25
827.527	84.82
827.704	164.69
827.882	154.45
828.059	64.34
828.237	160.59
828.414	131.92
828.591	64.34
828.769	47.96
828.946	109.4
829.124	150.36
829.301	11.09
829.478	187.22
829.655	93.01
829.833	138.07
830.01	-7.34
830.187	95.06
830.364	72.53
830.542	37.72
830.719	140.12
830.896	33.62
831.073	82.77
831.25	119.64
831.427	97.11
831.604	90.96
831.782	93.01
831.959	115.54
832.136	109.4
832.313	72.53
832.49	119.64
832.667	152.4
832.844	52.05
833.021	127.83
833.198	115.54
833.374	160.59
833.551	107.35
833.728	45.91
833.905	115.54
834.082	13.14
834.259	115.54
834.436	103.25
834.612	107.35
834.789	52.05
834.966	33.62
835.143	52.05
835.319	25.43
835.496	95.06
835.673	60.24
835.85	111.44
836.026	76.63
836.203	111.44
836.38	37.72
836.556	90.96
836.733	-25.77
836.909	138.07
837.086	80.72
837.262	56.15
837.439	66.39
837.616	101.2
837.792	107.35
837.968	105.3
838.145	82.77
838.321	60.24
838.498	82.77
838.674	27.48
838.851	58.2
839.027	95.06
839.203	19.29
839.38	62.29
839.556	45.91
839.732	66.39
839.909	33.62
840.085	84.82
840.261	60.24
840.437	95.06
840.614	207.7
840.79	111.44
840.966	13.14
841.142	-9.39
841.318	80.72
841.494	9.05
841.671	121.68
841.847	31.57
842.023	68.44
842.199	129.88
842.375	76.63
842.551	37.72
842.727	0.85
842.903	52.05
843.079	41.81
843.255	47.96
843.431	47.96
843.607	-40.11
843.783	35.67
843.959	70.48
844.134	-36.01
844.31	43.86
844.486	25.43
844.662	66.39
844.838	90.96
845.013	80.72
845.189	11.09
845.365	60.24
845.541	-5.29
845.716	74.58
845.892	-3.24
846.068	56.15
846.244	-3.24
846.419	80.72
846.595	43.86
846.77	47.96
846.946	68.44
847.122	72.53
847.297	86.87
847.473	103.25
847.648	-7.34
847.824	13.14
847.999	93.01
848.175	50
848.35	52.05
848.526	133.97
848.701	64.34
848.876	52.05
849.052	78.68
849.227	45.91
849.403	-15.53
849.578	95.06
849.753	54.1
849.929	11.09
850.104	2.9
850.279	129.88
850.454	107.35
850.63	133.97
850.805	56.15
850.98	29.52
851.155	52.05
851.33	66.39
851.505	31.57
851.681	90.96
851.856	9.05
852.031	82.77
852.206	72.53
852.381	45.91
852.556	7
852.731	66.39
852.906	62.29
853.081	19.29
853.256	-3.24
853.431	31.57
853.606	0.85
853.781	2.9
853.956	-17.58
854.131	82.77
854.305	27.48
854.48	2.9
854.655	54.1
854.83	90.96
855.005	64.34
855.18	0.85
855.354	41.81
855.529	82.77
855.704	-21.67
855.879	33.62
856.053	45.91
856.228	-9.39
856.403	37.72
856.577	103.25
856.752	80.72
856.926	29.52
857.101	0.85
857.276	-40.11
857.45	21.33
857.625	68.44
857.799	52.05
857.974	62.29
858.148	-7.34
858.323	11.09
858.497	27.48
858.672	58.2
858.846	17.24
859.02	19.29
859.195	37.72
859.369	37.72
859.543	-11.43
859.718	78.68
859.892	121.68
860.066	23.38
860.241	47.96
860.415	33.62
860.589	35.67
860.763	25.43
860.938	-25.77
861.112	90.96
861.286	62.29
861.46	45.91
861.634	-50.35
861.808	-52.39
861.982	2.9
862.157	47.96
862.331	105.3
862.505	-19.63
862.679	-11.43
862.853	58.2
863.027	15.19
863.201	27.48
863.375	-74.92
863.549	41.81
863.722	23.38
863.896	39.76
864.07	21.33
864.244	-1.19
864.418	29.52
864.592	54.1
864.766	21.33
864.939	72.53
865.113	-11.43
865.287	37.72
865.461	-25.77
865.634	-58.54
865.808	68.44
865.982	-11.43
866.156	-5.29
866.329	-36.01
866.503	33.62
866.676	29.52
866.85	47.96
867.024	-13.48
867.197	58.2
867.371	0.85
867.544	54.1
867.718	27.48
867.891	56.15
868.065	13.14
868.238	29.52
868.412	11.09
868.585	4.95
868.759	37.72
868.932	0.85
869.105	35.67
869.279	37.72
869.452	-15.53
869.625	-25.77
869.799	33.62
869.972	17.24
870.145	60.24
870.319	56.15
870.492	60.24
870.665	-52.39
870.838	-46.25
871.011	-38.06
871.185	31.57
871.358	-13.48
871.531	41.81
871.704	54.1
871.877	15.19
872.05	33.62
872.223	54.1
872.396	35.67
872.569	9.05
872.742	-19.63
872.915	93.01
873.088	4.95
873.261	17.24
873.434	2.9
873.607	-21.67
873.78	-9.39
873.953	-52.39
874.126	52.05
874.299	80.72
874.471	-1.19
874.644	9.05
874.817	15.19
874.99	37.72
875.163	15.19
875.335	-27.82
875.508	-13.48
875.681	43.86
875.853	-66.73
876.026	27.48
876.199	-21.67
876.371	74.58
876.544	4.95
876.717	-23.72
876.889	-23.72
877.062	-3.24
877.234	2.9
877.407	76.63
877.579	-5.29
877.752	-11.43
877.924	-7.34
878.097	-46.25
878.269	74.58
878.442	-13.48
878.614	37.72
878.786	39.76
878.959	-9.39
879.131	0.85
879.303	17.24
879.476	4.95
879.648	29.52
879.82	-11.43
879.993	-1.19
880.165	2.9
880.337	-19.63
880.509	-3.24
880.681	-124.07
880.854	-3.24
881.026	35.67
881.198	37.72
881.37	17.24
881.542	4.95
881.714	15.19
881.886	17.24
882.058	29.52
882.23	-29.87
882.402	11.09
882.574	113.49
882.746	-64.68
882.918	58.2
883.09	25.43
883.262	-13.48
883.434	-36.01
883.606	-5.29
883.778	11.09
883.95	-33.96
884.122	-68.78
884.293	29.52
884.465	43.86
884.637	45.91
884.809	-64.68
884.98	13.14
885.152	-31.91
885.324	27.48
885.496	-31.91
885.667	41.81
885.839	13.14
886.011	50
886.182	-33.96
886.354	72.53
886.525	-23.72
886.697	35.67
886.869	58.2
887.04	-25.77
887.212	47.96
887.383	-1.19
887.555	-23.72
887.726	-15.53
887.897	-70.83
888.069	13.14
888.24	35.67
888.412	-46.25
888.583	25.43
888.754	45.91
888.926	0.85
889.097	27.48
889.268	-25.77
889.44	33.62
889.611	33.62
889.782	-50.35
889.953	-21.67
890.125	13.14
890.296	-19.63
890.467	-40.11
890.638	-3.24
890.809	43.86
890.98	-11.43
891.151	64.34
891.323	19.29
891.494	-21.67
891.665	21.33
891.836	-7.34
892.007	-25.77
892.178	-7.34
892.349	-15.53
892.52	19.29
892.691	-46.25
892.862	-7.34
893.032	66.39
893.203	-13.48
893.374	-1.19
893.545	-3.24
893.716	-1.19
893.887	70.48
894.057	25.43
894.228	74.58
894.399	-9.39
894.57	-5.29
894.74	107.35
894.911	4.95
895.082	-3.24
895.253	15.19
895.423	13.14
895.594	80.72
895.764	0.85
895.935	-3.24
896.106	11.09
896.276	31.57
896.447	25.43
896.617	-33.96
896.788	9.05
896.958	11.09
897.129	47.96
897.299	-1.19
897.47	66.39
897.64	39.76
897.81	13.14
897.981	9.05
898.151	-33.96
898.322	9.05
898.492	-7.34
898.662	78.68
898.832	-87.21
899.003	9.05
899.173	25.43
899.343	66.39
899.513	-40.11
