Data from USB4F104151__55__11-45-14-929.txt Node

Date: Fri Mar 14 11:45:14 EDT 2025
User: louis
Spectrometer: USB4F10415
Trigger mode: 4
Integration Time (sec): 2.000000E-2
Scans to average: 1
Electric dark correction enabled: true
Nonlinearity correction enabled: false
Boxcar width: 0
XAxis mode: Wavelengths
Number of Pixels in Spectrum: 3648
>>>>>Begin Spectral Data<<<<<
178.204	-78.33
178.424	-78.33
178.644	-78.33
178.864	-20.99
179.084	5.63
179.304	-2.56
179.524	-31.23
179.744	60.93
179.964	-8.7
180.184	-41.47
180.404	-74.24
180.624	1.54
180.844	3.58
181.064	30.21
181.283	-14.85
181.503	50.69
181.723	26.11
181.943	-33.28
182.163	-4.61
182.383	81.41
182.602	46.59
182.822	34.3
183.042	65.02
183.262	38.4
183.482	50.69
183.701	1.54
183.921	58.88
184.141	-14.85
184.361	101.89
184.58	52.74
184.8	1.54
185.02	-2.56
185.239	46.59
185.459	40.45
185.679	58.88
185.898	44.54
186.118	62.98
186.338	-16.9
186.557	60.93
186.777	75.26
186.997	77.31
187.216	32.26
187.436	54.78
187.655	11.78
187.875	95.74
188.095	32.26
188.314	69.12
188.534	101.89
188.753	-51.71
188.973	28.16
189.192	122.37
189.412	26.11
189.631	5.63
189.851	-6.66
190.07	67.07
190.29	-51.71
190.509	-6.66
190.729	-31.23
190.948	79.36
191.168	19.97
191.387	54.78
191.607	38.4
191.826	38.4
192.045	-12.8
192.265	48.64
192.484	-16.9
192.704	77.31
192.923	-47.62
193.142	17.92
193.362	62.98
193.581	22.02
193.8	-18.94
194.02	40.45
194.239	112.13
194.458	44.54
194.678	-10.75
194.897	5.63
195.116	87.55
195.335	62.98
195.555	46.59
195.774	-2.56
195.993	46.59
196.212	38.4
196.432	71.17
196.651	28.16
196.87	30.21
197.089	85.5
197.308	81.41
197.528	-35.33
197.747	36.35
197.966	77.31
198.185	-18.94
198.404	7.68
198.623	-16.9
198.842	110.08
199.062	17.92
199.281	22.02
199.5	13.82
199.719	75.26
199.938	38.4
200.157	-4.61
200.376	28.16
200.595	36.35
200.814	-43.52
201.033	69.12
201.252	60.93
201.471	7.68
201.69	38.4
201.909	44.54
202.128	54.78
202.347	52.74
202.566	3.58
202.785	32.26
203.004	38.4
203.223	91.65
203.442	95.74
203.661	38.4
203.879	42.5
204.098	75.26
204.317	-20.99
204.536	-4.61
204.755	48.64
204.974	52.74
205.193	11.78
205.411	89.6
205.63	52.74
205.849	46.59
206.068	28.16
206.287	5.63
206.505	28.16
206.724	-37.38
206.943	11.78
207.162	26.11
207.381	26.11
207.599	-8.7
207.818	42.5
208.037	-4.61
208.255	58.88
208.474	52.74
208.693	65.02
208.911	30.21
209.13	-78.33
209.349	32.26
209.567	71.17
209.786	15.87
210.005	3.58
210.223	30.21
210.442	26.11
210.661	26.11
210.879	38.4
211.098	38.4
211.316	69.12
211.535	30.21
211.753	-37.38
211.972	3.58
212.191	26.11
212.409	26.11
212.628	11.78
212.846	13.82
213.065	93.69
213.283	79.36
213.502	52.74
213.72	83.45
213.938	65.02
214.157	65.02
214.375	24.06
214.594	48.64
214.812	75.26
215.031	1.54
215.249	-10.75
215.467	130.56
215.686	38.4
215.904	81.41
216.122	-16.9
216.341	97.79
216.559	-2.56
216.778	89.6
216.996	30.21
217.214	-18.94
217.432	38.4
217.651	42.5
217.869	71.17
218.087	13.82
218.306	71.17
218.524	32.26
218.742	24.06
218.96	52.74
219.179	13.82
219.397	19.97
219.615	62.98
219.833	60.93
220.051	42.5
220.27	112.13
220.488	69.12
220.706	26.11
220.924	-10.75
221.142	-0.51
221.36	30.21
221.578	46.59
221.796	24.06
222.015	62.98
222.233	-18.94
222.451	38.4
222.669	-4.61
222.887	40.45
223.105	91.65
223.323	112.13
223.541	7.68
223.759	32.26
223.977	1.54
224.195	60.93
224.413	38.4
224.631	5.63
224.849	50.69
225.067	69.12
225.285	34.3
225.503	-18.94
225.721	-10.75
225.939	79.36
226.157	-64
226.375	77.31
226.592	28.16
226.81	77.31
227.028	101.89
227.246	91.65
227.464	42.5
227.682	58.88
227.9	34.3
228.117	73.21
228.335	28.16
228.553	62.98
228.771	105.98
228.989	32.26
229.206	44.54
229.424	62.98
229.642	-0.51
229.86	-45.57
230.077	81.41
230.295	38.4
230.513	93.69
230.731	30.21
230.948	69.12
231.166	48.64
231.384	11.78
231.601	101.89
231.819	103.93
232.037	-47.62
232.254	9.73
232.472	58.88
232.689	-10.75
232.907	60.93
233.125	-10.75
233.342	7.68
233.56	22.02
233.777	7.68
233.995	19.97
234.213	83.45
234.43	116.22
234.648	-51.71
234.865	-0.51
235.083	26.11
235.3	36.35
235.518	77.31
235.735	44.54
235.953	124.41
236.17	5.63
236.388	-8.7
236.605	28.16
236.822	81.41
237.04	62.98
237.257	54.78
237.475	9.73
237.692	36.35
237.909	-14.85
238.127	17.92
238.344	-8.7
238.562	58.88
238.779	42.5
238.996	1.54
239.214	44.54
239.431	9.73
239.648	62.98
239.865	44.54
240.083	48.64
240.3	26.11
240.517	3.58
240.735	32.26
240.952	54.78
241.169	36.35
241.386	42.5
241.603	44.54
241.821	26.11
242.038	75.26
242.255	7.68
242.472	-72.19
242.689	5.63
242.907	79.36
243.124	15.87
243.341	75.26
243.558	65.02
243.775	-8.7
243.992	-10.75
244.209	-6.66
244.426	42.5
244.643	28.16
244.86	62.98
245.078	15.87
245.295	9.73
245.512	26.11
245.729	91.65
245.946	40.45
246.163	19.97
246.38	15.87
246.597	65.02
246.814	11.78
247.031	-14.85
247.248	48.64
247.464	52.74
247.681	89.6
247.898	-2.56
248.115	116.22
248.332	-29.18
248.549	122.37
248.766	62.98
248.983	65.02
249.2	58.88
249.417	13.82
249.633	54.78
249.85	1.54
250.067	95.74
250.284	17.92
250.501	42.5
250.717	110.08
250.934	58.88
251.151	1.54
251.368	95.74
251.585	24.06
251.801	73.21
252.018	-23.04
252.235	7.68
252.451	48.64
252.668	-57.86
252.885	103.93
253.102	3.58
253.318	13.82
253.535	62.98
253.752	15.87
253.968	-27.14
254.185	48.64
254.401	17.92
254.618	48.64
254.835	9.73
255.051	101.89
255.268	32.26
255.484	48.64
255.701	11.78
255.917	67.07
256.134	5.63
256.351	140.8
256.567	9.73
256.784	101.89
257	-8.7
257.217	40.45
257.433	69.12
257.65	5.63
257.866	26.11
258.082	73.21
258.299	38.4
258.515	40.45
258.732	48.64
258.948	81.41
259.165	40.45
259.381	54.78
259.597	-100.86
259.814	60.93
260.03	13.82
260.246	28.16
260.463	38.4
260.679	46.59
260.895	28.16
261.112	7.68
261.328	42.5
261.544	85.5
261.761	91.65
261.977	67.07
262.193	9.73
262.409	85.5
262.626	7.68
262.842	26.11
263.058	-59.9
263.274	17.92
263.49	-0.51
263.707	50.69
263.923	77.31
264.139	-12.8
264.355	40.45
264.571	54.78
264.787	71.17
265.004	-4.61
265.22	-31.23
265.436	116.22
265.652	38.4
265.868	-0.51
266.084	36.35
266.3	34.3
266.516	5.63
266.732	95.74
266.948	30.21
267.164	85.5
267.38	95.74
267.596	42.5
267.812	108.03
268.028	60.93
268.244	50.69
268.46	69.12
268.676	46.59
268.892	44.54
269.108	52.74
269.324	75.26
269.54	30.21
269.756	62.98
269.972	-33.28
270.188	56.83
270.403	-82.43
270.619	75.26
270.835	73.21
271.051	1.54
271.267	-25.09
271.483	-23.04
271.698	75.26
271.914	-53.76
272.13	60.93
272.346	52.74
272.562	-35.33
272.777	-6.66
272.993	-6.66
273.209	22.02
273.425	93.69
273.64	87.55
273.856	28.16
274.072	30.21
274.287	-18.94
274.503	69.12
274.719	40.45
274.934	1.54
275.15	15.87
275.366	42.5
275.581	38.4
275.797	3.58
276.012	26.11
276.228	52.74
276.444	24.06
276.659	-10.75
276.875	44.54
277.09	44.54
277.306	28.16
277.521	24.06
277.737	-33.28
277.952	5.63
278.168	-0.51
278.383	-53.76
278.599	58.88
278.814	48.64
279.03	108.03
279.245	71.17
279.461	54.78
279.676	75.26
279.892	42.5
280.107	26.11
280.322	9.73
280.538	81.41
280.753	-10.75
280.969	46.59
281.184	103.93
281.399	122.37
281.615	17.92
281.83	67.07
282.045	11.78
282.26	36.35
282.476	5.63
282.691	40.45
282.906	26.11
283.122	30.21
283.337	54.78
283.552	126.46
283.767	-12.8
283.983	87.55
284.198	71.17
284.413	79.36
284.628	1.54
284.843	36.35
285.058	79.36
285.274	30.21
285.489	24.06
285.704	46.59
285.919	48.64
286.134	56.83
286.349	1.54
286.564	34.3
286.779	19.97
286.995	-23.04
287.21	28.16
287.425	122.37
287.64	36.35
287.855	52.74
288.07	-23.04
288.285	22.02
288.5	40.45
288.715	60.93
288.93	81.41
289.145	38.4
289.36	11.78
289.575	-23.04
289.79	19.97
290.004	38.4
290.219	26.11
290.434	22.02
290.649	32.26
290.864	-55.81
291.079	-23.04
291.294	65.02
291.509	62.98
291.724	60.93
291.938	69.12
292.153	40.45
292.368	54.78
292.583	58.88
292.798	69.12
293.012	69.12
293.227	54.78
293.442	34.3
293.657	30.21
293.871	54.78
294.086	79.36
294.301	42.5
294.516	34.3
294.73	54.78
294.945	-27.14
295.16	60.93
295.374	44.54
295.589	1.54
295.804	38.4
296.018	32.26
296.233	112.13
296.447	26.11
296.662	-8.7
296.877	54.78
297.091	83.45
297.306	44.54
297.52	46.59
297.735	75.26
297.949	13.82
298.164	19.97
298.378	17.92
298.593	87.55
298.807	89.6
299.022	44.54
299.236	7.68
299.451	56.83
299.665	32.26
299.88	81.41
300.094	58.88
300.309	5.63
300.523	60.93
300.737	46.59
300.952	-49.66
301.166	85.5
301.381	13.82
301.595	32.26
301.809	-2.56
302.024	56.83
302.238	26.11
302.452	26.11
302.667	32.26
302.881	79.36
303.095	38.4
303.309	73.21
303.524	-27.14
303.738	28.16
303.952	-31.23
304.166	89.6
304.381	-27.14
304.595	126.46
304.809	-2.56
305.023	83.45
305.237	-16.9
305.452	81.41
305.666	36.35
305.88	105.98
306.094	48.64
306.308	15.87
306.522	118.27
306.736	3.58
306.95	32.26
307.164	13.82
307.379	101.89
307.593	85.5
307.807	48.64
308.021	71.17
308.235	28.16
308.449	38.4
308.663	44.54
308.877	103.93
309.091	54.78
309.305	95.74
309.519	36.35
309.733	118.27
309.947	-61.95
310.161	9.73
310.374	85.5
310.588	-4.61
310.802	-18.94
311.016	-31.23
311.23	-0.51
311.444	15.87
311.658	62.98
311.872	-12.8
312.085	65.02
312.299	103.93
312.513	36.35
312.727	140.8
312.941	-2.56
313.154	85.5
313.368	40.45
313.582	69.12
313.796	7.68
314.009	13.82
314.223	89.6
314.437	54.78
314.651	9.73
314.864	9.73
315.078	42.5
315.292	58.88
315.505	50.69
315.719	77.31
315.933	48.64
316.146	28.16
316.36	24.06
316.573	34.3
316.787	67.07
317.001	54.78
317.214	-2.56
317.428	75.26
317.641	69.12
317.855	32.26
318.068	73.21
318.282	-6.66
318.495	120.32
318.709	91.65
318.922	42.5
319.136	128.51
319.349	48.64
319.563	81.41
319.776	40.45
319.99	110.08
320.203	120.32
320.417	77.31
320.63	-10.75
320.843	99.84
321.057	42.5
321.27	44.54
321.483	87.55
321.697	11.78
321.91	75.26
322.124	73.21
322.337	1.54
322.55	34.3
322.763	38.4
322.977	30.21
323.19	75.26
323.403	42.5
323.617	114.17
323.83	67.07
324.043	93.69
324.256	73.21
324.469	-18.94
324.683	97.79
324.896	11.78
325.109	65.02
325.322	17.92
325.535	124.41
325.748	36.35
325.962	36.35
326.175	73.21
326.388	83.45
326.601	146.94
326.814	108.03
327.027	32.26
327.24	75.26
327.453	17.92
327.666	56.83
327.879	75.26
328.092	85.5
328.305	-8.7
328.518	77.31
328.731	44.54
328.944	48.64
329.157	34.3
329.37	44.54
329.583	77.31
329.796	132.61
330.009	42.5
330.222	62.98
330.435	30.21
330.648	87.55
330.861	52.74
331.073	62.98
331.286	83.45
331.499	77.31
331.712	-27.14
331.925	114.17
332.138	124.41
332.35	79.36
332.563	30.21
332.776	9.73
332.989	46.59
333.202	99.84
333.414	5.63
333.627	114.17
333.84	-14.85
334.053	112.13
334.265	75.26
334.478	62.98
334.691	52.74
334.903	17.92
335.116	3.58
335.329	42.5
335.541	69.12
335.754	108.03
335.966	97.79
336.179	-2.56
336.392	26.11
336.604	54.78
336.817	93.69
337.029	60.93
337.242	24.06
337.454	103.93
337.667	52.74
337.88	108.03
338.092	19.97
338.305	1.54
338.517	26.11
338.729	42.5
338.942	118.27
339.154	52.74
339.367	60.93
339.579	136.7
339.792	-8.7
340.004	105.98
340.217	60.93
340.429	1.54
340.641	34.3
340.854	89.6
341.066	91.65
341.278	75.26
341.491	89.6
341.703	60.93
341.915	5.63
342.128	71.17
342.34	50.69
342.552	3.58
342.764	38.4
342.977	97.79
343.189	77.31
343.401	73.21
343.613	46.59
343.826	56.83
344.038	110.08
344.25	19.97
344.462	81.41
344.674	24.06
344.886	83.45
345.099	32.26
345.311	-20.99
345.523	118.27
345.735	73.21
345.947	46.59
346.159	142.85
346.371	17.92
346.583	87.55
346.795	91.65
347.007	-35.33
347.219	48.64
347.431	83.45
347.643	118.27
347.855	30.21
348.067	36.35
348.279	75.26
348.491	26.11
348.703	3.58
348.915	44.54
349.127	110.08
349.339	32.26
349.551	56.83
349.763	122.37
349.975	-4.61
350.187	54.78
350.399	9.73
350.61	91.65
350.822	-8.7
351.034	128.51
351.246	101.89
351.458	34.3
351.669	105.98
351.881	71.17
352.093	50.69
352.305	75.26
352.517	38.4
352.728	116.22
352.94	60.93
353.152	105.98
353.363	34.3
353.575	77.31
353.787	79.36
353.999	87.55
354.21	56.83
354.422	36.35
354.633	13.82
354.845	56.83
355.057	56.83
355.268	34.3
355.48	52.74
355.692	9.73
355.903	85.5
356.115	79.36
356.326	83.45
356.538	69.12
356.749	48.64
356.961	124.41
357.172	85.5
357.384	1.54
357.595	34.3
357.807	62.98
358.018	40.45
358.23	105.98
358.441	97.79
358.653	17.92
358.864	67.07
359.075	28.16
359.287	46.59
359.498	15.87
359.709	36.35
359.921	110.08
360.132	110.08
360.344	103.93
360.555	44.54
360.766	79.36
360.977	13.82
361.189	32.26
361.4	34.3
361.611	67.07
361.823	87.55
362.034	62.98
362.245	1.54
362.456	9.73
362.667	81.41
362.879	83.45
363.09	58.88
363.301	48.64
363.512	73.21
363.723	-12.8
363.935	40.45
364.146	42.5
364.357	56.83
364.568	24.06
364.779	-6.66
364.99	114.17
365.201	69.12
365.412	19.97
365.623	120.32
365.834	93.69
366.045	173.57
366.256	62.98
366.467	38.4
366.678	87.55
366.889	89.6
367.1	19.97
367.311	77.31
367.522	46.59
367.733	60.93
367.944	101.89
368.155	114.17
368.366	114.17
368.577	99.84
368.788	116.22
368.999	62.98
369.209	24.06
369.42	157.18
369.631	124.41
369.842	26.11
370.053	48.64
370.264	75.26
370.474	42.5
370.685	26.11
370.896	85.5
371.107	46.59
371.317	36.35
371.528	42.5
371.739	79.36
371.95	40.45
372.16	87.55
372.371	26.11
372.582	62.98
372.792	62.98
373.003	65.02
373.214	124.41
373.424	60.93
373.635	62.98
373.846	157.18
374.056	38.4
374.267	79.36
374.477	69.12
374.688	46.59
374.898	60.93
375.109	32.26
375.319	99.84
375.53	77.31
375.74	83.45
375.951	93.69
376.161	19.97
376.372	48.64
376.582	50.69
376.793	38.4
377.003	71.17
377.214	36.35
377.424	101.89
377.635	44.54
377.845	46.59
378.055	15.87
378.266	19.97
378.476	120.32
378.686	81.41
378.897	62.98
379.107	93.69
379.317	130.56
379.528	108.03
379.738	157.18
379.948	54.78
380.158	132.61
380.369	134.65
380.579	54.78
380.789	89.6
380.999	44.54
381.21	130.56
381.42	130.56
381.63	103.93
381.84	30.21
382.05	69.12
382.261	89.6
382.471	60.93
382.681	9.73
382.891	24.06
383.101	62.98
383.311	67.07
383.521	48.64
383.731	87.55
383.941	114.17
384.151	62.98
384.361	95.74
384.571	42.5
384.781	54.78
384.991	142.85
385.201	130.56
385.411	58.88
385.621	73.21
385.831	54.78
386.041	42.5
386.251	46.59
386.461	81.41
386.671	93.69
386.881	56.83
387.091	26.11
387.301	97.79
387.511	60.93
387.72	122.37
387.93	36.35
388.14	3.58
388.35	69.12
388.56	103.93
388.769	93.69
388.979	132.61
389.189	132.61
389.399	126.46
389.609	77.31
389.818	112.13
390.028	110.08
390.238	161.28
390.447	46.59
390.657	54.78
390.867	81.41
391.076	116.22
391.286	101.89
391.496	42.5
391.705	91.65
391.915	93.69
392.125	95.74
392.334	75.26
392.544	36.35
392.753	71.17
392.963	69.12
393.172	126.46
393.382	24.06
393.591	93.69
393.801	103.93
394.01	138.75
394.22	54.78
394.429	97.79
394.639	71.17
394.848	65.02
395.058	58.88
395.267	148.99
395.477	132.61
395.686	132.61
395.895	165.37
396.105	157.18
396.314	169.47
396.524	161.28
396.733	95.74
396.942	157.18
397.152	120.32
397.361	120.32
397.57	194.05
397.78	60.93
397.989	97.79
398.198	177.66
398.407	93.69
398.617	126.46
398.826	126.46
399.035	126.46
399.244	122.37
399.453	56.83
399.663	210.43
399.872	136.7
400.081	136.7
400.29	112.13
400.499	110.08
400.708	161.28
400.917	128.51
401.127	103.93
401.336	177.66
401.545	81.41
401.754	161.28
401.963	206.33
402.172	73.21
402.381	185.85
402.59	192
402.799	101.89
403.008	194.05
403.217	232.96
403.426	124.41
403.635	212.48
403.844	171.52
404.053	140.8
404.262	118.27
404.471	171.52
404.68	163.33
404.888	202.24
405.097	175.61
405.306	161.28
405.515	173.57
405.724	224.76
405.933	216.57
406.142	235
406.35	214.52
406.559	267.77
406.768	210.43
406.977	298.49
407.185	302.59
407.394	269.82
407.603	251.39
407.812	341.5
408.02	275.96
408.229	249.34
408.438	265.72
408.646	271.87
408.855	282.11
409.064	312.83
409.272	245.24
409.481	398.84
409.69	329.21
409.898	302.59
410.107	347.64
410.315	456.19
410.524	425.47
410.733	390.65
410.941	484.86
411.15	402.94
411.358	439.8
411.567	493.05
411.775	482.81
411.984	478.71
412.192	521.72
412.401	517.62
412.609	534.01
412.818	597.49
413.026	691.7
413.234	601.59
413.443	617.97
413.651	693.75
413.86	738.8
414.068	732.66
414.276	747
414.485	742.9
414.693	783.86
414.901	806.39
415.11	908.79
415.318	863.73
415.526	851.44
415.734	959.99
415.943	914.93
416.151	976.37
416.359	1062.38
416.567	1062.38
416.776	1043.95
416.984	1275.37
417.192	1168.88
417.4	1170.93
417.608	1170.93
417.817	1275.37
418.025	1240.56
418.233	1398.25
418.441	1336.81
418.649	1510.89
418.857	1545.7
419.065	1629.67
419.273	1564.14
419.481	1607.14
419.689	1744.36
419.897	1904.1
420.105	1818.08
420.313	1926.63
420.521	1967.59
420.729	2000.35
420.937	2043.36
421.145	2141.66
421.353	2209.25
421.561	2389.47
421.769	2352.6
421.977	2541.02
422.185	2452.95
422.393	2684.38
422.601	2864.6
422.809	2805.21
423.017	2776.53
423.224	2903.51
423.432	3073.49
423.64	3124.69
423.848	3333.58
424.056	3227.09
424.263	3573.19
424.471	3507.66
424.679	3601.87
424.887	3796.42
425.094	3909.06
425.302	3872.2
425.51	3982.79
425.718	4044.23
425.925	4126.15
426.133	4416.96
426.341	4550.07
426.548	4955.57
426.756	4791.73
426.964	4818.36
427.171	5123.51
427.379	5373.36
427.586	5502.38
427.794	5500.33
428.001	5688.75
428.209	6000.04
428.417	5987.75
428.624	6329.76
428.832	6479.26
429.039	6284.7
429.247	6421.92
429.454	6952.34
429.662	7513.49
429.869	6972.82
430.076	7359.89
430.284	7083.41
430.491	7513.49
430.699	8031.62
430.906	7867.78
431.114	8084.87
431.321	8326.53
431.528	8459.65
431.736	9100.66
431.943	9465.2
432.15	9311.6
432.358	9164.15
432.565	9813.35
432.772	9772.39
432.979	10110.31
433.187	10532.19
433.394	10425.7
433.601	11126.1
433.808	11345.23
434.016	11240.79
434.223	11742.54
434.43	12539.2
434.637	12176.71
434.844	12848.44
435.052	13210.93
435.259	13094.2
435.466	13129.02
435.673	13104.44
435.88	13788.46
436.087	14748.96
436.294	14499.11
436.501	14335.27
436.708	14591.27
436.915	15234.33
437.122	16121.1
437.329	15930.64
437.537	15904.01
437.743	16618.75
437.95	16411.91
438.157	17407.22
438.364	17685.75
438.571	17829.1
438.778	17951.98
438.985	19680.47
439.192	18726.11
439.399	19539.16
439.606	19016.93
439.813	19885.26
440.02	21159.1
440.227	20800.71
440.433	20716.74
440.64	21308.6
440.847	21089.47
441.054	21703.86
441.261	23051.42
441.467	22883.49
441.674	23542.94
441.881	24169.62
442.088	24347.79
442.294	24155.28
442.501	24702.09
442.708	25304.19
442.914	25986.16
443.121	26930.28
443.328	26512.49
443.534	28038.23
443.741	27546.72
443.948	27028.58
444.154	29408.32
444.361	28990.53
444.568	29150.28
444.774	29504.57
444.981	29772.86
445.187	30053.43
445.394	31300.64
445.6	31448.1
445.807	34231.29
446.013	32611.34
446.22	33045.51
446.426	34997.23
446.633	34800.62
446.839	36254.68
447.046	34860.01
447.252	36379.6
447.459	36731.86
447.665	36187.1
447.871	37934.01
448.078	39504.81
448.284	37577.67
448.491	38833.07
448.697	40072.09
448.903	40774.55
449.11	41147.28
449.316	40473.49
449.522	41091.98
449.728	42097.53
449.935	42275.71
450.141	42523.51
450.347	43383.66
450.553	42290.04
450.76	42376.06
450.966	44006.24
451.172	43340.65
451.378	44841.81
451.584	43887.46
451.791	44407.64
451.997	44620.63
452.203	45321.04
452.409	45058.9
452.615	45230.93
452.821	43639.65
453.027	43133.81
453.233	45052.75
453.44	43514.73
453.646	43752.29
453.852	44321.63
454.058	45036.37
454.264	43400.04
454.47	44628.82
454.676	43266.92
454.882	44766.04
455.088	41061.26
455.294	41573.25
455.5	42392.44
455.705	42519.42
455.911	41085.84
456.117	40035.23
456.323	39795.62
456.529	38073.28
456.735	39398.31
456.941	38280.12
457.147	37491.65
457.352	36496.34
457.558	36432.85
457.764	36013.02
457.97	35804.13
458.176	34636.78
458.381	34544.62
458.587	32654.35
458.793	33350.66
458.999	31374.37
459.204	33924.09
459.41	32529.42
459.616	30551.09
459.821	30637.1
460.027	30495.79
460.233	29873.21
460.438	28640.33
460.644	28978.25
460.85	27530.33
461.055	26987.62
461.261	26647.66
461.466	24460.43
461.672	23999.63
461.878	25957.49
462.083	24378.51
462.289	23598.23
462.494	23237.79
462.7	22305.96
462.905	22019.25
463.111	22516.9
463.316	22701.22
463.522	22310.06
463.727	22181.04
463.932	21679.29
464.138	22217.9
464.343	21855.41
464.549	21144.77
464.754	22330.54
464.959	21804.21
465.165	21486.78
465.37	20634.82
465.575	19946.7
465.781	20907.2
465.986	21253.31
466.191	20481.22
466.397	20049.1
466.602	19367.13
466.807	19813.59
467.012	20159.69
467.218	19461.34
467.423	19733.71
467.628	19379.42
467.833	20370.63
468.038	19487.96
468.244	18902.24
468.449	19944.66
468.654	18853.09
468.859	19049.69
469.064	19006.69
469.269	18218.22
469.474	18439.4
469.679	18584.8
469.885	18304.23
470.09	18347.24
470.295	18154.73
470.5	17708.27
470.705	18066.67
470.91	17493.24
471.115	17249.53
471.32	17642.74
471.525	17247.48
471.73	17183.99
471.935	16866.56
472.139	16401.67
472.344	16479.49
472.549	16364.81
472.754	16680.19
472.959	16026.89
473.164	15834.38
473.369	15721.74
473.574	16231.69
473.778	15756.56
473.983	15736.08
474.188	15496.47
474.393	14820.64
474.598	14849.31
474.802	14517.54
475.007	14765.34
475.212	14699.81
475.417	14437.67
475.621	14097.7
475.826	14492.96
476.031	13921.58
476.235	13870.38
476.44	13999.4
476.645	13657.39
476.849	13485.36
477.054	13448.5
477.259	13411.64
477.463	13405.49
477.668	12913.98
477.872	13301.05
478.077	12891.45
478.282	12653.89
478.486	12270.92
478.691	12373.32
478.895	12463.43
479.1	12363.08
479.304	12580.16
479.509	12127.56
479.713	12131.65
479.918	12000.58
480.122	11898.19
480.326	12016.97
480.531	12154.18
480.735	11816.27
480.94	11709.77
481.144	11965.77
481.348	11461.97
481.553	11404.63
481.757	11375.95
481.961	11550.03
482.166	11607.37
482.37	11478.35
482.574	11269.46
482.778	11486.54
482.983	11468.11
483.187	11455.83
483.391	11599.18
483.595	11367.76
483.8	11361.62
484.004	11533.65
484.208	11421.01
484.412	11390.29
484.616	11324.76
484.821	11384.15
485.025	11064.66
485.229	11283.8
485.433	11066.71
485.637	11451.73
485.841	11404.63
486.045	11070.81
486.249	11408.72
486.453	11240.79
486.657	11392.34
486.861	11615.57
487.065	11064.66
487.269	11304.28
487.473	11273.56
487.677	11304.28
487.881	11392.34
488.085	11253.08
488.289	11525.46
488.493	11279.7
488.697	11367.76
488.901	11547.98
489.105	11541.84
489.309	11468.11
489.512	11427.15
489.716	11461.97
489.92	11427.15
490.124	11408.72
490.328	11445.59
490.531	11402.58
490.735	11560.27
490.939	11545.94
491.143	11556.18
491.346	11648.33
491.55	11992.39
491.754	11801.93
491.958	11810.12
492.161	11570.51
492.365	11793.74
492.569	11722.06
492.772	11861.32
492.976	12053.83
493.18	11988.3
493.383	12197.19
493.587	12377.41
493.79	12412.23
493.994	12127.56
494.197	12541.25
494.401	12522.82
494.605	12449.09
494.808	12803.39
495.012	12686.65
495.215	12856.64
495.419	13118.78
495.622	13036.86
495.825	13071.67
496.029	13217.08
496.232	13006.14
496.436	13421.88
496.639	13540.66
496.843	13563.19
497.046	13999.4
497.249	13804.85
497.453	14107.94
497.656	14095.66
497.859	14386.47
498.063	14150.95
498.266	14540.07
498.469	14542.11
498.673	14857.5
498.876	14931.23
499.079	15052.06
499.282	14851.36
499.485	15367.45
499.689	15414.55
499.892	15543.57
500.095	15887.63
500.298	16213.26
500.501	15777.04
500.705	16516.36
500.908	16674.05
501.111	16583.94
501.314	16815.36
501.517	17181.95
501.72	17097.98
501.923	17122.55
502.126	17558.77
502.329	17849.58
502.532	17849.58
502.735	17939.69
502.938	18644.2
503.141	18623.72
503.344	18781.41
503.547	18773.22
503.75	18939.1
503.953	19188.96
504.156	19602.64
504.359	19649.75
504.562	19604.69
504.765	20155.6
504.968	20266.19
505.17	20368.59
505.373	20487.37
505.576	21038.27
505.779	20991.17
505.982	21322.94
506.185	21634.23
506.387	21767.35
506.59	21834.93
506.793	22320.3
506.996	22281.39
507.198	23137.44
507.401	22602.92
507.604	23276.7
507.807	23512.22
508.009	23405.72
508.212	24065.17
508.415	24032.4
508.617	24122.51
508.82	24552.59
509.022	24374.41
509.225	24837.25
509.428	25238.65
509.63	25261.18
509.833	25556.09
510.035	25910.39
510.238	26029.17
510.44	26211.44
510.643	26563.69
510.845	26793.06
511.048	27018.34
511.25	27270.24
511.453	27374.69
511.655	28240.98
511.858	27737.18
512.06	28267.6
512.262	28343.38
512.465	28347.47
512.667	29267.01
512.87	29230.15
513.072	29099.08
513.274	30139.44
513.477	30053.43
513.679	30225.46
513.881	30770.22
514.084	30811.18
514.286	31101.99
514.488	31079.46
514.69	32009.24
514.893	32173.08
515.095	32080.92
515.297	32627.73
515.499	32750.6
515.701	32891.91
515.904	33383.43
516.106	33750.01
516.308	33862.65
516.51	34350.07
516.712	34450.42
516.914	34636.78
517.116	34964.46
517.318	35195.88
517.52	35144.68
517.722	35449.83
517.925	36094.94
518.127	36623.31
518.329	36721.62
518.531	36482
518.733	37303.24
518.935	37305.29
519.136	37411.78
519.338	38108.09
519.54	38441.91
519.742	38366.13
519.944	38378.42
520.146	39711.65
520.348	39179.18
520.55	39756.71
520.752	39447.46
520.954	40323.99
521.155	40090.52
521.357	40655.76
521.559	41010.06
521.761	41354.12
521.963	41057.17
522.164	41524.1
522.366	41694.08
522.568	41923.46
522.77	42322.81
522.971	42713.97
523.173	42756.98
523.375	43107.18
523.576	43047.79
523.778	43412.33
523.98	43641.7
524.181	44061.54
524.383	43914.08
524.584	44372.83
524.786	44116.83
524.988	44211.04
525.189	44925.78
525.391	45259.6
525.592	45251.41
525.794	45405
525.995	45484.87
526.197	45679.43
526.398	45513.55
526.6	46076.74
526.801	46097.22
527.003	46506.81
527.204	46410.56
527.406	46930.74
527.607	46971.7
527.808	47459.12
528.01	46467.9
528.211	46797.62
528.412	47655.72
528.614	47297.33
528.815	47473.45
529.016	48274.21
529.218	47450.92
529.419	47602.47
529.62	47713.06
529.822	48294.69
530.023	47934.24
530.224	48278.3
530.425	48239.39
530.626	47758.12
530.828	48134.95
531.029	49261.33
531.23	48354.08
531.431	48329.5
531.632	48950.04
531.833	48382.75
532.035	48855.83
532.236	48356.13
532.437	48806.68
532.638	48536.35
532.839	49302.29
533.04	48917.27
533.241	48659.23
533.442	49203.99
533.643	48970.52
533.844	48988.95
534.045	49038.1
534.246	48595.74
534.447	49517.32
534.648	49140.5
534.849	49453.84
535.05	48902.93
535.251	49455.89
535.451	48935.7
535.652	49208.08
535.853	48993.04
536.054	49228.56
536.255	49464.08
536.456	48823.06
536.657	49709.83
536.857	49318.67
537.058	48986.9
537.259	49406.73
537.46	49570.57
537.66	49494.8
537.861	49236.75
538.062	49273.62
538.263	49509.13
538.463	49085.2
538.664	49072.92
538.865	49558.28
539.065	49615.63
539.266	48849.69
539.466	49713.93
539.667	48775.96
539.868	49713.93
540.068	49400.59
540.269	49400.59
540.469	49330.96
540.67	48515.87
540.87	48972.56
541.071	49468.17
541.271	49185.55
541.472	48821.02
541.672	48921.37
541.873	48870.17
542.073	48431.9
542.274	49453.84
542.474	48800.54
542.675	48786.2
542.875	49142.55
543.075	48913.17
543.276	48079.65
543.476	49363.73
543.676	48493.34
543.877	48988.95
544.077	48696.09
544.277	48577.31
544.478	48157.47
544.678	48782.1
544.878	48481.05
545.078	48823.06
545.279	48716.57
545.479	48474.91
545.679	49175.31
545.879	48974.61
546.079	48900.89
546.28	48741.14
546.48	48251.68
546.68	48857.88
546.88	48632.6
547.08	48778.01
547.28	48298.78
547.48	48200.48
547.68	48782.1
547.88	48087.84
548.081	48868.12
548.281	48589.59
548.481	48571.16
548.681	48792.34
548.881	48519.96
549.081	48161.57
549.28	48335.65
549.48	48372.51
549.68	48018.21
549.88	48913.17
550.08	48349.98
550.28	48509.72
550.48	48405.28
550.68	48618.27
550.88	47889.19
551.08	48098.08
551.279	48538.4
551.479	47657.77
551.679	48247.58
551.879	48450.33
552.079	48474.91
552.278	47706.92
552.478	48042.79
552.678	48053.03
552.878	48497.44
553.077	48055.07
553.277	47655.72
553.477	48147.23
553.676	48306.97
553.876	48059.17
554.076	47684.39
554.275	47493.93
554.475	47749.93
554.674	47844.13
554.874	48151.33
555.074	47846.18
555.273	47799.08
555.473	47668.01
555.672	47190.83
555.872	47467.31
556.071	47754.02
556.271	47848.23
556.47	47168.3
556.67	46684.98
556.869	47264.56
557.068	47665.96
557.268	47145.78
557.467	47457.07
557.667	47014.71
557.866	47092.53
558.065	47033.14
558.265	47282.99
558.464	46799.67
558.663	46924.6
558.863	46474.04
559.062	47342.38
559.261	46414.65
559.461	46807.86
559.66	46619.45
559.859	46906.16
560.058	46375.74
560.258	46717.75
560.457	46433.08
560.656	46457.66
560.855	46007.11
561.054	46314.3
561.253	46412.6
561.453	46289.73
561.652	46377.79
561.851	46410.56
562.05	46596.92
562.249	45734.73
562.448	45839.17
562.647	45816.64
562.846	45460.3
563.045	45830.98
563.244	45241.17
563.443	45726.53
563.642	45038.42
563.841	45421.39
564.04	45304.65
564.239	45701.96
564.438	44702.55
564.637	45312.84
564.836	45480.78
565.035	44538.71
565.234	44997.46
565.432	44694.36
565.631	44534.62
565.83	44589.91
566.029	44464.99
566.228	44163.93
566.427	44233.57
566.625	44049.25
566.824	44127.07
567.023	44301.15
567.222	43727.72
567.42	44399.45
567.619	43942.75
567.818	43621.22
568.016	43877.22
568.215	43971.43
568.414	43653.99
568.612	44227.42
568.811	43629.41
569.01	43406.19
569.208	43000.69
569.407	43408.23
569.605	42924.91
569.804	43557.74
570.002	42814.32
570.201	43215.72
570.4	42666.87
570.598	42490.74
570.797	42177.4
570.995	42695.54
571.193	41698.18
571.392	42503.03
571.59	41999.23
571.789	42261.37
571.987	41902.98
572.186	41724.8
572.384	42054.53
572.582	41833.35
572.781	41571.21
572.979	41311.11
573.177	41624.45
573.376	41651.08
573.574	41259.91
573.772	41442.18
573.971	41067.41
574.169	40932.24
574.367	40674.2
574.565	40999.82
574.763	40766.35
574.962	41055.12
575.16	40043.42
575.358	40713.11
575.556	40207.26
575.754	40797.07
575.952	40334.23
576.151	40426.39
576.349	39869.34
576.547	39902.11
576.745	40348.57
576.943	40233.88
577.141	39846.82
577.339	40049.56
577.537	39807.9
577.735	39320.49
577.933	39007.15
578.131	39682.98
578.329	39066.54
578.527	38742.96
578.725	38638.51
578.923	39410.6
579.121	39091.12
579.319	38742.96
579.516	38839.22
579.714	39005.1
579.912	38472.63
580.11	38310.84
580.308	38685.62
580.506	38118.33
580.704	37794.75
580.901	38003.64
581.099	37987.26
581.297	38075.32
581.495	37737.41
581.692	37903.29
581.89	37454.79
582.088	37770.18
582.285	37493.7
582.483	37729.22
582.681	37114.83
582.878	36811.73
583.076	37112.78
583.274	37426.12
583.471	36422.61
583.669	36871.12
583.866	36774.86
584.064	36971.47
584.262	36060.12
584.459	36860.88
584.657	36395.99
584.854	36703.18
585.052	35740.64
585.249	36039.64
585.447	36547.54
585.644	35834.85
585.841	35898.33
586.039	36271.06
586.236	35709.92
586.434	35367.91
586.631	35441.64
586.828	35417.06
587.026	35369.96
587.223	35402.72
587.42	35283.94
587.618	35466.21
587.815	34821.1
588.012	34995.18
588.21	34919.4
588.407	35087.34
588.604	34321.4
588.801	34438.13
588.999	34489.33
589.196	34411.51
589.393	34468.85
589.59	34003.96
589.787	34384.88
589.984	33909.75
590.182	33967.1
590.379	33919.99
590.576	33231.88
590.773	33733.63
590.97	33356.8
591.167	33235.97
591.364	33145.86
591.561	33506.3
591.758	33080.33
591.955	33364.99
592.152	33235.97
592.349	32826.38
592.546	32799.76
592.743	32934.92
592.94	32164.89
593.137	32734.22
593.334	32554
593.531	31937.56
593.727	32478.22
593.924	32138.26
594.121	31669.28
594.318	32414.74
594.515	31493.15
594.712	32085.01
594.908	31706.14
595.105	31986.71
595.302	31382.56
595.499	31507.49
595.696	31114.28
595.892	31075.37
596.089	31274.02
596.286	31233.06
596.482	30899.24
596.679	31304.74
596.876	30979.11
597.072	30665.77
597.269	30997.54
597.466	30503.98
597.662	30321.71
597.859	30506.03
598.055	30420.02
598.252	30209.08
598.448	30331.95
598.645	29946.94
598.841	30047.29
599.038	29717.56
599.234	30164.02
599.431	29672.51
599.627	29836.34
599.824	29412.42
600.02	29500.48
600.217	29500.48
600.413	29576.25
600.609	29258.82
600.806	28757.07
601.002	29209.67
601.198	29092.93
601.395	28781.64
601.591	28523.6
601.787	28578.89
601.984	28357.71
602.18	28771.4
602.376	28277.84
602.572	28472.4
602.769	28228.69
602.965	28050.52
603.161	28322.9
603.357	28081.24
603.553	27751.51
603.75	28142.67
603.946	27577.44
604.142	27831.38
604.338	27581.53
604.534	27776.09
604.73	27395.17
604.926	27274.34
605.122	27456.61
605.318	27307.1
605.514	27135.07
605.71	26778.73
605.906	26965.09
606.102	26897.51
606.298	27071.59
606.494	26817.64
606.69	26532.97
606.886	27096.16
607.082	26455.15
607.278	26811.49
607.474	26190.96
607.67	26682.47
607.866	25785.46
608.062	26557.55
608.257	26229.87
608.453	26395.76
608.649	26297.45
608.845	25992.31
609.041	26238.06
609.236	26008.69
609.432	25836.66
609.628	26084.47
609.824	25799.8
610.019	25820.28
610.215	25613.43
610.411	25982.07
610.606	25801.85
610.802	25300.09
610.998	25721.98
611.193	25629.82
611.389	25361.53
611.584	25633.91
611.78	25242.75
611.976	25531.51
612.171	25312.38
612.367	25173.12
612.562	25011.33
612.758	25121.92
612.953	24958.08
613.149	25068.67
613.344	25060.48
613.539	25293.95
613.735	24951.94
613.93	24956.04
614.126	24654.98
614.321	24872.07
614.517	24757.38
614.712	24794.25
614.907	24597.64
615.103	24888.45
615.298	24507.53
615.493	24722.57
615.688	24298.64
615.884	24708.23
616.079	24208.53
616.274	24519.82
616.47	24181.9
616.665	24302.73
616.86	24138.9
617.055	24261.77
617.25	24298.64
617.445	24456.33
617.641	23682.2
617.836	23891.09
618.031	23633.05
618.226	24030.35
618.421	23471.26
618.616	24075.41
618.811	23241.89
619.006	24087.7
619.201	23151.77
619.396	23475.35
619.591	23145.63
619.786	23370.91
619.981	22910.11
620.176	23084.19
620.371	22682.79
620.566	23020.7
620.761	22658.21
620.956	22854.82
621.151	22699.17
621.346	22394.03
621.541	22426.79
621.735	22219.95
621.93	22084.78
622.125	22109.36
622.32	21632.18
622.515	21937.33
622.709	21615.8
622.904	21699.76
623.099	21591.22
623.294	21564.6
623.488	21308.6
623.683	21466.3
623.878	20995.26
624.072	20901.06
624.267	21167.29
624.462	20847.81
624.656	20636.87
624.851	20395.21
625.046	20366.54
625.24	20337.87
625.435	20278.47
625.629	20366.54
625.824	20042.96
626.018	20008.14
626.213	19360.98
626.407	19920.08
626.602	19490.01
626.796	19741.91
626.991	19449.05
627.185	19518.68
627.38	19191
627.574	18834.66
627.768	18777.31
627.963	18685.15
628.157	18570.47
628.352	18744.55
628.546	18279.66
628.74	18705.63
628.935	18478.31
629.129	18382.06
629.323	18234.6
629.517	18078.96
629.712	18035.95
629.906	18181.35
630.1	17661.17
630.294	17632.5
630.489	17644.79
630.683	17526
630.877	17292.54
631.071	17439.99
631.265	17306.87
631.459	17196.28
631.653	17034.49
631.848	16934.14
632.042	16672
632.236	16901.37
632.43	16710.91
632.624	16778.5
632.818	16680.19
633.012	16516.36
633.206	16207.11
633.4	16293.13
633.594	15785.23
633.788	16053.52
633.982	16168.2
634.176	16164.11
634.369	15621.39
634.563	16049.42
634.757	15637.78
634.951	15844.62
635.145	15545.62
635.339	15523.09
635.533	15123.74
635.726	15678.74
635.92	15336.73
636.114	15353.11
636.308	15228.18
636.501	15176.98
636.695	15148.31
636.889	14845.21
637.083	14857.5
637.276	14910.75
637.47	14738.72
637.664	14495.01
637.857	14673.18
638.051	14650.66
638.244	14701.86
638.438	14173.48
638.632	14183.72
638.825	14101.8
639.019	14101.8
639.212	13923.63
639.406	14103.85
639.599	13884.72
639.793	14011.69
639.986	13684.02
640.18	13831.47
640.373	13741.36
640.567	13604.14
640.76	13557.04
640.954	13280.57
641.147	13180.21
641.34	13227.32
641.534	13260.09
641.727	13288.76
641.92	12965.18
642.114	12881.21
642.307	12979.51
642.5	12977.47
642.694	12670.27
642.887	12457.28
643.08	12827.96
643.273	12377.41
643.467	12389.7
643.66	12344.64
643.853	12283.2
644.046	12113.22
644.239	12182.85
644.432	12100.94
644.626	12164.42
644.819	11824.46
645.012	12102.98
645.205	11984.2
645.398	11910.47
645.591	11613.52
645.784	11816.27
645.977	11713.87
646.17	11580.75
646.363	11531.6
646.556	11584.85
646.749	11695.44
646.942	11595.09
647.135	11318.61
647.328	11173.21
647.521	11410.77
647.714	11128.15
647.907	11165.01
648.099	11167.06
648.292	11003.22
648.485	10970.46
648.678	10845.53
648.871	10671.45
649.064	10677.6
649.256	10741.08
649.449	10480.99
649.642	10526.05
649.835	10681.69
650.027	10487.14
650.22	10460.51
650.413	10319.2
650.605	10358.11
650.798	10153.32
650.991	10087.78
651.183	10163.56
651.376	10038.63
651.568	9971.05
651.761	9887.08
651.954	9909.61
652.146	9977.19
652.339	9796.97
652.531	9878.89
652.724	9778.54
652.916	9473.39
653.109	9524.59
653.301	9774.44
653.494	9698.67
653.686	9532.78
653.879	9407.86
654.071	9434.48
654.263	9440.62
654.456	9442.67
654.648	9360.75
654.84	9074.04
655.033	8985.97
655.225	9188.72
655.417	9076.09
655.61	9272.69
655.802	8945.02
655.994	8873.34
656.186	8975.74
656.379	8709.5
656.571	8848.76
656.763	8742.27
656.955	8715.64
657.148	8836.47
657.34	8691.07
657.532	8529.28
657.724	8494.46
657.916	8473.98
658.108	8439.17
658.3	8250.75
658.492	8449.41
658.684	8125.83
658.876	8201.6
659.068	8123.78
659.26	8238.47
659.452	8338.82
659.644	8148.36
659.836	7939.46
660.028	8230.27
660.22	7755.15
660.412	7949.7
660.604	7751.05
660.796	7841.16
660.988	7804.3
661.18	7712.14
661.372	7781.77
661.563	7798.15
661.755	7642.51
661.947	7583.12
662.139	7466.38
662.331	7474.57
662.522	7454.09
662.714	7413.13
662.906	7558.54
663.097	7521.68
663.289	7421.33
663.481	7361.94
663.673	7333.26
663.864	7220.63
664.056	7402.9
664.247	7181.71
664.439	7099.8
664.631	7026.07
664.822	7431.57
665.014	6968.73
665.205	7032.21
665.397	7003.54
665.588	6845.85
665.78	6817.18
665.971	6913.43
666.163	6843.8
666.354	6954.39
666.546	6700.44
666.737	6464.93
666.929	6716.83
667.12	6737.31
667.311	6731.16
667.503	6598.04
667.694	6477.21
667.885	6471.07
668.077	6524.32
668.268	6518.17
668.459	6344.1
668.651	6501.79
668.842	6440.35
669.033	6256.03
669.224	6303.14
669.416	6415.77
669.607	6440.35
669.798	6075.81
669.989	6135.2
670.18	6202.79
670.371	6065.57
670.563	6161.83
670.754	6303.14
670.945	6061.48
671.136	5975.46
671.327	6090.15
671.518	5928.36
671.709	6020.52
671.9	6047.14
672.091	5985.7
672.282	5940.65
672.473	5881.25
672.664	5924.26
672.855	5793.19
673.046	5692.84
673.237	5942.69
673.428	5901.73
673.619	5889.45
673.809	5721.51
674	5598.63
674.191	5596.59
674.382	5586.35
674.573	5649.83
674.764	5598.63
674.954	5574.06
675.145	5434.8
675.336	5434.8
675.527	5326.25
675.717	5467.56
675.908	5430.7
676.099	5330.35
676.289	5494.19
676.48	5377.45
676.671	5438.89
676.861	5408.17
677.052	5313.97
677.243	5266.86
677.433	5244.34
677.624	5279.15
677.814	5096.88
678.005	5279.15
678.195	5172.66
678.386	5064.11
678.576	5139.89
678.767	5164.47
678.957	5129.65
679.148	5066.16
679.338	5281.2
679.529	5076.4
679.719	4928.95
679.909	5072.31
680.1	5023.16
680.29	5033.4
680.481	4990.39
680.671	4986.29
680.861	4847.03
681.052	5074.35
681.242	4822.45
681.432	5023.16
681.622	4879.8
681.813	4902.33
682.003	4943.28
682.193	4910.52
682.383	4859.32
682.573	4879.8
682.764	4822.45
682.954	4771.26
683.144	4953.52
683.334	4787.64
683.524	4720.06
683.714	4713.91
683.904	4750.78
684.094	4924.85
684.284	4728.25
684.474	4763.06
684.664	4756.92
684.854	4664.76
685.044	4732.34
685.234	4619.71
685.424	4812.21
685.614	4595.13
685.804	4652.47
685.994	4529.59
686.184	4550.07
686.374	4558.27
686.564	4568.51
686.753	4386.24
686.943	4294.08
687.133	4445.63
687.323	4421.05
687.513	4355.52
687.702	4449.72
687.892	4353.47
688.082	4392.38
688.272	4328.89
688.461	4115.91
688.651	4343.23
688.841	4281.79
689.03	4361.66
689.22	4212.16
689.41	4253.12
689.599	4103.62
689.789	4193.73
689.979	4076.99
690.168	4048.32
690.358	3978.69
690.547	3984.84
690.737	4099.52
690.926	4099.52
691.116	3962.31
691.305	3995.08
691.495	3925.44
691.684	3984.84
691.874	3900.87
692.063	3968.45
692.252	3845.57
692.442	3970.5
692.631	3741.13
692.82	3896.77
693.01	3745.22
693.199	3753.41
693.388	3855.81
693.578	3749.32
693.767	3769.8
693.956	3667.4
694.146	3651.02
694.335	3708.36
694.524	3630.54
694.713	3626.44
694.902	3665.35
695.092	3653.06
695.281	3569.1
695.47	3628.49
695.659	3476.94
695.848	3558.86
696.037	3540.43
696.226	3624.39
696.415	3460.56
696.604	3448.27
696.793	3466.7
696.982	3544.52
697.171	3302.86
697.36	3493.32
697.549	3468.75
697.738	3493.32
697.927	3501.51
698.116	3532.23
698.305	3335.63
698.494	3483.08
698.683	3481.03
698.872	3554.76
699.061	3421.64
699.25	3374.54
699.438	3374.54
699.627	3390.92
699.816	3407.31
700.005	3438.03
700.193	3372.49
700.382	3343.82
700.571	3380.68
700.76	3319.25
700.948	3294.67
701.137	3454.41
701.326	3315.15
701.514	3335.63
701.703	3335.63
701.892	3263.95
702.08	3204.56
702.269	3237.33
702.457	3227.09
702.646	3132.88
702.834	3364.3
703.023	3175.89
703.212	3196.37
703.4	3149.26
703.589	3241.42
703.777	3182.03
703.965	3214.8
704.154	3093.97
704.342	3126.74
704.531	3214.8
704.719	3132.88
704.907	3069.39
705.096	3163.6
705.284	3208.66
705.472	3186.13
705.661	3059.15
705.849	3194.32
706.037	3108.3
706.226	3188.18
706.414	3012.05
706.602	3036.63
706.79	3061.2
706.979	3145.17
707.167	3134.93
707.355	3007.95
707.543	3110.35
707.731	2987.47
707.919	3067.35
708.107	3020.24
708.296	3091.92
708.484	3157.46
708.672	3091.92
708.86	3048.91
709.048	3124.69
709.236	3044.82
709.424	3179.98
709.612	3085.78
709.8	3012.05
709.988	3055.06
710.176	2977.23
710.364	3110.35
710.551	3130.83
710.739	3048.91
710.927	3044.82
711.115	3136.98
711.303	3007.95
711.491	2921.94
711.679	3106.26
711.866	3003.86
712.054	3020.24
712.242	2923.99
712.43	2991.57
712.617	3059.15
712.805	2928.08
712.993	3026.39
713.181	2889.17
713.368	2923.99
713.556	3036.63
713.744	2928.08
713.931	3028.43
714.119	2921.94
714.306	2862.55
714.494	2973.14
714.682	2952.66
714.869	2901.46
715.057	2942.42
715.244	2891.22
715.432	2911.7
715.619	2983.38
715.807	2907.6
715.994	2919.89
716.182	2899.41
716.369	2926.04
716.556	2938.32
716.744	2899.41
716.931	2858.45
717.119	2981.33
717.306	2831.83
717.493	2958.8
717.681	2938.32
717.868	2907.6
718.055	2964.95
718.242	2829.78
718.43	2964.95
718.617	3014.1
718.804	2952.66
718.991	2844.12
719.179	2844.12
719.366	2856.4
719.553	2837.97
719.74	2856.4
719.927	2835.92
720.114	2893.27
720.301	2903.51
720.488	2923.99
720.676	2772.44
720.863	2858.45
721.05	2874.84
721.237	2979.28
721.424	2930.13
721.611	2958.8
721.798	2760.15
721.985	2778.58
722.172	2919.89
722.358	2840.02
722.545	2844.12
722.732	2905.56
722.919	2842.07
723.106	2784.73
723.293	2917.84
723.48	2837.97
723.667	2813.4
723.853	2792.92
724.04	2880.98
724.227	2946.52
724.414	2780.63
724.6	2799.06
724.787	2815.45
724.974	2801.11
725.161	2807.25
725.347	2817.49
725.534	2719.19
725.72	2885.08
725.907	2854.36
726.094	2727.38
726.28	2778.58
726.467	2889.17
726.653	2915.8
726.84	2823.64
727.027	2825.68
727.213	2868.69
727.4	2794.97
727.586	2889.17
727.773	2860.5
727.959	2842.07
728.145	2840.02
728.332	2831.83
728.518	2692.57
728.705	2977.23
728.891	2809.3
729.077	2860.5
729.264	2846.16
729.45	2876.88
729.636	2848.21
729.823	2866.64
730.009	2885.08
730.195	2815.45
730.382	2905.56
730.568	2866.64
730.754	2797.01
730.94	2770.39
731.126	2913.75
731.313	2772.44
731.499	2790.87
731.685	2848.21
731.871	2799.06
732.057	2833.88
732.243	2741.72
732.429	2876.88
732.615	2944.47
732.801	2784.73
732.987	2780.63
733.173	2878.93
733.359	2780.63
733.545	2766.29
733.731	2776.53
733.917	2848.21
734.103	2743.77
734.289	2786.77
734.475	2749.91
734.661	2817.49
734.847	2815.45
735.033	2749.91
735.219	2938.32
735.404	2876.88
735.59	2952.66
735.776	2735.57
735.962	2794.97
736.148	2799.06
736.333	2700.76
736.519	2813.4
736.705	2868.69
736.89	2782.68
737.076	2784.73
737.262	2649.56
737.447	2745.81
737.633	2862.55
737.819	2708.95
738.004	2678.23
738.19	2676.18
738.375	2731.48
738.561	2688.47
738.747	2653.66
738.932	2733.53
739.118	2819.54
739.303	2741.72
739.489	2792.92
739.674	2674.14
739.859	2686.42
740.045	2729.43
740.23	2670.04
740.416	2635.22
740.601	2684.38
740.786	2553.31
740.972	2739.67
741.157	2559.45
741.342	2543.07
741.528	2651.61
741.713	2700.76
741.898	2651.61
742.084	2667.99
742.269	2635.22
742.454	2563.54
742.639	2555.35
742.824	2545.11
743.01	2622.94
743.195	2588.12
743.38	2532.83
743.565	2684.38
743.75	2559.45
743.935	2459.1
744.12	2545.11
744.305	2495.96
744.49	2528.73
744.675	2450.91
744.86	2477.53
745.045	2577.88
745.23	2532.83
745.415	2282.97
745.6	2375.13
745.785	2495.96
745.97	2432.47
746.155	2373.08
746.34	2321.88
746.525	2450.91
746.71	2409.95
746.895	2317.79
747.079	2387.42
747.264	2315.74
747.449	2250.21
747.634	2381.28
747.819	2336.22
748.003	2336.22
748.188	2317.79
748.373	2174.43
748.557	2244.06
748.742	2268.64
748.927	2233.82
749.111	2135.52
749.296	2166.24
749.481	2201.05
749.665	2256.35
749.85	2291.17
750.034	2156
750.219	2166.24
750.404	2031.07
750.588	2076.13
750.773	2045.41
750.957	2160.1
751.141	2006.5
751.326	2045.41
751.51	1926.63
751.695	2016.74
751.879	1977.83
752.064	1986.02
752.248	1949.15
752.432	1975.78
752.617	1983.97
752.801	1963.49
752.985	1998.31
753.17	1902.05
753.354	1930.72
753.538	1863.14
753.722	1906.15
753.907	1910.24
754.091	1787.36
754.275	1795.56
754.459	1826.28
754.643	1809.89
754.828	1740.26
755.012	1836.52
755.196	1813.99
755.38	1752.55
755.564	1711.59
755.748	1742.31
755.932	1773.03
756.116	1658.34
756.3	1697.25
756.484	1596.9
756.668	1601
756.852	1529.32
757.036	1764.84
757.22	1621.48
757.404	1674.73
757.588	1670.63
757.772	1740.26
757.956	1547.75
758.14	1670.63
758.323	1484.27
758.507	1641.96
758.691	1537.51
758.875	1572.33
759.059	1514.98
759.242	1582.57
759.426	1474.03
759.61	1631.72
759.794	1451.5
759.977	1521.13
760.161	1562.09
760.345	1490.41
760.528	1555.94
760.712	1431.02
760.895	1471.98
761.079	1373.68
761.263	1494.51
761.446	1404.39
761.63	1365.48
761.813	1435.11
761.997	1369.58
762.18	1365.48
762.364	1375.72
762.547	1394.15
762.731	1322.48
762.914	1295.85
763.098	1271.28
763.281	1322.48
763.464	1347.05
763.648	1318.38
763.831	1318.38
764.015	1250.8
764.198	1418.73
764.381	1267.18
764.564	1299.95
764.748	1297.9
764.931	1340.91
765.114	1316.33
765.297	1351.15
765.481	1238.51
765.664	1314.28
765.847	1304.04
766.03	1220.08
766.213	1273.32
766.397	1254.89
766.58	1226.22
766.763	1201.65
766.946	1201.65
767.129	1365.48
767.312	1144.3
767.495	1195.5
767.678	1168.88
767.861	1220.08
768.044	1207.79
768.227	1215.98
768.41	1267.18
768.593	1224.17
768.776	1240.56
768.959	1154.54
769.142	1132.01
769.324	1160.69
769.507	1175.02
769.69	1107.44
769.873	1072.62
770.056	1136.11
770.239	1177.07
770.421	1185.26
770.604	1183.21
770.787	1238.51
770.97	1089.01
771.152	1082.86
771.335	1097.2
771.518	1103.34
771.7	1099.25
771.883	1097.2
772.066	1095.15
772.248	1074.67
772.431	1119.73
772.613	1179.12
772.796	964.08
772.978	1052.14
773.161	1009.14
773.343	1101.3
773.526	1093.1
773.708	927.22
773.891	1011.18
774.073	1041.9
774.256	1011.18
774.438	1050.1
774.621	1054.19
774.803	1011.18
774.985	994.8
775.168	1007.09
775.35	933.36
775.532	955.89
775.715	949.75
775.897	949.75
776.079	867.83
776.261	871.92
776.444	949.75
776.626	873.97
776.808	914.93
776.99	886.26
777.173	845.3
777.355	884.21
777.537	869.87
777.719	802.29
777.901	894.45
778.083	781.81
778.265	828.92
778.447	876.02
778.629	720.37
778.811	767.48
778.993	824.82
779.175	882.16
779.357	843.25
779.539	728.56
779.721	642.55
779.903	876.02
780.085	794.1
780.267	706.04
780.449	738.8
780.631	812.53
780.812	728.56
780.994	808.44
781.176	716.28
781.358	783.86
781.54	724.47
781.721	712.18
781.903	720.37
782.085	681.46
782.267	718.33
782.448	718.33
782.63	652.79
782.812	732.66
782.993	581.11
783.175	622.07
783.357	636.41
783.538	714.23
783.72	681.46
783.901	685.56
784.083	624.12
784.264	650.74
784.446	620.02
784.627	650.74
784.809	597.49
784.99	622.07
785.172	624.12
785.353	566.78
785.535	642.55
785.716	652.79
785.897	540.15
786.079	601.59
786.26	521.72
786.441	462.33
786.623	620.02
786.804	568.82
786.985	536.06
787.167	613.88
787.348	531.96
787.529	585.21
787.71	534.01
787.891	540.15
788.073	581.11
788.254	429.56
788.435	613.88
788.616	476.66
788.797	472.57
788.978	480.76
789.159	488.95
789.34	505.34
789.522	460.28
789.703	466.42
789.884	460.28
790.065	480.76
790.246	509.43
790.427	472.57
790.607	529.91
790.788	538.1
790.969	476.66
791.15	497.14
791.331	552.44
791.512	450.04
791.693	462.33
791.874	468.47
792.054	443.9
792.235	437.75
792.416	380.41
792.597	402.94
792.778	402.94
792.958	431.61
793.139	458.23
793.32	384.51
793.5	468.47
793.681	450.04
793.862	355.83
794.042	433.66
794.223	368.12
794.404	349.69
794.584	409.08
794.765	366.07
794.945	329.21
795.126	476.66
795.306	368.12
795.487	347.64
795.667	409.08
795.848	441.85
796.028	337.4
796.209	384.51
796.389	415.23
796.57	386.55
796.75	390.65
796.93	323.07
797.111	353.79
797.291	366.07
797.471	411.13
797.652	335.35
797.832	394.75
798.012	411.13
798.192	308.73
798.373	357.88
798.553	323.07
798.733	341.5
798.913	370.17
799.093	308.73
799.274	347.64
799.454	339.45
799.634	370.17
799.814	331.26
799.994	359.93
800.174	282.11
800.354	273.92
800.534	267.77
800.714	310.78
800.894	288.25
801.074	251.39
801.254	255.48
801.434	353.79
801.614	257.53
801.794	263.68
801.974	663.03
802.154	298.49
802.334	304.64
802.514	296.44
802.693	318.97
802.873	251.39
803.053	310.78
803.233	296.44
803.413	286.2
803.592	249.34
803.772	312.83
803.952	298.49
804.131	284.16
804.311	280.06
804.491	249.34
804.67	267.77
804.85	235
805.03	218.62
805.209	310.78
805.389	259.58
805.568	249.34
805.748	278.01
805.928	286.2
806.107	224.76
806.287	275.96
806.466	237.05
806.646	173.57
806.825	259.58
807.004	249.34
807.184	304.64
807.363	286.2
807.543	349.69
807.722	173.57
807.901	169.47
808.081	284.16
808.26	161.28
808.439	310.78
808.619	253.44
808.798	300.54
808.977	247.29
809.156	292.35
809.336	282.11
809.515	286.2
809.694	243.2
809.873	228.86
810.052	290.3
810.231	329.21
810.411	243.2
810.59	183.81
810.769	212.48
810.948	310.78
811.127	302.59
811.306	247.29
811.485	251.39
811.664	198.14
811.843	212.48
812.022	212.48
812.201	126.46
812.38	241.15
812.559	226.81
812.737	255.48
812.916	245.24
813.095	210.43
813.274	253.44
813.453	189.95
813.632	265.72
813.811	226.81
813.989	155.13
814.168	167.42
814.347	239.1
814.526	206.33
814.704	173.57
814.883	210.43
815.062	228.86
815.24	202.24
815.419	173.57
815.598	185.85
815.776	153.09
815.955	192
816.133	148.99
816.312	263.68
816.49	77.31
816.669	187.9
816.847	206.33
817.026	194.05
817.204	189.95
817.383	175.61
817.561	216.57
817.74	179.71
817.918	204.28
818.097	216.57
818.275	140.8
818.453	122.37
818.632	189.95
818.81	165.37
818.988	132.61
819.167	247.29
819.345	153.09
819.523	171.52
819.701	95.74
819.879	192
820.058	175.61
820.236	187.9
820.414	159.23
820.592	95.74
820.77	173.57
820.948	202.24
821.127	110.08
821.305	216.57
821.483	108.03
821.661	194.05
821.839	148.99
822.017	138.75
822.195	108.03
822.373	159.23
822.551	210.43
822.729	185.85
822.907	126.46
823.085	153.09
823.262	192
823.44	171.52
823.618	103.93
823.796	177.66
823.974	235
824.152	202.24
824.329	114.17
824.507	148.99
824.685	165.37
824.863	85.5
825.04	146.94
825.218	163.33
825.396	75.26
825.574	187.9
825.751	116.22
825.929	177.66
826.107	198.14
826.284	208.38
826.462	138.75
826.639	136.7
826.817	118.27
826.994	132.61
827.172	179.71
827.349	157.18
827.527	232.96
827.704	95.74
827.882	101.89
828.059	204.28
828.237	157.18
828.414	185.85
828.591	77.31
828.769	181.76
828.946	99.84
829.124	175.61
829.301	112.13
829.478	128.51
829.655	153.09
829.833	73.21
830.01	95.74
830.187	93.69
830.364	50.69
830.542	126.46
830.719	204.28
830.896	110.08
831.073	108.03
831.25	192
831.427	71.17
831.604	116.22
831.782	124.41
831.959	44.54
832.136	75.26
832.313	81.41
832.49	122.37
832.667	116.22
832.844	87.55
833.021	165.37
833.198	50.69
833.374	122.37
833.551	136.7
833.728	69.12
833.905	48.64
834.082	118.27
834.259	200.19
834.436	103.93
834.612	85.5
834.789	114.17
834.966	97.79
835.143	83.45
835.319	28.16
835.496	83.45
835.673	108.03
835.85	167.42
836.026	93.69
836.203	58.88
836.38	134.65
836.556	165.37
836.733	87.55
836.909	120.32
837.086	46.59
837.262	69.12
837.439	71.17
837.616	91.65
837.792	52.74
837.968	146.94
838.145	30.21
838.321	50.69
838.498	124.41
838.674	54.78
838.851	32.26
839.027	79.36
839.203	116.22
839.38	32.26
839.556	81.41
839.732	101.89
839.909	79.36
840.085	93.69
840.261	30.21
840.437	9.73
840.614	50.69
840.79	116.22
840.966	56.83
841.142	105.98
841.318	103.93
841.494	97.79
841.671	97.79
841.847	75.26
842.023	17.92
842.199	30.21
842.375	77.31
842.551	89.6
842.727	77.31
842.903	58.88
843.079	159.23
843.255	38.4
843.431	101.89
843.607	81.41
843.783	42.5
843.959	146.94
844.134	77.31
844.31	95.74
844.486	60.93
844.662	97.79
844.838	71.17
845.013	93.69
845.189	153.09
845.365	103.93
845.541	142.85
845.716	83.45
845.892	69.12
846.068	71.17
846.244	79.36
846.419	56.83
846.595	38.4
846.77	77.31
846.946	75.26
847.122	79.36
847.297	79.36
847.473	28.16
847.648	79.36
847.824	28.16
847.999	28.16
848.175	58.88
848.35	38.4
848.526	54.78
848.701	85.5
848.876	110.08
849.052	103.93
849.227	118.27
849.403	71.17
849.578	118.27
849.753	3.58
849.929	110.08
850.104	-8.7
850.279	1.54
850.454	-55.81
850.63	103.93
850.805	32.26
850.98	112.13
851.155	-16.9
851.33	26.11
851.505	11.78
851.681	79.36
851.856	-16.9
852.031	108.03
852.206	81.41
852.381	52.74
852.556	13.82
852.731	114.17
852.906	99.84
853.081	17.92
853.256	56.83
853.431	-27.14
853.606	7.68
853.781	34.3
853.956	52.74
854.131	62.98
854.305	69.12
854.48	-2.56
854.655	40.45
854.83	-8.7
855.005	46.59
855.18	38.4
855.354	79.36
855.529	34.3
855.704	32.26
855.879	85.5
856.053	67.07
856.228	32.26
856.403	91.65
856.577	128.51
856.752	36.35
856.926	91.65
857.101	-25.09
857.276	38.4
857.45	11.78
857.625	75.26
857.799	15.87
857.974	136.7
858.148	69.12
858.323	30.21
858.497	-4.61
858.672	69.12
858.846	28.16
859.02	89.6
859.195	-57.86
859.369	19.97
859.543	58.88
859.718	28.16
859.892	17.92
860.066	85.5
860.241	28.16
860.415	91.65
860.589	-35.33
860.763	48.64
860.938	15.87
861.112	30.21
861.286	42.5
861.46	65.02
861.634	48.64
861.808	40.45
861.982	-41.47
862.157	15.87
862.331	93.69
862.505	79.36
862.679	-2.56
862.853	30.21
863.027	42.5
863.201	95.74
863.375	-10.75
863.549	52.74
863.722	54.78
863.896	75.26
864.07	7.68
864.244	71.17
864.418	17.92
864.592	54.78
864.766	75.26
864.939	-4.61
865.113	-43.52
865.287	46.59
865.461	-25.09
865.634	48.64
865.808	52.74
865.982	-29.18
866.156	26.11
866.329	22.02
866.503	73.21
866.676	87.55
866.85	65.02
867.024	48.64
867.197	75.26
867.371	85.5
867.544	44.54
867.718	48.64
867.891	52.74
868.065	-20.99
868.238	118.27
868.412	116.22
868.585	24.06
868.759	79.36
868.932	22.02
869.105	54.78
869.279	9.73
869.452	1.54
869.625	-8.7
869.799	58.88
869.972	-4.61
870.145	65.02
870.319	-4.61
870.492	75.26
870.665	-16.9
870.838	-6.66
871.011	-47.62
871.185	-47.62
871.358	5.63
871.531	73.21
871.704	42.5
871.877	22.02
872.05	38.4
872.223	7.68
872.396	9.73
872.569	40.45
872.742	56.83
872.915	52.74
873.088	46.59
873.261	-10.75
873.434	15.87
873.607	24.06
873.78	28.16
873.953	-57.86
874.126	22.02
874.299	60.93
874.471	-2.56
874.644	75.26
874.817	3.58
874.99	54.78
875.163	32.26
875.335	91.65
875.508	32.26
875.681	7.68
875.853	-6.66
876.026	79.36
876.199	73.21
876.371	54.78
876.544	7.68
876.717	40.45
876.889	60.93
877.062	42.5
877.234	3.58
877.407	24.06
877.579	-64
877.752	44.54
877.924	79.36
878.097	17.92
878.269	75.26
878.442	67.07
878.614	-29.18
878.786	69.12
878.959	1.54
879.131	69.12
879.303	52.74
879.476	69.12
879.648	62.98
879.82	62.98
879.993	9.73
880.165	-14.85
880.337	-14.85
880.509	42.5
880.681	-86.53
880.854	-31.23
881.026	-12.8
881.198	83.45
881.37	24.06
881.542	85.5
881.714	95.74
881.886	40.45
882.058	1.54
882.23	28.16
882.402	120.32
882.574	-12.8
882.746	97.79
882.918	34.3
883.09	50.69
883.262	36.35
883.434	-23.04
883.606	40.45
883.778	19.97
883.95	34.3
884.122	-39.42
884.293	32.26
884.465	22.02
884.637	28.16
884.809	-0.51
884.98	79.36
885.152	-6.66
885.324	-6.66
885.496	-35.33
885.667	-37.38
885.839	-12.8
886.011	73.21
886.182	19.97
886.354	65.02
886.525	7.68
886.697	22.02
886.869	9.73
887.04	-29.18
887.212	42.5
887.383	81.41
887.555	34.3
887.726	1.54
887.897	13.82
888.069	13.82
888.24	62.98
888.412	42.5
888.583	9.73
888.754	-2.56
888.926	-76.29
889.097	28.16
889.268	9.73
889.44	-12.8
889.611	44.54
889.782	73.21
889.953	-0.51
890.125	38.4
890.296	-25.09
890.467	-20.99
890.638	30.21
890.809	9.73
890.98	9.73
891.151	75.26
891.323	34.3
891.494	28.16
891.665	-12.8
891.836	11.78
892.007	24.06
892.178	24.06
892.349	13.82
892.52	17.92
892.691	-64
892.862	15.87
893.032	-47.62
893.203	-8.7
893.374	-2.56
893.545	108.03
893.716	-80.38
893.887	34.3
894.057	-2.56
894.228	17.92
894.399	26.11
894.57	44.54
894.74	22.02
894.911	48.64
895.082	-31.23
895.253	19.97
895.423	52.74
895.594	75.26
895.764	60.93
895.935	32.26
896.106	-18.94
896.276	-57.86
896.447	-29.18
896.617	46.59
896.788	-4.61
896.958	9.73
897.129	38.4
897.299	50.69
897.47	24.06
897.64	-6.66
897.81	24.06
897.981	69.12
898.151	-84.48
898.322	-16.9
898.492	-4.61
898.662	89.6
898.832	13.82
899.003	22.02
899.173	65.02
899.343	-80.38
899.513	36.35
