Data from USB4F104151__7__11-44-26-195.txt Node

Date: Fri Mar 14 11:44:26 EDT 2025
User: louis
Spectrometer: USB4F10415
Trigger mode: 4
Integration Time (sec): 2.000000E-2
Scans to average: 1
Electric dark correction enabled: true
Nonlinearity correction enabled: false
Boxcar width: 0
XAxis mode: Wavelengths
Number of Pixels in Spectrum: 3648
>>>>>Begin Spectral Data<<<<<
178.204	-105.81
178.424	-105.81
178.644	-105.81
178.864	-95.57
179.084	-109.91
179.304	53.93
179.524	-54.61
179.744	53.93
179.964	21.16
180.184	10.92
180.404	15.02
180.624	-54.61
180.844	-27.99
181.064	-38.23
181.283	-7.51
181.503	23.21
181.723	4.78
181.943	-17.75
182.163	-15.7
182.383	12.97
182.602	-105.81
182.822	-19.8
183.042	-11.61
183.262	82.6
183.482	68.27
183.701	-11.61
183.921	0.68
184.141	8.87
184.361	37.55
184.58	53.93
184.8	27.31
185.02	-71
185.239	-17.75
185.459	49.83
185.679	12.97
185.898	-32.08
186.118	-1.37
186.338	-50.52
186.557	72.36
186.777	8.87
186.997	-103.76
187.216	-79.19
187.436	43.69
187.655	-36.18
187.875	27.31
188.095	58.03
188.314	-27.99
188.534	19.11
188.753	-93.52
188.973	-7.51
189.192	-13.65
189.412	27.31
189.631	-3.41
189.851	12.97
190.07	-30.04
190.29	-40.28
190.509	45.74
190.729	12.97
190.948	25.26
191.168	135.85
191.387	27.31
191.607	-9.56
191.826	-23.89
192.045	0.68
192.265	70.31
192.484	31.4
192.704	-17.75
192.923	58.03
193.142	33.45
193.362	17.07
193.581	39.59
193.8	19.11
194.02	4.78
194.239	-5.46
194.458	70.31
194.678	-44.37
194.897	-62.8
195.116	-19.8
195.335	2.73
195.555	43.69
195.774	53.93
195.993	-7.51
196.212	12.97
196.432	-91.48
196.651	37.55
196.87	62.12
197.089	72.36
197.308	-50.52
197.528	62.12
197.747	78.51
197.966	-15.7
198.185	58.03
198.404	8.87
198.623	43.69
198.842	31.4
199.062	-13.65
199.281	-44.37
199.5	4.78
199.719	39.59
199.938	12.97
200.157	31.4
200.376	103.08
200.595	-25.94
200.814	-36.18
201.033	-32.08
201.252	45.74
201.471	-9.56
201.69	62.12
201.909	92.84
202.128	17.07
202.347	-21.84
202.566	12.97
202.785	-68.95
203.004	-5.46
203.223	25.26
203.442	43.69
203.661	-27.99
203.879	64.17
204.098	31.4
204.317	-11.61
204.536	-40.28
204.755	-56.66
204.974	6.83
205.193	-71
205.411	35.5
205.63	-11.61
205.849	17.07
206.068	49.83
206.287	-19.8
206.505	84.65
206.724	35.5
206.943	-11.61
207.162	23.21
207.381	-9.56
207.599	25.26
207.818	53.93
208.037	-73.04
208.255	41.64
208.474	17.07
208.693	-54.61
208.911	-40.28
209.13	-66.9
209.349	-21.84
209.567	31.4
209.786	6.83
210.005	17.07
210.223	0.68
210.442	-3.41
210.661	-15.7
210.879	19.11
211.098	25.26
211.316	51.88
211.535	-7.51
211.753	-5.46
211.972	27.31
212.191	-17.75
212.409	41.64
212.628	-34.13
212.846	-3.41
213.065	-38.23
213.283	31.4
213.502	29.35
213.72	47.79
213.938	45.74
214.157	-19.8
214.375	37.55
214.594	10.92
214.812	2.73
215.031	53.93
215.249	35.5
215.467	82.6
215.686	-40.28
215.904	37.55
216.122	-34.13
216.341	33.45
216.559	29.35
216.778	47.79
216.996	17.07
217.214	45.74
217.432	29.35
217.651	21.16
217.869	45.74
218.087	21.16
218.306	90.79
218.524	31.4
218.742	-13.65
218.96	49.83
219.179	-17.75
219.397	-38.23
219.615	43.69
219.833	45.74
220.051	-17.75
220.27	15.02
220.488	39.59
220.706	76.46
220.924	4.78
221.142	-3.41
221.36	37.55
221.578	2.73
221.796	27.31
222.015	37.55
222.233	-32.08
222.451	45.74
222.669	-97.62
222.887	-46.42
223.105	51.88
223.323	8.87
223.541	49.83
223.759	62.12
223.977	45.74
224.195	-1.37
224.413	29.35
224.631	-71
224.849	39.59
225.067	6.83
225.285	45.74
225.503	-30.04
225.721	74.41
225.939	35.5
226.157	80.55
226.375	103.08
226.592	17.07
226.81	62.12
227.028	33.45
227.246	82.6
227.464	-30.04
227.682	-23.89
227.9	49.83
228.117	6.83
228.335	35.5
228.553	0.68
228.771	-11.61
228.989	37.55
229.206	0.68
229.424	-23.89
229.642	15.02
229.86	-9.56
230.077	15.02
230.295	15.02
230.513	8.87
230.731	53.93
230.948	98.99
231.166	-3.41
231.384	-40.28
231.601	35.5
231.819	29.35
232.037	51.88
232.254	-34.13
232.472	58.03
232.689	-38.23
232.907	35.5
233.125	19.11
233.342	33.45
233.56	33.45
233.777	-13.65
233.995	-19.8
234.213	39.59
234.43	0.68
234.648	-21.84
234.865	-34.13
235.083	0.68
235.3	-9.56
235.518	6.83
235.735	53.93
235.953	27.31
236.17	-1.37
236.388	-34.13
236.605	31.4
236.822	23.21
237.04	0.68
237.257	53.93
237.475	4.78
237.692	74.41
237.909	12.97
238.127	12.97
238.344	58.03
238.562	60.07
238.779	12.97
238.996	-30.04
239.214	-15.7
239.431	45.74
239.648	35.5
239.865	109.23
240.083	41.64
240.3	4.78
240.517	-30.04
240.735	39.59
240.952	-13.65
241.169	23.21
241.386	-36.18
241.603	74.41
241.821	19.11
242.038	51.88
242.255	60.07
242.472	12.97
242.689	58.03
242.907	47.79
243.124	-38.23
243.341	-46.42
243.558	-9.56
243.775	-21.84
243.992	6.83
244.209	117.42
244.426	37.55
244.643	84.65
244.86	-7.51
245.078	2.73
245.295	86.7
245.512	58.03
245.729	-46.42
245.946	31.4
246.163	17.07
246.38	2.73
246.597	-3.41
246.814	2.73
247.031	-75.09
247.248	6.83
247.464	2.73
247.681	43.69
247.898	-13.65
248.115	98.99
248.332	-21.84
248.549	90.79
248.766	62.12
248.983	45.74
249.2	-11.61
249.417	15.02
249.633	6.83
249.85	121.51
250.067	68.27
250.284	-3.41
250.501	6.83
250.717	64.17
250.934	21.16
251.151	-5.46
251.368	-48.47
251.585	8.87
251.801	37.55
252.018	39.59
252.235	45.74
252.451	-23.89
252.668	60.07
252.885	82.6
253.102	-3.41
253.318	-19.8
253.535	-81.24
253.752	58.03
253.968	53.93
254.185	-13.65
254.401	6.83
254.618	-5.46
254.835	-19.8
255.051	62.12
255.268	45.74
255.484	29.35
255.701	-19.8
255.917	17.07
256.134	-50.52
256.351	-17.75
256.567	66.22
256.784	-3.41
257	-68.95
257.217	21.16
257.433	-5.46
257.65	55.98
257.866	-15.7
258.082	-40.28
258.299	51.88
258.515	15.02
258.732	15.02
258.948	-40.28
259.165	64.17
259.381	-54.61
259.597	72.36
259.814	-3.41
260.03	8.87
260.246	35.5
260.463	51.88
260.679	-54.61
260.895	58.03
261.112	90.79
261.328	47.79
261.544	29.35
261.761	12.97
261.977	6.83
262.193	41.64
262.409	29.35
262.626	94.89
262.842	88.75
263.058	-48.47
263.274	-7.51
263.49	-1.37
263.707	-52.56
263.923	-11.61
264.139	51.88
264.355	94.89
264.571	53.93
264.787	21.16
265.004	60.07
265.22	2.73
265.436	10.92
265.652	62.12
265.868	15.02
266.084	21.16
266.3	37.55
266.516	39.59
266.732	35.5
266.948	-48.47
267.164	51.88
267.38	33.45
267.596	60.07
267.812	31.4
268.028	58.03
268.244	-13.65
268.46	62.12
268.676	-19.8
268.892	-5.46
269.108	-17.75
269.324	15.02
269.54	-73.04
269.756	53.93
269.972	2.73
270.188	92.84
270.403	19.11
270.619	58.03
270.835	-54.61
271.051	58.03
271.267	-17.75
271.483	78.51
271.698	53.93
271.914	115.37
272.13	-30.04
272.346	0.68
272.562	-21.84
272.777	35.5
272.993	29.35
273.209	-46.42
273.425	45.74
273.64	21.16
273.856	21.16
274.072	-11.61
274.287	4.78
274.503	60.07
274.719	29.35
274.934	62.12
275.15	2.73
275.366	-38.23
275.581	-9.56
275.797	41.64
276.012	-13.65
276.228	15.02
276.444	29.35
276.659	29.35
276.875	-1.37
277.09	27.31
277.306	-36.18
277.521	23.21
277.737	17.07
277.952	23.21
278.168	-15.7
278.383	29.35
278.599	8.87
278.814	37.55
279.03	58.03
279.245	51.88
279.461	74.41
279.676	60.07
279.892	-7.51
280.107	47.79
280.322	-11.61
280.538	45.74
280.753	-3.41
280.969	-1.37
281.184	25.26
281.399	51.88
281.615	-23.89
281.83	37.55
282.045	0.68
282.26	41.64
282.476	103.08
282.691	8.87
282.906	2.73
283.122	2.73
283.337	51.88
283.552	45.74
283.767	15.02
283.983	51.88
284.198	53.93
284.413	64.17
284.628	-58.71
284.843	-3.41
285.058	6.83
285.274	-15.7
285.489	45.74
285.704	58.03
285.919	39.59
286.134	-23.89
286.349	-36.18
286.564	49.83
286.779	41.64
286.995	4.78
287.21	-19.8
287.425	2.73
287.64	86.7
287.855	17.07
288.07	-60.76
288.285	19.11
288.5	21.16
288.715	-40.28
288.93	74.41
289.145	-21.84
289.36	39.59
289.575	17.07
289.79	25.26
290.004	17.07
290.219	55.98
290.434	27.31
290.649	37.55
290.864	25.26
291.079	23.21
291.294	41.64
291.509	8.87
291.724	8.87
291.938	6.83
292.153	12.97
292.368	78.51
292.583	62.12
292.798	-7.51
293.012	21.16
293.227	23.21
293.442	-5.46
293.657	78.51
293.871	60.07
294.086	-15.7
294.301	90.79
294.516	55.98
294.73	-3.41
294.945	31.4
295.16	27.31
295.374	58.03
295.589	6.83
295.804	-13.65
296.018	-17.75
296.233	117.42
296.447	43.69
296.662	37.55
296.877	23.21
297.091	115.37
297.306	33.45
297.52	53.93
297.735	15.02
297.949	12.97
298.164	-15.7
298.378	98.99
298.593	15.02
298.807	0.68
299.022	23.21
299.236	-11.61
299.451	-23.89
299.665	29.35
299.88	25.26
300.094	39.59
300.309	21.16
300.523	51.88
300.737	4.78
300.952	-17.75
301.166	39.59
301.381	23.21
301.595	47.79
301.809	37.55
302.024	15.02
302.238	12.97
302.452	74.41
302.667	-21.84
302.881	82.6
303.095	51.88
303.309	19.11
303.524	-46.42
303.738	-9.56
303.952	-15.7
304.166	90.79
304.381	12.97
304.595	53.93
304.809	45.74
305.023	8.87
305.237	49.83
305.452	37.55
305.666	47.79
305.88	103.08
306.094	47.79
306.308	39.59
306.522	2.73
306.736	74.41
306.95	58.03
307.164	-5.46
307.379	-17.75
307.593	70.31
307.807	123.56
308.021	-32.08
308.235	70.31
308.449	41.64
308.663	6.83
308.877	92.84
309.091	68.27
309.305	41.64
309.519	-71
309.733	15.02
309.947	2.73
310.161	19.11
310.374	6.83
310.588	60.07
310.802	-21.84
311.016	-19.8
311.23	60.07
311.444	6.83
311.658	25.26
311.872	127.66
312.085	-56.66
312.299	68.27
312.513	103.08
312.727	37.55
312.941	-7.51
313.154	12.97
313.368	-9.56
313.582	66.22
313.796	-13.65
314.009	82.6
314.223	25.26
314.437	62.12
314.651	-7.51
314.864	8.87
315.078	35.5
315.292	84.65
315.505	8.87
315.719	45.74
315.933	-5.46
316.146	4.78
316.36	37.55
316.573	-5.46
316.787	-32.08
317.001	70.31
317.214	45.74
317.428	68.27
317.641	58.03
317.855	78.51
318.068	8.87
318.282	-3.41
318.495	6.83
318.709	15.02
318.922	35.5
319.136	-13.65
319.349	68.27
319.563	-11.61
319.776	37.55
319.99	62.12
320.203	-13.65
320.417	-9.56
320.63	72.36
320.843	6.83
321.057	-21.84
321.27	29.35
321.483	10.92
321.697	60.07
321.91	41.64
322.124	8.87
322.337	12.97
322.55	2.73
322.763	41.64
322.977	-79.19
323.19	23.21
323.403	12.97
323.617	43.69
323.83	45.74
324.043	62.12
324.256	121.51
324.469	-9.56
324.683	60.07
324.896	-15.7
325.109	21.16
325.322	19.11
325.535	84.65
325.748	-3.41
325.962	60.07
326.175	29.35
326.388	55.98
326.601	6.83
326.814	33.45
327.027	-1.37
327.24	8.87
327.453	0.68
327.666	101.03
327.879	47.79
328.092	72.36
328.305	4.78
328.518	70.31
328.731	-60.76
328.944	58.03
329.157	45.74
329.37	62.12
329.583	41.64
329.796	45.74
330.009	-75.09
330.222	70.31
330.435	70.31
330.648	25.26
330.861	43.69
331.073	29.35
331.286	70.31
331.499	80.55
331.712	37.55
331.925	98.99
332.138	31.4
332.35	70.31
332.563	25.26
332.776	45.74
332.989	-3.41
333.202	-23.89
333.414	12.97
333.627	23.21
333.84	0.68
334.053	76.46
334.265	-15.7
334.478	-11.61
334.691	55.98
334.903	53.93
335.116	8.87
335.329	15.02
335.541	133.8
335.754	101.03
335.966	4.78
336.179	53.93
336.392	21.16
336.604	68.27
336.817	-44.37
337.029	53.93
337.242	70.31
337.454	55.98
337.667	8.87
337.88	49.83
338.092	21.16
338.305	25.26
338.517	-11.61
338.729	2.73
338.942	19.11
339.154	-1.37
339.367	4.78
339.579	-34.13
339.792	21.16
340.004	-30.04
340.217	90.79
340.429	6.83
340.641	60.07
340.854	-19.8
341.066	-52.56
341.278	25.26
341.491	10.92
341.703	76.46
341.915	62.12
342.128	31.4
342.34	23.21
342.552	-1.37
342.764	47.79
342.977	-30.04
343.189	-32.08
343.401	0.68
343.613	21.16
343.826	68.27
344.038	49.83
344.25	49.83
344.462	21.16
344.674	58.03
344.886	45.74
345.099	10.92
345.311	115.37
345.523	39.59
345.735	2.73
345.947	37.55
346.159	35.5
346.371	86.7
346.583	98.99
346.795	55.98
347.007	15.02
347.219	49.83
347.431	58.03
347.643	6.83
347.855	41.64
348.067	70.31
348.279	-13.65
348.491	33.45
348.703	74.41
348.915	19.11
349.127	21.16
349.339	12.97
349.551	-38.23
349.763	-3.41
349.975	80.55
350.187	51.88
350.399	86.7
350.61	53.93
350.822	0.68
351.034	45.74
351.246	37.55
351.458	-1.37
351.669	33.45
351.881	98.99
352.093	70.31
352.305	58.03
352.517	-19.8
352.728	35.5
352.94	10.92
353.152	31.4
353.363	17.07
353.575	62.12
353.787	64.17
353.999	72.36
354.21	27.31
354.422	-5.46
354.633	25.26
354.845	58.03
355.057	17.07
355.268	66.22
355.48	-48.47
355.692	53.93
355.903	47.79
356.115	6.83
356.326	12.97
356.538	4.78
356.749	6.83
356.961	17.07
357.172	43.69
357.384	-52.56
357.595	88.75
357.807	62.12
358.018	70.31
358.23	60.07
358.441	51.88
358.653	115.37
358.864	-17.75
359.075	-30.04
359.287	35.5
359.498	82.6
359.709	-13.65
359.921	82.6
360.132	29.35
360.344	53.93
360.555	47.79
360.766	33.45
360.977	-32.08
361.189	33.45
361.4	39.59
361.611	88.75
361.823	64.17
362.034	72.36
362.245	-64.85
362.456	86.7
362.667	115.37
362.879	2.73
363.09	-11.61
363.301	-13.65
363.512	60.07
363.723	39.59
363.935	60.07
364.146	27.31
364.357	-89.43
364.568	45.74
364.779	47.79
364.99	53.93
365.201	37.55
365.412	55.98
365.623	25.26
365.834	15.02
366.045	37.55
366.256	51.88
366.467	58.03
366.678	35.5
366.889	10.92
367.1	19.11
367.311	94.89
367.522	49.83
367.733	64.17
367.944	-15.7
368.155	23.21
368.366	96.94
368.577	66.22
368.788	111.27
368.999	27.31
369.209	-1.37
369.42	123.56
369.631	70.31
369.842	47.79
370.053	15.02
370.264	37.55
370.474	6.83
370.685	33.45
370.896	74.41
371.107	129.7
371.317	0.68
371.528	17.07
371.739	66.22
371.95	101.03
372.16	-5.46
372.371	-9.56
372.582	31.4
372.792	12.97
373.003	12.97
373.214	49.83
373.424	98.99
373.635	-27.99
373.846	109.23
374.056	78.51
374.267	78.51
374.477	-23.89
374.688	-3.41
374.898	53.93
375.109	47.79
375.319	68.27
375.53	49.83
375.74	21.16
375.951	90.79
376.161	17.07
376.372	125.61
376.582	12.97
376.793	70.31
377.003	41.64
377.214	12.97
377.424	17.07
377.635	119.46
377.845	15.02
378.055	35.5
378.266	25.26
378.476	35.5
378.686	66.22
378.897	172.71
379.107	-25.94
379.317	-11.61
379.528	64.17
379.738	131.75
379.948	15.02
380.158	72.36
380.369	94.89
380.579	70.31
380.789	33.45
380.999	29.35
381.21	105.13
381.42	84.65
381.63	162.47
381.84	58.03
382.05	72.36
382.261	76.46
382.471	96.94
382.681	82.6
382.891	139.94
383.101	82.6
383.311	-3.41
383.521	64.17
383.731	43.69
383.941	103.08
384.151	82.6
384.361	41.64
384.571	41.64
384.781	19.11
384.991	80.55
385.201	115.37
385.411	53.93
385.621	109.23
385.831	6.83
386.041	-3.41
386.251	109.23
386.461	21.16
386.671	-3.41
386.881	29.35
387.091	10.92
387.301	70.31
387.511	76.46
387.72	23.21
387.93	72.36
388.14	47.79
388.35	70.31
388.56	115.37
388.769	58.03
388.979	111.27
389.189	-11.61
389.399	33.45
389.609	107.18
389.818	139.94
390.028	119.46
390.238	90.79
390.447	55.98
390.657	76.46
390.867	76.46
391.076	-21.84
391.286	64.17
391.496	78.51
391.705	123.56
391.915	74.41
392.125	86.7
392.334	90.79
392.544	123.56
392.753	37.55
392.963	41.64
393.172	72.36
393.382	47.79
393.591	51.88
393.801	92.84
394.01	82.6
394.22	105.13
394.429	86.7
394.639	60.07
394.848	62.12
395.058	78.51
395.267	66.22
395.477	135.85
395.686	51.88
395.895	137.9
396.105	109.23
396.314	66.22
396.524	105.13
396.733	90.79
396.942	160.42
397.152	90.79
397.361	121.51
397.57	109.23
397.78	121.51
397.989	74.41
398.198	125.61
398.407	33.45
398.617	154.28
398.826	76.46
399.035	119.46
399.244	152.23
399.453	66.22
399.663	98.99
399.872	103.08
400.081	131.75
400.29	139.94
400.499	76.46
400.708	223.91
400.917	160.42
401.127	94.89
401.336	164.52
401.545	160.42
401.754	172.71
401.963	154.28
402.172	154.28
402.381	168.62
402.59	144.04
402.799	137.9
403.008	164.52
403.217	148.14
403.426	152.23
403.635	158.38
403.844	168.62
404.053	158.38
404.262	176.81
404.471	193.19
404.68	180.9
404.888	185
405.097	166.57
405.306	201.38
405.515	242.34
405.724	129.7
405.933	260.77
406.142	158.38
406.35	262.82
406.559	203.43
406.768	238.25
406.977	305.83
407.185	283.3
407.394	271.01
407.603	266.92
407.812	217.77
408.02	307.88
408.229	248.49
408.438	316.07
408.646	340.65
408.855	307.88
409.064	357.03
409.272	357.03
409.481	328.36
409.69	305.83
409.898	408.23
410.107	402.08
410.315	408.23
410.524	443.04
410.733	395.94
410.941	508.58
411.15	436.9
411.358	471.72
411.567	459.43
411.775	527.01
411.984	512.67
412.192	473.76
412.401	613.03
412.609	717.47
412.818	598.69
413.026	680.61
413.234	653.98
413.443	735.9
413.651	719.52
413.86	805.53
414.068	836.25
414.276	815.77
414.485	838.3
414.693	838.3
414.901	940.7
415.11	922.27
415.318	895.64
415.526	942.75
415.734	1104.54
415.943	1096.35
416.151	1094.3
416.359	1112.73
416.567	1028.76
416.776	1219.22
416.984	1239.7
417.192	1206.94
417.4	1276.57
417.608	1258.14
417.817	1520.28
418.025	1362.58
418.233	1583.76
418.441	1520.28
418.649	1555.09
418.857	1778.32
419.065	1755.79
419.273	1698.45
419.481	1850
419.689	1985.16
419.897	2054.8
420.105	1952.4
420.313	1995.4
420.521	2208.39
420.729	2124.43
420.937	2237.06
421.145	2417.29
421.353	2392.71
421.561	2611.84
421.769	2620.03
421.977	2681.47
422.185	2726.53
422.393	2888.32
422.601	3076.73
422.809	3048.06
423.017	3031.68
423.224	3228.28
423.432	3275.38
423.64	3293.82
423.848	3605.11
424.056	3646.07
424.263	3797.62
424.471	3752.56
424.679	3754.61
424.887	4147.82
425.094	4227.69
425.302	4289.13
425.51	4452.97
425.718	4614.76
425.925	4668
426.133	4690.53
426.341	4977.25
426.548	5288.54
426.756	5413.46
426.964	5292.63
427.171	5614.16
427.379	5743.19
427.586	5921.36
427.794	5960.27
428.001	6453.83
428.209	6554.18
428.417	6599.24
428.624	7127.61
428.832	7234.11
429.039	6855.23
429.247	6957.63
429.454	7561.78
429.662	8147.5
429.869	7696.95
430.076	8292.91
430.284	7914.03
430.491	8190.51
430.699	8626.73
430.906	8671.78
431.114	8872.48
431.321	9259.55
431.528	9294.36
431.736	9804.31
431.943	10455.56
432.15	10111.5
432.358	10340.88
432.565	10744.33
432.772	10586.63
432.979	11117.06
433.187	11551.23
433.394	11620.86
433.601	12272.11
433.808	12313.07
434.016	12229.1
434.223	12775.91
434.43	13689.31
434.637	13337.06
434.844	14031.32
435.052	14698.95
435.259	14244.31
435.466	14541.26
435.673	14430.67
435.88	15419.84
436.087	16050.61
436.294	16259.51
436.501	15870.39
436.708	16040.37
436.915	16548.27
437.122	17453.47
437.329	17410.46
437.537	17992.09
437.743	18143.64
437.95	18151.83
438.157	18946.44
438.364	19515.78
438.571	19884.41
438.778	19693.95
438.985	21338.47
439.192	20627.82
439.399	21408.1
439.606	20681.07
439.813	22067.55
440.02	23228.74
440.227	22925.64
440.433	22708.56
440.64	23499.08
440.847	23429.45
441.054	23880
441.261	25350.44
441.467	25053.48
441.674	25901.34
441.881	26822.93
442.088	26712.34
442.294	26421.53
442.501	27091.21
442.708	27488.52
442.914	28666.1
443.121	30040.29
443.328	29071.6
443.534	30963.92
443.741	30335.2
443.948	29763.81
444.154	32291.01
444.361	31903.94
444.568	32088.26
444.774	31924.42
444.981	32434.36
445.187	33237.17
445.394	34652.31
445.6	34246.82
445.807	37638.25
446.013	35633.29
446.22	36210.82
446.426	38080.61
446.633	38072.42
446.839	39360.59
447.046	38088.81
447.252	40253.51
447.459	40400.96
447.665	40157.25
447.871	41584.69
448.078	43620.37
448.284	41582.64
448.491	42616.86
448.697	43915.28
448.903	44722.18
449.11	44793.86
449.316	43925.52
449.522	44752.9
449.728	46241.77
449.935	46620.64
450.141	46241.77
450.347	47611.86
450.553	46475.24
450.76	46974.94
450.966	48150.48
451.172	47548.37
451.378	49043.39
451.584	47970.25
451.791	48744.39
451.997	48379.85
452.203	50116.53
452.409	49706.93
452.615	49119.17
452.821	47761.36
453.027	47407.06
453.233	49921.97
453.44	47386.58
453.646	48023.5
453.852	48209.87
454.058	49424.31
454.264	47933.39
454.47	48605.12
454.676	47593.43
454.882	49442.74
455.088	45066.24
455.294	45830.13
455.5	46487.53
455.705	46847.97
455.911	44818.43
456.117	44093.45
456.323	43370.52
456.529	41535.54
456.735	43028.51
456.941	41805.87
457.147	41363.51
457.352	40112.2
457.558	39614.54
457.764	39690.32
457.97	38985.82
458.176	38170.72
458.381	38156.39
458.587	36366.46
458.793	36673.66
458.999	34277.54
459.204	37089.4
459.41	36034.69
459.616	33052.85
459.821	33591.47
460.027	33122.48
460.233	32796.85
460.438	31041.74
460.644	31314.12
460.85	29993.18
461.055	29571.3
461.261	29638.89
461.466	27111.69
461.672	26437.91
461.878	28432.63
462.083	26595.6
462.289	26034.46
462.494	25803.04
462.7	25033
462.905	24144.19
463.111	24629.55
463.316	24922.41
463.522	24377.65
463.727	24310.07
463.932	23976.25
464.138	24174.91
464.343	23910.72
464.549	23380.29
464.754	24029.5
464.959	24004.92
465.165	23830.85
465.37	22679.89
465.575	22208.86
465.781	23021.9
465.986	23376.2
466.191	22608.21
466.397	21987.68
466.602	20855.15
466.807	21778.78
467.012	21717.34
467.218	21573.99
467.423	21387.62
467.628	21524.83
467.833	22272.34
468.038	21539.17
468.244	20834.67
468.449	21678.43
468.654	20863.34
468.859	21266.79
469.064	20672.88
469.269	19853.69
469.474	20191.61
469.679	20572.53
469.885	19767.68
470.09	20238.71
470.295	20152.7
470.5	19425.67
470.705	19585.41
470.91	19272.07
471.115	18928.01
471.32	19421.57
471.525	19456.39
471.73	18588.05
471.935	18581.9
472.139	18241.94
472.344	18192.79
472.549	18090.39
472.754	17891.74
472.959	17459.62
473.164	17244.58
473.369	16865.71
473.574	17703.32
473.778	17383.84
473.983	17099.17
474.188	17160.61
474.393	16320.95
474.598	16652.72
474.802	16327.09
475.007	16343.47
475.212	16335.28
475.417	15661.5
475.621	15755.71
475.826	15573.44
476.031	15102.4
476.235	15192.51
476.44	15083.97
476.645	14957
476.849	15094.21
477.054	14815.69
477.259	14801.35
477.463	14684.62
477.668	14199.25
477.872	14254.55
478.077	14320.08
478.282	13836.76
478.486	13701.59
478.691	13695.45
478.895	13572.57
479.1	13525.47
479.304	13496.8
479.509	13113.83
479.713	13265.38
479.918	13230.56
480.122	12909.03
480.326	13232.61
480.531	12997.09
480.735	12833.25
480.94	12933.61
481.144	13251.04
481.348	12657.13
481.553	12827.11
481.757	12548.59
481.961	12616.17
482.166	12818.92
482.37	12890.6
482.574	12657.13
482.778	12440.04
482.983	12780.01
483.187	12605.93
483.391	12540.4
483.595	12528.11
483.8	12308.97
484.004	12225.01
484.208	12585.45
484.412	12399.09
484.616	12607.98
484.821	12515.82
485.025	12235.25
485.229	12544.49
485.433	12372.46
485.637	12511.72
485.841	12341.74
486.045	12317.17
486.249	12653.03
486.453	12274.16
486.657	12737
486.861	12665.32
487.065	12198.38
487.269	12409.33
487.473	12165.62
487.677	12415.47
487.881	12532.2
488.085	12325.36
488.289	12380.65
488.493	12542.44
488.697	12501.48
488.901	12425.71
489.105	12294.64
489.309	12427.76
489.512	12610.03
489.716	12577.26
489.92	12556.78
490.124	12528.11
490.328	12511.72
490.531	12620.27
490.735	12743.14
490.939	12933.61
491.143	12511.72
491.346	12599.79
491.55	13005.28
491.754	12683.75
491.958	12917.22
492.161	12909.03
492.365	13124.07
492.569	12937.7
492.772	13375.97
492.976	13117.92
493.18	13130.21
493.383	13240.8
493.587	13421.02
493.79	13588.96
493.994	13226.46
494.197	13754.84
494.401	13752.79
494.605	13611.48
494.808	14027.22
495.012	13937.11
495.215	14223.83
495.419	14037.46
495.622	14135.76
495.825	14320.08
496.029	14305.74
496.232	14735.82
496.436	14467.53
496.639	14981.57
496.843	14604.75
497.046	15114.69
497.249	15190.47
497.453	15305.15
497.656	15618.49
497.859	15440.32
498.063	15526.33
498.266	15927.74
498.469	15985.08
498.673	16257.46
498.876	16406.96
499.079	16572.85
499.282	16333.23
499.485	16964.01
499.689	17007.02
499.892	17105.32
500.095	17465.76
500.298	17707.42
500.501	17428.9
500.705	18106.77
500.908	18094.49
501.111	18350.48
501.314	18397.59
501.517	18778.51
501.72	19026.31
501.923	18794.89
502.126	19296.64
502.329	19532.16
502.532	19521.92
502.735	19730.81
502.938	20144.5
503.141	20130.17
503.344	20504.95
503.547	20480.37
503.75	21023.08
503.953	21158.25
504.156	21457.25
504.359	21313.89
504.562	21594.47
504.765	21944.67
504.968	22294.87
505.17	22530.39
505.373	22356.31
505.576	23048.52
505.779	23128.39
505.982	23230.79
506.185	23454.02
506.387	23863.61
506.59	23900.48
506.793	24435
506.996	24275.26
507.198	24940.85
507.401	24795.44
507.604	25145.64
507.807	25522.47
508.009	25829.66
508.212	26226.97
508.415	26165.53
508.617	26425.62
508.82	26804.5
509.022	26491.16
509.225	27320.59
509.428	27296.01
509.63	27678.98
509.833	27703.56
510.035	28422.39
510.238	28485.88
510.44	28715.25
510.643	28692.72
510.845	29532.39
511.048	28936.43
511.25	29380.84
511.453	29698.28
511.655	30933.2
511.858	30441.69
512.06	30374.11
512.262	31152.34
512.465	30548.18
512.667	31918.28
512.87	31490.25
513.072	31840.45
513.274	32491.71
513.477	32938.16
513.679	32624.82
513.881	33188.02
514.084	33466.54
514.286	33372.33
514.488	33534.12
514.69	34300.06
514.893	34517.15
515.095	34494.62
515.297	35274.9
515.499	35008.66
515.701	35600.52
515.904	35977.35
516.106	36006.02
516.308	36221.06
516.51	36712.57
516.712	37021.81
516.914	37265.52
517.116	37707.88
517.318	37795.95
517.52	38008.93
517.722	38252.64
517.925	38498.4
518.127	39323.73
518.329	39569.49
518.531	39247.96
518.733	39819.34
518.935	39536.72
519.136	40230.98
519.338	40681.53
519.54	41019.45
519.742	41013.3
519.944	40915
520.146	41633.84
520.348	41996.33
520.55	42166.31
520.752	42199.08
520.954	43413.52
521.155	42149.93
521.357	43135
521.559	43296.79
521.761	44095.5
521.963	43800.59
522.164	44165.13
522.366	44255.24
522.568	44527.62
522.77	44767.23
522.971	45557.75
523.173	44771.33
523.375	45670.39
523.576	45809.65
523.778	45969.39
523.98	46184.43
524.181	45955.05
524.383	46098.41
524.584	46827.49
524.786	46675.94
524.988	46596.07
525.189	47368.15
525.391	47226.84
525.592	47474.65
525.794	47728.59
525.995	47282.14
526.197	47538.13
526.398	47851.47
526.6	48138.19
526.801	48105.42
527.003	48756.67
527.204	48484.29
527.406	48859.07
527.607	48744.39
527.808	48918.46
528.01	48326.6
528.211	48486.34
528.412	50190.25
528.614	49393.59
528.815	49436.6
529.016	49854.39
529.218	49450.94
529.419	49579.96
529.62	49711.03
529.822	49905.59
530.023	49967.02
530.224	49350.59
530.425	49665.97
530.626	49504.18
530.828	49635.25
531.029	50489.26
531.23	50036.66
531.431	49995.7
531.632	50345.9
531.833	50274.22
532.035	50597.8
532.236	50276.27
532.437	50251.69
532.638	49926.06
532.839	50491.3
533.04	50659.24
533.241	50024.37
533.442	51222.43
533.643	50632.61
533.844	50431.91
534.045	50722.72
534.246	49911.73
534.447	50775.97
534.648	50390.95
534.849	51042.21
535.05	50349.99
535.251	50358.19
535.451	50427.82
535.652	50671.53
535.853	50550.7
536.054	50784.16
536.255	50864.03
536.456	50083.76
536.657	51150.75
536.857	50147.25
537.058	50022.32
537.259	50599.85
537.46	50524.07
537.66	50001.84
537.861	50640.81
538.062	50067.37
538.263	50397.1
538.463	50483.11
538.664	50100.14
538.865	50544.55
539.065	50562.98
539.266	49844.15
539.466	50657.19
539.667	49840.05
539.868	50718.63
540.068	50134.96
540.269	49825.71
540.469	50575.27
540.67	50225.07
540.87	50208.68
541.071	50003.89
541.271	50413.48
541.472	49917.87
541.672	50112.43
541.873	50231.21
542.073	49471.42
542.274	50692.01
542.474	50020.27
542.675	49627.06
542.875	50567.08
543.075	50112.43
543.276	49328.06
543.476	50706.34
543.676	49387.45
543.877	50223.02
544.077	49924.02
544.277	49745.84
544.478	49452.98
544.678	49772.47
544.878	49883.06
545.078	50120.62
545.279	49543.09
545.479	49606.58
545.679	50153.39
545.879	49921.97
546.079	49825.71
546.28	49659.83
546.48	49209.28
546.68	49854.39
546.88	49899.44
547.08	49733.56
547.28	49518.52
547.48	49375.16
547.68	49444.79
547.88	49231.8
548.081	49561.53
548.281	49620.92
548.481	49231.8
548.681	49627.06
548.881	49579.96
549.081	49362.87
549.28	49215.42
549.48	49694.64
549.68	49395.64
549.88	49481.66
550.08	48996.29
550.28	49315.77
550.48	49500.09
550.68	49567.67
550.88	49010.62
551.08	48957.38
551.279	49133.5
551.479	49051.58
551.679	49213.37
551.879	48646.08
552.079	49289.15
552.278	49129.4
552.478	48916.42
552.678	49364.92
552.878	49016.77
553.077	49010.62
553.277	48682.95
553.477	48906.18
553.676	49070.01
553.876	49131.45
554.076	49020.86
554.275	48955.33
554.475	48678.85
554.674	48822.21
554.874	48936.9
555.074	48531.4
555.273	48940.99
555.473	49317.82
555.672	48453.58
555.872	48883.65
556.071	48699.33
556.271	48641.99
556.47	48244.68
556.67	48527.3
556.869	48398.28
557.068	48715.72
557.268	48515.01
557.467	48058.32
557.667	48379.85
557.866	48418.76
558.065	48134.09
558.265	48048.08
558.464	48177.1
558.663	48240.59
558.863	47816.66
559.062	48773.06
559.261	47830.99
559.461	48117.71
559.66	47622.1
559.859	47814.61
560.058	47661.01
560.258	47671.25
560.457	47312.86
560.656	48031.69
560.855	47396.82
561.054	47966.16
561.253	47355.86
561.453	47364.06
561.652	47378.39
561.851	47339.48
562.05	47210.46
562.249	47171.55
562.448	47101.92
562.647	46942.17
562.846	46847.97
563.045	47212.51
563.244	46733.28
563.443	47585.24
563.642	46641.12
563.841	46866.4
564.04	46970.85
564.239	46827.49
564.438	46761.95
564.637	46600.16
564.836	46501.86
565.035	46366.7
565.234	46370.79
565.432	46372.84
565.631	46368.74
565.83	46321.64
566.029	45936.62
566.228	45895.66
566.427	45610.99
566.625	45950.96
566.824	45391.86
567.023	45928.43
567.222	45314.04
567.42	46094.32
567.619	45637.62
567.818	45504.5
568.016	45307.9
568.215	45623.28
568.414	45252.6
568.612	45496.31
568.811	45271.03
569.01	45234.17
569.208	44603.39
569.407	45258.74
569.605	44849.15
569.804	45303.8
570.002	45168.63
570.201	45068.28
570.4	44507.14
570.598	44349.45
570.797	44410.89
570.995	44423.17
571.193	44095.5
571.392	44736.51
571.59	44079.11
571.789	44052.49
571.987	44007.44
572.186	44044.3
572.384	43816.97
572.582	44025.87
572.781	43970.57
572.979	43720.72
573.177	43657.23
573.376	43626.51
573.574	43595.79
573.772	43694.1
573.971	43571.22
574.169	43083.8
574.367	42915.87
574.565	43069.47
574.763	42944.54
574.962	43014.17
575.16	42446.88
575.358	42909.72
575.556	42248.23
575.754	43135
575.952	42442.79
576.151	42686.5
576.349	41949.23
576.547	42338.34
576.745	42379.3
576.943	42326.05
577.141	41652.27
577.339	41834.54
577.537	42178.6
577.735	41801.77
577.933	41506.87
578.131	41945.13
578.329	41263.16
578.527	41158.71
578.725	41015.35
578.923	41867.31
579.121	41191.48
579.319	41154.61
579.516	41332.79
579.714	41023.54
579.912	40495.17
580.11	40978.49
580.308	41023.54
580.506	40798.27
580.704	40011.85
580.901	40753.21
581.099	40945.72
581.297	40249.41
581.495	40099.91
581.692	40357.95
581.89	39821.39
582.088	39983.18
582.285	39837.77
582.483	39848.01
582.681	39569.49
582.878	39471.18
583.076	38944.86
583.274	39811.15
583.471	38914.14
583.669	39428.18
583.866	38860.89
584.064	39340.11
584.262	38559.84
584.459	39307.35
584.657	38973.53
584.854	39235.67
585.052	38332.51
585.249	38527.07
585.447	38615.13
585.644	38090.85
585.841	38510.69
586.039	38373.47
586.236	37931.11
586.434	37941.35
586.631	37759.08
586.828	37615.72
587.026	37865.58
587.223	37537.9
587.42	37789.8
587.618	37253.23
587.815	36972.66
588.012	37255.28
588.21	36868.22
588.407	37779.56
588.604	37038.2
588.801	36776.06
588.999	36892.79
589.196	36591.74
589.393	36608.12
589.59	36376.7
589.787	36614.27
589.984	36290.69
590.182	36124.8
590.379	36083.84
590.576	35795.08
590.773	36006.02
590.97	35801.22
591.167	35813.51
591.364	35438.73
591.561	35770.5
591.758	35213.46
591.955	35608.72
592.152	35526.8
592.349	34965.65
592.546	35297.42
592.743	34844.82
592.94	34656.41
593.137	34832.54
593.334	35033.24
593.531	34527.39
593.727	34715.8
593.924	34941.08
594.121	34185.38
594.318	34494.62
594.515	33847.46
594.712	34611.35
594.908	34031.78
595.105	34263.2
595.302	33542.31
595.499	33859.75
595.696	33409.2
595.892	33441.96
596.089	33607.85
596.286	33628.33
596.482	33179.82
596.679	33063.09
596.876	33089.71
597.072	33067.19
597.269	33151.15
597.466	32759.99
597.662	32854.2
597.859	32757.94
598.055	32823.48
598.252	32469.18
598.448	32309.44
598.645	32293.05
598.841	32098.5
599.038	32073.92
599.234	32045.25
599.431	31693
599.627	31582.41
599.824	31684.81
600.02	31471.82
600.217	31717.57
600.413	31484.11
600.609	31181.01
600.806	30951.63
601.002	31092.94
601.198	30843.09
601.395	31291.6
601.591	30666.97
601.787	30896.34
601.984	30458.07
602.18	30689.49
602.376	30548.18
602.572	30152.93
602.769	30163.17
602.965	29964.51
603.161	30167.26
603.357	30048.48
603.553	30030.05
603.75	29878.5
603.946	29606.12
604.142	29866.21
604.338	29141.23
604.534	29647.08
604.73	29429.99
604.926	29380.84
605.122	29423.85
605.318	29501.67
605.514	29376.75
605.71	29239.53
605.906	28961.01
606.102	29178.09
606.298	28670.2
606.494	28623.09
606.69	28770.55
606.886	28662.01
607.082	28393.72
607.278	28829.94
607.474	28150.01
607.67	28741.88
607.866	28225.79
608.062	28170.49
608.257	28000.51
608.453	28446.97
608.649	28064
608.845	27846.91
609.041	27670.79
609.236	27988.22
609.432	27695.36
609.628	27894.02
609.824	27615.49
610.019	27525.38
610.215	27848.96
610.411	27826.43
610.606	27509
610.802	27439.37
610.998	27300.11
611.193	27058.45
611.389	27355.4
611.584	27482.38
611.78	27154.7
611.976	27375.88
612.171	27046.16
612.367	27232.52
612.562	26954
612.758	26818.83
612.953	26655
613.149	27240.71
613.344	26777.87
613.539	26689.81
613.735	26835.22
613.93	27015.44
614.126	26691.86
614.321	26802.45
614.517	26433.82
614.712	26511.64
614.907	26493.21
615.103	26401.05
615.298	26269.98
615.493	26753.3
615.688	26452.25
615.884	26704.15
616.079	26200.35
616.274	26382.62
616.47	25950.49
616.665	26208.54
616.86	26018.08
617.055	26173.72
617.25	26360.09
617.445	25944.35
617.641	25352.49
617.836	25989.41
618.031	25454.89
618.226	25540.9
618.421	25432.36
618.616	25870.62
618.811	25368.87
619.006	25659.68
619.201	24858.93
619.396	25471.27
619.591	24717.62
619.786	25262.38
619.981	24402.23
620.176	24949.04
620.371	24549.68
620.566	24903.98
620.761	24213.82
620.956	24717.62
621.151	24090.94
621.346	24410.42
621.541	23832.89
621.735	24371.51
621.93	23415.11
622.125	23593.28
622.32	23519.56
622.515	23619.91
622.709	23202.12
622.904	23126.35
623.099	23284.04
623.294	23290.18
623.488	23028.04
623.683	22798.67
623.878	22640.98
624.072	22874.45
624.267	22454.61
624.462	22395.22
624.656	22413.65
624.851	22395.22
625.046	22204.76
625.24	21778.78
625.435	21959
625.629	21565.79
625.824	21244.26
626.018	21561.7
626.213	20914.54
626.407	21416.29
626.602	20744.56
626.796	21133.67
626.991	20834.67
627.185	20871.53
627.38	20621.68
627.574	20349.3
627.768	20210.04
627.963	20267.38
628.157	20083.06
628.352	20207.99
628.546	19720.57
628.74	20160.89
628.935	19560.83
629.129	19806.59
629.323	19419.52
629.517	19462.53
629.712	19476.87
629.906	19599.74
630.1	19028.36
630.294	18878.86
630.489	18801.04
630.683	19071.37
630.877	18663.82
631.071	18848.14
631.265	18790.8
631.459	18467.22
631.653	18370.96
631.848	18471.31
632.042	17998.23
632.236	18282.9
632.43	18010.52
632.624	17793.44
632.818	17678.75
633.012	17557.92
633.206	17777.05
633.4	17832.35
633.594	17471.9
633.788	17582.49
633.982	17297.83
634.176	17252.77
634.369	17160.61
634.563	16904.62
634.757	17064.36
634.951	16869.8
635.145	16724.4
635.339	16613.81
635.533	16558.51
635.726	16411.06
635.92	16327.09
636.114	16132.53
636.308	16181.68
636.501	16136.63
636.695	16044.47
636.889	16075.19
637.083	15813.05
637.276	15825.34
637.47	15821.24
637.664	15628.73
637.857	15686.08
638.051	15729.08
638.244	15432.13
638.438	15464.89
638.632	15276.48
638.825	15157.7
639.019	15149.51
639.212	15026.63
639.406	14979.53
639.599	14963.14
639.793	15243.71
639.986	14479.82
640.18	14445.01
640.373	14842.31
640.567	14608.84
640.76	14543.31
640.954	14223.83
641.147	13967.83
641.34	14328.27
641.534	14174.67
641.727	14303.7
641.92	13965.78
642.114	13806.04
642.307	13758.94
642.5	13812.18
642.694	13613.53
642.887	13734.36
643.08	13523.42
643.273	13414.88
643.467	13443.55
643.66	13490.65
643.853	13300.19
644.046	13122.02
644.239	13222.37
644.432	13029.86
644.626	12964.32
644.819	12906.98
645.012	12945.89
645.205	12962.28
645.398	12829.16
645.591	12673.51
645.784	12634.6
645.977	12573.16
646.17	12650.99
646.363	12501.48
646.556	12208.62
646.749	12399.09
646.942	12349.93
647.135	12184.05
647.328	12249.58
647.521	12132.85
647.714	11956.72
647.907	11987.44
648.099	11919.86
648.292	11766.26
648.485	11966.96
648.678	11727.35
648.871	11633.15
649.064	11450.88
649.256	11567.61
649.449	11375.1
649.642	11512.31
649.835	11463.16
650.027	11137.54
650.22	11100.67
650.413	11215.36
650.605	11031.04
650.798	11155.97
650.991	11065.86
651.183	10936.84
651.376	10785.29
651.568	10844.68
651.761	10846.73
651.954	10594.82
652.146	10711.56
652.339	10701.32
652.531	10596.87
652.724	10318.35
652.916	10273.29
653.109	10334.73
653.301	10091.02
653.494	10426.89
653.686	10199.57
653.879	10224.14
654.071	10138.13
654.263	9953.81
654.456	10105.36
654.648	10054.16
654.84	10027.54
655.033	9753.11
655.225	9789.97
655.417	9675.29
655.61	9792.02
655.802	9933.33
655.994	9615.9
656.186	9640.47
656.379	9470.49
656.571	9421.34
656.763	9191.97
656.955	9273.89
657.148	9525.79
657.34	9306.65
657.532	9073.18
657.724	9083.42
657.916	9153.06
658.108	9210.4
658.3	8938.02
658.492	9064.99
658.684	8983.07
658.876	8884.77
659.068	8679.97
659.26	8741.41
659.452	8882.72
659.644	8772.13
659.836	8790.56
660.028	8725.03
660.22	8598.06
660.412	8538.66
660.604	8389.16
660.796	8452.65
660.988	8352.3
661.18	8227.37
661.372	8303.15
661.563	8383.02
661.755	8231.47
661.947	8102.45
662.139	8233.52
662.331	8274.48
662.522	8010.29
662.714	7893.55
662.906	7868.98
663.097	7952.95
663.289	7850.55
663.481	7785.01
663.673	7676.47
663.864	7639.61
664.056	7498.3
664.247	7799.35
664.439	7629.37
664.631	7666.23
664.822	7692.85
665.014	7729.72
665.205	7410.23
665.397	7549.5
665.588	7266.88
665.78	7402.04
665.971	7316.03
666.163	7340.6
666.354	7295.55
666.546	7334.46
666.737	7211.58
666.929	7242.3
667.12	7096.89
667.311	7252.54
667.503	7025.22
667.694	7068.22
667.885	6883.91
668.077	7023.17
668.268	6937.15
668.459	6916.67
668.651	6890.05
668.842	6949.44
669.033	6900.29
669.224	6703.68
669.416	6898.24
669.607	6881.86
669.798	6699.59
669.989	6656.58
670.18	6644.29
670.371	6726.21
670.563	6525.51
670.754	6505.03
670.945	6363.72
671.136	6451.78
671.327	6416.97
671.518	6380.11
671.709	6373.96
671.9	6531.65
672.091	6343.24
672.282	6298.19
672.473	6224.46
672.664	6300.23
672.855	6206.03
673.046	6271.56
673.237	6109.77
673.428	6181.45
673.619	5974.61
673.809	5913.17
674	6085.2
674.191	6169.16
674.382	6044.24
674.573	5993.04
674.764	5943.89
674.954	6017.61
675.145	5800.53
675.336	5841.49
675.527	5921.36
675.717	5853.78
675.908	5839.44
676.099	5849.68
676.289	5876.31
676.48	5757.52
676.671	5661.27
676.861	5694.04
677.052	5694.04
677.243	5651.03
677.433	5724.76
677.624	5751.38
677.814	5472.86
678.005	5509.72
678.195	5501.53
678.386	5583.45
678.576	5429.85
678.767	5599.83
678.957	5464.66
679.148	5476.95
679.338	5405.27
679.529	5319.26
679.719	5345.88
679.909	5562.97
680.1	5366.36
680.29	5225.05
680.481	5421.66
680.671	5292.63
680.861	5237.34
681.052	5245.53
681.242	5212.76
681.432	5292.63
681.622	5317.21
681.813	5227.1
682.003	5110.36
682.193	5145.18
682.383	5012.06
682.573	5163.61
682.764	5005.92
682.954	5098.08
683.144	5083.74
683.334	5182.04
683.524	5022.3
683.714	5069.41
683.904	4962.91
684.094	5026.4
684.284	4975.2
684.474	5055.07
684.664	4872.8
684.854	4893.28
685.044	4868.7
685.234	4801.12
685.424	4934.24
685.614	4831.84
685.804	4919.9
685.994	4723.3
686.184	4872.8
686.374	4737.63
686.564	4672.1
686.753	4868.7
686.943	4618.85
687.133	4594.28
687.323	4430.44
687.513	4598.37
687.702	4541.03
687.892	4553.32
688.082	4508.26
688.272	4557.41
688.461	4569.7
688.651	4487.78
688.841	4346.47
689.03	4420.2
689.22	4502.12
689.41	4387.43
689.599	4397.67
689.789	4403.82
689.979	4440.68
690.168	4260.46
690.358	4113
690.547	4246.12
690.737	4276.84
690.926	4201.07
691.116	4244.07
691.305	4131.44
691.495	4156.01
691.684	4051.56
691.874	4078.19
692.063	4119.15
692.252	3834.48
692.442	4072.04
692.631	3861.1
692.82	4072.04
693.01	3770.99
693.199	3940.97
693.388	3818.1
693.578	3920.49
693.767	3738.23
693.956	3918.45
694.146	3736.18
694.335	3920.49
694.524	3799.66
694.713	3820.14
694.902	3754.61
695.092	3719.79
695.281	3652.21
695.47	3674.74
695.659	3699.31
695.848	3758.71
696.037	3625.59
696.226	3539.57
696.415	3574.39
696.604	3488.37
696.793	3691.12
696.982	3709.55
697.171	3568.24
697.36	3508.85
697.549	3572.34
697.738	3490.42
697.927	3568.24
698.116	3316.34
698.305	3428.98
698.494	3545.72
698.683	3435.13
698.872	3412.6
699.061	3422.84
699.25	3469.94
699.438	3287.67
699.627	3480.18
699.816	3398.26
700.005	3375.74
700.193	3416.69
700.382	3379.83
700.571	3232.38
700.76	3117.69
700.948	3365.5
701.137	3230.33
701.326	3222.14
701.514	3197.56
701.703	3220.09
701.892	3213.95
702.08	3261.05
702.269	3218.04
702.457	3254.9
702.646	3160.7
702.834	3179.13
703.023	3140.22
703.212	3228.28
703.4	3086.97
703.589	3222.14
703.777	3252.86
703.965	3187.32
704.154	3089.02
704.342	3109.5
704.531	3185.27
704.719	3029.63
704.907	3033.72
705.096	3154.55
705.284	3101.31
705.472	3127.93
705.661	3146.36
705.849	3113.6
706.037	2962.05
706.226	2980.48
706.414	3076.73
706.602	3058.3
706.79	3039.87
706.979	3009.15
707.167	2947.71
707.355	2923.13
707.543	2941.57
707.731	2970.24
707.919	2857.6
708.107	2978.43
708.296	2929.28
708.484	2880.13
708.672	2978.43
708.86	3011.2
709.048	2935.42
709.236	2933.37
709.424	2976.38
709.612	3009.15
709.8	3021.44
709.988	2894.46
710.176	3027.58
710.364	2851.46
710.551	2820.74
710.739	2796.16
710.927	2843.26
711.115	2904.7
711.303	2902.65
711.491	2867.84
711.679	2960
711.866	2824.83
712.054	3091.07
712.242	2779.78
712.43	2880.13
712.617	2853.5
712.805	2804.35
712.993	2792.06
713.181	2876.03
713.368	2896.51
713.556	2833.02
713.744	2742.91
713.931	2761.34
714.119	2755.2
714.306	2822.78
714.494	2790.02
714.682	2775.68
714.869	2720.39
715.057	2785.92
715.244	2812.54
715.432	2794.11
715.619	2814.59
715.807	2787.97
715.994	2798.21
716.182	2785.92
716.369	2830.98
716.556	2765.44
716.744	2798.21
716.931	2759.3
717.119	2775.68
717.306	2744.96
717.493	2706.05
717.681	2644.61
717.868	2738.82
718.055	2769.54
718.242	2783.87
718.43	2626.18
718.617	2835.07
718.804	2646.66
718.991	2730.62
719.179	2718.34
719.366	2677.38
719.553	2775.68
719.74	2669.19
719.927	2652.8
720.114	2685.57
720.301	2644.61
720.488	2591.36
720.676	2689.67
720.863	2577.03
721.05	2757.25
721.237	2695.81
721.424	2828.93
721.611	2658.95
721.798	2665.09
721.985	2628.23
722.172	2646.66
722.358	2716.29
722.545	2779.78
722.732	2667.14
722.919	2732.67
723.106	2699.91
723.293	2722.43
723.48	2570.88
723.667	2638.47
723.853	2667.14
724.04	2712.19
724.227	2617.99
724.414	2605.7
724.6	2712.19
724.787	2691.71
724.974	2691.71
725.161	2665.09
725.347	2581.12
725.534	2613.89
725.72	2656.9
725.907	2609.79
726.094	2620.03
726.28	2611.84
726.467	2560.64
726.653	2548.36
726.84	2677.38
727.027	2640.51
727.213	2462.34
727.4	2620.03
727.586	2722.43
727.773	2724.48
727.959	2613.89
728.145	2548.36
728.332	2824.83
728.518	2587.27
728.705	2802.3
728.891	2675.33
729.077	2759.3
729.264	2640.51
729.45	2673.28
729.636	2687.62
729.823	2650.75
730.009	2630.27
730.195	2626.18
730.382	2753.15
730.568	2660.99
730.754	2683.52
730.94	2591.36
731.126	2648.71
731.313	2751.1
731.499	2617.99
731.685	2667.14
731.871	2744.96
732.057	2560.64
732.243	2790.02
732.429	2593.41
732.615	2777.73
732.801	2738.82
732.987	2667.14
733.173	2583.17
733.359	2847.36
733.545	2716.29
733.731	2806.4
733.917	2638.47
734.103	2722.43
734.289	2617.99
734.475	2710.15
734.661	2794.11
734.847	2646.66
735.033	2652.8
735.219	2695.81
735.404	2663.04
735.59	2646.66
735.776	2669.19
735.962	2660.99
736.148	2779.78
736.333	2552.45
736.519	2515.59
736.705	2720.39
736.89	2734.72
737.076	2708.1
737.262	2660.99
737.447	2650.75
737.633	2552.45
737.819	2665.09
738.004	2628.23
738.19	2630.27
738.375	2613.89
738.561	2722.43
738.747	2597.51
738.932	2622.08
739.118	2552.45
739.303	2564.74
739.489	2607.75
739.674	2617.99
739.859	2697.86
740.045	2624.13
740.23	2570.88
740.416	2572.93
740.601	2531.97
740.786	2574.98
740.972	2583.17
741.157	2550.4
741.342	2658.95
741.528	2450.05
741.713	2501.25
741.898	2615.94
742.084	2628.23
742.269	2517.64
742.454	2570.88
742.639	2513.54
742.824	2525.83
743.01	2441.86
743.195	2521.73
743.38	2544.26
743.565	2456.2
743.75	2392.71
743.935	2423.43
744.12	2339.46
744.305	2411.14
744.49	2476.68
744.675	2445.96
744.86	2370.18
745.045	2460.29
745.23	2445.96
745.415	2288.26
745.6	2357.89
745.785	2452.1
745.97	2306.7
746.155	2441.86
746.34	2331.27
746.525	2259.59
746.71	2390.66
746.895	2327.18
747.079	2343.56
747.264	2237.06
747.449	2196.11
747.634	2243.21
747.819	2273.93
748.003	2290.31
748.188	2126.47
748.373	2177.67
748.557	2298.5
748.742	2200.2
748.927	2103.95
749.111	2112.14
749.296	2144.91
749.481	2075.28
749.665	2028.17
749.85	2028.17
750.034	2134.67
750.219	2151.05
750.404	2118.28
750.588	2161.29
750.773	2011.79
750.957	2048.65
751.141	2110.09
751.326	1981.07
751.51	1913.49
751.695	2034.32
751.879	1999.5
752.064	2075.28
752.248	1962.64
752.432	1915.53
752.617	1974.92
752.801	1886.86
752.985	1854.09
753.17	1952.4
753.354	1989.26
753.538	1905.29
753.722	1882.77
753.907	1847.95
754.091	1837.71
754.275	1784.46
754.459	1897.1
754.643	1790.61
754.828	1829.52
755.012	1753.74
755.196	1856.14
755.38	1714.83
755.564	1723.02
755.748	1772.18
755.932	1720.98
756.116	1626.77
756.3	1692.3
756.484	1628.82
756.668	1634.96
756.852	1587.86
757.036	1630.87
757.22	1602.19
757.404	1542.8
757.588	1620.63
757.772	1647.25
757.956	1657.49
758.14	1655.44
758.323	1637.01
758.507	1643.15
758.691	1577.62
758.875	1538.71
759.059	1518.23
759.242	1477.27
759.426	1505.94
759.61	1499.8
759.794	1487.51
759.977	1430.16
760.161	1587.86
760.345	1538.71
760.528	1413.78
760.712	1485.46
760.895	1462.93
761.079	1432.21
761.263	1479.32
761.446	1399.45
761.63	1354.39
761.813	1387.16
761.997	1366.68
762.18	1403.54
762.364	1327.77
762.547	1378.97
762.731	1340.05
762.914	1280.66
763.098	1278.62
763.281	1305.24
763.464	1325.72
763.648	1323.67
763.831	1401.49
764.015	1360.53
764.198	1387.16
764.381	1262.23
764.564	1329.81
764.748	1268.38
764.931	1346.2
765.114	1198.74
765.297	1256.09
765.481	1225.37
765.664	1227.42
765.847	1221.27
766.03	1282.71
766.213	1268.38
766.397	1163.93
766.58	1299.09
766.763	1276.57
766.946	1188.5
767.129	1182.36
767.312	1184.41
767.495	1170.07
767.678	1233.56
767.861	1186.46
768.044	1184.41
768.227	1243.8
768.41	1145.5
768.593	1151.64
768.776	1208.98
768.959	1155.74
769.142	1198.74
769.324	1159.83
769.507	1198.74
769.69	1082.01
769.873	1159.83
770.056	1155.74
770.239	1000.09
770.421	1137.31
770.604	1147.55
770.787	1094.3
770.97	1092.25
771.152	924.32
771.335	1098.39
771.518	1028.76
771.7	1041.05
771.883	1106.59
772.066	971.42
772.248	1141.4
772.431	1055.39
772.613	1077.91
772.796	1065.63
772.978	1053.34
773.161	1141.4
773.343	1077.91
773.526	1018.52
773.708	950.94
773.891	893.6
774.073	977.56
774.256	950.94
774.438	1045.15
774.621	963.23
774.803	1012.38
774.985	918.17
775.168	918.17
775.35	924.32
775.532	887.45
775.715	952.99
775.897	905.88
776.079	871.07
776.261	875.17
776.444	815.77
776.626	842.4
776.808	934.56
776.99	955.04
777.173	887.45
777.355	950.94
777.537	866.97
777.719	875.17
777.901	836.25
778.083	797.34
778.265	815.77
778.447	905.88
778.629	813.73
778.811	760.48
778.993	686.75
779.175	746.14
779.357	809.63
779.539	754.34
779.721	801.44
779.903	766.62
780.085	828.06
780.267	758.43
780.449	699.04
780.631	783.01
780.812	811.68
780.994	602.79
781.176	660.13
781.358	750.24
781.54	674.46
781.721	713.38
781.903	680.61
782.085	692.9
782.267	670.37
782.448	705.18
782.63	590.5
782.812	672.42
782.993	668.32
783.175	701.09
783.357	619.17
783.538	613.03
783.72	613.03
783.901	619.17
784.083	592.55
784.264	535.2
784.446	584.35
784.627	604.83
784.809	633.51
784.99	559.78
785.172	570.02
785.353	621.22
785.535	547.49
785.716	668.32
785.897	492.2
786.079	561.83
786.26	512.67
786.441	494.24
786.623	582.31
786.804	529.06
786.985	451.24
787.167	537.25
787.348	535.2
787.529	606.88
787.71	547.49
787.891	584.35
788.073	567.97
788.254	567.97
788.435	420.52
788.616	488.1
788.797	471.72
788.978	459.43
789.159	490.15
789.34	524.96
789.522	541.35
789.703	408.23
789.884	549.54
790.065	537.25
790.246	529.06
790.427	545.44
790.607	588.45
790.788	438.95
790.969	475.81
791.15	459.43
791.331	443.04
791.512	422.56
791.693	441
791.874	469.67
792.054	438.95
792.235	520.87
792.416	338.6
792.597	340.65
792.778	471.72
792.958	438.95
793.139	402.08
793.32	369.32
793.5	375.46
793.681	443.04
793.862	402.08
794.042	397.99
794.223	406.18
794.404	410.28
794.584	301.73
794.765	385.7
794.945	389.8
795.126	387.75
795.306	375.46
795.487	379.56
795.667	412.32
795.848	373.41
796.028	340.65
796.209	369.32
796.389	357.03
796.57	371.37
796.75	289.45
796.93	348.84
797.111	375.46
797.291	305.83
797.471	266.92
797.652	297.64
797.832	322.21
798.012	391.84
798.192	365.22
798.373	299.69
798.553	357.03
798.733	414.37
798.913	285.35
799.093	373.41
799.274	320.17
799.454	326.31
799.634	320.17
799.814	332.45
799.994	266.92
800.174	348.84
800.354	316.07
800.534	199.34
800.714	314.02
800.894	262.82
801.074	252.58
801.254	301.73
801.434	316.07
801.614	277.16
801.794	283.3
801.974	600.74
802.154	314.02
802.334	299.69
802.514	268.97
802.693	322.21
802.873	316.07
803.053	268.97
803.233	240.3
803.413	350.89
803.592	248.49
803.772	260.77
803.952	234.15
804.131	234.15
804.311	301.73
804.491	223.91
804.67	268.97
804.85	326.31
805.03	311.97
805.209	305.83
805.389	320.17
805.568	254.63
805.748	207.53
805.928	328.36
806.107	299.69
806.287	338.6
806.466	191.14
806.646	250.53
806.825	250.53
807.004	279.21
807.184	287.4
807.363	176.81
807.543	205.48
807.722	230.06
807.901	291.49
808.081	160.42
808.26	211.62
808.439	193.19
808.619	234.15
808.798	209.58
808.977	232.1
809.156	228.01
809.336	213.67
809.515	256.68
809.694	193.19
809.873	236.2
810.052	246.44
810.231	215.72
810.411	174.76
810.59	242.34
810.769	168.62
810.948	205.48
811.127	164.52
811.306	160.42
811.485	168.62
811.664	268.97
811.843	213.67
812.022	187.05
812.201	180.9
812.38	221.86
812.559	178.86
812.737	266.92
812.916	135.85
813.095	160.42
813.274	189.1
813.453	193.19
813.632	131.75
813.811	178.86
813.989	217.77
814.168	189.1
814.347	209.58
814.526	228.01
814.704	223.91
814.883	199.34
815.062	115.37
815.24	238.25
815.419	217.77
815.598	213.67
815.776	205.48
815.955	187.05
816.133	117.42
816.312	189.1
816.49	176.81
816.669	238.25
816.847	193.19
817.026	268.97
817.204	150.18
817.383	180.9
817.561	144.04
817.74	201.38
817.918	180.9
818.097	182.95
818.275	131.75
818.453	180.9
818.632	217.77
818.81	201.38
818.988	185
819.167	144.04
819.345	193.19
819.523	139.94
819.701	123.56
819.879	117.42
820.058	195.24
820.236	162.47
820.414	139.94
820.592	160.42
820.77	139.94
820.948	94.89
821.127	49.83
821.305	156.33
821.483	189.1
821.661	119.46
821.839	133.8
822.017	111.27
822.195	144.04
822.373	111.27
822.551	121.51
822.729	129.7
822.907	53.93
823.085	66.22
823.262	117.42
823.44	172.71
823.618	90.79
823.796	156.33
823.974	51.88
824.152	94.89
824.329	203.43
824.507	105.13
824.685	127.66
824.863	123.56
825.04	96.94
825.218	180.9
825.396	111.27
825.574	103.08
825.751	125.61
825.929	94.89
826.107	144.04
826.284	111.27
826.462	64.17
826.639	53.93
826.817	72.36
826.994	113.32
827.172	101.03
827.349	64.17
827.527	119.46
827.704	107.18
827.882	88.75
828.059	115.37
828.237	55.98
828.414	162.47
828.591	86.7
828.769	82.6
828.946	43.69
829.124	96.94
829.301	144.04
829.478	53.93
829.655	98.99
829.833	150.18
830.01	90.79
830.187	139.94
830.364	70.31
830.542	49.83
830.719	92.84
830.896	152.23
831.073	12.97
831.25	70.31
831.427	182.95
831.604	8.87
831.782	98.99
831.959	119.46
832.136	150.18
832.313	121.51
832.49	33.45
832.667	107.18
832.844	94.89
833.021	152.23
833.198	2.73
833.374	135.85
833.551	193.19
833.728	74.41
833.905	115.37
834.082	133.8
834.259	70.31
834.436	62.12
834.612	23.21
834.789	96.94
834.966	29.35
835.143	141.99
835.319	37.55
835.496	94.89
835.673	31.4
835.85	70.31
836.026	125.61
836.203	76.46
836.38	111.27
836.556	84.65
836.733	94.89
836.909	125.61
837.086	98.99
837.262	39.59
837.439	76.46
837.616	133.8
837.792	64.17
837.968	25.26
838.145	53.93
838.321	19.11
838.498	35.5
838.674	76.46
838.851	39.59
839.027	51.88
839.203	-13.65
839.38	74.41
839.556	92.84
839.732	94.89
839.909	62.12
840.085	27.31
840.261	12.97
840.437	68.27
840.614	19.11
840.79	96.94
840.966	137.9
841.142	86.7
841.318	58.03
841.494	12.97
841.671	29.35
841.847	-21.84
842.023	82.6
842.199	-11.61
842.375	23.21
842.551	82.6
842.727	51.88
842.903	-21.84
843.079	-5.46
843.255	96.94
843.431	15.02
843.607	55.98
843.783	51.88
843.959	35.5
844.134	4.78
844.31	35.5
844.486	41.64
844.662	25.26
844.838	105.13
845.013	19.11
845.189	103.08
845.365	80.55
845.541	58.03
845.716	86.7
845.892	80.55
846.068	45.74
846.244	84.65
846.419	31.4
846.595	74.41
846.77	39.59
846.946	35.5
847.122	98.99
847.297	0.68
847.473	35.5
847.648	49.83
847.824	55.98
847.999	33.45
848.175	25.26
848.35	80.55
848.526	2.73
848.701	-13.65
848.876	31.4
849.052	-3.41
849.227	-13.65
849.403	37.55
849.578	84.65
849.753	103.08
849.929	131.75
850.104	-50.52
850.279	15.02
850.454	-7.51
850.63	94.89
850.805	-19.8
850.98	33.45
851.155	41.64
851.33	72.36
851.505	15.02
851.681	111.27
851.856	-3.41
852.031	74.41
852.206	0.68
852.381	2.73
852.556	64.17
852.731	8.87
852.906	51.88
853.081	70.31
853.256	19.11
853.431	82.6
853.606	86.7
853.781	60.07
853.956	-44.37
854.131	25.26
854.305	55.98
854.48	-30.04
854.655	51.88
854.83	19.11
855.005	-23.89
855.18	107.18
855.354	-17.75
855.529	60.07
855.704	2.73
855.879	8.87
856.053	98.99
856.228	8.87
856.403	19.11
856.577	94.89
856.752	37.55
856.926	-27.99
857.101	70.31
857.276	-15.7
857.45	74.41
857.625	74.41
857.799	76.46
857.974	2.73
858.148	39.59
858.323	4.78
858.497	15.02
858.672	51.88
858.846	2.73
859.02	0.68
859.195	62.12
859.369	-9.56
859.543	60.07
859.718	41.64
859.892	10.92
860.066	53.93
860.241	-50.52
860.415	27.31
860.589	25.26
860.763	82.6
860.938	6.83
861.112	21.16
861.286	21.16
861.46	12.97
861.634	19.11
861.808	15.02
861.982	-46.42
862.157	25.26
862.331	8.87
862.505	-56.66
862.679	21.16
862.853	58.03
863.027	27.31
863.201	55.98
863.375	-27.99
863.549	80.55
863.722	55.98
863.896	88.75
864.07	25.26
864.244	55.98
864.418	-15.7
864.592	-52.56
864.766	-23.89
864.939	55.98
865.113	-36.18
865.287	33.45
865.461	8.87
865.634	70.31
865.808	15.02
865.982	2.73
866.156	53.93
866.329	-3.41
866.503	-19.8
866.676	23.21
866.85	-1.37
867.024	25.26
867.197	-11.61
867.371	41.64
867.544	45.74
867.718	-5.46
867.891	19.11
868.065	-68.95
868.238	6.83
868.412	6.83
868.585	-30.04
868.759	0.68
868.932	-52.56
869.105	15.02
869.279	-9.56
869.452	-46.42
869.625	25.26
869.799	-46.42
869.972	-21.84
870.145	-56.66
870.319	-66.9
870.492	0.68
870.665	-11.61
870.838	-58.71
871.011	4.78
871.185	49.83
871.358	37.55
871.531	43.69
871.704	37.55
871.877	27.31
872.05	0.68
872.223	-3.41
872.396	53.93
872.569	68.27
872.742	-7.51
872.915	-15.7
873.088	12.97
873.261	-42.32
873.434	-13.65
873.607	55.98
873.78	27.31
873.953	29.35
874.126	-11.61
874.299	47.79
874.471	23.21
874.644	19.11
874.817	29.35
874.99	21.16
875.163	-36.18
875.335	58.03
875.508	-42.32
875.681	-7.51
875.853	-3.41
876.026	58.03
876.199	-56.66
876.371	15.02
876.544	23.21
876.717	-73.04
876.889	-19.8
877.062	-11.61
877.234	-11.61
877.407	-9.56
877.579	-23.89
877.752	-7.51
877.924	-52.56
878.097	53.93
878.269	4.78
878.442	2.73
878.614	0.68
878.786	47.79
878.959	15.02
879.131	15.02
879.303	8.87
879.476	-77.14
879.648	-9.56
879.82	27.31
879.993	-3.41
880.165	17.07
880.337	8.87
880.509	-13.65
880.681	-48.47
880.854	41.64
881.026	15.02
881.198	-7.51
881.37	2.73
881.542	-62.8
881.714	19.11
881.886	4.78
882.058	-42.32
882.23	-3.41
882.402	15.02
882.574	-5.46
882.746	17.07
882.918	154.28
883.09	8.87
883.262	-71
883.434	-27.99
883.606	-1.37
883.778	-27.99
883.95	10.92
884.122	15.02
884.293	-17.75
884.465	-7.51
884.637	-48.47
884.809	-64.85
884.98	15.02
885.152	53.93
885.324	43.69
885.496	-54.61
885.667	-3.41
885.839	62.12
886.011	41.64
886.182	47.79
886.354	47.79
886.525	-68.95
886.697	21.16
886.869	-34.13
887.04	-73.04
887.212	-36.18
887.383	-3.41
887.555	27.31
887.726	-9.56
887.897	2.73
888.069	15.02
888.24	8.87
888.412	35.5
888.583	-42.32
888.754	-1.37
888.926	39.59
889.097	-27.99
889.268	19.11
889.44	15.02
889.611	51.88
889.782	-38.23
889.953	-7.51
890.125	-9.56
890.296	53.93
890.467	58.03
890.638	2.73
890.809	31.4
890.98	-17.75
891.151	-85.33
891.323	-23.89
891.494	-34.13
891.665	-9.56
891.836	-21.84
892.007	-32.08
892.178	31.4
892.349	-34.13
892.52	41.64
892.691	35.5
892.862	31.4
893.032	25.26
893.203	-36.18
893.374	-7.51
893.545	4.78
893.716	4.78
893.887	8.87
894.057	-27.99
894.228	-103.76
894.399	43.69
894.57	33.45
894.74	-23.89
894.911	-36.18
895.082	31.4
895.253	68.27
895.423	-9.56
895.594	6.83
895.764	55.98
895.935	-34.13
896.106	17.07
896.276	-32.08
896.447	12.97
896.617	8.87
896.788	-62.8
896.958	-11.61
897.129	-48.47
897.299	8.87
897.47	10.92
897.64	-32.08
897.81	0.68
897.981	21.16
898.151	15.02
898.322	-21.84
898.492	-23.89
898.662	-50.52
898.832	21.16
899.003	41.64
899.173	-7.51
899.343	2.73
899.513	-40.28
