Data from USB4F104151__3__11-44-22-775.txt Node

Date: Fri Mar 14 11:44:22 EDT 2025
User: louis
Spectrometer: USB4F10415
Trigger mode: 4
Integration Time (sec): 2.000000E-2
Scans to average: 1
Electric dark correction enabled: true
Nonlinearity correction enabled: false
Boxcar width: 0
XAxis mode: Wavelengths
Number of Pixels in Spectrum: 3648
>>>>>Begin Spectral Data<<<<<
178.204	-101.55
178.424	-101.55
178.644	-101.55
178.864	-111.78
179.084	-115.88
179.304	31.57
179.524	-46.25
179.744	33.62
179.964	37.72
180.184	-11.43
180.404	43.86
180.624	21.33
180.844	-23.72
181.064	-23.72
181.283	39.76
181.503	-62.63
181.723	-40.11
181.943	-15.53
182.163	66.39
182.383	72.53
182.602	62.29
182.822	37.72
183.042	19.29
183.262	-25.77
183.482	-15.53
183.701	2.9
183.921	52.05
184.141	-89.26
184.361	72.53
184.58	-25.77
184.8	76.63
185.02	-29.87
185.239	0.85
185.459	64.34
185.679	50
185.898	7
186.118	41.81
186.338	-7.34
186.557	15.19
186.777	-27.82
186.997	121.68
187.216	-52.39
187.436	47.96
187.655	-7.34
187.875	-29.87
188.095	2.9
188.314	109.4
188.534	-31.91
188.753	11.09
188.973	105.3
189.192	43.86
189.412	-21.67
189.631	-21.67
189.851	-25.77
190.07	11.09
190.29	-7.34
190.509	95.06
190.729	4.95
190.948	-7.34
191.168	78.68
191.387	27.48
191.607	25.43
191.826	2.9
192.045	-62.63
192.265	15.19
192.484	39.76
192.704	2.9
192.923	29.52
193.142	31.57
193.362	27.48
193.581	17.24
193.8	-5.29
194.02	25.43
194.239	101.2
194.458	31.57
194.678	9.05
194.897	68.44
195.116	0.85
195.335	66.39
195.555	27.48
195.774	-11.43
195.993	-3.24
196.212	17.24
196.432	19.29
196.651	54.1
196.87	41.81
197.089	25.43
197.308	60.24
197.528	56.15
197.747	-44.2
197.966	52.05
198.185	-5.29
198.404	-40.11
198.623	97.11
198.842	41.81
199.062	58.2
199.281	47.96
199.5	2.9
199.719	17.24
199.938	-17.58
200.157	41.81
200.376	39.76
200.595	-15.53
200.814	19.29
201.033	-17.58
201.252	103.25
201.471	0.85
201.69	15.19
201.909	17.24
202.128	41.81
202.347	90.96
202.566	37.72
202.785	-13.48
203.004	-64.68
203.223	37.72
203.442	-7.34
203.661	-1.19
203.879	50
204.098	52.05
204.317	-1.19
204.536	13.14
204.755	23.38
204.974	60.24
205.193	17.24
205.411	43.86
205.63	11.09
205.849	21.33
206.068	29.52
206.287	9.05
206.505	70.48
206.724	21.33
206.943	62.29
207.162	4.95
207.381	54.1
207.599	0.85
207.818	39.76
208.037	29.52
208.255	60.24
208.474	15.19
208.693	-27.82
208.911	17.24
209.13	62.29
209.349	60.24
209.567	86.87
209.786	-48.3
210.005	66.39
210.223	-13.48
210.442	35.67
210.661	66.39
210.879	-19.63
211.098	47.96
211.316	13.14
211.535	0.85
211.753	-11.43
211.972	41.81
212.191	-21.67
212.409	62.29
212.628	-21.67
212.846	80.72
213.065	56.15
213.283	-21.67
213.502	0.85
213.72	56.15
213.938	78.68
214.157	-11.43
214.375	31.57
214.594	-15.53
214.812	0.85
215.031	107.35
215.249	-11.43
215.467	33.62
215.686	33.62
215.904	4.95
216.122	23.38
216.341	62.29
216.559	27.48
216.778	72.53
216.996	74.58
217.214	78.68
217.432	2.9
217.651	-44.2
217.869	-23.72
218.087	82.77
218.306	58.2
218.524	29.52
218.742	-1.19
218.96	33.62
219.179	15.19
219.397	-25.77
219.615	19.29
219.833	52.05
220.051	-60.59
220.27	74.58
220.488	45.91
220.706	41.81
220.924	-5.29
221.142	4.95
221.36	54.1
221.578	27.48
221.796	33.62
222.015	4.95
222.233	15.19
222.451	62.29
222.669	47.96
222.887	39.76
223.105	43.86
223.323	45.91
223.541	-74.92
223.759	17.24
223.977	19.29
224.195	31.57
224.413	17.24
224.631	39.76
224.849	-9.39
225.067	50
225.285	64.34
225.503	70.48
225.721	-66.73
225.939	2.9
226.157	-46.25
226.375	21.33
226.592	31.57
226.81	50
227.028	7
227.246	33.62
227.464	-33.96
227.682	119.64
227.9	15.19
228.117	60.24
228.335	0.85
228.553	-11.43
228.771	35.67
228.989	-1.19
229.206	45.91
229.424	31.57
229.642	39.76
229.86	45.91
230.077	50
230.295	-50.35
230.513	2.9
230.731	27.48
230.948	50
231.166	19.29
231.384	50
231.601	-9.39
231.819	54.1
232.037	95.06
232.254	29.52
232.472	84.82
232.689	43.86
232.907	0.85
233.125	74.58
233.342	-21.67
233.56	-27.82
233.777	15.19
233.995	41.81
234.213	60.24
234.43	56.15
234.648	103.25
234.865	-27.82
235.083	13.14
235.3	-7.34
235.518	-5.29
235.735	27.48
235.953	23.38
236.17	21.33
236.388	43.86
236.605	33.62
236.822	41.81
237.04	133.97
237.257	33.62
237.475	21.33
237.692	-25.77
237.909	68.44
238.127	45.91
238.344	-7.34
238.562	97.11
238.779	-7.34
238.996	52.05
239.214	13.14
239.431	29.52
239.648	-13.48
239.865	-19.63
240.083	39.76
240.3	74.58
240.517	-29.87
240.735	93.01
240.952	129.88
241.169	17.24
241.386	-1.19
241.603	-85.16
241.821	-36.01
242.038	7
242.255	78.68
242.472	29.52
242.689	97.11
242.907	-11.43
243.124	15.19
243.341	13.14
243.558	-7.34
243.775	76.63
243.992	-23.72
244.209	-1.19
244.426	21.33
244.643	58.2
244.86	72.53
245.078	-64.68
245.295	45.91
245.512	54.1
245.729	-5.29
245.946	21.33
246.163	11.09
246.38	117.59
246.597	29.52
246.814	93.01
247.031	119.64
247.248	72.53
247.464	17.24
247.681	33.62
247.898	45.91
248.115	7
248.332	54.1
248.549	27.48
248.766	41.81
248.983	99.16
249.2	11.09
249.417	127.83
249.633	39.76
249.85	-1.19
250.067	39.76
250.284	-5.29
250.501	50
250.717	66.39
250.934	-58.54
251.151	84.82
251.368	78.68
251.585	35.67
251.801	86.87
252.018	-38.06
252.235	11.09
252.451	29.52
252.668	-25.77
252.885	45.91
253.102	0.85
253.318	117.59
253.535	50
253.752	-68.78
253.968	21.33
254.185	-17.58
254.401	54.1
254.618	105.3
254.835	-21.67
255.051	84.82
255.268	58.2
255.484	64.34
255.701	-33.96
255.917	23.38
256.134	-15.53
256.351	13.14
256.567	-19.63
256.784	25.43
257	-52.39
257.217	11.09
257.433	60.24
257.65	17.24
257.866	45.91
258.082	39.76
258.299	-19.63
258.515	17.24
258.732	17.24
258.948	17.24
259.165	-31.91
259.381	13.14
259.597	7
259.814	41.81
260.03	133.97
260.246	21.33
260.463	17.24
260.679	80.72
260.895	-40.11
261.112	2.9
261.328	41.81
261.544	15.19
261.761	-3.24
261.977	41.81
262.193	21.33
262.409	37.72
262.626	7
262.842	50
263.058	-11.43
263.274	-9.39
263.49	58.2
263.707	50
263.923	54.1
264.139	52.05
264.355	4.95
264.571	54.1
264.787	50
265.004	52.05
265.22	17.24
265.436	-3.24
265.652	-17.58
265.868	37.72
266.084	82.77
266.3	64.34
266.516	-29.87
266.732	52.05
266.948	66.39
267.164	80.72
267.38	101.2
267.596	-29.87
267.812	29.52
268.028	82.77
268.244	17.24
268.46	66.39
268.676	31.57
268.892	37.72
269.108	78.68
269.324	-44.2
269.54	-15.53
269.756	78.68
269.972	72.53
270.188	19.29
270.403	52.05
270.619	11.09
270.835	25.43
271.051	2.9
271.267	-11.43
271.483	13.14
271.698	21.33
271.914	50
272.13	47.96
272.346	66.39
272.562	21.33
272.777	109.4
272.993	31.57
273.209	29.52
273.425	17.24
273.64	76.63
273.856	4.95
274.072	86.87
274.287	-72.87
274.503	66.39
274.719	93.01
274.934	47.96
275.15	15.19
275.366	27.48
275.581	35.67
275.797	41.81
276.012	-15.53
276.228	93.01
276.444	23.38
276.659	52.05
276.875	-66.73
277.09	19.29
277.306	-40.11
277.521	41.81
277.737	-54.44
277.952	33.62
278.168	-48.3
278.383	58.2
278.599	41.81
278.814	43.86
279.03	29.52
279.245	-17.58
279.461	54.1
279.676	-40.11
279.892	13.14
280.107	41.81
280.322	4.95
280.538	47.96
280.753	74.58
280.969	31.57
281.184	-15.53
281.399	43.86
281.615	-7.34
281.83	19.29
282.045	37.72
282.26	-11.43
282.476	0.85
282.691	99.16
282.906	68.44
283.122	47.96
283.337	-36.01
283.552	70.48
283.767	64.34
283.983	41.81
284.198	33.62
284.413	23.38
284.628	-31.91
284.843	43.86
285.058	19.29
285.274	-17.58
285.489	-9.39
285.704	50
285.919	-11.43
286.134	-5.29
286.349	-29.87
286.564	-52.39
286.779	39.76
286.995	17.24
287.21	15.19
287.425	74.58
287.64	-11.43
287.855	115.54
288.07	-7.34
288.285	19.29
288.5	-17.58
288.715	-11.43
288.93	35.67
289.145	39.76
289.36	17.24
289.575	25.43
289.79	-27.82
290.004	-56.49
290.219	27.48
290.434	2.9
290.649	64.34
290.864	58.2
291.079	60.24
291.294	-9.39
291.509	-23.72
291.724	29.52
291.938	39.76
292.153	-36.01
292.368	-60.59
292.583	82.77
292.798	115.54
293.012	29.52
293.227	82.77
293.442	21.33
293.657	-44.2
293.871	41.81
294.086	37.72
294.301	25.43
294.516	37.72
294.73	-21.67
294.945	84.82
295.16	21.33
295.374	99.16
295.589	11.09
295.804	4.95
296.018	52.05
296.233	-7.34
296.447	2.9
296.662	-29.87
296.877	41.81
297.091	29.52
297.306	13.14
297.52	27.48
297.735	7
297.949	29.52
298.164	78.68
298.378	72.53
298.593	25.43
298.807	0.85
299.022	43.86
299.236	21.33
299.451	54.1
299.665	39.76
299.88	74.58
300.094	-1.19
300.309	-27.82
300.523	13.14
300.737	60.24
300.952	-15.53
301.166	70.48
301.381	11.09
301.595	-1.19
301.809	-1.19
302.024	29.52
302.238	-13.48
302.452	-5.29
302.667	17.24
302.881	84.82
303.095	68.44
303.309	-31.91
303.524	13.14
303.738	70.48
303.952	11.09
304.166	25.43
304.381	-25.77
304.595	54.1
304.809	19.29
305.023	115.54
305.237	7
305.452	88.92
305.666	56.15
305.88	25.43
306.094	21.33
306.308	17.24
306.522	47.96
306.736	13.14
306.95	62.29
307.164	82.77
307.379	78.68
307.593	-13.48
307.807	21.33
308.021	19.29
308.235	82.77
308.449	54.1
308.663	-3.24
308.877	-5.29
309.091	-3.24
309.305	70.48
309.519	-5.29
309.733	41.81
309.947	-19.63
310.161	62.29
310.374	23.38
310.588	60.24
310.802	-79.02
311.016	103.25
311.23	35.67
311.444	-7.34
311.658	-29.87
311.872	62.29
312.085	47.96
312.299	13.14
312.513	47.96
312.727	58.2
312.941	19.29
313.154	45.91
313.368	-5.29
313.582	111.44
313.796	-17.58
314.009	58.2
314.223	107.35
314.437	35.67
314.651	35.67
314.864	-7.34
315.078	-9.39
315.292	2.9
315.505	-3.24
315.719	68.44
315.933	2.9
316.146	-21.67
316.36	9.05
316.573	35.67
316.787	11.09
317.001	19.29
317.214	23.38
317.428	17.24
317.641	70.48
317.855	-7.34
318.068	-15.53
318.282	52.05
318.495	76.63
318.709	62.29
318.922	11.09
319.136	86.87
319.349	66.39
319.563	45.91
319.776	17.24
319.99	31.57
320.203	-3.24
320.417	2.9
320.63	17.24
320.843	93.01
321.057	-11.43
321.27	111.44
321.483	74.58
321.697	17.24
321.91	35.67
322.124	9.05
322.337	31.57
322.55	97.11
322.763	41.81
322.977	-15.53
323.19	-29.87
323.403	74.58
323.617	33.62
323.83	90.96
324.043	4.95
324.256	0.85
324.469	109.4
324.683	7
324.896	52.05
325.109	56.15
325.322	68.44
325.535	29.52
325.748	54.1
325.962	21.33
326.175	4.95
326.388	78.68
326.601	62.29
326.814	11.09
327.027	33.62
327.24	62.29
327.453	9.05
327.666	50
327.879	84.82
328.092	19.29
328.305	56.15
328.518	-19.63
328.731	-17.58
328.944	41.81
329.157	64.34
329.37	15.19
329.583	84.82
329.796	60.24
330.009	-5.29
330.222	-15.53
330.435	31.57
330.648	-25.77
330.861	-11.43
331.073	29.52
331.286	35.67
331.499	39.76
331.712	-29.87
331.925	2.9
332.138	13.14
332.35	52.05
332.563	45.91
332.776	13.14
332.989	33.62
333.202	9.05
333.414	-42.15
333.627	54.1
333.84	29.52
334.053	31.57
334.265	78.68
334.478	62.29
334.691	-42.15
334.903	-9.39
335.116	0.85
335.329	47.96
335.541	62.29
335.754	66.39
335.966	101.2
336.179	84.82
336.392	-17.58
336.604	0.85
336.817	13.14
337.029	68.44
337.242	60.24
337.454	70.48
337.667	45.91
337.88	17.24
338.092	62.29
338.305	31.57
338.517	95.06
338.729	35.67
338.942	35.67
339.154	35.67
339.367	4.95
339.579	95.06
339.792	103.25
340.004	54.1
340.217	-1.19
340.429	-3.24
340.641	25.43
340.854	11.09
341.066	19.29
341.278	99.16
341.491	41.81
341.703	27.48
341.915	-17.58
342.128	105.3
342.34	4.95
342.552	45.91
342.764	-19.63
342.977	-40.11
343.189	82.77
343.401	131.92
343.613	80.72
343.826	62.29
344.038	82.77
344.25	35.67
344.462	43.86
344.674	52.05
344.886	70.48
345.099	39.76
345.311	86.87
345.523	-1.19
345.735	0.85
345.947	35.67
346.159	13.14
346.371	2.9
346.583	13.14
346.795	84.82
347.007	-3.24
347.219	88.92
347.431	-13.48
347.643	115.54
347.855	27.48
348.067	41.81
348.279	21.33
348.491	66.39
348.703	27.48
348.915	43.86
349.127	35.67
349.339	-3.24
349.551	17.24
349.763	68.44
349.975	39.76
350.187	76.63
350.399	72.53
350.61	-7.34
350.822	-21.67
351.034	54.1
351.246	52.05
351.458	56.15
351.669	-13.48
351.881	37.72
352.093	60.24
352.305	39.76
352.517	21.33
352.728	-31.91
352.94	41.81
353.152	45.91
353.363	-3.24
353.575	35.67
353.787	9.05
353.999	27.48
354.21	78.68
354.422	11.09
354.633	17.24
354.845	54.1
355.057	47.96
355.268	52.05
355.48	31.57
355.692	41.81
355.903	9.05
356.115	64.34
356.326	21.33
356.538	93.01
356.749	21.33
356.961	64.34
357.172	-11.43
357.384	54.1
357.595	62.29
357.807	43.86
358.018	39.76
358.23	123.73
358.441	115.54
358.653	107.35
358.864	47.96
359.075	19.29
359.287	11.09
359.498	33.62
359.709	88.92
359.921	62.29
360.132	82.77
360.344	15.19
360.555	43.86
360.766	43.86
360.977	-7.34
361.189	70.48
361.4	-1.19
361.611	84.82
361.823	39.76
362.034	7
362.245	27.48
362.456	64.34
362.667	37.72
362.879	19.29
363.09	2.9
363.301	-1.19
363.512	23.38
363.723	13.14
363.935	72.53
364.146	50
364.357	43.86
364.568	-40.11
364.779	64.34
364.99	70.48
365.201	7
365.412	-19.63
365.623	19.29
365.834	25.43
366.045	84.82
366.256	80.72
366.467	90.96
366.678	86.87
366.889	56.15
367.1	13.14
367.311	-60.59
367.522	39.76
367.733	109.4
367.944	7
368.155	-38.06
368.366	15.19
368.577	62.29
368.788	15.19
368.999	15.19
369.209	27.48
369.42	99.16
369.631	84.82
369.842	27.48
370.053	101.2
370.264	97.11
370.474	64.34
370.685	0.85
370.896	15.19
371.107	33.62
371.317	50
371.528	97.11
371.739	115.54
371.95	93.01
372.16	19.29
372.371	103.25
372.582	-7.34
372.792	-21.67
373.003	-7.34
373.214	54.1
373.424	86.87
373.635	13.14
373.846	13.14
374.056	-5.29
374.267	95.06
374.477	70.48
374.688	17.24
374.898	33.62
375.109	7
375.319	54.1
375.53	60.24
375.74	41.81
375.951	29.52
376.161	13.14
376.372	125.78
376.582	19.29
376.793	88.92
377.003	95.06
377.214	47.96
377.424	64.34
377.635	21.33
377.845	-3.24
378.055	39.76
378.266	-40.11
378.476	56.15
378.686	68.44
378.897	13.14
379.107	119.64
379.317	54.1
379.528	23.38
379.738	39.76
379.948	13.14
380.158	41.81
380.369	72.53
380.579	62.29
380.789	-9.39
380.999	78.68
381.21	45.91
381.42	54.1
381.63	35.67
381.84	15.19
382.05	60.24
382.261	-5.29
382.471	74.58
382.681	-27.82
382.891	86.87
383.101	25.43
383.311	-5.29
383.521	62.29
383.731	121.68
383.941	23.38
384.151	90.96
384.361	80.72
384.571	68.44
384.781	-7.34
384.991	11.09
385.201	90.96
385.411	68.44
385.621	72.53
385.831	54.1
386.041	115.54
386.251	76.63
386.461	76.63
386.671	41.81
386.881	43.86
387.091	-31.91
387.301	115.54
387.511	27.48
387.72	60.24
387.93	88.92
388.14	7
388.35	76.63
388.56	47.96
388.769	29.52
388.979	45.91
389.189	74.58
389.399	17.24
389.609	39.76
389.818	23.38
390.028	2.9
390.238	62.29
390.447	-1.19
390.657	39.76
390.867	72.53
391.076	43.86
391.286	86.87
391.496	101.2
391.705	41.81
391.915	54.1
392.125	72.53
392.334	125.78
392.544	103.25
392.753	80.72
392.963	88.92
393.172	56.15
393.382	41.81
393.591	93.01
393.801	105.3
394.01	131.92
394.22	50
394.429	78.68
394.639	66.39
394.848	156.5
395.058	45.91
395.267	60.24
395.477	68.44
395.686	78.68
395.895	111.44
396.105	68.44
396.314	0.85
396.524	129.88
396.733	72.53
396.942	121.68
397.152	113.49
397.361	43.86
397.57	27.48
397.78	45.91
397.989	68.44
398.198	62.29
398.407	47.96
398.617	39.76
398.826	68.44
399.035	117.59
399.244	170.83
399.453	144.21
399.663	103.25
399.872	43.86
400.081	62.29
400.29	82.77
400.499	86.87
400.708	121.68
400.917	84.82
401.127	129.88
401.336	109.4
401.545	150.36
401.754	138.07
401.963	115.54
402.172	193.36
402.381	109.4
402.59	111.44
402.799	76.63
403.008	148.31
403.217	119.64
403.426	107.35
403.635	156.5
403.844	168.79
404.053	111.44
404.262	144.21
404.471	154.45
404.68	170.83
404.888	90.96
405.097	82.77
405.306	68.44
405.515	176.98
405.724	174.93
405.933	185.17
406.142	133.97
406.35	127.83
406.559	160.59
406.768	176.98
406.977	160.59
407.185	189.27
407.394	101.2
407.603	193.36
407.812	191.31
408.02	330.58
408.229	185.17
408.438	275.28
408.646	191.31
408.855	242.51
409.064	269.14
409.272	230.23
409.481	262.99
409.69	203.6
409.898	211.79
410.107	271.19
410.315	340.82
410.524	285.52
410.733	332.62
410.941	344.91
411.15	287.57
411.358	340.82
411.567	398.16
411.775	402.26
411.984	357.2
412.192	428.88
412.401	369.49
412.609	451.41
412.818	418.64
413.026	492.37
413.234	475.98
413.443	553.8
413.651	471.89
413.86	492.37
414.068	557.9
414.276	566.09
414.485	623.44
414.693	635.72
414.901	654.16
415.11	643.92
415.318	639.82
415.526	652.11
415.734	762.7
415.943	754.51
416.151	805.71
416.359	834.38
416.567	783.18
416.776	883.53
416.984	887.62
417.192	983.88
417.4	957.25
417.608	932.68
417.817	1012.55
418.025	1086.28
418.233	1213.25
418.441	953.16
418.649	1104.71
418.857	1203.01
419.065	1239.87
419.273	1168.2
419.481	1213.25
419.689	1407.81
419.897	1456.96
420.105	1327.94
420.313	1387.33
420.521	1549.12
420.729	1514.3
420.937	1516.35
421.145	1645.37
421.353	1758.01
421.561	1782.59
421.769	1891.13
421.977	2048.82
422.185	1866.55
422.393	2128.69
422.601	2112.31
422.809	2214.71
423.017	2171.7
423.224	2243.38
423.432	2423.6
423.64	2417.46
423.848	2607.92
424.056	2538.29
424.263	2683.69
424.471	2779.95
424.679	2806.57
424.887	2827.05
425.094	2986.79
425.302	3033.9
425.51	3130.15
425.718	3191.59
425.925	3408.67
426.133	3216.16
426.341	3535.65
426.548	3613.47
426.756	3752.73
426.964	3715.87
427.171	3943.19
427.379	4188.95
427.586	4176.66
427.794	4369.17
428.001	4506.38
428.209	4565.78
428.417	4479.76
428.624	5040.9
428.832	4932.36
429.039	4920.07
429.247	4832.01
429.454	5526.27
429.662	5704.45
429.869	5470.98
430.076	5667.58
430.284	5579.52
430.491	5645.06
430.699	6165.24
430.906	6060.79
431.114	6214.39
431.321	6460.15
431.528	6595.31
431.736	7086.83
431.943	7308.01
432.15	7062.25
432.358	7338.73
432.565	7465.7
432.772	7557.86
432.979	8051.42
433.187	8301.27
433.394	8196.82
433.601	8530.64
433.808	8772.3
434.016	8788.69
434.223	9087.69
434.43	9628.35
434.637	9554.63
434.844	9781.95
435.052	10343.1
435.259	10142.39
435.466	10169.02
435.673	10054.33
435.88	10914.48
436.087	11485.86
436.294	11520.68
436.501	11096.75
436.708	11496.1
436.915	11737.76
437.122	12180.12
437.329	12171.93
437.537	12575.38
437.743	12655.25
437.95	12667.54
438.157	13390.47
438.364	13795.97
438.571	14090.88
438.778	13859.46
438.985	15288.94
439.192	14664.31
439.399	14940.79
439.606	14766.71
439.813	15592.04
440.02	16462.43
440.227	16323.16
440.433	16134.75
440.64	16632.41
440.847	16689.75
441.054	16763.48
441.261	17953.35
441.467	17893.96
441.674	18147.9
441.881	18879.03
442.088	18807.35
442.294	18793.01
442.501	19180.08
442.708	19673.64
442.914	20193.83
443.121	21092.88
443.328	20443.68
443.534	21895.69
443.741	21217.81
443.948	20951.57
444.154	22755.83
444.361	22725.11
444.568	22333.95
444.774	22905.34
444.981	23020.02
445.187	23564.78
445.394	24469.98
445.6	24240.61
445.807	26841.53
446.013	25653.71
446.22	25883.08
446.426	27001.27
446.633	27146.68
446.839	28230.05
447.046	27204.02
447.252	28406.18
447.459	28717.47
447.665	28287.4
447.871	29432.21
448.078	31123.83
448.284	29413.78
448.491	30206.34
448.697	31469.94
448.903	31906.16
449.11	32172.39
449.316	31457.65
449.522	31893.87
449.728	33155.42
449.935	33452.37
450.141	32801.12
450.347	33728.85
450.553	32934.24
450.76	33403.22
450.966	34279.75
451.172	34085.2
451.378	34847.04
451.584	34478.41
451.791	35057.98
451.997	34879.81
452.203	35209.53
452.409	35688.76
452.615	35197.24
452.821	34048.33
453.027	33716.56
453.233	35352.89
453.44	34019.66
453.646	34451.78
453.852	34474.31
454.058	34990.4
454.264	34021.71
454.47	34720.07
454.676	33718.61
454.882	35012.93
455.088	32041.32
455.294	32565.6
455.5	33335.64
455.705	33415.51
455.911	31877.49
456.117	31222.14
456.323	31093.11
456.529	29319.57
456.735	30744.96
456.941	29968.78
457.147	29340.05
457.352	28346.79
457.558	28379.56
457.764	28234.15
457.97	27713.97
458.176	26937.79
458.381	27118.01
458.587	25874.89
458.793	25377.23
458.999	24209.89
459.204	26257.86
459.41	25342.42
459.616	23595.5
459.821	23861.74
460.027	23599.6
460.233	23077.37
460.438	22129.16
460.644	22442.49
460.85	21121.56
461.055	20947.48
461.261	21072.4
461.466	19397.17
461.672	18711.1
461.878	19952.16
462.083	18846.26
462.289	18643.51
462.494	18262.59
462.7	17416.78
462.905	16781.91
463.111	17545.8
463.316	17510.99
463.522	16947.79
463.727	17173.07
463.932	17021.52
464.138	17050.19
464.343	17050.19
464.549	16603.74
464.754	17144.4
464.959	16900.69
465.165	16724.57
465.37	16405.08
465.575	15805.03
465.781	16339.55
465.986	16380.51
466.191	15956.58
466.397	15481.45
466.602	14805.62
466.807	15463.02
467.012	15362.67
467.218	15047.28
467.423	15020.66
467.628	15159.92
467.833	15741.54
468.038	15399.53
468.244	14834.29
468.449	15510.12
468.654	14912.11
468.859	14680.69
469.064	14666.36
469.269	14187.13
469.474	14367.35
469.679	14533.24
469.885	14148.22
470.09	14297.72
470.295	14158.46
470.5	13902.47
470.705	13945.47
470.91	13507.21
471.115	13685.38
471.32	13712
471.525	13757.06
471.73	13408.9
471.935	13413
472.139	12821.14
472.344	13052.56
472.549	12710.55
472.754	12767.89
472.959	12460.7
473.164	12151.45
473.369	12051.1
473.574	12397.21
473.778	12413.59
473.983	12186.27
474.188	12055.2
474.393	11774.63
474.598	11819.68
474.802	11563.68
475.007	11629.22
475.212	11391.66
475.417	10937.01
475.621	11092.65
475.826	11156.14
476.031	10885.81
476.235	10891.95
476.44	10619.57
476.645	10609.33
476.849	10715.83
477.054	10578.61
477.259	10175.16
477.463	10269.37
477.668	9882.3
477.872	10255.03
478.077	10064.57
478.282	9679.55
478.486	9839.3
478.691	9841.34
478.895	9659.07
479.1	9671.36
479.304	9439.94
479.509	9243.34
479.713	9544.39
479.918	9417.41
480.122	9323.21
480.326	9433.8
480.531	9261.77
480.735	9145.03
480.94	9222.86
481.144	9394.89
481.348	8860.37
481.553	9081.55
481.757	8676.05
481.961	8862.41
482.166	9050.83
482.37	8983.24
482.574	8999.63
482.778	9085.64
482.983	8948.43
483.187	9016.01
483.391	8895.18
483.595	8798.93
483.8	8925.9
484.004	8809.17
484.208	9093.83
484.412	9093.83
484.616	8862.41
484.821	8911.57
485.025	8770.26
485.229	8811.21
485.433	8821.45
485.637	8854.22
485.841	8930
486.045	9005.77
486.249	8872.65
486.453	8792.78
486.657	8841.93
486.861	8921.81
487.065	8784.59
487.269	8770.26
487.473	8686.29
487.677	8727.25
487.881	8815.31
488.085	8930
488.289	8811.21
488.493	8700.62
488.697	9022.16
488.901	8860.37
489.105	8813.26
489.309	8964.81
489.512	8987.34
489.716	9165.51
489.92	9036.49
490.124	9071.31
490.328	9155.27
490.531	9054.92
490.735	9009.87
490.939	9089.74
491.143	8995.53
491.346	9142.99
491.55	9140.94
491.754	9175.75
491.958	9341.64
492.161	9071.31
492.365	9349.83
492.569	9188.04
492.772	9267.91
492.976	9462.47
493.18	9417.41
493.383	9607.87
493.587	9659.07
493.79	9818.82
493.994	9738.94
494.197	9712.32
494.401	9908.93
494.605	9759.42
494.808	10042.04
495.012	9779.9
495.215	10126.01
495.419	10199.74
495.622	10136.25
495.825	10308.28
496.029	10289.85
496.232	10394.29
496.436	10373.82
496.639	10531.51
496.843	10638
497.046	10732.21
497.249	10846.9
497.453	10908.33
497.656	11141.8
497.859	11178.67
498.063	11154.09
498.266	11444.9
498.469	11418.28
498.673	11625.12
498.876	11784.87
499.079	11827.87
499.282	11866.78
499.485	11997.85
499.689	12157.6
499.892	12053.15
500.095	12427.93
500.298	12802.71
500.501	12610.2
500.705	12671.64
500.908	13134.48
501.111	13114
501.314	13173.39
501.517	13126.29
501.72	13654.66
501.923	13695.62
502.126	13916.8
502.329	13996.67
502.532	14004.86
502.735	13851.27
502.938	14279.29
503.141	14330.49
503.344	14719.6
503.547	14641.78
503.75	14942.83
503.953	15217.26
504.156	15463.02
504.359	15610.47
504.562	15315.56
504.765	15895.14
504.968	15977.06
505.17	16106.08
505.373	15954.53
505.576	16458.33
505.779	16392.8
505.982	16765.53
506.185	16882.26
506.387	17097.3
506.59	17250.89
506.793	17621.58
506.996	17277.52
507.198	17971.78
507.401	17564.23
507.604	18014.79
507.807	18205.25
508.009	18573.88
508.212	18727.48
508.415	18895.41
508.617	18944.56
508.82	19227.18
509.022	19243.57
509.225	19384.88
509.428	19898.92
509.63	20048.42
509.833	19929.64
510.035	20294.18
510.238	20290.08
510.44	20505.12
510.643	21008.92
510.845	21150.23
511.048	21004.82
511.25	21236.24
511.453	21305.87
511.655	22120.96
511.858	21903.88
512.06	22108.68
512.262	22094.34
512.465	22401.54
512.667	22921.72
512.87	22815.23
513.072	22901.24
513.274	23200.24
513.477	23755.24
513.679	23824.87
513.881	23996.9
514.084	24021.48
514.286	24111.59
514.488	24310.24
514.69	24852.95
514.893	25000.41
515.095	24902.11
515.297	25485.78
515.499	25635.28
515.701	25821.64
515.904	26091.98
516.106	26245.57
516.308	26251.72
516.51	26841.53
516.712	26532.29
516.914	27007.42
517.116	27253.17
517.318	27490.74
517.52	27734.45
517.722	27593.14
517.925	27847.08
518.127	28387.75
518.329	28707.23
518.531	28285.35
518.733	28789.15
518.935	29127.06
519.136	29168.02
519.338	29460.88
519.54	29395.35
519.742	30091.66
519.944	30153.1
520.146	30282.12
520.348	30615.94
520.55	30175.62
520.752	31035.77
520.954	31625.59
521.155	31414.65
521.357	31576.44
521.559	31666.55
521.761	32090.48
521.963	32223.59
522.164	32180.59
522.366	32657.76
522.568	32670.05
522.77	32907.62
522.971	33294.68
523.173	32741.73
523.375	33323.35
523.576	33198.43
523.778	33579.35
523.98	33835.35
524.181	34203.98
524.383	33720.66
524.584	34472.26
524.786	34431.3
524.988	34052.43
525.189	35053.89
525.391	35193.15
525.592	35230.01
525.794	35088.7
525.995	35209.53
526.197	35588.41
526.398	35393.85
526.6	35748.15
526.801	35930.42
527.003	36489.51
527.204	35563.83
527.406	36403.5
527.607	36264.24
527.808	36254
528.01	35932.47
528.211	36522.28
528.412	37032.22
528.614	36628.77
528.815	36573.48
529.016	37163.29
529.218	36784.42
529.419	36682.02
529.62	37167.39
529.822	36837.67
530.023	36743.46
530.224	37091.62
530.425	37148.96
530.626	36950.31
530.828	37046.56
531.029	37800.21
531.23	37249.31
531.431	37167.39
531.632	37333.28
531.833	37597.46
532.035	37480.73
532.236	37511.45
532.437	37755.16
532.638	37085.47
532.839	38162.7
533.04	37787.92
533.241	37617.94
533.442	38318.35
533.643	37769.49
533.844	37570.84
534.045	38005.01
534.246	37540.12
534.447	38078.74
534.648	37632.28
534.849	38142.22
535.05	37411.1
535.251	37638.42
535.451	37957.91
535.652	37972.24
535.853	37533.98
536.054	37900.56
536.255	38070.54
536.456	37327.13
536.657	38320.4
536.857	37511.45
537.058	37794.07
537.259	37906.71
537.46	37806.36
537.66	37767.45
537.861	37857.56
538.062	37904.66
538.263	37843.22
538.463	37388.57
538.664	37996.82
538.865	37835.03
539.065	38074.64
539.266	37511.45
539.466	38299.92
539.667	37124.38
539.868	38039.82
540.068	37609.75
540.269	38119.7
540.469	37894.42
540.67	37447.96
540.87	37398.81
541.071	37679.38
541.271	38064.4
541.472	37667.09
541.672	37040.42
541.873	37343.52
542.073	37275.93
542.274	37572.89
542.474	37359.9
542.675	37284.12
542.875	37777.68
543.075	37411.1
543.276	37179.68
543.476	37695.77
543.676	37187.87
543.877	37255.45
544.077	37630.23
544.277	37507.35
544.478	37320.99
544.678	37726.49
544.878	37415.19
545.078	37759.25
545.279	36739.36
545.479	37054.75
545.679	37359.9
545.879	37343.52
546.079	37288.22
546.28	37353.76
546.48	37079.33
546.68	37450.01
546.88	37558.55
547.08	37507.35
547.28	37161.25
547.48	36798.76
547.68	37275.93
547.88	36735.27
548.081	36964.64
548.281	36911.39
548.481	36925.73
548.681	37318.94
548.881	37069.09
549.081	37337.37
549.28	37030.18
549.48	37343.52
549.68	37308.7
549.88	37722.39
550.08	37009.7
550.28	36892.96
550.48	37359.9
550.68	37445.91
550.88	37034.27
551.08	37058.85
551.279	36997.41
551.479	36663.59
551.679	37267.74
551.879	36712.74
552.079	37349.66
552.278	36913.44
552.478	36866.34
552.678	37099.81
552.878	36991.26
553.077	36620.58
553.277	36790.56
553.477	37028.13
553.676	36714.79
553.876	36729.12
554.076	36501.8
554.275	36587.82
554.475	36008.24
554.674	36784.42
554.874	36763.94
555.074	36458.79
555.273	36698.41
555.473	37054.75
555.672	36555.05
555.872	36135.21
556.071	36567.34
556.271	36358.44
556.47	36350.25
556.67	36094.25
556.869	36710.69
557.068	36464.94
557.268	35715.38
557.467	36237.61
557.667	36090.16
557.866	36002.1
558.065	36112.69
558.265	36053.3
558.464	35713.33
558.663	36079.92
558.863	35531.06
559.062	36194.61
559.261	35662.13
559.461	36260.14
559.66	35381.56
559.859	36036.91
560.058	35576.12
560.258	36036.91
560.457	35260.73
560.656	35778.87
560.855	35246.4
561.054	36008.24
561.253	35367.23
561.453	35834.16
561.652	35467.58
561.851	35723.57
562.05	35477.82
562.249	35189.05
562.448	35557.69
562.647	35268.92
562.846	35246.4
563.045	35393.85
563.244	34842.95
563.443	35359.03
563.642	34437.45
563.841	35154.24
564.04	34738.5
564.239	34939.2
564.438	34623.81
564.637	34709.83
564.836	34672.96
565.035	34437.45
565.234	34730.31
565.432	34595.14
565.631	34589
565.83	34376.01
566.029	34224.46
566.228	34111.82
566.427	34212.17
566.625	33958.22
566.824	34236.75
567.023	34609.48
567.222	33675.6
567.42	34197.84
567.619	34005.33
567.818	33812.82
568.016	33651.03
568.215	33665.36
568.414	33497.43
568.612	34109.77
568.811	33712.47
569.01	33720.66
569.208	33136.99
569.407	33673.56
569.605	32842.08
569.804	33565.01
570.002	33007.97
570.201	33266.01
570.4	32934.24
570.598	32991.58
570.797	32754.02
570.995	32907.62
571.193	32721.25
571.392	33073.5
571.59	32475.49
571.789	32917.86
571.987	32205.16
572.186	32672.1
572.384	32360.81
572.582	32549.22
572.781	32555.36
572.979	32229.74
573.177	32305.51
573.376	32342.38
573.574	32217.45
573.772	32151.91
573.971	31662.45
574.169	31695.22
574.367	31736.18
574.565	31814
574.763	31945.07
574.962	31537.52
575.16	31218.04
575.358	31596.92
575.556	31308.15
575.754	31631.73
575.952	31115.64
576.151	31287.67
576.349	30880.13
576.547	31240.57
576.745	31418.74
576.943	30855.55
577.141	30921.09
577.339	31244.66
577.537	30701.95
577.735	30869.89
577.933	30370.18
578.131	30960
578.329	30310.79
578.527	30417.29
578.725	30644.61
578.923	30908.8
579.121	30443.91
579.319	29970.83
579.516	30527.88
579.714	30036.36
579.912	29981.07
580.11	29837.71
580.308	30003.6
580.506	30149
580.704	29469.08
580.901	29813.13
581.099	30290.31
581.297	29657.49
581.495	29624.72
581.692	29815.18
581.89	28901.79
582.088	29460.88
582.285	29251.99
582.483	29477.27
582.681	28897.69
582.878	29223.32
583.076	28905.88
583.274	29016.47
583.471	28678.56
583.669	29020.57
583.866	28899.74
584.064	28629.41
584.262	28137.9
584.459	28678.56
584.657	28209.57
584.854	28453.28
585.052	27820.46
585.249	28291.49
585.447	28109.22
585.644	27824.56
585.841	28062.12
586.039	28015.02
586.236	27910.57
586.434	27838.89
586.631	27523.51
586.828	27728.3
587.026	27599.28
587.223	27787.69
587.42	27562.42
587.618	27568.56
587.815	27210.17
588.012	27265.46
588.21	27068.86
588.407	27333.04
588.604	26972.6
588.801	26788.28
588.999	27054.52
589.196	26864.06
589.393	26743.23
589.59	26859.96
589.787	26343.88
589.984	26393.03
590.182	26255.81
590.379	26347.97
590.576	26266.05
590.773	26337.73
590.97	26128.84
591.167	26345.92
591.364	25881.03
591.561	25950.67
591.758	25897.42
591.955	25502.16
592.152	25737.68
592.349	25856.46
592.546	25467.34
592.743	25741.77
592.94	25145.81
593.137	25455.06
593.334	25313.75
593.531	25145.81
593.727	25180.63
593.924	25346.51
594.121	24846.81
594.318	25053.66
594.515	24846.81
594.712	25356.75
594.908	24553.95
595.105	24859.1
595.302	24433.12
595.499	24687.07
595.696	24596.96
595.892	24199.65
596.089	24609.25
596.286	24283.62
596.482	24357.35
596.679	24109.54
596.876	24015.33
597.072	23994.86
597.269	24017.38
597.466	23640.56
597.662	23691.76
597.859	23775.72
598.055	23857.64
598.252	23663.08
598.448	23785.96
598.645	23579.12
598.841	23230.96
599.038	23435.76
599.234	23484.91
599.431	23249.39
599.627	22991.35
599.824	23187.96
600.02	22819.32
600.217	22798.84
600.413	22737.4
600.609	22972.92
600.806	22690.3
601.002	22917.62
601.198	22841.85
601.395	22778.36
601.591	22567.42
601.787	22690.3
601.984	22383.1
602.18	22682.11
602.376	22272.51
602.572	22290.95
602.769	22190.59
602.965	22032.9
603.161	22256.13
603.357	21957.13
603.553	21961.22
603.75	22041.09
603.946	21287.44
604.142	21979.65
604.338	21598.73
604.534	21541.39
604.73	21426.7
604.926	21379.6
605.122	21494.29
605.318	21508.62
605.514	21113.36
605.71	21062.16
605.906	21137.94
606.102	21127.7
606.298	21078.55
606.494	21211.67
606.69	21002.77
606.886	20840.98
607.082	20720.15
607.278	21004.82
607.474	20576.8
607.67	20918.81
607.866	20496.92
608.062	20677.15
608.257	20816.41
608.453	20408.86
608.649	20421.15
608.845	20230.69
609.041	20253.22
609.236	20425.25
609.432	20482.59
609.628	20242.98
609.824	20304.42
610.019	20337.18
610.215	20111.91
610.411	20021.8
610.606	20156.96
610.802	20134.43
610.998	19970.6
611.193	20056.61
611.389	19933.73
611.584	19839.53
611.78	20003.36
611.976	19939.88
612.171	19896.87
612.367	19810.86
612.562	19747.37
612.758	19628.59
612.953	19524.14
613.149	19708.46
613.344	19583.53
613.539	19929.64
613.735	19667.5
613.93	19581.48
614.126	19262
614.321	19753.51
614.517	19419.69
614.712	19401.26
614.907	19243.57
615.103	19423.79
615.298	19214.9
615.493	19319.34
615.688	19024.44
615.884	19464.75
616.079	19171.89
616.274	19233.33
616.47	19317.29
616.665	19206.7
616.86	18987.57
617.055	19020.34
617.25	18887.22
617.445	19233.33
617.641	18795.06
617.836	18750.01
618.031	18582.07
618.226	18788.92
618.421	18399.8
618.616	18768.44
618.811	18278.97
619.006	18725.43
619.201	18293.31
619.396	18494.01
619.591	17893.96
619.786	18182.72
619.981	17787.46
620.176	18205.25
620.371	17764.93
620.566	18063.94
620.761	17640.01
620.956	17871.43
621.151	17586.76
621.346	17390.16
621.541	17336.91
621.735	17949.25
621.93	17273.42
622.125	17437.26
622.32	17187.41
622.515	17064.53
622.709	16978.51
622.904	16839.25
623.099	16826.96
623.294	16849.49
623.488	16726.61
623.683	16984.66
623.878	16360.03
624.072	16491.1
624.267	16534.11
624.462	16200.29
624.656	16364.12
624.851	16312.92
625.046	16144.99
625.24	16276.06
625.435	15749.73
625.629	15770.21
625.824	15774.31
626.018	15868.52
626.213	15379.05
626.407	15604.33
626.602	15231.6
626.796	15381.1
626.991	15157.87
627.185	15032.94
627.38	15041.14
627.574	14832.24
627.768	14811.76
627.963	14723.7
628.157	14832.24
628.352	14686.84
628.546	14428.79
628.74	14592.63
628.935	14264.96
629.129	14449.27
629.323	14144.13
629.517	14221.95
629.712	13963.9
629.906	14119.55
630.1	13658.76
630.294	13886.08
630.489	13881.99
630.683	13918.85
630.877	13384.33
631.071	13669
631.265	13386.38
631.459	13447.82
631.653	13496.97
631.848	13353.61
632.042	13421.19
632.236	13345.42
632.43	12913.3
632.624	13025.93
632.818	13093.52
633.012	12655.25
633.206	12903.06
633.4	12941.97
633.594	12677.78
633.788	12833.43
633.982	12595.86
634.176	12503.7
634.369	12429.98
634.563	12552.85
634.757	12386.97
634.951	12233.37
635.145	12321.43
635.339	12126.88
635.533	11928.22
635.726	12245.66
635.92	11979.42
636.114	11893.41
636.308	11795.11
636.501	12124.83
636.695	11842.21
636.889	11575.97
637.083	11639.46
637.276	11723.43
637.47	11512.49
637.664	11389.61
637.857	11344.55
638.051	11293.35
638.244	11313.83
638.438	10904.24
638.632	11027.12
638.825	10826.42
639.019	11037.36
639.212	10924.72
639.406	11098.8
639.599	10883.76
639.793	10848.94
639.986	10539.7
640.18	10965.68
640.373	10767.03
640.567	10384.05
640.76	10574.52
640.954	10638
641.147	10347.19
641.34	10250.94
641.534	10343.1
641.727	10341.05
641.92	10263.22
642.114	10216.12
642.307	10109.63
642.5	10105.53
642.694	9796.29
642.887	9896.64
643.08	10029.76
643.273	9896.64
643.467	9900.73
643.66	9726.66
643.853	9583.3
644.046	9616.07
644.239	9714.37
644.432	9654.98
644.626	9507.52
644.819	9282.25
645.012	9601.73
645.205	9284.3
645.398	9366.21
645.591	9374.41
645.784	9192.14
645.977	9247.43
646.17	9288.39
646.363	9071.31
646.556	8862.41
646.749	8905.42
646.942	8991.44
647.135	8997.58
647.328	8770.26
647.521	8915.66
647.714	8880.85
647.907	8985.29
648.099	8899.28
648.292	8684.24
648.485	8618.71
648.678	8520.4
648.871	8481.49
649.064	8350.42
649.256	8587.99
649.449	8299.22
649.642	8338.13
649.835	8379.09
650.027	8248.02
650.22	8170.2
650.413	8299.22
650.605	8282.84
650.798	8008.41
650.991	7850.72
651.183	8100.57
651.376	7979.74
651.568	7940.83
651.761	7779.04
651.954	7643.87
652.146	7736.03
652.339	7588.58
652.531	7873.25
652.724	7697.12
652.916	7684.83
653.109	7623.39
653.301	7590.63
653.494	7736.03
653.686	7496.42
653.879	7607.01
654.071	7295.72
654.263	7283.43
654.456	7387.88
654.648	7340.77
654.84	7109.35
655.033	7410.4
655.225	7015.15
655.417	7314.15
655.61	7088.87
655.802	6953.71
655.994	7133.93
656.186	7097.07
656.379	6918.89
656.571	6824.69
656.763	6877.93
656.955	6669.04
657.148	6875.88
657.34	6808.3
657.532	6576.88
657.724	6699.76
657.916	6685.42
658.108	6587.12
658.3	6535.92
658.492	6673.14
658.684	6648.56
658.876	6449.91
659.068	6400.76
659.26	6329.08
659.452	6267.64
659.644	6312.69
659.836	6445.81
660.028	6374.13
660.22	6363.89
660.412	6083.32
660.604	6085.37
660.796	6226.68
660.988	6257.4
661.18	6146.81
661.372	6128.38
661.563	6038.27
661.755	5993.21
661.947	5987.07
662.139	5927.67
662.331	5792.51
662.522	5800.7
662.714	5890.81
662.906	5747.45
663.097	5741.31
663.289	5831.42
663.481	5755.65
663.673	5790.46
663.864	5491.46
664.056	5462.79
664.247	5597.95
664.439	5581.57
664.631	5479.17
664.822	5591.81
665.014	5597.95
665.205	5409.54
665.397	5552.9
665.588	5559.04
665.78	5470.98
665.971	5288.71
666.163	5640.96
666.354	5532.42
666.546	5446.4
666.737	5245.7
666.929	5327.62
667.12	5276.42
667.311	5225.22
667.503	5012.23
667.694	5208.84
667.885	5131.02
668.077	5145.35
668.268	5100.3
668.459	5020.42
668.651	5063.43
668.842	5157.64
669.033	4995.85
669.224	4969.23
669.416	4872.97
669.607	4907.79
669.798	4891.4
669.989	4825.87
670.18	4875.02
670.371	4829.96
670.563	4756.24
670.754	4758.28
670.945	4768.52
671.136	4852.49
671.327	4942.6
671.518	4657.93
671.709	4729.61
671.9	4799.24
672.091	4774.67
672.282	4596.5
672.473	4647.69
672.664	4545.3
672.855	4528.91
673.046	4571.92
673.237	4592.4
673.428	4543.25
673.619	4633.36
673.809	4541.2
674	4492.05
674.191	4598.54
674.382	4449.04
674.573	4340.5
674.764	4514.58
674.954	4403.99
675.145	4188.95
675.336	4455.19
675.527	4326.16
675.717	4346.64
675.908	4166.42
676.099	4551.44
676.289	4358.93
676.48	4219.67
676.671	4238.1
676.861	4059.93
677.052	4203.29
677.243	4172.57
677.433	4193.05
677.624	4197.14
677.814	4080.41
678.005	4211.48
678.195	4117.27
678.386	4182.81
678.576	4080.41
678.767	4115.22
678.957	4166.42
679.148	4121.37
679.338	3965.72
679.529	4119.32
679.719	4109.08
679.909	4021.02
680.1	3994.39
680.29	4066.07
680.481	3978.01
680.671	4113.17
680.861	3904.28
681.052	3928.86
681.242	3853.08
681.432	3906.33
681.622	3951.39
681.813	3887.9
682.003	3910.43
682.193	3830.55
682.383	3910.43
682.573	3894.04
682.764	3883.8
682.954	3869.47
683.144	3869.47
683.334	3730.2
683.524	3797.79
683.714	3812.12
683.904	3683.1
684.094	3840.79
684.284	3765.02
684.474	3777.31
684.664	3777.31
684.854	3844.89
685.044	3666.72
685.234	3582.75
685.424	3816.22
685.614	3713.82
685.804	3740.44
685.994	3650.33
686.184	3709.72
686.374	3486.5
686.564	3685.15
686.753	3449.63
686.943	3580.7
687.133	3547.94
687.323	3537.7
687.513	3584.8
687.702	3685.15
687.892	3500.83
688.082	3572.51
688.272	3420.96
688.461	3416.87
688.651	3476.26
688.841	3347.23
689.03	3461.92
689.22	3398.43
689.41	3336.99
689.599	3314.47
689.789	3279.65
689.979	3240.74
690.168	3285.8
690.358	3351.33
690.547	3156.77
690.737	3205.92
690.926	3275.56
691.116	3195.68
691.305	3207.97
691.495	3099.43
691.684	3189.54
691.874	3164.97
692.063	3128.1
692.252	3240.74
692.442	3070.76
692.631	3113.77
692.82	3058.47
693.01	3128.1
693.199	3078.95
693.388	3033.9
693.578	3003.18
693.767	2958.12
693.956	2884.39
694.146	2994.98
694.335	2833.19
694.524	2849.58
694.713	2919.21
694.902	3013.42
695.092	2970.41
695.281	2949.93
695.47	2937.64
695.659	2870.06
695.848	2732.84
696.037	2706.22
696.226	2900.78
696.415	2628.4
696.604	2865.96
696.793	2612.01
696.982	2745.13
697.171	2745.13
697.36	2683.69
697.549	2777.9
697.738	2640.69
697.927	2790.19
698.116	2702.12
698.305	2700.08
698.494	2704.17
698.683	2689.84
698.872	2521.9
699.061	2601.77
699.25	2708.27
699.438	2595.63
699.627	2626.35
699.816	2591.53
700.005	2589.49
700.193	2544.43
700.382	2626.35
700.571	2644.78
700.76	2564.91
700.948	2732.84
701.137	2509.62
701.326	2521.9
701.514	2575.15
701.703	2589.49
701.892	2515.76
702.08	2478.9
702.269	2575.15
702.457	2620.21
702.646	2487.09
702.834	2526
703.023	2556.72
703.212	2419.5
703.4	2501.42
703.589	2478.9
703.777	2601.77
703.965	2509.62
704.154	2532.14
704.342	2487.09
704.531	2497.33
704.719	2513.71
704.907	2577.2
705.096	2368.31
705.284	2515.76
705.472	2538.29
705.661	2405.17
705.849	2526
706.037	2380.59
706.226	2384.69
706.414	2474.8
706.602	2423.6
706.79	2458.42
706.979	2382.64
707.167	2399.02
707.355	2507.57
707.543	2409.26
707.731	2280.24
707.919	2335.54
708.107	2415.41
708.296	2343.73
708.484	2515.76
708.672	2427.7
708.86	2368.31
709.048	2509.62
709.236	2360.11
709.424	2321.2
709.612	2439.98
709.8	2399.02
709.988	2310.96
710.176	2347.83
710.364	2378.55
710.551	2403.12
710.739	2349.87
710.927	2384.69
711.115	2405.17
711.303	2456.37
711.491	2294.58
711.679	2288.43
711.866	2347.83
712.054	2325.3
712.242	2345.78
712.43	2265.91
712.617	2294.58
712.805	2321.2
712.993	2444.08
713.181	2399.02
713.368	2368.31
713.556	2442.03
713.744	2409.26
713.931	2360.11
714.119	2356.02
714.306	2306.87
714.494	2380.59
714.682	2396.98
714.869	2319.15
715.057	2362.16
715.244	2300.72
715.432	2267.95
715.619	2382.64
715.807	2362.16
715.994	2259.76
716.182	2345.78
716.369	2341.68
716.556	2456.37
716.744	2376.5
716.931	2261.81
717.119	2487.09
717.306	2378.55
717.493	2327.35
717.681	2343.73
717.868	2356.02
718.055	2315.06
718.242	2317.11
718.43	2372.4
718.617	2319.15
718.804	2294.58
718.991	2423.6
719.179	2337.59
719.366	2423.6
719.553	2417.46
719.74	2419.5
719.927	2296.63
720.114	2192.18
720.301	2331.44
720.488	2394.93
720.676	2360.11
720.863	2376.5
721.05	2347.83
721.237	2349.87
721.424	2448.18
721.611	2399.02
721.798	2290.48
721.985	2292.53
722.172	2241.33
722.358	2341.68
722.545	2446.13
722.732	2323.25
722.919	2351.92
723.106	2349.87
723.293	2396.98
723.48	2378.55
723.667	2302.77
723.853	2399.02
724.04	2409.26
724.227	2380.59
724.414	2368.31
724.6	2290.48
724.787	2353.97
724.974	2390.83
725.161	2284.34
725.347	2292.53
725.534	2390.83
725.72	2349.87
725.907	2415.41
726.094	2358.07
726.28	2399.02
726.467	2386.74
726.653	2448.18
726.84	2298.67
727.027	2458.42
727.213	2339.63
727.4	2390.83
727.586	2403.12
727.773	2495.28
727.959	2562.86
728.145	2329.39
728.332	2364.21
728.518	2323.25
728.705	2448.18
728.891	2499.38
729.077	2444.08
729.264	2343.73
729.45	2431.79
729.636	2485.04
729.823	2376.5
730.009	2511.66
730.195	2439.98
730.382	2470.7
730.568	2556.72
730.754	2433.84
730.94	2419.5
731.126	2442.03
731.313	2315.06
731.499	2646.83
731.685	2464.56
731.871	2382.64
732.057	2464.56
732.243	2544.43
732.429	2390.83
732.615	2556.72
732.801	2493.23
732.987	2581.29
733.173	2278.19
733.359	2306.87
733.545	2421.55
733.731	2581.29
733.917	2394.93
734.103	2419.5
734.289	2444.08
734.475	2450.22
734.661	2450.22
734.847	2530.09
735.033	2356.02
735.219	2478.9
735.404	2364.21
735.59	2497.33
735.776	2460.46
735.962	2442.03
736.148	2501.42
736.333	2394.93
736.519	2382.64
736.705	2376.5
736.89	2362.16
737.076	2573.1
737.262	2480.94
737.447	2329.39
737.633	2421.55
737.819	2562.86
738.004	2466.61
738.19	2485.04
738.375	2482.99
738.561	2480.94
738.747	2556.72
738.932	2366.26
739.118	2454.32
739.303	2528.05
739.489	2460.46
739.674	2337.59
739.859	2489.14
740.045	2345.78
740.23	2454.32
740.416	2214.71
740.601	2521.9
740.786	2368.31
740.972	2368.31
741.157	2351.92
741.342	2353.97
741.528	2437.94
741.713	2396.98
741.898	2331.44
742.084	2358.07
742.269	2349.87
742.454	2347.83
742.639	2239.28
742.824	2411.31
743.01	2276.15
743.195	2351.92
743.38	2353.97
743.565	2310.96
743.75	2437.94
743.935	2310.96
744.12	2339.63
744.305	2337.59
744.49	2280.24
744.675	2343.73
744.86	2292.53
745.045	2341.68
745.23	2179.89
745.415	2270
745.6	2343.73
745.785	2179.89
745.97	2292.53
746.155	2200.37
746.34	2222.9
746.525	2120.5
746.71	2218.8
746.895	2132.79
747.079	2198.32
747.264	2140.98
747.449	2108.21
747.634	2194.23
747.819	2130.74
748.003	2048.82
748.188	2007.86
748.373	2143.03
748.557	1934.14
748.742	2083.64
748.927	2044.73
749.111	1966.9
749.296	2014.01
749.481	2079.54
749.665	1962.81
749.85	1966.9
750.034	2014.01
750.219	1983.29
750.404	1942.33
750.588	1891.13
750.773	1923.9
750.957	1837.88
751.141	1921.85
751.326	1839.93
751.51	1936.18
751.695	1893.18
751.879	1868.6
752.064	1909.56
752.248	1811.26
752.432	1803.07
752.617	1827.64
752.801	1854.27
752.985	1813.31
753.17	1809.21
753.354	1717.05
753.538	1817.4
753.722	1684.28
753.907	1778.49
754.091	1723.2
754.275	1655.61
754.459	1628.99
754.643	1626.94
754.828	1672
755.012	1755.96
755.196	1581.89
755.38	1506.11
755.564	1588.03
755.748	1639.23
755.932	1590.08
756.116	1680.19
756.3	1626.94
756.484	1590.08
756.668	1506.11
756.852	1465.15
757.036	1514.3
757.22	1540.93
757.404	1555.26
757.588	1520.45
757.772	1573.69
757.956	1524.54
758.14	1450.82
758.323	1420.1
758.507	1504.06
758.691	1405.76
758.875	1391.42
759.059	1409.86
759.242	1442.62
759.426	1403.71
759.61	1428.29
759.794	1368.9
759.977	1405.76
760.161	1469.25
760.345	1422.14
760.528	1401.66
760.712	1258.31
760.895	1358.66
761.079	1352.51
761.263	1428.29
761.446	1227.59
761.63	1194.82
761.813	1319.75
761.997	1366.85
762.18	1350.46
762.364	1293.12
762.547	1272.64
762.731	1313.6
762.914	1401.66
763.098	1284.93
763.281	1317.7
763.464	1280.83
763.648	1207.11
763.831	1166.15
764.015	1145.67
764.198	1231.68
764.381	1227.59
764.564	1209.15
764.748	1278.79
764.931	1190.72
765.114	1248.07
765.297	1217.35
765.481	1178.44
765.664	1180.48
765.847	1184.58
766.03	1133.38
766.213	1162.05
766.397	1131.33
766.58	1151.81
766.763	1164.1
766.946	1112.9
767.129	1192.77
767.312	1082.18
767.495	1100.61
767.678	1114.95
767.861	1119.04
768.044	1129.28
768.227	1149.76
768.41	1147.72
768.593	1157.96
768.776	1059.65
768.959	1092.42
769.142	1119.04
769.324	1028.93
769.507	1094.47
769.69	983.88
769.873	1117
770.056	1147.72
770.239	969.54
770.421	1108.8
770.604	1078.08
770.787	979.78
770.97	1012.55
771.152	1117
771.335	1024.84
771.518	1000.26
771.7	1039.17
771.883	1084.23
772.066	971.59
772.248	992.07
772.431	1024.84
772.613	940.87
772.796	1018.69
772.978	938.82
773.161	1033.03
773.343	936.78
773.526	963.4
773.708	998.21
773.891	953.16
774.073	942.92
774.256	899.91
774.438	920.39
774.621	793.42
774.803	953.16
774.985	985.93
775.168	883.53
775.35	979.78
775.532	904.01
775.715	865.1
775.897	867.14
776.079	846.66
776.261	779.08
776.444	871.24
776.626	777.03
776.808	893.77
776.99	834.38
777.173	756.55
777.355	801.61
777.537	787.27
777.719	842.57
777.901	717.64
778.083	744.27
778.265	717.64
778.447	772.94
778.629	703.31
778.811	717.64
778.993	738.12
779.175	734.03
779.357	672.59
779.539	742.22
779.721	764.75
779.903	711.5
780.085	697.16
780.267	756.55
780.449	758.6
780.631	697.16
780.812	643.92
780.994	688.97
781.176	746.31
781.358	719.69
781.54	613.2
781.721	602.96
781.903	713.55
782.085	664.4
782.267	727.88
782.448	637.77
782.63	660.3
782.812	564.04
782.993	627.53
783.175	609.1
783.357	637.77
783.538	650.06
783.72	586.57
783.901	609.1
784.083	531.28
784.264	652.11
784.446	619.34
784.627	627.53
784.809	605
784.99	623.44
785.172	559.95
785.353	570.19
785.535	545.61
785.716	549.71
785.897	541.52
786.079	480.08
786.26	537.42
786.441	500.56
786.623	582.48
786.804	484.17
786.985	480.08
787.167	473.93
787.348	504.65
787.529	463.69
787.71	478.03
787.891	451.41
788.073	537.42
788.254	447.31
788.435	531.28
788.616	475.98
788.797	400.21
788.978	506.7
789.159	455.5
789.34	449.36
789.522	437.07
789.703	465.74
789.884	418.64
790.065	447.31
790.246	381.78
790.427	398.16
790.607	504.65
790.788	512.85
790.969	432.97
791.15	535.37
791.331	373.58
791.512	467.79
791.693	416.59
791.874	410.45
792.054	424.78
792.235	473.93
792.416	371.54
792.597	308.05
792.778	389.97
792.958	338.77
793.139	340.82
793.32	357.2
793.5	342.86
793.681	418.64
793.862	383.82
794.042	353.1
794.223	312.14
794.404	365.39
794.584	297.81
794.765	349.01
794.945	406.35
795.126	322.38
795.306	369.49
795.487	377.68
795.667	404.3
795.848	420.69
796.028	330.58
796.209	361.3
796.389	267.09
796.57	361.3
796.75	295.76
796.93	349.01
797.111	248.66
797.291	314.19
797.471	359.25
797.652	320.34
797.832	342.86
798.012	349.01
798.192	230.23
798.373	281.43
798.553	324.43
798.733	262.99
798.913	320.34
799.093	379.73
799.274	273.23
799.454	244.56
799.634	361.3
799.814	338.77
799.994	314.19
800.174	316.24
800.354	295.76
800.534	215.89
800.714	295.76
800.894	273.23
801.074	299.86
801.254	318.29
801.434	258.9
801.614	279.38
801.794	207.7
801.974	592.72
802.154	312.14
802.334	242.51
802.514	203.6
802.693	187.22
802.873	275.28
803.053	162.64
803.233	260.95
803.413	320.34
803.592	250.71
803.772	283.47
803.952	316.24
804.131	279.38
804.311	248.66
804.491	256.85
804.67	289.62
804.85	277.33
805.03	293.71
805.209	246.61
805.389	230.23
805.568	197.46
805.748	299.86
805.928	230.23
806.107	283.47
806.287	283.47
806.466	176.98
806.646	232.27
806.825	344.91
807.004	150.36
807.184	277.33
807.363	260.95
807.543	199.51
807.722	258.9
807.901	260.95
808.081	258.9
808.26	189.27
808.439	242.51
808.619	193.36
808.798	258.9
808.977	291.66
809.156	207.7
809.336	267.09
809.515	252.75
809.694	238.42
809.873	201.55
810.052	203.6
810.231	203.6
810.411	289.62
810.59	203.6
810.769	203.6
810.948	248.66
811.127	146.26
811.306	207.7
811.485	164.69
811.664	215.89
811.843	230.23
812.022	189.27
812.201	209.75
812.38	170.83
812.559	179.03
812.737	150.36
812.916	103.25
813.095	183.12
813.274	226.13
813.453	207.7
813.632	162.64
813.811	185.17
813.989	179.03
814.168	187.22
814.347	164.69
814.526	142.16
814.704	254.8
814.883	207.7
815.062	131.92
815.24	154.45
815.419	127.83
815.598	176.98
815.776	172.88
815.955	174.93
816.133	207.7
816.312	191.31
816.49	152.4
816.669	213.84
816.847	203.6
817.026	172.88
817.204	195.41
817.383	133.97
817.561	168.79
817.74	101.2
817.918	133.97
818.097	72.53
818.275	105.3
818.453	162.64
818.632	170.83
818.81	172.88
818.988	168.79
819.167	146.26
819.345	213.84
819.523	193.36
819.701	82.77
819.879	207.7
820.058	160.59
820.236	133.97
820.414	129.88
820.592	166.74
820.77	146.26
820.948	58.2
821.127	62.29
821.305	103.25
821.483	80.72
821.661	95.06
821.839	146.26
822.017	140.12
822.195	142.16
822.373	201.55
822.551	111.44
822.729	105.3
822.907	125.78
823.085	99.16
823.262	82.77
823.44	119.64
823.618	150.36
823.796	166.74
823.974	90.96
824.152	113.49
824.329	103.25
824.507	129.88
824.685	201.55
824.863	82.77
825.04	107.35
825.218	150.36
825.396	176.98
825.574	117.59
825.751	156.5
825.929	197.46
826.107	86.87
826.284	88.92
826.462	105.3
826.639	183.12
826.817	176.98
826.994	86.87
827.172	136.02
827.349	109.4
827.527	117.59
827.704	127.83
827.882	107.35
828.059	84.82
828.237	133.97
828.414	115.54
828.591	47.96
828.769	201.55
828.946	74.58
829.124	115.54
829.301	148.31
829.478	76.63
829.655	82.77
829.833	168.79
830.01	76.63
830.187	160.59
830.364	64.34
830.542	54.1
830.719	105.3
830.896	148.31
831.073	88.92
831.25	107.35
831.427	88.92
831.604	62.29
831.782	33.62
831.959	70.48
832.136	109.4
832.313	78.68
832.49	93.01
832.667	119.64
832.844	76.63
833.021	88.92
833.198	117.59
833.374	125.78
833.551	95.06
833.728	64.34
833.905	74.58
834.082	103.25
834.259	107.35
834.436	117.59
834.612	-9.39
834.789	123.73
834.966	109.4
835.143	58.2
835.319	64.34
835.496	37.72
835.673	37.72
835.85	103.25
836.026	131.92
836.203	41.81
836.38	17.24
836.556	133.97
836.733	70.48
836.909	162.64
837.086	90.96
837.262	-9.39
837.439	97.11
837.616	82.77
837.792	166.74
837.968	88.92
838.145	64.34
838.321	99.16
838.498	41.81
838.674	50
838.851	50
839.027	80.72
839.203	88.92
839.38	37.72
839.556	111.44
839.732	127.83
839.909	56.15
840.085	113.49
840.261	-46.25
840.437	66.39
840.614	101.2
840.79	97.11
840.966	103.25
841.142	66.39
841.318	41.81
841.494	33.62
841.671	80.72
841.847	39.76
842.023	95.06
842.199	70.48
842.375	121.68
842.551	88.92
842.727	52.05
842.903	95.06
843.079	23.38
843.255	150.36
843.431	84.82
843.607	62.29
843.783	33.62
843.959	41.81
844.134	50
844.31	93.01
844.486	33.62
844.662	80.72
844.838	9.05
845.013	97.11
845.189	90.96
845.365	33.62
845.541	27.48
845.716	27.48
845.892	60.24
846.068	76.63
846.244	50
846.419	133.97
846.595	-15.53
846.77	4.95
846.946	50
847.122	70.48
847.297	64.34
847.473	23.38
847.648	25.43
847.824	25.43
847.999	31.57
848.175	62.29
848.35	2.9
848.526	74.58
848.701	50
848.876	50
849.052	35.67
849.227	84.82
849.403	60.24
849.578	33.62
849.753	-21.67
849.929	35.67
850.104	2.9
850.279	21.33
850.454	-11.43
850.63	39.76
850.805	109.4
850.98	35.67
851.155	-13.48
851.33	140.12
851.505	95.06
851.681	66.39
851.856	62.29
852.031	0.85
852.206	-11.43
852.381	74.58
852.556	-29.87
852.731	41.81
852.906	9.05
853.081	154.45
853.256	27.48
853.431	74.58
853.606	54.1
853.781	52.05
853.956	27.48
854.131	-11.43
854.305	43.86
854.48	47.96
854.655	4.95
854.83	76.63
855.005	-9.39
855.18	64.34
855.354	-17.58
855.529	37.72
855.704	82.77
855.879	33.62
856.053	-27.82
856.228	78.68
856.403	19.29
856.577	21.33
856.752	17.24
856.926	76.63
857.101	-25.77
857.276	-11.43
857.45	60.24
857.625	82.77
857.799	66.39
857.974	41.81
858.148	-74.92
858.323	-23.72
858.497	70.48
858.672	-50.35
858.846	84.82
859.02	-15.53
859.195	31.57
859.369	-5.29
859.543	95.06
859.718	-17.58
859.892	47.96
860.066	-15.53
860.241	56.15
860.415	7
860.589	74.58
860.763	0.85
860.938	21.33
861.112	37.72
861.286	-31.91
861.46	-3.24
861.634	13.14
861.808	15.19
861.982	15.19
862.157	21.33
862.331	21.33
862.505	-19.63
862.679	52.05
862.853	-11.43
863.027	-3.24
863.201	27.48
863.375	9.05
863.549	-33.96
863.722	-1.19
863.896	29.52
864.07	-21.67
864.244	15.19
864.418	66.39
864.592	60.24
864.766	4.95
864.939	64.34
865.113	47.96
865.287	-11.43
865.461	2.9
865.634	72.53
865.808	-31.91
865.982	25.43
866.156	45.91
866.329	72.53
866.503	2.9
866.676	-29.87
866.85	-44.2
867.024	-11.43
867.197	-11.43
867.371	19.29
867.544	25.43
867.718	-3.24
867.891	60.24
868.065	-29.87
868.238	66.39
868.412	-31.91
868.585	50
868.759	39.76
868.932	-7.34
869.105	56.15
869.279	82.77
869.452	17.24
869.625	7
869.799	56.15
869.972	-60.59
870.145	66.39
870.319	-31.91
870.492	-38.06
870.665	27.48
870.838	0.85
871.011	64.34
871.185	25.43
871.358	-3.24
871.531	15.19
871.704	4.95
871.877	54.1
872.05	-50.35
872.223	-5.29
872.396	-5.29
872.569	56.15
872.742	47.96
872.915	99.16
873.088	-3.24
873.261	-36.01
873.434	-15.53
873.607	23.38
873.78	50
873.953	54.1
874.126	-17.58
874.299	-5.29
874.471	-54.44
874.644	13.14
874.817	-38.06
874.99	43.86
875.163	-15.53
875.335	97.11
875.508	-25.77
875.681	21.33
875.853	35.67
876.026	-11.43
876.199	88.92
876.371	-11.43
876.544	62.29
876.717	58.2
876.889	56.15
877.062	43.86
877.234	11.09
877.407	72.53
877.579	19.29
877.752	-1.19
877.924	-9.39
878.097	62.29
878.269	-31.91
878.442	41.81
878.614	7
878.786	-29.87
878.959	41.81
879.131	-19.63
879.303	33.62
879.476	-1.19
879.648	60.24
879.82	27.48
879.993	13.14
880.165	-7.34
880.337	-83.11
880.509	19.29
880.681	15.19
880.854	60.24
881.026	33.62
881.198	88.92
881.37	-19.63
881.542	-21.67
881.714	-101.55
881.886	-15.53
882.058	-17.58
882.23	41.81
882.402	25.43
882.574	-15.53
882.746	52.05
882.918	62.29
883.09	-7.34
883.262	29.52
883.434	-15.53
883.606	4.95
883.778	19.29
883.95	68.44
884.122	39.76
884.293	41.81
884.465	7
884.637	23.38
884.809	23.38
884.98	23.38
885.152	54.1
885.324	11.09
885.496	17.24
885.667	54.1
885.839	17.24
886.011	15.19
886.182	-21.67
886.354	19.29
886.525	-19.63
886.697	-9.39
886.869	43.86
887.04	0.85
887.212	4.95
887.383	70.48
887.555	70.48
887.726	45.91
887.897	37.72
888.069	9.05
888.24	72.53
888.412	-15.53
888.583	-19.63
888.754	11.09
888.926	0.85
889.097	-42.15
889.268	56.15
889.44	4.95
889.611	25.43
889.782	62.29
889.953	47.96
890.125	2.9
890.296	4.95
890.467	-31.91
890.638	-15.53
890.809	-42.15
890.98	33.62
891.151	125.78
891.323	-15.53
891.494	27.48
891.665	39.76
891.836	41.81
892.007	-1.19
892.178	17.24
892.349	41.81
892.52	25.43
892.691	-15.53
892.862	-11.43
893.032	-23.72
893.203	-38.06
893.374	-21.67
893.545	29.52
893.716	-1.19
893.887	-25.77
894.057	-33.96
894.228	45.91
894.399	35.67
894.57	33.62
894.74	29.52
894.911	-23.72
895.082	-46.25
895.253	9.05
895.423	2.9
895.594	45.91
895.764	54.1
895.935	-5.29
896.106	29.52
896.276	7
896.447	7
896.617	74.58
896.788	-5.29
896.958	-52.39
897.129	-13.48
897.299	-13.48
897.47	-46.25
897.64	2.9
897.81	31.57
897.981	17.24
898.151	-54.44
898.322	0.85
898.492	-11.43
898.662	-38.06
898.832	0.85
899.003	-23.72
899.173	-46.25
899.343	19.29
899.513	-25.77
