Data from USB4F104151__31__11-44-52-812.txt Node

Date: Fri Mar 14 11:44:52 EDT 2025
User: louis
Spectrometer: USB4F10415
Trigger mode: 4
Integration Time (sec): 2.000000E-2
Scans to average: 1
Electric dark correction enabled: true
Nonlinearity correction enabled: false
Boxcar width: 0
XAxis mode: Wavelengths
Number of Pixels in Spectrum: 3648
>>>>>Begin Spectral Data<<<<<
178.204	-67.41
178.424	-67.41
178.644	-67.41
178.864	-102.23
179.084	-73.56
179.304	-34.64
179.524	-18.26
179.744	12.46
179.964	53.42
180.184	47.27
180.404	-24.4
180.624	14.51
180.844	10.41
181.064	-16.21
181.283	-30.55
181.503	-20.31
181.723	6.31
181.943	-16.21
182.163	32.94
182.383	20.65
182.602	12.46
182.822	30.89
183.042	90.28
183.262	41.13
183.482	73.9
183.701	2.22
183.921	0.17
184.141	57.51
184.361	41.13
184.58	49.32
184.8	39.08
185.02	-5.97
185.239	49.32
185.459	41.13
185.679	0.17
185.898	-18.26
186.118	8.36
186.338	-22.36
186.557	-16.21
186.777	-10.07
186.997	22.7
187.216	-3.93
187.436	112.81
187.655	49.32
187.875	88.23
188.095	75.95
188.314	-22.36
188.534	88.23
188.753	0.17
188.973	121
189.192	4.27
189.412	-28.5
189.631	24.75
189.851	-1.88
190.07	98.47
190.29	-63.32
190.509	73.9
190.729	-14.17
190.948	20.65
191.168	67.75
191.387	-38.74
191.607	-61.27
191.826	-8.02
192.045	-26.45
192.265	61.61
192.484	-51.03
192.704	22.7
192.923	-48.98
193.142	73.9
193.362	14.51
193.581	16.55
193.8	-1.88
194.02	37.03
194.239	-57.17
194.458	57.51
194.678	10.41
194.897	-1.88
195.116	-28.5
195.335	86.19
195.555	2.22
195.774	-12.12
195.993	24.75
196.212	28.84
196.432	0.17
196.651	12.46
196.87	-16.21
197.089	-14.17
197.308	80.04
197.528	20.65
197.747	59.56
197.966	90.28
198.185	82.09
198.404	55.47
198.623	82.09
198.842	14.51
199.062	20.65
199.281	82.09
199.5	-20.31
199.719	2.22
199.938	45.23
200.157	16.55
200.376	88.23
200.595	24.75
200.814	49.32
201.033	37.03
201.252	43.18
201.471	53.42
201.69	8.36
201.909	61.61
202.128	53.42
202.347	-22.36
202.566	2.22
202.785	-32.6
203.004	-10.07
203.223	43.18
203.442	41.13
203.661	80.04
203.879	-20.31
204.098	8.36
204.317	-42.84
204.536	51.37
204.755	-8.02
204.974	24.75
205.193	69.8
205.411	32.94
205.63	-8.02
205.849	34.99
206.068	26.79
206.287	20.65
206.505	-18.26
206.724	26.79
206.943	-51.03
207.162	-28.5
207.381	4.27
207.599	75.95
207.818	37.03
208.037	4.27
208.255	10.41
208.474	24.75
208.693	-12.12
208.911	65.71
209.13	4.27
209.349	26.79
209.567	-8.02
209.786	41.13
210.005	34.99
210.223	71.85
210.442	-22.36
210.661	-8.02
210.879	49.32
211.098	65.71
211.316	-42.84
211.535	16.55
211.753	22.7
211.972	41.13
212.191	-30.55
212.409	6.31
212.628	55.47
212.846	-8.02
213.065	34.99
213.283	30.89
213.502	4.27
213.72	14.51
213.938	75.95
214.157	-59.22
214.375	71.85
214.594	49.32
214.812	75.95
215.031	30.89
215.249	-30.55
215.467	61.61
215.686	30.89
215.904	10.41
216.122	-34.64
216.341	37.03
216.559	-38.74
216.778	45.23
216.996	69.8
217.214	-57.17
217.432	55.47
217.651	-5.97
217.869	43.18
218.087	-30.55
218.306	37.03
218.524	139.43
218.742	-36.69
218.96	73.9
219.179	34.99
219.397	0.17
219.615	51.37
219.833	71.85
220.051	8.36
220.27	14.51
220.488	80.04
220.706	10.41
220.924	-34.64
221.142	-10.07
221.36	37.03
221.578	41.13
221.796	14.51
222.015	12.46
222.233	94.38
222.451	37.03
222.669	37.03
222.887	12.46
223.105	80.04
223.323	2.22
223.541	69.8
223.759	8.36
223.977	6.31
224.195	88.23
224.413	12.46
224.631	110.76
224.849	65.71
225.067	67.75
225.285	-24.4
225.503	43.18
225.721	-34.64
225.939	-18.26
226.157	28.84
226.375	110.76
226.592	-79.7
226.81	10.41
227.028	57.51
227.246	-1.88
227.464	-5.97
227.682	34.99
227.9	16.55
228.117	-3.93
228.335	28.84
228.553	-12.12
228.771	61.61
228.989	41.13
229.206	65.71
229.424	49.32
229.642	22.7
229.86	67.75
230.077	65.71
230.295	73.9
230.513	-10.07
230.731	57.51
230.948	137.38
231.166	-3.93
231.384	-44.88
231.601	14.51
231.819	16.55
232.037	-38.74
232.254	-10.07
232.472	12.46
232.689	61.61
232.907	65.71
233.125	-34.64
233.342	16.55
233.56	-24.4
233.777	37.03
233.995	4.27
234.213	80.04
234.43	77.99
234.648	20.65
234.865	-5.97
235.083	32.94
235.3	67.75
235.518	57.51
235.735	28.84
235.953	84.14
236.17	0.17
236.388	30.89
236.605	24.75
236.822	-1.88
237.04	26.79
237.257	24.75
237.475	55.47
237.692	37.03
237.909	2.22
238.127	47.27
238.344	-46.93
238.562	34.99
238.779	10.41
238.996	-22.36
239.214	-10.07
239.431	51.37
239.648	-14.17
239.865	12.46
240.083	2.22
240.3	69.8
240.517	28.84
240.735	-20.31
240.952	55.47
241.169	100.52
241.386	55.47
241.603	-16.21
241.821	8.36
242.038	80.04
242.255	77.99
242.472	37.03
242.689	-16.21
242.907	53.42
243.124	-8.02
243.341	4.27
243.558	59.56
243.775	-24.4
243.992	20.65
244.209	-8.02
244.426	22.7
244.643	121
244.86	41.13
245.078	-26.45
245.295	53.42
245.512	20.65
245.729	0.17
245.946	-1.88
246.163	-14.17
246.38	59.56
246.597	10.41
246.814	-1.88
247.031	-75.6
247.248	22.7
247.464	-32.6
247.681	2.22
247.898	43.18
248.115	129.19
248.332	-3.93
248.549	43.18
248.766	69.8
248.983	63.66
249.2	32.94
249.417	55.47
249.633	-1.88
249.85	84.14
250.067	53.42
250.284	118.95
250.501	4.27
250.717	53.42
250.934	-34.64
251.151	4.27
251.368	59.56
251.585	69.8
251.801	61.61
252.018	0.17
252.235	47.27
252.451	8.36
252.668	-16.21
252.885	-18.26
253.102	-8.02
253.318	43.18
253.535	6.31
253.752	10.41
253.968	22.7
254.185	41.13
254.401	51.37
254.618	12.46
254.835	-36.69
255.051	102.57
255.268	-8.02
255.484	39.08
255.701	43.18
255.917	61.61
256.134	77.99
256.351	98.47
256.567	49.32
256.784	26.79
257	-18.26
257.217	43.18
257.433	-5.97
257.65	96.43
257.866	14.51
258.082	24.75
258.299	-12.12
258.515	12.46
258.732	-10.07
258.948	-14.17
259.165	0.17
259.381	55.47
259.597	65.71
259.814	20.65
260.03	2.22
260.246	-5.97
260.463	75.95
260.679	69.8
260.895	-34.64
261.112	28.84
261.328	18.6
261.544	24.75
261.761	65.71
261.977	4.27
262.193	22.7
262.409	88.23
262.626	71.85
262.842	88.23
263.058	-10.07
263.274	22.7
263.49	16.55
263.707	51.37
263.923	32.94
264.139	-30.55
264.355	28.84
264.571	75.95
264.787	2.22
265.004	24.75
265.22	6.31
265.436	-22.36
265.652	-16.21
265.868	61.61
266.084	6.31
266.3	-53.08
266.516	55.47
266.732	-14.17
266.948	20.65
267.164	6.31
267.38	77.99
267.596	28.84
267.812	51.37
268.028	26.79
268.244	-14.17
268.46	53.42
268.676	41.13
268.892	84.14
269.108	18.6
269.324	10.41
269.54	-16.21
269.756	32.94
269.972	-32.6
270.188	20.65
270.403	30.89
270.619	63.66
270.835	118.95
271.051	98.47
271.267	14.51
271.483	24.75
271.698	-18.26
271.914	-12.12
272.13	-16.21
272.346	-67.41
272.562	37.03
272.777	133.29
272.993	20.65
273.209	59.56
273.425	-8.02
273.64	41.13
273.856	73.9
274.072	-42.84
274.287	-24.4
274.503	57.51
274.719	-8.02
274.934	26.79
275.15	-16.21
275.366	4.27
275.581	49.32
275.797	53.42
276.012	53.42
276.228	77.99
276.444	55.47
276.659	88.23
276.875	-10.07
277.09	86.19
277.306	49.32
277.521	12.46
277.737	39.08
277.952	75.95
278.168	22.7
278.383	114.86
278.599	6.31
278.814	47.27
279.03	12.46
279.245	55.47
279.461	20.65
279.676	-1.88
279.892	-1.88
280.107	84.14
280.322	18.6
280.538	69.8
280.753	-20.31
280.969	41.13
281.184	4.27
281.399	6.31
281.615	26.79
281.83	16.55
282.045	14.51
282.26	24.75
282.476	16.55
282.691	-3.93
282.906	2.22
283.122	84.14
283.337	26.79
283.552	26.79
283.767	4.27
283.983	69.8
284.198	12.46
284.413	-14.17
284.628	-59.22
284.843	94.38
285.058	53.42
285.274	28.84
285.489	-48.98
285.704	14.51
285.919	30.89
286.134	63.66
286.349	8.36
286.564	22.7
286.779	10.41
286.995	16.55
287.21	24.75
287.425	14.51
287.64	0.17
287.855	-24.4
288.07	-38.74
288.285	-10.07
288.5	49.32
288.715	43.18
288.93	-12.12
289.145	61.61
289.36	-5.97
289.575	61.61
289.79	41.13
290.004	-57.17
290.219	86.19
290.434	67.75
290.649	-48.98
290.864	-30.55
291.079	69.8
291.294	59.56
291.509	22.7
291.724	77.99
291.938	41.13
292.153	45.23
292.368	-16.21
292.583	-18.26
292.798	-1.88
293.012	59.56
293.227	84.14
293.442	22.7
293.657	22.7
293.871	61.61
294.086	-30.55
294.301	18.6
294.516	55.47
294.73	77.99
294.945	-30.55
295.16	-8.02
295.374	100.52
295.589	61.61
295.804	-12.12
296.018	108.71
296.233	47.27
296.447	67.75
296.662	6.31
296.877	53.42
297.091	28.84
297.306	8.36
297.52	18.6
297.735	18.6
297.949	-46.93
298.164	39.08
298.378	22.7
298.593	-28.5
298.807	-5.97
299.022	73.9
299.236	22.7
299.451	53.42
299.665	47.27
299.88	98.47
300.094	16.55
300.309	-53.08
300.523	73.9
300.737	51.37
300.952	77.99
301.166	96.43
301.381	8.36
301.595	-16.21
301.809	-44.88
302.024	59.56
302.238	-20.31
302.452	86.19
302.667	-8.02
302.881	14.51
303.095	49.32
303.309	10.41
303.524	2.22
303.738	20.65
303.952	30.89
304.166	65.71
304.381	14.51
304.595	77.99
304.809	-16.21
305.023	18.6
305.237	24.75
305.452	-18.26
305.666	28.84
305.88	67.75
306.094	8.36
306.308	-3.93
306.522	4.27
306.736	45.23
306.95	32.94
307.164	-8.02
307.379	12.46
307.593	63.66
307.807	32.94
308.021	90.28
308.235	75.95
308.449	-34.64
308.663	34.99
308.877	59.56
309.091	67.75
309.305	34.99
309.519	55.47
309.733	67.75
309.947	14.51
310.161	4.27
310.374	10.41
310.588	37.03
310.802	22.7
311.016	55.47
311.23	16.55
311.444	-30.55
311.658	-3.93
311.872	90.28
312.085	32.94
312.299	41.13
312.513	57.51
312.727	14.51
312.941	-10.07
313.154	65.71
313.368	4.27
313.582	43.18
313.796	-12.12
314.009	47.27
314.223	65.71
314.437	61.61
314.651	90.28
314.864	51.37
315.078	-40.79
315.292	-12.12
315.505	6.31
315.719	6.31
315.933	6.31
316.146	49.32
316.36	-44.88
316.573	63.66
316.787	47.27
317.001	65.71
317.214	-42.84
317.428	143.53
317.641	51.37
317.855	-14.17
318.068	114.86
318.282	32.94
318.495	59.56
318.709	0.17
318.922	86.19
319.136	63.66
319.349	10.41
319.563	28.84
319.776	12.46
319.99	10.41
320.203	12.46
320.417	28.84
320.63	112.81
320.843	84.14
321.057	28.84
321.27	28.84
321.483	61.61
321.697	28.84
321.91	45.23
322.124	2.22
322.337	32.94
322.55	53.42
322.763	-61.27
322.977	39.08
323.19	-63.32
323.403	30.89
323.617	106.67
323.83	32.94
324.043	90.28
324.256	6.31
324.469	2.22
324.683	26.79
324.896	8.36
325.109	53.42
325.322	37.03
325.535	63.66
325.748	-1.88
325.962	24.75
326.175	94.38
326.388	16.55
326.601	49.32
326.814	41.13
327.027	30.89
327.24	94.38
327.453	6.31
327.666	94.38
327.879	106.67
328.092	20.65
328.305	71.85
328.518	2.22
328.731	47.27
328.944	37.03
329.157	59.56
329.37	116.9
329.583	47.27
329.796	86.19
330.009	41.13
330.222	53.42
330.435	-16.21
330.648	59.56
330.861	125.1
331.073	10.41
331.286	37.03
331.499	12.46
331.712	14.51
331.925	39.08
332.138	-14.17
332.35	65.71
332.563	20.65
332.776	84.14
332.989	-26.45
333.202	37.03
333.414	8.36
333.627	61.61
333.84	-18.26
334.053	43.18
334.265	45.23
334.478	47.27
334.691	41.13
334.903	18.6
335.116	-34.64
335.329	47.27
335.541	16.55
335.754	34.99
335.966	-40.79
336.179	20.65
336.392	57.51
336.604	32.94
336.817	73.9
337.029	18.6
337.242	-42.84
337.454	49.32
337.667	67.75
337.88	82.09
338.092	30.89
338.305	65.71
338.517	59.56
338.729	-3.93
338.942	-12.12
339.154	26.79
339.367	-18.26
339.579	-18.26
339.792	28.84
340.004	92.33
340.217	-1.88
340.429	-5.97
340.641	67.75
340.854	73.9
341.066	94.38
341.278	90.28
341.491	22.7
341.703	75.95
341.915	14.51
342.128	129.19
342.34	16.55
342.552	30.89
342.764	59.56
342.977	43.18
343.189	-30.55
343.401	-44.88
343.613	-48.98
343.826	-14.17
344.038	59.56
344.25	20.65
344.462	28.84
344.674	45.23
344.886	-38.74
345.099	32.94
345.311	-36.69
345.523	63.66
345.735	39.08
345.947	112.81
346.159	102.57
346.371	-1.88
346.583	18.6
346.795	39.08
347.007	34.99
347.219	43.18
347.431	41.13
347.643	75.95
347.855	32.94
348.067	16.55
348.279	-32.6
348.491	94.38
348.703	30.89
348.915	45.23
349.127	24.75
349.339	106.67
349.551	0.17
349.763	14.51
349.975	55.47
350.187	55.47
350.399	-22.36
350.61	92.33
350.822	-24.4
351.034	28.84
351.246	16.55
351.458	69.8
351.669	34.99
351.881	73.9
352.093	4.27
352.305	114.86
352.517	-3.93
352.728	12.46
352.94	8.36
353.152	14.51
353.363	77.99
353.575	34.99
353.787	34.99
353.999	49.32
354.21	73.9
354.422	55.47
354.633	53.42
354.845	39.08
355.057	75.95
355.268	61.61
355.48	106.67
355.692	-46.93
355.903	139.43
356.115	39.08
356.326	-12.12
356.538	34.99
356.749	6.31
356.961	94.38
357.172	16.55
357.384	-20.31
357.595	75.95
357.807	34.99
358.018	34.99
358.23	88.23
358.441	90.28
358.653	98.47
358.864	43.18
359.075	43.18
359.287	22.7
359.498	108.71
359.709	20.65
359.921	28.84
360.132	32.94
360.344	82.09
360.555	26.79
360.766	22.7
360.977	12.46
361.189	141.48
361.4	22.7
361.611	65.71
361.823	96.43
362.034	114.86
362.245	6.31
362.456	32.94
362.667	22.7
362.879	55.47
363.09	71.85
363.301	55.47
363.512	-38.74
363.723	-16.21
363.935	-3.93
364.146	49.32
364.357	34.99
364.568	34.99
364.779	-12.12
364.99	92.33
365.201	45.23
365.412	45.23
365.623	49.32
365.834	28.84
366.045	39.08
366.256	32.94
366.467	-1.88
366.678	61.61
366.889	49.32
367.1	-57.17
367.311	41.13
367.522	8.36
367.733	63.66
367.944	73.9
368.155	49.32
368.366	114.86
368.577	88.23
368.788	127.14
368.999	41.13
369.209	26.79
369.42	37.03
369.631	59.56
369.842	98.47
370.053	61.61
370.264	84.14
370.474	63.66
370.685	57.51
370.896	24.75
371.107	6.31
371.317	77.99
371.528	57.51
371.739	34.99
371.95	55.47
372.16	49.32
372.371	65.71
372.582	4.27
372.792	20.65
373.003	51.37
373.214	59.56
373.424	10.41
373.635	118.95
373.846	77.99
374.056	65.71
374.267	-22.36
374.477	53.42
374.688	18.6
374.898	0.17
375.109	94.38
375.319	69.8
375.53	65.71
375.74	67.75
375.951	71.85
376.161	67.75
376.372	100.52
376.582	-10.07
376.793	73.9
377.003	-12.12
377.214	57.51
377.424	41.13
377.635	82.09
377.845	2.22
378.055	80.04
378.266	-1.88
378.476	84.14
378.686	69.8
378.897	63.66
379.107	47.27
379.317	26.79
379.528	57.51
379.738	84.14
379.948	4.27
380.158	55.47
380.369	30.89
380.579	69.8
380.789	77.99
380.999	53.42
381.21	55.47
381.42	45.23
381.63	112.81
381.84	137.38
382.05	51.37
382.261	63.66
382.471	88.23
382.681	43.18
382.891	69.8
383.101	41.13
383.311	18.6
383.521	69.8
383.731	24.75
383.941	71.85
384.151	61.61
384.361	112.81
384.571	98.47
384.781	55.47
384.991	71.85
385.201	86.19
385.411	30.89
385.621	82.09
385.831	84.14
386.041	34.99
386.251	-18.26
386.461	63.66
386.671	-3.93
386.881	65.71
387.091	16.55
387.301	61.61
387.511	110.76
387.72	63.66
387.93	67.75
388.14	4.27
388.35	39.08
388.56	34.99
388.769	71.85
388.979	26.79
389.189	63.66
389.399	71.85
389.609	32.94
389.818	67.75
390.028	104.62
390.238	-24.4
390.447	151.72
390.657	82.09
390.867	24.75
391.076	82.09
391.286	53.42
391.496	47.27
391.705	10.41
391.915	73.9
392.125	57.51
392.334	55.47
392.544	84.14
392.753	14.51
392.963	34.99
393.172	77.99
393.382	28.84
393.591	80.04
393.801	65.71
394.01	92.33
394.22	118.95
394.429	164.01
394.639	2.22
394.848	86.19
395.058	75.95
395.267	100.52
395.477	137.38
395.686	114.86
395.895	96.43
396.105	102.57
396.314	51.37
396.524	92.33
396.733	30.89
396.942	168.1
397.152	110.76
397.361	90.28
397.57	104.62
397.78	71.85
397.989	59.56
398.198	166.06
398.407	104.62
398.617	106.67
398.826	90.28
399.035	141.48
399.244	127.14
399.453	90.28
399.663	141.48
399.872	63.66
400.081	166.06
400.29	172.2
400.499	22.7
400.708	155.82
400.917	118.95
401.127	102.57
401.336	161.96
401.545	202.92
401.754	145.58
401.963	137.38
402.172	112.81
402.381	112.81
402.59	170.15
402.799	125.1
403.008	108.71
403.217	133.29
403.426	75.95
403.635	133.29
403.844	125.1
404.053	137.38
404.262	145.58
404.471	133.29
404.68	106.67
404.888	153.77
405.097	196.78
405.306	194.73
405.515	141.48
405.724	217.26
405.933	239.78
406.142	110.76
406.35	194.73
406.559	176.3
406.768	204.97
406.977	229.54
407.185	305.32
407.394	233.64
407.603	182.44
407.812	196.78
408.02	276.65
408.229	174.25
408.438	178.34
408.646	239.78
408.855	229.54
409.064	258.21
409.272	215.21
409.481	290.98
409.69	321.7
409.898	270.5
410.107	311.46
410.315	399.52
410.524	288.93
410.733	266.41
410.941	395.43
411.15	395.43
411.358	346.28
411.567	415.91
411.775	356.52
411.984	434.34
412.192	426.15
412.401	477.35
412.609	549.03
412.818	460.96
413.026	485.54
413.234	551.07
413.443	596.13
413.651	528.55
413.86	489.64
414.068	555.17
414.276	602.27
414.485	614.56
414.693	618.66
414.901	651.42
415.11	653.47
415.318	688.29
415.526	800.93
415.734	823.45
415.943	813.21
416.151	788.64
416.359	845.98
416.567	884.89
416.776	936.09
416.984	927.9
417.192	936.09
417.4	1056.92
417.608	962.72
417.817	956.57
418.025	1026.2
418.233	1222.81
418.441	1161.37
418.649	1357.97
418.857	1259.67
419.065	1233.05
419.273	1370.26
419.481	1353.88
419.689	1464.47
419.897	1583.25
420.105	1546.39
420.313	1654.93
420.521	1681.55
420.729	1691.79
420.937	1759.38
421.145	1808.53
421.353	1833.1
421.561	1955.98
421.769	2037.9
421.977	2123.91
422.185	1939.6
422.393	2216.07
422.601	2275.46
422.809	2281.61
423.017	2447.49
423.224	2494.6
423.432	2553.99
423.64	2556.04
423.848	2771.07
424.056	2715.78
424.263	2943.1
424.471	2930.81
424.679	2877.57
424.887	3154.04
425.094	3203.19
425.302	3225.72
425.51	3297.4
425.718	3588.21
425.925	3512.44
426.133	3594.36
426.341	3678.32
426.548	4077.68
426.756	4046.96
426.964	4051.05
427.171	4255.85
427.379	4276.33
427.586	4587.62
427.794	4591.72
428.001	4812.9
428.209	5079.13
428.417	4974.69
428.624	5251.16
428.832	5374.04
429.039	5333.08
429.247	5371.99
429.454	5771.35
429.662	6176.84
429.869	5879.89
430.076	6361.16
430.284	6135.89
430.491	6326.35
430.699	6529.1
430.906	6670.4
431.114	6647.88
431.321	6987.84
431.528	7172.16
431.736	7548.98
431.943	7829.56
432.15	7639.09
432.358	7741.49
432.565	8257.58
432.772	8167.47
432.979	8452.14
433.187	8790.05
433.394	8734.76
433.601	9560.09
433.808	9480.22
434.016	9433.11
434.223	9867.28
434.43	10477.58
434.637	10182.67
434.844	10792.97
435.052	10989.57
435.259	10844.17
435.466	11198.46
435.673	11018.24
435.88	11509.76
436.087	12142.58
436.294	12134.39
436.501	11808.76
436.708	12265.46
436.915	12472.3
437.122	13307.87
437.329	13318.11
437.537	13748.18
437.743	13809.62
437.95	13623.26
438.157	14444.49
438.364	14933.96
438.571	14886.86
438.778	14940.1
438.985	16392.11
439.192	15847.35
439.399	16179.12
439.606	15652.8
439.813	16803.75
440.02	17702.81
440.227	17289.12
440.433	17133.48
440.64	17794.97
440.847	17805.21
441.054	18118.55
441.261	19388.29
441.467	18925.45
441.674	19595.14
441.881	20260.73
442.088	19844.99
442.294	19726.21
442.501	20569.97
442.708	21022.57
442.914	21651.3
443.121	22650.71
443.328	21806.94
443.534	23725.89
443.741	23064.39
443.948	22749.01
444.154	24356.66
444.361	24176.44
444.568	24139.58
444.774	24108.86
444.981	24233.78
445.187	25251.63
445.394	26275.61
445.6	25906.98
445.807	28632.82
446.013	27242.25
446.22	27651.84
446.426	28690.16
446.633	29292.27
446.839	30033.63
447.046	29044.46
447.252	30445.27
447.459	30557.91
447.665	30580.44
447.871	31717.06
448.078	32822.97
448.284	31346.38
448.491	31995.59
448.697	33572.52
448.903	34092.71
449.11	34141.86
449.316	33767.08
449.522	34254.5
449.728	34975.38
449.935	35243.66
450.141	35344.02
450.347	36236.93
450.553	35008.15
450.76	35315.34
450.966	36865.66
451.172	36667
451.378	36935.29
451.584	36411.01
451.791	36912.76
451.997	36955.77
452.203	37619.31
452.409	37742.19
452.615	37846.63
452.821	35911.3
453.027	35769.99
453.233	37602.92
453.44	36048.52
453.646	36673.15
453.852	36519.55
454.058	37039.73
454.264	36089.48
454.47	36720.25
454.676	36433.53
454.882	37213.81
455.088	33937.06
455.294	34567.84
455.5	34967.19
455.705	35673.74
455.911	34086.56
456.117	33289.9
456.323	32908.98
456.529	31381.2
456.735	32450.24
456.941	31573.7
457.147	31323.85
457.352	29902.56
457.558	29904.61
457.764	30154.46
457.97	29495.02
458.176	28782.32
458.381	28544.76
458.587	27205.39
458.793	27434.76
458.999	25970.46
459.204	27784.96
459.41	27012.88
459.616	25227.05
459.821	25038.64
460.027	25354.02
460.233	24571.7
460.438	23172.94
460.644	23648.07
460.85	22417.24
461.055	22329.17
461.261	22255.45
461.466	20598.64
461.672	20051.83
461.878	21241.7
462.083	19810.17
462.289	19767.17
462.494	19289.99
462.7	18556.82
462.905	17901.47
463.111	18476.94
463.316	18718.61
463.522	18372.5
463.727	18575.25
463.932	18057.11
464.138	18102.17
464.343	18233.24
464.549	17641.37
464.754	18358.16
464.959	18091.93
465.165	17899.42
465.37	17088.42
465.575	16863.15
465.781	17278.88
465.986	17487.78
466.191	16715.69
466.397	16631.72
466.602	15607.74
466.807	16330.67
467.012	16445.36
467.218	16246.71
467.423	16099.25
467.628	16263.09
467.833	16764.84
468.038	16232.37
468.244	15648.7
468.449	16285.62
468.654	15755.19
468.859	15658.94
469.064	15607.74
469.269	15118.28
469.474	14933.96
469.679	15159.24
469.885	15054.79
470.09	15206.34
470.295	15151.04
470.5	14628.81
470.705	14770.12
470.91	14520.27
471.115	14182.35
471.32	14331.86
471.525	14325.71
471.73	14137.3
471.935	13987.8
472.139	13635.55
472.344	13744.09
472.549	13504.48
472.754	13543.39
472.959	13176.8
473.164	12916.71
473.369	13045.73
473.574	13213.67
473.778	13299.68
473.983	12937.19
474.188	12855.27
474.393	12302.32
474.598	12255.22
474.802	12222.45
475.007	12177.39
475.212	12193.78
475.417	11800.57
475.621	11728.89
475.826	11667.45
476.031	11747.32
476.235	11247.62
476.44	11577.34
476.645	11180.03
476.849	11286.53
477.054	11114.5
477.259	10928.13
477.463	10815.49
477.668	10586.12
477.872	10821.64
478.077	10700.81
478.282	10334.22
478.486	10594.31
478.691	10317.84
478.895	10348.56
479.1	10217.49
479.304	9949.2
479.509	10027.03
479.713	10145.81
479.918	9621.53
480.122	9824.28
480.326	10059.79
480.531	9830.42
480.735	9625.62
480.94	9613.34
481.144	9955.35
481.348	9496.6
481.553	9672.73
481.757	9297.95
481.961	9433.11
482.166	9580.57
482.37	9646.1
482.574	9324.57
482.778	9312.28
482.983	9607.19
483.187	9564.18
483.391	9594.9
483.595	9535.51
483.8	9193.5
484.004	9455.64
484.208	9406.49
484.412	9406.49
484.616	9404.44
484.821	9281.57
485.025	9218.08
485.229	9601.05
485.433	9381.92
485.637	9353.24
485.841	9363.48
486.045	9285.66
486.249	9383.96
486.453	9271.33
486.657	9494.55
486.861	9613.34
487.065	9054.24
487.269	9318.43
487.473	9334.81
487.677	9488.41
487.881	9175.07
488.085	9279.52
488.289	9324.57
488.493	9306.14
488.697	9510.94
488.901	9441.31
489.105	9381.92
489.309	9535.51
489.512	9392.16
489.716	9343
489.92	9396.25
490.124	9429.02
490.328	9658.39
490.531	9523.23
490.735	9603.1
490.939	9676.82
491.143	9447.45
491.346	9607.19
491.55	9746.45
491.754	9697.3
491.958	9918.48
492.161	9725.97
492.365	9736.21
492.569	9644.06
492.772	9676.82
492.976	10094.61
493.18	10051.6
493.383	10039.31
493.587	10125.33
493.79	10209.29
493.994	9969.68
494.197	10436.62
494.401	10426.38
494.605	10524.68
494.808	10465.29
495.012	10618.89
495.215	10592.27
495.419	10543.11
495.622	10539.02
495.825	10909.7
496.029	10881.03
496.232	11083.78
496.436	10909.7
496.639	11143.17
496.843	11261.95
497.046	11196.42
497.249	11513.85
497.453	11509.76
497.656	11689.98
497.859	11737.08
498.063	11880.44
498.266	12050.42
498.469	11984.88
498.673	12122.1
498.876	12431.34
499.079	12746.73
499.282	12400.62
499.485	12720.1
499.689	13137.89
499.892	12931.05
500.095	13017.06
500.298	13369.31
500.501	13160.42
500.705	13549.53
500.908	13701.08
501.111	13766.62
501.314	13975.51
501.517	14161.87
501.72	14350.29
501.923	14196.69
502.126	14485.45
502.329	14727.11
502.532	14888.9
502.735	14692.3
502.938	14874.57
503.141	15200.19
503.344	15292.35
503.547	15730.62
503.75	15648.7
503.953	16013.24
504.156	16140.21
504.359	16218.04
504.562	16496.56
504.765	16699.31
504.968	16834.47
505.17	17037.22
505.373	17133.48
505.576	17457.06
505.779	17432.48
505.982	17379.23
506.185	17913.75
506.387	18096.02
506.59	18073.49
506.793	18333.59
506.996	18352.02
507.198	18646.93
507.401	18925.45
507.604	18980.75
507.807	19410.82
508.009	19484.55
508.212	19566.46
508.415	19937.15
508.617	19922.81
508.82	20187
509.022	20096.89
509.225	20612.98
509.428	20785.01
509.63	20987.75
509.833	20954.99
510.035	21636.96
510.238	21292.9
510.44	21475.17
510.643	22028.12
510.845	22269.78
511.048	22097.75
511.25	22603.6
511.453	22556.5
511.655	23461.7
511.858	22902.61
512.06	23166.79
512.262	23347.01
512.465	23471.94
512.667	24037.18
512.87	24192.83
513.072	24061.76
513.274	24631.09
513.477	24960.81
513.679	24983.34
513.881	25145.13
514.084	25401.13
514.286	25491.24
514.488	25786.15
514.69	26773.27
514.893	26283.8
515.095	26654.48
515.297	27000.59
515.499	26953.49
515.701	27158.28
515.904	27707.14
516.106	27518.73
516.308	27713.28
516.51	28274.43
516.712	28471.03
516.914	28684.02
517.116	29128.43
517.318	28960.5
517.52	29466.35
517.722	29075.18
517.925	29775.59
518.127	30109.41
518.329	30037.73
518.531	30377.69
518.733	30959.31
518.935	30914.26
519.136	30650.07
519.338	31225.55
519.54	31487.69
519.742	31911.62
519.944	31979.2
520.146	32292.54
520.348	32409.28
520.55	32788.15
520.752	32941.75
520.954	33009.33
521.155	32945.84
521.357	33384.11
521.559	33930.92
521.761	34047.65
521.963	34047.65
522.164	34371.23
522.366	34395.81
522.568	34881.17
522.77	35008.15
522.971	35591.82
523.173	35362.45
523.375	35352.21
523.576	35212.95
523.778	35618.44
523.98	36427.39
524.181	36349.57
524.383	36185.73
524.584	37146.23
524.786	37052.02
524.988	36583.04
525.189	37066.36
525.391	37504.62
525.592	37561.97
525.794	37328.5
525.995	37791.34
526.197	37590.64
526.398	37869.16
526.6	37875.3
526.801	38266.47
527.003	38311.52
527.204	38401.63
527.406	38725.21
527.607	38995.54
527.808	39032.41
528.01	38395.49
528.211	38966.87
528.412	39276.12
528.614	39413.33
528.815	39415.38
529.016	39812.68
529.218	39495.25
529.419	39538.26
529.62	40035.91
529.822	39784.01
530.023	39644.75
530.224	40015.43
530.425	39755.34
530.626	39611.98
530.828	39882.31
531.029	40382.02
531.23	40097.35
531.431	39849.55
531.632	40416.83
531.833	40449.6
532.035	40339.01
532.236	40384.07
532.437	40691.26
532.638	40445.51
532.839	40537.66
533.04	40932.92
533.241	40267.33
533.442	40914.49
533.643	40654.4
533.844	40703.55
534.045	40822.33
534.246	40277.57
534.447	40957.5
534.648	40584.77
534.849	40658.49
535.05	40558.14
535.251	40830.52
535.451	40541.76
535.652	41205.3
535.853	40709.69
536.054	40785.47
536.255	41156.15
536.456	40371.78
536.657	41432.63
536.857	40318.53
537.058	40617.53
537.259	40836.67
537.46	40959.55
537.66	40754.75
537.861	40797.76
538.062	40949.31
538.263	40928.83
538.463	40474.18
538.664	40732.22
538.865	40959.55
539.065	40830.52
539.266	40242.76
539.466	40736.32
539.667	40035.91
539.868	41025.08
540.068	40875.58
540.269	40627.77
540.469	41037.37
540.67	40363.59
540.87	40539.71
541.071	40648.25
541.271	40879.67
541.472	41020.98
541.672	40425.03
541.873	40291.91
542.073	40285.76
542.274	40795.71
542.474	40543.81
542.675	40310.34
542.875	40898.11
543.075	40480.32
543.276	40408.64
543.476	40705.6
543.676	40382.02
543.877	40898.11
544.077	40605.25
544.277	40334.92
544.478	40461.89
544.678	40674.88
544.878	40449.6
545.078	40240.71
545.279	40128.07
545.479	40212.04
545.679	40498.75
545.879	40373.83
546.079	40650.3
546.28	40201.8
546.48	40109.64
546.68	40218.18
546.88	40422.98
547.08	40382.02
547.28	40183.37
547.48	40232.52
547.68	40453.7
547.88	40001.1
548.081	40324.68
548.281	40015.43
548.481	40285.76
548.681	40527.42
548.881	40250.95
549.081	40031.82
549.28	39853.64
549.48	40437.31
549.68	40330.82
549.88	40613.44
550.08	39847.5
550.28	40343.11
550.48	40029.77
550.68	40324.68
550.88	39698
551.08	40023.62
551.279	39990.86
551.479	39845.45
551.679	40164.93
551.879	40054.34
552.079	40193.61
552.278	39923.27
552.478	39925.32
552.678	39962.18
552.878	40076.87
553.077	39870.03
553.277	39530.06
553.477	40074.82
553.676	39829.07
553.876	39763.53
554.076	39396.95
554.275	39224.92
554.475	39200.34
554.674	39884.36
554.874	39224.92
555.074	39345.75
555.273	39548.5
555.473	39908.94
555.672	39695.95
555.872	39650.89
556.071	39497.3
556.271	39491.15
556.47	39274.07
556.67	39278.16
556.869	39253.59
557.068	39409.23
557.268	38966.87
557.467	39351.89
557.667	39024.22
557.866	38882.91
558.065	38995.54
558.265	39165.53
558.464	38614.62
558.663	39210.58
558.863	38551.13
559.062	39435.86
559.261	38354.53
559.461	38893.15
559.66	38180.45
559.859	38559.33
560.058	38332
560.258	38045.29
560.457	37879.4
560.656	38571.61
560.855	38456.93
561.054	38614.62
561.253	37768.81
561.453	38106.73
561.652	38129.25
561.851	38223.46
562.05	38112.87
562.249	37570.16
562.448	38276.71
562.647	38100.58
562.846	37889.64
563.045	37766.76
563.244	37756.52
563.443	37944.94
563.642	37191.28
563.841	37613.16
564.04	37408.37
564.239	37619.31
564.438	37185.14
564.637	37561.97
564.836	37600.88
565.035	36595.32
565.234	37052.02
565.432	36877.94
565.631	36685.43
565.83	37140.08
566.029	37049.97
566.228	36480.64
566.427	36486.78
566.625	36732.54
566.824	36230.79
567.023	37000.82
567.222	35925.64
567.42	36279.94
567.619	35933.83
567.818	36394.62
568.016	36290.18
568.215	36400.77
568.414	35876.49
568.612	36398.72
568.811	36140.68
569.01	36206.21
569.208	35460.75
569.407	35589.77
569.605	35370.64
569.804	35653.26
570.002	35358.35
570.201	35841.67
570.4	35024.53
570.598	35319.44
570.797	35010.2
570.995	34993.81
571.193	34602.65
571.392	35067.54
571.59	34655.9
571.789	34596.51
571.987	34625.18
572.186	34518.68
572.384	34404
572.582	34463.39
572.781	34483.87
572.979	33892.01
573.177	34168.48
573.376	34528.92
573.574	34197.15
573.772	34068.13
573.971	34064.03
574.169	34080.42
574.367	33611.43
574.565	33582.76
574.763	33363.63
574.962	33549.99
575.16	33425.07
575.358	33302.19
575.556	32884.4
575.754	33619.63
575.952	33097.39
576.151	33189.55
576.349	32765.62
576.547	32708.28
576.745	33017.52
576.943	32751.29
577.141	32657.08
577.339	32777.91
577.537	32749.24
577.735	32757.43
577.933	32296.64
578.131	32368.32
578.329	31999.68
578.527	31968.96
578.725	32362.17
578.923	31960.77
579.121	31758.02
579.319	31911.62
579.516	32061.12
579.714	31590.09
579.912	31475.4
580.11	31540.94
580.308	31555.27
580.506	31610.57
580.704	31207.12
580.901	31557.32
581.099	31373
581.297	30801.62
581.495	31051.47
581.692	31002.32
581.89	30895.83
582.088	30736.09
582.285	30516.95
582.483	31004.37
582.681	30830.29
582.878	30559.96
583.076	30101.22
583.274	30547.67
583.471	30254.81
583.669	30248.67
583.866	29773.54
584.064	30185.18
584.262	29982.43
584.459	29918.95
584.657	29771.49
584.854	30174.94
585.052	29390.57
585.249	29619.94
585.447	29656.81
585.644	29279.98
585.841	29634.28
586.039	29439.72
586.236	29267.69
586.434	29140.72
586.631	29212.4
586.828	29353.71
587.026	28903.15
587.223	29200.11
587.42	28870.39
587.618	28841.71
587.815	28477.18
588.012	28708.6
588.21	28434.17
588.407	28763.89
588.604	28346.11
588.801	28188.41
588.999	28192.51
589.196	28108.54
589.393	27834.11
589.59	27891.46
589.787	27848.45
589.984	27977.47
590.182	27315.98
590.379	27952.9
590.576	27404.04
590.773	27498.25
590.97	27250.44
591.167	27447.05
591.364	27160.33
591.561	27490.06
591.758	27086.61
591.955	27043.6
592.152	26986.25
592.349	26801.94
592.546	26830.61
592.743	27006.73
592.94	26476.31
593.137	26670.87
593.334	26722.07
593.531	26263.32
593.727	26588.95
593.924	26406.68
594.121	26269.47
594.318	26179.36
594.515	25804.58
594.712	26251.03
594.908	25741.09
595.105	26152.73
595.302	25956.13
595.499	25990.94
595.696	25962.27
595.892	25634.6
596.089	25679.65
596.286	25517.86
596.482	25589.54
596.679	25509.67
596.876	25225
597.072	25284.39
597.269	25052.97
597.466	24911.66
597.662	24803.12
597.859	24995.63
598.055	24854.32
598.252	24657.71
598.448	24694.58
598.645	24672.05
598.841	24239.93
599.038	24483.64
599.234	24762.16
599.431	24213.31
599.627	24108.86
599.824	24336.18
600.02	23945.02
600.217	24301.37
600.413	24055.61
600.609	23994.17
600.806	23809.86
601.002	24110.91
601.198	23605.06
601.395	23576.39
601.591	23787.33
601.787	23580.48
601.984	23289.67
602.18	23471.94
602.376	23297.86
602.572	23086.92
602.769	23185.22
602.965	22880.08
603.161	23222.09
603.357	22773.58
603.553	22949.71
603.75	22703.95
603.946	22587.22
604.142	22542.16
604.338	22318.93
604.534	22656.85
604.73	22101.85
604.926	22253.4
605.122	22382.42
605.318	22167.38
605.514	22122.33
605.71	22282.07
605.906	22181.72
606.102	22050.65
606.298	22146.9
606.494	22116.19
606.69	21802.85
606.886	21854.05
607.082	21620.58
607.278	21923.68
607.474	21518.18
607.67	21788.51
607.866	21391.2
608.062	21763.93
608.257	21417.83
608.453	21538.66
608.649	21710.69
608.845	21303.14
609.041	21405.54
609.236	21616.48
609.432	21344.1
609.628	21065.58
609.824	21301.09
610.019	20985.71
610.215	20850.54
610.411	20997.99
610.606	21094.25
610.802	21020.52
610.998	20764.53
611.193	21032.81
611.389	20588.4
611.584	20776.81
611.78	20606.83
611.976	20662.13
612.171	20420.47
612.367	20674.42
612.562	20346.74
612.758	20402.04
612.953	20268.92
613.149	20428.66
613.344	20066.17
613.539	20602.74
613.735	20180.85
613.93	20305.78
614.126	20309.88
614.321	20402.04
614.517	19836.8
614.712	20187
614.907	19881.85
615.103	20045.69
615.298	19902.33
615.493	19908.47
615.688	19675.01
615.884	20354.93
616.079	19754.88
616.274	19736.45
616.47	19713.92
616.665	19869.56
616.86	19502.98
617.055	19685.25
617.25	19447.68
617.445	19654.53
617.641	19353.48
617.836	19238.79
618.031	18952.07
618.226	19255.17
618.421	18954.12
618.616	19337.09
618.811	18968.46
619.006	19328.9
619.201	18954.12
619.396	19154.82
619.591	18855.82
619.786	18835.34
619.981	18608.01
620.176	18972.55
620.371	18466.7
620.566	18466.7
620.761	18571.15
620.956	18392.98
621.151	18136.98
621.346	18599.82
621.541	18100.12
621.735	17991.58
621.93	17745.82
622.125	18069.4
622.32	17424.29
622.515	17946.52
622.709	17549.21
622.904	17639.33
623.099	17428.38
623.294	17434.53
623.488	16961.45
623.683	17143.72
623.878	17029.03
624.072	16938.92
624.267	17166.24
624.462	16818.09
624.656	16756.65
624.851	16850.86
625.046	16578.48
625.24	16674.73
625.435	16281.52
625.629	16478.13
625.824	16207.8
626.018	16320.43
626.213	15945.66
626.407	15902.65
626.602	15722.43
626.796	15892.41
626.991	15800.25
627.185	15787.96
627.38	15454.14
627.574	15486.91
627.768	15478.72
627.963	15263.68
628.157	15005.64
628.352	15337.41
628.546	14796.74
628.74	15126.47
628.935	14794.7
629.129	14956.49
629.323	14680.01
629.517	14690.25
629.712	14598.09
629.906	14565.32
630.1	14444.49
630.294	14305.23
630.489	14432.21
630.683	14424.01
630.877	13955.03
631.071	14243.79
631.265	14176.21
631.459	13922.26
631.653	13719.51
631.848	13955.03
632.042	13719.51
632.236	13729.75
632.43	13481.95
632.624	13658.07
632.818	13352.93
633.012	13494.24
633.206	13463.52
633.4	13311.97
633.594	13055.97
633.788	13225.95
633.982	13154.27
634.176	12943.33
634.369	12947.43
634.563	12795.88
634.757	12799.98
634.951	12568.55
635.145	12765.16
635.339	12617.71
635.533	12384.24
635.726	12683.24
635.92	12466.16
636.114	12079.09
636.308	12371.95
636.501	12040.18
636.695	12298.22
636.889	12013.56
637.083	12156.91
637.276	11937.78
637.47	11964.4
637.664	11909.11
637.857	11980.79
638.051	11743.22
638.244	11769.85
638.438	11718.65
638.632	11505.66
638.825	11577.34
639.019	11345.92
639.212	11454.46
639.406	11370.49
639.599	11278.33
639.793	11225.09
639.986	11014.15
640.18	11102.21
640.373	11134.98
640.567	10928.13
640.76	11016.19
640.954	10844.17
641.147	10729.48
641.34	10780.68
641.534	10598.41
641.727	10520.59
641.92	10653.7
642.114	10631.18
642.307	10434.57
642.5	10536.97
642.694	10057.75
642.887	10352.65
643.08	10348.56
643.273	10137.62
643.467	10233.87
643.66	10035.22
643.853	10106.9
644.046	9855
644.239	9922.58
644.432	9895.96
644.626	9693.21
644.819	10024.98
645.012	9771.03
645.205	9693.21
645.398	9703.45
645.591	9648.15
645.784	9555.99
645.977	9478.17
646.17	9549.85
646.363	9293.85
646.556	9273.37
646.749	9459.74
646.942	9312.28
647.135	9318.43
647.328	9353.24
647.521	9334.81
647.714	9189.41
647.907	9080.86
648.099	9121.82
648.292	9111.58
648.485	9121.82
648.678	8755.24
648.871	8714.28
649.064	8562.73
649.256	8818.72
649.449	8624.17
649.642	8822.82
649.835	8607.78
650.027	8253.48
650.22	8296.49
650.413	8439.85
650.605	8425.51
650.798	8212.53
650.991	8398.89
651.183	8216.62
651.376	8304.68
651.568	7993.39
651.761	8224.81
651.954	8153.13
652.146	8202.29
652.339	8161.33
652.531	7868.47
652.724	8009.78
652.916	7874.61
653.109	7821.36
653.301	7966.77
653.494	7948.34
653.686	7579.7
653.879	7829.56
654.071	7667.77
654.263	7614.52
654.456	7546.94
654.648	7555.13
654.84	7645.24
655.033	7411.77
655.225	7530.55
655.417	7317.56
655.61	7149.63
655.802	7338.04
655.994	7274.56
656.186	7166.01
656.379	7129.15
656.571	7188.54
656.763	7125.05
656.955	6971.46
657.148	7147.58
657.34	7147.58
657.532	6836.29
657.724	6981.7
657.916	6965.31
658.108	6942.78
658.3	6830.15
658.492	6998.08
658.684	6867.01
658.876	6770.76
659.068	6768.71
659.26	6584.39
659.452	6819.91
659.644	6531.14
659.836	6578.25
660.028	6580.29
660.22	6508.62
660.412	6508.62
660.604	6266.96
660.796	6477.9
660.988	6475.85
661.18	6379.59
661.372	6199.37
661.563	6291.53
661.755	6180.94
661.947	6242.38
662.139	6148.17
662.331	6070.35
662.522	6062.16
662.714	6109.26
662.906	6013.01
663.097	5961.81
663.289	6013.01
663.481	5978.19
663.673	5863.51
663.864	5883.98
664.056	5894.22
664.247	5824.59
664.439	5640.28
664.631	5763.15
664.822	5777.49
665.014	5816.4
665.205	5769.3
665.397	5687.38
665.588	5718.1
665.78	5503.06
665.971	5683.28
666.163	5611.61
666.354	5564.5
666.546	5470.3
666.737	5415
666.929	5298.27
667.12	5331.03
667.311	5326.94
667.503	5185.63
667.694	5369.94
667.885	5228.63
668.077	5312.6
668.268	5384.28
668.459	5298.27
668.651	5206.11
668.842	5265.5
669.033	5224.54
669.224	5152.86
669.416	5161.05
669.607	5171.29
669.798	4982.88
669.989	5081.18
670.18	5134.43
670.371	5042.27
670.563	5072.99
670.754	5011.55
670.945	4925.54
671.136	4898.91
671.327	4919.39
671.518	4903.01
671.709	4905.06
671.9	5027.93
672.091	4843.62
672.282	4724.83
672.473	4700.26
672.664	4716.64
672.855	4767.84
673.046	4702.31
673.237	4780.13
673.428	4757.6
673.619	4638.82
673.809	4620.39
674	4716.64
674.191	4665.44
674.382	4489.32
674.573	4612.2
674.764	4423.78
674.954	4556.9
675.145	4622.44
675.336	4423.78
675.527	4440.17
675.717	4587.62
675.908	4350.06
676.099	4454.5
676.289	4460.65
676.48	4454.5
676.671	4337.77
676.861	4378.73
677.052	4442.21
677.243	4274.28
677.433	4255.85
677.624	4466.79
677.814	4247.66
678.005	4309.1
678.195	4386.92
678.386	4239.47
678.576	4294.76
678.767	4329.58
678.957	4210.79
679.148	4288.62
679.338	4311.14
679.529	4313.19
679.719	4153.45
679.909	4259.95
680.1	4106.35
680.29	4159.6
680.481	4042.86
680.671	4184.17
680.861	3991.66
681.052	4110.44
681.242	4094.06
681.432	3999.85
681.622	3850.35
681.813	3987.57
682.003	4040.81
682.193	3899.5
682.383	4130.92
682.573	3989.61
682.764	3965.04
682.954	3999.85
683.144	3938.41
683.334	3883.12
683.524	4073.58
683.714	3852.4
683.904	4055.15
684.094	3915.89
684.284	3973.23
684.474	3872.88
684.664	3842.16
684.854	3786.86
685.044	3870.83
685.234	3815.54
685.424	3815.54
685.614	3725.43
685.804	3696.75
685.994	3719.28
686.184	3717.23
686.374	3577.97
686.564	3657.84
686.753	3784.82
686.943	3729.52
687.133	3706.99
687.323	3764.34
687.513	3563.64
687.702	3844.21
687.892	3596.4
688.082	3479.67
688.272	3543.16
688.461	3500.15
688.651	3541.11
688.841	3565.68
689.03	3414.13
689.22	3420.28
689.41	3553.4
689.599	3475.57
689.789	3338.36
689.979	3326.07
690.168	3342.46
690.358	3407.99
690.547	3266.68
690.737	3346.55
690.926	3403.89
691.116	3278.97
691.305	3436.66
691.495	3238.01
691.684	3233.91
691.874	3305.59
692.063	3438.71
692.252	3258.49
692.442	3274.87
692.631	3074.17
692.82	3176.57
693.01	3240.06
693.199	3020.92
693.388	3084.41
693.578	3086.46
693.767	3160.19
693.956	3074.17
694.146	3033.21
694.335	2922.62
694.524	3012.73
694.713	3025.02
694.902	3014.78
695.092	2961.53
695.281	2904.19
695.47	3133.56
695.659	2869.37
695.848	2910.33
696.037	2947.2
696.226	2916.48
696.415	3018.88
696.604	2965.63
696.793	2900.09
696.982	2840.7
697.171	2924.67
697.36	2791.55
697.549	2896
697.738	2863.23
697.927	2732.16
698.116	2889.85
698.305	2916.48
698.494	2898.05
698.683	2834.56
698.872	2896
699.061	2832.51
699.25	2801.79
699.438	2793.6
699.627	2789.5
699.816	2760.83
700.005	2695.3
700.193	2748.54
700.382	2738.3
700.571	2736.26
700.76	2689.15
700.948	2875.52
701.137	2738.3
701.326	2820.22
701.514	2762.88
701.703	2756.74
701.892	2773.12
702.08	2803.84
702.269	2617.47
702.457	2578.56
702.646	2791.55
702.834	2607.23
703.023	2662.53
703.212	2709.63
703.4	2738.3
703.589	2687.11
703.777	2721.92
703.965	2674.82
704.154	2656.39
704.342	2541.7
704.531	2703.49
704.719	2590.85
704.907	2568.32
705.096	2652.29
705.284	2605.19
705.472	2650.24
705.661	2609.28
705.849	2623.62
706.037	2623.62
706.226	2701.44
706.414	2556.04
706.602	2535.56
706.79	2515.08
706.979	2431.11
707.167	2592.9
707.355	2562.18
707.543	2545.8
707.731	2545.8
707.919	2627.71
708.107	2547.84
708.296	2537.6
708.484	2564.23
708.672	2590.85
708.86	2508.93
709.048	2637.95
709.236	2621.57
709.424	2531.46
709.612	2537.6
709.8	2580.61
709.988	2572.42
710.176	2678.91
710.364	2566.28
710.551	2553.99
710.739	2445.45
710.927	2582.66
711.115	2611.33
711.303	2416.77
711.491	2609.28
711.679	2513.03
711.866	2510.98
712.054	2584.71
712.242	2484.36
712.43	2537.6
712.617	2418.82
712.805	2412.68
712.993	2535.56
713.181	2400.39
713.368	2521.22
713.556	2377.86
713.744	2445.45
713.931	2537.6
714.119	2513.03
714.306	2609.28
714.494	2564.23
714.682	2580.61
714.869	2576.52
715.057	2642.05
715.244	2494.6
715.432	2439.3
715.619	2553.99
715.807	2594.95
715.994	2494.6
716.182	2465.93
716.369	2498.69
716.556	2515.08
716.744	2539.65
716.931	2386.05
717.119	2556.04
717.306	2461.83
717.493	2529.41
717.681	2427.01
717.868	2582.66
718.055	2433.16
718.242	2504.84
718.43	2465.93
718.617	2394.25
718.804	2515.08
718.991	2478.21
719.179	2517.12
719.366	2455.69
719.553	2447.49
719.74	2494.6
719.927	2457.73
720.114	2402.44
720.301	2560.13
720.488	2451.59
720.676	2390.15
720.863	2513.03
721.05	2574.47
721.237	2453.64
721.424	2472.07
721.611	2431.11
721.798	2502.79
721.985	2402.44
722.172	2427.01
722.358	2576.52
722.545	2496.64
722.732	2467.97
722.919	2410.63
723.106	2472.07
723.293	2484.36
723.48	2463.88
723.667	2461.83
723.853	2445.45
724.04	2506.88
724.227	2560.13
724.414	2517.12
724.6	2556.04
724.787	2476.16
724.974	2584.71
725.161	2576.52
725.347	2547.84
725.534	2519.17
725.72	2515.08
725.907	2447.49
726.094	2455.69
726.28	2480.26
726.467	2465.93
726.653	2410.63
726.84	2424.97
727.027	2525.32
727.213	2510.98
727.4	2560.13
727.586	2578.56
727.773	2541.7
727.959	2443.4
728.145	2580.61
728.332	2515.08
728.518	2449.54
728.705	2549.89
728.891	2592.9
729.077	2437.25
729.264	2597
729.45	2553.99
729.636	2584.71
729.823	2494.6
730.009	2541.7
730.195	2584.71
730.382	2619.52
730.568	2551.94
730.754	2537.6
730.94	2558.08
731.126	2515.08
731.313	2465.93
731.499	2490.5
731.685	2506.88
731.871	2465.93
732.057	2635.91
732.243	2605.19
732.429	2465.93
732.615	2527.36
732.801	2517.12
732.987	2412.68
733.173	2504.84
733.359	2447.49
733.545	2611.33
733.731	2506.88
733.917	2470.02
734.103	2445.45
734.289	2476.16
734.475	2476.16
734.661	2685.06
734.847	2570.37
735.033	2611.33
735.219	2465.93
735.404	2566.28
735.59	2560.13
735.776	2611.33
735.962	2566.28
736.148	2549.89
736.333	2592.9
736.519	2523.27
736.705	2537.6
736.89	2451.59
737.076	2388.1
737.262	2443.4
737.447	2324.62
737.633	2433.16
737.819	2533.51
738.004	2406.53
738.19	2558.08
738.375	2539.65
738.561	2498.69
738.747	2375.81
738.932	2480.26
739.118	2461.83
739.303	2486.4
739.489	2453.64
739.674	2381.96
739.859	2390.15
740.045	2445.45
740.23	2461.83
740.416	2422.92
740.601	2533.51
740.786	2470.02
740.972	2455.69
741.157	2494.6
741.342	2443.4
741.528	2388.1
741.713	2476.16
741.898	2359.43
742.084	2437.25
742.269	2400.39
742.454	2330.76
742.639	2404.49
742.824	2312.33
743.01	2324.62
743.195	2332.81
743.38	2400.39
743.565	2394.25
743.75	2310.28
743.935	2314.38
744.12	2388.1
744.305	2375.81
744.49	2244.74
744.675	2326.66
744.86	2312.33
745.045	2328.71
745.23	2252.94
745.415	2207.88
745.6	2156.68
745.785	2355.33
745.97	2228.36
746.155	2209.93
746.34	2259.08
746.525	2197.64
746.71	2351.24
746.895	2228.36
747.079	2152.59
747.264	2132.11
747.449	2082.95
747.634	2121.87
747.819	2193.55
748.003	2103.43
748.188	2189.45
748.373	2076.81
748.557	2050.19
748.742	2128.01
748.927	1986.7
749.111	2160.78
749.296	2085
749.481	2068.62
749.665	1986.7
749.85	2035.85
750.034	2062.48
750.219	2050.19
750.404	1917.07
750.588	1802.38
750.773	1896.59
750.957	1939.6
751.141	1927.31
751.326	1865.87
751.51	1878.16
751.695	1814.67
751.879	1835.15
752.064	1824.91
752.248	1763.47
752.432	1863.82
752.617	1806.48
752.801	1835.15
752.985	1898.64
753.17	1763.47
753.354	1798.29
753.538	1902.73
753.722	1775.76
753.907	1740.94
754.091	1691.79
754.275	1691.79
754.459	1708.18
754.643	1587.35
754.828	1687.7
755.012	1587.35
755.196	1659.03
755.38	1620.11
755.564	1740.94
755.748	1478.8
755.932	1681.55
756.116	1626.26
756.3	1497.24
756.484	1544.34
756.668	1548.44
756.852	1441.94
757.036	1613.97
757.22	1489.04
757.404	1452.18
757.588	1566.87
757.772	1460.37
757.956	1450.13
758.14	1489.04
758.323	1482.9
758.507	1386.65
758.691	1409.17
758.875	1452.18
759.059	1448.08
759.242	1384.6
759.426	1411.22
759.61	1396.89
759.794	1423.51
759.977	1374.36
760.161	1474.71
760.345	1304.73
760.528	1376.41
760.712	1380.5
760.895	1317.01
761.079	1396.89
761.263	1366.17
761.446	1294.49
761.63	1321.11
761.813	1396.89
761.997	1368.21
762.18	1343.64
762.364	1278.1
762.547	1181.85
762.731	1357.97
762.914	1286.3
763.098	1257.62
763.281	1310.87
763.464	1224.86
763.648	1181.85
763.831	1216.66
764.015	1286.3
764.198	1200.28
764.381	1159.32
764.564	1136.79
764.748	1235.1
764.931	1263.77
765.114	1128.6
765.297	1171.61
765.481	1163.42
765.664	1222.81
765.847	1173.66
766.03	1071.26
766.213	1075.35
766.397	1161.37
766.58	1065.11
766.763	1104.03
766.946	1187.99
767.129	1185.94
767.312	1081.5
767.495	1140.89
767.678	1106.07
767.861	1177.75
768.044	1173.66
768.227	1069.21
768.41	1050.78
768.593	1036.44
768.776	1034.39
768.959	1190.04
769.142	1155.23
769.324	1101.98
769.507	989.34
769.69	1081.5
769.873	1028.25
770.056	1077.4
770.239	987.29
770.421	1075.35
770.604	999.58
770.787	981.15
770.97	1011.87
771.152	1030.3
771.335	938.14
771.518	1061.02
771.7	913.56
771.883	1026.2
772.066	1032.35
772.248	966.81
772.431	954.52
772.613	923.8
772.796	977.05
772.978	1024.16
773.161	995.48
773.343	966.81
773.526	921.76
773.708	925.85
773.891	809.12
774.073	934.04
774.256	870.56
774.438	932
774.621	911.52
774.803	872.61
774.985	972.96
775.168	878.75
775.35	876.7
775.532	936.09
775.715	915.61
775.897	843.93
776.079	929.95
776.261	907.42
776.444	934.04
776.626	839.84
776.808	932
776.99	796.83
777.173	772.25
777.355	870.56
777.537	800.93
777.719	792.73
777.901	762.02
778.083	723.1
778.265	741.54
778.447	735.39
778.629	653.47
778.811	737.44
778.993	696.48
779.175	712.86
779.357	784.54
779.539	784.54
779.721	702.62
779.903	706.72
780.085	684.19
780.267	639.14
780.449	749.73
780.631	784.54
780.812	727.2
780.994	788.64
781.176	622.75
781.358	663.71
781.54	669.86
781.721	669.86
781.903	676
782.085	653.47
782.267	690.34
782.448	587.94
782.63	596.13
782.812	651.42
782.993	592.03
783.175	657.57
783.357	491.68
783.538	628.9
783.72	596.13
783.901	589.99
784.083	628.9
784.264	635.04
784.446	647.33
784.627	587.94
784.809	577.7
784.99	532.64
785.172	587.94
785.353	600.23
785.535	534.69
785.716	549.03
785.897	571.55
786.079	528.55
786.26	532.64
786.441	510.11
786.623	465.06
786.804	458.92
786.985	444.58
787.167	485.54
787.348	430.24
787.529	483.49
787.71	407.72
787.891	510.11
788.073	438.44
788.254	444.58
788.435	430.24
788.616	471.2
788.797	413.86
788.978	477.35
789.159	469.16
789.34	442.53
789.522	446.63
789.703	506.02
789.884	438.44
790.065	377
790.246	407.72
790.427	444.58
790.607	452.77
790.788	438.44
790.969	409.76
791.15	452.77
791.331	469.16
791.512	385.19
791.693	348.33
791.874	368.81
792.054	409.76
792.235	399.52
792.416	403.62
792.597	415.91
792.778	383.14
792.958	379.04
793.139	344.23
793.32	338.09
793.5	405.67
793.681	370.85
793.862	354.47
794.042	383.14
794.223	366.76
794.404	417.96
794.584	336.04
794.765	325.8
794.945	307.37
795.126	252.07
795.306	327.85
795.487	350.37
795.667	266.41
795.848	362.66
796.028	272.55
796.209	352.42
796.389	385.19
796.57	321.7
796.75	301.22
796.93	309.41
797.111	297.13
797.291	325.8
797.471	299.17
797.652	227.5
797.832	264.36
798.012	350.37
798.192	348.33
798.373	272.55
798.553	262.31
798.733	327.85
798.913	252.07
799.093	331.94
799.274	346.28
799.454	358.57
799.634	344.23
799.814	340.13
799.994	268.45
800.174	270.5
800.354	245.93
800.534	313.51
800.714	262.31
800.894	237.74
801.074	333.99
801.254	276.65
801.434	331.94
801.614	340.13
801.794	233.64
801.974	626.85
802.154	364.71
802.334	276.65
802.514	344.23
802.693	207.02
802.873	305.32
803.053	284.84
803.233	237.74
803.413	237.74
803.592	239.78
803.772	262.31
803.952	151.72
804.131	319.65
804.311	278.69
804.491	319.65
804.67	270.5
804.85	264.36
805.03	299.17
805.209	245.93
805.389	262.31
805.568	235.69
805.748	221.35
805.928	211.11
806.107	270.5
806.287	331.94
806.466	272.55
806.646	204.97
806.825	211.11
807.004	155.82
807.184	245.93
807.363	315.56
807.543	239.78
807.722	178.34
807.901	284.84
808.081	112.81
808.26	227.5
808.439	286.89
808.619	188.58
808.798	200.87
808.977	245.93
809.156	282.79
809.336	223.4
809.515	268.45
809.694	207.02
809.873	207.02
810.052	225.45
810.231	235.69
810.411	223.4
810.59	209.06
810.769	133.29
810.948	127.14
811.127	143.53
811.306	131.24
811.485	170.15
811.664	227.5
811.843	186.54
812.022	184.49
812.201	176.3
812.38	149.67
812.559	174.25
812.737	192.68
812.916	98.47
813.095	202.92
813.274	186.54
813.453	182.44
813.632	219.3
813.811	168.1
813.989	215.21
814.168	135.34
814.347	123.05
814.526	227.5
814.704	225.45
814.883	243.88
815.062	159.91
815.24	209.06
815.419	170.15
815.598	116.9
815.776	131.24
815.955	217.26
816.133	73.9
816.312	145.58
816.49	110.76
816.669	178.34
816.847	135.34
817.026	139.43
817.204	221.35
817.383	196.78
817.561	143.53
817.74	164.01
817.918	94.38
818.097	161.96
818.275	176.3
818.453	217.26
818.632	129.19
818.81	110.76
818.988	127.14
819.167	207.02
819.345	178.34
819.523	106.67
819.701	202.92
819.879	127.14
820.058	161.96
820.236	176.3
820.414	69.8
820.592	84.14
820.77	149.67
820.948	157.86
821.127	86.19
821.305	139.43
821.483	114.86
821.661	170.15
821.839	86.19
822.017	135.34
822.195	92.33
822.373	73.9
822.551	106.67
822.729	94.38
822.907	137.38
823.085	221.35
823.262	186.54
823.44	174.25
823.618	77.99
823.796	135.34
823.974	108.71
824.152	118.95
824.329	123.05
824.507	82.09
824.685	82.09
824.863	141.48
825.04	88.23
825.218	100.52
825.396	77.99
825.574	123.05
825.751	161.96
825.929	147.62
826.107	47.27
826.284	73.9
826.462	127.14
826.639	47.27
826.817	166.06
826.994	139.43
827.172	26.79
827.349	69.8
827.527	143.53
827.704	65.71
827.882	106.67
828.059	118.95
828.237	139.43
828.414	82.09
828.591	84.14
828.769	90.28
828.946	110.76
829.124	143.53
829.301	100.52
829.478	157.86
829.655	116.9
829.833	159.91
830.01	18.6
830.187	118.95
830.364	118.95
830.542	104.62
830.719	112.81
830.896	82.09
831.073	151.72
831.25	141.48
831.427	96.43
831.604	75.95
831.782	104.62
831.959	65.71
832.136	123.05
832.313	59.56
832.49	65.71
832.667	143.53
832.844	77.99
833.021	118.95
833.198	61.61
833.374	102.57
833.551	86.19
833.728	71.85
833.905	88.23
834.082	28.84
834.259	75.95
834.436	123.05
834.612	90.28
834.789	121
834.966	92.33
835.143	77.99
835.319	110.76
835.496	100.52
835.673	178.34
835.85	116.9
836.026	129.19
836.203	123.05
836.38	110.76
836.556	118.95
836.733	65.71
836.909	147.62
837.086	102.57
837.262	63.66
837.439	168.1
837.616	55.47
837.792	116.9
837.968	129.19
838.145	94.38
838.321	92.33
838.498	98.47
838.674	63.66
838.851	88.23
839.027	96.43
839.203	108.71
839.38	98.47
839.556	63.66
839.732	112.81
839.909	104.62
840.085	59.56
840.261	20.65
840.437	108.71
840.614	45.23
840.79	108.71
840.966	84.14
841.142	65.71
841.318	51.37
841.494	118.95
841.671	90.28
841.847	49.32
842.023	82.09
842.199	80.04
842.375	53.42
842.551	47.27
842.727	69.8
842.903	100.52
843.079	28.84
843.255	100.52
843.431	57.51
843.607	67.75
843.783	30.89
843.959	71.85
844.134	57.51
844.31	125.1
844.486	43.18
844.662	100.52
844.838	100.52
845.013	63.66
845.189	96.43
845.365	10.41
845.541	51.37
845.716	51.37
845.892	73.9
846.068	61.61
846.244	61.61
846.419	59.56
846.595	32.94
846.77	118.95
846.946	8.36
847.122	80.04
847.297	98.47
847.473	69.8
847.648	-12.12
847.824	49.32
847.999	51.37
848.175	102.57
848.35	67.75
848.526	96.43
848.701	16.55
848.876	116.9
849.052	53.42
849.227	39.08
849.403	-10.07
849.578	75.95
849.753	28.84
849.929	49.32
850.104	-18.26
850.279	41.13
850.454	2.22
850.63	127.14
850.805	8.36
850.98	20.65
851.155	63.66
851.33	69.8
851.505	-8.02
851.681	84.14
851.856	10.41
852.031	137.38
852.206	30.89
852.381	20.65
852.556	43.18
852.731	22.7
852.906	59.56
853.081	41.13
853.256	121
853.431	0.17
853.606	84.14
853.781	24.75
853.956	73.9
854.131	-87.89
854.305	12.46
854.48	49.32
854.655	67.75
854.83	16.55
855.005	37.03
855.18	30.89
855.354	137.38
855.529	112.81
855.704	34.99
855.879	98.47
856.053	71.85
856.228	57.51
856.403	-34.64
856.577	-30.55
856.752	59.56
856.926	-24.4
857.101	43.18
857.276	65.71
857.45	84.14
857.625	51.37
857.799	84.14
857.974	59.56
858.148	-77.65
858.323	-3.93
858.497	-22.36
858.672	-10.07
858.846	43.18
859.02	30.89
859.195	-5.97
859.369	32.94
859.543	12.46
859.718	-22.36
859.892	30.89
860.066	63.66
860.241	110.76
860.415	-61.27
860.589	47.27
860.763	20.65
860.938	94.38
861.112	22.7
861.286	8.36
861.46	10.41
861.634	-14.17
861.808	67.75
861.982	-24.4
862.157	26.79
862.331	37.03
862.505	18.6
862.679	14.51
862.853	71.85
863.027	-44.88
863.201	88.23
863.375	24.75
863.549	51.37
863.722	-63.32
863.896	41.13
864.07	59.56
864.244	65.71
864.418	69.8
864.592	6.31
864.766	0.17
864.939	73.9
865.113	-24.4
865.287	108.71
865.461	-16.21
865.634	30.89
865.808	6.31
865.982	102.57
866.156	2.22
866.329	10.41
866.503	6.31
866.676	65.71
866.85	94.38
867.024	110.76
867.197	51.37
867.371	102.57
867.544	6.31
867.718	-22.36
867.891	-32.6
868.065	45.23
868.238	172.2
868.412	18.6
868.585	-14.17
868.759	10.41
868.932	116.9
869.105	-16.21
869.279	28.84
869.452	-10.07
869.625	-22.36
869.799	28.84
869.972	24.75
870.145	43.18
870.319	47.27
870.492	37.03
870.665	61.61
870.838	-14.17
871.011	53.42
871.185	-10.07
871.358	22.7
871.531	82.09
871.704	-8.02
871.877	28.84
872.05	-18.26
872.223	22.7
872.396	-48.98
872.569	75.95
872.742	26.79
872.915	41.13
873.088	22.7
873.261	39.08
873.434	57.51
873.607	51.37
873.78	55.47
873.953	28.84
874.126	55.47
874.299	34.99
874.471	0.17
874.644	45.23
874.817	6.31
874.99	32.94
875.163	-34.64
875.335	73.9
875.508	20.65
875.681	47.27
875.853	92.33
876.026	-24.4
876.199	6.31
876.371	-14.17
876.544	-12.12
876.717	45.23
876.889	2.22
877.062	47.27
877.234	39.08
877.407	28.84
877.579	-10.07
877.752	4.27
877.924	30.89
878.097	127.14
878.269	-22.36
878.442	41.13
878.614	-8.02
878.786	4.27
878.959	45.23
879.131	20.65
879.303	45.23
879.476	-5.97
879.648	69.8
879.82	100.52
879.993	-8.02
880.165	-12.12
880.337	22.7
880.509	41.13
880.681	-22.36
880.854	-1.88
881.026	55.47
881.198	47.27
881.37	2.22
881.542	12.46
881.714	-8.02
881.886	30.89
882.058	-36.69
882.23	47.27
882.402	-42.84
882.574	37.03
882.746	90.28
882.918	30.89
883.09	-24.4
883.262	20.65
883.434	63.66
883.606	-38.74
883.778	-1.88
883.95	55.47
884.122	112.81
884.293	26.79
884.465	30.89
884.637	2.22
884.809	-94.04
884.98	45.23
885.152	-16.21
885.324	73.9
885.496	-18.26
885.667	51.37
885.839	8.36
886.011	110.76
886.182	6.31
886.354	90.28
886.525	57.51
886.697	10.41
886.869	-22.36
887.04	12.46
887.212	71.85
887.383	49.32
887.555	20.65
887.726	18.6
887.897	18.6
888.069	61.61
888.24	112.81
888.412	14.51
888.583	30.89
888.754	-28.5
888.926	-14.17
889.097	24.75
889.268	37.03
889.44	53.42
889.611	47.27
889.782	-16.21
889.953	-63.32
890.125	20.65
890.296	-16.21
890.467	-46.93
890.638	49.32
890.809	24.75
890.98	20.65
891.151	82.09
891.323	-14.17
891.494	4.27
891.665	0.17
891.836	57.51
892.007	-36.69
892.178	18.6
892.349	67.75
892.52	20.65
892.691	-55.12
892.862	43.18
893.032	2.22
893.203	-14.17
893.374	-3.93
893.545	-12.12
893.716	-44.88
893.887	32.94
894.057	-87.89
894.228	-28.5
894.399	71.85
894.57	28.84
894.74	39.08
894.911	6.31
895.082	14.51
895.253	18.6
895.423	14.51
895.594	47.27
895.764	55.47
895.935	22.7
896.106	16.55
896.276	24.75
896.447	-28.5
896.617	-1.88
896.788	-51.03
896.958	22.7
897.129	37.03
897.299	57.51
897.47	6.31
897.64	-34.64
897.81	4.27
897.981	-53.08
898.151	-20.31
898.322	8.36
898.492	30.89
898.662	-18.26
898.832	-20.31
899.003	-28.5
899.173	18.6
899.343	63.66
899.513	4.27
