Data from USB4F104151__72__11-45-27-908.txt Node

Date: Fri Mar 14 11:45:27 EDT 2025
User: louis
Spectrometer: USB4F10415
Trigger mode: 4
Integration Time (sec): 2.000000E-2
Scans to average: 1
Electric dark correction enabled: true
Nonlinearity correction enabled: false
Boxcar width: 0
XAxis mode: Wavelengths
Number of Pixels in Spectrum: 3648
>>>>>Begin Spectral Data<<<<<
178.204	-5.8
178.424	-5.8
178.644	-5.8
178.864	-9.9
179.084	-30.38
179.304	-22.19
179.524	51.54
179.744	-85.67
179.964	41.3
180.184	-1.71
180.404	61.78
180.624	-50.86
180.844	-54.95
181.064	20.82
181.283	-20.14
181.503	-36.52
181.723	96.6
181.943	8.53
182.163	106.84
182.383	67.92
182.602	82.26
182.822	49.49
183.042	24.92
183.262	39.25
183.482	57.68
183.701	55.64
183.921	49.49
184.141	61.78
184.361	90.45
184.58	53.59
184.8	57.68
185.02	67.92
185.239	26.96
185.459	24.92
185.679	88.4
185.898	-34.47
186.118	65.88
186.338	57.68
186.557	43.35
186.777	26.96
186.997	88.4
187.216	90.45
187.436	6.49
187.655	20.82
187.875	33.11
188.095	59.73
188.314	43.35
188.534	12.63
188.753	-50.86
188.973	63.83
189.192	106.84
189.412	18.77
189.631	33.11
189.851	78.16
190.07	92.5
190.29	69.97
190.509	12.63
190.729	78.16
190.948	18.77
191.168	137.56
191.387	137.56
191.607	37.2
191.826	26.96
192.045	49.49
192.265	-34.47
192.484	16.73
192.704	72.02
192.923	20.82
193.142	69.97
193.362	-40.62
193.581	78.16
193.8	-36.52
194.02	74.07
194.239	-26.28
194.458	74.07
194.678	49.49
194.897	29.01
195.116	80.21
195.335	49.49
195.555	10.58
195.774	76.12
195.993	82.26
196.212	59.73
196.432	18.77
196.651	10.58
196.87	117.08
197.089	98.64
197.308	8.53
197.528	80.21
197.747	18.77
197.966	35.16
198.185	57.68
198.404	-46.76
198.623	33.11
198.842	67.92
199.062	53.59
199.281	98.64
199.5	33.11
199.719	61.78
199.938	24.92
200.157	31.06
200.376	74.07
200.595	84.31
200.814	20.82
201.033	-22.19
201.252	24.92
201.471	18.77
201.69	31.06
201.909	43.35
202.128	43.35
202.347	67.92
202.566	20.82
202.785	82.26
203.004	-40.62
203.223	43.35
203.442	-36.52
203.661	74.07
203.879	53.59
204.098	94.55
204.317	49.49
204.536	39.25
204.755	33.11
204.974	47.44
205.193	33.11
205.411	55.64
205.63	88.4
205.849	-30.38
206.068	-7.85
206.287	86.36
206.505	51.54
206.724	63.83
206.943	63.83
207.162	-7.85
207.381	-44.71
207.599	24.92
207.818	-5.8
208.037	33.11
208.255	14.68
208.474	37.2
208.693	112.98
208.911	59.73
209.13	67.92
209.349	10.58
209.567	8.53
209.786	37.2
210.005	16.73
210.223	22.87
210.442	18.77
210.661	-13.99
210.879	47.44
211.098	86.36
211.316	14.68
211.535	47.44
211.753	4.44
211.972	-16.04
212.191	55.64
212.409	16.73
212.628	-9.9
212.846	43.35
213.065	61.78
213.283	102.74
213.502	22.87
213.72	-36.52
213.938	12.63
214.157	-67.24
214.375	-11.95
214.594	61.78
214.812	-5.8
215.031	65.88
215.249	47.44
215.467	26.96
215.686	-46.76
215.904	69.97
216.122	94.55
216.341	33.11
216.559	61.78
216.778	51.54
216.996	45.4
217.214	72.02
217.432	16.73
217.651	51.54
217.869	24.92
218.087	45.4
218.306	10.58
218.524	49.49
218.742	-30.38
218.96	59.73
219.179	100.69
219.397	-7.85
219.615	26.96
219.833	43.35
220.051	-3.75
220.27	26.96
220.488	35.16
220.706	33.11
220.924	82.26
221.142	61.78
221.36	112.98
221.578	121.17
221.796	49.49
222.015	39.25
222.233	-20.14
222.451	22.87
222.669	22.87
222.887	33.11
223.105	49.49
223.323	18.77
223.541	22.87
223.759	4.44
223.977	96.6
224.195	57.68
224.413	-11.95
224.631	43.35
224.849	14.68
225.067	98.64
225.285	24.92
225.503	2.39
225.721	-40.62
225.939	80.21
226.157	82.26
226.375	106.84
226.592	98.64
226.81	43.35
227.028	-5.8
227.246	53.59
227.464	31.06
227.682	94.55
227.9	41.3
228.117	-9.9
228.335	12.63
228.553	67.92
228.771	22.87
228.989	0.34
229.206	10.58
229.424	6.49
229.642	61.78
229.86	-1.71
230.077	-1.71
230.295	63.83
230.513	31.06
230.731	67.92
230.948	45.4
231.166	94.55
231.384	78.16
231.601	69.97
231.819	61.78
232.037	26.96
232.254	65.88
232.472	57.68
232.689	102.74
232.907	59.73
233.125	14.68
233.342	53.59
233.56	80.21
233.777	16.73
233.995	65.88
234.213	59.73
234.43	26.96
234.648	24.92
234.865	37.2
235.083	78.16
235.3	51.54
235.518	69.97
235.735	67.92
235.953	57.68
236.17	35.16
236.388	63.83
236.605	59.73
236.822	63.83
237.04	84.31
237.257	90.45
237.475	0.34
237.692	98.64
237.909	72.02
238.127	20.82
238.344	35.16
238.562	2.39
238.779	-48.81
238.996	20.82
239.214	-16.04
239.431	39.25
239.648	61.78
239.865	45.4
240.083	20.82
240.3	61.78
240.517	-26.28
240.735	51.54
240.952	63.83
241.169	26.96
241.386	2.39
241.603	51.54
241.821	-3.75
242.038	110.93
242.255	82.26
242.472	76.12
242.689	63.83
242.907	69.97
243.124	51.54
243.341	10.58
243.558	-11.95
243.775	8.53
243.992	-95.91
244.209	137.56
244.426	127.32
244.643	53.59
244.86	24.92
245.078	76.12
245.295	106.84
245.512	35.16
245.729	78.16
245.946	59.73
246.163	8.53
246.38	61.78
246.597	80.21
246.814	37.2
247.031	74.07
247.248	-16.04
247.464	63.83
247.681	57.68
247.898	39.25
248.115	112.98
248.332	20.82
248.549	8.53
248.766	98.64
248.983	39.25
249.2	43.35
249.417	-18.09
249.633	69.97
249.85	33.11
250.067	18.77
250.284	29.01
250.501	117.08
250.717	72.02
250.934	45.4
251.151	-16.04
251.368	4.44
251.585	24.92
251.801	31.06
252.018	22.87
252.235	49.49
252.451	-34.47
252.668	-11.95
252.885	47.44
253.102	84.31
253.318	33.11
253.535	55.64
253.752	20.82
253.968	18.77
254.185	39.25
254.401	65.88
254.618	88.4
254.835	39.25
255.051	41.3
255.268	65.88
255.484	14.68
255.701	61.78
255.917	96.6
256.134	16.73
256.351	127.32
256.567	-1.71
256.784	10.58
257	16.73
257.217	82.26
257.433	35.16
257.65	45.4
257.866	26.96
258.082	14.68
258.299	47.44
258.515	31.06
258.732	41.3
258.948	26.96
259.165	39.25
259.381	-22.19
259.597	41.3
259.814	61.78
260.03	37.2
260.246	76.12
260.463	47.44
260.679	43.35
260.895	18.77
261.112	47.44
261.328	31.06
261.544	72.02
261.761	115.03
261.977	106.84
262.193	20.82
262.409	35.16
262.626	-26.28
262.842	47.44
263.058	4.44
263.274	14.68
263.49	12.63
263.707	39.25
263.923	57.68
264.139	51.54
264.355	59.73
264.571	69.97
264.787	14.68
265.004	51.54
265.22	59.73
265.436	35.16
265.652	-18.09
265.868	88.4
266.084	61.78
266.3	94.55
266.516	49.49
266.732	20.82
266.948	26.96
267.164	14.68
267.38	-5.8
267.596	88.4
267.812	41.3
268.028	59.73
268.244	51.54
268.46	59.73
268.676	14.68
268.892	86.36
269.108	57.68
269.324	-30.38
269.54	37.2
269.756	74.07
269.972	20.82
270.188	26.96
270.403	65.88
270.619	-32.43
270.835	102.74
271.051	-24.23
271.267	-18.09
271.483	86.36
271.698	35.16
271.914	43.35
272.13	41.3
272.346	10.58
272.562	12.63
272.777	49.49
272.993	41.3
273.209	16.73
273.425	129.36
273.64	-26.28
273.856	8.53
274.072	24.92
274.287	47.44
274.503	92.5
274.719	29.01
274.934	18.77
275.15	57.68
275.366	84.31
275.581	0.34
275.797	16.73
276.012	16.73
276.228	57.68
276.444	14.68
276.659	102.74
276.875	-7.85
277.09	110.93
277.306	35.16
277.521	-7.85
277.737	22.87
277.952	22.87
278.168	24.92
278.383	29.01
278.599	22.87
278.814	80.21
279.03	53.59
279.245	102.74
279.461	47.44
279.676	18.77
279.892	26.96
280.107	86.36
280.322	39.25
280.538	-46.76
280.753	76.12
280.969	-5.8
281.184	2.39
281.399	57.68
281.615	14.68
281.83	2.39
282.045	33.11
282.26	35.16
282.476	43.35
282.691	102.74
282.906	18.77
283.122	-11.95
283.337	-28.33
283.552	26.96
283.767	12.63
283.983	-5.8
284.198	10.58
284.413	108.88
284.628	78.16
284.843	-11.95
285.058	-13.99
285.274	4.44
285.489	41.3
285.704	106.84
285.919	59.73
286.134	49.49
286.349	16.73
286.564	18.77
286.779	-3.75
286.995	47.44
287.21	-1.71
287.425	69.97
287.64	49.49
287.855	76.12
288.07	12.63
288.285	92.5
288.5	74.07
288.715	29.01
288.93	61.78
289.145	135.51
289.36	80.21
289.575	51.54
289.79	98.64
290.004	16.73
290.219	65.88
290.434	8.53
290.649	-34.47
290.864	67.92
291.079	37.2
291.294	65.88
291.509	10.58
291.724	-1.71
291.938	-3.75
292.153	35.16
292.368	29.01
292.583	43.35
292.798	86.36
293.012	59.73
293.227	63.83
293.442	41.3
293.657	57.68
293.871	88.4
294.086	37.2
294.301	63.83
294.516	43.35
294.73	-1.71
294.945	41.3
295.16	86.36
295.374	49.49
295.589	37.2
295.804	33.11
296.018	12.63
296.233	67.92
296.447	43.35
296.662	12.63
296.877	33.11
297.091	59.73
297.306	72.02
297.52	14.68
297.735	39.25
297.949	72.02
298.164	0.34
298.378	78.16
298.593	94.55
298.807	-5.8
299.022	69.97
299.236	82.26
299.451	43.35
299.665	33.11
299.88	24.92
300.094	-1.71
300.309	22.87
300.523	12.63
300.737	147.8
300.952	18.77
301.166	59.73
301.381	76.12
301.595	-16.04
301.809	53.59
302.024	129.36
302.238	2.39
302.452	59.73
302.667	53.59
302.881	74.07
303.095	115.03
303.309	72.02
303.524	31.06
303.738	57.68
303.952	12.63
304.166	72.02
304.381	49.49
304.595	51.54
304.809	47.44
305.023	82.26
305.237	-5.8
305.452	12.63
305.666	16.73
305.88	74.07
306.094	0.34
306.308	6.49
306.522	-36.52
306.736	121.17
306.95	35.16
307.164	-7.85
307.379	31.06
307.593	59.73
307.807	133.46
308.021	61.78
308.235	80.21
308.449	82.26
308.663	63.83
308.877	35.16
309.091	12.63
309.305	96.6
309.519	18.77
309.733	0.34
309.947	45.4
310.161	-16.04
310.374	20.82
310.588	57.68
310.802	33.11
311.016	33.11
311.23	49.49
311.444	74.07
311.658	37.2
311.872	6.49
312.085	72.02
312.299	39.25
312.513	72.02
312.727	65.88
312.941	-5.8
313.154	26.96
313.368	-44.71
313.582	65.88
313.796	-22.19
314.009	108.88
314.223	102.74
314.437	20.82
314.651	131.41
314.864	35.16
315.078	51.54
315.292	61.78
315.505	61.78
315.719	35.16
315.933	14.68
316.146	-30.38
316.36	90.45
316.573	96.6
316.787	-9.9
317.001	98.64
317.214	20.82
317.428	88.4
317.641	67.92
317.855	43.35
318.068	137.56
318.282	82.26
318.495	78.16
318.709	29.01
318.922	8.53
319.136	117.08
319.349	41.3
319.563	61.78
319.776	96.6
319.99	57.68
320.203	82.26
320.417	8.53
320.63	129.36
320.843	90.45
321.057	43.35
321.27	115.03
321.483	88.4
321.697	119.12
321.91	123.22
322.124	45.4
322.337	45.4
322.55	-83.63
322.763	33.11
322.977	147.8
323.19	16.73
323.403	98.64
323.617	76.12
323.83	59.73
324.043	72.02
324.256	80.21
324.469	-44.71
324.683	67.92
324.896	65.88
325.109	18.77
325.322	94.55
325.535	65.88
325.748	90.45
325.962	51.54
326.175	65.88
326.388	178.51
326.601	43.35
326.814	26.96
327.027	18.77
327.24	49.49
327.453	2.39
327.666	2.39
327.879	88.4
328.092	147.8
328.305	49.49
328.518	84.31
328.731	88.4
328.944	104.79
329.157	-9.9
329.37	78.16
329.583	102.74
329.796	29.01
330.009	-13.99
330.222	26.96
330.435	82.26
330.648	-26.28
330.861	12.63
331.073	86.36
331.286	106.84
331.499	78.16
331.712	-11.95
331.925	0.34
332.138	65.88
332.35	72.02
332.563	65.88
332.776	82.26
332.989	59.73
333.202	65.88
333.414	69.97
333.627	117.08
333.84	57.68
334.053	67.92
334.265	24.92
334.478	61.78
334.691	84.31
334.903	53.59
335.116	8.53
335.329	4.44
335.541	24.92
335.754	88.4
335.966	123.22
336.179	37.2
336.392	45.4
336.604	53.59
336.817	84.31
337.029	16.73
337.242	110.93
337.454	0.34
337.667	84.31
337.88	143.7
338.092	69.97
338.305	41.3
338.517	39.25
338.729	98.64
338.942	10.58
339.154	63.83
339.367	-3.75
339.579	16.73
339.792	76.12
340.004	59.73
340.217	16.73
340.429	96.6
340.641	37.2
340.854	92.5
341.066	24.92
341.278	29.01
341.491	49.49
341.703	26.96
341.915	41.3
342.128	49.49
342.34	76.12
342.552	39.25
342.764	43.35
342.977	49.49
343.189	-3.75
343.401	72.02
343.613	24.92
343.826	24.92
344.038	0.34
344.25	4.44
344.462	-7.85
344.674	35.16
344.886	98.64
345.099	145.75
345.311	39.25
345.523	31.06
345.735	49.49
345.947	10.58
346.159	-26.28
346.371	53.59
346.583	4.44
346.795	33.11
347.007	-5.8
347.219	67.92
347.431	8.53
347.643	102.74
347.855	47.44
348.067	112.98
348.279	104.79
348.491	98.64
348.703	98.64
348.915	31.06
349.127	33.11
349.339	139.6
349.551	41.3
349.763	-3.75
349.975	45.4
350.187	121.17
350.399	94.55
350.61	67.92
350.822	92.5
351.034	108.88
351.246	37.2
351.458	51.54
351.669	-11.95
351.881	49.49
352.093	117.08
352.305	43.35
352.517	43.35
352.728	145.75
352.94	67.92
353.152	92.5
353.363	-3.75
353.575	31.06
353.787	53.59
353.999	100.69
354.21	37.2
354.422	-40.62
354.633	76.12
354.845	-1.71
355.057	106.84
355.268	119.12
355.48	135.51
355.692	78.16
355.903	102.74
356.115	84.31
356.326	-5.8
356.538	102.74
356.749	10.58
356.961	90.45
357.172	92.5
357.384	-28.33
357.595	108.88
357.807	53.59
358.018	26.96
358.23	96.6
358.441	72.02
358.653	59.73
358.864	78.16
359.075	8.53
359.287	6.49
359.498	147.8
359.709	33.11
359.921	43.35
360.132	12.63
360.344	55.64
360.555	24.92
360.766	-28.33
360.977	33.11
361.189	106.84
361.4	-24.23
361.611	176.47
361.823	104.79
362.034	55.64
362.245	74.07
362.456	20.82
362.667	76.12
362.879	80.21
363.09	80.21
363.301	26.96
363.512	-11.95
363.723	129.36
363.935	45.4
364.146	104.79
364.357	72.02
364.568	39.25
364.779	31.06
364.99	37.2
365.201	41.3
365.412	49.49
365.623	33.11
365.834	106.84
366.045	33.11
366.256	78.16
366.467	76.12
366.678	92.5
366.889	35.16
367.1	26.96
367.311	69.97
367.522	104.79
367.733	108.88
367.944	53.59
368.155	65.88
368.366	59.73
368.577	100.69
368.788	-16.04
368.999	18.77
369.209	-18.09
369.42	100.69
369.631	143.7
369.842	12.63
370.053	-5.8
370.264	24.92
370.474	119.12
370.685	86.36
370.896	61.78
371.107	45.4
371.317	16.73
371.528	22.87
371.739	76.12
371.95	51.54
372.16	80.21
372.371	8.53
372.582	18.77
372.792	10.58
373.003	69.97
373.214	49.49
373.424	112.98
373.635	29.01
373.846	0.34
374.056	112.98
374.267	14.68
374.477	-3.75
374.688	39.25
374.898	43.35
375.109	29.01
375.319	-20.14
375.53	24.92
375.74	80.21
375.951	92.5
376.161	43.35
376.372	61.78
376.582	119.12
376.793	102.74
377.003	86.36
377.214	45.4
377.424	63.83
377.635	51.54
377.845	82.26
378.055	69.97
378.266	20.82
378.476	115.03
378.686	61.78
378.897	102.74
379.107	-5.8
379.317	74.07
379.528	117.08
379.738	131.41
379.948	65.88
380.158	82.26
380.369	119.12
380.579	43.35
380.789	88.4
380.999	90.45
381.21	86.36
381.42	24.92
381.63	102.74
381.84	69.97
382.05	98.64
382.261	80.21
382.471	78.16
382.681	110.93
382.891	18.77
383.101	78.16
383.311	102.74
383.521	41.3
383.731	2.39
383.941	65.88
384.151	90.45
384.361	12.63
384.571	84.31
384.781	69.97
384.991	96.6
385.201	112.98
385.411	18.77
385.621	61.78
385.831	45.4
386.041	90.45
386.251	14.68
386.461	69.97
386.671	102.74
386.881	49.49
387.091	51.54
387.301	121.17
387.511	53.59
387.72	94.55
387.93	96.6
388.14	37.2
388.35	8.53
388.56	92.5
388.769	33.11
388.979	76.12
389.189	41.3
389.399	76.12
389.609	74.07
389.818	61.78
390.028	63.83
390.238	129.36
390.447	45.4
390.657	39.25
390.867	6.49
391.076	125.27
391.286	49.49
391.496	-3.75
391.705	67.92
391.915	82.26
392.125	149.84
392.334	108.88
392.544	69.97
392.753	155.99
392.963	31.06
393.172	39.25
393.382	53.59
393.591	119.12
393.801	16.73
394.01	78.16
394.22	80.21
394.429	158.03
394.639	69.97
394.848	110.93
395.058	145.75
395.267	80.21
395.477	84.31
395.686	59.73
395.895	174.42
396.105	151.89
396.314	90.45
396.524	78.16
396.733	35.16
396.942	168.27
397.152	104.79
397.361	72.02
397.57	166.23
397.78	162.13
397.989	84.31
398.198	190.8
398.407	119.12
398.617	98.64
398.826	137.56
399.035	137.56
399.244	84.31
399.453	98.64
399.663	162.13
399.872	162.13
400.081	55.64
400.29	162.13
400.499	92.5
400.708	121.17
400.917	158.03
401.127	88.4
401.336	131.41
401.545	147.8
401.754	192.85
401.963	153.94
402.172	137.56
402.381	108.88
402.59	82.26
402.799	162.13
403.008	252.24
403.217	96.6
403.426	129.36
403.635	151.89
403.844	121.17
404.053	160.08
404.262	112.98
404.471	106.84
404.68	225.62
404.888	186.71
405.097	143.7
405.306	125.27
405.515	135.51
405.724	125.27
405.933	164.18
406.142	151.89
406.35	215.38
406.559	205.14
406.768	176.47
406.977	186.71
407.185	166.23
407.394	160.08
407.603	141.65
407.812	213.33
408.02	258.39
408.229	235.86
408.438	229.71
408.646	260.43
408.855	227.67
409.064	262.48
409.272	256.34
409.481	352.59
409.69	311.63
409.898	237.91
410.107	301.39
410.315	289.1
410.524	368.98
410.733	246.1
410.941	350.54
411.15	325.97
411.358	362.83
411.567	409.94
411.775	377.17
411.984	420.17
412.192	375.12
412.401	438.61
412.609	563.53
412.818	483.66
413.026	508.24
413.234	553.29
413.443	461.13
413.651	541.01
413.86	534.86
414.068	581.96
414.276	612.68
414.485	594.25
414.693	665.93
414.901	592.2
415.11	676.17
415.318	641.36
415.526	780.62
415.734	651.6
415.943	733.51
416.151	764.23
416.359	840.01
416.567	788.81
416.776	827.72
416.984	938.31
417.192	835.91
417.4	899.4
417.608	936.26
417.817	975.17
418.025	1116.48
418.233	1102.15
418.441	1036.61
418.649	1075.52
418.857	1165.64
419.065	1282.37
419.273	1202.5
419.481	1370.43
419.689	1417.54
419.897	1325.38
420.105	1386.82
420.313	1524.03
420.521	1497.41
420.729	1567.04
420.937	1640.76
421.145	1575.23
421.353	1777.98
421.561	1753.4
421.769	1765.69
421.977	1909.05
422.185	1884.47
422.393	2040.12
422.601	2177.33
422.809	2185.52
423.017	2251.06
423.224	2197.81
423.432	2197.81
423.64	2326.83
423.848	2699.56
424.056	2472.24
424.263	2617.65
424.471	2670.89
424.679	2793.77
424.887	2963.75
425.094	2871.59
425.302	3080.49
425.51	3174.69
425.718	3252.52
425.925	3219.75
426.133	3465.5
426.341	3420.45
426.548	3690.78
426.756	3660.06
426.964	3713.31
427.171	3969.3
427.379	4075.8
427.586	4073.75
427.794	4118.81
428.001	4430.1
428.209	4507.92
428.417	4421.91
428.624	4878.6
428.832	4733.2
429.039	4821.26
429.247	4825.36
429.454	5341.44
429.662	5673.21
429.869	5273.86
430.076	5761.28
430.284	5490.95
430.491	5859.58
430.699	6109.43
430.906	6058.23
431.114	6177.02
431.321	6320.37
431.528	6529.27
431.736	6836.46
431.943	7104.74
432.15	7080.17
432.358	7207.14
432.565	7307.49
432.772	7602.4
432.979	7887.07
433.187	7905.5
433.394	7848.16
433.601	8673.49
433.808	8714.45
434.016	8474.84
434.223	8808.65
434.43	9404.61
434.637	9101.51
434.844	9898.17
435.052	9920.7
435.259	9824.45
435.466	10172.6
435.673	10016.96
435.88	10592.44
436.087	10989.74
436.294	11135.15
436.501	10891.44
436.708	10991.79
436.915	11409.58
437.122	11974.81
437.329	11858.08
437.537	12370.07
437.743	12460.18
437.95	12398.74
438.157	13058.19
438.364	13588.61
438.571	13613.19
438.778	13652.1
438.985	14735.48
439.192	14239.87
439.399	14801.01
439.606	14399.61
439.813	15239.28
440.02	16255.07
440.227	15908.96
440.433	15810.66
440.64	16167.01
440.847	16283.74
441.054	16771.16
441.261	17856.58
441.467	17549.39
441.674	17844.29
441.881	18368.57
442.088	18264.13
442.294	18419.77
442.501	18708.54
442.708	19050.55
442.914	19634.22
443.121	20600.86
443.328	19746.86
443.534	21196.82
443.741	20729.88
443.948	20461.6
444.154	22151.17
444.361	22034.44
444.568	21805.06
444.774	22110.21
444.981	22515.71
445.187	23076.85
445.394	24145.89
445.6	23543.79
445.807	26259.4
446.013	24795.1
446.22	25274.32
446.426	26453.95
446.633	26470.34
446.839	27484.08
447.046	26427.33
447.252	27826.09
447.459	27951.02
447.665	27678.64
447.871	29013.91
448.078	29917.07
448.284	28686.24
448.491	29439.89
448.697	30887.81
448.903	31154.04
449.11	31586.16
449.316	30801.79
449.522	31215.48
449.728	32255.85
449.935	32261.99
450.141	32569.19
450.347	32950.11
450.553	31983.47
450.76	32241.51
450.966	33443.67
451.172	32935.77
451.378	33881.94
451.584	33525.59
451.791	34291.53
451.997	34039.63
452.203	34647.88
452.409	34723.65
452.615	34619.21
452.821	33386.33
453.027	33038.17
453.233	34572.1
453.44	33314.65
453.646	33711.95
453.852	33806.16
454.058	34201.42
454.264	33105.76
454.47	33920.85
454.676	33171.29
454.882	34096.97
455.088	31117.18
455.294	31809.39
455.5	32710.5
455.705	32507.75
455.911	30879.61
456.117	30578.56
456.323	30332.81
456.529	29024.15
456.735	30068.62
456.941	29269.91
457.147	28850.08
457.352	27944.87
457.558	27477.94
457.764	27621.3
457.97	27127.74
458.176	26687.42
458.381	26286.02
458.587	25241.56
458.793	25378.77
458.999	23885.8
459.204	25583.57
459.41	24958.94
459.616	23412.72
459.821	23298.03
460.027	23107.57
460.233	22593.53
460.438	21577.74
460.644	21825.54
460.85	20693.02
461.055	20510.75
461.261	20443.17
461.466	18929.72
461.672	18366.53
461.878	19728.42
462.083	18411.58
462.289	17915.97
462.494	17856.58
462.7	16912.47
462.905	16595.03
463.111	17121.36
463.316	16914.52
463.522	16916.56
463.727	16810.07
463.932	16867.41
464.138	16771.16
464.343	16642.14
464.549	16306.27
464.754	16877.65
464.959	16580.7
465.165	16564.31
465.37	15796.32
465.575	15513.7
465.781	15853.67
465.986	16244.83
466.191	15460.46
466.397	15112.3
466.602	14585.97
466.807	15177.84
467.012	15120.49
467.218	15063.15
467.423	14825.59
467.628	14719.09
467.833	15626.34
468.038	14977.14
468.244	14465.14
468.449	15294.57
468.654	14215.29
468.859	14657.65
469.064	14465.14
469.269	13719.68
469.474	14030.98
469.679	14174.33
469.885	13480.07
470.09	14160
470.295	13971.58
470.5	13652.1
470.705	13645.96
470.91	13480.07
471.115	13500.55
471.32	13400.2
471.525	13275.27
471.73	12861.59
471.935	13064.33
472.139	12562.58
472.344	12712.08
472.549	12701.84
472.754	12357.78
472.959	12245.15
473.164	11882.66
473.369	11714.72
473.574	12183.71
473.778	12253.34
473.983	11960.48
474.188	11966.62
474.393	11421.86
474.598	11567.27
474.802	11215.02
475.007	11358.38
475.212	11221.16
475.417	10850.48
475.621	10850.48
475.826	10729.65
476.031	10627.25
476.235	10670.26
476.44	10617.01
476.645	10379.45
476.849	10524.85
477.054	10455.22
477.259	10186.94
477.463	10068.16
477.668	10021.05
477.872	9955.52
478.077	9740.48
478.282	9435.33
478.486	9404.61
478.691	9689.28
478.895	9334.98
479.1	9416.9
479.304	9472.2
479.509	9060.56
479.713	9246.92
479.918	9023.69
480.122	8988.88
480.326	9281.74
480.531	9140.43
480.735	8978.64
480.94	8841.42
481.144	8984.78
481.348	8790.22
481.553	8859.85
481.757	8642.77
481.961	8794.32
482.166	8855.76
482.37	8980.68
482.574	8618.19
482.778	8495.32
482.983	8837.33
483.187	8685.78
483.391	8964.3
483.595	8564.95
483.8	8538.32
484.004	8657.11
484.208	8747.22
484.412	8546.51
484.616	8634.58
484.821	8958.16
485.025	8532.18
485.229	8659.15
485.433	8593.62
485.637	8810.7
485.841	8644.82
486.045	8593.62
486.249	8800.46
486.453	8552.66
486.657	8648.91
486.861	8599.76
487.065	8507.6
487.269	8653.01
487.473	8392.92
487.677	8534.23
487.881	8696.02
488.085	8708.3
488.289	8759.5
488.493	8593.62
488.697	8675.54
488.901	8777.94
489.105	8794.32
489.309	8730.83
489.512	8818.89
489.716	8724.69
489.92	8712.4
490.124	8943.82
490.328	8884.43
490.531	8984.78
490.735	9085.13
490.939	8853.71
491.143	8827.09
491.346	8992.97
491.55	9081.03
491.754	8952.01
491.958	9029.84
492.161	9171.15
492.365	8939.72
492.569	9242.82
492.772	9011.4
492.976	9218.25
493.18	9300.17
493.383	9334.98
493.587	9418.95
493.79	9527.49
493.994	9308.36
494.197	9433.29
494.401	9558.21
494.605	9478.34
494.808	9658.56
495.012	9937.09
495.215	9617.6
495.419	9902.27
495.622	9728.19
495.825	9990.33
496.029	10014.91
496.232	10084.54
496.436	10242.23
496.639	10635.44
496.843	10565.81
497.046	10641.59
497.249	10643.63
497.453	10610.87
497.656	10680.5
497.859	10791.09
498.063	10860.72
498.266	11307.18
498.469	11264.17
498.673	11280.55
498.876	11399.34
499.079	11305.13
499.282	11579.56
499.485	11772.07
499.689	11845.79
499.892	12083.36
500.095	12052.64
500.298	12159.13
500.501	12439.7
500.705	12474.52
500.908	12683.41
501.111	12906.64
501.314	13095.05
501.517	12955.79
501.72	13254.8
501.923	13066.38
502.126	13437.06
502.329	13801.6
502.532	13637.77
502.735	13699.2
502.938	14041.22
503.141	14076.03
503.344	14461.05
503.547	14393.47
503.75	14735.48
503.953	14897.27
504.156	15065.2
504.359	15001.71
504.562	15206.51
504.765	15714.41
504.968	15525.99
505.17	15773.8
505.373	15908.96
505.576	16410.71
505.779	16349.28
505.982	16287.84
506.185	16767.06
506.387	16734.29
506.59	16717.91
506.793	17315.92
506.996	17068.11
507.198	17752.13
507.401	17621.06
507.604	17797.19
507.807	18053.19
508.009	18118.72
508.212	18151.49
508.415	18452.54
508.617	18993.2
508.82	18735.16
509.022	18823.22
509.225	19349.55
509.428	19421.23
509.63	19501.1
509.833	19484.72
510.035	20000.8
510.238	20043.81
510.44	20371.49
510.643	20553.76
510.845	20756.5
511.048	20611.1
511.25	20865.05
511.453	21329.94
511.655	21993.48
511.858	21630.99
512.06	21624.84
512.262	22167.56
512.465	22136.84
512.667	22460.41
512.87	22605.82
513.072	22673.4
513.274	23369.71
513.477	23347.19
513.679	23582.7
513.881	24063.97
514.084	24117.22
514.286	24311.78
514.488	24139.75
514.69	25087.96
514.893	24881.11
515.095	25130.97
515.297	25253.84
515.499	25210.84
515.701	25475.02
515.904	25952.2
516.106	26404.8
516.308	26402.75
516.51	26820.54
516.712	26755.01
516.914	27029.43
517.116	27383.73
517.318	27291.57
517.52	27676.59
517.722	27746.22
517.925	28260.26
518.127	28417.96
518.329	28811.17
518.531	28657.57
518.733	29450.13
518.935	29335.45
519.136	29210.52
519.338	29806.48
519.54	29835.15
519.742	30271.37
519.944	30240.65
520.146	30857.09
520.348	30838.65
520.55	31274.87
520.752	31291.26
520.954	31641.46
521.155	31440.76
521.357	32065.39
521.559	32188.27
521.761	32759.65
521.963	32399.21
522.164	32583.52
522.366	32497.51
522.568	33179.48
522.77	33556.31
522.971	33773.39
523.173	34226
523.375	33998.67
523.576	33886.03
523.778	34385.74
523.98	34699.08
524.181	34576.2
524.383	35092.29
524.584	35499.83
524.786	35530.55
524.988	35512.12
525.189	35735.35
525.391	36157.23
525.592	35929.91
525.794	36190
525.995	36452.14
526.197	36445.99
526.398	36587.3
526.6	36568.87
526.801	36747.04
527.003	37089.06
527.204	36984.61
527.406	37664.53
527.607	37386.01
527.808	37687.06
528.01	37160.73
528.211	37785.36
528.412	38723.33
528.614	38104.85
528.815	38209.29
529.016	38811.4
529.218	37705.49
529.419	38528.78
529.62	38440.71
529.822	38299.4
530.023	38385.42
530.224	38674.18
530.425	38809.35
530.626	38444.81
530.828	38475.53
531.029	39231.23
531.23	38629.13
531.431	39333.63
531.632	39249.66
531.833	39229.18
532.035	38772.49
532.236	39180.03
532.437	39515.9
532.638	39167.74
532.839	39345.92
533.04	39671.54
533.241	39132.93
533.442	39704.31
533.643	39505.66
533.844	39479.03
534.045	40118
534.246	39804.66
534.447	39974.64
534.648	39608.06
534.849	39661.3
535.05	39436.03
535.251	39862.01
535.451	39737.08
535.652	39712.5
535.853	39732.98
536.054	40222.45
536.255	40158.96
536.456	39585.53
536.657	40007.41
536.857	39685.88
537.058	39460.6
537.259	39698.17
537.46	39919.35
537.66	39786.23
537.861	40171.25
538.062	39788.28
538.263	40003.31
538.463	40095.47
538.664	39868.15
538.865	40105.71
539.065	40351.47
539.266	39796.47
539.466	40126.19
539.667	39360.25
539.868	40077.04
540.068	39976.69
540.269	39790.33
540.469	39687.93
540.67	39868.15
540.87	39642.87
541.071	39573.24
541.271	40187.63
541.472	39751.41
541.672	39616.25
541.873	39851.77
542.073	39155.46
542.274	39759.61
542.474	39962.36
542.675	39575.29
542.875	39931.64
543.075	39816.95
543.276	39212.8
543.476	39958.26
543.676	39669.5
543.877	39587.58
544.077	39640.82
544.277	39577.34
544.478	39669.5
544.678	39778.04
544.878	39737.08
545.078	39630.58
545.279	39352.06
545.479	39180.03
545.679	39284.48
545.879	39769.85
546.079	39519.99
546.28	39458.56
546.48	39249.66
546.68	39573.24
546.88	39388.92
547.08	39651.06
547.28	39665.4
547.48	39352.06
547.68	39773.94
547.88	39085.82
548.081	39544.57
548.281	39491.32
548.481	39155.46
548.681	39622.39
548.881	39458.56
549.081	39585.53
549.28	39327.49
549.48	39415.55
549.68	39296.77
549.88	39687.93
550.08	39163.65
550.28	39583.48
550.48	39112.45
550.68	39503.61
550.88	39497.47
551.08	39499.51
551.279	39546.62
551.479	38813.45
551.679	39130.88
551.879	39106.3
552.079	39266.05
552.278	39014.15
552.478	38967.04
552.678	39067.39
552.878	39550.71
553.077	39149.31
553.277	38838.02
553.477	39292.67
553.676	38772.49
553.876	39413.5
554.076	38909.7
554.275	39171.84
554.475	38704.9
554.674	38774.53
554.874	38893.32
555.074	38752.01
555.273	38905.6
555.473	39075.59
555.672	38833.92
555.872	38332.17
556.071	38520.59
556.271	38715.14
556.47	38479.63
556.67	38285.07
556.869	38819.59
557.068	38631.18
557.268	38092.56
557.467	38211.34
557.667	38272.78
557.866	38463.24
558.065	38092.56
558.265	37711.64
558.464	37992.21
558.663	37879.57
558.863	37959.44
559.062	38268.69
559.261	37539.61
559.461	38246.16
559.66	37877.52
559.859	37981.97
560.058	37463.83
560.258	37992.21
560.457	37603.1
560.656	38055.7
560.855	37119.77
561.054	37918.48
561.253	37183.26
561.453	37308.19
561.652	37566.23
561.851	37529.37
562.05	37148.45
562.249	36972.32
562.448	37177.12
562.647	37148.45
562.846	36585.26
563.045	36990.75
563.244	36568.87
563.443	36917.03
563.642	36423.47
563.841	36327.21
564.04	36706.09
564.239	36851.49
564.438	36063.02
564.637	36409.13
564.836	36546.34
565.035	35862.32
565.234	36634.41
565.432	36130.61
565.631	35995.44
565.83	36405.03
566.029	35673.91
566.228	35813.17
566.427	35657.53
566.625	35706.68
566.824	35176.25
567.023	36052.78
567.222	35034.94
567.42	35514.17
567.619	35249.98
567.818	35196.73
568.016	35360.57
568.215	35276.6
568.414	34961.22
568.612	35528.5
568.811	34717.51
569.01	35000.13
569.208	34559.81
569.407	34766.66
569.605	34332.49
569.804	34666.31
570.002	34010.96
570.201	34621.25
570.4	34062.16
570.598	34121.55
570.797	33953.62
570.995	34146.12
571.193	33521.49
571.392	34025.29
571.59	33247.07
571.789	33666.9
571.987	33537.88
572.186	33584.98
572.384	33425.24
572.582	33476.44
572.781	33550.17
572.979	33054.56
573.177	33046.37
573.376	33013.6
573.574	32917.34
573.772	33019.74
573.971	32593.76
574.169	32575.33
574.367	32341.86
574.565	32755.55
574.763	32429.93
574.962	32458.6
575.16	32104.3
575.358	32352.1
575.556	32126.83
575.754	32321.38
575.952	32216.94
576.151	32409.45
576.349	31614.83
576.547	31614.83
576.745	31895.41
576.943	31674.23
577.141	31741.81
577.339	31637.36
577.537	31575.92
577.735	31485.81
577.933	31061.88
578.131	31481.72
578.329	31008.64
578.527	31209.34
578.725	30924.67
578.923	30822.27
579.121	30472.07
579.319	30789.5
579.516	30470.02
579.714	30867.33
579.912	30625.67
580.11	30496.64
580.308	30449.54
580.506	30222.22
580.704	30037.9
580.901	30115.72
581.099	30431.11
581.297	30017.42
581.495	30142.35
581.692	30171.02
581.89	29603.73
582.088	29847.44
582.285	29370.26
582.483	29751.18
582.681	29372.31
582.878	29392.79
583.076	29136.79
583.274	29317.01
583.471	28985.24
583.669	29140.89
583.866	29069.21
584.064	28977.05
584.262	28723.1
584.459	29263.77
584.657	28522.4
584.854	28686.24
585.052	28370.85
585.249	28645.28
585.447	28546.98
585.644	28135.34
585.841	28481.44
586.039	28589.99
586.236	28045.23
586.434	28176.3
586.631	27840.43
586.828	27813.8
587.026	27981.74
587.223	27858.86
587.42	27658.16
587.618	27846.57
587.815	27127.74
588.012	27191.22
588.21	27391.92
588.407	27504.56
588.604	27279.29
588.801	26896.31
588.999	26967.99
589.196	27062.2
589.393	26974.14
589.59	26818.49
589.787	26656.7
589.984	26628.03
590.182	26517.44
590.379	26769.34
590.576	26484.67
590.773	26644.41
590.97	26673.09
591.167	26204.1
591.364	26259.4
591.561	26505.15
591.758	25894.86
591.955	25814.99
592.152	26210.25
592.349	25538.51
592.546	25634.77
592.743	25896.91
592.94	25542.61
593.137	25860.04
593.334	25632.72
593.531	25087.96
593.727	25579.47
593.924	25380.82
594.121	25081.81
594.318	25434.07
594.515	24717.28
594.712	25006.04
594.908	24725.47
595.105	24954.84
595.302	24928.22
595.499	25026.52
595.696	24436.7
595.892	24354.79
596.089	24748
596.286	24553.44
596.482	24352.74
596.679	24223.72
596.876	24627.17
597.072	24154.08
597.269	24109.03
597.466	23844.84
597.662	23986.15
597.859	23980.01
598.055	23865.32
598.252	23635.95
598.448	23848.94
598.645	23707.63
598.841	23529.45
599.038	23584.75
599.234	23754.73
599.431	23312.37
599.627	23138.29
599.824	23134.2
600.02	23160.82
600.217	23277.55
600.413	23015.41
600.609	23160.82
600.806	22783.99
601.002	23300.08
601.198	22706.17
601.395	22650.88
601.591	22388.74
601.787	22620.16
601.984	22202.37
602.18	22632.44
602.376	22269.95
602.572	22183.94
602.769	22185.99
602.965	21960.71
603.161	22020.1
603.357	21966.85
603.553	21669.9
603.75	21762.06
603.946	21633.04
604.142	22044.68
604.338	21325.84
604.534	21934.09
604.73	21657.61
604.926	21426.19
605.122	21581.84
605.318	21385.23
605.514	21340.18
605.71	21301.26
605.906	21184.53
606.102	20967.45
606.298	21280.78
606.494	20936.73
606.69	20908.05
606.886	20977.69
607.082	20531.23
607.278	20836.38
607.474	20654.11
607.67	20742.17
607.866	20422.69
608.062	20736.02
608.257	20666.39
608.453	20451.36
608.649	20621.34
608.845	20422.69
609.041	20709.4
609.236	20537.37
609.432	20207.65
609.628	20213.79
609.824	20262.94
610.019	19929.13
610.215	20365.34
610.411	20101.15
610.606	20166.69
610.802	20021.28
610.998	20115.49
611.193	19767.34
611.389	20189.22
611.584	19834.92
611.78	19644.46
611.976	19753
612.171	19859.49
612.367	19984.42
612.562	19693.61
612.758	19591.21
612.953	19566.63
613.149	19845.16
613.344	19343.41
613.539	19753
613.735	19568.68
613.93	19499.05
614.126	19134.51
614.321	19558.44
614.517	19400.75
614.712	19253.3
614.907	18980.92
615.103	19425.32
615.298	19124.27
615.493	19431.47
615.688	19013.68
615.884	19413.04
616.079	18790.45
616.274	19245.1
616.47	18868.28
616.665	19091.51
616.86	18741.3
617.055	19005.49
617.25	18901.04
617.445	18851.89
617.641	18493.5
617.836	18772.02
618.031	18640.95
618.226	18839.61
618.421	18724.92
618.616	18626.62
618.811	18233.41
619.006	18645.05
619.201	18208.83
619.396	18489.4
619.591	18231.36
619.786	18012.23
619.981	17893.44
620.176	18128.96
620.371	17889.35
620.566	17938.5
620.761	17629.26
620.956	17789
621.151	17555.53
621.346	17444.94
621.541	17309.77
621.735	17619.02
621.93	16955.47
622.125	17537.1
622.32	17002.58
622.515	16998.48
622.709	16967.76
622.904	16738.39
623.099	16842.84
623.294	16488.54
623.488	16431.19
623.683	16519.26
623.878	16498.78
624.072	16459.87
624.267	16283.74
624.462	16060.51
624.656	16199.77
624.851	16154.72
625.046	15925.35
625.24	15718.5
625.435	16068.7
625.629	15634.53
625.824	15749.22
626.018	15415.4
626.213	15165.55
626.407	15380.59
626.602	15380.59
626.796	15442.03
626.991	15089.78
627.185	15165.55
627.38	15044.72
627.574	14657.65
627.768	14622.84
627.963	14674.04
628.157	14598.26
628.352	14866.55
628.546	14100.61
628.74	14579.83
628.935	14385.27
629.129	14344.31
629.323	14286.97
629.517	14059.65
629.712	13955.2
629.906	13975.68
630.1	13643.91
630.294	14037.12
630.489	13553.8
630.683	13877.38
630.877	13506.7
631.071	13516.94
631.265	13611.14
631.459	13490.31
631.653	13310.09
631.848	13138.06
632.042	13131.92
632.236	13074.57
632.43	12963.98
632.624	13037.71
632.818	13045.9
633.012	12710.04
633.206	12832.91
633.4	13045.9
633.594	12339.35
633.788	12548.25
633.982	12599.45
634.176	12578.97
634.369	12464.28
634.563	12370.07
634.757	12312.73
634.951	12226.71
635.145	12353.69
635.339	12288.15
635.533	12066.97
635.726	12066.97
635.92	11843.74
636.114	12036.25
636.308	11915.42
636.501	11632.8
636.695	11587.75
636.889	11595.94
637.083	11563.17
637.276	11413.67
637.47	11577.51
637.664	11202.73
637.857	11374.76
638.051	11282.6
638.244	11296.94
638.438	11303.08
638.632	11063.47
638.825	10913.97
639.019	11065.52
639.212	11036.84
639.406	10864.82
639.599	10782.9
639.793	10821.81
639.986	10444.98
640.18	10657.97
640.373	10625.2
640.567	10432.69
640.76	10502.33
640.954	10369.21
641.147	10188.99
641.34	10328.25
641.534	10098.88
641.727	10158.27
641.92	9885.89
642.114	10049.72
642.307	9889.98
642.5	9836.74
642.694	9652.42
642.887	9720
643.08	9902.27
643.273	9894.08
643.467	9820.35
643.66	9726.14
643.853	9654.47
644.046	9445.57
644.239	9636.03
644.432	9369.8
644.626	9457.86
644.819	9386.18
645.012	9511.11
645.205	9449.67
645.398	9269.45
645.591	9093.32
645.784	9384.13
645.977	8917.2
646.17	9152.71
646.363	9089.23
646.556	9029.84
646.749	8947.92
646.942	8763.6
647.135	8945.87
647.328	8937.68
647.521	8954.06
647.714	8677.58
647.907	8653.01
648.099	8802.51
648.292	8478.93
648.485	8472.79
648.678	8497.36
648.871	8446.16
649.064	8235.22
649.256	8376.53
649.449	8278.23
649.642	8325.33
649.835	8126.68
650.027	8417.49
650.22	8323.29
650.413	8042.71
650.605	8038.62
650.798	7973.08
650.991	7921.88
651.183	8204.5
651.376	7807.2
651.568	7893.21
651.761	7809.25
651.954	7868.64
652.146	7758.05
652.339	7794.91
652.531	7639.26
652.724	7586.02
652.916	7534.82
653.109	7459.04
653.301	7561.44
653.494	7530.72
653.686	7411.94
653.879	7457
654.071	7336.17
654.263	7295.21
654.456	7166.18
654.648	7237.86
654.84	7155.94
655.033	7037.16
655.225	6985.96
655.417	7012.59
655.61	6902
655.802	7059.69
655.994	6899.95
656.186	7035.11
656.379	6893.8
656.571	6942.96
656.763	6742.25
656.955	6787.31
657.148	6779.12
657.34	6672.62
657.532	6717.68
657.724	6592.75
657.916	6500.59
658.108	6652.14
658.3	6463.73
658.492	6514.93
658.684	6469.87
658.876	6408.44
659.068	6377.72
659.26	6318.32
659.452	6439.16
659.644	6467.83
659.836	6242.55
660.028	6303.99
660.22	6281.46
660.412	6162.68
660.604	6181.11
660.796	6158.58
660.988	6062.33
661.18	6013.18
661.372	6082.81
661.563	5898.49
661.755	6002.94
661.947	5880.06
662.139	5857.53
662.331	5822.72
662.522	5847.29
662.714	5873.92
662.906	5912.83
663.097	5687.55
663.289	5726.46
663.481	5753.09
663.673	5767.42
663.864	5769.47
664.056	5654.78
664.247	5599.49
664.439	5552.38
664.631	5701.89
664.822	5468.42
665.014	5568.77
665.205	5523.71
665.397	5394.69
665.588	5419.27
665.78	5286.15
665.971	5374.21
666.163	5400.83
666.354	5529.86
666.546	5232.9
666.737	5173.51
666.929	5224.71
667.12	5343.49
667.311	5249.29
667.503	5198.09
667.694	5099.78
667.885	5097.74
668.077	5019.91
668.268	5105.93
668.459	5067.02
668.651	5058.82
668.842	5107.98
669.033	4991.24
669.224	5038.34
669.416	5134.6
669.607	4776.2
669.798	4937.99
669.989	5007.62
670.18	4872.46
670.371	4739.34
670.563	4849.93
670.754	4876.55
670.945	4698.38
671.136	4702.48
671.327	4796.68
671.518	4839.69
671.709	4780.3
671.9	4690.19
672.091	4671.76
672.282	4583.7
672.473	4530.45
672.664	4624.65
672.855	4550.93
673.046	4671.76
673.237	4669.71
673.428	4704.53
673.619	4509.97
673.809	4391.19
674	4565.26
674.191	4434.19
674.382	4419.86
674.573	4548.88
674.764	4544.78
674.954	4303.12
675.145	4505.87
675.336	4557.07
675.527	4452.63
675.717	4335.89
675.908	4284.69
676.099	4360.47
676.289	4317.46
676.48	4399.38
676.671	4237.59
676.861	4333.84
677.052	4260.12
677.243	4251.92
677.433	4262.16
677.624	4237.59
677.814	4129.05
678.005	4299.03
678.195	4129.05
678.386	4182.29
678.576	4270.36
678.767	4133.14
678.957	4196.63
679.148	4141.33
679.338	4184.34
679.529	4059.42
679.719	4110.61
679.909	4182.29
680.1	4100.37
680.29	4116.76
680.481	4088.09
680.671	4213.01
680.861	4012.31
681.052	4063.51
681.242	4014.36
681.432	4069.66
681.622	3948.83
681.813	4038.94
682.003	4022.55
682.193	4038.94
682.383	3971.35
682.573	3991.83
682.764	3981.59
682.954	3965.21
683.144	3954.97
683.334	3776.8
683.524	3905.82
683.714	3832.09
683.904	3752.22
684.094	3858.71
684.284	3821.85
684.474	3838.23
684.664	3887.39
684.854	3838.23
685.044	3918.11
685.234	3744.03
685.424	3807.52
685.614	3776.8
685.804	3762.46
685.994	3799.32
686.184	3850.52
686.374	3717.4
686.564	3649.82
686.753	3748.12
686.943	3721.5
687.133	3717.4
687.323	3578.14
687.513	3744.03
687.702	3551.52
687.892	3522.85
688.082	3502.37
688.272	3510.56
688.461	3561.76
688.651	3576.09
688.841	3510.56
689.03	3520.8
689.22	3379.49
689.41	3471.65
689.599	3445.02
689.789	3502.37
689.979	3520.8
690.168	3326.24
690.358	3447.07
690.547	3270.95
690.737	3399.97
690.926	3303.71
691.116	3250.47
691.305	3361.06
691.495	3281.19
691.684	3211.56
691.874	3381.54
692.063	3268.9
692.252	3264.8
692.442	3240.23
692.631	3207.46
692.82	2990.38
693.01	3213.6
693.199	3184.93
693.388	3195.17
693.578	3098.92
693.767	3117.35
693.956	3076.39
694.146	3123.49
694.335	3035.43
694.524	3174.69
694.713	3178.79
694.902	3021.1
695.092	3060.01
695.281	2992.42
695.47	3051.81
695.659	2945.32
695.848	3006.76
696.037	2861.35
696.226	3002.66
696.415	2953.51
696.604	3025.19
696.793	3027.24
696.982	2988.33
697.171	2912.55
697.36	2810.15
697.549	2941.22
697.738	2906.41
697.927	2746.67
698.116	2867.5
698.305	2873.64
698.494	2853.16
698.683	2973.99
698.872	2900.27
699.061	2887.98
699.25	2738.48
699.438	2898.22
699.627	2959.66
699.816	2844.97
700.005	2804.01
700.193	2736.43
700.382	2951.46
700.571	2783.53
700.76	2847.02
700.948	2795.82
701.137	2765.1
701.326	2859.31
701.514	2793.77
701.703	2842.92
701.892	2847.02
702.08	2859.31
702.269	2801.96
702.457	2842.92
702.646	2777.39
702.834	2777.39
703.023	2812.2
703.212	2720.04
703.4	2832.68
703.589	2734.38
703.777	2842.92
703.965	2718
704.154	2767.15
704.342	2638.13
704.531	2834.73
704.719	2785.58
704.907	2806.06
705.096	2779.43
705.284	2797.87
705.472	2705.71
705.661	2742.57
705.849	2824.49
706.037	2871.59
706.226	2664.75
706.414	2748.72
706.602	2777.39
706.79	2750.76
706.979	2730.28
707.167	2740.52
707.355	2773.29
707.543	2634.03
707.731	2746.67
707.919	2767.15
708.107	2769.2
708.296	2715.95
708.484	2730.28
708.672	2601.26
708.86	2834.73
709.048	2699.56
709.236	2758.96
709.424	2890.03
709.612	2744.62
709.8	2689.32
709.988	2691.37
710.176	2703.66
710.364	2697.52
710.551	2683.18
710.739	2638.13
710.927	2742.57
711.115	2707.76
711.303	2795.82
711.491	2789.67
711.679	2740.52
711.866	2681.13
712.054	2785.58
712.242	2840.87
712.43	2801.96
712.617	2636.08
712.805	2730.28
712.993	2703.66
713.181	2746.67
713.368	2607.41
713.556	2638.13
713.744	2533.68
713.931	2715.95
714.119	2582.83
714.306	2535.73
714.494	2703.66
714.682	2730.28
714.869	2689.32
715.057	2754.86
715.244	2619.69
715.432	2812.2
715.619	2707.76
715.807	2691.37
715.994	2711.85
716.182	2660.65
716.369	2679.08
716.556	2795.82
716.744	2697.52
716.931	2732.33
717.119	2654.51
717.306	2705.71
717.493	2804.01
717.681	2744.62
717.868	2507.06
718.055	2842.92
718.242	2656.56
718.43	2707.76
718.617	2685.23
718.804	2619.69
718.991	2707.76
719.179	2693.42
719.366	2703.66
719.553	2722.09
719.74	2740.52
719.927	2738.48
720.114	2674.99
720.301	2672.94
720.488	2627.89
720.676	2715.95
720.863	2679.08
721.05	2742.57
721.237	2724.14
721.424	2742.57
721.611	2580.78
721.798	2681.13
721.985	2799.91
722.172	2732.33
722.358	2740.52
722.545	2732.33
722.732	2718
722.919	2750.76
723.106	2697.52
723.293	2634.03
723.48	2681.13
723.667	2847.02
723.853	2685.23
724.04	2666.8
724.227	2844.97
724.414	2713.9
724.6	2756.91
724.787	2699.56
724.974	2636.08
725.161	2631.98
725.347	2636.08
725.534	2650.41
725.72	2636.08
725.907	2617.65
726.094	2644.27
726.28	2677.04
726.467	2644.27
726.653	2648.36
726.84	2672.94
727.027	2814.25
727.213	2662.7
727.4	2728.24
727.586	2629.93
727.773	2779.43
727.959	2707.76
728.145	2779.43
728.332	2648.36
728.518	2781.48
728.705	2627.89
728.891	2683.18
729.077	2621.74
729.264	2791.72
729.45	2756.91
729.636	2756.91
729.823	2672.94
730.009	2715.95
730.195	2756.91
730.382	2627.89
730.568	2674.99
730.754	2689.32
730.94	2713.9
731.126	2777.39
731.313	2779.43
731.499	2650.41
731.685	2734.38
731.871	2703.66
732.057	2779.43
732.243	2648.36
732.429	2599.21
732.615	2810.15
732.801	2713.9
732.987	2629.93
733.173	2765.1
733.359	2785.58
733.545	2748.72
733.731	2699.56
733.917	2677.04
734.103	2740.52
734.289	2838.83
734.475	2662.7
734.661	2720.04
734.847	2728.24
735.033	2742.57
735.219	2615.6
735.404	2697.52
735.59	2672.94
735.776	2713.9
735.962	2801.96
736.148	2738.48
736.333	2656.56
736.519	2588.97
736.705	2560.3
736.89	2572.59
737.076	2566.45
737.262	2642.22
737.447	2736.43
737.633	2603.31
737.819	2726.19
738.004	2560.3
738.19	2730.28
738.375	2570.54
738.561	2707.76
738.747	2582.83
738.932	2644.27
739.118	2654.51
739.303	2720.04
739.489	2691.37
739.674	2599.21
739.859	2693.42
740.045	2648.36
740.23	2578.73
740.416	2529.58
740.601	2677.04
740.786	2609.45
740.972	2634.03
741.157	2566.45
741.342	2586.93
741.528	2664.75
741.713	2570.54
741.898	2541.87
742.084	2449.71
742.269	2470.19
742.454	2543.92
742.639	2631.98
742.824	2502.96
743.01	2541.87
743.195	2529.58
743.38	2476.34
743.565	2484.53
743.75	2507.06
743.935	2445.62
744.12	2613.55
744.305	2466.1
744.49	2527.53
744.675	2466.1
744.86	2365.75
745.045	2394.42
745.23	2466.1
745.415	2484.53
745.6	2468.14
745.785	2410.8
745.97	2353.46
746.155	2400.56
746.34	2337.07
746.525	2224.44
746.71	2412.85
746.895	2357.55
747.079	2183.48
747.264	2263.35
747.449	2306.35
747.634	2271.54
747.819	2240.82
748.003	2177.33
748.188	2216.24
748.373	2216.24
748.557	2265.39
748.742	2236.72
748.927	2175.28
749.111	2183.48
749.296	2183.48
749.481	2195.76
749.665	2105.65
749.85	2177.33
750.034	2029.88
750.219	2183.48
750.404	2048.31
750.588	2025.78
750.773	2076.98
750.957	2097.46
751.141	1986.87
751.326	1982.78
751.51	2091.32
751.695	1954.1
751.879	2017.59
752.064	2060.6
752.248	2017.59
752.432	2029.88
752.617	1886.52
752.801	1919.29
752.985	1894.71
753.17	1859.9
753.354	1870.14
753.538	1917.24
753.722	1720.64
753.907	1769.79
754.091	1890.62
754.275	1745.21
754.459	1775.93
754.643	1767.74
754.828	1761.59
755.012	1833.27
755.196	1640.76
755.38	1763.64
755.564	1798.46
755.748	1708.35
755.932	1720.64
756.116	1794.36
756.3	1679.68
756.484	1712.44
756.668	1608
756.852	1642.81
757.036	1726.78
757.22	1630.52
757.404	1505.6
757.588	1573.18
757.772	1618.24
757.956	1513.79
758.14	1651
758.323	1579.33
758.507	1644.86
758.691	1440.06
758.875	1579.33
759.059	1564.99
759.242	1503.55
759.426	1593.66
759.61	1476.93
759.794	1499.45
759.977	1472.83
760.161	1548.61
760.345	1509.69
760.528	1423.68
760.712	1421.63
760.895	1540.41
761.079	1421.63
761.263	1405.25
761.446	1306.95
761.63	1399.1
761.813	1364.29
761.997	1378.62
762.18	1417.54
762.364	1372.48
762.547	1448.26
762.731	1392.96
762.914	1372.48
763.098	1311.04
763.281	1349.95
763.464	1388.86
763.648	1368.38
763.831	1345.86
764.015	1315.14
764.198	1276.23
764.381	1282.37
764.564	1399.1
764.748	1374.53
764.931	1337.66
765.114	1184.07
765.297	1263.94
765.481	1206.59
765.664	1325.38
765.847	1204.55
766.03	1200.45
766.213	1280.32
766.397	1112.39
766.58	1298.75
766.763	1241.41
766.946	1225.03
767.129	1157.44
767.312	1204.55
767.495	1167.68
767.678	1118.53
767.861	1177.92
768.044	1210.69
768.227	1077.57
768.41	1053
768.593	1231.17
768.776	1147.2
768.959	1235.27
769.142	1071.43
769.324	1161.54
769.507	1177.92
769.69	1134.92
769.873	1147.2
770.056	1091.91
770.239	1139.01
770.421	1202.5
770.604	1077.57
770.787	1053
770.97	1053
771.152	1089.86
771.335	1044.81
771.518	1110.34
771.7	1083.72
771.883	1071.43
772.066	1044.81
772.248	995.65
772.431	1087.81
772.613	1024.33
772.796	1016.13
772.978	981.32
773.161	1061.19
773.343	999.75
773.526	1038.66
773.708	960.84
773.891	964.93
774.073	973.13
774.256	932.17
774.438	1032.52
774.621	966.98
774.803	1034.57
774.985	893.26
775.168	1034.57
775.35	848.2
775.532	954.69
775.715	833.86
775.897	889.16
776.079	911.69
776.261	923.98
776.444	870.73
776.626	919.88
776.808	848.2
776.99	868.68
777.173	936.26
777.355	809.29
777.537	874.82
777.719	856.39
777.901	809.29
778.083	807.24
778.265	809.29
778.447	756.04
778.629	774.47
778.811	858.44
778.993	739.66
779.175	760.14
779.357	782.67
779.539	758.09
779.721	801.1
779.903	801.1
780.085	782.67
780.267	688.46
780.449	735.56
780.631	731.47
780.812	835.91
780.994	700.75
781.176	684.36
781.358	717.13
781.54	688.46
781.721	760.14
781.903	649.55
782.085	727.37
782.267	735.56
782.448	651.6
782.63	670.03
782.812	719.18
782.993	661.84
783.175	663.88
783.357	733.51
783.538	620.88
783.72	678.22
783.901	631.12
784.083	616.78
784.264	622.92
784.446	594.25
784.627	584.01
784.809	608.59
784.99	641.36
785.172	657.74
785.353	594.25
785.535	637.26
785.716	485.71
785.897	590.16
786.079	618.83
786.26	688.46
786.441	563.53
786.623	424.27
786.804	536.91
786.985	516.43
787.167	584.01
787.348	604.49
787.529	506.19
787.71	489.81
787.891	475.47
788.073	524.62
788.254	448.85
788.435	528.72
788.616	557.39
788.797	430.41
788.978	545.1
789.159	506.19
789.34	565.58
789.522	475.47
789.703	407.89
789.884	522.57
790.065	450.89
790.246	454.99
790.427	483.66
790.607	538.96
790.788	432.46
790.969	477.52
791.15	426.32
791.331	465.23
791.512	381.26
791.693	397.65
791.874	383.31
792.054	481.61
792.235	461.13
792.416	403.79
792.597	424.27
792.778	420.17
792.958	426.32
793.139	405.84
793.32	438.61
793.5	356.69
793.681	442.7
793.862	416.08
794.042	420.17
794.223	426.32
794.404	350.54
794.584	430.41
794.765	416.08
794.945	352.59
795.126	416.08
795.306	395.6
795.487	440.65
795.667	416.08
795.848	418.13
796.028	280.91
796.209	405.84
796.389	297.3
796.57	371.02
796.75	352.59
796.93	373.07
797.111	377.17
797.291	366.93
797.471	313.68
797.652	373.07
797.832	377.17
798.012	426.32
798.192	282.96
798.373	366.93
798.553	336.21
798.733	368.98
798.913	354.64
799.093	317.78
799.274	411.98
799.454	338.26
799.634	299.34
799.814	344.4
799.994	336.21
800.174	338.26
800.354	336.21
800.534	356.69
800.714	282.96
800.894	313.68
801.074	338.26
801.254	262.48
801.434	323.92
801.614	268.63
801.794	299.34
801.974	729.42
802.154	282.96
802.334	311.63
802.514	248.15
802.693	299.34
802.873	278.87
803.053	323.92
803.233	325.97
803.413	297.3
803.592	289.1
803.772	272.72
803.952	266.58
804.131	254.29
804.311	264.53
804.491	270.67
804.67	225.62
804.85	303.44
805.03	223.57
805.209	254.29
805.389	242
805.568	211.28
805.748	233.81
805.928	287.06
806.107	287.06
806.287	262.48
806.466	323.92
806.646	223.57
806.825	266.58
807.004	313.68
807.184	299.34
807.363	274.77
807.543	291.15
807.722	242
807.901	227.67
808.081	194.9
808.26	186.71
808.439	313.68
808.619	248.15
808.798	209.23
808.977	264.53
809.156	184.66
809.336	207.19
809.515	248.15
809.694	225.62
809.873	229.71
810.052	227.67
810.231	235.86
810.411	221.52
810.59	205.14
810.769	280.91
810.948	262.48
811.127	244.05
811.306	213.33
811.485	225.62
811.664	207.19
811.843	209.23
812.022	231.76
812.201	188.75
812.38	223.57
812.559	186.71
812.737	301.39
812.916	201.04
813.095	229.71
813.274	194.9
813.453	211.28
813.632	223.57
813.811	244.05
813.989	74.07
814.168	196.95
814.347	186.71
814.526	242
814.704	158.03
814.883	225.62
815.062	153.94
815.24	219.47
815.419	131.41
815.598	186.71
815.776	131.41
815.955	188.75
816.133	162.13
816.312	172.37
816.49	196.95
816.669	160.08
816.847	186.71
817.026	201.04
817.204	135.51
817.383	184.66
817.561	178.51
817.74	178.51
817.918	160.08
818.097	131.41
818.275	192.85
818.453	219.47
818.632	166.23
818.81	129.36
818.988	104.79
819.167	233.81
819.345	192.85
819.523	123.22
819.701	160.08
819.879	225.62
820.058	92.5
820.236	131.41
820.414	164.18
820.592	147.8
820.77	135.51
820.948	127.32
821.127	155.99
821.305	135.51
821.483	121.17
821.661	168.27
821.839	168.27
822.017	160.08
822.195	92.5
822.373	151.89
822.551	174.42
822.729	162.13
822.907	123.22
823.085	192.85
823.262	106.84
823.44	139.6
823.618	178.51
823.796	219.47
823.974	72.02
824.152	190.8
824.329	209.23
824.507	172.37
824.685	153.94
824.863	170.32
825.04	153.94
825.218	127.32
825.396	106.84
825.574	153.94
825.751	100.69
825.929	65.88
826.107	67.92
826.284	151.89
826.462	69.97
826.639	110.93
826.817	90.45
826.994	123.22
827.172	88.4
827.349	96.6
827.527	63.83
827.704	190.8
827.882	133.46
828.059	172.37
828.237	106.84
828.414	188.75
828.591	112.98
828.769	194.9
828.946	110.93
829.124	178.51
829.301	92.5
829.478	143.7
829.655	194.9
829.833	123.22
830.01	123.22
830.187	229.71
830.364	151.89
830.542	123.22
830.719	139.6
830.896	63.83
831.073	63.83
831.25	90.45
831.427	145.75
831.604	139.6
831.782	94.55
831.959	143.7
832.136	141.65
832.313	127.32
832.49	96.6
832.667	137.56
832.844	110.93
833.021	92.5
833.198	147.8
833.374	112.98
833.551	92.5
833.728	92.5
833.905	149.84
834.082	78.16
834.259	112.98
834.436	127.32
834.612	160.08
834.789	190.8
834.966	110.93
835.143	96.6
835.319	61.78
835.496	143.7
835.673	72.02
835.85	67.92
836.026	112.98
836.203	145.75
836.38	51.54
836.556	106.84
836.733	98.64
836.909	63.83
837.086	84.31
837.262	133.46
837.439	117.08
837.616	69.97
837.792	51.54
837.968	55.64
838.145	-11.95
838.321	78.16
838.498	162.13
838.674	139.6
838.851	129.36
839.027	45.4
839.203	82.26
839.38	121.17
839.556	37.2
839.732	164.18
839.909	143.7
840.085	84.31
840.261	53.59
840.437	104.79
840.614	112.98
840.79	119.12
840.966	74.07
841.142	119.12
841.318	78.16
841.494	131.41
841.671	90.45
841.847	84.31
842.023	82.26
842.199	59.73
842.375	119.12
842.551	80.21
842.727	98.64
842.903	100.69
843.079	39.25
843.255	143.7
843.431	37.2
843.607	4.44
843.783	37.2
843.959	59.73
844.134	86.36
844.31	76.12
844.486	129.36
844.662	76.12
844.838	125.27
845.013	98.64
845.189	-13.99
845.365	86.36
845.541	20.82
845.716	121.17
845.892	47.44
846.068	18.77
846.244	65.88
846.419	78.16
846.595	123.22
846.77	80.21
846.946	98.64
847.122	155.99
847.297	35.16
847.473	74.07
847.648	69.97
847.824	49.49
847.999	55.64
848.175	82.26
848.35	106.84
848.526	94.55
848.701	108.88
848.876	102.74
849.052	10.58
849.227	115.03
849.403	65.88
849.578	-7.85
849.753	-5.8
849.929	94.55
850.104	55.64
850.279	59.73
850.454	49.49
850.63	57.68
850.805	119.12
850.98	39.25
851.155	22.87
851.33	43.35
851.505	96.6
851.681	72.02
851.856	53.59
852.031	55.64
852.206	33.11
852.381	72.02
852.556	12.63
852.731	53.59
852.906	67.92
853.081	123.22
853.256	51.54
853.431	16.73
853.606	53.59
853.781	47.44
853.956	20.82
854.131	88.4
854.305	-16.04
854.48	37.2
854.655	22.87
854.83	12.63
855.005	33.11
855.18	84.31
855.354	61.78
855.529	43.35
855.704	55.64
855.879	35.16
856.053	-20.14
856.228	80.21
856.403	86.36
856.577	39.25
856.752	59.73
856.926	6.49
857.101	125.27
857.276	33.11
857.45	35.16
857.625	65.88
857.799	69.97
857.974	141.65
858.148	8.53
858.323	41.3
858.497	92.5
858.672	100.69
858.846	53.59
859.02	-36.52
859.195	88.4
859.369	82.26
859.543	-16.04
859.718	92.5
859.892	45.4
860.066	6.49
860.241	33.11
860.415	47.44
860.589	55.64
860.763	18.77
860.938	14.68
861.112	65.88
861.286	45.4
861.46	31.06
861.634	41.3
861.808	67.92
861.982	63.83
862.157	59.73
862.331	2.39
862.505	61.78
862.679	-1.71
862.853	106.84
863.027	49.49
863.201	98.64
863.375	51.54
863.549	45.4
863.722	51.54
863.896	80.21
864.07	76.12
864.244	18.77
864.418	33.11
864.592	106.84
864.766	92.5
864.939	10.58
865.113	4.44
865.287	78.16
865.461	20.82
865.634	12.63
865.808	0.34
865.982	98.64
866.156	72.02
866.329	4.44
866.503	16.73
866.676	88.4
866.85	22.87
867.024	61.78
867.197	57.68
867.371	55.64
867.544	72.02
867.718	86.36
867.891	65.88
868.065	88.4
868.238	51.54
868.412	106.84
868.585	119.12
868.759	-9.9
868.932	55.64
869.105	20.82
869.279	51.54
869.452	12.63
869.625	49.49
869.799	82.26
869.972	63.83
870.145	86.36
870.319	24.92
870.492	84.31
870.665	-1.71
870.838	0.34
871.011	51.54
871.185	31.06
871.358	-32.43
871.531	16.73
871.704	-46.76
871.877	92.5
872.05	84.31
872.223	10.58
872.396	43.35
872.569	16.73
872.742	53.59
872.915	31.06
873.088	45.4
873.261	39.25
873.434	65.88
873.607	24.92
873.78	26.96
873.953	0.34
874.126	57.68
874.299	53.59
874.471	4.44
874.644	37.2
874.817	45.4
874.99	115.03
875.163	20.82
875.335	78.16
875.508	55.64
875.681	37.2
875.853	67.92
876.026	76.12
876.199	4.44
876.371	49.49
876.544	108.88
876.717	-42.67
876.889	41.3
877.062	33.11
877.234	33.11
877.407	-18.09
877.579	-20.14
877.752	67.92
877.924	98.64
878.097	-13.99
878.269	65.88
878.442	76.12
878.614	26.96
878.786	63.83
878.959	69.97
879.131	-28.33
879.303	10.58
879.476	108.88
879.648	67.92
879.82	43.35
879.993	20.82
880.165	16.73
880.337	-24.23
880.509	53.59
880.681	-32.43
880.854	59.73
881.026	51.54
881.198	92.5
881.37	6.49
881.542	69.97
881.714	53.59
881.886	96.6
882.058	4.44
882.23	6.49
882.402	18.77
882.574	67.92
882.746	41.3
882.918	24.92
883.09	39.25
883.262	74.07
883.434	51.54
883.606	16.73
883.778	14.68
883.95	63.83
884.122	20.82
884.293	80.21
884.465	0.34
884.637	49.49
884.809	20.82
884.98	90.45
885.152	29.01
885.324	-28.33
885.496	-42.67
885.667	67.92
885.839	18.77
886.011	108.88
886.182	26.96
886.354	16.73
886.525	0.34
886.697	53.59
886.869	90.45
887.04	65.88
887.212	16.73
887.383	31.06
887.555	41.3
887.726	6.49
887.897	-30.38
888.069	49.49
888.24	82.26
888.412	49.49
888.583	33.11
888.754	-3.75
888.926	8.53
889.097	74.07
889.268	59.73
889.44	-7.85
889.611	-24.23
889.782	-44.71
889.953	29.01
890.125	92.5
890.296	61.78
890.467	65.88
890.638	49.49
890.809	47.44
890.98	-13.99
891.151	0.34
891.323	57.68
891.494	10.58
891.665	14.68
891.836	16.73
892.007	49.49
892.178	4.44
892.349	74.07
892.52	74.07
892.691	41.3
892.862	29.01
893.032	-7.85
893.203	-20.14
893.374	45.4
893.545	72.02
893.716	16.73
893.887	65.88
894.057	41.3
894.228	88.4
894.399	8.53
894.57	37.2
894.74	33.11
894.911	29.01
895.082	53.59
895.253	86.36
895.423	14.68
895.594	94.55
895.764	-3.75
895.935	74.07
896.106	29.01
896.276	35.16
896.447	-5.8
896.617	33.11
896.788	63.83
896.958	22.87
897.129	35.16
897.299	-28.33
897.47	24.92
897.64	37.2
897.81	8.53
897.981	-11.95
898.151	-9.9
898.322	92.5
898.492	78.16
898.662	10.58
898.832	18.77
899.003	104.79
899.173	47.44
899.343	45.4
899.513	35.16
