Data from USB4F104151__26__11-44-48-852.txt Node

Date: Fri Mar 14 11:44:48 EDT 2025
User: louis
Spectrometer: USB4F10415
Trigger mode: 4
Integration Time (sec): 2.000000E-2
Scans to average: 1
Electric dark correction enabled: true
Nonlinearity correction enabled: false
Boxcar width: 0
XAxis mode: Wavelengths
Number of Pixels in Spectrum: 3648
>>>>>Begin Spectral Data<<<<<
178.204	-42.67
178.424	-42.67
178.644	-42.67
178.864	-95.91
179.084	-11.95
179.304	-11.95
179.524	37.2
179.744	-59.05
179.964	2.39
180.184	43.35
180.404	41.3
180.624	6.49
180.844	22.87
181.064	-87.72
181.283	-44.71
181.503	2.39
181.723	47.44
181.943	24.92
182.163	29.01
182.383	22.87
182.602	100.69
182.822	6.49
183.042	12.63
183.262	35.16
183.482	33.11
183.701	51.54
183.921	-28.33
184.141	-18.09
184.361	-11.95
184.58	10.58
184.8	12.63
185.02	-65.19
185.239	-20.14
185.459	-13.99
185.679	-13.99
185.898	18.77
186.118	4.44
186.338	-42.67
186.557	57.68
186.777	35.16
186.997	69.97
187.216	88.4
187.436	20.82
187.655	74.07
187.875	-9.9
188.095	29.01
188.314	29.01
188.534	65.88
188.753	-30.38
188.973	24.92
189.192	39.25
189.412	80.21
189.631	29.01
189.851	-13.99
190.07	100.69
190.29	-5.8
190.509	-32.43
190.729	12.63
190.948	92.5
191.168	47.44
191.387	119.12
191.607	35.16
191.826	8.53
192.045	14.68
192.265	-18.09
192.484	26.96
192.704	24.92
192.923	47.44
193.142	100.69
193.362	39.25
193.581	31.06
193.8	76.12
194.02	65.88
194.239	18.77
194.458	6.49
194.678	-26.28
194.897	-50.86
195.116	4.44
195.335	61.78
195.555	-1.71
195.774	29.01
195.993	-59.05
196.212	78.16
196.432	4.44
196.651	-13.99
196.87	-3.75
197.089	24.92
197.308	33.11
197.528	-7.85
197.747	18.77
197.966	35.16
198.185	33.11
198.404	16.73
198.623	12.63
198.842	2.39
199.062	35.16
199.281	31.06
199.5	69.97
199.719	12.63
199.938	26.96
200.157	45.4
200.376	57.68
200.595	8.53
200.814	-16.04
201.033	67.92
201.252	4.44
201.471	49.49
201.69	76.12
201.909	8.53
202.128	12.63
202.347	29.01
202.566	45.4
202.785	26.96
203.004	-40.62
203.223	76.12
203.442	53.59
203.661	72.02
203.879	12.63
204.098	39.25
204.317	16.73
204.536	-26.28
204.755	33.11
204.974	51.54
205.193	65.88
205.411	106.84
205.63	6.49
205.849	-5.8
206.068	37.2
206.287	0.34
206.505	4.44
206.724	0.34
206.943	78.16
207.162	76.12
207.381	-24.23
207.599	12.63
207.818	-16.04
208.037	47.44
208.255	33.11
208.474	129.36
208.693	16.73
208.911	61.78
209.13	24.92
209.349	80.21
209.567	0.34
209.786	59.73
210.005	65.88
210.223	14.68
210.442	-11.95
210.661	69.97
210.879	20.82
211.098	51.54
211.316	47.44
211.535	-13.99
211.753	33.11
211.972	80.21
212.191	-11.95
212.409	-22.19
212.628	2.39
212.846	-59.05
213.065	80.21
213.283	86.36
213.502	69.97
213.72	31.06
213.938	20.82
214.157	12.63
214.375	-3.75
214.594	16.73
214.812	2.39
215.031	6.49
215.249	8.53
215.467	-71.34
215.686	-20.14
215.904	37.2
216.122	24.92
216.341	39.25
216.559	26.96
216.778	45.4
216.996	63.83
217.214	92.5
217.432	2.39
217.651	51.54
217.869	-1.71
218.087	-42.67
218.306	49.49
218.524	4.44
218.742	2.39
218.96	29.01
219.179	39.25
219.397	31.06
219.615	80.21
219.833	63.83
220.051	20.82
220.27	39.25
220.488	-26.28
220.706	12.63
220.924	-5.8
221.142	24.92
221.36	61.78
221.578	55.64
221.796	-7.85
222.015	26.96
222.233	-16.04
222.451	43.35
222.669	29.01
222.887	92.5
223.105	18.77
223.323	37.2
223.541	6.49
223.759	45.4
223.977	6.49
224.195	55.64
224.413	-13.99
224.631	80.21
224.849	39.25
225.067	35.16
225.285	67.92
225.503	43.35
225.721	-40.62
225.939	20.82
226.157	-9.9
226.375	74.07
226.592	57.68
226.81	-1.71
227.028	53.59
227.246	131.41
227.464	20.82
227.682	67.92
227.9	18.77
228.117	-26.28
228.335	35.16
228.553	4.44
228.771	6.49
228.989	84.31
229.206	43.35
229.424	29.01
229.642	14.68
229.86	26.96
230.077	-34.47
230.295	67.92
230.513	37.2
230.731	-1.71
230.948	24.92
231.166	41.3
231.384	-13.99
231.601	-26.28
231.819	63.83
232.037	24.92
232.254	-3.75
232.472	55.64
232.689	57.68
232.907	72.02
233.125	39.25
233.342	133.46
233.56	24.92
233.777	-13.99
233.995	-26.28
234.213	43.35
234.43	39.25
234.648	53.59
234.865	-54.95
235.083	35.16
235.3	12.63
235.518	26.96
235.735	-18.09
235.953	57.68
236.17	-5.8
236.388	-3.75
236.605	-20.14
236.822	45.4
237.04	-16.04
237.257	65.88
237.475	-34.47
237.692	33.11
237.909	-3.75
238.127	-22.19
238.344	-5.8
238.562	51.54
238.779	-24.23
238.996	67.92
239.214	35.16
239.431	-7.85
239.648	-18.09
239.865	41.3
240.083	49.49
240.3	26.96
240.517	31.06
240.735	24.92
240.952	43.35
241.169	-26.28
241.386	-28.33
241.603	-7.85
241.821	2.39
242.038	59.73
242.255	57.68
242.472	-18.09
242.689	43.35
242.907	35.16
243.124	45.4
243.341	-11.95
243.558	-18.09
243.775	14.68
243.992	-22.19
244.209	26.96
244.426	55.64
244.643	39.25
244.86	-3.75
245.078	69.97
245.295	88.4
245.512	51.54
245.729	37.2
245.946	20.82
246.163	24.92
246.38	117.08
246.597	8.53
246.814	24.92
247.031	12.63
247.248	-16.04
247.464	24.92
247.681	-24.23
247.898	29.01
248.115	-16.04
248.332	65.88
248.549	94.55
248.766	4.44
248.983	26.96
249.2	24.92
249.417	147.8
249.633	8.53
249.85	-22.19
250.067	47.44
250.284	16.73
250.501	-54.95
250.717	26.96
250.934	47.44
251.151	45.4
251.368	0.34
251.585	53.59
251.801	4.44
252.018	-9.9
252.235	45.4
252.451	2.39
252.668	20.82
252.885	106.84
253.102	98.64
253.318	82.26
253.535	37.2
253.752	26.96
253.968	10.58
254.185	-73.39
254.401	12.63
254.618	-7.85
254.835	-9.9
255.051	-28.33
255.268	6.49
255.484	-9.9
255.701	22.87
255.917	90.45
256.134	31.06
256.351	94.55
256.567	18.77
256.784	96.6
257	41.3
257.217	108.88
257.433	41.3
257.65	-22.19
257.866	94.55
258.082	43.35
258.299	26.96
258.515	90.45
258.732	47.44
258.948	-1.71
259.165	-9.9
259.381	-20.14
259.597	33.11
259.814	37.2
260.03	-7.85
260.246	-1.71
260.463	49.49
260.679	41.3
260.895	4.44
261.112	-46.76
261.328	-20.14
261.544	6.49
261.761	4.44
261.977	88.4
262.193	16.73
262.409	-16.04
262.626	49.49
262.842	51.54
263.058	49.49
263.274	133.46
263.49	14.68
263.707	61.78
263.923	26.96
264.139	14.68
264.355	8.53
264.571	82.26
264.787	-65.19
265.004	94.55
265.22	80.21
265.436	33.11
265.652	16.73
265.868	53.59
266.084	-44.71
266.3	-1.71
266.516	47.44
266.732	24.92
266.948	63.83
267.164	35.16
267.38	29.01
267.596	49.49
267.812	20.82
268.028	18.77
268.244	-44.71
268.46	0.34
268.676	0.34
268.892	57.68
269.108	53.59
269.324	76.12
269.54	4.44
269.756	41.3
269.972	26.96
270.188	12.63
270.403	51.54
270.619	0.34
270.835	10.58
271.051	106.84
271.267	18.77
271.483	45.4
271.698	141.65
271.914	14.68
272.13	20.82
272.346	43.35
272.562	39.25
272.777	-5.8
272.993	104.79
273.209	102.74
273.425	55.64
273.64	45.4
273.856	22.87
274.072	-5.8
274.287	8.53
274.503	78.16
274.719	22.87
274.934	-40.62
275.15	16.73
275.366	37.2
275.581	55.64
275.797	-34.47
276.012	37.2
276.228	49.49
276.444	51.54
276.659	96.6
276.875	12.63
277.09	33.11
277.306	76.12
277.521	6.49
277.737	43.35
277.952	2.39
278.168	33.11
278.383	35.16
278.599	67.92
278.814	121.17
279.03	12.63
279.245	82.26
279.461	72.02
279.676	76.12
279.892	2.39
280.107	67.92
280.322	6.49
280.538	4.44
280.753	-54.95
280.969	67.92
281.184	14.68
281.399	39.25
281.615	18.77
281.83	49.49
282.045	-42.67
282.26	16.73
282.476	53.59
282.691	35.16
282.906	31.06
283.122	24.92
283.337	43.35
283.552	69.97
283.767	26.96
283.983	33.11
284.198	20.82
284.413	51.54
284.628	43.35
284.843	74.07
285.058	-24.23
285.274	59.73
285.489	2.39
285.704	37.2
285.919	92.5
286.134	108.88
286.349	-11.95
286.564	4.44
286.779	84.31
286.995	102.74
287.21	6.49
287.425	-30.38
287.64	72.02
287.855	39.25
288.07	53.59
288.285	57.68
288.5	-1.71
288.715	47.44
288.93	51.54
289.145	26.96
289.36	12.63
289.575	6.49
289.79	57.68
290.004	12.63
290.219	72.02
290.434	43.35
290.649	20.82
290.864	26.96
291.079	4.44
291.294	37.2
291.509	-9.9
291.724	31.06
291.938	-16.04
292.153	31.06
292.368	-22.19
292.583	-9.9
292.798	39.25
293.012	80.21
293.227	57.68
293.442	-3.75
293.657	2.39
293.871	74.07
294.086	125.27
294.301	-1.71
294.516	41.3
294.73	78.16
294.945	20.82
295.16	55.64
295.374	26.96
295.589	51.54
295.804	69.97
296.018	39.25
296.233	31.06
296.447	37.2
296.662	65.88
296.877	12.63
297.091	33.11
297.306	12.63
297.52	-67.24
297.735	-3.75
297.949	51.54
298.164	24.92
298.378	-26.28
298.593	20.82
298.807	8.53
299.022	82.26
299.236	147.8
299.451	80.21
299.665	-16.04
299.88	82.26
300.094	51.54
300.309	14.68
300.523	-40.62
300.737	100.69
300.952	10.58
301.166	22.87
301.381	33.11
301.595	14.68
301.809	67.92
302.024	16.73
302.238	26.96
302.452	127.32
302.667	82.26
302.881	4.44
303.095	104.79
303.309	78.16
303.524	-40.62
303.738	100.69
303.952	-32.43
304.166	61.78
304.381	14.68
304.595	84.31
304.809	10.58
305.023	-22.19
305.237	67.92
305.452	-5.8
305.666	37.2
305.88	18.77
306.094	45.4
306.308	-36.52
306.522	57.68
306.736	76.12
306.95	41.3
307.164	123.22
307.379	33.11
307.593	37.2
307.807	22.87
308.021	35.16
308.235	33.11
308.449	-5.8
308.663	-18.09
308.877	80.21
309.091	43.35
309.305	41.3
309.519	-44.71
309.733	72.02
309.947	2.39
310.161	59.73
310.374	26.96
310.588	65.88
310.802	22.87
311.016	6.49
311.23	18.77
311.444	-46.76
311.658	47.44
311.872	4.44
312.085	76.12
312.299	100.69
312.513	74.07
312.727	24.92
312.941	65.88
313.154	59.73
313.368	-13.99
313.582	18.77
313.796	43.35
314.009	-1.71
314.223	55.64
314.437	47.44
314.651	33.11
314.864	31.06
315.078	-1.71
315.292	63.83
315.505	33.11
315.719	53.59
315.933	-7.85
316.146	6.49
316.36	24.92
316.573	31.06
316.787	98.64
317.001	8.53
317.214	12.63
317.428	108.88
317.641	24.92
317.855	22.87
318.068	22.87
318.282	47.44
318.495	8.53
318.709	10.58
318.922	33.11
319.136	129.36
319.349	67.92
319.563	63.83
319.776	35.16
319.99	51.54
320.203	127.32
320.417	10.58
320.63	57.68
320.843	110.93
321.057	74.07
321.27	47.44
321.483	-1.71
321.697	55.64
321.91	59.73
322.124	0.34
322.337	22.87
322.55	59.73
322.763	45.4
322.977	41.3
323.19	-3.75
323.403	-1.71
323.617	80.21
323.83	55.64
324.043	39.25
324.256	78.16
324.469	-3.75
324.683	63.83
324.896	18.77
325.109	65.88
325.322	18.77
325.535	18.77
325.748	10.58
325.962	57.68
326.175	55.64
326.388	-3.75
326.601	43.35
326.814	88.4
327.027	55.64
327.24	78.16
327.453	35.16
327.666	-7.85
327.879	63.83
328.092	26.96
328.305	-5.8
328.518	24.92
328.731	26.96
328.944	18.77
329.157	86.36
329.37	53.59
329.583	35.16
329.796	80.21
330.009	104.79
330.222	43.35
330.435	65.88
330.648	22.87
330.861	51.54
331.073	0.34
331.286	-28.33
331.499	33.11
331.712	26.96
331.925	82.26
332.138	47.44
332.35	-13.99
332.563	18.77
332.776	115.03
332.989	26.96
333.202	22.87
333.414	-7.85
333.627	29.01
333.84	0.34
334.053	57.68
334.265	-7.85
334.478	51.54
334.691	29.01
334.903	6.49
335.116	35.16
335.329	47.44
335.541	67.92
335.754	151.89
335.966	16.73
336.179	-9.9
336.392	80.21
336.604	-1.71
336.817	20.82
337.029	88.4
337.242	37.2
337.454	43.35
337.667	24.92
337.88	8.53
338.092	2.39
338.305	45.4
338.517	-13.99
338.729	12.63
338.942	0.34
339.154	12.63
339.367	29.01
339.579	18.77
339.792	78.16
340.004	39.25
340.217	29.01
340.429	37.2
340.641	-7.85
340.854	96.6
341.066	6.49
341.278	22.87
341.491	123.22
341.703	22.87
341.915	20.82
342.128	69.97
342.34	8.53
342.552	96.6
342.764	51.54
342.977	16.73
343.189	63.83
343.401	59.73
343.613	16.73
343.826	24.92
344.038	22.87
344.25	69.97
344.462	49.49
344.674	41.3
344.886	74.07
345.099	67.92
345.311	31.06
345.523	4.44
345.735	47.44
345.947	47.44
346.159	43.35
346.371	41.3
346.583	16.73
346.795	92.5
347.007	65.88
347.219	49.49
347.431	43.35
347.643	76.12
347.855	37.2
348.067	51.54
348.279	110.93
348.491	41.3
348.703	4.44
348.915	67.92
349.127	78.16
349.339	22.87
349.551	41.3
349.763	49.49
349.975	10.58
350.187	92.5
350.399	67.92
350.61	0.34
350.822	45.4
351.034	22.87
351.246	-40.62
351.458	51.54
351.669	-26.28
351.881	18.77
352.093	94.55
352.305	162.13
352.517	78.16
352.728	133.46
352.94	110.93
353.152	35.16
353.363	16.73
353.575	-24.23
353.787	43.35
353.999	100.69
354.21	82.26
354.422	39.25
354.633	67.92
354.845	67.92
355.057	112.98
355.268	65.88
355.48	84.31
355.692	55.64
355.903	117.08
356.115	39.25
356.326	63.83
356.538	39.25
356.749	59.73
356.961	35.16
357.172	4.44
357.384	26.96
357.595	84.31
357.807	31.06
358.018	74.07
358.23	53.59
358.441	49.49
358.653	104.79
358.864	55.64
359.075	57.68
359.287	65.88
359.498	90.45
359.709	65.88
359.921	-20.14
360.132	-24.23
360.344	65.88
360.555	16.73
360.766	57.68
360.977	0.34
361.189	41.3
361.4	110.93
361.611	98.64
361.823	112.98
362.034	31.06
362.245	10.58
362.456	69.97
362.667	6.49
362.879	20.82
363.09	35.16
363.301	59.73
363.512	63.83
363.723	55.64
363.935	49.49
364.146	102.74
364.357	-7.85
364.568	59.73
364.779	-3.75
364.99	82.26
365.201	-3.75
365.412	-26.28
365.623	72.02
365.834	39.25
366.045	49.49
366.256	63.83
366.467	137.56
366.678	37.2
366.889	-3.75
367.1	31.06
367.311	45.4
367.522	88.4
367.733	37.2
367.944	12.63
368.155	16.73
368.366	80.21
368.577	65.88
368.788	115.03
368.999	14.68
369.209	57.68
369.42	100.69
369.631	129.36
369.842	63.83
370.053	43.35
370.264	67.92
370.474	-3.75
370.685	76.12
370.896	49.49
371.107	53.59
371.317	18.77
371.528	65.88
371.739	63.83
371.95	-38.57
372.16	86.36
372.371	20.82
372.582	59.73
372.792	86.36
373.003	67.92
373.214	80.21
373.424	131.41
373.635	90.45
373.846	100.69
374.056	78.16
374.267	59.73
374.477	26.96
374.688	29.01
374.898	-11.95
375.109	33.11
375.319	92.5
375.53	108.88
375.74	117.08
375.951	39.25
376.161	92.5
376.372	65.88
376.582	59.73
376.793	78.16
377.003	-59.05
377.214	67.92
377.424	-65.19
377.635	98.64
377.845	18.77
378.055	43.35
378.266	104.79
378.476	63.83
378.686	-13.99
378.897	88.4
379.107	41.3
379.317	90.45
379.528	-7.85
379.738	88.4
379.948	78.16
380.158	92.5
380.369	164.18
380.579	90.45
380.789	12.63
380.999	106.84
381.21	61.78
381.42	61.78
381.63	14.68
381.84	72.02
382.05	147.8
382.261	102.74
382.471	80.21
382.681	37.2
382.891	72.02
383.101	45.4
383.311	33.11
383.521	31.06
383.731	43.35
383.941	135.51
384.151	26.96
384.361	6.49
384.571	72.02
384.781	76.12
384.991	104.79
385.201	215.38
385.411	0.34
385.621	37.2
385.831	125.27
386.041	82.26
386.251	43.35
386.461	86.36
386.671	106.84
386.881	76.12
387.091	119.12
387.301	24.92
387.511	88.4
387.72	-5.8
387.93	72.02
388.14	92.5
388.35	69.97
388.56	72.02
388.769	35.16
388.979	33.11
389.189	-7.85
389.399	31.06
389.609	92.5
389.818	110.93
390.028	41.3
390.238	98.64
390.447	47.44
390.657	182.61
390.867	104.79
391.076	20.82
391.286	98.64
391.496	80.21
391.705	20.82
391.915	141.65
392.125	43.35
392.334	39.25
392.544	96.6
392.753	67.92
392.963	86.36
393.172	106.84
393.382	61.78
393.591	139.6
393.801	98.64
394.01	78.16
394.22	170.32
394.429	2.39
394.639	94.55
394.848	82.26
395.058	123.22
395.267	61.78
395.477	100.69
395.686	115.03
395.895	92.5
396.105	123.22
396.314	53.59
396.524	72.02
396.733	74.07
396.942	115.03
397.152	84.31
397.361	117.08
397.57	135.51
397.78	69.97
397.989	72.02
398.198	102.74
398.407	63.83
398.617	35.16
398.826	86.36
399.035	203.09
399.244	131.41
399.453	106.84
399.663	123.22
399.872	80.21
400.081	49.49
400.29	174.42
400.499	117.08
400.708	145.75
400.917	160.08
401.127	92.5
401.336	133.46
401.545	131.41
401.754	96.6
401.963	174.42
402.172	98.64
402.381	215.38
402.59	112.98
402.799	100.69
403.008	164.18
403.217	164.18
403.426	20.82
403.635	69.97
403.844	80.21
404.053	196.95
404.262	108.88
404.471	209.23
404.68	147.8
404.888	178.51
405.097	135.51
405.306	139.6
405.515	151.89
405.724	164.18
405.933	155.99
406.142	186.71
406.35	215.38
406.559	168.27
406.768	256.34
406.977	242
407.185	248.15
407.394	127.32
407.603	276.82
407.812	182.61
408.02	303.44
408.229	276.82
408.438	278.87
408.646	229.71
408.855	256.34
409.064	268.63
409.272	334.16
409.481	330.06
409.69	360.78
409.898	289.1
410.107	321.87
410.315	411.98
410.524	405.84
410.733	387.41
410.941	459.09
411.15	395.6
411.358	420.17
411.567	444.75
411.775	520.53
411.984	424.27
412.192	411.98
412.401	477.52
412.609	602.44
412.818	581.96
413.026	571.72
413.234	639.31
413.443	651.6
413.651	604.49
413.86	641.36
414.068	629.07
414.276	676.17
414.485	776.52
414.693	678.22
414.901	850.25
415.11	772.43
415.318	753.99
415.526	813.38
415.734	885.06
415.943	926.02
416.151	880.97
416.359	833.86
416.567	938.31
416.776	1020.23
416.984	1098.05
417.192	1003.85
417.4	1018.18
417.608	1077.57
417.817	1118.53
418.025	1149.25
418.233	1354.05
418.441	1397.06
418.649	1366.34
418.857	1395.01
419.065	1423.68
419.273	1413.44
419.481	1507.65
419.689	1628.48
419.897	1614.14
420.105	1704.25
420.313	1790.27
420.521	1863.99
420.729	1794.36
420.937	1939.77
421.145	2025.78
421.353	2021.69
421.561	2103.61
421.769	2097.46
421.977	2302.26
422.185	2183.48
422.393	2459.95
422.601	2507.06
422.809	2570.54
423.017	2513.2
423.224	2666.8
423.432	2734.38
423.64	2840.87
423.848	3098.92
424.056	2879.79
424.263	3086.63
424.471	3236.13
424.679	3330.34
424.887	3557.66
425.094	3621.15
425.302	3545.38
425.51	3692.83
425.718	3733.79
425.925	3854.62
426.133	3965.21
426.341	4231.44
426.548	4438.29
426.756	4522.26
426.964	4444.43
427.171	4651.28
427.379	4870.41
427.586	4757.77
427.794	5077.26
428.001	5247.24
428.209	5533.95
428.417	5437.7
428.624	5894.4
428.832	5945.59
429.039	5720.32
429.247	5855.48
429.454	6379.76
429.662	6787.31
429.869	6240.5
430.076	6822.13
430.284	6582.51
430.491	6811.89
430.699	7422.18
430.906	7172.33
431.114	7334.12
431.321	7518.43
431.528	7907.55
431.736	8253.66
431.943	8556.75
432.15	8333.53
432.358	8532.18
432.565	9011.4
432.772	9011.4
432.979	9228.49
433.187	9547.97
433.394	9687.23
433.601	10180.79
433.808	10174.65
434.016	10234.04
434.223	10547.38
434.43	11215.02
434.637	11147.44
434.844	11593.89
435.052	12181.66
435.259	11776.16
435.466	12052.64
435.673	11833.5
435.88	12517.53
436.087	13488.26
436.294	13281.42
436.501	13056.14
436.708	13269.13
436.915	13834.37
437.122	14563.45
437.329	14313.59
437.537	14753.91
437.743	14901.36
437.95	14850.16
438.157	15327.34
438.364	16148.57
438.571	16150.62
438.778	16181.34
438.985	17694.79
439.192	17125.46
439.399	17471.56
439.606	17113.17
439.813	18194.5
440.02	19236.91
440.227	18794.55
440.433	18741.3
440.64	19574.83
440.847	19464.24
441.054	19716.14
441.261	21291.02
441.467	20989.97
441.674	21422.09
441.881	22173.7
442.088	22206.47
442.294	21829.64
442.501	22345.73
442.708	22806.52
442.914	23861.23
443.121	24741.85
443.328	23996.39
443.534	25585.61
443.741	25118.68
443.948	24764.38
444.154	26482.63
444.361	26200.01
444.568	26417.09
444.774	26445.76
444.981	26636.22
445.187	27549.62
445.394	28639.14
445.6	28530.59
445.807	31240.06
446.013	29304.73
446.22	30191.5
446.426	31522.68
446.633	31637.36
446.839	32745.31
447.046	31358.84
447.252	33247.07
447.459	33795.92
447.665	32964.45
447.871	34565.96
448.078	36376.36
448.284	34373.45
448.491	34920.26
448.697	36642.6
448.903	37078.82
449.11	37383.96
449.316	36581.16
449.522	37476.12
449.728	38041.36
449.935	38305.55
450.141	38539.02
450.347	39440.12
450.553	38215.44
450.76	38784.77
450.966	40048.37
451.172	39603.96
451.378	40142.58
451.584	39775.99
451.791	40607.47
451.997	40476.4
452.203	41228
452.409	40914.66
452.615	40623.85
452.821	39233.28
453.027	39268.09
453.233	41326.3
453.44	39360.25
453.646	40007.41
453.852	40062.71
454.058	40705.77
454.264	39608.06
454.47	40128.24
454.676	39401.21
454.882	40814.31
455.088	37394.2
455.294	37949.2
455.5	38215.44
455.705	38899.46
455.911	37203.74
456.117	36267.82
456.323	35893.04
456.529	34092.88
456.735	35452.73
456.941	35000.13
457.147	33912.66
457.352	33265.5
457.558	32665.44
457.764	32733.03
457.97	31807.34
458.176	31407.99
458.381	31332.22
458.587	30209.93
458.793	30025.61
458.999	28211.11
459.204	30336.9
459.41	29351.83
459.616	27684.78
459.821	27660.21
460.027	27545.52
460.233	26953.66
460.438	25372.63
460.644	25853.9
460.85	24709.08
461.055	23975.91
461.261	24127.46
461.466	22577.15
461.672	21497.87
461.878	23582.7
462.083	21848.07
462.289	21409.81
462.494	21094.42
462.7	20068.39
462.905	19699.75
463.111	20420.64
463.316	20414.49
463.522	20045.86
463.727	19984.42
463.932	19861.54
464.138	19898.41
464.343	19882.02
464.549	19427.37
464.754	19771.43
464.959	19679.27
465.165	19603.5
465.37	18786.36
465.575	18126.91
465.781	18743.35
465.986	19298.35
466.191	18602.04
466.397	17967.17
466.602	17242.19
466.807	17870.92
467.012	17760.33
467.218	18088
467.423	17401.93
467.628	17694.79
467.833	18333.76
468.038	17819.72
468.244	16971.86
468.449	17651.78
468.654	17258.57
468.859	17162.32
469.064	17027.15
469.269	16351.32
469.474	16619.61
469.679	16777.3
469.885	16574.55
470.09	16826.45
470.295	16486.49
470.5	16097.38
470.705	16289.88
470.91	15956.07
471.115	15810.66
471.32	15704.17
471.525	15874.15
471.73	15442.03
471.935	15335.53
472.139	14899.31
472.344	15179.89
472.549	14934.13
472.754	14825.59
472.959	14338.17
473.164	14141.57
473.369	13916.29
473.574	14387.32
473.778	14385.27
473.983	14170.24
474.188	14045.31
474.393	13482.12
474.598	13551.75
474.802	13443.21
475.007	13412.49
475.212	13396.1
475.417	12937.36
475.621	12908.69
475.826	12966.03
476.031	12634.26
476.235	12376.22
476.44	12740.75
476.645	12251.29
476.849	12359.83
477.054	12308.63
477.259	12204.19
477.463	11911.33
477.668	11593.89
477.872	11724.96
478.077	11481.25
478.282	11356.33
478.486	11301.03
478.691	11231.4
478.895	11208.87
479.1	10975.41
479.304	11071.66
479.509	10655.92
479.713	10997.93
479.918	10586.29
480.122	10590.39
480.326	10684.59
480.531	10752.18
480.735	10721.46
480.94	10584.24
481.144	10723.51
481.348	10262.71
481.553	10328.25
481.757	10209.47
481.961	10479.8
482.166	10580.15
482.37	10434.74
482.574	10277.05
482.778	10340.54
482.983	10320.06
483.187	10404.02
483.391	10449.08
483.595	10283.19
483.8	10156.22
484.004	10225.85
484.208	10342.58
484.412	10344.63
484.616	10512.56
484.821	10283.19
485.025	10330.3
485.229	10195.13
485.433	10137.79
485.637	10209.47
485.841	10133.69
486.045	10148.03
486.249	10324.15
486.453	10035.39
486.657	10223.8
486.861	10162.36
487.065	10131.64
487.269	10275
487.473	10006.72
487.677	10293.43
487.881	10361.02
488.085	10256.57
488.289	10223.8
488.493	10201.27
488.697	10172.6
488.901	10408.12
489.105	10158.27
489.309	10510.52
489.512	10215.61
489.716	10541.24
489.92	10270.9
490.124	10305.72
490.328	10641.59
490.531	10381.49
490.735	10455.22
490.939	10576.05
491.143	10399.93
491.346	10393.78
491.55	10623.16
491.754	10715.31
491.958	10715.31
492.161	10586.29
492.365	10535.09
492.569	10670.26
492.772	10705.07
492.976	10809.52
493.18	10782.9
493.383	11006.13
493.587	11215.02
493.79	11346.09
493.994	11124.91
494.197	11301.03
494.401	11255.98
494.605	11284.65
494.808	11458.73
495.012	11294.89
495.215	11892.9
495.419	11608.23
495.622	11765.92
495.825	12001.44
496.029	11704.48
496.232	11940
496.436	12013.73
496.639	12363.93
496.843	12138.65
497.046	12466.33
497.249	12492.95
497.453	12691.6
497.656	12894.35
497.859	12959.89
498.063	12943.5
498.266	13365.39
498.469	13308.04
498.673	13303.95
498.876	13670.53
499.079	13744.26
499.282	13609.09
499.485	14051.45
499.689	14043.26
499.892	14104.7
500.095	14071.93
500.298	14557.3
500.501	14542.97
500.705	14829.68
500.908	15335.53
501.111	15116.4
501.314	15198.32
501.517	15321.2
501.72	15614.06
501.923	15513.7
502.126	16117.86
502.329	16238.69
502.532	16119.9
502.735	16218.21
502.938	16568.41
503.141	16642.14
503.344	16877.65
503.547	17016.91
503.75	17350.73
503.953	17465.42
504.156	17604.68
504.359	17662.02
504.562	17918.02
504.765	18612.28
504.968	18341.95
505.17	18718.78
505.373	18769.97
505.576	18929.72
505.779	18958.39
505.982	19435.56
506.185	19683.37
506.387	19863.59
506.59	20037.67
506.793	20070.44
506.996	19953.7
507.198	20738.07
507.401	20566.04
507.604	20887.57
507.807	21088.28
508.009	21399.57
508.212	21395.47
508.415	21760.01
508.617	22149.12
508.82	22118.4
509.022	22042.63
509.225	22949.88
509.428	22517.76
509.63	22650.88
509.833	22925.3
510.035	23574.51
510.238	23547.89
510.44	23631.85
510.643	23992.3
510.845	24313.83
511.048	24313.83
511.25	24578.01
511.453	24737.76
511.655	25419.73
511.858	25389.01
512.06	25634.77
512.262	25630.67
512.465	25804.75
512.667	25874.38
512.87	26591.17
513.072	26306.5
513.274	27146.17
513.477	27172.79
513.679	27271.09
513.881	27391.92
514.084	27680.69
514.286	27932.59
514.488	28186.54
514.69	29013.91
514.893	28698.53
515.095	28645.28
515.297	29177.75
515.499	29616.02
515.701	29454.23
515.904	30191.5
516.106	30138.25
516.308	30531.46
516.51	30758.78
516.712	31076.22
516.914	30879.61
517.116	31872.88
517.318	31752.05
517.52	31838.06
517.722	32006
517.925	32440.17
518.127	32733.03
518.329	33253.21
518.531	33165.15
518.733	33615.7
518.935	33714
519.136	33548.12
519.338	34002.77
519.54	34195.28
519.742	34758.47
519.944	34735.94
520.146	35030.85
520.348	35589.94
520.55	36015.92
520.752	35501.88
520.954	36278.06
521.155	35858.23
521.357	36661.03
521.559	37101.34
521.761	37560.09
521.963	37060.38
522.164	37402.39
522.366	37275.42
522.568	37736.21
522.77	38315.79
522.971	38670.09
523.173	38397.71
523.375	38770.44
523.576	38926.08
523.778	38743.81
523.98	39489.27
524.181	39767.8
524.383	39307.01
524.584	40214.26
524.786	40142.58
524.988	39890.68
525.189	40505.07
525.391	40550.12
525.592	41006.82
525.794	40918.76
525.995	40941.28
526.197	41713.37
526.398	41295.58
526.6	41746.14
526.801	41826.01
527.003	42057.43
527.204	41869.01
527.406	42004.18
527.607	42022.61
527.808	42626.76
528.01	41967.32
528.211	42247.89
528.412	43292.35
528.614	42817.22
528.815	43015.88
529.016	43105.99
529.218	42731.21
529.419	43202.24
529.62	43192
529.822	43339.46
530.023	43161.28
530.224	43501.25
530.425	43454.14
530.626	43634.36
530.828	43368.13
531.029	44527.28
531.23	43763.39
531.431	43507.39
531.632	44099.25
531.833	44480.17
532.035	43691.71
532.236	44166.84
532.437	44183.22
532.638	43747
532.839	43990.71
533.04	43947.7
533.241	44043.96
533.442	44822.19
533.643	44187.32
533.844	44234.42
534.045	44533.42
534.246	43935.41
534.447	44480.17
534.648	44256.95
534.849	44406.45
535.05	44228.27
535.251	44613.29
535.451	44320.43
535.652	44545.71
535.853	44289.71
536.054	44525.23
536.255	44357.3
536.456	44068.53
536.657	44537.52
536.857	44441.26
537.058	43964.09
537.259	44412.59
537.46	44447.41
537.66	44318.39
537.861	44478.13
538.062	44562.09
538.263	44156.6
538.463	44525.23
538.664	44164.79
538.865	44576.43
539.065	44795.56
539.266	44142.26
539.466	45113
539.667	43896.5
539.868	44549.81
540.068	44291.76
540.269	44025.53
540.469	44363.44
540.67	44211.89
540.87	43978.42
541.071	44062.39
541.271	44373.68
541.472	43962.04
541.672	43781.82
541.873	44226.23
542.073	43568.83
542.274	44514.99
542.474	43851.45
542.675	44072.63
542.875	44449.46
543.075	44381.87
543.276	43638.46
543.476	44498.61
543.676	44166.84
543.877	44506.8
544.077	43957.94
544.277	43757.24
544.478	44062.39
544.678	43949.75
544.878	44162.74
545.078	43957.94
545.279	43687.61
545.479	43691.71
545.679	43703.99
545.879	44101.3
546.079	43628.22
546.28	43873.98
546.48	43777.72
546.68	43849.4
546.88	44279.47
547.08	44011.19
547.28	44064.44
547.48	43314.88
547.68	43722.43
547.88	43646.65
548.081	44107.44
548.281	43515.58
548.481	43450.05
548.681	44103.35
548.881	43669.18
549.081	43765.43
549.28	43515.58
549.48	43841.21
549.68	43482.81
549.88	44351.15
550.08	43493.05
550.28	43568.83
550.48	43302.59
550.68	43978.42
550.88	43415.23
551.08	43683.51
551.279	43648.7
551.479	43368.13
551.679	43851.45
551.879	43335.36
552.079	43511.49
552.278	43564.73
552.478	43503.29
552.678	43126.47
552.878	43374.27
553.077	43173.57
553.277	42983.11
553.477	43706.04
553.676	43181.76
553.876	43306.69
554.076	42968.77
554.275	43103.94
554.475	42530.51
554.674	43194.05
554.874	43390.66
555.074	43003.59
555.273	43081.41
555.473	42792.65
555.672	42602.19
555.872	42493.64
556.071	42806.98
556.271	43142.85
556.47	42651.34
556.67	42471.12
556.869	42528.46
557.068	42757.83
557.268	42231.5
557.467	42469.07
557.667	42397.39
557.866	42436.3
558.065	42176.21
558.265	42338
558.464	42278.61
558.663	42553.04
558.863	41998.04
559.062	42675.91
559.261	41608.92
559.461	42405.58
559.66	41494.24
559.859	41948.89
560.058	41477.85
560.258	41848.53
560.457	41369.31
560.656	41803.48
560.855	41703.13
561.054	41889.49
561.253	41406.17
561.453	41660.12
561.652	41598.68
561.851	41725.66
562.05	41823.96
562.249	40863.46
562.448	41656.03
562.647	41311.97
562.846	41465.56
563.045	40943.33
563.244	40869.61
563.443	40951.52
563.642	40679.14
563.841	40840.93
564.04	40984.29
564.239	40967.91
564.438	40664.81
564.637	40681.19
564.836	40685.29
565.035	40476.4
565.234	40068.85
565.432	40167.15
565.631	40068.85
565.83	39952.12
566.029	40193.78
566.228	39665.4
566.427	40234.74
566.625	39945.97
566.824	39542.52
567.023	40103.67
567.222	38969.09
567.42	40017.65
567.619	39890.68
567.818	39663.35
568.016	39175.94
568.215	39378.68
568.414	38825.73
568.612	39579.39
568.811	38696.71
569.01	39022.34
569.208	38657.8
569.407	39022.34
569.605	38436.62
569.804	38905.6
570.002	38377.23
570.201	38289.17
570.4	38528.78
570.598	38074.13
570.797	38139.66
570.995	38340.36
571.193	37967.63
571.392	38377.23
571.59	37689.11
571.789	37822.23
571.987	37805.84
572.186	37803.8
572.384	37840.66
572.582	37535.51
572.781	37682.97
572.979	36953.89
573.177	37416.73
573.376	37558.04
573.574	37273.37
573.772	37377.82
573.971	37152.54
574.169	36601.64
574.367	36458.28
574.565	36900.64
574.763	36601.64
574.962	36945.7
575.16	36075.31
575.358	36726.56
575.556	36085.55
575.754	36437.8
575.952	36040.5
576.151	36007.73
576.349	35673.91
576.547	36165.42
576.745	35811.12
576.943	35893.04
577.141	35845.94
577.339	35843.89
577.537	35596.09
577.735	35680.05
577.933	35233.6
578.131	35381.05
578.329	35512.12
578.527	34817.86
578.725	35297.08
578.923	35172.16
579.121	34633.54
579.319	34279.24
579.516	35030.85
579.714	34586.44
579.912	34645.83
580.11	34596.68
580.308	34477.9
580.506	34273.1
580.704	34023.25
580.901	34342.73
581.099	34154.32
581.297	33515.35
581.495	33613.65
581.692	34234.19
581.89	33593.17
582.088	34053.97
582.285	33331.03
582.483	33730.39
582.681	33636.18
582.878	33800.02
583.076	32882.53
583.274	33488.73
583.471	33058.65
583.669	33048.41
583.866	32819.04
584.064	33046.37
584.262	32653.16
584.459	32872.29
584.657	33042.27
584.854	32976.73
585.052	31977.33
585.249	32450.41
585.447	32593.76
585.644	32057.2
585.841	32253.8
586.039	32597.86
586.236	31821.68
586.434	31956.85
586.631	31764.34
586.828	31608.69
587.026	31995.76
587.223	31629.17
587.42	31629.17
587.618	31541.11
587.815	31268.73
588.012	31287.16
588.21	31037.31
588.407	31264.63
588.604	30896
588.801	30936.96
588.999	31108.99
589.196	30762.88
589.393	30840.7
589.59	30580.61
589.787	30793.6
589.984	30629.76
590.182	30171.02
590.379	30601.09
590.576	30267.27
590.773	30132.11
590.97	29949.84
591.167	30089.1
591.364	29738.9
591.561	29947.79
591.758	29497.24
591.955	29433.75
592.152	29677.46
592.349	29425.56
592.546	29679.5
592.743	29611.92
592.94	29179.8
593.137	29118.36
593.334	29269.91
593.531	28622.75
593.727	29036.44
593.924	29114.27
594.121	28645.28
594.318	28618.66
594.515	28637.09
594.712	28723.1
594.908	28133.29
595.105	28336.04
595.302	28137.38
595.499	28182.44
595.696	27987.88
595.892	27731.89
596.089	28237.73
596.286	28264.36
596.482	27594.67
596.679	27901.87
596.876	27987.88
597.072	27479.99
597.269	27459.51
597.466	27346.87
597.662	27056.06
597.859	27197.37
598.055	27133.88
598.252	27078.58
598.448	27187.13
598.645	26994.62
598.841	26789.82
599.038	26830.78
599.234	26601.41
599.431	26349.51
599.627	26558.4
599.824	26619.84
600.02	26390.47
600.217	26523.58
600.413	26597.31
600.609	26140.61
600.806	26212.29
601.002	26032.07
601.198	26025.93
601.395	25833.42
601.591	25706.45
601.787	25804.75
601.984	25685.97
602.18	25692.11
602.376	25868.23
602.572	25350.1
602.769	25257.94
602.965	24862.68
603.161	25192.4
603.357	24786.91
603.553	25139.16
603.75	25163.73
603.946	24600.54
604.142	24891.35
604.338	24512.48
604.534	24807.39
604.73	24500.19
604.926	24704.99
605.122	24428.51
605.318	24389.6
605.514	24221.67
605.71	24461.28
605.906	23977.96
606.102	24188.9
606.298	24385.51
606.494	24106.98
606.69	23877.61
606.886	23867.37
607.082	23640.04
607.278	23971.82
607.474	23654.38
607.67	24004.58
607.866	23408.62
608.062	23777.26
608.257	23603.18
608.453	23640.04
608.649	23662.57
608.845	23132.15
609.041	23164.92
609.236	23349.23
609.432	23285.75
609.628	23076.85
609.824	23267.31
610.019	22896.63
610.215	23064.57
610.411	23230.45
610.606	22491.13
610.802	22716.41
610.998	23052.28
611.193	22786.04
611.389	22650.88
611.584	22435.84
611.78	22419.46
611.976	22972.41
612.171	22482.94
612.367	22370.3
612.562	22222.85
612.758	22085.64
612.953	22374.4
613.149	22538.24
613.344	22036.49
613.539	22493.18
613.735	22259.71
613.93	22366.21
614.126	22024.2
614.321	22435.84
614.517	22114.31
614.712	22048.77
614.907	21891.08
615.103	22142.98
615.298	22112.26
615.493	21977.09
615.688	21899.27
615.884	21950.47
616.079	21733.39
616.274	22124.55
616.47	21624.84
616.665	21424.14
616.86	21585.93
617.055	21590.03
617.25	21418
617.445	21649.42
617.641	21248.02
617.836	21608.46
618.031	21078.04
618.226	21551.12
618.421	20936.73
618.616	21162
618.811	20713.5
619.006	21174.29
619.201	20449.31
619.396	20949.01
619.591	20676.63
619.786	20762.65
619.981	20355.1
620.176	20568.09
620.371	20070.44
620.566	20314.14
620.761	20357.15
620.956	20428.83
621.151	19656.75
621.346	19963.94
621.541	19673.13
621.735	19951.65
621.93	19427.37
622.125	19687.46
622.32	19355.69
622.515	19294.25
622.709	19273.78
622.904	19183.66
623.099	18821.17
623.294	19413.04
623.488	18874.42
623.683	19077.17
623.878	18778.17
624.072	19050.55
624.267	18636.86
624.462	18516.03
624.656	18446.4
624.851	18331.71
625.046	18147.39
625.24	18149.44
625.435	18026.56
625.629	17852.48
625.824	17619.02
626.018	17952.84
626.213	17709.13
626.407	17576.01
626.602	17195.09
626.796	17346.64
626.991	17174.61
627.185	17242.19
627.38	17027.15
627.574	16932.95
627.768	17014.87
627.963	16810.07
628.157	16674.9
628.352	16685.14
628.546	16349.28
628.74	16609.37
628.935	16377.95
629.129	16328.8
629.323	16054.37
629.517	16171.1
629.712	15880.29
629.906	16027.74
630.1	15603.82
630.294	15876.2
630.489	15620.2
630.683	15859.81
630.877	15374.44
631.071	15429.74
631.265	15517.8
631.459	15493.22
631.653	14938.23
631.848	14995.57
632.042	15130.73
632.236	15079.54
632.43	15042.67
632.624	14844.02
632.818	14585.97
633.012	14651.51
633.206	14497.91
633.4	14618.74
633.594	14420.09
633.788	14463.1
633.982	14248.06
634.176	14190.72
634.369	14149.76
634.563	14162.05
634.757	14071.93
634.951	14055.55
635.145	13953.15
635.339	13852.8
635.533	13760.64
635.726	13648.01
635.92	13877.38
636.114	13541.51
636.308	13418.63
636.501	13473.93
636.695	13750.4
636.889	13111.44
637.083	13056.14
637.276	13060.24
637.47	13203.6
637.664	13097.1
637.857	13140.11
638.051	12957.84
638.244	12972.18
638.438	12873.87
638.632	12865.68
638.825	12662.93
639.019	12550.29
639.212	12636.31
639.406	12515.48
639.599	12355.74
639.793	12464.28
639.986	12026.01
640.18	12337.31
640.373	11956.38
640.567	12015.77
640.76	11987.1
640.954	11813.03
641.147	11905.18
641.34	11641
641.534	11806.88
641.727	11421.86
641.92	11739.3
642.114	11661.48
642.307	11571.36
642.5	11548.84
642.694	11454.63
642.887	11333.8
643.08	11387.05
643.273	11149.48
643.467	11110.57
643.66	10950.83
643.853	11008.17
644.046	10959.02
644.239	10993.84
644.432	10868.91
644.626	10623.16
644.819	10737.84
645.012	10793.14
645.205	10809.52
645.398	10576.05
645.591	10291.38
645.784	10823.86
645.977	10094.78
646.17	10389.69
646.363	10250.42
646.556	10295.48
646.749	10078.4
646.942	10287.29
647.135	10180.79
647.328	10043.58
647.521	10037.44
647.714	9799.87
647.907	9720
648.099	9779.39
648.292	9846.98
648.485	9871.55
648.678	9484.48
648.871	9529.54
649.064	9652.42
649.256	9832.64
649.449	9468.1
649.642	9550.02
649.835	9251.02
650.027	9244.87
650.22	9253.06
650.413	9474.24
650.605	9148.62
650.798	9216.2
650.991	9093.32
651.183	9158.86
651.376	9064.65
651.568	9003.21
651.761	8947.92
651.954	8880.33
652.146	8915.15
652.339	8812.75
652.531	8790.22
652.724	8796.37
652.916	8513.75
653.109	8669.39
653.301	8573.14
653.494	8503.51
653.686	8270.04
653.879	8630.48
654.071	8427.73
654.263	8452.31
654.456	8304.85
654.648	8429.78
654.84	8274.14
655.033	8134.87
655.225	8204.5
655.417	8126.68
655.61	8347.86
655.802	8042.71
655.994	8024.28
656.186	8024.28
656.379	7782.62
656.571	7854.3
656.763	7852.25
656.955	7782.62
657.148	7819.49
657.34	7780.57
657.532	7696.61
657.724	7614.69
657.916	7706.85
658.108	7778.53
658.3	7448.8
658.492	7508.19
658.684	7264.49
658.876	7327.97
659.068	7375.08
659.26	7424.23
659.452	7358.69
659.644	7196.9
659.836	7233.77
660.028	7338.21
660.22	7172.33
660.412	7170.28
660.604	7031.02
660.796	6942.96
660.988	7033.07
661.18	7063.79
661.372	6807.79
661.563	6875.37
661.755	6707.44
661.947	6824.17
662.139	6627.57
662.331	6717.68
662.522	6666.48
662.714	6709.49
662.906	6686.96
663.097	6643.95
663.289	6701.3
663.481	6490.35
663.673	6514.93
663.864	6334.71
664.056	6484.21
664.247	6461.68
664.439	6203.64
664.631	6267.13
664.822	6385.91
665.014	6416.63
665.205	6299.89
665.397	6373.62
665.588	6252.79
665.78	6291.7
665.971	6086.9
666.163	6140.15
666.354	6119.67
666.546	5935.35
666.737	6121.72
666.929	5945.59
667.12	5878.01
667.311	5884.16
667.503	5718.27
667.694	5804.28
667.885	5669.12
668.077	5802.24
668.268	5835
668.459	5792
668.651	5830.91
668.842	5464.32
669.033	5540.1
669.224	5630.21
669.416	5576.96
669.607	5599.49
669.798	5427.46
669.989	5712.13
670.18	5546.24
670.371	5456.13
670.563	5482.75
670.754	5404.93
670.945	5454.08
671.136	5335.3
671.327	5456.13
671.518	5394.69
671.709	5542.14
671.9	5331.2
672.091	5298.44
672.282	5263.62
672.473	5185.8
672.664	5144.84
672.855	5288.2
673.046	5095.69
673.237	5042.44
673.428	5083.4
673.619	5173.51
673.809	5093.64
674	5085.45
674.191	4897.03
674.382	5122.31
674.573	5050.63
674.764	5077.26
674.954	4950.28
675.145	4952.33
675.336	4919.56
675.527	4886.79
675.717	4966.67
675.908	4884.75
676.099	4845.84
676.289	4962.57
676.48	4917.51
676.671	4759.82
676.861	4823.31
677.052	4671.76
677.243	4700.43
677.433	4630.8
677.624	4737.29
677.814	4845.84
678.005	4874.51
678.195	4647.18
678.386	4718.86
678.576	4661.52
678.767	4634.89
678.957	4612.37
679.148	4403.47
679.338	4528.4
679.529	4718.86
679.719	4557.07
679.909	4696.33
680.1	4487.44
680.29	4530.45
680.481	4573.46
680.671	4522.26
680.861	4389.14
681.052	4436.24
681.242	4348.18
681.432	4368.66
681.622	4149.53
681.813	4466.96
682.003	4462.87
682.193	4315.41
682.383	4350.23
682.573	4329.75
682.764	4268.31
682.954	4237.59
683.144	4159.77
683.334	4415.76
683.524	4243.73
683.714	4335.89
683.904	4389.14
684.094	4213.01
684.284	4317.46
684.474	4362.51
684.664	4294.93
684.854	4190.49
685.044	4309.27
685.234	4253.97
685.424	4210.97
685.614	4088.09
685.804	4225.3
685.994	4198.68
686.184	4129.05
686.374	4049.18
686.564	3905.82
686.753	4069.66
686.943	3995.93
687.133	3928.35
687.323	3901.72
687.513	4045.08
687.702	4032.79
687.892	3799.32
688.082	4061.46
688.272	3940.63
688.461	3787.04
688.651	3885.34
688.841	3866.91
689.03	3805.47
689.22	3817.76
689.41	3838.23
689.599	3762.46
689.789	3893.53
689.979	3807.52
690.168	3854.62
690.358	3733.79
690.547	3633.44
690.737	3813.66
690.926	3729.69
691.116	3580.19
691.305	3651.87
691.495	3506.46
691.684	3465.5
691.874	3623.2
692.063	3490.08
692.252	3615.01
692.442	3576.09
692.631	3531.04
692.82	3528.99
693.01	3424.55
693.199	3393.83
693.388	3395.87
693.578	3475.74
693.767	3465.5
693.956	3373.35
694.146	3348.77
694.335	3275.04
694.524	3305.76
694.713	3273
694.902	3238.18
695.092	3303.71
695.281	3285.28
695.47	3463.46
695.659	3303.71
695.848	3180.84
696.037	3176.74
696.226	3168.55
696.415	3281.19
696.604	3162.41
696.793	3084.58
696.982	3232.04
697.171	3084.58
697.36	3184.93
697.549	3209.51
697.738	3113.25
697.927	3098.92
698.116	3154.21
698.305	3197.22
698.494	3086.63
698.683	2996.52
698.872	3060.01
699.061	3010.86
699.25	3115.3
699.438	3090.73
699.627	3094.82
699.816	3027.24
700.005	2851.11
700.193	2992.42
700.382	3049.77
700.571	3002.66
700.76	2928.94
700.948	3017
701.137	2941.22
701.326	2973.99
701.514	3008.81
701.703	2980.14
701.892	2933.03
702.08	2867.5
702.269	2935.08
702.457	2918.7
702.646	2840.87
702.834	2828.59
703.023	2945.32
703.212	2879.79
703.4	2951.46
703.589	2994.47
703.777	2849.07
703.965	2939.18
704.154	2949.42
704.342	2836.78
704.531	2902.31
704.719	2820.39
704.907	2906.41
705.096	2722.09
705.284	2949.42
705.472	2779.43
705.661	2916.65
705.849	2865.45
706.037	2910.5
706.226	2820.39
706.414	2906.41
706.602	2730.28
706.79	2908.46
706.979	2777.39
707.167	2765.1
707.355	2754.86
707.543	2697.52
707.731	2797.87
707.919	2832.68
708.107	2795.82
708.296	2763.05
708.484	2726.19
708.672	2724.14
708.86	2824.49
709.048	2814.25
709.236	2808.11
709.424	2801.96
709.612	2707.76
709.8	2763.05
709.988	2783.53
710.176	2779.43
710.364	2734.38
710.551	2767.15
710.739	2771.24
710.927	2724.14
711.115	2752.81
711.303	2836.78
711.491	2773.29
711.679	2687.28
711.866	2824.49
712.054	2783.53
712.242	2662.7
712.43	2777.39
712.617	2638.13
712.805	2709.8
712.993	2613.55
713.181	2593.07
713.368	2670.89
713.556	2724.14
713.744	2609.45
713.931	2730.28
714.119	2773.29
714.306	2754.86
714.494	2658.6
714.682	2722.09
714.869	2668.84
715.057	2726.19
715.244	2582.83
715.432	2650.41
715.619	2642.22
715.807	2568.49
715.994	2691.37
716.182	2640.17
716.369	2584.88
716.556	2703.66
716.744	2650.41
716.931	2576.69
717.119	2695.47
717.306	2627.89
717.493	2681.13
717.681	2623.79
717.868	2658.6
718.055	2742.57
718.242	2693.42
718.43	2687.28
718.617	2672.94
718.804	2668.84
718.991	2670.89
719.179	2658.6
719.366	2695.47
719.553	2601.26
719.74	2711.85
719.927	2631.98
720.114	2646.32
720.301	2715.95
720.488	2697.52
720.676	2810.15
720.863	2685.23
721.05	2713.9
721.237	2613.55
721.424	2615.6
721.611	2662.7
721.798	2638.13
721.985	2582.83
722.172	2713.9
722.358	2652.46
722.545	2595.12
722.732	2720.04
722.919	2621.74
723.106	2720.04
723.293	2588.97
723.48	2730.28
723.667	2726.19
723.853	2535.73
724.04	2674.99
724.227	2730.28
724.414	2613.55
724.6	2545.97
724.787	2625.84
724.974	2758.96
725.161	2656.56
725.347	2558.25
725.534	2617.65
725.72	2601.26
725.907	2650.41
726.094	2595.12
726.28	2658.6
726.467	2599.21
726.653	2595.12
726.84	2627.89
727.027	2681.13
727.213	2496.82
727.4	2609.45
727.586	2687.28
727.773	2623.79
727.959	2771.24
728.145	2644.27
728.332	2679.08
728.518	2709.8
728.705	2631.98
728.891	2548.01
729.077	2787.63
729.264	2636.08
729.45	2642.22
729.636	2769.2
729.823	2713.9
730.009	2701.61
730.195	2560.3
730.382	2779.43
730.568	2670.89
730.754	2677.04
730.94	2599.21
731.126	2779.43
731.313	2756.91
731.499	2607.41
731.685	2648.36
731.871	2584.88
732.057	2677.04
732.243	2746.67
732.429	2695.47
732.615	2697.52
732.801	2738.48
732.987	2689.32
733.173	2748.72
733.359	2668.84
733.545	2582.83
733.731	2763.05
733.917	2689.32
734.103	2607.41
734.289	2572.59
734.475	2695.47
734.661	2769.2
734.847	2666.8
735.033	2752.81
735.219	2713.9
735.404	2599.21
735.59	2736.43
735.776	2773.29
735.962	2668.84
736.148	2728.24
736.333	2765.1
736.519	2586.93
736.705	2703.66
736.89	2674.99
737.076	2779.43
737.262	2687.28
737.447	2713.9
737.633	2574.64
737.819	2646.32
738.004	2683.18
738.19	2781.48
738.375	2701.61
738.561	2718
738.747	2662.7
738.932	2588.97
739.118	2603.31
739.303	2564.4
739.489	2695.47
739.674	2562.35
739.859	2529.58
740.045	2572.59
740.23	2631.98
740.416	2568.49
740.601	2724.14
740.786	2541.87
740.972	2685.23
741.157	2562.35
741.342	2453.81
741.528	2666.8
741.713	2554.16
741.898	2517.29
742.084	2367.79
742.269	2519.34
742.454	2619.69
742.639	2509.1
742.824	2421.04
743.01	2500.91
743.195	2459.95
743.38	2492.72
743.565	2529.58
743.75	2414.9
743.935	2537.77
744.12	2492.72
744.305	2414.9
744.49	2545.97
744.675	2500.91
744.86	2472.24
745.045	2515.25
745.23	2443.57
745.415	2480.43
745.6	2371.89
745.785	2472.24
745.97	2414.9
746.155	2351.41
746.34	2330.93
746.525	2406.7
746.71	2279.73
746.895	2308.4
747.079	2277.68
747.264	2220.34
747.449	2371.89
747.634	2173.24
747.819	2285.87
748.003	2322.74
748.188	2251.06
748.373	2173.24
748.557	2124.08
748.742	2257.2
748.927	2191.67
749.111	2097.46
749.296	2238.77
749.481	2064.69
749.665	2107.7
749.85	2242.87
750.034	2062.65
750.219	2122.04
750.404	2064.69
750.588	2036.02
750.773	2072.89
750.957	1995.06
751.141	1947.96
751.326	2060.6
751.51	1982.78
751.695	1952.06
751.879	2113.85
752.064	2029.88
752.248	2021.69
752.432	2048.31
752.617	1917.24
752.801	1898.81
752.985	1857.85
753.17	1892.66
753.354	1909.05
753.538	1816.89
753.722	1857.85
753.907	1831.23
754.091	1769.79
754.275	1767.74
754.459	1730.87
754.643	1777.98
754.828	1857.85
755.012	1765.69
755.196	1765.69
755.38	1661.24
755.564	1757.5
755.748	1726.78
755.932	1632.57
756.116	1614.14
756.3	1589.57
756.484	1608
756.668	1558.85
756.852	1595.71
757.036	1663.29
757.22	1741.11
757.404	1677.63
757.588	1587.52
757.772	1458.5
757.956	1485.12
758.14	1513.79
758.323	1532.22
758.507	1493.31
758.691	1440.06
758.875	1499.45
759.059	1534.27
759.242	1491.26
759.426	1558.85
759.61	1399.1
759.794	1483.07
759.977	1438.02
760.161	1519.93
760.345	1534.27
760.528	1468.73
760.712	1452.35
760.895	1454.4
761.079	1470.78
761.263	1388.86
761.446	1302.85
761.63	1573.18
761.813	1429.82
761.997	1397.06
762.18	1270.08
762.364	1464.64
762.547	1227.07
762.731	1403.2
762.914	1294.66
763.098	1347.9
763.281	1257.79
763.464	1368.38
763.648	1401.15
763.831	1220.93
764.015	1321.28
764.198	1341.76
764.381	1286.47
764.564	1300.8
764.748	1345.86
764.931	1335.62
765.114	1335.62
765.297	1323.33
765.481	1227.07
765.664	1278.27
765.847	1265.99
766.03	1212.74
766.213	1108.29
766.397	1251.65
766.58	1325.38
766.763	1196.36
766.946	1173.83
767.129	1239.36
767.312	1208.64
767.495	1247.55
767.678	1225.03
767.861	1184.07
768.044	1208.64
768.227	1089.86
768.41	1190.21
768.593	1233.22
768.776	1171.78
768.959	1171.78
769.142	1196.36
769.324	1120.58
769.507	1100.1
769.69	1106.24
769.873	1091.91
770.056	1106.24
770.239	1108.29
770.421	1065.29
770.604	1098.05
770.787	1124.68
770.97	1124.68
771.152	1071.43
771.335	973.13
771.518	1057.09
771.7	1108.29
771.883	1089.86
772.066	1016.13
772.248	1003.85
772.431	1071.43
772.613	1130.82
772.796	1003.85
772.978	964.93
773.161	966.98
773.343	936.26
773.526	907.59
773.708	932.17
773.891	880.97
774.073	981.32
774.256	964.93
774.438	969.03
774.621	895.3
774.803	983.37
774.985	932.17
775.168	923.98
775.35	934.22
775.532	950.6
775.715	909.64
775.897	962.89
776.079	792.91
776.261	895.3
776.444	885.06
776.626	817.48
776.808	917.83
776.99	811.34
777.173	876.87
777.355	926.02
777.537	784.71
777.719	874.82
777.901	792.91
778.083	848.2
778.265	772.43
778.447	758.09
778.629	727.37
778.811	815.43
778.993	772.43
779.175	870.73
779.357	723.27
779.539	811.34
779.721	772.43
779.903	674.12
780.085	682.31
780.267	745.8
780.449	735.56
780.631	737.61
780.812	782.67
780.994	731.47
781.176	735.56
781.358	676.17
781.54	700.75
781.721	741.71
781.903	678.22
782.085	661.84
782.267	747.85
782.448	639.31
782.63	645.45
782.812	604.49
782.993	674.12
783.175	661.84
783.357	647.5
783.538	735.56
783.72	604.49
783.901	620.88
784.083	637.26
784.264	586.06
784.446	608.59
784.627	612.68
784.809	584.01
784.99	667.98
785.172	545.1
785.353	534.86
785.535	577.87
785.716	516.43
785.897	536.91
786.079	504.14
786.26	612.68
786.441	584.01
786.623	498
786.804	616.78
786.985	508.24
787.167	518.48
787.348	461.13
787.529	584.01
787.71	514.38
787.891	512.33
788.073	463.18
788.254	407.89
788.435	538.96
788.616	498
788.797	543.05
788.978	477.52
789.159	422.22
789.34	446.8
789.522	395.6
789.703	426.32
789.884	495.95
790.065	409.94
790.246	543.05
790.427	459.09
790.607	461.13
790.788	506.19
790.969	416.08
791.15	450.89
791.331	428.37
791.512	391.5
791.693	461.13
791.874	454.99
792.054	508.24
792.235	481.61
792.416	391.5
792.597	416.08
792.778	420.17
792.958	383.31
793.139	436.56
793.32	381.26
793.5	485.71
793.681	403.79
793.862	387.41
794.042	430.41
794.223	381.26
794.404	397.65
794.584	430.41
794.765	424.27
794.945	395.6
795.126	352.59
795.306	366.93
795.487	336.21
795.667	344.4
795.848	397.65
796.028	340.3
796.209	381.26
796.389	360.78
796.57	325.97
796.75	317.78
796.93	330.06
797.111	393.55
797.291	348.5
797.471	391.5
797.652	381.26
797.832	358.74
798.012	321.87
798.192	395.6
798.373	289.1
798.553	346.45
798.733	358.74
798.913	291.15
799.093	282.96
799.274	336.21
799.454	330.06
799.634	272.72
799.814	354.64
799.994	301.39
800.174	270.67
800.354	325.97
800.534	282.96
800.714	377.17
800.894	260.43
801.074	248.15
801.254	287.06
801.434	313.68
801.614	299.34
801.794	239.95
801.974	602.44
802.154	317.78
802.334	356.69
802.514	268.63
802.693	274.77
802.873	301.39
803.053	342.35
803.233	285.01
803.413	287.06
803.592	280.91
803.772	248.15
803.952	198.99
804.131	301.39
804.311	354.64
804.491	205.14
804.67	276.82
804.85	246.1
805.03	207.19
805.209	270.67
805.389	250.19
805.568	258.39
805.748	282.96
805.928	287.06
806.107	330.06
806.287	260.43
806.466	311.63
806.646	309.58
806.825	276.82
807.004	264.53
807.184	166.23
807.363	244.05
807.543	313.68
807.722	209.23
807.901	225.62
808.081	252.24
808.26	143.7
808.439	254.29
808.619	168.27
808.798	215.38
808.977	194.9
809.156	211.28
809.336	256.34
809.515	227.67
809.694	309.58
809.873	225.62
810.052	287.06
810.231	297.3
810.411	201.04
810.59	309.58
810.769	211.28
810.948	194.9
811.127	108.88
811.306	221.52
811.485	168.27
811.664	213.33
811.843	172.37
812.022	217.43
812.201	168.27
812.38	160.08
812.559	248.15
812.737	131.41
812.916	192.85
813.095	166.23
813.274	184.66
813.453	160.08
813.632	184.66
813.811	170.32
813.989	186.71
814.168	182.61
814.347	190.8
814.526	117.08
814.704	254.29
814.883	186.71
815.062	192.85
815.24	110.93
815.419	184.66
815.598	149.84
815.776	184.66
815.955	207.19
816.133	123.22
816.312	174.42
816.49	162.13
816.669	121.17
816.847	194.9
817.026	147.8
817.204	155.99
817.383	143.7
817.561	158.03
817.74	158.03
817.918	178.51
818.097	160.08
818.275	145.75
818.453	141.65
818.632	147.8
818.81	123.22
818.988	145.75
819.167	102.74
819.345	158.03
819.523	145.75
819.701	174.42
819.879	133.46
820.058	110.93
820.236	72.02
820.414	190.8
820.592	168.27
820.77	182.61
820.948	180.56
821.127	170.32
821.305	137.56
821.483	174.42
821.661	174.42
821.839	155.99
822.017	153.94
822.195	135.51
822.373	141.65
822.551	131.41
822.729	139.6
822.907	190.8
823.085	55.64
823.262	121.17
823.44	192.85
823.618	90.45
823.796	135.51
823.974	172.37
824.152	155.99
824.329	147.8
824.507	86.36
824.685	153.94
824.863	227.67
825.04	160.08
825.218	223.57
825.396	72.02
825.574	115.03
825.751	131.41
825.929	135.51
826.107	184.66
826.284	141.65
826.462	108.88
826.639	184.66
826.817	186.71
826.994	170.32
827.172	16.73
827.349	178.51
827.527	80.21
827.704	43.35
827.882	90.45
828.059	127.32
828.237	94.55
828.414	168.27
828.591	92.5
828.769	108.88
828.946	65.88
829.124	127.32
829.301	82.26
829.478	90.45
829.655	82.26
829.833	29.01
830.01	82.26
830.187	190.8
830.364	82.26
830.542	129.36
830.719	190.8
830.896	115.03
831.073	184.66
831.25	131.41
831.427	139.6
831.604	198.99
831.782	74.07
831.959	88.4
832.136	88.4
832.313	84.31
832.49	39.25
832.667	88.4
832.844	129.36
833.021	123.22
833.198	108.88
833.374	145.75
833.551	29.01
833.728	100.69
833.905	123.22
834.082	69.97
834.259	67.92
834.436	82.26
834.612	76.12
834.789	137.56
834.966	65.88
835.143	49.49
835.319	131.41
835.496	80.21
835.673	80.21
835.85	102.74
836.026	149.84
836.203	86.36
836.38	88.4
836.556	63.83
836.733	4.44
836.909	104.79
837.086	78.16
837.262	33.11
837.439	145.75
837.616	94.55
837.792	55.64
837.968	94.55
838.145	43.35
838.321	59.73
838.498	123.22
838.674	47.44
838.851	72.02
839.027	102.74
839.203	92.5
839.38	82.26
839.556	104.79
839.732	96.6
839.909	61.78
840.085	59.73
840.261	86.36
840.437	108.88
840.614	55.64
840.79	112.98
840.966	121.17
841.142	49.49
841.318	35.16
841.494	88.4
841.671	84.31
841.847	24.92
842.023	129.36
842.199	53.59
842.375	133.46
842.551	10.58
842.727	80.21
842.903	131.41
843.079	57.68
843.255	213.33
843.431	41.3
843.607	145.75
843.783	37.2
843.959	59.73
844.134	121.17
844.31	47.44
844.486	67.92
844.662	37.2
844.838	82.26
845.013	72.02
845.189	47.44
845.365	127.32
845.541	86.36
845.716	-5.8
845.892	100.69
846.068	31.06
846.244	82.26
846.419	55.64
846.595	166.23
846.77	51.54
846.946	106.84
847.122	43.35
847.297	67.92
847.473	129.36
847.648	16.73
847.824	0.34
847.999	-38.57
848.175	65.88
848.35	37.2
848.526	61.78
848.701	100.69
848.876	88.4
849.052	20.82
849.227	26.96
849.403	108.88
849.578	65.88
849.753	67.92
849.929	98.64
850.104	-11.95
850.279	65.88
850.454	14.68
850.63	76.12
850.805	26.96
850.98	33.11
851.155	-1.71
851.33	102.74
851.505	24.92
851.681	0.34
851.856	51.54
852.031	90.45
852.206	31.06
852.381	96.6
852.556	59.73
852.731	119.12
852.906	65.88
853.081	65.88
853.256	43.35
853.431	-32.43
853.606	51.54
853.781	-13.99
853.956	41.3
854.131	100.69
854.305	18.77
854.48	18.77
854.655	29.01
854.83	39.25
855.005	20.82
855.18	43.35
855.354	55.64
855.529	22.87
855.704	-40.62
855.879	65.88
856.053	55.64
856.228	53.59
856.403	-42.67
856.577	-20.14
856.752	-18.09
856.926	2.39
857.101	53.59
857.276	12.63
857.45	31.06
857.625	96.6
857.799	2.39
857.974	74.07
858.148	-11.95
858.323	4.44
858.497	-3.75
858.672	-28.33
858.846	49.49
859.02	0.34
859.195	-34.47
859.369	26.96
859.543	22.87
859.718	117.08
859.892	29.01
860.066	16.73
860.241	10.58
860.415	35.16
860.589	2.39
860.763	29.01
860.938	16.73
861.112	61.78
861.286	51.54
861.46	8.53
861.634	-18.09
861.808	20.82
861.982	10.58
862.157	4.44
862.331	16.73
862.505	-46.76
862.679	35.16
862.853	22.87
863.027	-22.19
863.201	88.4
863.375	-7.85
863.549	92.5
863.722	20.82
863.896	57.68
864.07	39.25
864.244	37.2
864.418	125.27
864.592	53.59
864.766	35.16
864.939	-1.71
865.113	43.35
865.287	18.77
865.461	47.44
865.634	90.45
865.808	49.49
865.982	22.87
866.156	-13.99
866.329	35.16
866.503	65.88
866.676	82.26
866.85	-7.85
867.024	16.73
867.197	35.16
867.371	98.64
867.544	-11.95
867.718	14.68
867.891	14.68
868.065	-16.04
868.238	14.68
868.412	-16.04
868.585	63.83
868.759	-30.38
868.932	65.88
869.105	39.25
869.279	16.73
869.452	35.16
869.625	78.16
869.799	2.39
869.972	-122.54
870.145	22.87
870.319	67.92
870.492	53.59
870.665	31.06
870.838	12.63
871.011	-5.8
871.185	108.88
871.358	-11.95
871.531	49.49
871.704	-9.9
871.877	45.4
872.05	-18.09
872.223	35.16
872.396	65.88
872.569	6.49
872.742	10.58
872.915	65.88
873.088	49.49
873.261	-44.71
873.434	80.21
873.607	61.78
873.78	78.16
873.953	45.4
874.126	16.73
874.299	76.12
874.471	-24.23
874.644	65.88
874.817	6.49
874.99	84.31
875.163	-18.09
875.335	26.96
875.508	2.39
875.681	57.68
875.853	29.01
876.026	14.68
876.199	51.54
876.371	-11.95
876.544	-11.95
876.717	29.01
876.889	80.21
877.062	-3.75
877.234	-24.23
877.407	-1.71
877.579	35.16
877.752	22.87
877.924	-46.76
878.097	24.92
878.269	-42.67
878.442	-52.91
878.614	90.45
878.786	43.35
878.959	59.73
879.131	43.35
879.303	12.63
879.476	2.39
879.648	59.73
879.82	96.6
879.993	80.21
880.165	0.34
880.337	18.77
880.509	39.25
880.681	31.06
880.854	26.96
881.026	35.16
881.198	119.12
881.37	0.34
881.542	26.96
881.714	-46.76
881.886	-5.8
882.058	-20.14
882.23	43.35
882.402	-22.19
882.574	98.64
882.746	18.77
882.918	2.39
883.09	57.68
883.262	67.92
883.434	-26.28
883.606	31.06
883.778	10.58
883.95	10.58
884.122	41.3
884.293	49.49
884.465	45.4
884.637	104.79
884.809	10.58
884.98	6.49
885.152	43.35
885.324	14.68
885.496	8.53
885.667	26.96
885.839	-48.81
886.011	4.44
886.182	-30.38
886.354	-3.75
886.525	2.39
886.697	98.64
886.869	55.64
887.04	-22.19
887.212	-18.09
887.383	76.12
887.555	45.4
887.726	-22.19
887.897	10.58
888.069	37.2
888.24	33.11
888.412	88.4
888.583	6.49
888.754	-7.85
888.926	-36.52
889.097	-13.99
889.268	-40.62
889.44	-7.85
889.611	-9.9
889.782	12.63
889.953	41.3
890.125	51.54
890.296	35.16
890.467	6.49
890.638	-50.86
890.809	-16.04
890.98	-36.52
891.151	-26.28
891.323	-30.38
891.494	-24.23
891.665	39.25
891.836	-18.09
892.007	-30.38
892.178	31.06
892.349	45.4
892.52	-16.04
892.691	12.63
892.862	-34.47
893.032	-67.24
893.203	18.77
893.374	43.35
893.545	29.01
893.716	76.12
893.887	26.96
894.057	-18.09
894.228	-1.71
894.399	29.01
894.57	47.44
894.74	-11.95
894.911	33.11
895.082	-34.47
895.253	-9.9
895.423	18.77
895.594	61.78
895.764	37.2
895.935	-13.99
896.106	51.54
896.276	-36.52
896.447	72.02
896.617	-85.67
896.788	8.53
896.958	-18.09
897.129	-42.67
897.299	-22.19
897.47	6.49
897.64	26.96
897.81	102.74
897.981	2.39
898.151	76.12
898.322	18.77
898.492	26.96
898.662	6.49
898.832	8.53
899.003	-11.95
899.173	86.36
899.343	-28.33
899.513	-50.86
