Data from USB4F104151__91__11-45-44-366.txt Node

Date: Fri Mar 14 11:45:44 EDT 2025
User: louis
Spectrometer: USB4F10415
Trigger mode: 4
Integration Time (sec): 2.000000E-2
Scans to average: 1
Electric dark correction enabled: true
Nonlinearity correction enabled: false
Boxcar width: 0
XAxis mode: Wavelengths
Number of Pixels in Spectrum: 3648
>>>>>Begin Spectral Data<<<<<
178.204	-64.85
178.424	-64.85
178.644	-64.85
178.864	-30.04
179.084	-68.95
179.304	-58.71
179.524	-50.52
179.744	15.02
179.964	-25.94
180.184	84.65
180.404	43.69
180.624	58.03
180.844	-40.28
181.064	-30.04
181.283	17.07
181.503	-81.24
181.723	68.27
181.943	-13.65
182.163	105.13
182.383	-64.85
182.602	15.02
182.822	-23.89
183.042	10.92
183.262	-17.75
183.482	-52.56
183.701	51.88
183.921	-7.51
184.141	-13.65
184.361	19.11
184.58	-13.65
184.8	-30.04
185.02	-23.89
185.239	12.97
185.459	33.45
185.679	-75.09
185.898	23.21
186.118	-19.8
186.338	68.27
186.557	-7.51
186.777	-42.32
186.997	-93.52
187.216	8.87
187.436	0.68
187.655	19.11
187.875	64.17
188.095	-3.41
188.314	68.27
188.534	74.41
188.753	-60.76
188.973	23.21
189.192	35.5
189.412	-60.76
189.631	-30.04
189.851	17.07
190.07	37.55
190.29	-40.28
190.509	-21.85
190.729	-3.41
190.948	-21.85
191.168	74.41
191.387	70.31
191.607	-25.94
191.826	4.78
192.045	23.21
192.265	-30.04
192.484	-13.65
192.704	58.03
192.923	-5.46
193.142	39.59
193.362	8.87
193.581	37.55
193.8	53.93
194.02	66.22
194.239	-19.8
194.458	35.5
194.678	-36.18
194.897	-17.75
195.116	33.45
195.335	35.5
195.555	-21.85
195.774	15.02
195.993	68.27
196.212	8.87
196.432	-21.85
196.651	-1.37
196.87	-19.8
197.089	111.27
197.308	21.16
197.528	33.45
197.747	-13.65
197.966	-27.99
198.185	-15.7
198.404	76.46
198.623	31.4
198.842	35.5
199.062	70.31
199.281	53.93
199.5	41.64
199.719	-17.75
199.938	15.02
200.157	82.6
200.376	27.31
200.595	12.97
200.814	33.45
201.033	21.16
201.252	2.73
201.471	72.36
201.69	-11.61
201.909	55.98
202.128	21.16
202.347	-38.23
202.566	0.68
202.785	45.74
203.004	-56.66
203.223	29.35
203.442	27.31
203.661	-44.37
203.879	6.83
204.098	45.74
204.317	-13.65
204.536	-7.51
204.755	4.78
204.974	-11.61
205.193	64.17
205.411	66.22
205.63	10.92
205.849	72.36
206.068	-73.04
206.287	27.31
206.505	47.79
206.724	-13.65
206.943	21.16
207.162	-19.8
207.381	-17.75
207.599	27.31
207.818	21.16
208.037	4.78
208.255	-54.61
208.474	-64.85
208.693	6.83
208.911	33.45
209.13	27.31
209.349	27.31
209.567	10.92
209.786	6.83
210.005	37.55
210.223	37.55
210.442	0.68
210.661	-56.66
210.879	-15.7
211.098	4.78
211.316	39.59
211.535	4.78
211.753	-46.42
211.972	2.73
212.191	31.4
212.409	-42.32
212.628	19.11
212.846	15.02
213.065	53.93
213.283	64.17
213.502	21.16
213.72	23.21
213.938	-38.23
214.157	15.02
214.375	-17.75
214.594	-11.61
214.812	-44.37
215.031	15.02
215.249	-75.09
215.467	86.7
215.686	-7.51
215.904	-23.89
216.122	70.31
216.341	41.64
216.559	64.17
216.778	15.02
216.996	41.64
217.214	55.98
217.432	51.88
217.651	-38.23
217.869	-5.46
218.087	17.07
218.306	-7.51
218.524	33.45
218.742	62.12
218.96	-13.65
219.179	17.07
219.397	55.98
219.615	4.78
219.833	45.74
220.051	-27.99
220.27	51.88
220.488	25.26
220.706	101.03
220.924	31.4
221.142	62.12
221.36	41.64
221.578	51.88
221.796	27.31
222.015	15.02
222.233	49.83
222.451	37.55
222.669	2.73
222.887	-40.28
223.105	-27.99
223.323	29.35
223.541	12.97
223.759	4.78
223.977	-17.75
224.195	109.22
224.413	70.31
224.631	45.74
224.849	29.35
225.067	-15.7
225.285	17.07
225.503	-54.61
225.721	10.92
225.939	31.4
226.157	35.5
226.375	17.07
226.592	6.83
226.81	27.31
227.028	64.17
227.246	29.35
227.464	45.74
227.682	41.64
227.9	33.45
228.117	78.51
228.335	-27.99
228.553	-68.95
228.771	-23.89
228.989	-1.37
229.206	6.83
229.424	-66.9
229.642	6.83
229.86	-30.04
230.077	15.02
230.295	29.35
230.513	0.68
230.731	-15.7
230.948	-7.51
231.166	125.61
231.384	-13.65
231.601	17.07
231.819	62.12
232.037	10.92
232.254	-7.51
232.472	12.97
232.689	29.35
232.907	47.79
233.125	39.59
233.342	8.87
233.56	-17.75
233.777	0.68
233.995	45.74
234.213	60.07
234.43	15.02
234.648	33.45
234.865	19.11
235.083	27.31
235.3	2.73
235.518	74.41
235.735	15.02
235.953	43.69
236.17	66.22
236.388	15.02
236.605	8.87
236.822	6.83
237.04	43.69
237.257	43.69
237.475	-71
237.692	33.45
237.909	49.83
238.127	15.02
238.344	64.17
238.562	-19.8
238.779	-13.65
238.996	60.07
239.214	-46.42
239.431	43.69
239.648	39.59
239.865	60.07
240.083	55.98
240.3	-11.61
240.517	2.73
240.735	6.83
240.952	2.73
241.169	31.4
241.386	-3.41
241.603	-7.51
241.821	17.07
242.038	-36.18
242.255	0.68
242.472	-11.61
242.689	35.5
242.907	58.03
243.124	0.68
243.341	-54.61
243.558	-25.94
243.775	8.87
243.992	-56.66
244.209	4.78
244.426	62.12
244.643	47.79
244.86	-36.18
245.078	78.51
245.295	72.36
245.512	49.83
245.729	-23.89
245.946	31.4
246.163	-13.65
246.38	92.84
246.597	8.87
246.814	29.35
247.031	6.83
247.248	101.03
247.464	-5.46
247.681	53.93
247.898	-3.41
248.115	33.45
248.332	45.74
248.549	17.07
248.766	123.56
248.983	19.11
249.2	-19.8
249.417	47.79
249.633	-46.42
249.85	70.31
250.067	-9.56
250.284	98.99
250.501	35.5
250.717	72.36
250.934	-56.66
251.151	2.73
251.368	37.55
251.585	76.46
251.801	-27.99
252.018	4.78
252.235	33.45
252.451	17.07
252.668	58.03
252.885	58.03
253.102	-36.18
253.318	10.92
253.535	-27.99
253.752	-36.18
253.968	-11.61
254.185	-36.18
254.401	4.78
254.618	39.59
254.835	33.45
255.051	33.45
255.268	6.83
255.484	-13.65
255.701	53.93
255.917	-3.41
256.134	6.83
256.351	37.55
256.567	-15.7
256.784	12.97
257	-50.52
257.217	43.69
257.433	12.97
257.65	10.92
257.866	43.69
258.082	-15.7
258.299	-36.18
258.515	88.75
258.732	-17.75
258.948	74.41
259.165	-11.61
259.381	45.74
259.597	66.22
259.814	41.64
260.03	-17.75
260.246	10.92
260.463	29.35
260.679	29.35
260.895	25.26
261.112	-58.71
261.328	51.88
261.544	-30.04
261.761	15.02
261.977	82.6
262.193	-58.71
262.409	123.56
262.626	-23.89
262.842	-25.94
263.058	-7.51
263.274	19.11
263.49	68.27
263.707	47.79
263.923	51.88
264.139	37.55
264.355	-40.28
264.571	-3.41
264.787	53.93
265.004	17.07
265.22	21.16
265.436	47.79
265.652	-40.28
265.868	17.07
266.084	-32.08
266.3	-11.61
266.516	-15.7
266.732	-1.37
266.948	15.02
267.164	8.87
267.38	37.55
267.596	31.4
267.812	68.27
268.028	70.31
268.244	27.31
268.46	-32.08
268.676	58.03
268.892	72.36
269.108	37.55
269.324	47.79
269.54	41.64
269.756	74.41
269.972	-27.99
270.188	-25.94
270.403	-13.65
270.619	49.83
270.835	53.93
271.051	25.26
271.267	-25.94
271.483	86.7
271.698	6.83
271.914	-25.94
272.13	64.17
272.346	27.31
272.562	-36.18
272.777	66.22
272.993	-11.61
273.209	53.93
273.425	-1.37
273.64	17.07
273.856	4.78
274.072	35.5
274.287	31.4
274.503	82.6
274.719	4.78
274.934	8.87
275.15	47.79
275.366	43.69
275.581	55.98
275.797	78.51
276.012	-9.56
276.228	-46.42
276.444	-17.75
276.659	33.45
276.875	2.73
277.09	53.93
277.306	-36.18
277.521	62.12
277.737	39.59
277.952	6.83
278.168	21.16
278.383	-11.61
278.599	-21.85
278.814	23.21
279.03	-36.18
279.245	19.11
279.461	25.26
279.676	17.07
279.892	72.36
280.107	55.98
280.322	25.26
280.538	49.83
280.753	60.07
280.969	-3.41
281.184	78.51
281.399	-11.61
281.615	53.93
281.83	-13.65
282.045	2.73
282.26	10.92
282.476	-5.46
282.691	-17.75
282.906	53.93
283.122	-13.65
283.337	51.88
283.552	-3.41
283.767	-23.89
283.983	12.97
284.198	-5.46
284.413	60.07
284.628	-36.18
284.843	64.17
285.058	25.26
285.274	2.73
285.489	-60.76
285.704	25.26
285.919	27.31
286.134	10.92
286.349	10.92
286.564	43.69
286.779	17.07
286.995	-19.8
287.21	-62.8
287.425	12.97
287.64	74.41
287.855	12.97
288.07	10.92
288.285	2.73
288.5	23.21
288.715	53.93
288.93	-5.46
289.145	47.79
289.36	-46.42
289.575	15.02
289.79	15.02
290.004	37.55
290.219	64.17
290.434	43.69
290.649	17.07
290.864	39.59
291.079	-83.28
291.294	17.07
291.509	-40.28
291.724	10.92
291.938	-5.46
292.153	-7.51
292.368	27.31
292.583	15.02
292.798	-68.95
293.012	58.03
293.227	2.73
293.442	58.03
293.657	4.78
293.871	94.89
294.086	27.31
294.301	33.45
294.516	64.17
294.73	-60.76
294.945	-48.47
295.16	21.16
295.374	53.93
295.589	66.22
295.804	-11.61
296.018	-19.8
296.233	37.55
296.447	84.65
296.662	47.79
296.877	-19.8
297.091	-19.8
297.306	27.31
297.52	41.64
297.735	0.68
297.949	39.59
298.164	74.41
298.378	8.87
298.593	-15.7
298.807	-30.04
299.022	49.83
299.236	45.74
299.451	6.83
299.665	27.31
299.88	35.5
300.094	-13.65
300.309	-1.37
300.523	51.88
300.737	8.87
300.952	-15.7
301.166	37.55
301.381	74.41
301.595	-27.99
301.809	39.59
302.024	23.21
302.238	12.97
302.452	33.45
302.667	8.87
302.881	45.74
303.095	78.51
303.309	-7.51
303.524	-25.94
303.738	-52.56
303.952	-15.7
304.166	86.7
304.381	29.35
304.595	94.89
304.809	31.4
305.023	-13.65
305.237	0.68
305.452	8.87
305.666	-40.28
305.88	-89.43
306.094	49.83
306.308	53.93
306.522	-21.85
306.736	31.4
306.95	25.26
307.164	-44.37
307.379	-44.37
307.593	51.88
307.807	45.74
308.021	60.07
308.235	0.68
308.449	-11.61
308.663	19.11
308.877	33.45
309.091	-15.7
309.305	2.73
309.519	8.87
309.733	35.5
309.947	23.21
310.161	47.79
310.374	51.88
310.588	33.45
310.802	62.12
311.016	4.78
311.23	10.92
311.444	74.41
311.658	-34.13
311.872	53.93
312.085	15.02
312.299	6.83
312.513	-5.46
312.727	35.5
312.941	-52.56
313.154	17.07
313.368	60.07
313.582	37.55
313.796	76.46
314.009	-23.89
314.223	-23.89
314.437	76.46
314.651	58.03
314.864	-21.85
315.078	-25.94
315.292	45.74
315.505	19.11
315.719	27.31
315.933	-30.04
316.146	6.83
316.36	-7.51
316.573	10.92
316.787	17.07
317.001	-38.23
317.214	0.68
317.428	8.87
317.641	-11.61
317.855	37.55
318.068	-5.46
318.282	-42.32
318.495	-7.51
318.709	8.87
318.922	2.73
319.136	-9.56
319.349	21.16
319.563	35.5
319.776	-32.08
319.99	-32.08
320.203	29.35
320.417	39.59
320.63	-13.65
320.843	72.36
321.057	49.83
321.27	19.11
321.483	27.31
321.697	58.03
321.91	-68.95
322.124	2.73
322.337	74.41
322.55	-13.65
322.763	-7.51
322.977	15.02
323.19	19.11
323.403	17.07
323.617	-13.65
323.83	94.89
324.043	-54.61
324.256	15.02
324.469	4.78
324.683	8.87
324.896	21.16
325.109	-25.94
325.322	-30.04
325.535	66.22
325.748	17.07
325.962	-13.65
326.175	64.17
326.388	49.83
326.601	78.51
326.814	19.11
327.027	53.93
327.24	15.02
327.453	82.6
327.666	-13.65
327.879	-19.8
328.092	39.59
328.305	68.27
328.518	31.4
328.731	21.16
328.944	4.78
329.157	60.07
329.37	64.17
329.583	-1.37
329.796	158.38
330.009	-93.52
330.222	25.26
330.435	66.22
330.648	19.11
330.861	21.16
331.073	0.68
331.286	12.97
331.499	2.73
331.712	27.31
331.925	-68.95
332.138	-13.65
332.35	12.97
332.563	-11.61
332.776	6.83
332.989	0.68
333.202	-7.51
333.414	31.4
333.627	105.13
333.84	-40.28
334.053	51.88
334.265	8.87
334.478	35.5
334.691	8.87
334.903	4.78
335.116	-1.37
335.329	-15.7
335.541	66.22
335.754	76.46
335.966	-32.08
336.179	-11.61
336.392	25.26
336.604	-15.7
336.817	-19.8
337.029	47.79
337.242	6.83
337.454	-44.37
337.667	-19.8
337.88	64.17
338.092	123.56
338.305	-21.85
338.517	0.68
338.729	45.74
338.942	-11.61
339.154	53.93
339.367	-23.89
339.579	0.68
339.792	2.73
340.004	88.75
340.217	43.69
340.429	70.31
340.641	27.31
340.854	-11.61
341.066	-7.51
341.278	41.64
341.491	82.6
341.703	62.12
341.915	-19.8
342.128	15.02
342.34	41.64
342.552	39.59
342.764	-9.56
342.977	25.26
343.189	-19.8
343.401	53.93
343.613	-7.51
343.826	-21.85
344.038	12.97
344.25	29.35
344.462	8.87
344.674	2.73
344.886	-11.61
345.099	37.55
345.311	21.16
345.523	15.02
345.735	12.97
345.947	64.17
346.159	39.59
346.371	35.5
346.583	49.83
346.795	111.27
347.007	-25.94
347.219	31.4
347.431	8.87
347.643	37.55
347.855	-25.94
348.067	70.31
348.279	-68.95
348.491	17.07
348.703	12.97
348.915	68.27
349.127	-30.04
349.339	4.78
349.551	74.41
349.763	-34.13
349.975	33.45
350.187	-13.65
350.399	41.64
350.61	27.31
350.822	29.35
351.034	-7.51
351.246	6.83
351.458	6.83
351.669	45.74
351.881	-32.08
352.093	51.88
352.305	-23.89
352.517	27.31
352.728	27.31
352.94	29.35
353.152	-1.37
353.363	72.36
353.575	37.55
353.787	29.35
353.999	2.73
354.21	82.6
354.422	82.6
354.633	21.16
354.845	35.5
355.057	68.27
355.268	15.02
355.48	-9.56
355.692	27.31
355.903	25.26
356.115	119.46
356.326	-54.61
356.538	4.78
356.749	4.78
356.961	39.59
357.172	84.65
357.384	55.98
357.595	-13.65
357.807	35.5
358.018	-21.85
358.23	-27.99
358.441	39.59
358.653	10.92
358.864	0.68
359.075	8.87
359.287	47.79
359.498	21.16
359.709	19.11
359.921	-19.8
360.132	117.42
360.344	47.79
360.555	4.78
360.766	-5.46
360.977	41.64
361.189	39.59
361.4	-38.23
361.611	35.5
361.823	64.17
362.034	4.78
362.245	35.5
362.456	21.16
362.667	23.21
362.879	4.78
363.09	51.88
363.301	55.98
363.512	-48.47
363.723	-17.75
363.935	-40.28
364.146	70.31
364.357	51.88
364.568	45.74
364.779	-46.42
364.99	49.83
365.201	29.35
365.412	4.78
365.623	-11.61
365.834	37.55
366.045	51.88
366.256	6.83
366.467	8.87
366.678	12.97
366.889	-40.28
367.1	84.65
367.311	-32.08
367.522	4.78
367.733	31.4
367.944	27.31
368.155	53.93
368.366	35.5
368.577	37.55
368.788	84.65
368.999	-56.66
369.209	55.98
369.42	103.08
369.631	80.55
369.842	4.78
370.053	0.68
370.264	-38.23
370.474	-25.94
370.685	-40.28
370.896	21.16
371.107	68.27
371.317	43.69
371.528	-25.94
371.739	8.87
371.95	0.68
372.16	123.56
372.371	66.22
372.582	19.11
372.792	55.98
373.003	-13.65
373.214	43.69
373.424	62.12
373.635	45.74
373.846	96.94
374.056	-38.23
374.267	8.87
374.477	84.65
374.688	-30.04
374.898	-9.56
375.109	43.69
375.319	43.69
375.53	25.26
375.74	0.68
375.951	31.4
376.161	25.26
376.372	80.55
376.582	-5.46
376.793	37.55
377.003	51.88
377.214	-9.56
377.424	-7.51
377.635	27.31
377.845	-11.61
378.055	70.31
378.266	2.73
378.476	33.45
378.686	53.93
378.897	-1.37
379.107	2.73
379.317	0.68
379.528	19.11
379.738	35.5
379.948	0.68
380.158	49.83
380.369	41.64
380.579	72.36
380.789	60.07
380.999	33.45
381.21	39.59
381.42	70.31
381.63	31.4
381.84	-34.13
382.05	41.64
382.261	51.88
382.471	-27.99
382.681	47.79
382.891	109.22
383.101	51.88
383.311	-5.46
383.521	39.59
383.731	92.84
383.941	58.03
384.151	58.03
384.361	17.07
384.571	55.98
384.781	33.45
384.991	12.97
385.201	80.55
385.411	45.74
385.621	74.41
385.831	66.22
386.041	58.03
386.251	86.7
386.461	60.07
386.671	66.22
386.881	72.36
387.091	29.35
387.301	78.51
387.511	139.94
387.72	70.31
387.93	60.07
388.14	-81.24
388.35	-25.94
388.56	-7.51
388.769	41.64
388.979	-3.41
389.189	-3.41
389.399	15.02
389.609	78.51
389.818	68.27
390.028	47.79
390.238	84.65
390.447	-7.51
390.657	25.26
390.867	-9.56
391.076	0.68
391.286	-9.56
391.496	39.59
391.705	29.35
391.915	-11.61
392.125	39.59
392.334	41.64
392.544	-13.65
392.753	55.98
392.963	-30.04
393.172	17.07
393.382	-42.32
393.591	47.79
393.801	4.78
394.01	127.66
394.22	113.32
394.429	127.66
394.639	2.73
394.848	47.79
395.058	58.03
395.267	-11.61
395.477	47.79
395.686	158.38
395.895	84.65
396.105	76.46
396.314	103.08
396.524	43.69
396.733	92.84
396.942	6.83
397.152	55.98
397.361	41.64
397.57	62.12
397.78	55.98
397.989	43.69
398.198	53.93
398.407	64.17
398.617	94.89
398.826	70.31
399.035	-23.89
399.244	117.42
399.453	21.16
399.663	33.45
399.872	141.99
400.081	51.88
400.29	133.8
400.499	78.51
400.708	113.32
400.917	80.55
401.127	107.18
401.336	19.11
401.545	74.41
401.754	127.66
401.963	131.75
402.172	12.97
402.381	53.93
402.59	8.87
402.799	15.02
403.008	25.26
403.217	98.99
403.426	98.99
403.635	41.64
403.844	33.45
404.053	53.93
404.262	55.98
404.471	103.08
404.68	121.51
404.888	129.7
405.097	90.79
405.306	117.42
405.515	86.7
405.724	144.04
405.933	82.6
406.142	60.07
406.35	125.61
406.559	101.03
406.768	111.27
406.977	90.79
407.185	119.46
407.394	131.75
407.603	139.94
407.812	121.51
408.02	191.14
408.229	144.04
408.438	92.84
408.646	74.41
408.855	189.1
409.064	213.67
409.272	180.9
409.481	166.57
409.69	131.75
409.898	199.34
410.107	197.29
410.315	201.38
410.524	205.48
410.733	166.57
410.941	154.28
411.15	199.34
411.358	170.66
411.567	287.4
411.775	137.9
411.984	273.06
412.192	223.91
412.401	291.49
412.609	381.6
412.818	281.25
413.026	254.63
413.234	285.35
413.443	371.37
413.651	299.69
413.86	324.26
414.068	336.55
414.276	336.55
414.485	416.42
414.693	443.04
414.901	490.15
415.11	434.85
415.318	459.43
415.526	494.24
415.734	492.2
415.943	510.63
416.151	555.68
416.359	500.39
416.567	535.2
416.776	514.72
416.984	572.07
417.192	590.5
417.4	598.69
417.608	580.26
417.817	711.33
418.025	668.32
418.233	678.56
418.441	766.62
418.649	819.87
418.857	760.48
419.065	846.49
419.273	723.62
419.481	957.08
419.689	842.4
419.897	1016.48
420.105	909.98
420.313	1108.63
420.521	1073.82
420.729	1018.52
420.937	993.95
421.145	1106.59
421.353	1180.31
421.561	1270.42
421.769	1215.13
421.977	1217.18
422.185	1323.67
422.393	1411.73
422.601	1319.57
422.809	1405.59
423.017	1487.51
423.224	1471.12
423.432	1528.47
423.64	1581.71
423.848	1745.55
424.056	1626.77
424.263	1843.85
424.471	1761.94
424.679	1751.7
424.887	1942.16
425.094	1993.36
425.302	1981.07
425.51	2075.27
425.718	2157.19
425.925	2036.36
426.133	2232.97
426.341	2351.75
426.548	2405
426.756	2523.78
426.964	2398.85
427.171	2626.18
427.379	2808.45
427.586	2718.34
427.794	2808.45
428.001	2972.29
428.209	3144.31
428.417	3025.53
428.624	3170.94
428.832	3279.48
429.039	3187.32
429.247	3199.61
429.454	3459.7
429.662	3713.65
429.869	3474.04
430.076	3869.3
430.284	3650.16
430.491	3838.58
430.699	3961.45
430.906	4070
431.114	4072.04
431.321	4262.51
431.528	4282.99
431.736	4729.44
431.943	4713.06
432.15	4684.39
432.358	4840.03
432.565	5132.89
432.772	4909.66
432.979	5188.19
433.187	5456.47
433.394	5399.13
433.601	5763.67
433.808	5702.23
434.016	5696.08
434.223	5876.31
434.43	6363.72
434.637	6230.6
434.844	6738.5
435.052	6718.02
435.259	6548.04
435.466	6902.34
435.673	6593.09
435.88	7201.34
436.087	7438.91
436.294	7531.06
436.501	7273.02
436.708	7408.19
436.915	7674.42
437.122	7967.28
437.329	8049.2
437.537	8256.04
437.743	8471.08
437.95	8342.06
438.157	9073.18
438.364	9105.95
438.571	9101.86
438.778	9064.99
438.985	9998.87
439.192	9669.14
439.399	9804.31
439.606	9648.66
439.813	10234.38
440.02	10793.48
440.227	10686.98
440.433	10404.36
440.64	10834.44
440.847	10742.28
441.054	11170.3
441.261	11655.67
441.467	11655.67
441.674	11772.41
441.881	12347.89
442.088	12300.78
442.294	12243.44
442.501	12495.34
442.708	12915.17
442.914	13238.75
443.121	13767.13
443.328	13359.58
443.534	14377.42
443.741	14066.13
443.948	13922.77
444.154	14885.32
444.361	14584.27
444.568	15030.73
444.774	15075.78
444.981	15049.16
445.187	15423.94
445.394	15907.26
445.6	15841.72
445.807	17039.78
446.013	16693.68
446.22	16935.34
446.426	17572.25
446.633	17762.72
446.839	18545.04
447.046	17951.13
447.252	18493.84
447.459	18618.77
447.665	18604.43
447.871	19358.08
448.078	20115.83
448.284	19263.88
448.491	19886.46
448.697	20588.91
448.903	20908.4
449.11	21158.25
449.316	20654.45
449.522	20906.35
449.728	21475.68
449.935	21803.36
450.141	21637.47
450.347	22282.58
450.553	21604.7
450.76	21752.16
450.966	22403.41
451.172	22178.14
451.378	22944.08
451.584	22190.42
451.791	22665.55
451.997	22839.63
452.203	23802.18
452.409	23437.64
452.615	23189.83
452.821	22509.91
453.027	22317.4
453.233	23529.8
453.44	22321.49
453.646	22653.26
453.852	22868.3
454.058	23042.38
454.264	22364.5
454.47	22772.05
454.676	22298.97
454.882	23091.53
455.088	20996.46
455.294	21551.46
455.5	21961.05
455.705	22311.25
455.911	20951.4
456.117	20679.02
456.323	20463.99
456.529	19157.38
456.735	19997.05
456.941	19564.93
457.147	19282.31
457.352	18684.3
457.558	18555.28
457.764	18559.38
457.97	18151.83
458.176	17877.4
458.381	17955.22
458.587	16777.64
458.793	16927.14
458.999	15921.59
459.204	17181.09
459.41	16728.49
459.616	15458.75
459.821	15663.55
460.027	15432.13
460.233	15180.23
460.438	14272.98
460.644	14610.89
460.85	14088.66
461.055	13738.46
461.261	13769.18
461.466	12902.89
461.672	12337.65
461.878	13400.54
462.083	12425.71
462.289	12114.42
462.494	12083.7
462.7	11629.05
462.905	11065.86
463.111	11635.19
463.316	11534.84
463.522	11301.37
463.727	11344.38
463.932	11137.54
464.138	11307.52
464.343	11248.13
464.549	11004.42
464.754	11313.66
464.959	11176.45
465.165	10891.78
465.37	10623.5
465.575	10375.69
465.781	10758.66
465.986	11006.47
466.191	10375.69
466.397	10424.84
466.602	9642.52
466.807	10183.18
467.012	10125.84
467.218	10119.7
467.423	10131.98
467.628	10013.2
467.833	10254.86
468.038	9820.69
468.244	9681.43
468.449	10209.81
468.654	9839.12
468.859	9646.62
469.064	9632.28
469.269	9423.39
469.474	9456.15
469.679	9595.42
469.885	9288.22
470.09	9415.19
470.295	9245.21
470.5	9175.58
470.705	9124.38
470.91	9042.46
471.115	9030.18
471.32	9097.76
471.525	8843.81
471.73	8694.31
471.935	8765.99
472.139	8256.04
472.344	8434.22
472.549	8538.66
472.754	8405.55
472.959	8294.96
473.164	7979.57
473.369	8030.77
473.574	8356.4
473.778	8112.69
473.983	7866.93
474.188	7981.62
474.393	7676.47
474.598	7770.68
474.802	7668.28
475.007	7617.08
475.212	7438.91
475.417	7172.67
475.621	7402.04
475.826	7266.88
476.031	7275.07
476.235	7146.05
476.44	7062.08
476.645	6824.51
476.849	6879.81
477.054	6806.08
477.259	6771.27
477.463	6920.77
477.668	6609.48
477.872	6593.09
478.077	6611.53
478.282	6537.8
478.486	6507.08
478.691	6365.77
478.895	6429.26
479.1	6369.87
479.304	6216.27
479.509	6072.91
479.713	6130.25
479.918	6148.68
480.122	6046.29
480.326	5997.14
480.531	6103.63
480.735	5976.66
480.94	6013.52
481.144	6249.04
481.348	5921.36
481.553	5876.31
481.757	5888.59
481.961	5941.84
482.166	6040.14
482.37	5980.75
482.574	5872.21
482.778	5763.67
482.983	6021.71
483.187	5970.51
483.391	5925.46
483.595	5821.01
483.8	5710.42
484.004	5710.42
484.208	6005.33
484.412	5956.18
484.616	5821.01
484.821	5718.61
485.025	5907.02
485.229	5804.63
485.433	5874.26
485.637	5868.11
485.841	5726.8
486.045	5730.9
486.249	5982.8
486.453	5761.62
486.657	5825.11
486.861	5831.25
487.065	5659.22
487.269	5679.7
487.473	5517.91
487.677	5993.04
487.881	5874.26
488.085	5845.59
488.289	5888.59
488.493	5921.36
488.697	5868.11
488.901	5833.3
489.105	5972.56
489.309	5841.49
489.512	5835.35
489.716	5935.7
489.92	5915.22
490.124	5886.54
490.328	5956.18
490.531	5878.35
490.735	5937.74
490.939	6019.66
491.143	5960.27
491.346	5997.14
491.55	6144.59
491.754	5956.18
491.958	6154.83
492.161	5892.69
492.365	6156.88
492.569	6066.77
492.772	6068.81
492.976	6304.33
493.18	6107.73
493.383	6386.25
493.587	6152.78
493.79	6292.04
493.994	6226.51
494.197	6367.82
494.401	6347.34
494.605	6402.63
494.808	6502.98
495.012	6496.84
495.215	6621.77
495.419	6451.78
495.622	6511.18
495.825	6730.31
496.029	6697.54
496.232	6724.16
496.436	6808.13
496.639	7051.84
496.843	6801.99
497.046	7109.18
497.249	7211.58
497.453	7047.74
497.656	7305.79
497.859	7373.37
498.063	7449.15
498.266	7723.57
498.469	7510.58
498.673	7676.47
498.876	7674.42
499.079	7744.05
499.282	7856.69
499.485	8073.78
499.689	8020.53
499.892	7981.62
500.095	8000.05
500.298	8247.85
500.501	8325.68
500.705	8641.06
500.908	8559.14
501.111	8673.83
501.314	8667.69
501.517	8677.93
501.72	8952.35
501.923	8753.7
502.126	9103.9
502.329	9228.83
502.532	9052.7
502.735	9122.34
502.938	9378.33
503.141	9624.09
503.344	9706.01
503.547	9728.53
503.75	9867.8
503.953	10166.8
504.156	10088.98
504.359	10164.75
504.562	10308.11
504.765	10598.92
504.968	10729.99
505.17	10615.3
505.373	10611.21
505.576	10758.66
505.779	11047.43
505.982	10983.94
506.185	11219.46
506.387	11317.76
506.59	11440.64
506.793	11573.75
506.996	11643.39
507.198	11979.25
507.401	11809.27
507.604	12014.07
507.807	12222.96
508.009	12229.1
508.212	12302.83
508.415	12550.64
508.617	12747.24
508.82	12853.73
509.022	12777.96
509.225	13052.39
509.428	13111.78
509.63	13322.72
509.833	13156.83
510.035	13736.41
510.238	13470.17
510.44	13871.57
510.643	13994.45
510.845	14135.76
511.048	14027.22
511.25	14139.86
511.453	14393.81
511.655	14883.27
511.858	14549.45
512.06	15020.49
512.262	15004.1
512.465	15151.56
512.667	15075.78
512.87	15636.92
513.072	15464.89
513.274	15813.05
513.477	15940.02
513.679	15833.53
513.881	16036.28
514.084	16652.72
514.286	16265.65
514.488	16578.99
514.69	16974.25
514.893	17287.59
515.095	17011.11
515.297	17502.62
515.499	17473.95
515.701	17502.62
515.904	17801.63
516.106	18037.14
516.308	18340.24
516.51	18485.65
516.712	18346.39
516.914	18481.55
517.116	19108.23
517.318	18665.87
517.52	18950.54
517.722	19016.07
517.925	19433.86
518.127	19403.14
518.329	19939.71
518.531	19782.01
518.733	20242.81
518.935	20427.12
519.136	20384.12
519.338	20816.24
519.54	20863.34
519.742	20760.94
519.944	21254.5
520.146	21668.19
520.348	21680.48
520.55	21776.73
520.752	21959
520.954	22147.42
521.155	22108.51
521.357	22399.32
521.559	22538.58
521.761	23087.43
521.963	22964.56
522.164	22839.63
522.366	23325
522.568	23568.71
522.77	23755.07
522.971	24148.28
523.173	23611.71
523.375	24508.72
523.576	23945.53
523.778	24226.1
523.98	24555.83
524.181	24723.76
524.383	24645.94
524.584	25090.35
524.786	24846.64
524.988	25250.09
525.189	25600.29
525.391	25393.45
525.592	25684.26
525.794	25790.75
525.995	25841.95
526.197	25991.45
526.398	26163.48
526.6	26431.77
526.801	25909.54
527.003	26257.69
527.204	26749.2
527.406	26853.65
527.607	26759.44
527.808	27191.56
528.01	26620.18
528.211	27074.83
528.412	27697.41
528.614	27523.33
528.815	27443.46
529.016	27797.76
529.218	27314.44
529.419	27582.73
529.62	27711.75
529.822	27650.31
530.023	27748.61
530.224	27902.21
530.425	27762.95
530.626	27422.98
530.828	27998.46
531.029	28547.32
531.23	28082.43
531.431	28199.16
531.632	28076.29
531.833	28371.19
532.035	28289.27
532.236	28426.49
532.437	28645.62
532.638	28487.93
532.839	28756.21
533.04	28834.03
533.241	28897.52
533.442	28854.51
533.643	28840.18
533.844	28811.51
534.045	29128.94
534.246	28780.79
534.447	28813.55
534.648	28743.92
534.849	29038.83
535.05	29049.07
535.251	29006.06
535.451	29032.69
535.652	29300.97
535.853	29190.38
536.054	28786.93
536.255	29075.69
536.456	29219.05
536.657	28907.76
536.857	28901.62
537.058	28530.94
537.259	29339.88
537.46	29165.81
537.66	28784.88
537.861	29141.23
538.062	29264.11
538.263	29128.94
538.463	28922.1
538.664	28971.25
538.865	29012.21
539.065	29090.03
539.266	29055.22
539.466	29505.77
539.667	28682.48
539.868	29593.83
540.068	29286.64
540.269	29331.69
540.469	29274.35
540.67	28852.47
540.87	29063.41
541.071	29270.25
541.271	29196.53
541.472	29100.27
541.672	29139.18
541.873	29051.12
542.073	28940.53
542.274	29405.42
542.474	28983.54
542.675	29114.61
542.875	29313.26
543.075	28848.37
543.276	28889.33
543.476	29219.05
543.676	28995.82
543.877	29020.4
544.077	28897.52
544.277	28696.82
544.478	29182.19
544.678	29176.05
544.878	28903.67
545.078	28791.03
545.279	29180.14
545.479	28831.99
545.679	29167.85
545.879	29169.9
546.079	28657.91
546.28	28926.19
546.48	28813.55
546.68	28887.28
546.88	29081.84
547.08	29180.14
547.28	29147.37
547.48	29075.69
547.68	28952.82
547.88	28899.57
548.081	28985.58
548.281	28975.34
548.481	28696.82
548.681	29073.65
548.881	29075.69
549.081	28958.96
549.28	28557.56
549.48	29106.41
549.68	28635.38
549.88	29364.46
550.08	28883.19
550.28	28709.11
550.48	28614.9
550.68	28823.79
550.88	28535.03
551.08	28633.33
551.279	28850.42
551.479	28592.37
551.679	29083.89
551.879	28639.48
552.079	28973.3
552.278	28623.09
552.478	28778.74
552.678	28619
552.878	28940.53
553.077	28659.96
553.277	28782.84
553.477	29020.4
553.676	28569.85
553.876	28698.87
554.076	28686.58
554.275	28573.94
554.475	28336.38
554.674	28885.23
554.874	28713.2
555.074	28240.12
555.273	28553.46
555.473	28764.4
555.672	28410.11
555.872	28156.16
556.071	28350.71
556.271	28479.74
556.47	28332.28
556.67	28236.03
556.869	28180.73
557.068	28309.75
557.268	27812.1
557.467	28203.26
557.667	28027.13
557.866	27894.02
558.065	27877.63
558.265	27732.23
558.464	27838.72
558.663	27982.08
558.863	27652.36
559.062	28211.45
559.261	27605.25
559.461	28006.66
559.66	27425.03
559.859	27572.49
560.058	27334.92
560.258	27410.7
560.457	27273.48
560.656	27625.73
560.855	27318.54
561.054	27279.63
561.253	27136.27
561.453	27472.14
561.652	27277.58
561.851	27216.14
562.05	26919.18
562.249	26863.89
562.448	27171.08
562.647	27052.3
562.846	26786.07
563.045	26902.8
563.244	26796.31
563.443	26831.12
563.642	26165.53
563.841	26478.87
564.04	26288.41
564.239	26593.56
564.438	26552.6
564.637	26562.84
564.836	26679.57
565.035	25927.97
565.234	26140.96
565.432	26296.6
565.631	26013.98
565.83	25919.78
566.029	25907.49
566.228	25882.91
566.427	25919.78
566.625	25901.34
566.824	25407.78
567.023	25727.27
567.222	25295.14
567.42	25352.49
567.619	25387.3
567.818	25260.33
568.016	25159.98
568.215	25407.78
568.414	25157.93
568.612	25065.77
568.811	24858.93
569.01	25078.06
569.208	24781.1
569.407	24930.61
569.605	24449.33
569.804	24791.34
570.002	24486.2
570.201	24674.61
570.4	24518.96
570.598	24252.73
570.797	24090.94
570.995	24346.94
571.193	23812.42
571.392	23955.77
571.59	23824.7
571.789	23884.09
571.987	23628.1
572.186	23591.23
572.384	23521.6
572.582	23812.42
572.781	23845.18
572.979	23251.27
573.177	23234.89
573.376	23503.17
573.574	23105.87
573.772	23437.64
573.971	23124.3
574.169	23138.63
574.367	23109.96
574.565	23150.92
574.763	22917.45
574.962	22899.02
575.16	22413.65
575.358	22683.98
575.556	22434.13
575.754	22757.71
575.952	22395.22
576.151	22647.12
576.349	22284.63
576.547	22280.53
576.745	22378.84
576.943	22405.46
577.141	22090.07
577.339	22124.89
577.537	22165.85
577.735	21911.9
577.933	21684.58
578.131	21727.58
578.329	21700.96
578.527	21786.97
578.725	21707.1
578.923	21604.7
579.121	21528.93
579.319	21404
579.516	21434.72
579.714	20916.59
579.912	21330.28
580.11	21182.82
580.308	21113.19
580.506	21162.34
580.704	20732.27
580.901	20971.88
581.099	21072.23
581.297	20781.42
581.495	20621.68
581.692	20844.91
581.89	20842.86
582.088	20840.81
582.285	20218.23
582.483	20633.97
582.681	20533.62
582.878	20611.44
583.076	20207.99
583.274	20435.31
583.471	20328.82
583.669	20240.76
583.866	20169.08
584.064	20183.41
584.262	19882.36
584.459	19814.78
584.657	19986.81
584.854	20001.15
585.052	19450.24
585.249	19726.72
585.447	20042.1
585.644	19325.32
585.841	19585.41
586.039	19470.72
586.236	19267.97
586.434	19319.17
586.631	19097.99
586.828	19024.26
587.026	19274.12
587.223	19364.23
587.42	18971.02
587.618	19192.2
587.815	19077.51
588.012	18885
588.21	18993.54
588.407	18731.4
588.604	18876.81
588.801	18712.97
588.999	18559.38
589.196	18692.49
589.393	18686.35
589.59	18549.14
589.787	18555.28
589.984	18422.16
590.182	18303.38
590.379	18229.65
590.576	18039.19
590.773	18069.91
590.97	18088.34
591.167	18090.39
591.364	17949.08
591.561	18004.38
591.758	17652.13
591.955	17768.86
592.152	17713.56
592.349	17865.11
592.546	17672.6
592.743	17750.43
592.94	17516.96
593.137	17301.92
593.334	17572.25
593.531	17181.09
593.727	17285.54
593.924	17398.18
594.121	17363.36
594.318	17441.18
594.515	17222.05
594.712	17230.24
594.908	17244.58
595.105	17070.5
595.302	16867.75
595.499	16921
595.696	16859.56
595.892	16712.11
596.089	16818.6
596.286	16681.39
596.482	16583.09
596.679	16667.05
596.876	16794.03
597.072	16046.52
597.269	16443.82
597.466	16302.51
597.662	16314.8
597.859	16513.45
598.055	16325.04
598.252	16206.26
598.448	16341.43
598.645	15980.98
598.841	15899.06
599.038	16259.51
599.234	15933.88
599.431	15956.41
599.627	15882.68
599.824	15985.08
600.02	15835.58
600.217	15776.19
600.413	15737.27
600.609	15317.44
600.806	15575.48
601.002	15557.05
601.198	15419.84
601.395	15169.99
601.591	15378.88
601.787	15391.17
601.984	15190.47
602.18	15614.4
602.376	14975.43
602.572	15067.59
602.769	15256
602.965	15184.32
603.161	15122.88
603.357	14877.13
603.553	14830.02
603.75	15098.31
603.946	14932.42
604.142	14799.3
604.338	14674.38
604.534	14522.83
604.73	14629.32
604.926	14760.39
605.122	14340.56
605.318	14549.45
605.514	14485.97
605.71	14180.82
605.906	14318.03
606.102	14285.26
606.298	14172.63
606.494	14148.05
606.69	14135.76
606.886	14418.38
607.082	14240.21
607.278	14236.11
607.474	14066.13
607.67	14115.28
607.866	13867.48
608.062	14023.12
608.257	13816.28
608.453	13799.9
608.649	13957.59
608.845	13867.48
609.041	13789.66
609.236	13918.68
609.432	13591
609.628	13752.79
609.824	13740.5
610.019	13801.94
610.215	13812.18
610.411	13629.91
610.606	13429.21
610.802	13785.56
610.998	13423.07
611.193	13365.73
611.389	13355.49
611.584	13210.08
611.78	13363.68
611.976	13179.36
612.171	13429.21
612.367	13263.33
612.562	13124.07
612.758	13408.73
612.953	13238.75
613.149	13371.87
613.344	13140.45
613.539	13177.31
613.735	13136.35
613.93	13191.65
614.126	13050.34
614.321	13095.39
614.517	13085.15
614.712	13185.51
614.907	12739.05
615.103	13083.11
615.298	12896.74
615.493	12966.37
615.688	12718.57
615.884	13187.55
616.079	12919.27
616.274	12898.79
616.47	12814.82
616.665	12800.49
616.86	12833.25
617.055	12612.07
617.25	12640.75
617.445	12741.1
617.641	12507.63
617.836	12587.5
618.031	12483.05
618.226	12491.24
618.421	12493.29
618.616	12474.86
618.811	12216.82
619.006	12538.35
619.201	12188.14
619.396	12351.98
619.591	12081.65
619.786	12098.03
619.981	12032.5
620.176	11907.57
620.371	11885.05
620.566	11899.38
620.761	11995.64
620.956	12005.88
621.151	11733.5
621.346	11969.01
621.541	11571.71
621.735	11862.52
621.93	11487.74
622.125	11549.18
622.32	11205.12
622.515	11571.71
622.709	11315.71
622.904	11393.53
623.099	11323.9
623.294	11471.36
623.488	10842.63
623.683	10990.08
623.878	11002.37
624.072	10945.03
624.267	10988.03
624.462	10842.63
624.656	10689.03
624.851	10813.96
625.046	10680.84
625.24	10570.25
625.435	10476.04
625.629	10566.15
625.824	10435.08
626.018	10478.09
626.213	10293.77
626.407	10369.55
626.602	10115.6
626.796	10334.73
626.991	10074.64
627.185	10054.16
627.38	10107.41
627.574	10029.59
627.768	9822.74
627.963	9871.89
628.157	9714.2
628.352	9632.28
628.546	9603.61
628.74	9761.3
628.935	9658.9
629.129	9605.66
629.323	9398.81
629.517	9364
629.712	9304.6
629.906	9359.9
630.1	9181.73
630.294	9327.13
630.489	9122.34
630.683	9105.95
630.877	9021.98
631.071	9034.27
631.265	8983.07
631.459	9026.08
631.653	8876.58
631.848	8944.16
632.042	8802.85
632.236	8950.31
632.43	8671.78
632.624	8606.25
632.818	8720.93
633.012	8669.73
633.206	8426.03
633.4	8550.95
633.594	8460.84
633.788	8491.56
633.982	8466.99
634.176	8323.63
634.369	8393.26
634.563	8008.24
634.757	8272.43
634.951	8249.9
635.145	8170.03
635.339	8182.32
635.533	7998
635.726	7838.26
635.92	7805.49
636.114	7864.88
636.308	7719.48
636.501	7895.6
636.695	7932.47
636.889	7725.62
637.083	7633.46
637.276	7438.91
637.47	7631.41
637.664	7588.41
637.857	7539.26
638.051	7432.76
638.244	7436.86
638.438	7373.37
638.632	7399.99
638.825	7230.01
639.019	7285.31
639.212	7148.09
639.406	7164.48
639.599	7121.47
639.793	7135.81
639.986	7381.56
640.18	7144
640.373	6935.1
640.567	7006.78
640.76	7113.28
640.954	6928.96
641.147	6795.84
641.34	6781.51
641.534	6662.72
641.727	6683.2
641.92	6662.72
642.114	6775.36
642.307	6613.57
642.5	6564.42
642.694	6476.36
642.887	6523.46
643.08	6439.5
643.273	6414.92
643.467	6347.34
643.66	6208.08
643.853	6345.29
644.046	6408.78
644.239	6308.43
644.432	6404.68
644.626	6369.87
644.819	5941.84
645.012	6074.96
645.205	5902.93
645.398	6097.49
645.591	5982.8
645.784	6122.06
645.977	5952.08
646.17	6021.71
646.363	5857.87
646.556	5851.73
646.749	5751.38
646.942	5837.39
647.135	5763.67
647.328	5667.41
647.521	5749.33
647.714	5696.08
647.907	5884.5
648.099	5618.26
648.292	5577.3
648.485	5524.05
648.678	5741.14
648.871	5565.01
649.064	5413.46
649.256	5497.43
649.449	5499.48
649.642	5235.29
649.835	5481.05
650.027	5427.8
650.22	5263.96
650.413	5229.15
650.605	5327.45
650.798	5294.68
650.991	5173.85
651.183	5206.62
651.376	5018.21
651.568	5198.43
651.761	5204.57
651.954	5044.83
652.146	5034.59
652.339	5018.21
652.531	5044.83
652.724	5061.21
652.916	5038.69
653.109	5093.98
653.301	4862.56
653.494	4837.98
653.686	4807.27
653.879	4864.61
654.071	4815.46
654.263	4762.21
654.456	4893.28
654.648	4786.79
654.84	4706.91
655.033	4817.51
655.225	4823.65
655.417	4622.95
655.61	4600.42
655.802	4614.76
655.994	4551.27
656.186	4477.54
656.379	4481.64
656.571	4602.47
656.763	4489.83
656.955	4430.44
657.148	4465.25
657.34	4356.71
657.532	4401.77
657.724	4278.89
657.916	4520.55
658.108	4424.3
658.3	4153.96
658.492	4426.34
658.684	4301.42
658.876	4180.59
659.068	4219.5
659.26	4235.88
659.452	4164.2
659.644	4115.05
659.836	4039.28
660.028	4262.51
660.22	4033.13
660.412	4194.92
660.604	4166.25
660.796	3998.32
660.988	4084.33
661.18	4192.87
661.372	4033.13
661.563	4020.85
661.755	3926.64
661.947	3945.07
662.139	4067.95
662.331	3936.88
662.522	3873.39
662.714	3746.42
662.906	3945.07
663.097	3826.29
663.289	3811.95
663.481	3820.14
663.673	3801.71
663.864	3725.94
664.056	3627.64
664.247	3717.75
664.439	3703.41
664.631	3736.18
664.822	3861.1
665.014	3584.63
665.205	3537.52
665.397	3553.91
665.588	3779.18
665.78	3611.25
665.971	3541.62
666.163	3576.44
666.354	3521.14
666.546	3441.27
666.737	3519.09
666.929	3521.14
667.12	3607.16
667.311	3414.65
667.503	3463.8
667.694	3457.65
667.885	3336.82
668.077	3467.89
668.268	3467.89
668.459	3439.22
668.651	3293.82
668.842	3416.69
669.033	3353.21
669.224	3379.83
669.416	3338.87
669.607	3383.93
669.798	3252.86
669.989	3377.78
670.18	3271.29
670.371	3265.14
670.563	3185.27
670.754	3224.19
670.945	3144.31
671.136	3197.56
671.327	3248.76
671.518	3211.9
671.709	3256.95
671.9	3150.46
672.091	3160.7
672.282	3093.12
672.473	3168.89
672.664	3170.94
672.855	3144.31
673.046	3236.47
673.237	3132.03
673.428	3109.5
673.619	2996.86
673.809	3003
674	3142.27
674.191	3054.2
674.382	3091.07
674.573	2960
674.764	3185.27
674.954	3183.23
675.145	2978.43
675.336	3009.15
675.527	3119.74
675.717	2960
675.908	2939.52
676.099	3058.3
676.289	2966.14
676.48	3025.53
676.671	3017.34
676.861	2962.05
677.052	2914.94
677.243	2849.41
677.433	2939.52
677.624	2888.32
677.814	2894.46
678.005	2890.37
678.195	2960
678.386	2892.41
678.576	2910.85
678.767	2878.08
678.957	2886.27
679.148	2992.77
679.338	2927.23
679.529	2824.83
679.719	2945.66
679.909	2984.57
680.1	2927.23
680.29	2943.61
680.481	2951.81
680.671	2974.33
680.861	2890.37
681.052	2914.94
681.242	2738.82
681.432	2890.37
681.622	2943.61
681.813	2730.62
682.003	2800.26
682.193	2683.52
682.383	2798.21
682.573	2859.65
682.764	2845.31
682.954	2839.17
683.144	2871.93
683.334	2900.61
683.524	2818.69
683.714	2769.54
683.904	2757.25
684.094	2873.98
684.284	2818.69
684.474	2925.18
684.664	2759.3
684.854	2790.02
685.044	2822.78
685.234	2712.19
685.424	2790.02
685.614	2847.36
685.804	2812.54
685.994	2689.67
686.184	2798.21
686.374	2757.25
686.564	2728.58
686.753	2751.1
686.943	2667.14
687.133	2638.47
687.323	2771.58
687.513	2667.14
687.702	2607.75
687.892	2646.66
688.082	2691.71
688.272	2673.28
688.461	2667.14
688.651	2671.23
688.841	2648.71
689.03	2579.08
689.22	2448.01
689.41	2501.25
689.599	2560.64
689.789	2523.78
689.979	2497.16
690.168	2507.4
690.358	2640.51
690.547	2544.26
690.737	2568.84
690.926	2630.27
691.116	2411.14
691.305	2464.39
691.495	2364.04
691.684	2456.2
691.874	2517.64
692.063	2306.7
692.252	2452.1
692.442	2509.44
692.631	2384.52
692.82	2366.09
693.01	2378.37
693.199	2304.65
693.388	2198.15
693.578	2325.13
693.767	2427.53
693.956	2280.07
694.146	2296.46
694.335	2314.89
694.524	2265.74
694.713	2247.3
694.902	2423.43
695.092	2239.11
695.281	2302.6
695.47	2237.06
695.659	2226.82
695.848	2230.92
696.037	2374.28
696.226	2335.37
696.415	2425.48
696.604	2261.64
696.793	2138.76
696.982	2235.02
697.171	2218.63
697.36	2077.32
697.549	2202.25
697.738	2214.54
697.927	2243.21
698.116	2157.19
698.305	2232.97
698.494	2097.8
698.683	2116.23
698.872	2243.21
699.061	2228.87
699.25	2112.14
699.438	2255.5
699.627	2245.26
699.816	2372.23
700.005	2196.11
700.193	2273.93
700.382	2194.06
700.571	2177.67
700.76	2189.96
700.948	2261.64
701.137	2220.68
701.326	2179.72
701.514	2128.52
701.703	2245.26
701.892	2206.35
702.08	2302.6
702.269	2146.95
702.457	2140.81
702.646	2108.04
702.834	2232.97
703.023	2175.63
703.212	2263.69
703.4	2134.67
703.589	2167.43
703.777	2271.88
703.965	2185.87
704.154	2187.91
704.342	2302.6
704.531	2142.86
704.719	2126.47
704.907	2216.58
705.096	2126.47
705.284	2341.51
705.472	2232.97
705.661	2273.93
705.849	2294.41
706.037	2183.82
706.226	2116.23
706.414	2183.82
706.602	2179.72
706.79	2302.6
706.979	2122.38
707.167	2112.14
707.355	2181.77
707.543	2159.24
707.731	2239.11
707.919	2325.13
708.107	2105.99
708.296	2144.91
708.484	2259.59
708.672	2144.91
708.86	2161.29
709.048	2261.64
709.236	2206.35
709.424	2237.06
709.612	2214.54
709.8	2253.45
709.988	2171.53
710.176	2269.83
710.364	2237.06
710.551	2226.82
710.739	2179.72
710.927	2175.63
711.115	2312.84
711.303	2173.58
711.491	2224.78
711.679	2294.41
711.866	2247.3
712.054	2259.59
712.242	2241.16
712.43	2265.74
712.617	2194.06
712.805	2296.46
712.993	2237.06
713.181	2241.16
713.368	2267.78
713.556	2245.26
713.744	2241.16
713.931	2357.89
714.119	2177.67
714.306	2394.76
714.494	2235.02
714.682	2183.82
714.869	2263.69
715.057	2269.83
715.244	2247.3
715.432	2337.41
715.619	2257.54
715.807	2142.86
715.994	2202.25
716.182	2261.64
716.369	2228.87
716.556	2128.52
716.744	2259.59
716.931	2286.22
717.119	2230.92
717.306	2284.17
717.493	2312.84
717.681	2304.65
717.868	2314.89
718.055	2251.4
718.242	2351.75
718.43	2200.2
718.617	2257.54
718.804	2337.41
718.991	2333.32
719.179	2185.87
719.366	2331.27
719.553	2386.57
719.74	2325.13
719.927	2284.17
720.114	2288.26
720.301	2251.4
720.488	2269.83
720.676	2294.41
720.863	2349.7
721.05	2370.18
721.237	2292.36
721.424	2263.69
721.611	2323.08
721.798	2378.37
721.985	2421.38
722.172	2292.36
722.358	2265.74
722.545	2269.83
722.732	2366.09
722.919	2398.85
723.106	2353.8
723.293	2318.98
723.48	2361.99
723.667	2382.47
723.853	2230.92
724.04	2241.16
724.227	2306.7
724.414	2351.75
724.6	2269.83
724.787	2331.27
724.974	2339.46
725.161	2251.4
725.347	2296.46
725.534	2355.85
725.72	2366.09
725.907	2294.41
726.094	2452.1
726.28	2312.84
726.467	2296.46
726.653	2263.69
726.84	2265.74
727.027	2353.8
727.213	2392.71
727.4	2359.94
727.586	2376.33
727.773	2325.13
727.959	2398.85
728.145	2345.61
728.332	2333.32
728.518	2411.14
728.705	2357.89
728.891	2400.9
729.077	2460.29
729.264	2419.33
729.45	2380.42
729.636	2376.33
729.823	2316.94
730.009	2400.9
730.195	2509.44
730.382	2337.41
730.568	2333.32
730.754	2308.74
730.94	2445.96
731.126	2388.61
731.313	2302.6
731.499	2448.01
731.685	2396.81
731.871	2314.89
732.057	2400.9
732.243	2437.77
732.429	2433.67
732.615	2460.29
732.801	2411.14
732.987	2497.16
733.173	2574.98
733.359	2392.71
733.545	2382.47
733.731	2433.67
733.917	2460.29
734.103	2429.57
734.289	2507.4
734.475	2298.5
734.661	2419.33
734.847	2476.68
735.033	2386.57
735.219	2419.33
735.404	2443.91
735.59	2286.22
735.776	2478.72
735.962	2437.77
736.148	2355.85
736.333	2384.52
736.519	2341.51
736.705	2441.86
736.89	2370.18
737.076	2435.72
737.262	2538.12
737.447	2292.36
737.633	2452.1
737.819	2351.75
738.004	2388.61
738.19	2450.05
738.375	2384.52
738.561	2417.29
738.747	2339.46
738.932	2441.86
739.118	2306.7
739.303	2343.56
739.489	2364.04
739.674	2296.46
739.859	2308.74
740.045	2402.95
740.23	2310.79
740.416	2347.65
740.601	2382.47
740.786	2386.57
740.972	2220.68
741.157	2306.7
741.342	2167.43
741.528	2237.06
741.713	2247.3
741.898	2112.14
742.084	2228.87
742.269	2316.94
742.454	2376.33
742.639	2390.66
742.824	2314.89
743.01	2198.15
743.195	2402.95
743.38	2259.59
743.565	2179.72
743.75	2257.54
743.935	2189.96
744.12	2224.78
744.305	2153.1
744.49	2196.11
744.675	2206.35
744.86	2185.87
745.045	2228.87
745.23	2177.67
745.415	2200.2
745.6	2085.51
745.785	2138.76
745.97	2198.15
746.155	2165.39
746.34	2161.29
746.525	2019.98
746.71	2069.13
746.895	2069.13
747.079	2200.2
747.264	2003.6
747.449	2093.71
747.634	2005.64
747.819	2075.27
748.003	1825.42
748.188	2024.08
748.373	1979.02
748.557	1997.45
748.742	1925.77
748.927	1905.29
749.111	2026.12
749.296	1835.66
749.481	1979.02
749.665	1917.58
749.85	1886.86
750.034	1868.43
750.219	1886.86
750.404	1835.66
750.588	1852.05
750.773	1829.52
750.957	1815.18
751.141	1938.06
751.326	1745.55
751.51	1737.36
751.695	1747.6
751.879	1798.8
752.064	1708.69
752.248	1755.79
752.432	1806.99
752.617	1620.63
752.801	1684.11
752.985	1753.74
753.17	1800.85
753.354	1614.48
753.538	1753.74
753.722	1546.9
753.907	1735.31
754.091	1589.91
754.275	1596.05
754.459	1493.65
754.643	1628.82
754.828	1462.93
755.012	1571.47
755.196	1555.09
755.38	1538.71
755.564	1485.46
755.748	1540.76
755.932	1532.56
756.116	1548.95
756.3	1577.62
756.484	1448.6
756.668	1389.21
756.852	1481.36
757.036	1409.69
757.22	1421.97
757.404	1471.12
757.588	1342.1
757.772	1395.35
757.956	1444.5
758.14	1520.28
758.323	1358.49
758.507	1393.3
758.691	1342.1
758.875	1385.11
759.059	1317.53
759.242	1321.62
759.426	1350.29
759.61	1313.43
759.794	1356.44
759.977	1325.72
760.161	1389.21
760.345	1270.42
760.528	1303.19
760.712	1372.82
760.895	1270.42
761.079	1305.24
761.263	1264.28
761.446	1237.66
761.63	1239.7
761.813	1233.56
761.997	1319.57
762.18	1172.12
762.364	1168.02
762.547	1139.35
762.731	1143.45
762.914	1079.96
763.098	1165.98
763.281	1151.64
763.464	1108.63
763.648	1213.08
763.831	1141.4
764.015	1067.67
764.198	1139.35
764.381	1102.49
764.564	1168.02
764.748	1129.11
764.931	1129.11
765.114	1161.88
765.297	1135.26
765.481	1057.43
765.664	1125.02
765.847	998.04
766.03	1075.87
766.213	1057.43
766.397	1049.24
766.58	1067.67
766.763	1102.49
766.946	1006.24
767.129	1086.11
767.312	1041.05
767.495	991.9
767.678	936.6
767.861	1002.14
768.044	1088.15
768.227	1028.76
768.41	1002.14
768.593	1088.15
768.776	936.6
768.959	965.28
769.142	1016.48
769.324	1041.05
769.507	975.52
769.69	991.9
769.873	961.18
770.056	1026.71
770.239	969.37
770.421	1036.95
770.604	924.32
770.787	901.79
770.97	969.37
771.152	955.04
771.335	875.17
771.518	887.45
771.7	959.13
771.883	871.07
772.066	916.12
772.248	926.36
772.431	838.3
772.613	881.31
772.796	930.46
772.978	909.98
773.161	930.46
773.343	811.68
773.526	766.62
773.708	795.29
773.891	883.36
774.073	838.3
774.256	830.11
774.438	846.49
774.621	840.35
774.803	860.83
774.985	785.05
775.168	877.21
775.35	791.2
775.532	783.01
775.715	871.07
775.897	844.45
776.079	723.62
776.261	828.06
776.444	801.44
776.626	828.06
776.808	713.38
776.99	723.62
777.173	727.71
777.355	705.18
777.537	719.52
777.719	746.14
777.901	649.89
778.083	678.56
778.265	711.33
778.447	692.9
778.629	715.42
778.811	696.99
778.993	656.03
779.175	758.43
779.357	707.23
779.539	686.75
779.721	758.43
779.903	651.94
780.085	541.35
780.267	621.22
780.449	653.98
780.631	651.94
780.812	637.6
780.994	678.56
781.176	567.97
781.358	547.49
781.54	617.12
781.721	639.65
781.903	641.7
782.085	604.83
782.267	621.22
782.448	592.55
782.63	563.87
782.812	615.07
782.993	604.83
783.175	610.98
783.357	561.83
783.538	535.2
783.72	524.96
783.901	527.01
784.083	492.2
784.264	449.19
784.446	527.01
784.627	514.72
784.809	443.04
784.99	475.81
785.172	459.43
785.353	467.62
785.535	479.91
785.716	524.96
785.897	416.42
786.079	533.15
786.26	443.04
786.441	531.11
786.623	465.57
786.804	549.54
786.985	539.3
787.167	461.48
787.348	471.72
787.529	453.28
787.71	422.56
787.891	504.48
788.073	500.39
788.254	438.95
788.435	416.42
788.616	432.8
788.797	428.71
788.978	447.14
789.159	408.23
789.34	385.7
789.522	387.75
789.703	344.74
789.884	385.7
790.065	385.7
790.246	377.51
790.427	404.13
790.607	363.17
790.788	383.65
790.969	414.37
791.15	426.66
791.331	334.5
791.512	410.28
791.693	309.93
791.874	293.54
792.054	365.22
792.235	406.18
792.416	326.31
792.597	385.7
792.778	354.98
792.958	316.07
793.139	332.45
793.32	334.5
793.5	275.11
793.681	322.21
793.862	365.22
794.042	357.03
794.223	285.35
794.404	320.17
794.584	352.93
794.765	324.26
794.945	287.4
795.126	322.21
795.306	316.07
795.487	281.25
795.667	365.22
795.848	324.26
796.028	363.17
796.209	283.3
796.389	369.32
796.57	344.74
796.75	322.21
796.93	223.91
797.111	279.21
797.291	287.4
797.471	318.12
797.652	213.67
797.832	275.11
798.012	387.75
798.192	266.92
798.373	252.58
798.553	307.88
798.733	271.01
798.913	215.72
799.093	248.49
799.274	264.87
799.454	238.25
799.634	293.54
799.814	301.73
799.994	262.82
800.174	244.39
800.354	215.72
800.534	262.82
800.714	309.93
800.894	268.97
801.074	248.49
801.254	223.91
801.434	205.48
801.614	221.86
801.794	279.21
801.974	635.55
802.154	262.82
802.334	244.39
802.514	215.72
802.693	301.73
802.873	256.68
803.053	271.01
803.233	219.82
803.413	248.49
803.592	240.29
803.772	256.68
803.952	225.96
804.131	185
804.311	275.11
804.491	242.34
804.67	187.05
804.85	178.86
805.03	178.86
805.209	219.82
805.389	279.21
805.568	228.01
805.748	295.59
805.928	141.99
806.107	242.34
806.287	187.05
806.466	74.41
806.646	191.14
806.825	170.66
807.004	223.91
807.184	191.14
807.363	158.38
807.543	203.43
807.722	228.01
807.901	185
808.081	172.71
808.26	172.71
808.439	238.25
808.619	223.91
808.798	172.71
808.977	191.14
809.156	193.19
809.336	281.25
809.515	191.14
809.694	176.81
809.873	154.28
810.052	295.59
810.231	182.95
810.411	164.52
810.59	166.57
810.769	230.06
810.948	205.48
811.127	90.79
811.306	205.48
811.485	238.25
811.664	230.06
811.843	160.42
812.022	96.94
812.201	217.77
812.38	197.29
812.559	135.85
812.737	176.81
812.916	191.14
813.095	158.38
813.274	193.19
813.453	162.47
813.632	242.34
813.811	191.14
813.989	105.13
814.168	174.76
814.347	158.38
814.526	129.7
814.704	125.61
814.883	182.95
815.062	139.94
815.24	248.49
815.419	70.31
815.598	119.46
815.776	111.27
815.955	170.66
816.133	60.07
816.312	174.76
816.49	25.26
816.669	180.9
816.847	86.7
817.026	162.47
817.204	103.08
817.383	131.75
817.561	137.9
817.74	168.62
817.918	64.17
818.097	123.56
818.275	101.03
818.453	180.9
818.632	68.27
818.81	82.6
818.988	133.8
819.167	232.1
819.345	113.32
819.523	135.85
819.701	78.51
819.879	111.27
820.058	148.14
820.236	174.76
820.414	94.89
820.592	103.08
820.77	195.24
820.948	152.23
821.127	121.51
821.305	96.94
821.483	88.75
821.661	197.29
821.839	72.36
822.017	105.13
822.195	125.61
822.373	154.28
822.551	101.03
822.729	144.04
822.907	111.27
823.085	62.12
823.262	58.03
823.44	80.55
823.618	115.37
823.796	45.74
823.974	111.27
824.152	103.08
824.329	53.93
824.507	125.61
824.685	90.79
824.863	150.18
825.04	125.61
825.218	148.14
825.396	6.83
825.574	96.94
825.751	55.98
825.929	154.28
826.107	53.93
826.284	98.99
826.462	127.66
826.639	111.27
826.817	72.36
826.994	113.32
827.172	29.35
827.349	146.09
827.527	115.37
827.704	144.04
827.882	55.98
828.059	137.9
828.237	88.75
828.414	107.18
828.591	72.36
828.769	74.41
828.946	43.69
829.124	144.04
829.301	41.64
829.478	70.31
829.655	96.94
829.833	23.21
830.01	-1.37
830.187	39.59
830.364	139.94
830.542	101.03
830.719	129.7
830.896	162.47
831.073	45.74
831.25	94.89
831.427	82.6
831.604	78.51
831.782	88.75
831.959	107.18
832.136	33.45
832.313	58.03
832.49	47.79
832.667	125.61
832.844	31.4
833.021	94.89
833.198	53.93
833.374	49.83
833.551	55.98
833.728	98.99
833.905	115.37
834.082	33.45
834.259	55.98
834.436	176.81
834.612	88.75
834.789	219.82
834.966	84.65
835.143	123.56
835.319	88.75
835.496	166.57
835.673	125.61
835.85	103.08
836.026	70.31
836.203	82.6
836.38	51.88
836.556	31.4
836.733	98.99
836.909	86.7
837.086	37.55
837.262	55.98
837.439	41.64
837.616	70.31
837.792	60.07
837.968	58.03
838.145	49.83
838.321	21.16
838.498	62.12
838.674	107.18
838.851	117.42
839.027	68.27
839.203	94.89
839.38	70.31
839.556	15.02
839.732	35.5
839.909	31.4
840.085	148.14
840.261	66.22
840.437	111.27
840.614	-5.46
840.79	51.88
840.966	105.13
841.142	90.79
841.318	-25.94
841.494	113.32
841.671	51.88
841.847	76.46
842.023	-17.75
842.199	10.92
842.375	43.69
842.551	-27.99
842.727	117.42
842.903	111.27
843.079	-23.89
843.255	70.31
843.431	41.64
843.607	-23.89
843.783	80.55
843.959	111.27
844.134	39.59
844.31	101.03
844.486	0.68
844.662	66.22
844.838	131.75
845.013	105.13
845.189	21.16
845.365	25.26
845.541	76.46
845.716	-7.51
845.892	27.31
846.068	19.11
846.244	55.98
846.419	49.83
846.595	58.03
846.77	154.28
846.946	-30.04
847.122	-7.51
847.297	15.02
847.473	51.88
847.648	-34.13
847.824	51.88
847.999	-7.51
848.175	51.88
848.35	23.21
848.526	86.7
848.701	15.02
848.876	64.17
849.052	15.02
849.227	47.79
849.403	23.21
849.578	47.79
849.753	10.92
849.929	29.35
850.104	2.73
850.279	74.41
850.454	70.31
850.63	21.16
850.805	0.68
850.98	74.41
851.155	35.5
851.33	31.4
851.505	25.26
851.681	-11.61
851.856	-36.18
852.031	-7.51
852.206	39.59
852.381	-21.85
852.556	53.93
852.731	64.17
852.906	-9.56
853.081	72.36
853.256	74.41
853.431	47.79
853.606	-19.8
853.781	35.5
853.956	6.83
854.131	19.11
854.305	15.02
854.48	-13.65
854.655	15.02
854.83	-17.75
855.005	17.07
855.18	33.45
855.354	0.68
855.529	-27.99
855.704	-36.18
855.879	17.07
856.053	2.73
856.228	23.21
856.403	2.73
856.577	68.27
856.752	-36.18
856.926	88.75
857.101	45.74
857.276	55.98
857.45	21.16
857.625	12.97
857.799	68.27
857.974	43.69
858.148	-17.75
858.323	60.07
858.497	47.79
858.672	2.73
858.846	-7.51
859.02	37.55
859.195	-7.51
859.369	78.51
859.543	31.4
859.718	68.27
859.892	8.87
860.066	47.79
860.241	62.12
860.415	-27.99
860.589	-25.94
860.763	10.92
860.938	12.97
861.112	-46.42
861.286	27.31
861.46	4.78
861.634	35.5
861.808	39.59
861.982	19.11
862.157	4.78
862.331	15.02
862.505	0.68
862.679	-11.61
862.853	4.78
863.027	-54.61
863.201	10.92
863.375	8.87
863.549	31.4
863.722	-38.23
863.896	-3.41
864.07	21.16
864.244	-30.04
864.418	21.16
864.592	17.07
864.766	-27.99
864.939	-7.51
865.113	-64.85
865.287	101.03
865.461	4.78
865.634	84.65
865.808	37.55
865.982	58.03
866.156	37.55
866.329	17.07
866.503	12.97
866.676	72.36
866.85	-9.56
867.024	-23.89
867.197	74.41
867.371	94.89
867.544	64.17
867.718	74.41
867.891	35.5
868.065	62.12
868.238	-15.7
868.412	31.4
868.585	-27.99
868.759	-11.61
868.932	121.51
869.105	31.4
869.279	37.55
869.452	-15.7
869.625	-11.61
869.799	43.69
869.972	15.02
870.145	-48.47
870.319	6.83
870.492	17.07
870.665	66.22
870.838	-7.51
871.011	4.78
871.185	-7.51
871.358	76.46
871.531	-32.08
871.704	-42.32
871.877	-15.7
872.05	33.45
872.223	-23.89
872.396	-44.37
872.569	8.87
872.742	-19.8
872.915	45.74
873.088	21.16
873.261	15.02
873.434	41.64
873.607	2.73
873.78	-17.75
873.953	-60.76
874.126	2.73
874.299	-7.51
874.471	-1.37
874.644	-27.99
874.817	2.73
874.99	41.64
875.163	-13.65
875.335	21.16
875.508	33.45
875.681	78.51
875.853	-77.14
876.026	15.02
876.199	12.97
876.371	25.26
876.544	51.88
876.717	15.02
876.889	-54.61
877.062	60.07
877.234	66.22
877.407	27.31
877.579	35.5
877.752	25.26
877.924	41.64
878.097	35.5
878.269	31.4
878.442	45.74
878.614	-17.75
878.786	19.11
878.959	-11.61
879.131	45.74
879.303	-21.85
879.476	55.98
879.648	17.07
879.82	45.74
879.993	10.92
880.165	49.83
880.337	58.03
880.509	-75.09
880.681	-15.7
880.854	-1.37
881.026	19.11
881.198	23.21
881.37	0.68
881.542	-25.94
881.714	-52.56
881.886	10.92
882.058	-9.56
882.23	-9.56
882.402	-23.89
882.574	37.55
882.746	58.03
882.918	-11.61
883.09	74.41
883.262	27.31
883.434	-25.94
883.606	-15.7
883.778	-11.61
883.95	66.22
884.122	58.03
884.293	12.97
884.465	-19.8
884.637	55.98
884.809	-23.89
884.98	0.68
885.152	2.73
885.324	12.97
885.496	-7.51
885.667	-58.71
885.839	-42.32
886.011	-27.99
886.182	19.11
886.354	45.74
886.525	-7.51
886.697	80.55
886.869	-46.42
887.04	-7.51
887.212	21.16
887.383	53.93
887.555	-73.04
887.726	-13.65
887.897	-136.53
888.069	-9.56
888.24	-5.46
888.412	-7.51
888.583	-13.65
888.754	-19.8
888.926	76.46
889.097	-1.37
889.268	4.78
889.44	-30.04
889.611	2.73
889.782	25.26
889.953	0.68
890.125	-15.7
890.296	-9.56
890.467	4.78
890.638	-25.94
890.809	-13.65
890.98	-81.24
891.151	21.16
891.323	-13.65
891.494	-38.23
891.665	-15.7
891.836	55.98
892.007	70.31
892.178	15.02
892.349	10.92
892.52	-23.89
892.691	115.37
892.862	29.35
893.032	-79.19
893.203	6.83
893.374	0.68
893.545	-11.61
893.716	-34.13
893.887	-58.71
894.057	37.55
894.228	-3.41
894.399	17.07
894.57	37.55
894.74	-23.89
894.911	47.79
895.082	-25.94
895.253	-21.85
895.423	-34.13
895.594	-48.47
895.764	29.35
895.935	-79.19
896.106	-13.65
896.276	-36.18
896.447	-56.66
896.617	-42.32
896.788	-3.41
896.958	64.17
897.129	109.22
897.299	-25.94
897.47	-38.23
897.64	-38.23
897.81	-3.41
897.981	27.31
898.151	-1.37
898.322	68.27
898.492	33.45
898.662	27.31
898.832	-1.37
899.003	31.4
899.173	25.26
899.343	23.21
899.513	39.59
