Data from USB4F104151__29__11-44-49-993.txt Node

Date: Fri Mar 14 11:44:49 EDT 2025
User: louis
Spectrometer: USB4F10415
Trigger mode: 4
Integration Time (sec): 2.000000E-2
Scans to average: 1
Electric dark correction enabled: true
Nonlinearity correction enabled: false
Boxcar width: 0
XAxis mode: Wavelengths
Number of Pixels in Spectrum: 3648
>>>>>Begin Spectral Data<<<<<
178.204	-113.49
178.424	-113.49
178.644	-113.49
178.864	-66.39
179.084	-97.11
179.304	9.39
179.524	3.24
179.744	40.11
179.964	46.25
180.184	-21.33
180.404	25.77
180.624	56.49
180.844	11.43
181.064	-88.92
181.283	-13.14
181.503	-52.05
181.723	-17.24
181.943	-29.52
182.163	-41.81
182.383	25.77
182.602	-29.52
182.822	17.58
183.042	27.82
183.262	-52.05
183.482	-37.72
183.701	21.67
183.921	21.67
184.141	-2.9
184.361	17.58
184.58	-11.09
184.8	-9.05
185.02	-43.86
185.239	-2.9
185.459	40.11
185.679	7.34
185.898	3.24
186.118	93.35
186.338	-27.48
186.557	-68.44
186.777	25.77
186.997	23.72
187.216	-0.85
187.436	48.3
187.655	7.34
187.875	33.96
188.095	-15.19
188.314	99.5
188.534	-7
188.753	-82.77
188.973	40.11
189.192	42.15
189.412	-7
189.631	-50
189.851	-31.57
190.07	11.43
190.29	-64.34
190.509	-11.09
190.729	40.11
190.948	29.87
191.168	113.83
191.387	-31.57
191.607	-9.05
191.826	-60.24
192.045	23.72
192.265	23.72
192.484	-39.76
192.704	27.82
192.923	-60.24
193.142	36.01
193.362	33.96
193.581	-25.43
193.8	-35.67
194.02	-9.05
194.239	11.43
194.458	60.59
194.678	9.39
194.897	-4.95
195.116	38.06
195.335	-9.05
195.555	-15.19
195.774	-27.48
195.993	-52.05
196.212	-29.52
196.432	-54.1
196.651	-35.67
196.87	-9.05
197.089	7.34
197.308	19.63
197.528	11.43
197.747	-31.57
197.966	38.06
198.185	-0.85
198.404	-19.29
198.623	-4.95
198.842	29.87
199.062	9.39
199.281	-7
199.5	-0.85
199.719	-41.81
199.938	81.07
200.157	15.53
200.376	3.24
200.595	36.01
200.814	44.2
201.033	-45.91
201.252	44.2
201.471	-43.86
201.69	-11.09
201.909	42.15
202.128	-31.57
202.347	-41.81
202.566	-11.09
202.785	72.87
203.004	-25.43
203.223	-2.9
203.442	-50
203.661	-62.29
203.879	-9.05
204.098	72.87
204.317	-95.06
204.536	23.72
204.755	-11.09
204.974	11.43
205.193	9.39
205.411	-2.9
205.63	-43.86
205.849	1.19
206.068	52.39
206.287	-50
206.505	-25.43
206.724	29.87
206.943	-105.3
207.162	-15.19
207.381	-25.43
207.599	-4.95
207.818	38.06
208.037	-4.95
208.255	3.24
208.474	-43.86
208.693	-19.29
208.911	-0.85
209.13	21.67
209.349	17.58
209.567	-29.52
209.786	42.15
210.005	29.87
210.223	-11.09
210.442	-9.05
210.661	33.96
210.879	-103.25
211.098	-47.96
211.316	64.68
211.535	40.11
211.753	21.67
211.972	1.19
212.191	-25.43
212.409	13.48
212.628	23.72
212.846	13.48
213.065	48.3
213.283	13.48
213.502	-25.43
213.72	-19.29
213.938	-17.24
214.157	-9.05
214.375	1.19
214.594	-11.09
214.812	-0.85
215.031	13.48
215.249	13.48
215.467	40.11
215.686	21.67
215.904	15.53
216.122	-17.24
216.341	95.4
216.559	25.77
216.778	-52.05
216.996	68.78
217.214	17.58
217.432	31.91
217.651	-25.43
217.869	-7
218.087	-7
218.306	-31.57
218.524	25.77
218.742	-25.43
218.96	19.63
219.179	-72.53
219.397	11.43
219.615	44.2
219.833	27.82
220.051	-52.05
220.27	1.19
220.488	5.29
220.706	-41.81
220.924	-2.9
221.142	-2.9
221.36	-58.2
221.578	19.63
221.796	-35.67
222.015	-15.19
222.233	-47.96
222.451	-27.48
222.669	-31.57
222.887	25.77
223.105	-37.72
223.323	40.11
223.541	-58.2
223.759	40.11
223.977	-25.43
224.195	101.55
224.413	66.73
224.631	58.54
224.849	68.78
225.067	-2.9
225.285	19.63
225.503	-15.19
225.721	-0.85
225.939	17.58
226.157	3.24
226.375	46.25
226.592	-41.81
226.81	101.55
227.028	38.06
227.246	33.96
227.464	-58.2
227.682	70.83
227.9	-11.09
228.117	54.44
228.335	-2.9
228.553	-17.24
228.771	23.72
228.989	7.34
229.206	27.82
229.424	-27.48
229.642	-0.85
229.86	46.25
230.077	29.87
230.295	-19.29
230.513	-21.33
230.731	-25.43
230.948	54.44
231.166	29.87
231.384	-50
231.601	-52.05
231.819	9.39
232.037	-9.05
232.254	50.35
232.472	-27.48
232.689	33.96
232.907	54.44
233.125	-11.09
233.342	17.58
233.56	-39.76
233.777	-37.72
233.995	-11.09
234.213	-31.57
234.43	-23.38
234.648	11.43
234.865	23.72
235.083	-0.85
235.3	31.91
235.518	40.11
235.735	-23.38
235.953	3.24
236.17	-9.05
236.388	-43.86
236.605	58.54
236.822	17.58
237.04	58.54
237.257	1.19
237.475	-68.44
237.692	21.67
237.909	23.72
238.127	44.2
238.344	46.25
238.562	54.44
238.779	-0.85
238.996	-37.72
239.214	40.11
239.431	-2.9
239.648	11.43
239.865	40.11
240.083	68.78
240.3	-39.76
240.517	-35.67
240.735	7.34
240.952	-0.85
241.169	72.87
241.386	42.15
241.603	33.96
241.821	-58.2
242.038	40.11
242.255	42.15
242.472	5.29
242.689	-54.1
242.907	40.11
243.124	17.58
243.341	62.63
243.558	-29.52
243.775	-35.67
243.992	-54.1
244.209	-56.15
244.426	52.39
244.643	66.73
244.86	-0.85
245.078	21.67
245.295	1.19
245.512	5.29
245.729	7.34
245.946	27.82
246.163	89.26
246.38	42.15
246.597	-58.2
246.814	15.53
247.031	-47.96
247.248	-52.05
247.464	-74.58
247.681	25.77
247.898	-27.48
248.115	48.3
248.332	-35.67
248.549	-9.05
248.766	17.58
248.983	68.78
249.2	72.87
249.417	-9.05
249.633	-23.38
249.85	-64.34
250.067	-35.67
250.284	-29.52
250.501	44.2
250.717	119.98
250.934	-70.48
251.151	29.87
251.368	-7
251.585	44.2
251.801	5.29
252.018	-39.76
252.235	56.49
252.451	27.82
252.668	-33.62
252.885	79.02
253.102	27.82
253.318	3.24
253.535	-17.24
253.752	3.24
253.968	-25.43
254.185	-52.05
254.401	89.26
254.618	-25.43
254.835	-39.76
255.051	42.15
255.268	64.68
255.484	1.19
255.701	-11.09
255.917	38.06
256.134	-15.19
256.351	5.29
256.567	42.15
256.784	17.58
257	15.53
257.217	15.53
257.433	-15.19
257.65	17.58
257.866	-19.29
258.082	-60.24
258.299	-37.72
258.515	44.2
258.732	27.82
258.948	-17.24
259.165	-13.14
259.381	7.34
259.597	-23.38
259.814	-60.24
260.03	7.34
260.246	11.43
260.463	-15.19
260.679	11.43
260.895	-23.38
261.112	-31.57
261.328	11.43
261.544	85.16
261.761	-11.09
261.977	62.63
262.193	15.53
262.409	29.87
262.626	-35.67
262.842	58.54
263.058	-78.68
263.274	-17.24
263.49	-39.76
263.707	21.67
263.923	-23.38
264.139	-15.19
264.355	48.3
264.571	36.01
264.787	-78.68
265.004	95.4
265.22	-47.96
265.436	15.53
265.652	-43.86
265.868	50.35
266.084	-62.29
266.3	46.25
266.516	3.24
266.732	76.97
266.948	5.29
267.164	-27.48
267.38	-9.05
267.596	66.73
267.812	11.43
268.028	-45.91
268.244	-13.14
268.46	-39.76
268.676	5.29
268.892	-27.48
269.108	5.29
269.324	7.34
269.54	17.58
269.756	38.06
269.972	23.72
270.188	140.46
270.403	46.25
270.619	17.58
270.835	-0.85
271.051	50.35
271.267	23.72
271.483	-25.43
271.698	40.11
271.914	76.97
272.13	3.24
272.346	27.82
272.562	72.87
272.777	-7
272.993	52.39
273.209	19.63
273.425	62.63
273.64	-29.52
273.856	46.25
274.072	-50
274.287	-45.91
274.503	-11.09
274.719	54.44
274.934	46.25
275.15	-29.52
275.366	17.58
275.581	-84.82
275.797	48.3
276.012	-50
276.228	-7
276.444	-0.85
276.659	42.15
276.875	-4.95
277.09	17.58
277.306	3.24
277.521	19.63
277.737	17.58
277.952	-45.91
278.168	-23.38
278.383	-31.57
278.599	-47.96
278.814	15.53
279.03	-7
279.245	58.54
279.461	23.72
279.676	50.35
279.892	1.19
280.107	-13.14
280.322	-7
280.538	5.29
280.753	-50
280.969	-27.48
281.184	27.82
281.399	11.43
281.615	29.87
281.83	-35.67
282.045	-43.86
282.26	7.34
282.476	81.07
282.691	-15.19
282.906	74.92
283.122	40.11
283.337	-25.43
283.552	-0.85
283.767	38.06
283.983	7.34
284.198	9.39
284.413	1.19
284.628	-11.09
284.843	17.58
285.058	-2.9
285.274	-21.33
285.489	-4.95
285.704	44.2
285.919	-11.09
286.134	74.92
286.349	25.77
286.564	-11.09
286.779	56.49
286.995	5.29
287.21	-62.29
287.425	3.24
287.64	-41.81
287.855	31.91
288.07	-37.72
288.285	68.78
288.5	13.48
288.715	-23.38
288.93	7.34
289.145	-17.24
289.36	-23.38
289.575	-9.05
289.79	-52.05
290.004	-2.9
290.219	36.01
290.434	23.72
290.649	74.92
290.864	7.34
291.079	60.59
291.294	-2.9
291.509	1.19
291.724	-17.24
291.938	44.2
292.153	36.01
292.368	21.67
292.583	21.67
292.798	3.24
293.012	11.43
293.227	-31.57
293.442	-74.58
293.657	140.46
293.871	-4.95
294.086	19.63
294.301	44.2
294.516	58.54
294.73	-0.85
294.945	54.44
295.16	36.01
295.374	-9.05
295.589	46.25
295.804	-7
296.018	17.58
296.233	50.35
296.447	44.2
296.662	-35.67
296.877	68.78
297.091	29.87
297.306	-37.72
297.52	-37.72
297.735	52.39
297.949	76.97
298.164	36.01
298.378	-13.14
298.593	-39.76
298.807	17.58
299.022	3.24
299.236	-2.9
299.451	-78.68
299.665	44.2
299.88	42.15
300.094	38.06
300.309	-0.85
300.523	21.67
300.737	-9.05
300.952	-23.38
301.166	15.53
301.381	-21.33
301.595	40.11
301.809	25.77
302.024	25.77
302.238	-64.34
302.452	38.06
302.667	1.19
302.881	46.25
303.095	54.44
303.309	23.72
303.524	-2.9
303.738	-11.09
303.952	9.39
304.166	-21.33
304.381	-52.05
304.595	44.2
304.809	-7
305.023	-13.14
305.237	42.15
305.452	-2.9
305.666	83.11
305.88	11.43
306.094	60.59
306.308	29.87
306.522	-45.91
306.736	-70.48
306.95	62.63
307.164	-29.52
307.379	-7
307.593	11.43
307.807	79.02
308.021	13.48
308.235	29.87
308.449	31.91
308.663	46.25
308.877	76.97
309.091	-13.14
309.305	-2.9
309.519	-45.91
309.733	85.16
309.947	-7
310.161	-9.05
310.374	-4.95
310.588	62.63
310.802	19.63
311.016	31.91
311.23	58.54
311.444	42.15
311.658	19.63
311.872	58.54
312.085	40.11
312.299	9.39
312.513	33.96
312.727	-0.85
312.941	3.24
313.154	31.91
313.368	3.24
313.582	-19.29
313.796	-39.76
314.009	-60.24
314.223	54.44
314.437	48.3
314.651	-15.19
314.864	25.77
315.078	40.11
315.292	-23.38
315.505	-31.57
315.719	29.87
315.933	23.72
316.146	5.29
316.36	27.82
316.573	60.59
316.787	72.87
317.001	7.34
317.214	-33.62
317.428	21.67
317.641	11.43
317.855	17.58
318.068	17.58
318.282	1.19
318.495	42.15
318.709	31.91
318.922	79.02
319.136	11.43
319.349	46.25
319.563	-25.43
319.776	-31.57
319.99	-13.14
320.203	-11.09
320.417	25.77
320.63	-58.2
320.843	115.88
321.057	-19.29
321.27	25.77
321.483	33.96
321.697	-17.24
321.91	52.39
322.124	79.02
322.337	52.39
322.55	33.96
322.763	17.58
322.977	31.91
323.19	-43.86
323.403	-11.09
323.617	-2.9
323.83	46.25
324.043	95.4
324.256	52.39
324.469	25.77
324.683	54.44
324.896	-11.09
325.109	-7
325.322	-27.48
325.535	74.92
325.748	17.58
325.962	-60.24
326.175	48.3
326.388	7.34
326.601	17.58
326.814	-21.33
327.027	72.87
327.24	-43.86
327.453	-50
327.666	11.43
327.879	62.63
328.092	46.25
328.305	-21.33
328.518	9.39
328.731	-35.67
328.944	-15.19
329.157	19.63
329.37	62.63
329.583	33.96
329.796	54.44
330.009	-43.86
330.222	1.19
330.435	-11.09
330.648	54.44
330.861	-11.09
331.073	54.44
331.286	21.67
331.499	48.3
331.712	87.21
331.925	38.06
332.138	-7
332.35	64.68
332.563	68.78
332.776	21.67
332.989	-31.57
333.202	-21.33
333.414	-15.19
333.627	21.67
333.84	1.19
334.053	-11.09
334.265	-17.24
334.478	-2.9
334.691	13.48
334.903	44.2
335.116	-41.81
335.329	-66.39
335.541	36.01
335.754	-7
335.966	-15.19
336.179	9.39
336.392	56.49
336.604	19.63
336.817	62.63
337.029	60.59
337.242	-19.29
337.454	44.2
337.667	-21.33
337.88	76.97
338.092	-2.9
338.305	29.87
338.517	-45.91
338.729	5.29
338.942	101.55
339.154	-27.48
339.367	-7
339.579	-25.43
339.792	-33.62
340.004	50.35
340.217	81.07
340.429	-50
340.641	15.53
340.854	25.77
341.066	-7
341.278	-0.85
341.491	48.3
341.703	33.96
341.915	-4.95
342.128	33.96
342.34	40.11
342.552	7.34
342.764	-25.43
342.977	13.48
343.189	-7
343.401	9.39
343.613	-39.76
343.826	50.35
344.038	23.72
344.25	-68.44
344.462	27.82
344.674	1.19
344.886	3.24
345.099	9.39
345.311	42.15
345.523	1.19
345.735	-2.9
345.947	42.15
346.159	-21.33
346.371	1.19
346.583	-2.9
346.795	31.91
347.007	-39.76
347.219	40.11
347.431	-37.72
347.643	21.67
347.855	19.63
348.067	-43.86
348.279	-9.05
348.491	46.25
348.703	25.77
348.915	-2.9
349.127	-50
349.339	36.01
349.551	15.53
349.763	83.11
349.975	-33.62
350.187	13.48
350.399	1.19
350.61	25.77
350.822	19.63
351.034	56.49
351.246	72.87
351.458	-13.14
351.669	5.29
351.881	23.72
352.093	31.91
352.305	42.15
352.517	-25.43
352.728	42.15
352.94	25.77
353.152	36.01
353.363	-74.58
353.575	13.48
353.787	83.11
353.999	42.15
354.21	117.93
354.422	-2.9
354.633	29.87
354.845	40.11
355.057	-15.19
355.268	-17.24
355.48	-0.85
355.692	-41.81
355.903	36.01
356.115	27.82
356.326	-19.29
356.538	36.01
356.749	60.59
356.961	33.96
357.172	48.3
357.384	-52.05
357.595	89.26
357.807	21.67
358.018	1.19
358.23	19.63
358.441	25.77
358.653	-35.67
358.864	23.72
359.075	-25.43
359.287	79.02
359.498	1.19
359.709	21.67
359.921	23.72
360.132	54.44
360.344	23.72
360.555	-15.19
360.766	-33.62
360.977	-29.52
361.189	40.11
361.4	70.83
361.611	3.24
361.823	54.44
362.034	-31.57
362.245	-31.57
362.456	85.16
362.667	72.87
362.879	-7
363.09	-35.67
363.301	9.39
363.512	9.39
363.723	36.01
363.935	19.63
364.146	-9.05
364.357	-11.09
364.568	31.91
364.779	-23.38
364.99	9.39
365.201	19.63
365.412	13.48
365.623	-27.48
365.834	54.44
366.045	17.58
366.256	-7
366.467	15.53
366.678	97.45
366.889	-23.38
367.1	42.15
367.311	76.97
367.522	56.49
367.733	115.88
367.944	29.87
368.155	-7
368.366	3.24
368.577	42.15
368.788	-33.62
368.999	11.43
369.209	3.24
369.42	5.29
369.631	83.11
369.842	56.49
370.053	-35.67
370.264	9.39
370.474	31.91
370.685	44.2
370.896	31.91
371.107	33.96
371.317	11.43
371.528	13.48
371.739	58.54
371.95	117.93
372.16	40.11
372.371	33.96
372.582	27.82
372.792	15.53
373.003	11.43
373.214	105.64
373.424	25.77
373.635	48.3
373.846	74.92
374.056	50.35
374.267	81.07
374.477	1.19
374.688	-23.38
374.898	40.11
375.109	38.06
375.319	52.39
375.53	119.98
375.74	33.96
375.951	38.06
376.161	40.11
376.372	87.21
376.582	13.48
376.793	83.11
377.003	-23.38
377.214	79.02
377.424	-13.14
377.635	31.91
377.845	72.87
378.055	-15.19
378.266	9.39
378.476	15.53
378.686	-39.76
378.897	17.58
379.107	-31.57
379.317	74.92
379.528	23.72
379.738	-13.14
379.948	3.24
380.158	72.87
380.369	-13.14
380.579	62.63
380.789	3.24
380.999	13.48
381.21	91.31
381.42	36.01
381.63	33.96
381.84	74.92
382.05	48.3
382.261	9.39
382.471	74.92
382.681	42.15
382.891	113.83
383.101	31.91
383.311	25.77
383.521	62.63
383.731	70.83
383.941	52.39
384.151	25.77
384.361	70.83
384.571	-27.48
384.781	93.35
384.991	79.02
385.201	140.46
385.411	68.78
385.621	62.63
385.831	42.15
386.041	-19.29
386.251	87.21
386.461	31.91
386.671	-11.09
386.881	-7
387.091	-23.38
387.301	99.5
387.511	17.58
387.72	68.78
387.93	25.77
388.14	19.63
388.35	33.96
388.56	44.2
388.769	-19.29
388.979	33.96
389.189	31.91
389.399	29.87
389.609	56.49
389.818	89.26
390.028	7.34
390.238	46.25
390.447	29.87
390.657	29.87
390.867	50.35
391.076	31.91
391.286	-35.67
391.496	23.72
391.705	44.2
391.915	85.16
392.125	-41.81
392.334	36.01
392.544	48.3
392.753	66.73
392.963	-33.62
393.172	15.53
393.382	29.87
393.591	171.18
393.801	48.3
394.01	105.64
394.22	54.44
394.429	58.54
394.639	29.87
394.848	56.49
395.058	111.78
395.267	33.96
395.477	52.39
395.686	33.96
395.895	70.83
396.105	97.45
396.314	60.59
396.524	79.02
396.733	74.92
396.942	89.26
397.152	76.97
397.361	83.11
397.57	111.78
397.78	158.89
397.989	122.02
398.198	193.7
398.407	48.3
398.617	58.54
398.826	74.92
399.035	89.26
399.244	44.2
399.453	128.17
399.663	83.11
399.872	54.44
400.081	42.15
400.29	111.78
400.499	58.54
400.708	144.55
400.917	58.54
401.127	101.55
401.336	91.31
401.545	122.02
401.754	44.2
401.963	50.35
402.172	70.83
402.381	142.5
402.59	93.35
402.799	95.4
403.008	138.41
403.217	54.44
403.426	107.69
403.635	87.21
403.844	113.83
404.053	140.46
404.262	89.26
404.471	173.22
404.68	79.02
404.888	126.12
405.097	99.5
405.306	158.89
405.515	195.75
405.724	177.32
405.933	214.18
406.142	165.03
406.35	197.8
406.559	177.32
406.768	142.5
406.977	218.28
407.185	253.09
407.394	208.04
407.603	171.18
407.812	187.56
408.02	302.25
408.229	218.28
408.438	236.71
408.646	275.62
408.855	324.77
409.064	275.62
409.272	181.42
409.481	261.29
409.69	179.37
409.898	281.77
410.107	337.06
410.315	347.3
410.524	281.77
410.733	365.73
410.941	343.21
411.15	431.27
411.358	394.4
411.567	437.41
411.775	369.83
411.984	435.36
412.192	517.28
412.401	511.14
412.609	447.65
412.818	523.43
413.026	504.99
413.234	548
413.443	539.81
413.651	521.38
413.86	623.78
414.068	672.93
414.276	597.15
414.485	613.54
414.693	750.75
414.901	785.57
415.11	754.85
415.318	750.75
415.526	883.87
415.734	838.81
415.943	890.01
416.151	914.59
416.359	847.01
416.567	967.84
416.776	984.22
416.984	1123.48
417.192	1068.19
417.4	1035.42
417.608	1090.71
417.817	1105.05
418.025	1184.92
418.233	1283.22
418.441	1238.17
418.649	1256.6
418.857	1361.05
419.065	1383.57
419.273	1359
419.481	1453.2
419.689	1635.47
419.897	1612.95
420.105	1725.58
420.313	1676.43
420.521	1764.5
420.729	1739.92
420.937	1787.02
421.145	2020.49
421.353	2038.92
421.561	2073.74
421.769	2092.17
421.977	2294.92
422.185	2210.95
422.393	2366.6
422.601	2542.72
422.809	2464.9
423.017	2679.94
423.224	2616.45
423.432	2798.72
423.64	2811.01
423.848	3179.64
424.056	2862.21
424.263	3091.58
424.471	3179.64
424.679	3257.46
424.887	3470.45
425.094	3452.02
425.302	3562.61
425.51	3802.22
425.718	3863.66
425.925	3646.58
426.133	3953.77
426.341	4166.76
426.548	4242.54
426.756	4334.7
426.964	4453.48
427.171	4650.08
427.379	4762.72
427.586	4916.32
427.794	5131.36
428.001	5268.57
428.209	5438.55
428.417	5442.65
428.624	5897.3
428.832	5635.16
429.039	5715.03
429.247	5862.48
429.454	6351.95
429.662	6747.2
429.869	6265.93
430.076	6673.48
430.284	6474.82
430.491	6806.59
430.699	7232.57
430.906	7236.67
431.114	7330.87
431.321	7537.72
431.528	7681.08
431.736	8377.39
431.943	8434.73
432.15	8322.09
432.358	8440.87
432.565	9010.21
432.772	8950.82
432.979	9368.6
433.187	9495.58
433.394	9667.61
433.601	10220.56
433.808	10275.85
434.016	10251.28
434.223	10558.47
434.43	11527.16
434.637	10961.92
434.844	11779.06
435.052	11836.41
435.259	11930.61
435.466	12258.29
435.673	11817.97
435.88	12731.37
436.087	13358.05
436.294	13235.17
436.501	13218.78
436.708	13196.26
436.915	13802.46
437.122	14511.05
437.329	14459.85
437.537	14724.04
437.743	15059.91
437.95	15082.44
438.157	15807.42
438.364	16389.04
438.571	15973.3
438.778	15987.64
438.985	17806.23
439.192	16833.45
439.399	17591.2
439.606	17122.21
439.813	18135.96
440.02	19467.14
440.227	18830.22
440.433	18774.92
440.64	19233.67
440.847	19487.62
441.054	19755.9
441.261	21068.65
441.467	20865.9
441.674	21443.43
441.881	21730.14
442.088	21971.8
442.294	21699.42
442.501	22389.59
442.708	23040.84
442.914	23698.24
443.121	24746.8
443.328	24191.8
443.534	25441.06
443.741	25025.32
443.948	24599.35
444.154	26549.01
444.361	26506.01
444.568	26338.07
444.774	26465.05
444.981	26727.19
445.187	27689.73
445.394	28551.93
445.6	28318.46
445.807	31185.61
446.013	30038.75
446.22	30307.04
446.426	31470.28
446.633	31765.19
446.839	32645.82
447.046	31460.04
447.252	33129.14
447.459	33063.6
447.665	33004.21
447.871	34620.06
448.078	36067.97
448.284	34538.14
448.491	35498.64
448.697	36715.13
448.903	37112.44
449.11	37440.11
449.316	36539.01
449.522	37427.82
449.728	37919.34
449.935	38742.62
450.141	38740.57
450.347	39328.34
450.553	38369.89
450.76	38605.41
450.966	39901.77
451.172	39385.68
451.378	40116.81
451.584	39793.23
451.791	40370.75
451.997	40548.93
452.203	40979
452.409	41120.31
452.615	40831.55
452.821	39531.09
453.027	38984.28
453.233	41230.9
453.44	39578.19
453.646	40184.39
453.852	40215.11
454.058	40954.43
454.264	39658.06
454.47	40510.02
454.676	39547.47
454.882	40766.01
455.088	37235.31
455.294	37433.97
455.5	38312.55
455.705	38574.69
455.911	36838.01
456.117	36205.19
456.323	35891.85
456.529	34036.39
456.735	35361.42
456.941	34744.98
457.147	34087.59
457.352	33098.42
457.558	32707.26
457.764	32707.26
457.97	32400.06
458.176	31673.03
458.381	31589.06
458.587	29747.94
458.793	29899.49
458.999	28162.81
459.204	30192.35
459.41	29590.25
459.616	27282.19
459.821	27503.37
460.027	27529.99
460.233	26977.04
460.438	25631.52
460.644	25678.63
460.85	24849.2
461.055	24322.87
461.261	24275.77
461.466	22330.2
461.672	22016.86
461.878	23489.35
462.083	21965.66
462.289	21644.13
462.494	21179.24
462.7	20265.85
462.905	19764.09
463.111	20403.06
463.316	20595.57
463.522	19938.17
463.727	19913.59
463.932	19921.79
464.138	19782.52
464.343	19577.73
464.549	19342.21
464.754	19846.01
464.959	19649.41
465.165	19504
465.37	18537.36
465.575	18281.36
465.781	18901.9
465.986	19213.19
466.191	18699.15
466.397	17914.78
466.602	17261.48
466.807	17810.33
467.012	17765.28
467.218	17818.52
467.423	17503.14
467.628	17865.63
467.833	18508.69
468.038	17769.37
468.244	17177.51
468.449	17537.95
468.654	17353.63
468.859	16976.81
469.064	17025.96
469.269	16333.75
469.474	16567.21
469.679	16667.56
469.885	16561.07
470.09	16640.94
470.295	16522.16
470.5	16225.2
470.705	16440.24
470.91	15735.74
471.115	15668.16
471.32	15756.22
471.525	16030.65
471.73	15647.68
471.935	15410.11
472.139	14771.15
472.344	14885.83
472.549	14818.25
472.754	14496.72
472.959	14439.37
473.164	14226.39
473.369	14214.1
473.574	14484.43
473.778	14224.34
473.983	14146.51
474.188	13982.68
474.393	13480.92
474.598	13536.22
474.802	13362.14
475.007	13284.32
475.212	13495.26
475.417	13040.61
475.621	12786.66
475.826	13157.35
476.031	12567.53
476.235	12370.93
476.44	12743.66
476.645	12278.77
476.849	12485.61
477.054	12192.75
477.259	12155.89
477.463	11924.47
477.668	11836.41
477.872	11910.13
478.077	11660.28
478.282	11465.72
478.486	11269.12
478.691	11181.06
478.895	11197.44
479.1	11088.9
479.304	11299.84
479.509	10650.63
479.713	10904.58
479.918	10763.27
480.122	10611.72
480.326	10707.98
480.531	10755.08
480.735	10630.15
480.94	10449.93
481.144	10750.98
481.348	10222.61
481.553	10544.14
481.757	10232.85
481.961	10433.55
482.166	10441.74
482.37	10329.1
482.574	10316.81
482.778	10282
482.983	10501.13
483.187	10255.37
483.391	10451.98
483.595	10195.98
483.8	10062.87
484.004	10370.06
484.208	10515.47
484.412	10112.02
484.616	10341.39
484.821	10351.63
485.025	10093.58
485.229	10347.53
485.433	10224.65
485.637	10212.37
485.841	10183.7
486.045	10185.74
486.249	10265.61
486.453	10085.39
486.657	10234.89
486.861	10322.96
487.065	9917.46
487.269	10292.24
487.473	10093.58
487.677	10093.58
487.881	10337.29
488.085	10191.89
488.289	10302.48
488.493	10062.87
488.697	10421.26
488.901	10374.16
489.105	10116.11
489.309	10142.74
489.512	10429.45
489.716	10370.06
489.92	10312.72
490.124	10228.75
490.328	10421.26
490.531	10427.4
490.735	10581
490.939	10376.2
491.143	10546.19
491.346	10677.26
491.55	10728.45
491.754	10712.07
491.958	10636.3
492.161	10718.22
492.365	10806.28
492.569	10714.12
492.772	10777.61
492.976	10755.08
493.18	10882.05
493.383	11086.85
493.587	11076.61
493.79	11238.4
493.994	10898.44
494.197	11228.16
494.401	11357.18
494.605	11394.04
494.808	11572.22
495.012	11394.04
495.215	11549.69
495.419	11594.75
495.622	11658.23
495.825	11955.19
496.029	11721.72
496.232	12262.38
496.436	12194.8
496.639	12317.68
496.843	12409.84
497.046	12493.8
497.249	12399.6
497.453	12528.62
497.656	12721.13
497.859	12770.28
498.063	12997.6
498.266	13143.01
498.469	13091.81
498.673	13378.53
498.876	13519.84
499.079	13702.11
499.282	13624.28
499.485	13949.91
499.689	13863.9
499.892	14001.11
500.095	14363.6
500.298	14427.09
500.501	14361.55
500.705	14891.98
500.908	15033.29
501.111	15154.12
501.314	15041.48
501.517	15522.75
501.72	15555.52
501.923	15684.54
502.126	16227.25
502.329	16303.03
502.532	16317.36
502.735	16337.84
502.938	16376.75
503.141	16800.68
503.344	17355.68
503.547	16819.11
503.75	17142.69
503.953	17496.99
504.156	17341.35
504.359	17791.9
504.562	17693.6
504.765	18273.17
504.968	18441.11
505.17	18518.93
505.373	18422.67
505.576	18879.37
505.779	19123.08
505.982	19018.63
506.185	19835.77
506.387	19704.7
506.59	20024.19
506.793	20024.19
506.996	20095.86
507.198	20765.55
507.401	20644.72
507.604	20796.27
507.807	21279.59
508.009	21594.98
508.212	21334.89
508.415	21846.88
508.617	21867.36
508.82	21848.93
509.022	22111.07
509.225	22756.18
509.428	22803.28
509.63	23089.99
509.833	23036.75
510.035	23313.22
510.238	23448.39
510.44	23632.71
510.643	24195.9
510.845	24347.45
511.048	24142.65
511.25	24662.83
511.453	24685.36
511.655	25609
511.858	25312.04
512.06	25701.15
512.262	25738.02
512.465	25496.36
512.667	25821.98
512.87	26368.79
513.072	26702.61
513.274	27067.15
513.477	27042.57
513.679	27491.08
513.881	27497.22
514.084	27663.11
514.286	27716.36
514.488	28207.87
514.69	28957.42
514.893	29010.67
515.095	28996.34
515.297	29205.23
515.499	29522.66
515.701	29911.78
515.904	29905.63
516.106	30139.1
516.308	30284.51
516.51	30831.32
516.712	31197.9
516.914	31455.95
517.116	31881.92
517.318	31736.52
517.52	31744.71
517.722	32088.77
517.925	32692.92
518.127	32950.96
518.329	32768.69
518.531	32563.9
518.733	33540.78
518.935	33815.21
519.136	33911.46
519.338	34300.58
519.54	34552.48
519.742	34835.1
519.944	34667.16
520.146	35193.49
520.348	35299.98
520.55	35723.91
520.752	35646.09
520.954	36170.37
521.155	36186.75
521.357	36676.22
521.559	36797.05
521.761	37300.85
521.963	37251.7
522.164	37495.41
522.366	37620.33
522.568	37894.76
522.77	37882.47
522.971	38468.19
523.173	38261.35
523.375	38791.77
523.576	38832.73
523.778	39154.26
523.98	39338.58
524.181	39737.93
524.383	39531.09
524.584	40133.19
524.786	39694.92
524.988	39760.46
525.189	40286.79
525.391	40561.22
525.592	41159.22
525.794	40796.73
525.995	40940.09
526.197	41001.53
526.398	41200.18
526.6	41620.02
526.801	41714.22
527.003	42029.61
527.204	42185.25
527.406	42179.11
527.607	42332.71
527.808	42355.24
528.01	41790
528.211	42576.42
528.412	43164.18
528.614	42871.32
528.815	42607.14
529.016	43530.77
529.218	42822.17
529.419	43217.43
529.62	43354.65
529.822	43332.12
530.023	43780.62
530.224	43424.28
530.425	43350.55
530.626	43350.55
530.828	43409.94
531.029	44204.55
531.23	43694.61
531.431	43592.21
531.632	43776.53
531.833	43872.78
532.035	43889.16
532.236	44050.95
532.437	44528.13
532.638	43864.59
532.839	44435.97
533.04	44237.32
533.241	43848.21
533.442	44849.66
533.643	44120.59
533.844	44362.25
534.045	44378.63
534.246	43936.27
534.447	44395.01
534.648	44184.07
534.849	44454.4
535.05	44030.47
535.251	44675.58
535.451	44370.44
535.652	44679.68
535.853	44259.85
536.054	44618.24
536.255	44421.64
536.456	43940.36
536.657	45240.82
536.857	44431.88
537.058	44247.56
537.259	44681.73
537.46	44337.67
537.66	44284.42
537.861	44483.08
538.062	44571.14
538.263	44487.17
538.463	43868.69
538.664	44435.97
538.865	44253.7
539.065	44378.63
539.266	43665.94
539.466	44538.37
539.667	44104.2
539.868	44489.22
540.068	44468.74
540.269	44255.75
540.469	44521.99
540.67	43760.14
540.87	44489.22
541.071	44184.07
541.271	44571.14
541.472	44249.61
541.672	44124.68
541.873	43876.88
542.073	43745.81
542.274	44382.73
542.474	43797.01
542.675	43958.8
542.875	44263.94
543.075	44081.67
543.276	43598.35
543.476	44487.17
543.676	43964.94
543.877	44339.72
544.077	44247.56
544.277	44012.04
544.478	43745.81
544.678	44268.04
544.878	43899.4
545.078	44173.83
545.279	43608.59
545.479	43997.71
545.679	44034.57
545.879	44024.33
546.079	43817.49
546.28	43860.49
546.48	43557.39
546.68	44071.43
546.88	43907.6
547.08	43903.5
547.28	43915.79
547.48	43508.24
547.68	43856.4
547.88	43649.55
548.081	44306.95
548.281	44085.77
548.481	43362.84
548.681	43969.04
548.881	43600.4
549.081	43629.07
549.28	43117.08
549.48	43565.59
549.68	43551.25
549.88	44194.31
550.08	43600.4
550.28	43911.69
550.48	43090.46
550.68	44024.33
550.88	43379.22
551.08	43272.73
551.279	44022.28
551.479	43334.17
551.679	43444.76
551.879	43704.85
552.079	43809.29
552.278	43184.66
552.478	43375.12
552.678	43082.27
552.878	43717.14
553.077	43414.04
553.277	42940.96
553.477	43692.56
553.676	43184.66
553.876	43199
554.076	42752.54
554.275	43289.11
554.475	42775.07
554.674	42795.55
554.874	43074.07
555.074	42793.5
555.273	43411.99
555.473	42981.91
555.672	42947.1
555.872	43194.9
556.071	43239.96
556.271	43274.77
556.47	42629.66
556.67	42525.22
556.869	42711.58
557.068	43082.27
557.268	42893.85
557.467	42678.82
557.667	42539.55
557.866	42183.21
558.065	42486.31
558.265	42117.67
558.464	42355.24
558.663	42314.28
558.863	42084.9
559.062	42662.43
559.261	41794.09
559.461	42377.76
559.66	42037.8
559.859	42158.63
560.058	41622.06
560.258	41943.59
560.457	41417.27
560.656	41755.18
560.855	41779.76
561.054	41835.05
561.253	41400.88
561.453	41464.37
561.652	41472.56
561.851	41642.54
562.05	41513.52
562.249	41261.62
562.448	41624.11
562.647	40882.75
562.846	41265.72
563.045	41341.49
563.244	40970.81
563.443	41712.17
563.642	40784.44
563.841	41138.74
564.04	40997.43
564.239	41251.38
564.438	40796.73
564.637	41038.39
564.836	40550.98
565.035	39940.68
565.234	40340.04
565.432	40032.84
565.631	40233.54
565.83	40415.81
566.029	40000.07
566.228	40088.13
566.427	39844.43
566.625	39694.92
566.824	39471.7
567.023	39821.9
567.222	39058.01
567.42	39823.95
567.619	39504.46
567.818	39262.8
568.016	39135.83
568.215	39631.44
568.414	39139.93
568.612	39127.64
568.811	38904.41
569.01	39076.44
569.208	38742.62
569.407	39148.12
569.605	38546.01
569.804	39094.87
570.002	38355.55
570.201	38333.03
570.4	38527.58
570.598	38025.83
570.797	38142.56
570.995	38537.82
571.193	37818.99
571.392	38496.86
571.59	37771.88
571.789	37894.76
571.987	37812.84
572.186	37956.2
572.384	37606
572.582	37978.73
572.781	37714.54
572.979	36964.98
573.177	37485.17
573.376	37546.61
573.574	37249.65
573.772	37274.23
573.971	36780.67
574.169	36858.49
574.367	36637.31
574.565	37016.18
574.763	36563.58
574.962	36391.55
575.16	36340.35
575.358	36428.41
575.556	36170.37
575.754	36618.88
575.952	36350.59
576.151	36303.49
576.349	35830.41
576.547	36229.76
576.745	36260.48
576.943	35977.86
577.141	35820.17
577.339	35744.39
577.537	35519.12
577.735	35275.41
577.933	35209.87
578.131	35752.59
578.329	34943.64
578.527	35195.54
578.725	35232.4
578.923	35218.07
579.121	34630.3
579.319	34542.24
579.516	34937.49
579.714	34878.1
579.912	34775.7
580.11	34527.9
580.308	34730.65
580.506	34466.46
580.704	33743.53
580.901	34243.23
581.099	34532
581.297	33974.95
581.495	33841.83
581.692	34026.15
581.89	33708.71
582.088	33997.48
582.285	33712.81
582.483	33712.81
582.681	33376.94
582.878	33426.09
583.076	33204.91
583.274	33407.66
583.471	32987.83
583.669	33053.36
583.866	32993.97
584.064	33088.18
584.262	32451.26
584.459	33108.66
584.657	32410.3
584.854	32907.96
585.052	32234.17
585.249	32662.2
585.447	32273.09
585.644	31992.51
585.841	32004.8
586.039	32336.57
586.236	31984.32
586.434	31716.04
586.631	31820.49
586.828	31910.6
587.026	31924.93
587.223	31599.3
587.42	31556.3
587.618	31587.02
587.815	31314.64
588.012	31189.71
588.21	31206.09
588.407	31220.43
588.604	31271.63
588.801	30796.5
588.999	30638.81
589.196	30833.36
589.393	30655.19
589.59	30673.62
589.787	30331.61
589.984	30073.57
590.182	30124.77
590.379	29989.6
590.576	30135.01
590.773	30112.48
590.97	30233.31
591.167	30210.78
591.364	29686.5
591.561	30075.62
591.758	29610.73
591.955	29596.39
592.152	29524.71
592.349	29340.39
592.546	29252.33
592.743	29360.87
592.94	29035.25
593.137	29344.49
593.334	29487.85
593.531	28762.87
593.727	29174.51
593.924	29162.22
594.121	28728.05
594.318	28721.91
594.515	28605.17
594.712	28736.24
594.908	28422.9
595.105	28670.71
595.302	28322.55
595.499	28148.48
595.696	28107.52
595.892	28060.41
596.089	27904.77
596.286	28308.22
596.482	27603.72
596.679	27869.95
596.876	28168.96
597.072	27517.7
597.269	27327.24
597.466	27185.93
597.662	27536.13
597.859	27276.04
598.055	27200.27
598.252	27026.19
598.448	26839.83
598.645	27099.92
598.841	26379.03
599.038	26925.84
599.234	26950.42
599.431	26274.59
599.627	26628.88
599.824	26692.37
600.02	26305.31
600.217	26698.52
600.413	26239.77
600.609	25998.11
600.806	26254.11
601.002	25877.28
601.198	25656.1
601.395	25783.07
601.591	25678.63
601.787	25916.19
601.984	25639.72
602.18	26032.93
602.376	25557.8
602.572	25414.44
602.769	25557.8
602.965	25144.11
603.161	25338.66
603.357	24959.79
603.553	24986.41
603.75	24947.5
603.946	24845.1
604.142	24888.11
604.338	25013.04
604.534	24826.67
604.73	24632.11
604.926	24609.59
605.122	24476.47
605.318	24400.69
605.514	24261.43
605.71	24140.6
605.906	24286.01
606.102	24347.45
606.298	23966.52
606.494	23927.61
606.69	24236.86
606.886	23980.86
607.082	23671.62
607.278	23894.85
607.474	23774.02
607.67	23776.06
607.866	23352.13
608.062	23647.04
608.257	23479.11
608.453	23784.26
608.649	23673.67
608.845	23079.75
609.041	23380.81
609.236	23391.05
609.432	22965.07
609.628	23147.34
609.824	22811.47
610.019	22885.2
610.215	22956.88
610.411	23133
610.606	22747.98
610.802	23114.57
610.998	22721.36
611.193	23018.32
611.389	22367.06
611.584	22668.11
611.78	22596.43
611.976	22659.92
612.171	22500.18
612.367	22741.84
612.562	22498.13
612.758	22354.77
612.953	22291.29
613.149	22459.22
613.344	22213.46
613.539	22520.66
613.735	22186.84
613.93	22446.93
614.126	22080.35
614.321	22367.06
614.517	22168.41
614.712	22029.15
614.907	22162.26
615.103	21779.29
615.298	21732.19
615.493	22113.11
615.688	21709.66
615.884	22197.08
616.079	21511.01
616.274	21547.87
616.47	21830.49
616.665	21769.05
616.86	21214.05
617.055	21721.95
617.25	21543.78
617.445	21680.99
617.641	21287.78
617.836	21431.14
618.031	21191.53
618.226	21398.37
618.421	20927.34
618.616	21287.78
618.811	20753.26
619.006	21183.34
619.201	20411.25
619.396	20677.49
619.591	20802.41
619.786	20583.28
619.981	20310.9
620.176	20583.28
620.371	20179.83
620.566	20292.47
620.761	20333.43
620.956	20431.73
621.151	20157.3
621.346	20306.8
621.541	19686.27
621.735	19817.34
621.93	19559.3
622.125	19911.55
622.32	19319.68
622.515	19528.58
622.709	19217.29
622.904	19051.4
623.099	19487.62
623.294	19112.84
623.488	18942.86
623.683	19018.63
623.878	18615.18
624.072	18844.56
624.267	18643.85
624.462	18553.74
624.656	18490.26
624.851	18414.48
625.046	18203.54
625.24	18271.12
625.435	17658.78
625.629	17910.68
625.824	17894.3
626.018	17763.23
626.213	17439.65
626.407	17410.98
626.602	17372.07
626.796	17513.38
626.991	17474.46
627.185	17150.88
627.38	17001.38
627.574	17040.29
627.768	16817.07
627.963	17001.38
628.157	16305.07
628.352	16657.32
628.546	16260.02
628.74	16540.59
628.935	16362.42
629.129	16415.66
629.323	15946.68
629.517	16270.26
629.712	16229.3
629.906	16135.09
630.1	15717.31
630.294	15860.66
630.489	15788.99
630.683	16030.65
630.877	15401.92
631.071	15283.14
631.265	15594.43
631.459	15348.67
631.653	15084.48
631.848	15293.38
632.042	14891.98
632.236	15348.67
632.43	14969.8
632.624	14842.82
632.818	14818.25
633.012	14664.65
633.206	14552.01
633.4	14644.17
633.594	14568.4
633.788	14580.68
633.982	14427.09
634.176	13999.06
634.369	14328.78
634.563	13994.97
634.757	13978.58
634.951	13978.58
635.145	13876.18
635.339	13822.94
635.533	13781.98
635.726	13835.22
635.92	13329.38
636.114	13511.64
636.308	13562.84
636.501	13499.36
636.695	13456.35
636.889	13341.66
637.083	13106.15
637.276	13024.23
637.47	13028.32
637.664	13155.3
637.857	12876.77
638.051	12975.08
638.244	12692.46
638.438	12696.55
638.632	12858.34
638.825	12563.43
639.019	12641.26
639.212	12575.72
639.406	12622.83
639.599	12405.74
639.793	12274.67
639.986	12213.23
640.18	12221.42
640.373	12258.29
640.567	12043.25
640.76	11856.89
640.954	11637.75
641.147	11832.31
641.34	11822.07
641.534	11985.91
641.727	11670.52
641.92	11504.64
642.114	11525.11
642.307	11594.75
642.5	11428.86
642.694	11537.4
642.887	11092.99
643.08	11373.57
643.273	11181.06
643.467	11213.82
643.66	11088.9
643.853	11052.03
644.046	11002.88
644.239	11068.42
644.432	10787.85
644.626	10714.12
644.819	10755.08
645.012	10712.07
645.205	10810.37
645.398	10654.73
645.591	10212.37
645.784	10329.1
645.977	10257.42
646.17	10474.51
646.363	10355.72
646.556	10210.32
646.749	10269.71
646.942	10150.93
647.135	10028.05
647.328	9974.8
647.521	9896.98
647.714	9911.32
647.907	9901.08
648.099	9980.95
648.292	9679.89
648.485	9872.4
648.678	9696.28
648.871	9557.02
649.064	9665.56
649.256	9739.29
649.449	9317.4
649.642	9524.25
649.835	9382.94
650.027	9403.42
650.22	9210.91
650.413	9172
650.605	9075.74
650.798	9081.89
650.991	9053.22
651.183	9303.07
651.376	8631.33
651.568	9085.98
651.761	8766.5
651.954	8768.55
652.146	8893.47
652.339	8954.91
652.531	8711.21
652.724	8686.63
652.916	8631.33
653.109	8543.27
653.301	8514.6
653.494	8668.2
653.686	8547.37
653.879	8629.29
654.071	8287.28
654.263	8418.35
654.456	8336.43
654.648	8199.21
654.84	8268.84
655.033	8127.53
655.225	8045.62
655.417	7971.89
655.61	8055.86
655.802	8117.29
655.994	7824.44
656.186	7863.35
656.379	7885.87
656.571	7926.83
656.763	7787.57
656.955	7754.8
657.148	7791.67
657.34	7840.82
657.532	7844.91
657.724	7511.1
657.916	7545.91
658.108	7621.69
658.3	7423.03
658.492	7533.62
658.684	7459.9
658.876	7160.89
659.068	7341.11
659.26	7312.44
659.452	7285.82
659.644	7373.88
659.836	7023.68
660.028	7259.2
660.22	7025.73
660.412	7033.92
660.604	6927.42
660.796	7162.94
660.988	7019.58
661.18	6947.9
661.372	6931.52
661.563	6872.13
661.755	6575.17
661.947	6798.4
662.139	6669.38
662.331	6741.06
662.522	6605.89
662.714	6612.04
662.906	6583.37
663.097	6517.83
663.289	6503.5
663.481	6425.67
663.673	6519.88
663.864	6448.2
664.056	6472.78
664.247	6444.1
664.439	6337.61
664.631	6118.48
664.822	6308.94
665.014	6300.75
665.205	6163.53
665.397	6138.96
665.588	6151.24
665.78	6313.03
665.971	6046.8
666.163	5940.3
666.354	5987.41
666.546	6108.24
666.737	5839.95
666.929	5936.21
667.12	5956.69
667.311	5885.01
667.503	5798.99
667.694	5743.7
667.885	5905.49
668.077	5680.21
668.268	5776.47
668.459	5868.63
668.651	5569.62
668.842	5559.38
669.033	5657.68
669.224	5571.67
669.416	5743.7
669.607	5481.56
669.798	5487.7
669.989	5522.52
670.18	5319.77
670.371	5332.06
670.563	5551.19
670.754	5452.89
670.945	5291.1
671.136	5454.94
671.327	5309.53
671.518	5235.8
671.709	5381.21
671.9	5395.54
672.091	5256.28
672.282	5301.34
672.473	5186.65
672.664	5104.73
672.855	5145.69
673.046	5205.08
673.237	5336.15
673.428	5119.07
673.619	5088.35
673.809	5172.32
674	5090.4
674.191	4883.55
674.382	5039.2
674.573	5045.34
674.764	5110.88
674.954	5049.44
675.145	5057.63
675.336	5010.53
675.527	5098.59
675.717	4754.53
675.908	4887.65
676.099	4779.11
676.289	4850.78
676.48	4863.07
676.671	4865.12
676.861	4889.7
677.052	4762.72
677.243	4863.07
677.433	4809.83
677.624	4738.15
677.814	4795.49
678.005	4678.76
678.195	4760.67
678.386	4754.53
678.576	4723.81
678.767	4600.93
678.957	4611.17
679.148	4609.12
679.338	4682.85
679.529	4543.59
679.719	4555.88
679.909	4607.08
680.1	4488.29
680.29	4514.92
680.481	4598.88
680.671	4570.21
680.861	4375.66
681.052	4316.26
681.242	4256.87
681.432	4451.43
681.622	4381.8
681.813	4398.18
682.003	4508.77
682.193	4420.71
682.383	4496.49
682.573	4301.93
682.764	4353.13
682.954	4402.28
683.144	4258.92
683.334	4258.92
683.524	4422.76
683.714	4355.18
683.904	4316.26
684.094	4256.87
684.284	4281.45
684.474	4166.76
684.664	4224.11
684.854	4207.72
685.044	4267.11
685.234	4164.72
685.424	4142.19
685.614	4269.16
685.804	4138.09
685.994	4076.65
686.184	4123.76
686.374	4093.04
686.564	4144.24
686.753	4103.28
686.943	3890.29
687.133	3875.95
687.323	4101.23
687.513	4107.37
687.702	3900.53
687.892	3841.14
688.082	3892.34
688.272	3904.62
688.461	3828.85
688.651	3902.58
688.841	3820.66
689.03	3814.51
689.22	3785.84
689.41	3896.43
689.599	3775.6
689.789	3849.33
689.979	3748.98
690.168	3605.62
690.358	3617.91
690.547	3667.06
690.737	3679.35
690.926	3687.54
691.116	3622
691.305	3726.45
691.495	3517.56
691.684	3579
691.874	3636.34
692.063	3558.52
692.252	3550.32
692.442	3601.52
692.631	3435.64
692.82	3425.4
693.01	3466.36
693.199	3386.49
693.388	3318.9
693.578	3306.62
693.767	3568.76
693.956	3439.73
694.146	3368.06
694.335	3359.86
694.524	3316.86
694.713	3261.56
694.902	3318.9
695.092	3343.48
695.281	3157.11
695.47	3187.83
695.659	3212.41
695.848	3204.22
696.037	3157.11
696.226	3243.13
696.415	3161.21
696.604	3165.31
696.793	3155.07
696.982	3191.93
697.171	3202.17
697.36	3128.44
697.549	3167.35
697.738	2997.37
697.927	3069.05
698.116	3099.77
698.305	3064.96
698.494	3114.11
698.683	2999.42
698.872	3089.53
699.061	2978.94
699.25	2991.23
699.438	2878.59
699.627	3091.58
699.816	3095.68
700.005	2892.93
700.193	2972.8
700.382	2958.46
700.571	2980.99
700.76	2999.42
700.948	2909.31
701.137	3095.68
701.326	2933.89
701.514	2880.64
701.703	2995.32
701.892	2956.41
702.08	3026.04
702.269	2956.41
702.457	2999.42
702.646	2886.78
702.834	2831.49
703.023	2909.31
703.212	2839.68
703.4	2880.64
703.589	2798.72
703.777	2892.93
703.965	2927.74
704.154	2778.24
704.342	2892.93
704.531	2894.97
704.719	2929.79
704.907	2921.6
705.096	2843.78
705.284	2851.97
705.472	2907.26
705.661	2942.08
705.849	2823.3
706.037	2724.99
706.226	2878.59
706.414	2884.73
706.602	2847.87
706.79	2733.18
706.979	2759.81
707.167	2768
707.355	2833.54
707.543	2628.74
707.731	2948.22
707.919	2897.02
708.107	2745.47
708.296	2690.18
708.484	2745.47
708.672	2702.47
708.86	2743.42
709.048	2831.49
709.236	2835.58
709.424	2759.81
709.612	2714.75
709.8	2759.81
709.988	2817.15
710.176	2763.9
710.364	2813.06
710.551	2704.51
710.739	2749.57
710.927	2765.95
711.115	2718.85
711.303	2745.47
711.491	2698.37
711.679	2706.56
711.866	2602.11
712.054	2669.7
712.242	2743.42
712.43	2739.33
712.617	2681.99
712.805	2702.47
712.993	2641.03
713.181	2657.41
713.368	2649.22
713.556	2698.37
713.744	2614.4
713.931	2722.95
714.119	2718.85
714.306	2643.07
714.494	2614.4
714.682	2757.76
714.869	2645.12
715.057	2724.99
715.244	2690.18
715.432	2675.84
715.619	2665.6
715.807	2518.15
715.994	2716.8
716.182	2602.11
716.369	2704.51
716.556	2645.12
716.744	2819.2
716.931	2528.39
717.119	2655.36
717.306	2686.08
717.493	2694.27
717.681	2577.54
717.868	2727.04
718.055	2692.23
718.242	2753.66
718.43	2729.09
718.617	2624.64
718.804	2763.9
718.991	2743.42
719.179	2571.4
719.366	2638.98
719.553	2673.79
719.74	2661.51
719.927	2675.84
720.114	2704.51
720.301	2667.65
720.488	2569.35
720.676	2819.2
720.863	2667.65
721.05	2706.56
721.237	2737.28
721.424	2585.73
721.611	2641.03
721.798	2579.59
721.985	2696.32
722.172	2514.05
722.358	2632.83
722.545	2716.8
722.732	2614.4
722.919	2569.35
723.106	2462.85
723.293	2630.79
723.48	2729.09
723.667	2743.42
723.853	2610.31
724.04	2643.07
724.227	2722.95
724.414	2698.37
724.6	2544.77
724.787	2677.89
724.974	2600.07
725.161	2649.22
725.347	2612.35
725.534	2630.79
725.72	2802.82
725.907	2692.23
726.094	2722.95
726.28	2630.79
726.467	2632.83
726.653	2614.4
726.84	2620.55
727.027	2780.29
727.213	2706.56
727.4	2702.47
727.586	2704.51
727.773	2649.22
727.959	2612.35
728.145	2598.02
728.332	2692.23
728.518	2667.65
728.705	2829.44
728.891	2704.51
729.077	2714.75
729.264	2696.32
729.45	2757.76
729.636	2686.08
729.823	2780.29
730.009	2657.41
730.195	2712.71
730.382	2647.17
730.568	2630.79
730.754	2714.75
730.94	2653.31
731.126	2598.02
731.313	2790.53
731.499	2694.27
731.685	2651.27
731.871	2649.22
732.057	2724.99
732.243	2712.71
732.429	2788.48
732.615	2710.66
732.801	2624.64
732.987	2688.13
733.173	2733.18
733.359	2663.55
733.545	2774.14
733.731	2739.33
733.917	2663.55
734.103	2811.01
734.289	2800.77
734.475	2770.05
734.661	2747.52
734.847	2720.9
735.033	2788.48
735.219	2671.75
735.404	2608.26
735.59	2620.55
735.776	2694.27
735.962	2782.34
736.148	2651.27
736.333	2921.6
736.519	2700.42
736.705	2661.51
736.89	2727.04
737.076	2663.55
737.262	2614.4
737.447	2620.55
737.633	2544.77
737.819	2677.89
738.004	2614.4
738.19	2671.75
738.375	2704.51
738.561	2684.03
738.747	2645.12
738.932	2704.51
739.118	2536.58
739.303	2733.18
739.489	2651.27
739.674	2653.31
739.859	2565.25
740.045	2626.69
740.23	2632.83
740.416	2512
740.601	2624.64
740.786	2575.49
740.972	2552.96
741.157	2667.65
741.342	2653.31
741.528	2624.64
741.713	2647.17
741.898	2522.24
742.084	2481.28
742.269	2598.02
742.454	2442.37
742.639	2548.87
742.824	2503.81
743.01	2514.05
743.195	2571.4
743.38	2395.27
743.565	2532.48
743.75	2481.28
743.935	2452.61
744.12	2530.44
744.305	2436.23
744.49	2430.09
744.675	2448.52
744.86	2319.5
745.045	2516.1
745.23	2421.89
745.415	2462.85
745.6	2428.04
745.785	2253.96
745.97	2280.58
746.155	2440.33
746.34	2380.93
746.525	2311.3
746.71	2352.26
746.895	2315.4
747.079	2348.17
747.264	2256.01
747.449	2299.02
747.634	2303.11
747.819	2251.91
748.003	2200.71
748.188	2169.99
748.373	2260.1
748.557	2329.74
748.742	2186.38
748.927	2264.2
749.111	2079.88
749.296	2167.95
749.481	2204.81
749.665	2229.38
749.85	2069.64
750.034	2024.59
750.219	2055.31
750.404	2081.93
750.588	2049.16
750.773	2018.44
750.957	2036.88
751.141	2083.98
751.326	1991.82
751.51	1959.05
751.695	1973.39
751.879	1870.99
752.064	1983.63
752.248	1926.29
752.432	1858.7
752.617	1922.19
752.801	1969.29
752.985	1985.68
753.17	1928.33
753.354	1832.08
753.538	1854.61
753.722	1840.27
753.907	1815.69
754.091	1866.89
754.275	1690.77
754.459	1875.09
754.643	1721.49
754.828	1801.36
755.012	1739.92
755.196	1737.87
755.38	1698.96
755.564	1770.64
755.748	1825.93
755.932	1680.53
756.116	1754.26
756.3	1799.31
756.484	1725.58
756.668	1623.19
756.852	1500.31
757.036	1596.56
757.22	1623.19
757.404	1608.85
757.588	1641.62
757.772	1639.57
757.956	1526.93
758.14	1586.32
758.323	1498.26
758.507	1643.67
758.691	1604.75
758.875	1467.54
759.059	1531.03
759.242	1453.2
759.426	1471.64
759.61	1459.35
759.794	1506.45
759.977	1481.88
760.161	1516.69
760.345	1512.6
760.528	1533.08
760.712	1451.16
760.895	1477.78
761.079	1416.34
761.263	1371.29
761.446	1408.15
761.63	1402.01
761.813	1447.06
761.997	1291.41
762.18	1375.38
762.364	1367.19
762.547	1352.85
762.731	1297.56
762.914	1391.77
763.098	1391.77
763.281	1328.28
763.464	1363.09
763.648	1270.94
763.831	1287.32
764.015	1305.75
764.198	1297.56
764.381	1238.17
764.564	1379.48
764.748	1289.37
764.931	1236.12
765.114	1254.55
765.297	1285.27
765.481	1305.75
765.664	1258.65
765.847	1107.1
766.03	1246.36
766.213	1238.17
766.397	1197.21
766.58	1205.4
766.763	1156.25
766.946	1189.02
767.129	1191.06
767.312	1213.59
767.495	1248.41
767.678	1135.77
767.861	1186.97
768.044	1229.98
768.227	1150.11
768.41	1234.07
768.593	1234.07
768.776	1141.91
768.959	1088.67
769.142	1150.11
769.324	1072.28
769.507	1107.1
769.69	1076.38
769.873	1115.29
770.056	1160.34
770.239	1082.52
770.421	1084.57
770.604	1035.42
770.787	1123.48
770.97	1016.99
771.152	1129.63
771.335	1008.8
771.518	1131.67
771.7	1090.71
771.883	1168.54
772.066	1059.99
772.248	1070.23
772.431	1029.27
772.613	976.03
772.796	900.25
772.978	947.36
773.161	955.55
773.343	1033.37
773.526	965.79
773.708	951.45
773.891	1000.6
774.073	984.22
774.256	939.16
774.438	967.84
774.621	910.49
774.803	994.46
774.985	943.26
775.168	908.44
775.35	924.83
775.532	898.2
775.715	840.86
775.897	1023.13
776.079	865.44
776.261	881.82
776.444	838.81
776.626	865.44
776.808	781.47
776.99	824.48
777.173	830.62
777.355	754.85
777.537	900.25
777.719	822.43
777.901	890.01
778.083	691.36
778.265	781.47
778.447	851.1
778.629	713.89
778.811	736.42
778.993	777.37
779.175	806.05
779.357	814.24
779.539	767.13
779.721	715.94
779.903	711.84
780.085	791.71
780.267	777.37
780.449	744.61
780.631	773.28
780.812	746.66
780.994	670.88
781.176	693.41
781.358	697.5
781.54	703.65
781.721	724.13
781.903	730.27
782.085	783.52
782.267	715.94
782.448	670.88
782.63	642.21
782.812	705.7
782.993	656.54
783.175	605.35
783.357	646.3
783.538	642.21
783.72	652.45
783.901	533.67
784.083	648.35
784.264	578.72
784.446	582.82
784.627	515.23
784.809	591.01
784.99	642.21
785.172	556.19
785.353	591.01
785.535	621.73
785.716	597.15
785.897	488.61
786.079	513.19
786.26	533.67
786.441	564.39
786.623	570.53
786.804	527.52
786.985	543.91
787.167	521.38
787.348	453.8
787.529	554.15
787.71	517.28
787.891	502.95
788.073	476.32
788.254	511.14
788.435	513.19
788.616	445.6
788.797	339.11
788.978	531.62
789.159	418.98
789.34	466.08
789.522	394.4
789.703	451.75
789.884	439.46
790.065	472.23
790.246	488.61
790.427	478.37
790.607	504.99
790.788	328.87
790.969	421.03
791.15	478.37
791.331	392.36
791.512	425.12
791.693	447.65
791.874	380.07
792.054	386.21
792.235	425.12
792.416	418.98
792.597	435.36
792.778	388.26
792.958	412.84
793.139	425.12
793.32	351.4
793.5	380.07
793.681	337.06
793.862	349.35
794.042	398.5
794.223	306.34
794.404	306.34
794.584	320.68
794.765	402.6
794.945	277.67
795.126	347.3
795.306	316.58
795.487	353.45
795.667	398.5
795.848	314.53
796.028	341.16
796.209	373.92
796.389	328.87
796.57	308.39
796.75	332.97
796.93	302.25
797.111	353.45
797.291	388.26
797.471	312.49
797.652	353.45
797.832	246.95
798.012	341.16
798.192	298.15
798.373	265.38
798.553	339.11
798.733	261.29
798.913	314.53
799.093	263.33
799.274	332.97
799.454	324.77
799.634	259.24
799.814	347.3
799.994	263.33
800.174	304.29
800.354	328.87
800.534	320.68
800.714	251.05
800.894	230.57
801.074	271.53
801.254	246.95
801.434	355.49
801.614	279.72
801.794	246.95
801.974	580.77
802.154	242.85
802.334	257.19
802.514	246.95
802.693	199.85
802.873	253.09
803.053	181.42
803.233	271.53
803.413	234.66
803.592	228.52
803.772	195.75
803.952	240.81
804.131	216.23
804.311	318.63
804.491	302.25
804.67	234.66
804.85	214.18
805.03	255.14
805.209	261.29
805.389	240.81
805.568	287.91
805.748	218.28
805.928	259.24
806.107	261.29
806.287	142.5
806.466	259.24
806.646	203.94
806.825	249
807.004	302.25
807.184	230.57
807.363	246.95
807.543	249
807.722	222.38
807.901	212.14
808.081	220.33
808.26	160.94
808.439	224.42
808.619	187.56
808.798	255.14
808.977	228.52
809.156	195.75
809.336	189.61
809.515	304.29
809.694	189.61
809.873	232.62
810.052	156.84
810.231	220.33
810.411	240.81
810.59	275.62
810.769	230.57
810.948	160.94
811.127	144.55
811.306	167.08
811.485	210.09
811.664	203.94
811.843	154.79
812.022	171.18
812.201	156.84
812.38	238.76
812.559	165.03
812.737	185.51
812.916	191.66
813.095	210.09
813.274	134.31
813.453	199.85
813.632	160.94
813.811	222.38
813.989	117.93
814.168	115.88
814.347	134.31
814.526	111.78
814.704	230.57
814.883	169.13
815.062	117.93
815.24	169.13
815.419	101.55
815.598	142.5
815.776	33.96
815.955	99.5
816.133	33.96
816.312	228.52
816.49	140.46
816.669	214.18
816.847	97.45
817.026	60.59
817.204	107.69
817.383	187.56
817.561	124.07
817.74	111.78
817.918	124.07
818.097	142.5
818.275	171.18
818.453	210.09
818.632	234.66
818.81	150.7
818.988	119.98
819.167	169.13
819.345	83.11
819.523	99.5
819.701	85.16
819.879	126.12
820.058	89.26
820.236	165.03
820.414	119.98
820.592	119.98
820.77	165.03
820.948	81.07
821.127	113.83
821.305	122.02
821.483	89.26
821.661	171.18
821.839	205.99
822.017	148.65
822.195	91.31
822.373	179.37
822.551	105.64
822.729	62.63
822.907	91.31
823.085	126.12
823.262	91.31
823.44	79.02
823.618	42.15
823.796	152.74
823.974	167.08
824.152	117.93
824.329	124.07
824.507	87.21
824.685	152.74
824.863	175.27
825.04	76.97
825.218	142.5
825.396	132.26
825.574	130.22
825.751	64.68
825.929	81.07
826.107	72.87
826.284	144.55
826.462	99.5
826.639	74.92
826.817	97.45
826.994	83.11
827.172	138.41
827.349	87.21
827.527	132.26
827.704	122.02
827.882	105.64
828.059	119.98
828.237	87.21
828.414	142.5
828.591	-2.9
828.769	175.27
828.946	42.15
829.124	140.46
829.301	132.26
829.478	146.6
829.655	107.69
829.833	66.73
830.01	40.11
830.187	91.31
830.364	31.91
830.542	95.4
830.719	177.32
830.896	33.96
831.073	74.92
831.25	64.68
831.427	23.72
831.604	48.3
831.782	68.78
831.959	85.16
832.136	70.83
832.313	52.39
832.49	107.69
832.667	97.45
832.844	95.4
833.021	81.07
833.198	-37.72
833.374	72.87
833.551	72.87
833.728	146.6
833.905	66.73
834.082	40.11
834.259	85.16
834.436	93.35
834.612	52.39
834.789	46.25
834.966	93.35
835.143	68.78
835.319	-25.43
835.496	46.25
835.673	62.63
835.85	68.78
836.026	81.07
836.203	50.35
836.38	81.07
836.556	66.73
836.733	66.73
836.909	107.69
837.086	19.63
837.262	-9.05
837.439	54.44
837.616	21.67
837.792	87.21
837.968	83.11
838.145	-23.38
838.321	62.63
838.498	109.74
838.674	58.54
838.851	38.06
839.027	91.31
839.203	23.72
839.38	128.17
839.556	-2.9
839.732	60.59
839.909	9.39
840.085	66.73
840.261	54.44
840.437	13.48
840.614	-43.86
840.79	62.63
840.966	79.02
841.142	40.11
841.318	105.64
841.494	-25.43
841.671	38.06
841.847	128.17
842.023	56.49
842.199	76.97
842.375	119.98
842.551	7.34
842.727	25.77
842.903	66.73
843.079	31.91
843.255	17.58
843.431	15.53
843.607	76.97
843.783	-29.52
843.959	81.07
844.134	50.35
844.31	36.01
844.486	-52.05
844.662	58.54
844.838	25.77
845.013	15.53
845.189	38.06
845.365	33.96
845.541	62.63
845.716	-7
845.892	54.44
846.068	42.15
846.244	23.72
846.419	27.82
846.595	15.53
846.77	54.44
846.946	1.19
847.122	44.2
847.297	124.07
847.473	76.97
847.648	62.63
847.824	19.63
847.999	44.2
848.175	-27.48
848.35	-27.48
848.526	50.35
848.701	144.55
848.876	87.21
849.052	109.74
849.227	17.58
849.403	33.96
849.578	81.07
849.753	-82.77
849.929	66.73
850.104	-43.86
850.279	38.06
850.454	33.96
850.63	9.39
850.805	-4.95
850.98	3.24
851.155	54.44
851.33	9.39
851.505	25.77
851.681	72.87
851.856	23.72
852.031	91.31
852.206	31.91
852.381	46.25
852.556	36.01
852.731	44.2
852.906	79.02
853.081	36.01
853.256	48.3
853.431	-11.09
853.606	-11.09
853.781	-21.33
853.956	36.01
854.131	-29.52
854.305	-31.57
854.48	46.25
854.655	-21.33
854.83	-35.67
855.005	-33.62
855.18	-19.29
855.354	-2.9
855.529	17.58
855.704	40.11
855.879	44.2
856.053	56.49
856.228	9.39
856.403	13.48
856.577	33.96
856.752	-25.43
856.926	-0.85
857.101	-37.72
857.276	7.34
857.45	-35.67
857.625	93.35
857.799	31.91
857.974	76.97
858.148	-37.72
858.323	-21.33
858.497	-9.05
858.672	-33.62
858.846	-27.48
859.02	-21.33
859.195	21.67
859.369	27.82
859.543	-43.86
859.718	3.24
859.892	-80.72
860.066	58.54
860.241	5.29
860.415	15.53
860.589	-11.09
860.763	42.15
860.938	21.67
861.112	-2.9
861.286	-9.05
861.46	48.3
861.634	36.01
861.808	-4.95
861.982	36.01
862.157	-2.9
862.331	-4.95
862.505	-23.38
862.679	40.11
862.853	-9.05
863.027	23.72
863.201	81.07
863.375	15.53
863.549	-33.62
863.722	5.29
863.896	52.39
864.07	5.29
864.244	-45.91
864.418	103.59
864.592	58.54
864.766	13.48
864.939	-74.58
865.113	17.58
865.287	9.39
865.461	3.24
865.634	48.3
865.808	7.34
865.982	42.15
866.156	17.58
866.329	-15.19
866.503	-11.09
866.676	70.83
866.85	-0.85
867.024	-0.85
867.197	27.82
867.371	17.58
867.544	-45.91
867.718	-60.24
867.891	68.78
868.065	25.77
868.238	-35.67
868.412	62.63
868.585	15.53
868.759	-29.52
868.932	54.44
869.105	13.48
869.279	21.67
869.452	-33.62
869.625	56.49
869.799	-19.29
869.972	5.29
870.145	29.87
870.319	87.21
870.492	3.24
870.665	-43.86
870.838	-15.19
871.011	-43.86
871.185	-4.95
871.358	-2.9
871.531	-27.48
871.704	-15.19
871.877	58.54
872.05	7.34
872.223	-43.86
872.396	-13.14
872.569	38.06
872.742	-45.91
872.915	-17.24
873.088	-4.95
873.261	-13.14
873.434	-80.72
873.607	48.3
873.78	-56.15
873.953	-31.57
874.126	27.82
874.299	-13.14
874.471	-56.15
874.644	-17.24
874.817	-27.48
874.99	76.97
875.163	23.72
875.335	-15.19
875.508	-93.01
875.681	-37.72
875.853	48.3
876.026	-15.19
876.199	-2.9
876.371	-56.15
876.544	13.48
876.717	107.69
876.889	66.73
877.062	-84.82
877.234	7.34
877.407	9.39
877.579	62.63
877.752	3.24
877.924	13.48
878.097	-4.95
878.269	-52.05
878.442	-11.09
878.614	-56.15
878.786	-15.19
878.959	-29.52
879.131	23.72
879.303	-21.33
879.476	31.91
879.648	-43.86
879.82	-9.05
879.993	-70.48
880.165	19.63
880.337	-23.38
880.509	27.82
880.681	-2.9
880.854	-60.24
881.026	27.82
881.198	31.91
881.37	-11.09
881.542	13.48
881.714	-31.57
881.886	46.25
882.058	-4.95
882.23	13.48
882.402	-21.33
882.574	9.39
882.746	-13.14
882.918	48.3
883.09	68.78
883.262	19.63
883.434	-80.72
883.606	-27.48
883.778	-47.96
883.95	130.22
884.122	-31.57
884.293	3.24
884.465	-45.91
884.637	3.24
884.809	-29.52
884.98	-15.19
885.152	-68.44
885.324	-7
885.496	9.39
885.667	-66.39
885.839	-54.1
886.011	31.91
886.182	25.77
886.354	42.15
886.525	-29.52
886.697	64.68
886.869	-43.86
887.04	42.15
887.212	-11.09
887.383	-29.52
887.555	-17.24
887.726	-21.33
887.897	-17.24
888.069	-19.29
888.24	-17.24
888.412	-33.62
888.583	-101.2
888.754	9.39
888.926	-39.76
889.097	-2.9
889.268	-39.76
889.44	-29.52
889.611	-31.57
889.782	-60.24
889.953	7.34
890.125	33.96
890.296	-56.15
890.467	19.63
890.638	-9.05
890.809	3.24
890.98	-23.38
891.151	-4.95
891.323	29.87
891.494	79.02
891.665	-35.67
891.836	-82.77
892.007	-31.57
892.178	21.67
892.349	64.68
892.52	-19.29
892.691	-58.2
892.862	-54.1
893.032	-78.68
893.203	-21.33
893.374	-33.62
893.545	-76.63
893.716	-101.2
893.887	1.19
894.057	-15.19
894.228	76.97
894.399	-33.62
894.57	-7
894.74	-58.2
894.911	-27.48
895.082	-41.81
895.253	17.58
895.423	15.53
895.594	40.11
895.764	15.53
895.935	-13.14
896.106	46.25
896.276	-60.24
896.447	-7
896.617	-70.48
896.788	-23.38
896.958	-41.81
897.129	-23.38
897.299	-140.12
897.47	-45.91
897.64	-33.62
897.81	-7
897.981	31.91
898.151	-35.67
898.322	-54.1
898.492	-11.09
898.662	3.24
898.832	7.34
899.003	7.34
899.173	-35.67
899.343	-54.1
899.513	-17.24
