Data from USB4F104151__73__11-45-28-188.txt Node

Date: Fri Mar 14 11:45:28 EDT 2025
User: louis
Spectrometer: USB4F10415
Trigger mode: 4
Integration Time (sec): 2.000000E-2
Scans to average: 1
Electric dark correction enabled: true
Nonlinearity correction enabled: false
Boxcar width: 0
XAxis mode: Wavelengths
Number of Pixels in Spectrum: 3648
>>>>>Begin Spectral Data<<<<<
178.204	-57
178.424	-57
178.644	-57
178.864	-48.81
179.084	-50.86
179.304	-20.14
179.524	-26.28
179.744	16.73
179.964	18.77
180.184	-30.38
180.404	-48.81
180.624	24.92
180.844	16.73
181.064	-50.86
181.283	51.54
181.503	8.53
181.723	39.25
181.943	-40.62
182.163	31.06
182.383	24.92
182.602	-3.75
182.822	35.16
183.042	102.74
183.262	24.92
183.482	29.01
183.701	45.4
183.921	4.44
184.141	24.92
184.361	65.88
184.58	10.58
184.8	-28.33
185.02	6.49
185.239	12.63
185.459	-11.95
185.679	51.54
185.898	-42.67
186.118	84.31
186.338	29.01
186.557	29.01
186.777	37.2
186.997	-26.28
187.216	-13.99
187.436	-16.04
187.655	22.87
187.875	90.45
188.095	37.2
188.314	55.64
188.534	43.35
188.753	69.97
188.973	82.26
189.192	67.92
189.412	37.2
189.631	69.97
189.851	41.3
190.07	-20.14
190.29	45.4
190.509	55.64
190.729	-3.75
190.948	131.41
191.168	102.74
191.387	37.2
191.607	-32.43
191.826	57.68
192.045	26.96
192.265	47.44
192.484	61.78
192.704	20.82
192.923	-30.38
193.142	115.03
193.362	59.73
193.581	35.16
193.8	47.44
194.02	67.92
194.239	26.96
194.458	72.02
194.678	55.64
194.897	-11.95
195.116	-9.9
195.335	0.34
195.555	16.73
195.774	-3.75
195.993	37.2
196.212	-24.23
196.432	33.11
196.651	57.68
196.87	6.49
197.089	20.82
197.308	96.6
197.528	37.2
197.747	-3.75
197.966	88.4
198.185	121.17
198.404	4.44
198.623	102.74
198.842	29.01
199.062	133.46
199.281	61.78
199.5	-18.09
199.719	80.21
199.938	53.59
200.157	61.78
200.376	72.02
200.595	33.11
200.814	4.44
201.033	67.92
201.252	84.31
201.471	65.88
201.69	63.83
201.909	-5.8
202.128	86.36
202.347	86.36
202.566	-30.38
202.785	39.25
203.004	65.88
203.223	39.25
203.442	78.16
203.661	12.63
203.879	8.53
204.098	82.26
204.317	8.53
204.536	41.3
204.755	4.44
204.974	14.68
205.193	33.11
205.411	35.16
205.63	-5.8
205.849	-16.04
206.068	-3.75
206.287	72.02
206.505	119.12
206.724	55.64
206.943	24.92
207.162	35.16
207.381	29.01
207.599	26.96
207.818	43.35
208.037	47.44
208.255	57.68
208.474	57.68
208.693	47.44
208.911	-36.52
209.13	37.2
209.349	12.63
209.567	43.35
209.786	82.26
210.005	20.82
210.223	-13.99
210.442	-73.39
210.661	10.58
210.879	29.01
211.098	49.49
211.316	31.06
211.535	22.87
211.753	41.3
211.972	69.97
212.191	39.25
212.409	-30.38
212.628	-38.57
212.846	12.63
213.065	29.01
213.283	-9.9
213.502	20.82
213.72	14.68
213.938	90.45
214.157	51.54
214.375	8.53
214.594	90.45
214.812	-22.19
215.031	6.49
215.249	88.4
215.467	31.06
215.686	0.34
215.904	84.31
216.122	67.92
216.341	53.59
216.559	67.92
216.778	49.49
216.996	61.78
217.214	-42.67
217.432	92.5
217.651	45.4
217.869	20.82
218.087	86.36
218.306	94.55
218.524	45.4
218.742	-26.28
218.96	86.36
219.179	-28.33
219.397	6.49
219.615	35.16
219.833	119.12
220.051	-26.28
220.27	112.98
220.488	37.2
220.706	84.31
220.924	26.96
221.142	47.44
221.36	12.63
221.578	4.44
221.796	24.92
222.015	53.59
222.233	20.82
222.451	98.64
222.669	4.44
222.887	-9.9
223.105	-1.71
223.323	90.45
223.541	-102.06
223.759	33.11
223.977	-5.8
224.195	86.36
224.413	39.25
224.631	112.98
224.849	-16.04
225.067	10.58
225.285	88.4
225.503	47.44
225.721	2.39
225.939	53.59
226.157	24.92
226.375	74.07
226.592	35.16
226.81	123.22
227.028	16.73
227.246	137.56
227.464	74.07
227.682	67.92
227.9	76.12
228.117	22.87
228.335	10.58
228.553	24.92
228.771	6.49
228.989	33.11
229.206	-3.75
229.424	18.77
229.642	14.68
229.86	43.35
230.077	20.82
230.295	24.92
230.513	61.78
230.731	20.82
230.948	22.87
231.166	76.12
231.384	16.73
231.601	18.77
231.819	65.88
232.037	29.01
232.254	-1.71
232.472	110.93
232.689	35.16
232.907	49.49
233.125	74.07
233.342	16.73
233.56	12.63
233.777	0.34
233.995	51.54
234.213	33.11
234.43	10.58
234.648	29.01
234.865	65.88
235.083	55.64
235.3	20.82
235.518	45.4
235.735	137.56
235.953	57.68
236.17	33.11
236.388	-44.71
236.605	-5.8
236.822	10.58
237.04	-3.75
237.257	37.2
237.475	43.35
237.692	0.34
237.909	16.73
238.127	14.68
238.344	53.59
238.562	35.16
238.779	47.44
238.996	-13.99
239.214	47.44
239.431	47.44
239.648	45.4
239.865	53.59
240.083	20.82
240.3	6.49
240.517	0.34
240.735	35.16
240.952	100.69
241.169	-9.9
241.386	51.54
241.603	4.44
241.821	-5.8
242.038	78.16
242.255	63.83
242.472	-26.28
242.689	100.69
242.907	2.39
243.124	74.07
243.341	29.01
243.558	41.3
243.775	-13.99
243.992	16.73
244.209	24.92
244.426	61.78
244.643	86.36
244.86	-57
245.078	74.07
245.295	84.31
245.512	59.73
245.729	-20.14
245.946	37.2
246.163	14.68
246.38	47.44
246.597	-38.57
246.814	24.92
247.031	55.64
247.248	49.49
247.464	37.2
247.681	-13.99
247.898	65.88
248.115	-16.04
248.332	-3.75
248.549	106.84
248.766	84.31
248.983	37.2
249.2	14.68
249.417	59.73
249.633	0.34
249.85	80.21
250.067	-3.75
250.284	47.44
250.501	35.16
250.717	74.07
250.934	35.16
251.151	-3.75
251.368	-13.99
251.585	69.97
251.801	72.02
252.018	31.06
252.235	55.64
252.451	8.53
252.668	-7.85
252.885	47.44
253.102	67.92
253.318	35.16
253.535	-20.14
253.752	-28.33
253.968	59.73
254.185	-28.33
254.401	-7.85
254.618	24.92
254.835	61.78
255.051	24.92
255.268	16.73
255.484	4.44
255.701	59.73
255.917	18.77
256.134	10.58
256.351	29.01
256.567	-50.86
256.784	53.59
257	26.96
257.217	78.16
257.433	67.92
257.65	24.92
257.866	45.4
258.082	14.68
258.299	55.64
258.515	102.74
258.732	55.64
258.948	69.97
259.165	4.44
259.381	-1.71
259.597	29.01
259.814	39.25
260.03	69.97
260.246	35.16
260.463	-32.43
260.679	59.73
260.895	2.39
261.112	18.77
261.328	4.44
261.544	59.73
261.761	74.07
261.977	-24.23
262.193	-30.38
262.409	51.54
262.626	41.3
262.842	12.63
263.058	-7.85
263.274	41.3
263.49	37.2
263.707	59.73
263.923	88.4
264.139	0.34
264.355	20.82
264.571	39.25
264.787	-16.04
265.004	55.64
265.22	4.44
265.436	55.64
265.652	29.01
265.868	-1.71
266.084	12.63
266.3	31.06
266.516	-26.28
266.732	4.44
266.948	162.13
267.164	55.64
267.38	76.12
267.596	26.96
267.812	82.26
268.028	22.87
268.244	-44.71
268.46	74.07
268.676	72.02
268.892	51.54
269.108	29.01
269.324	37.2
269.54	26.96
269.756	117.08
269.972	6.49
270.188	49.49
270.403	20.82
270.619	45.4
270.835	100.69
271.051	18.77
271.267	24.92
271.483	6.49
271.698	20.82
271.914	39.25
272.13	33.11
272.346	35.16
272.562	-34.47
272.777	94.55
272.993	-44.71
273.209	-5.8
273.425	10.58
273.64	-26.28
273.856	74.07
274.072	61.78
274.287	31.06
274.503	51.54
274.719	8.53
274.934	59.73
275.15	22.87
275.366	59.73
275.581	-79.53
275.797	-50.86
276.012	88.4
276.228	22.87
276.444	115.03
276.659	-5.8
276.875	-7.85
277.09	37.2
277.306	47.44
277.521	22.87
277.737	47.44
277.952	67.92
278.168	-3.75
278.383	72.02
278.599	61.78
278.814	69.97
279.03	14.68
279.245	51.54
279.461	24.92
279.676	102.74
279.892	6.49
280.107	47.44
280.322	10.58
280.538	57.68
280.753	98.64
280.969	49.49
281.184	69.97
281.399	-24.23
281.615	108.88
281.83	0.34
282.045	-61.1
282.26	-11.95
282.476	59.73
282.691	55.64
282.906	29.01
283.122	94.55
283.337	-26.28
283.552	74.07
283.767	-9.9
283.983	96.6
284.198	37.2
284.413	33.11
284.628	-9.9
284.843	33.11
285.058	39.25
285.274	-18.09
285.489	4.44
285.704	69.97
285.919	59.73
286.134	-11.95
286.349	47.44
286.564	37.2
286.779	74.07
286.995	59.73
287.21	57.68
287.425	49.49
287.64	59.73
287.855	61.78
288.07	-20.14
288.285	61.78
288.5	55.64
288.715	20.82
288.93	43.35
289.145	51.54
289.36	41.3
289.575	2.39
289.79	31.06
290.004	51.54
290.219	29.01
290.434	-16.04
290.649	96.6
290.864	61.78
291.079	-7.85
291.294	96.6
291.509	16.73
291.724	65.88
291.938	37.2
292.153	39.25
292.368	41.3
292.583	76.12
292.798	16.73
293.012	94.55
293.227	-40.62
293.442	37.2
293.657	82.26
293.871	96.6
294.086	67.92
294.301	178.51
294.516	31.06
294.73	26.96
294.945	-13.99
295.16	-13.99
295.374	69.97
295.589	59.73
295.804	112.98
296.018	20.82
296.233	74.07
296.447	-9.9
296.662	-40.62
296.877	22.87
297.091	121.17
297.306	76.12
297.52	20.82
297.735	6.49
297.949	31.06
298.164	24.92
298.378	-20.14
298.593	24.92
298.807	-42.67
299.022	31.06
299.236	49.49
299.451	67.92
299.665	22.87
299.88	10.58
300.094	10.58
300.309	12.63
300.523	-20.14
300.737	-9.9
300.952	16.73
301.166	16.73
301.381	53.59
301.595	22.87
301.809	131.41
302.024	37.2
302.238	-9.9
302.452	63.83
302.667	-34.47
302.881	10.58
303.095	55.64
303.309	63.83
303.524	51.54
303.738	151.89
303.952	57.68
304.166	12.63
304.381	-73.39
304.595	78.16
304.809	90.45
305.023	94.55
305.237	29.01
305.452	14.68
305.666	53.59
305.88	65.88
306.094	51.54
306.308	-7.85
306.522	78.16
306.736	-20.14
306.95	47.44
307.164	4.44
307.379	76.12
307.593	47.44
307.807	69.97
308.021	117.08
308.235	63.83
308.449	12.63
308.663	98.64
308.877	45.4
309.091	12.63
309.305	72.02
309.519	18.77
309.733	53.59
309.947	-11.95
310.161	67.92
310.374	74.07
310.588	63.83
310.802	12.63
311.016	35.16
311.23	49.49
311.444	33.11
311.658	53.59
311.872	49.49
312.085	26.96
312.299	84.31
312.513	55.64
312.727	-5.8
312.941	92.5
313.154	37.2
313.368	117.08
313.582	-11.95
313.796	20.82
314.009	26.96
314.223	55.64
314.437	78.16
314.651	67.92
314.864	10.58
315.078	-28.33
315.292	45.4
315.505	29.01
315.719	86.36
315.933	94.55
316.146	82.26
316.36	37.2
316.573	59.73
316.787	76.12
317.001	94.55
317.214	10.58
317.428	59.73
317.641	22.87
317.855	-13.99
318.068	49.49
318.282	78.16
318.495	45.4
318.709	67.92
318.922	123.22
319.136	-20.14
319.349	4.44
319.563	57.68
319.776	49.49
319.99	39.25
320.203	26.96
320.417	51.54
320.63	55.64
320.843	98.64
321.057	59.73
321.27	39.25
321.483	57.68
321.697	145.75
321.91	72.02
322.124	-34.47
322.337	41.3
322.55	55.64
322.763	-7.85
322.977	43.35
323.19	6.49
323.403	-7.85
323.617	22.87
323.83	72.02
324.043	65.88
324.256	63.83
324.469	33.11
324.683	88.4
324.896	-44.71
325.109	29.01
325.322	61.78
325.535	35.16
325.748	115.03
325.962	31.06
326.175	-13.99
326.388	112.98
326.601	72.02
326.814	117.08
327.027	55.64
327.24	65.88
327.453	-63.15
327.666	115.03
327.879	74.07
328.092	24.92
328.305	37.2
328.518	-13.99
328.731	20.82
328.944	24.92
329.157	43.35
329.37	-13.99
329.583	76.12
329.796	37.2
330.009	0.34
330.222	22.87
330.435	90.45
330.648	-22.19
330.861	59.73
331.073	35.16
331.286	65.88
331.499	106.84
331.712	26.96
331.925	72.02
332.138	106.84
332.35	10.58
332.563	90.45
332.776	90.45
332.989	-3.75
333.202	16.73
333.414	39.25
333.627	35.16
333.84	24.92
334.053	108.88
334.265	6.49
334.478	67.92
334.691	92.5
334.903	63.83
335.116	90.45
335.329	41.3
335.541	37.2
335.754	41.3
335.966	37.2
336.179	35.16
336.392	-20.14
336.604	84.31
336.817	45.4
337.029	72.02
337.242	72.02
337.454	35.16
337.667	39.25
337.88	100.69
338.092	33.11
338.305	-24.23
338.517	131.41
338.729	112.98
338.942	-1.71
339.154	78.16
339.367	45.4
339.579	41.3
339.792	14.68
340.004	29.01
340.217	33.11
340.429	47.44
340.641	4.44
340.854	-22.19
341.066	55.64
341.278	20.82
341.491	86.36
341.703	74.07
341.915	-36.52
342.128	121.17
342.34	18.77
342.552	86.36
342.764	51.54
342.977	133.46
343.189	53.59
343.401	59.73
343.613	51.54
343.826	22.87
344.038	82.26
344.25	-7.85
344.462	24.92
344.674	53.59
344.886	8.53
345.099	45.4
345.311	8.53
345.523	57.68
345.735	59.73
345.947	121.17
346.159	45.4
346.371	72.02
346.583	-44.71
346.795	123.22
347.007	-3.75
347.219	127.32
347.431	78.16
347.643	151.89
347.855	-18.09
348.067	8.53
348.279	41.3
348.491	80.21
348.703	33.11
348.915	33.11
349.127	-5.8
349.339	57.68
349.551	26.96
349.763	-16.04
349.975	-18.09
350.187	35.16
350.399	61.78
350.61	43.35
350.822	-18.09
351.034	78.16
351.246	18.77
351.458	-5.8
351.669	86.36
351.881	90.45
352.093	37.2
352.305	-13.99
352.517	102.74
352.728	149.84
352.94	53.59
353.152	2.39
353.363	-11.95
353.575	20.82
353.787	102.74
353.999	63.83
354.21	6.49
354.422	45.4
354.633	88.4
354.845	104.79
355.057	49.49
355.268	39.25
355.48	6.49
355.692	69.97
355.903	84.31
356.115	8.53
356.326	72.02
356.538	115.03
356.749	74.07
356.961	86.36
357.172	90.45
357.384	72.02
357.595	-5.8
357.807	74.07
358.018	139.6
358.23	22.87
358.441	86.36
358.653	72.02
358.864	-11.95
359.075	-7.85
359.287	90.45
359.498	84.31
359.709	137.56
359.921	41.3
360.132	72.02
360.344	90.45
360.555	-20.14
360.766	65.88
360.977	65.88
361.189	94.55
361.4	127.32
361.611	106.84
361.823	57.68
362.034	31.06
362.245	55.64
362.456	16.73
362.667	51.54
362.879	51.54
363.09	67.92
363.301	-1.71
363.512	39.25
363.723	-30.38
363.935	14.68
364.146	72.02
364.357	8.53
364.568	65.88
364.779	92.5
364.99	49.49
365.201	12.63
365.412	110.93
365.623	94.55
365.834	127.32
366.045	53.59
366.256	110.93
366.467	67.92
366.678	35.16
366.889	-3.75
367.1	6.49
367.311	51.54
367.522	69.97
367.733	33.11
367.944	-26.28
368.155	-11.95
368.366	127.32
368.577	47.44
368.788	41.3
368.999	2.39
369.209	20.82
369.42	104.79
369.631	67.92
369.842	22.87
370.053	88.4
370.264	2.39
370.474	100.69
370.685	51.54
370.896	133.46
371.107	41.3
371.317	47.44
371.528	33.11
371.739	74.07
371.95	26.96
372.16	35.16
372.371	57.68
372.582	51.54
372.792	16.73
373.003	65.88
373.214	6.49
373.424	31.06
373.635	26.96
373.846	131.41
374.056	-3.75
374.267	22.87
374.477	61.78
374.688	117.08
374.898	78.16
375.109	47.44
375.319	84.31
375.53	57.68
375.74	86.36
375.951	69.97
376.161	102.74
376.372	24.92
376.582	55.64
376.793	33.11
377.003	106.84
377.214	61.78
377.424	78.16
377.635	102.74
377.845	-11.95
378.055	106.84
378.266	12.63
378.476	37.2
378.686	63.83
378.897	86.36
379.107	-20.14
379.317	112.98
379.528	94.55
379.738	74.07
379.948	43.35
380.158	72.02
380.369	16.73
380.579	45.4
380.789	80.21
380.999	153.94
381.21	6.49
381.42	123.22
381.63	2.39
381.84	67.92
382.05	92.5
382.261	65.88
382.471	112.98
382.681	108.88
382.891	39.25
383.101	37.2
383.311	20.82
383.521	55.64
383.731	72.02
383.941	69.97
384.151	45.4
384.361	39.25
384.571	78.16
384.781	104.79
384.991	86.36
385.201	61.78
385.411	90.45
385.621	104.79
385.831	74.07
386.041	67.92
386.251	94.55
386.461	117.08
386.671	90.45
386.881	82.26
387.091	94.55
387.301	98.64
387.511	37.2
387.72	108.88
387.93	106.84
388.14	10.58
388.35	94.55
388.56	74.07
388.769	78.16
388.979	80.21
389.189	24.92
389.399	123.22
389.609	72.02
389.818	94.55
390.028	72.02
390.238	67.92
390.447	12.63
390.657	61.78
390.867	82.26
391.076	2.39
391.286	39.25
391.496	112.98
391.705	86.36
391.915	90.45
392.125	35.16
392.334	100.69
392.544	94.55
392.753	72.02
392.963	59.73
393.172	61.78
393.382	59.73
393.591	88.4
393.801	147.8
394.01	119.12
394.22	119.12
394.429	155.99
394.639	53.59
394.848	84.31
395.058	94.55
395.267	139.6
395.477	143.7
395.686	55.64
395.895	115.03
396.105	131.41
396.314	102.74
396.524	100.69
396.733	69.97
396.942	84.31
397.152	16.73
397.361	172.37
397.57	86.36
397.78	88.4
397.989	88.4
398.198	106.84
398.407	123.22
398.617	172.37
398.826	147.8
399.035	139.6
399.244	192.85
399.453	74.07
399.663	153.94
399.872	100.69
400.081	108.88
400.29	192.85
400.499	131.41
400.708	160.08
400.917	67.92
401.127	131.41
401.336	18.77
401.545	186.71
401.754	106.84
401.963	143.7
402.172	145.75
402.381	41.3
402.59	92.5
402.799	110.93
403.008	160.08
403.217	80.21
403.426	160.08
403.635	78.16
403.844	158.03
404.053	92.5
404.262	125.27
404.471	180.56
404.68	151.89
404.888	143.7
405.097	196.95
405.306	151.89
405.515	110.93
405.724	145.75
405.933	184.66
406.142	178.51
406.35	74.07
406.559	201.04
406.768	155.99
406.977	174.42
407.185	242
407.394	209.23
407.603	213.33
407.812	231.76
408.02	274.77
408.229	227.67
408.438	205.14
408.646	137.56
408.855	205.14
409.064	270.67
409.272	291.15
409.481	239.95
409.69	192.85
409.898	192.85
410.107	338.26
410.315	321.87
410.524	330.06
410.733	325.97
410.941	276.82
411.15	309.58
411.358	328.02
411.567	383.31
411.775	338.26
411.984	409.94
412.192	375.12
412.401	409.94
412.609	530.77
412.818	500.05
413.026	403.79
413.234	461.13
413.443	502.09
413.651	614.73
413.86	512.33
414.068	510.29
414.276	641.36
414.485	541.01
414.693	717.13
414.901	696.65
415.11	620.88
415.318	594.25
415.526	700.75
415.734	649.55
415.943	778.57
416.151	780.62
416.359	885.06
416.567	776.52
416.776	872.78
416.984	872.78
417.192	917.83
417.4	915.78
417.608	1020.23
417.817	969.03
418.025	1100.1
418.233	1093.96
418.441	1030.47
418.649	1110.34
418.857	1245.51
419.065	1145.16
419.273	1208.64
419.481	1300.8
419.689	1446.21
419.897	1417.54
420.105	1413.44
420.313	1386.82
420.521	1528.13
420.729	1589.57
420.937	1610.04
421.145	1685.82
421.353	1700.16
421.561	1845.56
421.769	1851.71
421.977	1929.53
422.185	1907
422.393	2005.3
422.601	2117.94
422.809	2191.67
423.017	2158.9
423.224	2177.33
423.432	2332.98
423.64	2197.81
423.848	2525.49
424.056	2369.84
424.263	2623.79
424.471	2621.74
424.679	2720.04
424.887	2947.37
425.094	2842.92
425.302	2928.94
425.51	2992.42
425.718	3205.41
425.925	3262.76
426.133	3391.78
426.341	3475.74
426.548	3666.21
426.756	3637.53
426.964	3543.33
427.171	3971.35
427.379	4065.56
427.586	4051.22
427.794	4202.77
428.001	4522.26
428.209	4690.19
428.417	4417.81
428.624	4739.34
428.832	4849.93
429.039	4593.94
429.247	4888.84
429.454	5331.2
429.662	5628.16
429.869	5429.51
430.076	5595.39
430.284	5507.33
430.491	5777.66
430.699	6002.94
430.906	6052.09
431.114	6144.25
431.321	6459.63
431.528	6439.16
431.736	6969.58
431.943	7278.82
432.15	6969.58
432.358	6983.91
432.565	7467.24
432.772	7413.99
432.979	7696.61
433.187	7860.45
433.394	8069.34
433.601	8618.19
433.808	8458.45
434.016	8446.16
434.223	8954.06
434.43	9259.21
434.637	9081.03
434.844	9648.32
435.052	10055.87
435.259	9971.9
435.466	10182.84
435.673	10025.15
435.88	10576.05
436.087	11157.68
436.294	11329.7
436.501	11008.17
436.708	10987.69
436.915	11602.08
437.122	12095.64
437.329	11784.35
437.537	12261.53
437.743	12480.66
437.95	12480.66
438.157	12994.7
438.364	13564.04
438.571	13455.5
438.778	13518.98
438.985	14915.7
439.192	14372.99
439.399	14905.46
439.606	14407.8
439.813	15177.84
440.02	16097.38
440.227	15976.55
440.433	15708.26
440.64	16320.6
440.847	16011.36
441.054	16545.88
441.261	17459.27
441.467	17305.68
441.674	17686.6
441.881	18395.2
442.088	18507.83
442.294	18298.94
442.501	18540.6
442.708	18962.48
442.914	19599.4
443.121	20426.78
443.328	20115.49
443.534	21504.01
443.741	20854.81
443.948	20860.95
444.154	21874.7
444.361	22044.68
444.568	22267.91
444.774	22294.53
444.981	22093.83
445.187	23228.4
445.394	24025.06
445.6	23838.7
445.807	25923.53
446.013	25047
446.22	25307.09
446.426	26347.46
446.633	26605.5
446.839	27408.31
447.046	26202.05
447.252	27867.05
447.459	28211.11
447.665	27967.4
447.871	29083.55
448.078	29998.99
448.284	28479.39
448.491	29427.6
448.697	30656.39
448.903	31014.78
449.11	31020.92
449.316	30541.7
449.522	31524.72
449.728	32493.41
449.935	32698.21
450.141	32440.17
450.347	33355.61
450.553	31958.89
450.76	32501.61
450.966	33464.15
451.172	33101.66
451.378	34076.49
451.584	33660.76
451.791	34385.74
451.997	34379.59
452.203	34963.26
452.409	34477.9
452.615	34613.06
452.821	32964.45
453.027	33165.15
453.233	34481.99
453.44	33476.44
453.646	33609.56
453.852	33800.02
454.058	34428.74
454.264	33263.45
454.47	33816.4
454.676	33380.18
454.882	34090.83
455.088	31328.12
455.294	31745.9
455.5	32026.48
455.705	32462.69
455.911	31100.79
456.117	30551.94
456.323	30242.7
456.529	28909.47
456.735	29693.84
456.941	29130.65
457.147	28987.29
457.352	27752.37
457.558	27645.87
457.764	27785.13
457.97	26892.22
458.176	26505.15
458.381	26490.82
458.587	25268.18
458.793	25251.8
458.999	24131.56
459.204	25694.16
459.41	24993.75
459.616	23269.36
459.821	23199.73
460.027	23136.24
460.233	22859.77
460.438	21661.71
460.644	22118.4
460.85	21002.26
461.055	20611.1
461.261	20639.77
461.466	18929.72
461.672	18294.85
461.878	19689.51
462.083	18522.17
462.289	18202.69
462.494	17795.14
462.7	17211.47
462.905	16513.11
463.111	17262.67
463.316	17209.42
463.522	16816.21
463.727	16795.73
463.932	16793.69
464.138	16631.9
464.343	16666.71
464.549	16316.51
464.754	16769.11
464.959	16406.62
465.165	16676.95
465.37	15738.98
465.575	15399.02
465.781	16080.99
465.986	15935.59
466.191	15415.4
466.397	15503.46
466.602	14418.04
466.807	15100.01
467.012	14829.68
467.218	14942.32
467.423	14694.52
467.628	14940.27
467.833	15497.32
468.038	14979.18
468.244	14385.27
468.449	15009.9
468.654	14497.91
468.859	14473.34
469.064	14192.76
469.269	14008.45
469.474	14010.5
469.679	14280.83
469.885	13561.99
470.09	13963.39
470.295	13865.09
470.5	13607.05
470.705	13584.52
470.91	13400.2
471.115	13037.71
471.32	13314.19
471.525	13187.21
471.73	13211.79
471.935	13027.47
472.139	12480.66
472.344	12785.81
472.549	12570.77
472.754	12527.77
472.959	12226.71
473.164	11919.52
473.369	11870.37
473.574	12339.35
473.778	12142.75
473.983	11894.94
474.188	11831.46
474.393	11364.52
474.598	11446.44
474.802	11253.93
475.007	11235.5
475.212	11301.03
475.417	10940.59
475.621	10717.36
475.826	10997.93
476.031	10588.34
476.235	10248.38
476.44	10668.21
476.645	10139.83
476.849	10397.88
477.054	10344.63
477.259	10264.76
477.463	10238.14
477.668	9691.33
477.872	9963.71
478.077	9898.17
478.282	9601.22
478.486	9650.37
478.691	9421
478.895	9351.37
479.1	9337.03
479.304	9441.48
479.509	9152.71
479.713	9195.72
479.918	9025.74
480.122	8990.92
480.326	9085.13
480.531	9033.93
480.735	8925.39
480.94	8923.34
481.144	9081.03
481.348	8595.67
481.553	8812.75
481.757	8687.82
481.961	8739.02
482.166	8820.94
482.37	8870.09
482.574	8702.16
482.778	8540.37
482.983	8853.71
483.187	8843.47
483.391	8757.46
483.595	8448.21
483.8	8630.48
484.004	8616.15
484.208	8657.11
484.412	8882.38
484.616	8646.87
484.821	8679.63
485.025	8431.83
485.229	8822.99
485.433	8687.82
485.637	8354.01
485.841	8612.05
486.045	8743.12
486.249	8661.2
486.453	8575.19
486.657	8601.81
486.861	8741.07
487.065	8507.6
487.269	8653.01
487.473	8423.64
487.677	8790.22
487.881	8820.94
488.085	8632.53
488.289	8648.91
488.493	8671.44
488.697	8702.16
488.901	8650.96
489.105	8642.77
489.309	8685.78
489.512	8788.18
489.716	8782.03
489.92	8689.87
490.124	8708.3
490.328	8792.27
490.531	8837.33
490.735	9029.84
490.939	8894.67
491.143	8757.46
491.346	8859.85
491.55	9074.89
491.754	8988.88
491.958	8949.96
492.161	9091.27
492.365	9353.41
492.569	9078.99
492.772	9103.56
492.976	9205.96
493.18	9265.35
493.383	9343.17
493.587	9343.17
493.79	9519.3
493.994	9257.16
494.197	9580.74
494.401	9545.92
494.605	9459.91
494.808	9863.36
495.012	9724.1
495.215	9736.38
495.419	9928.89
495.622	9732.29
495.825	10000.57
496.029	9945.28
496.232	10109.12
496.436	10098.88
496.639	10404.02
496.843	10346.68
497.046	10614.96
497.249	10621.11
497.453	10576.05
497.656	10928.3
497.859	10852.53
498.063	11022.51
498.266	11208.87
498.469	11227.31
498.673	11444.39
498.876	11548.84
499.079	11634.85
499.282	11419.82
499.485	11940
499.689	11808.93
499.892	12023.97
500.095	12126.36
500.298	12578.97
500.501	12247.19
500.705	12499.09
500.908	12476.57
501.111	12722.32
501.314	12947.6
501.517	13260.94
501.72	13299.85
501.923	13166.73
502.126	13498.5
502.329	13564.04
502.532	13734.02
502.735	13701.25
502.938	14002.3
503.141	14233.72
503.344	14481.53
503.547	14407.8
503.75	14428.28
503.953	14977.14
504.156	15069.3
504.359	15188.08
504.562	15226.99
504.765	15685.73
504.968	15392.87
505.17	15794.28
505.373	15677.54
505.576	16117.86
505.779	16359.52
505.982	16095.33
506.185	16679
506.387	16670.81
506.59	16742.49
506.793	17178.7
506.996	17147.98
507.198	17772.61
507.401	17606.73
507.604	17705.03
507.807	18120.77
508.009	18106.43
508.212	18231.36
508.415	18417.72
508.617	18548.79
508.82	18843.7
509.022	18853.94
509.225	19427.37
509.428	19355.69
509.63	19408.94
509.833	19492.91
510.035	19951.65
510.238	19859.49
510.44	20213.79
510.643	20838.42
510.845	20738.07
511.048	20621.34
511.25	21272.59
511.453	21075.99
511.655	21925.89
511.858	21547.02
512.06	21889.03
512.262	21962.76
512.465	22059.01
512.667	22509.57
512.87	22800.38
513.072	22806.52
513.274	23177.2
513.477	23273.46
513.679	23687.15
513.881	23748.59
514.084	23810.03
514.286	24211.43
514.488	23826.41
514.69	24666.08
514.893	24958.94
515.095	25274.32
515.297	25165.78
515.499	25270.23
515.701	25767.88
515.904	25960.39
516.106	26001.35
516.308	26453.95
516.51	26877.88
516.712	26867.64
516.914	26984.38
517.116	27258.81
517.318	27602.86
517.52	27420.59
517.722	27703.21
517.925	28073.9
518.127	28051.37
518.329	28794.78
518.531	28522.4
518.733	28878.75
518.935	29108.12
519.136	29867.92
519.338	29773.71
519.54	30267.27
519.742	29878.16
519.944	30201.74
520.146	30908.29
520.348	30902.14
520.55	31070.08
520.752	31192.95
520.954	31907.69
521.155	31561.59
521.357	31973.23
521.559	32233.32
521.761	32849.76
521.963	32593.76
522.164	32667.49
522.366	32896.86
522.568	33202.01
522.77	33421.14
522.971	33922.9
523.173	34006.86
523.375	33963.86
523.576	34105.16
523.778	34135.88
523.98	34545.48
524.181	34821.95
524.383	34961.22
524.584	35215.16
524.786	35530.55
524.988	35010.37
525.189	35532.6
525.391	35718.96
525.592	36140.85
525.794	36198.19
525.995	36128.56
526.197	36470.57
526.398	36935.46
526.6	36935.46
526.801	37246.75
527.003	37265.18
527.204	37445.4
527.406	37295.9
527.607	37588.76
527.808	37502.75
528.01	37064.48
528.211	37680.92
528.412	38127.38
528.614	38291.21
528.815	37934.87
529.016	38561.54
529.218	38504.2
529.419	37920.53
529.62	38399.76
529.822	38665.99
530.023	38823.68
530.224	38676.23
530.425	38723.33
530.626	38235.92
530.828	38520.59
531.029	39382.78
531.23	38696.71
531.431	39003.91
531.632	39087.87
531.833	39421.69
532.035	39139.07
532.236	39511.8
532.437	39157.5
532.638	38887.17
532.839	39747.32
533.04	39677.69
533.241	39114.5
533.442	40074.99
533.643	39718.65
533.844	39440.12
534.045	39526.14
534.246	39370.49
534.447	40085.23
534.648	39626.49
534.849	39585.53
535.05	39382.78
535.251	39972.6
535.451	39692.02
535.652	39948.02
535.853	39456.51
536.054	39651.06
536.255	39794.42
536.456	39634.68
536.657	39923.44
536.857	39513.85
537.058	39642.87
537.259	40457.96
537.46	40163.06
537.66	39868.15
537.861	39952.12
538.062	39352.06
538.263	40083.19
538.463	39483.13
538.664	40023.79
538.865	39624.44
539.065	39880.44
539.266	39409.4
539.466	40074.99
539.667	39640.82
539.868	40222.45
540.068	39452.41
540.269	39626.49
540.469	39702.26
540.67	39999.22
540.87	40150.77
541.071	39149.31
541.271	39515.9
541.472	39616.25
541.672	39739.13
541.873	39943.92
542.073	39360.25
542.274	40105.71
542.474	39413.5
542.675	39548.67
542.875	39870.2
543.075	39476.99
543.276	39380.73
543.476	40093.43
543.676	39335.68
543.877	40056.56
544.077	39778.04
544.277	39528.19
544.478	39337.73
544.678	39644.92
544.878	39288.57
545.078	39720.7
545.279	39628.54
545.479	39466.75
545.679	39517.95
545.879	39380.73
546.079	39655.16
546.28	39577.34
546.48	38934.28
546.68	39634.68
546.88	39448.32
547.08	39347.96
547.28	39372.54
547.48	38999.81
547.68	39622.39
547.88	39421.69
548.081	39479.03
548.281	39433.98
548.481	39016.19
548.681	39407.36
548.881	39786.23
549.081	39630.58
549.28	39440.12
549.48	39325.44
549.68	39403.26
549.88	40077.04
550.08	39139.07
550.28	39616.25
550.48	39550.71
550.68	39438.08
550.88	39278.33
551.08	38901.51
551.279	39220.99
551.479	38895.36
551.679	39337.73
551.879	39040.77
552.079	39323.39
552.278	38881.03
552.478	39089.92
552.678	39302.91
552.878	39687.93
553.077	39184.13
553.277	38979.33
553.477	39374.59
553.676	38971.14
553.876	38713.09
554.076	39159.55
554.275	38825.73
554.475	38246.16
554.674	38883.08
554.874	38950.66
555.074	38543.11
555.273	38827.78
555.473	39094.02
555.672	38606.6
555.872	38459.15
556.071	38799.11
556.271	38917.89
556.47	38389.52
556.67	37836.56
556.869	38240.01
557.068	38389.52
557.268	38373.13
557.467	38127.38
557.667	38352.65
557.866	38180.62
558.065	38225.68
558.265	38088.46
558.464	37887.76
558.663	38514.44
558.863	38006.55
559.062	38301.45
559.261	37775.12
559.461	38070.03
559.66	37496.6
559.859	38008.59
560.058	37908.24
560.258	37658.39
560.457	37533.46
560.656	37492.51
560.855	37642.01
561.054	37582.62
561.253	37146.4
561.453	37705.49
561.652	37414.68
561.851	37386.01
562.05	37041.95
562.249	36867.87
562.448	37424.92
562.647	37224.22
562.846	36988.7
563.045	36869.92
563.244	36658.98
563.443	36853.54
563.642	36648.74
563.841	36396.84
564.04	36273.96
564.239	36515.62
564.438	36255.53
564.637	36712.23
564.836	36239.15
565.035	36048.69
565.234	36323.12
565.432	36063.02
565.631	36409.13
565.83	35934
566.029	35706.68
566.228	35497.78
566.427	35858.23
566.625	35551.03
566.824	35303.23
567.023	35694.39
567.222	35127.1
567.42	35897.14
567.619	35274.56
567.818	35403.58
568.016	35288.89
568.215	35372.86
568.414	34891.58
568.612	35065.66
568.811	34694.98
569.01	34580.29
569.208	34625.35
569.407	35163.96
569.605	34264.91
569.804	35139.39
570.002	34301.77
570.201	34602.82
570.4	34320.2
570.598	34070.35
570.797	33955.66
570.995	34015.05
571.193	33496.92
571.392	34113.36
571.59	33666.9
571.789	33687.38
571.987	33611.6
572.186	33394.52
572.384	33410.9
572.582	33431.38
572.781	33740.63
572.979	32622.44
573.177	32978.78
573.376	33392.47
573.574	32825.18
573.772	32552.8
573.971	32679.78
574.169	32487.27
574.367	32831.33
574.565	32720.74
574.763	32624.48
574.962	32186.22
575.16	32274.28
575.358	32331.62
575.556	31881.07
575.754	32100.2
575.952	31801.2
576.151	32266.09
576.349	31754.1
576.547	31709.04
576.745	31729.52
576.943	31690.61
577.141	31268.73
577.339	31987.57
577.537	31291.26
577.735	31354.74
577.933	30904.19
578.131	31186.81
578.329	30830.46
578.527	30973.82
578.725	30912.38
578.923	31061.88
579.121	30723.97
579.319	30789.5
579.516	30881.66
579.714	30418.82
579.912	30527.36
580.11	30267.27
580.308	30486.4
580.506	30156.68
580.704	29702.03
580.901	30377.86
581.099	30384.01
581.297	29511.57
581.495	29769.62
581.692	30117.77
581.89	29532.05
582.088	30029.71
582.285	29433.75
582.483	29730.7
582.681	29343.64
582.878	29202.33
583.076	29214.62
583.274	29558.67
583.471	29220.76
583.669	29073.31
583.866	28923.8
584.064	29130.65
584.262	28759.97
584.459	29370.26
584.657	28620.7
584.854	29175.7
585.052	28364.71
585.249	28520.35
585.447	28706.72
585.644	28280.74
585.841	28436.39
586.039	28536.74
586.236	27803.57
586.434	28217.25
586.631	27887.53
586.828	27809.71
587.026	27969.45
587.223	27924.4
587.42	27422.64
587.618	27658.16
587.815	27088.82
588.012	27443.12
588.21	27277.24
588.407	27709.36
588.604	27158.45
588.801	27021.24
588.999	27215.8
589.196	27195.32
589.393	26806.2
589.59	26695.61
589.787	26871.74
589.984	26707.9
590.182	26617.79
590.379	26746.81
590.576	26546.11
590.773	26247.11
590.97	26451.91
591.167	26478.53
591.364	25778.12
591.561	25874.38
591.758	25864.14
591.955	25870.28
592.152	26191.81
592.349	26095.56
592.546	25847.75
592.743	25872.33
592.94	25292.76
593.137	25694.16
593.334	25610.19
593.531	25208.79
593.727	25419.73
593.924	25606.09
594.121	25360.34
594.318	25233.36
594.515	25049.05
594.712	25540.56
594.908	25085.91
595.105	24926.17
595.302	24524.77
595.499	24737.76
595.696	24582.11
595.892	24291.3
596.089	24403.94
596.286	24608.73
596.482	24307.68
596.679	24469.47
596.876	24342.5
597.072	24238.05
597.269	24387.55
597.466	23863.27
597.662	24254.44
597.859	23644.14
598.055	24043.49
598.252	23508.97
598.448	23635.95
598.645	23394.29
598.841	23560.17
599.038	23594.99
599.234	23261.17
599.431	23246.83
599.627	23142.39
599.824	23287.79
600.02	23060.47
600.217	22994.93
600.413	23205.88
600.609	23037.94
600.806	22679.55
601.002	22925.3
601.198	22583.29
601.395	22493.18
601.591	22202.37
601.787	22382.59
601.984	22474.75
602.18	22829.05
602.376	22056.96
602.572	22413.31
602.769	22353.92
602.965	21868.55
603.161	22366.21
603.357	21964.81
603.553	22026.25
603.75	22075.4
603.946	21735.43
604.142	21499.92
604.338	21608.46
604.534	21899.27
604.73	21436.43
604.926	21395.47
605.122	21434.38
605.318	21504.01
605.514	21219.35
605.71	21018.64
605.906	21049.36
606.102	21299.22
606.298	21235.73
606.494	21012.5
606.69	21133.33
606.886	21073.94
607.082	20856.86
607.278	21084.18
607.474	20580.38
607.67	21020.69
607.866	20506.65
608.062	20760.6
608.257	20846.62
608.453	20799.51
608.649	20860.95
608.845	20215.84
609.041	20326.43
609.236	20351.01
609.432	20168.74
609.628	20387.87
609.824	20367.39
610.019	20023.33
610.215	19916.84
610.411	20164.64
610.606	19965.99
610.802	19996.71
610.998	20052
611.193	20095.01
611.389	19927.08
611.584	19951.65
611.78	19744.81
611.976	19976.23
612.171	19822.63
612.367	19644.46
612.562	19421.23
612.758	19564.59
612.953	19492.91
613.149	19703.85
613.344	19394.61
613.539	19861.54
613.735	19249.2
613.93	19499.05
614.126	19341.36
614.321	19427.37
614.517	19216.43
614.712	19314.73
614.907	19038.26
615.103	19339.31
615.298	19247.15
615.493	19253.3
615.688	19116.08
615.884	19290.16
616.079	19001.4
616.274	19179.57
616.47	18815.03
616.665	18917.43
616.86	18952.24
617.055	18868.28
617.25	19105.84
617.445	18923.57
617.641	18706.49
617.836	18679.86
618.031	18409.53
618.226	18405.44
618.421	18276.41
618.616	18804.79
618.811	18196.54
619.006	18708.54
619.201	18083.91
619.396	18620.47
619.591	17866.82
619.786	18364.48
619.981	17897.54
620.176	18024.51
620.371	17528.91
620.566	17739.85
620.761	18010.18
620.956	17764.42
621.151	17506.38
621.346	17864.77
621.541	17295.44
621.735	17694.79
621.93	17029.2
622.125	17193.04
622.32	16875.6
622.515	17242.19
622.709	17156.18
622.904	16894.04
623.099	16828.5
623.294	16875.6
623.488	16488.54
623.683	16681.05
623.878	16298.08
624.072	16445.53
624.267	16330.84
624.462	16326.75
624.656	16005.22
624.851	16095.33
625.046	15906.91
625.24	15890.53
625.435	15550.57
625.629	15679.59
625.824	15796.32
626.018	15566.95
626.213	15335.53
626.407	15468.65
626.602	15085.68
626.796	15396.97
626.991	15089.78
627.185	15173.74
627.38	14954.61
627.574	14833.78
627.768	14989.42
627.963	14637.17
628.157	14755.96
628.352	14702.71
628.546	14323.83
628.74	14692.47
628.935	14225.53
629.129	14473.34
629.323	14137.47
629.517	14123.13
629.712	14018.69
629.906	13932.67
630.1	13443.21
630.294	13889.67
630.489	13688.96
630.683	13738.12
630.877	13557.89
631.071	13326.47
631.265	13398.15
631.459	13250.7
631.653	13340.81
631.848	13203.6
632.042	13115.53
632.236	13303.95
632.43	13131.92
632.624	13152.4
632.818	13129.87
633.012	12517.53
633.206	12589.21
633.4	12695.7
633.594	12513.43
633.788	12789.91
633.982	12654.74
634.176	12495
634.369	12361.88
634.563	12478.61
634.757	12120.22
634.951	12279.96
635.145	12132.51
635.339	12007.58
635.533	12007.58
635.726	11917.47
635.92	11778.21
636.114	11845.79
636.308	11845.79
636.501	11802.79
636.695	11755.68
636.889	11722.91
637.083	11370.66
637.276	11333.8
637.47	11239.59
637.664	11624.61
637.857	11477.16
638.051	11382.95
638.244	11344.04
638.438	11008.17
638.632	11280.55
638.825	10825.9
639.019	10932.4
639.212	10875.06
639.406	11038.89
639.599	10737.84
639.793	10862.77
639.986	10651.83
640.18	10649.78
640.373	10498.23
640.567	10346.68
640.76	10506.42
640.954	10283.19
641.147	10141.88
641.34	10176.7
641.534	10211.51
641.727	10055.87
641.92	10395.83
642.114	9951.42
642.307	10096.83
642.5	9953.47
642.694	9859.26
642.887	9957.57
643.08	10035.39
643.273	9699.52
643.467	9758.91
643.66	9568.45
643.853	9734.34
644.046	9570.5
644.239	9615.55
644.432	9490.63
644.626	9377.99
644.819	9316.55
645.012	9601.22
645.205	9445.57
645.398	9189.58
645.591	9101.51
645.784	9230.54
645.977	8915.15
646.17	8999.12
646.363	8915.15
646.556	8872.14
646.749	9060.56
646.942	8931.53
647.135	8880.33
647.328	8779.98
647.521	8763.6
647.714	8722.64
647.907	8712.4
648.099	8769.74
648.292	8659.15
648.485	8575.19
648.678	8493.27
648.871	8450.26
649.064	8370.39
649.256	8351.96
649.449	8362.2
649.642	8157.4
649.835	8143.07
650.027	8167.64
650.22	8311
650.413	8091.87
650.605	8077.53
650.798	7909.6
650.991	7911.64
651.183	8048.86
651.376	7878.88
651.568	7762.14
651.761	7876.83
651.954	7661.79
652.146	7809.25
652.339	7573.73
652.531	7751.9
652.724	7612.64
652.916	7454.95
653.109	7549.15
653.301	7346.41
653.494	7448.8
653.686	7262.44
653.879	7405.8
654.071	7340.26
654.263	7047.4
654.456	7262.44
654.648	7250.15
654.84	7153.9
655.033	7008.49
655.225	7061.74
655.417	7100.65
655.61	7018.73
655.802	7078.12
655.994	6885.61
656.186	6994.15
656.379	7049.45
656.571	6963.44
656.763	6770.93
656.955	6873.32
657.148	6709.49
657.34	6695.15
657.532	6586.61
657.724	6734.06
657.916	6754.54
658.108	6680.82
658.3	6660.34
658.492	6643.95
658.684	6506.74
658.876	6433.01
659.068	6414.58
659.26	6404.34
659.452	6377.72
659.644	6336.76
659.836	6189.3
660.028	6252.79
660.22	6371.57
660.412	6013.18
660.604	6209.78
660.796	6224.12
660.988	5873.92
661.18	6103.29
661.372	5972.22
661.563	5832.96
661.755	6021.37
661.947	5949.69
662.139	5910.78
662.331	6056.18
662.522	5845.24
662.714	5828.86
662.906	5792
663.097	5816.57
663.289	5783.81
663.481	5812.48
663.673	5644.54
663.864	5658.88
664.056	5632.26
664.247	5652.74
664.439	5622.02
664.631	5603.58
664.822	5662.97
665.014	5456.13
665.205	5613.82
665.397	5363.97
665.588	5462.27
665.78	5376.26
665.971	5341.44
666.163	5255.43
666.354	5284.1
666.546	5396.74
666.737	5284.1
666.929	5288.2
667.12	5275.91
667.311	5200.13
667.503	5202.18
667.694	5185.8
667.885	5093.64
668.077	5169.41
668.268	4925.71
668.459	4937.99
668.651	4978.95
668.842	5021.96
669.033	4962.57
669.224	5007.62
669.416	4997.39
669.607	4985.1
669.798	4874.51
669.989	4909.32
670.18	4804.88
670.371	4841.74
670.563	4786.44
670.754	4813.07
670.945	4765.96
671.136	4796.68
671.327	4835.6
671.518	4661.52
671.709	4692.24
671.9	4710.67
672.091	4555.02
672.282	4622.61
672.473	4493.58
672.664	4522.26
672.855	4569.36
673.046	4616.46
673.237	4641.04
673.428	4589.84
673.619	4516.11
673.809	4415.76
674	4499.73
674.191	4307.22
674.382	4501.78
674.573	4489.49
674.764	4632.85
674.954	4548.88
675.145	4446.48
675.336	4370.71
675.527	4362.51
675.717	4268.31
675.908	4299.03
676.099	4335.89
676.289	4249.88
676.48	4280.6
676.671	4421.91
676.861	4395.28
677.052	4258.07
677.243	4262.16
677.433	4243.73
677.624	4139.29
677.814	4196.63
678.005	4206.87
678.195	4165.91
678.386	4210.97
678.576	4233.49
678.767	4094.23
678.957	4192.53
679.148	4086.04
679.338	4233.49
679.529	4112.66
679.719	4124.95
679.909	3924.25
680.1	4018.46
680.29	4030.74
680.481	4124.95
680.671	4075.8
680.861	4069.66
681.052	4127
681.242	3971.35
681.432	4094.23
681.622	4104.47
681.813	3995.93
682.003	3825.95
682.193	3756.32
682.383	3873.05
682.573	4006.17
682.764	3946.78
682.954	4018.46
683.144	3989.78
683.334	3862.81
683.524	3733.79
683.714	3961.11
683.904	4034.84
684.094	3901.72
684.284	3854.62
684.474	4002.07
684.664	3823.9
684.854	3842.33
685.044	3952.92
685.234	3721.5
685.424	3834.14
685.614	3856.67
685.804	3711.26
685.994	3655.97
686.184	3690.78
686.374	3760.41
686.564	3590.43
686.753	3678.49
686.943	3584.29
687.133	3588.38
687.323	3672.35
687.513	3664.16
687.702	3602.72
687.892	3510.56
688.082	3604.77
688.272	3627.29
688.461	3510.56
688.651	3510.56
688.841	3592.48
689.03	3442.98
689.22	3518.75
689.41	3596.57
689.599	3406.11
689.789	3479.84
689.979	3397.92
690.168	3385.63
690.358	3293.48
690.547	3369.25
690.737	3371.3
690.926	3322.15
691.116	3352.87
691.305	3328.29
691.495	3330.34
691.684	3199.27
691.874	3221.8
692.063	3186.98
692.252	3131.69
692.442	3301.67
692.631	3195.17
692.82	3201.32
693.01	3199.27
693.199	3150.12
693.388	3139.88
693.578	3105.06
693.767	3080.49
693.956	2973.99
694.146	3156.26
694.335	3133.73
694.524	3066.15
694.713	3070.25
694.902	3107.11
695.092	3060.01
695.281	3113.25
695.47	2851.11
695.659	2996.52
695.848	3055.91
696.037	2902.31
696.226	2926.89
696.415	2840.87
696.604	2920.74
696.793	2926.89
696.982	3029.29
697.171	2926.89
697.36	2990.38
697.549	2976.04
697.738	3019.05
697.927	2912.55
698.116	2920.74
698.305	2992.42
698.494	3014.95
698.683	2955.56
698.872	2830.63
699.061	2842.92
699.25	3000.62
699.438	2847.02
699.627	2875.69
699.816	2865.45
700.005	2842.92
700.193	2887.98
700.382	2871.59
700.571	2808.11
700.76	2953.51
700.948	2896.17
701.137	2705.71
701.326	2865.45
701.514	2890.03
701.703	2748.72
701.892	2810.15
702.08	2801.96
702.269	2740.52
702.457	2789.67
702.646	2779.43
702.834	2851.11
703.023	2642.22
703.212	2832.68
703.4	2847.02
703.589	2937.13
703.777	2744.62
703.965	2781.48
704.154	2695.47
704.342	2816.3
704.531	2820.39
704.719	2859.31
704.907	2853.16
705.096	2797.87
705.284	2771.24
705.472	2806.06
705.661	2941.22
705.849	2822.44
706.037	2631.98
706.226	2742.57
706.414	2818.35
706.602	2701.61
706.79	2773.29
706.979	2722.09
707.167	2621.74
707.355	2703.66
707.543	2724.14
707.731	2851.11
707.919	2830.63
708.107	2683.18
708.296	2787.63
708.484	2720.04
708.672	2734.38
708.86	2724.14
709.048	2801.96
709.236	2674.99
709.424	2765.1
709.612	2789.67
709.8	2728.24
709.988	2711.85
710.176	2677.04
710.364	2838.83
710.551	2746.67
710.739	2621.74
710.927	2644.27
711.115	2576.69
711.303	2523.44
711.491	2793.77
711.679	2758.96
711.866	2746.67
712.054	2773.29
712.242	2644.27
712.43	2701.61
712.617	2806.06
712.805	2687.28
712.993	2818.35
713.181	2679.08
713.368	2636.08
713.556	2666.8
713.744	2591.02
713.931	2691.37
714.119	2662.7
714.306	2681.13
714.494	2715.95
714.682	2625.84
714.869	2652.46
715.057	2801.96
715.244	2484.53
715.432	2711.85
715.619	2576.69
715.807	2711.85
715.994	2570.54
716.182	2666.8
716.369	2689.32
716.556	2699.56
716.744	2685.23
716.931	2724.14
717.119	2595.12
717.306	2687.28
717.493	2660.65
717.681	2748.72
717.868	2658.6
718.055	2756.91
718.242	2615.6
718.43	2693.42
718.617	2732.33
718.804	2775.34
718.991	2689.32
719.179	2720.04
719.366	2705.71
719.553	2619.69
719.74	2613.55
719.927	2683.18
720.114	2709.8
720.301	2773.29
720.488	2711.85
720.676	2609.45
720.863	2783.53
721.05	2787.63
721.237	2722.09
721.424	2738.48
721.611	2658.6
721.798	2685.23
721.985	2560.3
722.172	2679.08
722.358	2570.54
722.545	2724.14
722.732	2744.62
722.919	2812.2
723.106	2670.89
723.293	2666.8
723.48	2709.8
723.667	2605.36
723.853	2718
724.04	2740.52
724.227	2683.18
724.414	2615.6
724.6	2662.7
724.787	2689.32
724.974	2742.57
725.161	2599.21
725.347	2644.27
725.534	2748.72
725.72	2693.42
725.907	2599.21
726.094	2742.57
726.28	2726.19
726.467	2613.55
726.653	2695.47
726.84	2765.1
727.027	2689.32
727.213	2644.27
727.4	2789.67
727.586	2701.61
727.773	2578.73
727.959	2617.65
728.145	2697.52
728.332	2804.01
728.518	2822.44
728.705	2615.6
728.891	2699.56
729.077	2689.32
729.264	2718
729.45	2644.27
729.636	2781.48
729.823	2660.65
730.009	2791.72
730.195	2754.86
730.382	2672.94
730.568	2615.6
730.754	2744.62
730.94	2783.53
731.126	2681.13
731.313	2752.81
731.499	2666.8
731.685	2636.08
731.871	2769.2
732.057	2691.37
732.243	2779.43
732.429	2726.19
732.615	2769.2
732.801	2756.91
732.987	2804.01
733.173	2791.72
733.359	2685.23
733.545	2742.57
733.731	2644.27
733.917	2654.51
734.103	2726.19
734.289	2713.9
734.475	2652.46
734.661	2781.48
734.847	2734.38
735.033	2697.52
735.219	2634.03
735.404	2634.03
735.59	2734.38
735.776	2681.13
735.962	2763.05
736.148	2842.92
736.333	2752.81
736.519	2654.51
736.705	2642.22
736.89	2683.18
737.076	2621.74
737.262	2656.56
737.447	2822.44
737.633	2728.24
737.819	2619.69
738.004	2593.07
738.19	2709.8
738.375	2662.7
738.561	2679.08
738.747	2670.89
738.932	2627.89
739.118	2740.52
739.303	2709.8
739.489	2689.32
739.674	2627.89
739.859	2769.2
740.045	2648.36
740.23	2724.14
740.416	2634.03
740.601	2554.16
740.786	2574.64
740.972	2597.17
741.157	2623.79
741.342	2480.43
741.528	2636.08
741.713	2541.87
741.898	2672.94
742.084	2545.97
742.269	2580.78
742.454	2400.56
742.639	2593.07
742.824	2337.07
743.01	2615.6
743.195	2609.45
743.38	2574.64
743.565	2494.77
743.75	2418.99
743.935	2437.42
744.12	2545.97
744.305	2445.62
744.49	2447.66
744.675	2418.99
744.86	2509.1
745.045	2476.34
745.23	2521.39
745.415	2390.32
745.6	2429.23
745.785	2339.12
745.97	2359.6
746.155	2269.49
746.34	2281.78
746.525	2363.7
746.71	2335.03
746.895	2244.92
747.079	2347.31
747.264	2296.11
747.449	2314.55
747.634	2273.59
747.819	2183.48
748.003	2197.81
748.188	2281.78
748.373	2134.32
748.557	2232.63
748.742	2109.75
748.927	2089.27
749.111	2167.09
749.296	2224.44
749.481	2044.21
749.665	2148.66
749.85	2107.7
750.034	2201.91
750.219	2079.03
750.404	1986.87
750.588	2115.89
750.773	2036.02
750.957	1964.34
751.141	2056.5
751.326	1984.82
751.51	2013.49
751.695	1976.63
751.879	2081.08
752.064	1984.82
752.248	1945.91
752.432	1935.67
752.617	1909.05
752.801	1990.97
752.985	1966.39
753.17	1939.77
753.354	1886.52
753.538	1845.56
753.722	1820.99
753.907	1892.66
754.091	1816.89
754.275	1810.75
754.459	1796.41
754.643	1737.02
754.828	1814.84
755.012	1784.12
755.196	1646.91
755.38	1763.64
755.564	1753.4
755.748	1687.87
755.932	1677.63
756.116	1675.58
756.3	1605.95
756.484	1728.83
756.668	1691.96
756.852	1581.37
757.036	1618.24
757.22	1499.45
757.404	1577.28
757.588	1581.37
757.772	1558.85
757.956	1597.76
758.14	1683.77
758.323	1612.09
758.507	1605.95
758.691	1581.37
758.875	1411.39
759.059	1470.78
759.242	1558.85
759.426	1417.54
759.61	1444.16
759.794	1452.35
759.977	1440.06
760.161	1546.56
760.345	1509.69
760.528	1372.48
760.712	1435.97
760.895	1444.16
761.079	1511.74
761.263	1397.06
761.446	1478.97
761.63	1345.86
761.813	1427.78
761.997	1438.02
762.18	1294.66
762.364	1409.34
762.547	1478.97
762.731	1372.48
762.914	1347.9
763.098	1399.1
763.281	1263.94
763.464	1325.38
763.648	1257.79
763.831	1323.33
764.015	1362.24
764.198	1306.95
764.381	1339.71
764.564	1319.23
764.748	1210.69
764.931	1448.26
765.114	1261.89
765.297	1169.73
765.481	1362.24
765.664	1220.93
765.847	1188.16
766.03	1274.18
766.213	1200.45
766.397	1198.4
766.58	1280.32
766.763	1194.31
766.946	1186.12
767.129	1204.55
767.312	1202.5
767.495	1237.31
767.678	1147.2
767.861	1257.79
768.044	1212.74
768.227	1171.78
768.41	1210.69
768.593	1225.03
768.776	1046.85
768.959	1229.12
769.142	1132.87
769.324	1153.35
769.507	1128.77
769.69	1032.52
769.873	1114.44
770.056	1124.68
770.239	1167.68
770.421	1218.88
770.604	1030.47
770.787	1067.33
770.97	1030.47
771.152	1059.14
771.335	1034.57
771.518	1108.29
771.7	1024.33
771.883	993.61
772.066	1034.57
772.248	1067.33
772.431	1073.48
772.613	1106.24
772.796	950.6
772.978	969.03
773.161	1055.05
773.343	1007.94
773.526	911.69
773.708	971.08
773.891	977.22
774.073	1024.33
774.256	1032.52
774.438	880.97
774.621	944.45
774.803	977.22
774.985	948.55
775.168	950.6
775.35	909.64
775.532	930.12
775.715	876.87
775.897	782.67
776.079	997.7
776.261	950.6
776.444	872.78
776.626	923.98
776.808	883.02
776.99	854.34
777.173	872.78
777.355	917.83
777.537	889.16
777.719	889.16
777.901	780.62
778.083	778.57
778.265	766.28
778.447	766.28
778.629	745.8
778.811	794.95
778.993	733.51
779.175	762.19
779.357	835.91
779.539	778.57
779.721	743.75
779.903	778.57
780.085	753.99
780.267	661.84
780.449	844.1
780.631	852.3
780.812	706.89
780.994	694.6
781.176	686.41
781.358	647.5
781.54	651.6
781.721	688.46
781.903	715.08
782.085	792.91
782.267	723.27
782.448	753.99
782.63	692.55
782.812	665.93
782.993	647.5
783.175	586.06
783.357	610.64
783.538	606.54
783.72	616.78
783.901	647.5
784.083	698.7
784.264	649.55
784.446	530.77
784.627	532.81
784.809	604.49
784.99	612.68
785.172	579.92
785.353	571.72
785.535	604.49
785.716	528.72
785.897	573.77
786.079	592.2
786.26	532.81
786.441	635.21
786.623	498
786.804	561.48
786.985	450.89
787.167	612.68
787.348	553.29
787.529	473.42
787.71	557.39
787.891	538.96
788.073	534.86
788.254	500.05
788.435	520.53
788.616	454.99
788.797	430.41
788.978	530.77
789.159	471.37
789.34	436.56
789.522	463.18
789.703	461.13
789.884	541.01
790.065	452.94
790.246	448.85
790.427	379.22
790.607	506.19
790.788	454.99
790.969	401.74
791.15	436.56
791.331	424.27
791.512	487.76
791.693	446.8
791.874	448.85
792.054	489.81
792.235	414.03
792.416	379.22
792.597	446.8
792.778	377.17
792.958	471.37
793.139	414.03
793.32	344.4
793.5	420.17
793.681	364.88
793.862	385.36
794.042	428.37
794.223	336.21
794.404	403.79
794.584	344.4
794.765	338.26
794.945	354.64
795.126	399.7
795.306	334.16
795.487	366.93
795.667	280.91
795.848	364.88
796.028	354.64
796.209	356.69
796.389	375.12
796.57	336.21
796.75	344.4
796.93	325.97
797.111	348.5
797.291	381.26
797.471	309.58
797.652	371.02
797.832	336.21
798.012	383.31
798.192	287.06
798.373	293.2
798.553	319.82
798.733	334.16
798.913	364.88
799.093	389.46
799.274	325.97
799.454	381.26
799.634	354.64
799.814	256.34
799.994	360.78
800.174	321.87
800.354	358.74
800.534	309.58
800.714	270.67
800.894	336.21
801.074	192.85
801.254	278.87
801.434	270.67
801.614	305.49
801.794	258.39
801.974	631.12
802.154	350.54
802.334	332.11
802.514	305.49
802.693	217.43
802.873	342.35
803.053	291.15
803.233	254.29
803.413	282.96
803.592	272.72
803.772	299.34
803.952	289.1
804.131	303.44
804.311	287.06
804.491	299.34
804.67	336.21
804.85	270.67
805.03	276.82
805.209	325.97
805.389	358.74
805.568	235.86
805.748	266.58
805.928	274.77
806.107	242
806.287	246.1
806.466	198.99
806.646	215.38
806.825	317.78
807.004	258.39
807.184	229.71
807.363	270.67
807.543	133.46
807.722	190.8
807.901	242
808.081	293.2
808.26	115.03
808.439	217.43
808.619	231.76
808.798	254.29
808.977	289.1
809.156	211.28
809.336	270.67
809.515	190.8
809.694	227.67
809.873	340.3
810.052	233.81
810.231	223.57
810.411	248.15
810.59	254.29
810.769	278.87
810.948	303.44
811.127	203.09
811.306	262.48
811.485	166.23
811.664	287.06
811.843	250.19
812.022	225.62
812.201	155.99
812.38	203.09
812.559	201.04
812.737	201.04
812.916	219.47
813.095	172.37
813.274	192.85
813.453	155.99
813.632	176.47
813.811	268.63
813.989	143.7
814.168	203.09
814.347	147.8
814.526	219.47
814.704	184.66
814.883	207.19
815.062	166.23
815.24	248.15
815.419	172.37
815.598	254.29
815.776	162.13
815.955	209.23
816.133	135.51
816.312	215.38
816.49	170.32
816.669	151.89
816.847	178.51
817.026	141.65
817.204	125.27
817.383	231.76
817.561	123.22
817.74	143.7
817.918	221.52
818.097	168.27
818.275	188.75
818.453	180.56
818.632	186.71
818.81	127.32
818.988	98.64
819.167	110.93
819.345	192.85
819.523	149.84
819.701	221.52
819.879	100.69
820.058	164.18
820.236	192.85
820.414	131.41
820.592	119.12
820.77	129.36
820.948	170.32
821.127	170.32
821.305	137.56
821.483	164.18
821.661	137.56
821.839	106.84
822.017	125.27
822.195	125.27
822.373	129.36
822.551	121.17
822.729	201.04
822.907	123.22
823.085	178.51
823.262	178.51
823.44	151.89
823.618	151.89
823.796	127.32
823.974	82.26
824.152	186.71
824.329	100.69
824.507	137.56
824.685	164.18
824.863	84.31
825.04	168.27
825.218	131.41
825.396	102.74
825.574	104.79
825.751	61.78
825.929	80.21
826.107	104.79
826.284	98.64
826.462	108.88
826.639	90.45
826.817	147.8
826.994	76.12
827.172	88.4
827.349	143.7
827.527	74.07
827.704	90.45
827.882	164.18
828.059	133.46
828.237	106.84
828.414	207.19
828.591	67.92
828.769	51.54
828.946	125.27
829.124	96.6
829.301	67.92
829.478	176.47
829.655	102.74
829.833	147.8
830.01	61.78
830.187	117.08
830.364	76.12
830.542	80.21
830.719	115.03
830.896	160.08
831.073	135.51
831.25	76.12
831.427	125.27
831.604	131.41
831.782	98.64
831.959	78.16
832.136	55.64
832.313	164.18
832.49	121.17
832.667	211.28
832.844	176.47
833.021	112.98
833.198	119.12
833.374	74.07
833.551	125.27
833.728	137.56
833.905	117.08
834.082	102.74
834.259	84.31
834.436	53.59
834.612	123.22
834.789	106.84
834.966	108.88
835.143	63.83
835.319	51.54
835.496	123.22
835.673	74.07
835.85	153.94
836.026	153.94
836.203	129.36
836.38	43.35
836.556	106.84
836.733	133.46
836.909	78.16
837.086	69.97
837.262	133.46
837.439	67.92
837.616	80.21
837.792	61.78
837.968	96.6
838.145	78.16
838.321	78.16
838.498	14.68
838.674	125.27
838.851	59.73
839.027	33.11
839.203	74.07
839.38	145.75
839.556	57.68
839.732	147.8
839.909	57.68
840.085	29.01
840.261	74.07
840.437	84.31
840.614	16.73
840.79	72.02
840.966	98.64
841.142	125.27
841.318	65.88
841.494	76.12
841.671	78.16
841.847	8.53
842.023	51.54
842.199	108.88
842.375	139.6
842.551	12.63
842.727	20.82
842.903	63.83
843.079	84.31
843.255	106.84
843.431	57.68
843.607	57.68
843.783	18.77
843.959	117.08
844.134	69.97
844.31	63.83
844.486	-40.62
844.662	37.2
844.838	61.78
845.013	76.12
845.189	104.79
845.365	119.12
845.541	80.21
845.716	37.2
845.892	90.45
846.068	98.64
846.244	16.73
846.419	72.02
846.595	33.11
846.77	94.55
846.946	39.25
847.122	90.45
847.297	31.06
847.473	45.4
847.648	92.5
847.824	92.5
847.999	57.68
848.175	35.16
848.35	14.68
848.526	94.55
848.701	47.44
848.876	86.36
849.052	51.54
849.227	102.74
849.403	67.92
849.578	16.73
849.753	43.35
849.929	61.78
850.104	82.26
850.279	8.53
850.454	24.92
850.63	24.92
850.805	69.97
850.98	84.31
851.155	57.68
851.33	16.73
851.505	6.49
851.681	53.59
851.856	14.68
852.031	53.59
852.206	84.31
852.381	14.68
852.556	61.78
852.731	63.83
852.906	49.49
853.081	63.83
853.256	22.87
853.431	57.68
853.606	82.26
853.781	57.68
853.956	67.92
854.131	69.97
854.305	2.39
854.48	90.45
854.655	-1.71
854.83	110.93
855.005	18.77
855.18	33.11
855.354	-16.04
855.529	74.07
855.704	35.16
855.879	47.44
856.053	-28.33
856.228	49.49
856.403	0.34
856.577	31.06
856.752	43.35
856.926	47.44
857.101	90.45
857.276	59.73
857.45	61.78
857.625	41.3
857.799	39.25
857.974	10.58
858.148	39.25
858.323	29.01
858.497	-52.91
858.672	61.78
858.846	37.2
859.02	69.97
859.195	0.34
859.369	43.35
859.543	31.06
859.718	-44.71
859.892	90.45
860.066	53.59
860.241	47.44
860.415	84.31
860.589	53.59
860.763	127.32
860.938	14.68
861.112	63.83
861.286	65.88
861.46	39.25
861.634	41.3
861.808	110.93
861.982	84.31
862.157	29.01
862.331	-26.28
862.505	31.06
862.679	-9.9
862.853	2.39
863.027	10.58
863.201	12.63
863.375	8.53
863.549	51.54
863.722	45.4
863.896	86.36
864.07	-52.91
864.244	4.44
864.418	31.06
864.592	12.63
864.766	61.78
864.939	74.07
865.113	53.59
865.287	-16.04
865.461	37.2
865.634	12.63
865.808	51.54
865.982	41.3
866.156	41.3
866.329	-16.04
866.503	16.73
866.676	-7.85
866.85	41.3
867.024	0.34
867.197	67.92
867.371	-11.95
867.544	-11.95
867.718	49.49
867.891	37.2
868.065	65.88
868.238	41.3
868.412	61.78
868.585	55.64
868.759	45.4
868.932	59.73
869.105	63.83
869.279	0.34
869.452	57.68
869.625	14.68
869.799	-30.38
869.972	-52.91
870.145	8.53
870.319	-32.43
870.492	61.78
870.665	76.12
870.838	-7.85
871.011	-1.71
871.185	31.06
871.358	43.35
871.531	33.11
871.704	4.44
871.877	24.92
872.05	26.96
872.223	14.68
872.396	33.11
872.569	123.22
872.742	-28.33
872.915	33.11
873.088	37.2
873.261	45.4
873.434	-16.04
873.607	-57
873.78	-5.8
873.953	-42.67
874.126	47.44
874.299	63.83
874.471	47.44
874.644	29.01
874.817	53.59
874.99	57.68
875.163	57.68
875.335	39.25
875.508	-9.9
875.681	53.59
875.853	-1.71
876.026	-18.09
876.199	8.53
876.371	-22.19
876.544	-38.57
876.717	22.87
876.889	2.39
877.062	67.92
877.234	39.25
877.407	12.63
877.579	53.59
877.752	61.78
877.924	43.35
878.097	-7.85
878.269	33.11
878.442	74.07
878.614	10.58
878.786	78.16
878.959	74.07
879.131	41.3
879.303	-42.67
879.476	6.49
879.648	41.3
879.82	57.68
879.993	55.64
880.165	57.68
880.337	2.39
880.509	26.96
880.681	-16.04
880.854	-3.75
881.026	14.68
881.198	74.07
881.37	14.68
881.542	-71.34
881.714	55.64
881.886	26.96
882.058	-22.19
882.23	51.54
882.402	-38.57
882.574	24.92
882.746	-24.23
882.918	18.77
883.09	51.54
883.262	8.53
883.434	72.02
883.606	31.06
883.778	2.39
883.95	45.4
884.122	6.49
884.293	53.59
884.465	-28.33
884.637	61.78
884.809	26.96
884.98	67.92
885.152	6.49
885.324	47.44
885.496	51.54
885.667	16.73
885.839	-32.43
886.011	41.3
886.182	10.58
886.354	35.16
886.525	-30.38
886.697	-50.86
886.869	-26.28
887.04	10.58
887.212	24.92
887.383	112.98
887.555	20.82
887.726	33.11
887.897	-44.71
888.069	65.88
888.24	-34.47
888.412	-11.95
888.583	4.44
888.754	8.53
888.926	12.63
889.097	-28.33
889.268	2.39
889.44	-13.99
889.611	22.87
889.782	29.01
889.953	20.82
890.125	-7.85
890.296	-38.57
890.467	67.92
890.638	-13.99
890.809	55.64
890.98	-13.99
891.151	2.39
891.323	37.2
891.494	-73.39
891.665	4.44
891.836	33.11
892.007	-11.95
892.178	18.77
892.349	35.16
892.52	-32.43
892.691	18.77
892.862	8.53
893.032	-28.33
893.203	84.31
893.374	39.25
893.545	-20.14
893.716	0.34
893.887	33.11
894.057	-30.38
894.228	35.16
894.399	12.63
894.57	10.58
894.74	33.11
894.911	0.34
895.082	-104.11
895.253	29.01
895.423	-3.75
895.594	-1.71
895.764	29.01
895.935	-1.71
896.106	41.3
896.276	-34.47
896.447	0.34
896.617	8.53
896.788	31.06
896.958	20.82
897.129	35.16
897.299	12.63
897.47	8.53
897.64	2.39
897.81	-44.71
897.981	51.54
898.151	-3.75
898.322	47.44
898.492	14.68
898.662	69.97
898.832	-11.95
899.003	-1.71
899.173	31.06
899.343	-11.95
899.513	57.68
