Data from USB4F104151__12__11-44-29-655.txt Node

Date: Fri Mar 14 11:44:29 EDT 2025
User: louis
Spectrometer: USB4F10415
Trigger mode: 4
Integration Time (sec): 2.000000E-2
Scans to average: 1
Electric dark correction enabled: true
Nonlinearity correction enabled: false
Boxcar width: 0
XAxis mode: Wavelengths
Number of Pixels in Spectrum: 3648
>>>>>Begin Spectral Data<<<<<
178.204	-76.29
178.424	-76.29
178.644	-76.29
178.864	-158.21
179.084	-104.96
179.304	3.58
179.524	-20.99
179.744	-25.09
179.964	22.02
180.184	15.87
180.404	5.63
180.624	-16.9
180.844	28.16
181.064	-4.61
181.283	-25.09
181.503	-39.42
181.723	56.83
181.943	-74.24
182.163	89.6
182.383	-8.7
182.602	56.83
182.822	13.82
183.042	-10.75
183.262	17.92
183.482	-8.7
183.701	-4.61
183.921	24.06
184.141	42.5
184.361	-10.75
184.58	67.07
184.8	36.35
185.02	-14.85
185.239	-4.61
185.459	32.26
185.679	81.41
185.898	19.97
186.118	24.06
186.338	-10.75
186.557	50.69
186.777	19.97
186.997	52.74
187.216	-27.14
187.436	69.12
187.655	67.07
187.875	73.21
188.095	-6.66
188.314	30.21
188.534	26.11
188.753	30.21
188.973	-16.9
189.192	108.03
189.412	7.68
189.631	19.97
189.851	1.54
190.07	24.06
190.29	19.97
190.509	60.93
190.729	34.3
190.948	22.02
191.168	161.28
191.387	42.5
191.607	48.64
191.826	-0.51
192.045	95.74
192.265	-61.95
192.484	28.16
192.704	50.69
192.923	-119.29
193.142	108.03
193.362	91.65
193.581	73.21
193.8	87.55
194.02	87.55
194.239	22.02
194.458	-35.33
194.678	-29.18
194.897	60.93
195.116	1.54
195.335	73.21
195.555	3.58
195.774	-8.7
195.993	58.88
196.212	46.59
196.432	15.87
196.651	-31.23
196.87	42.5
197.089	13.82
197.308	34.3
197.528	87.55
197.747	17.92
197.966	-33.28
198.185	9.73
198.404	19.97
198.623	93.69
198.842	114.17
199.062	24.06
199.281	-6.66
199.5	17.92
199.719	65.02
199.938	34.3
200.157	28.16
200.376	134.65
200.595	54.78
200.814	-33.28
201.033	69.12
201.252	50.69
201.471	22.02
201.69	-2.56
201.909	32.26
202.128	58.88
202.347	36.35
202.566	9.73
202.785	-18.94
203.004	36.35
203.223	34.3
203.442	-6.66
203.661	54.78
203.879	-29.18
204.098	22.02
204.317	28.16
204.536	65.02
204.755	-20.99
204.974	40.45
205.193	44.54
205.411	118.27
205.63	87.55
205.849	-68.09
206.068	46.59
206.287	-31.23
206.505	93.69
206.724	42.5
206.943	-18.94
207.162	19.97
207.381	13.82
207.599	36.35
207.818	71.17
208.037	26.11
208.255	-23.04
208.474	9.73
208.693	69.12
208.911	99.84
209.13	5.63
209.349	-119.29
209.567	60.93
209.786	128.51
210.005	26.11
210.223	13.82
210.442	34.3
210.661	13.82
210.879	79.36
211.098	62.98
211.316	71.17
211.535	93.69
211.753	3.58
211.972	26.11
212.191	62.98
212.409	91.65
212.628	54.78
212.846	24.06
213.065	-29.18
213.283	62.98
213.502	13.82
213.72	-78.33
213.938	44.54
214.157	44.54
214.375	-16.9
214.594	19.97
214.812	42.5
215.031	-2.56
215.249	36.35
215.467	-8.7
215.686	34.3
215.904	-10.75
216.122	-66.05
216.341	42.5
216.559	-41.47
216.778	48.64
216.996	-4.61
217.214	30.21
217.432	1.54
217.651	-51.71
217.869	-18.94
218.087	42.5
218.306	-20.99
218.524	89.6
218.742	-23.04
218.96	38.4
219.179	46.59
219.397	34.3
219.615	-12.8
219.833	69.12
220.051	22.02
220.27	58.88
220.488	24.06
220.706	48.64
220.924	75.26
221.142	52.74
221.36	3.58
221.578	-0.51
221.796	34.3
222.015	56.83
222.233	-14.85
222.451	42.5
222.669	-8.7
222.887	112.13
223.105	65.02
223.323	26.11
223.541	9.73
223.759	44.54
223.977	77.31
224.195	52.74
224.413	-41.47
224.631	77.31
224.849	17.92
225.067	67.07
225.285	5.63
225.503	-31.23
225.721	-57.86
225.939	42.5
226.157	48.64
226.375	58.88
226.592	9.73
226.81	75.26
227.028	83.45
227.246	85.5
227.464	22.02
227.682	3.58
227.9	26.11
228.117	-39.42
228.335	56.83
228.553	46.59
228.771	28.16
228.989	77.31
229.206	24.06
229.424	95.74
229.642	-14.85
229.86	-10.75
230.077	26.11
230.295	28.16
230.513	93.69
230.731	95.74
230.948	19.97
231.166	-6.66
231.384	-12.8
231.601	50.69
231.819	87.55
232.037	9.73
232.254	-0.51
232.472	42.5
232.689	17.92
232.907	71.17
233.125	56.83
233.342	65.02
233.56	-4.61
233.777	-6.66
233.995	30.21
234.213	-8.7
234.43	77.31
234.648	60.93
234.865	22.02
235.083	67.07
235.3	42.5
235.518	44.54
235.735	36.35
235.953	134.65
236.17	58.88
236.388	48.64
236.605	89.6
236.822	46.59
237.04	93.69
237.257	89.6
237.475	79.36
237.692	-16.9
237.909	56.83
238.127	89.6
238.344	48.64
238.562	15.87
238.779	5.63
238.996	17.92
239.214	32.26
239.431	56.83
239.648	-25.09
239.865	34.3
240.083	-2.56
240.3	67.07
240.517	62.98
240.735	101.89
240.952	75.26
241.169	24.06
241.386	-4.61
241.603	-12.8
241.821	7.68
242.038	60.93
242.255	22.02
242.472	13.82
242.689	-2.56
242.907	91.65
243.124	97.79
243.341	34.3
243.558	46.59
243.775	-14.85
243.992	15.87
244.209	69.12
244.426	65.02
244.643	105.98
244.86	116.22
245.078	46.59
245.295	52.74
245.512	5.63
245.729	58.88
245.946	15.87
246.163	60.93
246.38	30.21
246.597	17.92
246.814	75.26
247.031	60.93
247.248	83.45
247.464	-12.8
247.681	97.79
247.898	42.5
248.115	83.45
248.332	1.54
248.549	28.16
248.766	52.74
248.983	83.45
249.2	9.73
249.417	-2.56
249.633	-39.42
249.85	-27.14
250.067	62.98
250.284	38.4
250.501	-14.85
250.717	17.92
250.934	11.78
251.151	83.45
251.368	-29.18
251.585	54.78
251.801	110.08
252.018	-10.75
252.235	91.65
252.451	46.59
252.668	11.78
252.885	62.98
253.102	101.89
253.318	-2.56
253.535	40.45
253.752	1.54
253.968	28.16
254.185	46.59
254.401	19.97
254.618	56.83
254.835	22.02
255.051	38.4
255.268	67.07
255.484	54.78
255.701	56.83
255.917	132.61
256.134	54.78
256.351	40.45
256.567	32.26
256.784	54.78
257	122.37
257.217	48.64
257.433	32.26
257.65	30.21
257.866	71.17
258.082	110.08
258.299	17.92
258.515	1.54
258.732	-14.85
258.948	48.64
259.165	91.65
259.381	13.82
259.597	34.3
259.814	-0.51
260.03	40.45
260.246	56.83
260.463	65.02
260.679	69.12
260.895	44.54
261.112	1.54
261.328	58.88
261.544	28.16
261.761	56.83
261.977	136.7
262.193	97.79
262.409	75.26
262.626	75.26
262.842	30.21
263.058	17.92
263.274	89.6
263.49	50.69
263.707	77.31
263.923	93.69
264.139	19.97
264.355	62.98
264.571	85.5
264.787	-14.85
265.004	34.3
265.22	71.17
265.436	69.12
265.652	17.92
265.868	32.26
266.084	34.3
266.3	17.92
266.516	19.97
266.732	9.73
266.948	62.98
267.164	30.21
267.38	3.58
267.596	91.65
267.812	38.4
268.028	54.78
268.244	-37.38
268.46	-10.75
268.676	-27.14
268.892	85.5
269.108	114.17
269.324	7.68
269.54	32.26
269.756	126.46
269.972	30.21
270.188	44.54
270.403	71.17
270.619	42.5
270.835	32.26
271.051	56.83
271.267	67.07
271.483	17.92
271.698	24.06
271.914	87.55
272.13	38.4
272.346	75.26
272.562	-16.9
272.777	48.64
272.993	-6.66
273.209	56.83
273.425	-35.33
273.64	3.58
273.856	40.45
274.072	67.07
274.287	42.5
274.503	73.21
274.719	5.63
274.934	105.98
275.15	73.21
275.366	40.45
275.581	42.5
275.797	30.21
276.012	32.26
276.228	75.26
276.444	108.03
276.659	62.98
276.875	-23.04
277.09	34.3
277.306	19.97
277.521	65.02
277.737	11.78
277.952	77.31
278.168	77.31
278.383	65.02
278.599	89.6
278.814	79.36
279.03	52.74
279.245	38.4
279.461	95.74
279.676	65.02
279.892	60.93
280.107	11.78
280.322	38.4
280.538	9.73
280.753	56.83
280.969	60.93
281.184	17.92
281.399	62.98
281.615	97.79
281.83	83.45
282.045	54.78
282.26	5.63
282.476	22.02
282.691	40.45
282.906	48.64
283.122	13.82
283.337	75.26
283.552	67.07
283.767	65.02
283.983	7.68
284.198	69.12
284.413	62.98
284.628	5.63
284.843	1.54
285.058	58.88
285.274	-23.04
285.489	-14.85
285.704	52.74
285.919	34.3
286.134	75.26
286.349	-14.85
286.564	54.78
286.779	62.98
286.995	15.87
287.21	32.26
287.425	5.63
287.64	-51.71
287.855	105.98
288.07	40.45
288.285	46.59
288.5	62.98
288.715	91.65
288.93	75.26
289.145	-8.7
289.36	105.98
289.575	-6.66
289.79	138.75
290.004	79.36
290.219	24.06
290.434	62.98
290.649	19.97
290.864	44.54
291.079	58.88
291.294	103.93
291.509	48.64
291.724	75.26
291.938	-49.66
292.153	58.88
292.368	95.74
292.583	85.5
292.798	67.07
293.012	62.98
293.227	48.64
293.442	26.11
293.657	-4.61
293.871	87.55
294.086	85.5
294.301	83.45
294.516	97.79
294.73	71.17
294.945	52.74
295.16	110.08
295.374	-25.09
295.589	42.5
295.804	50.69
296.018	38.4
296.233	58.88
296.447	87.55
296.662	38.4
296.877	79.36
297.091	62.98
297.306	26.11
297.52	40.45
297.735	-18.94
297.949	15.87
298.164	60.93
298.378	-35.33
298.593	44.54
298.807	56.83
299.022	77.31
299.236	130.56
299.451	-18.94
299.665	56.83
299.88	75.26
300.094	91.65
300.309	71.17
300.523	1.54
300.737	85.5
300.952	65.02
301.166	58.88
301.381	48.64
301.595	91.65
301.809	44.54
302.024	-8.7
302.238	87.55
302.452	13.82
302.667	177.66
302.881	103.93
303.095	65.02
303.309	91.65
303.524	50.69
303.738	46.59
303.952	79.36
304.166	56.83
304.381	24.06
304.595	48.64
304.809	28.16
305.023	97.79
305.237	58.88
305.452	30.21
305.666	75.26
305.88	79.36
306.094	5.63
306.308	11.78
306.522	91.65
306.736	89.6
306.95	134.65
307.164	60.93
307.379	19.97
307.593	11.78
307.807	67.07
308.021	44.54
308.235	132.61
308.449	26.11
308.663	81.41
308.877	99.84
309.091	67.07
309.305	26.11
309.519	50.69
309.733	81.41
309.947	36.35
310.161	19.97
310.374	89.6
310.588	13.82
310.802	87.55
311.016	-2.56
311.23	50.69
311.444	99.84
311.658	9.73
311.872	54.78
312.085	46.59
312.299	50.69
312.513	67.07
312.727	89.6
312.941	1.54
313.154	58.88
313.368	99.84
313.582	13.82
313.796	77.31
314.009	30.21
314.223	58.88
314.437	54.78
314.651	91.65
314.864	54.78
315.078	67.07
315.292	30.21
315.505	13.82
315.719	38.4
315.933	52.74
316.146	52.74
316.36	77.31
316.573	67.07
316.787	73.21
317.001	65.02
317.214	-0.51
317.428	56.83
317.641	-2.56
317.855	89.6
318.068	91.65
318.282	79.36
318.495	56.83
318.709	48.64
318.922	71.17
319.136	71.17
319.349	130.56
319.563	34.3
319.776	108.03
319.99	40.45
320.203	60.93
320.417	32.26
320.63	116.22
320.843	62.98
321.057	48.64
321.27	71.17
321.483	153.09
321.697	32.26
321.91	30.21
322.124	65.02
322.337	71.17
322.55	77.31
322.763	81.41
322.977	34.3
323.19	89.6
323.403	46.59
323.617	73.21
323.83	161.28
324.043	58.88
324.256	136.7
324.469	22.02
324.683	153.09
324.896	58.88
325.109	-31.23
325.322	40.45
325.535	114.17
325.748	87.55
325.962	128.51
326.175	114.17
326.388	71.17
326.601	24.06
326.814	38.4
327.027	157.18
327.24	54.78
327.453	19.97
327.666	40.45
327.879	99.84
328.092	62.98
328.305	103.93
328.518	97.79
328.731	91.65
328.944	38.4
329.157	28.16
329.37	48.64
329.583	65.02
329.796	93.69
330.009	42.5
330.222	50.69
330.435	103.93
330.648	89.6
330.861	32.26
331.073	95.74
331.286	103.93
331.499	42.5
331.712	56.83
331.925	30.21
332.138	155.13
332.35	81.41
332.563	40.45
332.776	95.74
332.989	118.27
333.202	3.58
333.414	85.5
333.627	85.5
333.84	50.69
334.053	24.06
334.265	-0.51
334.478	110.08
334.691	105.98
334.903	79.36
335.116	5.63
335.329	44.54
335.541	128.51
335.754	122.37
335.966	54.78
336.179	73.21
336.392	50.69
336.604	105.98
336.817	83.45
337.029	81.41
337.242	54.78
337.454	87.55
337.667	85.5
337.88	142.85
338.092	42.5
338.305	52.74
338.517	38.4
338.729	36.35
338.942	103.93
339.154	71.17
339.367	3.58
339.579	83.45
339.792	26.11
340.004	54.78
340.217	91.65
340.429	97.79
340.641	144.89
340.854	42.5
341.066	101.89
341.278	44.54
341.491	85.5
341.703	26.11
341.915	89.6
342.128	93.69
342.34	75.26
342.552	73.21
342.764	69.12
342.977	103.93
343.189	110.08
343.401	99.84
343.613	28.16
343.826	19.97
344.038	89.6
344.25	138.75
344.462	58.88
344.674	103.93
344.886	75.26
345.099	42.5
345.311	85.5
345.523	134.65
345.735	9.73
345.947	173.57
346.159	52.74
346.371	28.16
346.583	67.07
346.795	134.65
347.007	30.21
347.219	77.31
347.431	15.87
347.643	26.11
347.855	87.55
348.067	128.51
348.279	140.8
348.491	93.69
348.703	32.26
348.915	52.74
349.127	30.21
349.339	56.83
349.551	89.6
349.763	159.23
349.975	62.98
350.187	48.64
350.399	58.88
350.61	110.08
350.822	17.92
351.034	26.11
351.246	48.64
351.458	101.89
351.669	44.54
351.881	144.89
352.093	50.69
352.305	89.6
352.517	24.06
352.728	161.28
352.94	71.17
353.152	40.45
353.363	91.65
353.575	52.74
353.787	116.22
353.999	99.84
354.21	124.41
354.422	60.93
354.633	62.98
354.845	62.98
355.057	58.88
355.268	71.17
355.48	71.17
355.692	95.74
355.903	22.02
356.115	105.98
356.326	71.17
356.538	181.76
356.749	91.65
356.961	48.64
357.172	103.93
357.384	110.08
357.595	87.55
357.807	69.12
358.018	30.21
358.23	112.13
358.441	118.27
358.653	118.27
358.864	30.21
359.075	71.17
359.287	42.5
359.498	108.03
359.709	128.51
359.921	101.89
360.132	105.98
360.344	112.13
360.555	97.79
360.766	110.08
360.977	85.5
361.189	87.55
361.4	38.4
361.611	85.5
361.823	151.04
362.034	75.26
362.245	103.93
362.456	26.11
362.667	95.74
362.879	54.78
363.09	58.88
363.301	19.97
363.512	65.02
363.723	54.78
363.935	58.88
364.146	89.6
364.357	58.88
364.568	112.13
364.779	54.78
364.99	83.45
365.201	62.98
365.412	134.65
365.623	36.35
365.834	130.56
366.045	85.5
366.256	52.74
366.467	97.79
366.678	128.51
366.889	134.65
367.1	144.89
367.311	24.06
367.522	79.36
367.733	62.98
367.944	-16.9
368.155	75.26
368.366	114.17
368.577	130.56
368.788	114.17
368.999	22.02
369.209	136.7
369.42	136.7
369.631	118.27
369.842	110.08
370.053	130.56
370.264	144.89
370.474	83.45
370.685	54.78
370.896	38.4
371.107	99.84
371.317	87.55
371.528	60.93
371.739	124.41
371.95	71.17
372.16	140.8
372.371	42.5
372.582	124.41
372.792	146.94
373.003	89.6
373.214	105.98
373.424	79.36
373.635	69.12
373.846	108.03
374.056	65.02
374.267	77.31
374.477	155.13
374.688	148.99
374.898	83.45
375.109	112.13
375.319	69.12
375.53	177.66
375.74	69.12
375.951	79.36
376.161	97.79
376.372	89.6
376.582	110.08
376.793	73.21
377.003	60.93
377.214	126.46
377.424	79.36
377.635	32.26
377.845	99.84
378.055	116.22
378.266	42.5
378.476	103.93
378.686	85.5
378.897	40.45
379.107	124.41
379.317	56.83
379.528	165.37
379.738	134.65
379.948	124.41
380.158	189.95
380.369	75.26
380.579	58.88
380.789	116.22
380.999	132.61
381.21	62.98
381.42	138.75
381.63	24.06
381.84	116.22
382.05	99.84
382.261	81.41
382.471	120.32
382.681	83.45
382.891	101.89
383.101	71.17
383.311	99.84
383.521	32.26
383.731	67.07
383.941	91.65
384.151	42.5
384.361	87.55
384.571	124.41
384.781	144.89
384.991	91.65
385.201	97.79
385.411	77.31
385.621	112.13
385.831	65.02
386.041	130.56
386.251	79.36
386.461	196.09
386.671	114.17
386.881	95.74
387.091	79.36
387.301	208.38
387.511	112.13
387.72	144.89
387.93	198.14
388.14	7.68
388.35	189.95
388.56	239.1
388.769	138.75
388.979	206.33
389.189	56.83
389.399	118.27
389.609	91.65
389.818	155.13
390.028	105.98
390.238	163.33
390.447	99.84
390.657	194.05
390.867	163.33
391.076	128.51
391.286	140.8
391.496	132.61
391.705	46.59
391.915	194.05
392.125	116.22
392.334	130.56
392.544	120.32
392.753	138.75
392.963	69.12
393.172	128.51
393.382	165.37
393.591	179.71
393.801	126.46
394.01	169.47
394.22	97.79
394.429	128.51
394.639	120.32
394.848	136.7
395.058	175.61
395.267	79.36
395.477	247.29
395.686	185.85
395.895	192
396.105	208.38
396.314	173.57
396.524	148.99
396.733	169.47
396.942	177.66
397.152	202.24
397.361	224.76
397.57	196.09
397.78	204.28
397.989	173.57
398.198	220.67
398.407	138.75
398.617	208.38
398.826	224.76
399.035	200.19
399.244	202.24
399.453	153.09
399.663	189.95
399.872	296.44
400.081	177.66
400.29	263.68
400.499	210.43
400.708	187.9
400.917	142.85
401.127	208.38
401.336	239.1
401.545	230.91
401.754	286.2
401.963	224.76
402.172	261.63
402.381	173.57
402.59	208.38
402.799	181.76
403.008	239.1
403.217	243.2
403.426	292.35
403.635	323.07
403.844	308.73
404.053	187.9
404.262	263.68
404.471	327.16
404.68	318.97
404.888	269.82
405.097	298.49
405.306	388.6
405.515	329.21
405.724	355.83
405.933	398.84
406.142	407.03
406.35	349.69
406.559	351.74
406.768	366.07
406.977	470.52
407.185	402.94
407.394	493.05
407.603	345.59
407.812	470.52
408.02	445.95
408.229	482.81
408.438	409.08
408.646	484.86
408.855	591.35
409.064	574.97
409.272	515.58
409.481	589.3
409.69	597.49
409.898	613.88
410.107	769.52
410.315	630.26
410.524	703.99
410.733	738.8
410.941	806.39
411.15	747
411.358	787.96
411.567	888.31
411.775	843.25
411.984	816.63
412.192	996.85
412.401	937.46
412.609	1023.47
412.818	1082.86
413.026	1033.71
413.234	1136.11
413.443	1058.29
413.651	1177.07
413.86	1199.6
414.068	1314.28
414.276	1361.39
414.485	1379.82
414.693	1293.8
414.901	1482.22
415.11	1578.47
415.318	1521.13
415.526	1646.05
415.734	1684.97
415.943	1762.79
416.151	1803.75
416.359	1897.96
416.567	1988.07
416.776	2004.45
416.984	2096.61
417.192	2057.7
417.4	2235.87
417.608	2242.01
417.817	2309.6
418.025	2387.42
418.233	2571.74
418.441	2536.92
418.649	2670.04
418.857	2899.41
419.065	2989.52
419.273	2858.45
419.481	3065.3
419.689	3126.74
419.897	3392.97
420.105	3431.88
420.313	3610.06
420.521	3651.02
420.729	3653.06
420.937	3747.27
421.145	3941.83
421.353	4173.25
421.561	4328.89
421.769	4494.78
421.977	4466.11
422.185	4535.74
422.393	4789.69
422.601	5168.56
422.809	5146.03
423.017	5266.86
423.224	5307.82
423.432	5565.87
423.64	5602.73
423.848	6155.68
424.056	5801.38
424.263	6528.41
424.471	6321.57
424.679	6559.13
424.887	6950.29
425.094	7124.37
425.302	7316.88
425.51	7357.84
425.718	7515.53
425.925	7771.53
426.133	8091.01
426.341	8453.5
426.548	8953.21
426.756	8834.43
426.964	8981.88
427.171	9569.65
427.379	9893.23
427.586	9969
427.794	10018.15
428.001	10771.8
428.209	11210.07
428.417	10992.98
428.624	11787.6
428.832	11636.05
429.039	11615.57
429.247	11830.6
429.454	12811.58
429.662	13626.67
429.869	12723.52
430.076	13622.58
430.284	13069.62
430.491	13937.96
430.699	14660.9
430.906	14728.48
431.114	14884.12
431.321	15574.29
431.528	15912.21
431.736	16827.65
431.943	17347.83
432.15	16895.23
432.358	17130.75
432.565	18341.1
432.772	18081
432.979	19055.84
433.187	19195.1
433.394	19586.26
433.601	20886.72
433.808	21087.42
434.016	20765.89
434.223	21646.52
434.43	22850.72
434.637	22588.58
434.844	23843.99
435.052	24605.83
435.259	24003.73
435.466	24575.11
435.673	24355.98
435.88	25769.08
436.087	27006.05
436.294	27253.86
436.501	26467.44
436.708	27216.99
436.915	27923.54
437.122	29021.25
437.329	29199.43
437.537	30143.54
437.743	30370.86
437.95	30360.62
438.157	32087.06
438.364	33113.09
438.571	32865.29
438.778	33180.68
438.985	36238.3
439.192	34382.84
439.399	35726.3
439.606	34960.36
439.813	36662.22
440.02	39062.44
440.227	38468.53
440.433	38063.04
440.64	39263.14
440.847	38974.38
441.054	40072.09
441.261	42900.34
441.467	41839.49
441.674	43148.14
441.881	44630.87
442.088	44065.63
442.294	44204.89
442.501	45165.39
442.708	46156.61
442.914	47518.51
443.121	49470.22
443.328	48421.66
443.534	51722.99
443.741	50086.66
443.948	49580.81
444.154	52685.53
444.361	53082.84
444.568	53201.62
444.774	53123.8
444.981	53906.12
445.187	55433.91
445.394	57297.56
445.6	56851.1
445.807	61370.97
446.013	58833.53
446.22	60074.6
446.426	62085.71
446.633	62124.62
446.839	63988.27
447.046	62167.63
447.252	64076.33
447.459	64076.33
447.665	64076.33
447.871	64076.33
448.078	64076.33
448.284	64076.33
448.491	64076.33
448.697	64076.33
448.903	64076.33
449.11	64076.33
449.316	64076.33
449.522	64076.33
449.728	64076.33
449.935	64076.33
450.141	64076.33
450.347	64076.33
450.553	64076.33
450.76	64076.33
450.966	64076.33
451.172	64076.33
451.378	64076.33
451.584	64076.33
451.791	64076.33
451.997	64076.33
452.203	64076.33
452.409	64076.33
452.615	64076.33
452.821	64076.33
453.027	64076.33
453.233	64076.33
453.44	64076.33
453.646	64076.33
453.852	64076.33
454.058	64076.33
454.264	64076.33
454.47	64076.33
454.676	64076.33
454.882	64076.33
455.088	64076.33
455.294	64076.33
455.5	64076.33
455.705	64076.33
455.911	64076.33
456.117	64076.33
456.323	64076.33
456.529	64076.33
456.735	64076.33
456.941	64076.33
457.147	64076.33
457.352	64076.33
457.558	64076.33
457.764	64076.33
457.97	64076.33
458.176	62782.02
458.381	61995.6
458.587	58940.03
458.793	59241.08
458.999	56365.73
459.204	59789.94
459.41	58288.77
459.616	55014.07
459.821	55073.46
460.027	54733.5
460.233	53568.21
460.438	51469.04
460.644	51471.09
460.85	49392.4
461.055	48907.03
461.261	49074.96
461.466	45161.29
461.672	43938.66
461.878	46965.56
462.083	44206.94
462.289	42832.75
462.494	42349.43
462.7	40795.03
462.905	39682.98
463.111	41196.43
463.316	41323.4
463.522	40508.31
463.727	40571.8
463.932	40590.23
464.138	39934.88
464.343	39934.88
464.549	38699.95
464.754	40391.58
464.959	39820.19
465.165	39336.87
465.37	37848
465.575	37223.37
465.781	38550.45
465.986	38902.7
466.191	37307.33
466.397	36604.88
466.602	34751.47
466.807	36496.34
467.012	36213.72
467.218	35806.17
467.423	35152.87
467.628	35468.26
467.833	37172.17
468.038	35406.82
468.244	34823.15
468.449	36467.67
468.654	34788.33
468.859	34763.76
469.064	34491.38
469.269	33506.3
469.474	33350.66
469.679	34221.05
469.885	33012.74
470.09	33467.39
470.295	33276.93
470.5	32291.86
470.705	32435.22
470.91	32027.67
471.115	31689.76
471.32	31996.95
471.525	31835.16
471.73	31259.68
471.935	30917.67
472.139	29934.65
472.344	30651.44
472.549	30168.12
472.754	29787.19
472.959	28935.24
473.164	28628.04
473.369	28226.64
473.574	28988.49
473.778	28937.29
473.983	28597.32
474.188	28537.93
474.393	27243.62
474.598	27440.22
474.802	27128.93
475.007	27053.16
475.212	26868.84
475.417	26068.08
475.621	25865.33
475.826	26156.14
476.031	25777.27
476.235	25040
476.44	25644.15
476.645	25021.57
476.849	25158.78
477.054	24712.33
477.259	24444.04
477.463	24452.23
477.668	23377.05
477.872	23729.3
478.077	23375
478.282	23135.39
478.486	22869.16
478.691	22717.61
478.895	22840.48
479.1	22572.2
479.304	22355.11
479.509	21763.25
479.713	22170.8
479.918	21867.7
480.122	21466.3
480.326	21685.43
480.531	21642.42
480.735	21290.17
480.94	21265.6
481.144	21593.27
481.348	21071.04
481.553	21353.66
481.757	20743.36
481.961	21099.71
482.166	21263.55
482.37	21095.61
482.574	20718.79
482.778	20810.95
482.983	20911.3
483.187	20976.83
483.391	21064.89
483.595	20698.31
483.8	20425.93
484.004	20632.77
484.208	20696.26
484.412	20735.17
484.616	20765.89
484.821	20831.43
485.025	20503.75
485.229	20929.73
485.433	20497.61
485.637	20544.71
485.841	20278.47
486.045	20673.73
486.249	20647.11
486.453	20536.52
486.657	20915.39
486.861	20819.14
487.065	20387.02
487.269	20743.36
487.473	20229.32
487.677	21005.5
487.881	20698.31
488.085	20452.55
488.289	20796.61
488.493	20751.56
488.697	20718.79
488.901	21050.56
489.105	20661.44
489.309	21066.94
489.512	20978.88
489.716	20876.48
489.92	20786.37
490.124	20966.59
490.328	21433.53
490.531	21062.85
490.735	21077.18
490.939	21404.86
491.143	21044.41
491.346	21116.09
491.55	21486.78
491.754	21580.98
491.958	21753.01
492.161	21744.82
492.365	21521.59
492.569	21660.85
492.772	21679.29
492.976	21845.17
493.18	22076.59
493.383	22258.86
493.587	22189.23
493.79	22799.52
493.994	22240.43
494.197	22660.26
494.401	22555.82
494.605	22631.59
494.808	22846.63
495.012	23164.06
495.215	23135.39
495.419	23628.95
495.622	23387.29
495.825	23731.35
496.029	23727.25
496.232	24446.09
496.436	24323.21
496.639	24652.94
496.843	24601.74
497.046	25123.97
497.249	25181.31
497.453	25572.47
497.656	25822.33
497.859	25717.88
498.063	26047.6
498.266	26418.28
498.469	26383.47
498.673	26793.06
498.876	27194.47
499.079	27655.26
499.282	27438.17
499.485	28001.36
499.689	28023.89
499.892	28374.1
500.095	28669
500.298	29396.03
500.501	28970.05
500.705	29633.6
500.908	29824.06
501.111	30766.12
501.314	30741.55
501.517	30940.2
501.72	31489.06
501.923	31409.18
502.126	32158.74
502.329	32406.55
502.532	32377.87
502.735	32588.81
502.938	33424.39
503.141	33197.06
503.344	34042.87
503.547	33580.03
503.75	34446.32
503.953	34679.79
504.156	35206.12
504.359	35347.43
504.562	35404.77
504.765	36774.86
504.968	36656.08
505.17	37123.02
505.373	37276.62
505.576	37598.15
505.779	38220.73
505.982	38441.91
506.185	38972.33
506.387	39003.05
506.59	39588.77
506.793	40297.37
506.996	39850.91
507.198	41102.22
507.401	41061.26
507.604	41380.74
507.807	42449.78
508.009	42484.6
508.212	42580.85
508.415	43402.09
508.617	43717.48
508.82	43504.49
509.022	43713.38
509.225	44727.13
509.428	45108.05
509.63	45108.05
509.833	45288.27
510.035	46512.95
510.238	46158.66
510.44	46709.56
510.643	47606.57
510.845	47792.93
511.048	47479.6
511.25	48368.41
511.453	48427.81
511.655	50207.49
511.858	49812.23
512.06	49965.83
512.262	50471.68
512.465	50803.45
512.667	51251.95
512.87	51772.14
513.072	51673.84
513.274	52978.39
513.477	53172.95
513.679	53111.51
513.881	54252.23
514.084	53832.39
514.286	54221.51
514.488	54893.24
514.69	56185.51
514.893	56169.13
515.095	56306.34
515.297	56638.11
515.499	56636.06
515.701	57545.36
515.904	58043.02
516.106	57944.72
516.308	58745.47
516.51	59169.4
516.712	58987.13
516.914	60058.22
517.116	60367.46
517.318	60381.8
517.52	60609.12
517.722	61059.68
517.925	61936.21
518.127	62308.94
518.329	62321.23
518.531	62280.27
518.733	63357.5
518.935	63562.29
519.136	63390.26
519.338	64076.33
519.54	64076.33
519.742	64076.33
519.944	64076.33
520.146	64076.33
520.348	64076.33
520.55	64076.33
520.752	64076.33
520.954	64076.33
521.155	64076.33
521.357	64076.33
521.559	64076.33
521.761	64076.33
521.963	64076.33
522.164	64076.33
522.366	64076.33
522.568	64076.33
522.77	64076.33
522.971	64076.33
523.173	64076.33
523.375	64076.33
523.576	64076.33
523.778	64076.33
523.98	64076.33
524.181	64076.33
524.383	64076.33
524.584	64076.33
524.786	64076.33
524.988	64076.33
525.189	64076.33
525.391	64076.33
525.592	64076.33
525.794	64076.33
525.995	64076.33
526.197	64076.33
526.398	64076.33
526.6	64076.33
526.801	64076.33
527.003	64076.33
527.204	64076.33
527.406	64076.33
527.607	64076.33
527.808	64076.33
528.01	64076.33
528.211	64076.33
528.412	64076.33
528.614	64076.33
528.815	64076.33
529.016	64076.33
529.218	64076.33
529.419	64076.33
529.62	64076.33
529.822	64076.33
530.023	64076.33
530.224	64076.33
530.425	64076.33
530.626	64076.33
530.828	64076.33
531.029	64076.33
531.23	64076.33
531.431	64076.33
531.632	64076.33
531.833	64076.33
532.035	64076.33
532.236	64076.33
532.437	64076.33
532.638	64076.33
532.839	64076.33
533.04	64076.33
533.241	64076.33
533.442	64076.33
533.643	64076.33
533.844	64076.33
534.045	64076.33
534.246	64076.33
534.447	64076.33
534.648	64076.33
534.849	64076.33
535.05	64076.33
535.251	64076.33
535.451	64076.33
535.652	64076.33
535.853	64076.33
536.054	64076.33
536.255	64076.33
536.456	64076.33
536.657	64076.33
536.857	64076.33
537.058	64076.33
537.259	64076.33
537.46	64076.33
537.66	64076.33
537.861	64076.33
538.062	64076.33
538.263	64076.33
538.463	64076.33
538.664	64076.33
538.865	64076.33
539.065	64076.33
539.266	64076.33
539.466	64076.33
539.667	64076.33
539.868	64076.33
540.068	64076.33
540.269	64076.33
540.469	64076.33
540.67	64076.33
540.87	64076.33
541.071	64076.33
541.271	64076.33
541.472	64076.33
541.672	64076.33
541.873	64076.33
542.073	64076.33
542.274	64076.33
542.474	64076.33
542.675	64076.33
542.875	64076.33
543.075	64076.33
543.276	64076.33
543.476	64076.33
543.676	64076.33
543.877	64076.33
544.077	64076.33
544.277	64076.33
544.478	64076.33
544.678	64076.33
544.878	64076.33
545.078	64076.33
545.279	64076.33
545.479	64076.33
545.679	64076.33
545.879	64076.33
546.079	64076.33
546.28	64076.33
546.48	64076.33
546.68	64076.33
546.88	64076.33
547.08	64076.33
547.28	64076.33
547.48	64076.33
547.68	64076.33
547.88	64076.33
548.081	64076.33
548.281	64076.33
548.481	64076.33
548.681	64076.33
548.881	64076.33
549.081	64076.33
549.28	64076.33
549.48	64076.33
549.68	64076.33
549.88	64076.33
550.08	64076.33
550.28	64076.33
550.48	64076.33
550.68	64076.33
550.88	64076.33
551.08	64076.33
551.279	64076.33
551.479	64076.33
551.679	64076.33
551.879	64076.33
552.079	64076.33
552.278	64076.33
552.478	64076.33
552.678	64076.33
552.878	64076.33
553.077	64076.33
553.277	64076.33
553.477	64076.33
553.676	64076.33
553.876	64076.33
554.076	64076.33
554.275	64076.33
554.475	64076.33
554.674	64076.33
554.874	64076.33
555.074	64076.33
555.273	64076.33
555.473	64076.33
555.672	64076.33
555.872	64076.33
556.071	64076.33
556.271	64076.33
556.47	64076.33
556.67	64076.33
556.869	64076.33
557.068	64076.33
557.268	64076.33
557.467	64076.33
557.667	64076.33
557.866	64076.33
558.065	64076.33
558.265	64076.33
558.464	64076.33
558.663	64076.33
558.863	64076.33
559.062	64076.33
559.261	64076.33
559.461	64076.33
559.66	64076.33
559.859	64076.33
560.058	64076.33
560.258	64076.33
560.457	64076.33
560.656	64076.33
560.855	64076.33
561.054	64076.33
561.253	64076.33
561.453	64076.33
561.652	64076.33
561.851	64076.33
562.05	64076.33
562.249	64076.33
562.448	64076.33
562.647	64076.33
562.846	64076.33
563.045	64076.33
563.244	64076.33
563.443	64076.33
563.642	64076.33
563.841	64076.33
564.04	64076.33
564.239	64076.33
564.438	64076.33
564.637	64076.33
564.836	64076.33
565.035	64076.33
565.234	64076.33
565.432	64076.33
565.631	64076.33
565.83	64076.33
566.029	64076.33
566.228	64076.33
566.427	64076.33
566.625	64076.33
566.824	64076.33
567.023	64076.33
567.222	64076.33
567.42	64076.33
567.619	64076.33
567.818	64076.33
568.016	64076.33
568.215	64076.33
568.414	64076.33
568.612	64076.33
568.811	64076.33
569.01	64076.33
569.208	64076.33
569.407	64076.33
569.605	64076.33
569.804	64076.33
570.002	64076.33
570.201	64076.33
570.4	64076.33
570.598	64076.33
570.797	64076.33
570.995	64076.33
571.193	64076.33
571.392	64076.33
571.59	64076.33
571.789	64076.33
571.987	64076.33
572.186	64076.33
572.384	64076.33
572.582	64076.33
572.781	64076.33
572.979	64076.33
573.177	64076.33
573.376	64076.33
573.574	64076.33
573.772	64076.33
573.971	64076.33
574.169	64076.33
574.367	64076.33
574.565	64076.33
574.763	64076.33
574.962	64076.33
575.16	64076.33
575.358	64076.33
575.556	64076.33
575.754	64076.33
575.952	64076.33
576.151	64076.33
576.349	64076.33
576.547	64076.33
576.745	64076.33
576.943	64076.33
577.141	64076.33
577.339	64076.33
577.537	64076.33
577.735	64076.33
577.933	64076.33
578.131	64076.33
578.329	64076.33
578.527	64076.33
578.725	64076.33
578.923	64076.33
579.121	64076.33
579.319	64076.33
579.516	64076.33
579.714	64076.33
579.912	64076.33
580.11	64076.33
580.308	64076.33
580.506	64076.33
580.704	63355.45
580.901	64031.28
581.099	64076.33
581.297	63615.54
581.495	63642.16
581.692	63646.26
581.89	62937.66
582.088	63654.45
582.285	63072.83
582.483	63441.46
582.681	63271.48
582.878	62837.31
583.076	62419.53
583.274	63085.12
583.471	61794.9
583.669	62589.51
583.866	62110.28
584.064	62665.28
584.262	61846.1
584.459	62294.6
584.657	61311.58
584.854	62007.89
585.052	61002.33
585.249	61241.95
585.447	61413.97
585.644	60904.03
585.841	60906.08
586.039	61164.12
586.236	60619.36
586.434	60133.99
586.631	60291.69
586.828	60263.02
587.026	60240.49
587.223	59914.86
587.42	59697.78
587.618	59918.96
587.815	59234.94
588.012	59234.94
588.21	59058.81
588.407	59603.57
588.604	58792.57
588.801	58759.81
588.999	58956.41
589.196	58600.07
589.393	58702.46
589.59	58243.72
589.787	58034.83
589.984	57584.27
590.182	57541.27
590.379	58100.36
590.576	57873.04
590.773	57807.5
590.97	57111.19
591.167	57025.18
591.364	56838.81
591.561	57062.04
591.758	56052.39
591.955	56218.28
592.152	56937.12
592.349	55892.65
592.546	56808.09
592.743	56400.55
592.94	55315.12
593.137	55972.52
593.334	55966.38
593.531	54870.71
593.727	55581.36
593.924	55143.09
594.121	54917.82
594.318	55603.89
594.515	54293.19
594.712	55192.25
594.908	54512.32
595.105	54250.18
595.302	53856.97
595.499	54420.16
595.696	53955.27
595.892	53525.2
596.089	53766.86
596.286	53746.38
596.482	53414.61
596.679	53375.7
596.876	53643.98
597.072	52902.62
597.269	53039.83
597.466	52345.57
597.662	52599.52
597.859	52441.82
598.055	52617.95
598.252	52058.85
598.448	51765.99
598.645	51634.92
598.841	51563.25
599.038	51485.42
599.234	51360.5
599.431	50787.07
599.627	50746.11
599.824	51063.54
600.02	50631.42
600.217	50793.21
600.413	50469.63
600.609	50393.86
600.806	49924.87
601.002	50422.53
601.198	50043.65
601.395	49900.29
601.591	49634.06
601.787	49572.62
601.984	49195.79
602.18	49720.07
602.376	49318.67
602.572	49019.67
602.769	49226.51
602.965	48468.76
603.161	48933.65
603.357	48417.57
603.553	48843.54
603.75	47729.45
603.946	47899.43
604.142	48042.79
604.338	47573.8
604.534	47995.68
604.73	47391.53
604.926	47407.92
605.122	47649.58
605.318	47149.87
605.514	46889.78
605.71	46959.41
605.906	47053.62
606.102	46840.63
606.298	46467.9
606.494	46568.25
606.69	46502.71
606.886	46652.22
607.082	45951.81
607.278	46576.44
607.474	45871.94
607.67	46031.68
607.866	45437.77
608.062	46316.35
608.257	45441.87
608.453	45398.86
608.649	45988.67
608.845	45640.52
609.041	45349.71
609.236	45134.67
609.432	44968.79
609.628	45316.94
609.824	44845.91
610.019	45024.08
610.215	44882.77
610.411	45071.18
610.606	44594.01
610.802	44370.78
610.998	44419.93
611.193	44407.64
611.389	44225.37
611.584	43783.01
611.78	43916.13
611.976	44100.45
612.171	43912.03
612.367	44106.59
612.562	44034.91
612.758	43342.7
612.953	43506.54
613.149	43993.95
613.344	43094.89
613.539	43957.09
613.735	43539.3
613.93	43727.72
614.126	43314.03
614.321	43240.3
614.517	43670.37
614.712	43400.04
614.907	42457.98
615.103	43373.42
615.298	42826.61
615.493	43486.06
615.688	42322.81
615.884	43473.77
616.079	42562.42
616.274	42486.65
616.47	42435.45
616.665	42740.6
616.86	41956.22
617.055	42120.06
617.25	41849.73
617.445	42552.18
617.641	41415.56
617.836	41698.18
618.031	41448.33
618.226	41558.92
618.421	41053.07
618.616	41706.37
618.811	40801.17
619.006	41569.16
619.201	40666
619.396	41163.66
619.591	40414.1
619.786	41055.12
619.981	40031.13
620.176	40346.52
620.371	39672.74
620.566	40047.52
620.761	39832.48
620.956	40117.15
621.151	39431.08
621.346	39381.93
621.541	38638.51
621.735	39197.61
621.93	38544.31
622.125	38554.55
622.32	38071.23
622.515	38398.9
622.709	37811.14
622.904	37862.33
623.099	37274.57
623.294	37977.02
623.488	37125.07
623.683	37301.19
623.878	36649.94
624.072	37051.34
624.267	36635.6
624.462	36494.29
624.656	36123.61
624.851	36205.53
625.046	35464.16
625.24	35554.27
625.435	35281.89
625.629	35333.09
625.824	34798.57
626.018	34943.98
626.213	33911.8
626.407	34683.89
626.602	34169.85
626.796	34620.4
626.991	34032.63
627.185	33827.84
627.38	33451.01
627.574	33201.16
627.768	32992.26
627.963	32918.54
628.157	32578.57
628.352	32601.1
628.546	32234.52
628.74	32646.16
628.935	32130.07
629.129	32230.42
629.323	31458.34
629.517	31757.34
629.712	31732.76
629.906	31231.01
630.1	31114.28
630.294	31235.11
630.489	31085.61
630.683	30975.02
630.877	30329.91
631.071	30438.45
631.265	29948.98
631.459	30247.99
631.653	29942.84
631.848	29822.01
632.042	29230.15
632.236	29459.52
632.43	29011.01
632.624	29303.87
632.818	28949.57
633.012	28279.89
633.206	28699.72
633.4	28943.43
633.594	28222.55
633.788	28587.08
633.982	28197.97
634.176	28224.59
634.369	27851.86
634.563	28159.06
634.757	27577.44
634.951	27771.99
635.145	27309.15
635.339	27389.02
635.533	26825.83
635.726	27159.65
635.92	26559.59
636.114	26854.5
636.308	26752.1
636.501	26471.53
636.695	26012.79
636.889	26328.17
637.083	25920.63
637.276	25988.21
637.47	25681.02
637.664	25492.6
637.857	25840.76
638.051	25339.01
638.244	25037.95
638.438	25236.61
638.632	25066.63
638.825	24493.19
639.019	24654.98
639.212	24657.03
639.406	24747.14
639.599	24503.43
639.793	24444.04
639.986	23901.33
640.18	24087.7
640.373	23800.98
640.567	23082.14
640.76	23866.52
640.954	23366.81
641.147	23682.2
641.34	23096.48
641.534	23057.57
641.727	23061.66
641.92	22836.39
642.114	22805.67
642.307	22834.34
642.5	22361.26
642.694	22168.75
642.887	22254.76
643.08	22635.69
643.273	22101.17
643.467	22090.93
643.66	21494.97
643.853	21558.46
644.046	21400.76
644.239	21501.11
644.432	21372.09
644.626	21494.97
644.819	21296.32
645.012	21130.43
645.205	21308.6
645.398	20694.21
645.591	20829.38
645.784	20729.03
645.977	20190.41
646.17	20624.58
646.363	20301
646.556	19961.04
646.749	20286.67
646.942	20346.06
647.135	19977.42
647.328	19526.87
647.521	19659.99
647.714	19463.38
647.907	19459.29
648.099	19252.44
648.292	19277.02
648.485	19334.36
648.678	19152.09
648.871	18963.68
649.064	18918.62
649.256	19266.78
649.449	18695.39
649.642	18611.43
649.835	18580.71
650.027	18273.51
650.22	18328.81
650.413	18248.94
650.605	18355.43
650.798	18033.9
650.991	17738.99
651.183	18078.96
651.376	17808.62
651.568	17595.64
651.761	17591.54
651.954	17710.32
652.146	17296.63
652.339	17329.4
652.531	17300.73
652.724	17085.69
652.916	16917.76
653.109	16866.56
653.301	17042.68
653.494	16610.56
653.686	16780.54
653.879	16811.26
654.071	16475.4
654.263	16354.57
654.456	16628.99
654.648	16459.01
654.84	16133.39
655.033	16108.81
655.225	15992.08
655.417	16041.23
655.61	15861.01
655.802	15940.88
655.994	15766.8
656.186	15570.19
656.379	15490.32
656.571	15224.09
656.763	15258.9
656.955	15297.81
657.148	15328.53
657.34	15279.38
657.532	14791.97
657.724	14814.49
657.916	14775.58
658.108	14685.47
658.3	14906.65
658.492	14570.79
658.684	14302.5
658.876	14538.02
659.068	14368.04
659.26	14255.4
659.452	14114.09
659.644	14060.84
659.836	14056.75
660.028	14267.69
660.22	13710.64
660.412	13632.82
660.604	13604.14
660.796	13776.17
660.988	13569.33
661.18	13534.51
661.372	13573.42
661.563	13313.33
661.755	13247.8
661.947	13266.23
662.139	13233.46
662.331	13065.53
662.522	12936.51
662.714	12690.75
662.906	12913.98
663.097	12952.89
663.289	12789.05
663.481	12649.79
663.673	12776.77
663.864	12508.48
664.056	12539.2
664.247	12535.1
664.439	12483.91
664.631	12156.23
664.822	12281.16
665.014	12432.71
665.205	12070.22
665.397	11928.91
665.588	11853.13
665.78	11758.92
665.971	11928.91
666.163	11912.52
666.354	11691.34
666.546	11742.54
666.737	11490.64
666.929	11623.76
667.12	11550.03
667.311	11425.11
667.503	11261.27
667.694	11291.99
667.885	11201.88
668.077	11203.93
668.268	11345.23
668.459	10952.02
668.651	10972.5
668.842	11076.95
669.033	11017.56
669.224	10976.6
669.416	10782.04
669.607	10659.17
669.798	10757.47
669.989	10540.38
670.18	10767.71
670.371	10558.81
670.563	10612.06
670.754	10601.82
670.945	10284.39
671.136	10141.03
671.327	10268
671.518	10247.52
671.709	10319.2
671.9	10116.45
672.091	10040.68
672.282	9934.18
672.473	9985.38
672.664	10165.6
672.855	10026.34
673.046	9907.56
673.237	9827.69
673.428	9844.07
673.619	9667.95
673.809	9624.94
674	9665.9
674.191	9655.66
674.382	9553.26
674.573	9690.48
674.764	9471.34
674.954	9375.09
675.145	9250.16
675.336	9291.12
675.527	9373.04
675.717	9166.2
675.908	9063.8
676.099	9270.64
676.289	9059.7
676.48	9178.48
676.671	9045.37
676.861	9012.6
677.052	8867.19
677.243	8701.31
677.433	8781.18
677.624	8846.71
677.814	8906.1
678.005	8662.4
678.195	8631.68
678.386	8643.96
678.576	8441.22
678.767	8533.37
678.957	8531.33
679.148	8605.05
679.338	8473.98
679.529	8637.82
679.719	8394.11
679.909	8514.94
680.1	8154.5
680.29	8121.73
680.481	8342.91
680.671	7996.81
680.861	8080.77
681.052	8244.61
681.242	8195.46
681.432	8113.54
681.622	8005
681.813	7886.22
682.003	7898.5
682.193	7861.64
682.383	7998.85
682.573	7749
682.764	7726.47
682.954	7679.37
683.144	7830.92
683.334	7617.93
683.524	7718.28
683.714	7751.05
683.904	7505.29
684.094	7687.56
684.284	7495.05
684.474	7540.11
684.664	7624.08
684.854	7538.06
685.044	7282.06
685.234	7226.77
685.424	7189.91
685.614	7286.16
685.804	7423.37
685.994	7067.03
686.184	7296.4
686.374	7200.15
686.564	7218.58
686.753	7054.74
686.943	7009.69
687.133	7081.36
687.323	7001.49
687.513	6972.82
687.702	6796.7
687.892	6870.42
688.082	6796.7
688.272	6890.9
688.461	6870.42
688.651	6749.59
688.841	6507.93
689.03	6620.57
689.22	6565.28
689.41	6577.56
689.599	6540.7
689.789	6639
689.979	6550.94
690.168	6368.67
690.358	6532.51
690.547	6327.71
690.737	6442.4
690.926	6356.38
691.116	6290.85
691.305	6487.45
691.495	6172.07
691.684	6053.28
691.874	6272.42
692.063	6067.62
692.252	6051.24
692.442	5987.75
692.631	6018.47
692.82	5916.07
693.01	6010.28
693.199	5825.96
693.388	5885.35
693.578	5858.73
693.767	5803.43
693.956	5698.99
694.146	5748.14
694.335	5670.31
694.524	5770.66
694.713	5748.14
694.902	5664.17
695.092	5651.88
695.281	5598.63
695.47	5588.39
695.659	5371.31
695.848	5440.94
696.037	5498.28
696.226	5500.33
696.415	5492.14
696.604	5465.52
696.793	5221.81
696.982	5408.17
697.171	5262.77
697.36	5236.14
697.549	5191.09
697.738	5277.1
697.927	5303.73
698.116	5248.43
698.305	5189.04
698.494	5195.18
698.683	5088.69
698.872	5082.55
699.061	5057.97
699.25	5150.13
699.438	4912.57
699.627	5074.35
699.816	5008.82
700.005	5019.06
700.193	4824.5
700.382	4836.79
700.571	4732.34
700.76	4881.85
700.948	4842.93
701.137	4750.78
701.326	4756.92
701.514	4789.69
701.703	4818.36
701.892	4752.82
702.08	4730.3
702.269	4789.69
702.457	4810.17
702.646	4707.77
702.834	4629.95
703.023	4703.67
703.212	4736.44
703.4	4595.13
703.589	4625.85
703.777	4631.99
703.965	4470.2
704.154	4582.84
704.342	4543.93
704.531	4642.23
704.719	4459.96
704.907	4578.75
705.096	4388.29
705.284	4556.22
705.472	4519.36
705.661	4335.04
705.849	4416.96
706.037	4283.84
706.226	4339.13
706.414	4292.03
706.602	4261.31
706.79	4169.15
706.979	4355.52
707.167	4220.35
707.355	4099.52
707.543	4187.58
707.731	4267.45
707.919	4130.24
708.107	4208.06
708.296	4021.7
708.484	4167.1
708.672	4195.78
708.86	4167.1
709.048	4109.76
709.236	4261.31
709.424	4079.04
709.612	4146.62
709.8	3929.54
709.988	4048.32
710.176	4085.19
710.364	3986.88
710.551	3960.26
710.739	4005.31
710.927	4093.38
711.115	3956.16
711.303	4142.53
711.491	3950.02
711.679	3950.02
711.866	3978.69
712.054	3872.2
712.242	3839.43
712.43	4015.55
712.617	3814.85
712.805	3941.83
712.993	3911.11
713.181	3575.24
713.368	3933.64
713.556	3802.57
713.744	4009.41
713.931	3872.2
714.119	3691.98
714.306	3833.29
714.494	3904.96
714.682	3753.41
714.869	3716.55
715.057	3790.28
715.244	3669.45
715.432	3644.87
715.619	3661.26
715.807	3653.06
715.994	3626.44
716.182	3644.87
716.369	3667.4
716.556	3521.99
716.744	3667.4
716.931	3689.93
717.119	3702.22
717.306	3587.53
717.493	3601.87
717.681	3681.74
717.868	3673.54
718.055	3694.02
718.242	3595.72
718.43	3677.64
718.617	3497.42
718.804	3458.51
718.991	3495.37
719.179	3448.27
719.366	3554.76
719.553	3612.1
719.74	3421.64
719.927	3569.1
720.114	3315.15
720.301	3507.66
720.488	3409.36
720.676	3378.64
720.863	3466.7
721.05	3485.13
721.237	3526.09
721.424	3417.55
721.611	3392.97
721.798	3300.81
721.985	3304.91
722.172	3376.59
722.358	3403.21
722.545	3425.74
722.732	3245.52
722.919	3261.9
723.106	3458.51
723.293	3352.01
723.48	3435.98
723.667	3417.55
723.853	3374.54
724.04	3368.4
724.227	3323.34
724.414	3384.78
724.6	3323.34
724.787	3325.39
724.974	3284.43
725.161	3263.95
725.347	3245.52
725.534	3358.16
725.72	3202.51
725.907	3376.59
726.094	3352.01
726.28	3317.2
726.467	3212.75
726.653	3171.79
726.84	3257.81
727.027	3395.02
727.213	3272.14
727.4	3401.16
727.586	3255.76
727.773	3165.65
727.959	3173.84
728.145	3376.59
728.332	3309.01
728.518	3218.89
728.705	3136.98
728.891	3231.18
729.077	3259.85
729.264	3192.27
729.45	3198.42
729.636	3225.04
729.823	3274.19
730.009	3222.99
730.195	3067.35
730.382	3188.18
730.568	3249.61
730.754	3208.66
730.94	3120.59
731.126	3280.33
731.313	3266
731.499	3231.18
731.685	3114.45
731.871	3098.06
732.057	3245.52
732.243	3268.05
732.429	3147.22
732.615	3239.37
732.801	3171.79
732.987	2991.57
733.173	3089.87
733.359	3249.61
733.545	3210.7
733.731	3233.23
733.917	3048.91
734.103	3270.09
734.289	3001.81
734.475	3192.27
734.661	3038.67
734.847	3147.22
735.033	3057.11
735.219	3179.98
735.404	3067.35
735.59	3005.91
735.776	3128.78
735.962	3173.84
736.148	3024.34
736.333	3057.11
736.519	3151.31
736.705	3091.92
736.89	3091.92
737.076	2991.57
737.262	2981.33
737.447	2985.43
737.633	2962.9
737.819	3126.74
738.004	3079.63
738.19	3141.07
738.375	2993.62
738.561	3171.79
738.747	2883.03
738.932	3034.58
739.118	3007.95
739.303	2981.33
739.489	3048.91
739.674	2989.52
739.859	2842.07
740.045	2973.14
740.23	2962.9
740.416	2930.13
740.601	2868.69
740.786	2966.99
740.972	2897.36
741.157	2897.36
741.342	2829.78
741.528	2909.65
741.713	2887.12
741.898	2921.94
742.084	2811.35
742.269	2794.97
742.454	2835.92
742.639	2819.54
742.824	2846.16
743.01	2895.32
743.195	2790.87
743.38	2766.29
743.565	2747.86
743.75	2692.57
743.935	2659.8
744.12	2706.9
744.305	2713.05
744.49	2794.97
744.675	2704.85
744.86	2747.86
745.045	2756.05
745.23	2674.14
745.415	2698.71
745.6	2729.43
745.785	2633.18
745.97	2743.77
746.155	2731.48
746.34	2598.36
746.525	2592.22
746.71	2524.63
746.895	2680.28
747.079	2514.39
747.264	2481.63
747.449	2508.25
747.634	2450.91
747.819	2555.35
748.003	2473.43
748.188	2452.95
748.373	2491.87
748.557	2418.14
748.742	2514.39
748.927	2436.57
749.111	2393.56
749.296	2342.36
749.481	2397.66
749.665	2467.29
749.85	2248.16
750.034	2356.7
750.219	2336.22
750.404	2330.08
750.588	2317.79
750.773	2274.78
750.957	2360.8
751.141	2213.34
751.326	2190.81
751.51	2186.72
751.695	2137.57
751.879	2225.63
752.064	2248.16
752.248	2227.68
752.432	2160.1
752.617	2156
752.801	2176.48
752.985	2100.7
753.17	2115.04
753.354	2172.38
753.538	2121.18
753.722	2039.26
753.907	2031.07
754.091	2018.79
754.275	2047.46
754.459	1998.31
754.643	2008.55
754.828	2014.69
755.012	2002.4
755.196	2045.41
755.38	1965.54
755.564	1973.73
755.748	1955.3
755.932	1959.39
756.116	1797.6
756.3	1879.52
756.484	1867.24
756.668	1830.37
756.852	1785.32
757.036	1891.81
757.22	1689.06
757.404	1750.5
757.588	1793.51
757.772	1713.64
757.956	1764.84
758.14	1723.88
758.323	1730.02
758.507	1785.32
758.691	1666.53
758.875	1705.45
759.059	1666.53
759.242	1721.83
759.426	1703.4
759.61	1730.02
759.794	1717.73
759.977	1637.86
760.161	1680.87
760.345	1732.07
760.528	1605.1
760.712	1607.14
760.895	1662.44
761.079	1494.51
761.263	1572.33
761.446	1646.05
761.63	1533.42
761.813	1598.95
761.997	1469.93
762.18	1603.05
762.364	1621.48
762.547	1514.98
762.731	1474.03
762.914	1517.03
763.098	1582.57
763.281	1496.55
763.464	1482.22
763.648	1435.11
763.831	1449.45
764.015	1490.41
764.198	1471.98
764.381	1461.74
764.564	1451.5
764.748	1406.44
764.931	1486.31
765.114	1394.15
765.297	1484.27
765.481	1310.19
765.664	1459.69
765.847	1484.27
766.03	1406.44
766.213	1371.63
766.397	1418.73
766.58	1396.2
766.763	1353.2
766.946	1361.39
767.129	1482.22
767.312	1349.1
767.495	1304.04
767.678	1385.96
767.861	1332.72
768.044	1400.3
768.227	1353.2
768.41	1277.42
768.593	1392.11
768.776	1365.48
768.959	1183.21
769.142	1283.56
769.324	1252.84
769.507	1324.52
769.69	1377.77
769.873	1277.42
770.056	1447.4
770.239	1263.08
770.421	1361.39
770.604	1293.8
770.787	1181.17
770.97	1310.19
771.152	1224.17
771.335	1136.11
771.518	1193.45
771.7	1314.28
771.883	1193.45
772.066	1132.01
772.248	1263.08
772.431	1207.79
772.613	1197.55
772.796	1103.34
772.978	1185.26
773.161	1238.51
773.343	1148.4
773.526	1240.56
773.708	1119.73
773.891	1125.87
774.073	1132.01
774.256	1093.1
774.438	1111.54
774.621	1043.95
774.803	1043.95
774.985	1080.82
775.168	1082.86
775.35	1021.42
775.532	1060.34
775.715	1052.14
775.897	1113.58
776.079	957.94
776.261	1138.16
776.444	1046
776.626	1103.34
776.808	1009.14
776.99	929.27
777.173	1000.94
777.355	972.27
777.537	1037.81
777.719	976.37
777.901	976.37
778.083	923.12
778.265	888.31
778.447	910.83
778.629	871.92
778.811	873.97
778.993	1002.99
779.175	955.89
779.357	904.69
779.539	894.45
779.721	863.73
779.903	925.17
780.085	902.64
780.267	833.01
780.449	757.24
780.631	880.11
780.812	861.68
780.994	886.26
781.176	814.58
781.358	810.48
781.54	841.2
781.721	873.97
781.903	785.91
782.085	863.73
782.267	833.01
782.448	777.72
782.63	738.8
782.812	790
782.993	802.29
783.175	790
783.357	685.56
783.538	830.96
783.72	773.62
783.901	708.09
784.083	755.19
784.264	650.74
784.446	763.38
784.627	587.26
784.809	695.8
784.99	699.89
785.172	669.17
785.353	716.28
785.535	671.22
785.716	679.41
785.897	654.84
786.079	632.31
786.26	673.27
786.441	642.55
786.623	640.5
786.804	648.69
786.985	562.68
787.167	574.97
787.348	613.88
787.529	589.3
787.71	638.45
787.891	615.93
788.073	574.97
788.254	566.78
788.435	589.3
788.616	579.06
788.797	609.78
788.978	632.31
789.159	593.4
789.34	679.41
789.522	427.51
789.703	638.45
789.884	568.82
790.065	546.3
790.246	548.34
790.427	517.62
790.607	474.62
790.788	632.31
790.969	570.87
791.15	613.88
791.331	523.77
791.512	617.97
791.693	521.72
791.874	447.99
792.054	488.95
792.235	507.38
792.416	472.57
792.597	484.86
792.778	531.96
792.958	488.95
793.139	523.77
793.32	415.23
793.5	525.82
793.681	482.81
793.862	476.66
794.042	437.75
794.223	425.47
794.404	538.1
794.584	456.19
794.765	372.22
794.945	482.81
795.126	407.03
795.306	464.38
795.487	409.08
795.667	325.12
795.848	439.8
796.028	411.13
796.209	491
796.389	429.56
796.57	370.17
796.75	511.48
796.93	423.42
797.111	366.07
797.291	517.62
797.471	468.47
797.652	400.89
797.832	368.12
798.012	384.51
798.192	374.27
798.373	368.12
798.553	386.55
798.733	388.6
798.913	390.65
799.093	407.03
799.274	359.93
799.454	378.36
799.634	351.74
799.814	374.27
799.994	411.13
800.174	370.17
800.354	409.08
800.534	359.93
800.714	386.55
800.894	316.92
801.074	370.17
801.254	386.55
801.434	431.61
801.614	349.69
801.794	343.55
801.974	759.28
802.154	271.87
802.334	413.18
802.514	321.02
802.693	314.88
802.873	294.4
803.053	398.84
803.233	343.55
803.413	308.73
803.592	292.35
803.772	308.73
803.952	370.17
804.131	355.83
804.311	284.16
804.491	288.25
804.67	337.4
804.85	275.96
805.03	292.35
805.209	306.68
805.389	237.05
805.568	280.06
805.748	255.48
805.928	271.87
806.107	300.54
806.287	239.1
806.466	316.92
806.646	255.48
806.825	302.59
807.004	237.05
807.184	321.02
807.363	304.64
807.543	314.88
807.722	214.52
807.901	304.64
808.081	265.72
808.26	286.2
808.439	329.21
808.619	310.78
808.798	292.35
808.977	243.2
809.156	300.54
809.336	290.3
809.515	300.54
809.694	298.49
809.873	282.11
810.052	228.86
810.231	218.62
810.411	275.96
810.59	286.2
810.769	245.24
810.948	257.53
811.127	206.33
811.306	255.48
811.485	235
811.664	280.06
811.843	198.14
812.022	271.87
812.201	273.92
812.38	294.4
812.559	151.04
812.737	282.11
812.916	226.81
813.095	210.43
813.274	187.9
813.453	165.37
813.632	243.2
813.811	245.24
813.989	181.76
814.168	232.96
814.347	220.67
814.526	208.38
814.704	222.72
814.883	185.85
815.062	187.9
815.24	185.85
815.419	146.94
815.598	247.29
815.776	134.65
815.955	216.57
816.133	237.05
816.312	185.85
816.49	187.9
816.669	157.18
816.847	226.81
817.026	196.09
817.204	187.9
817.383	224.76
817.561	153.09
817.74	243.2
817.918	204.28
818.097	177.66
818.275	148.99
818.453	114.17
818.632	208.38
818.81	165.37
818.988	153.09
819.167	103.93
819.345	204.28
819.523	220.67
819.701	228.86
819.879	142.85
820.058	171.52
820.236	177.66
820.414	155.13
820.592	163.33
820.77	192
820.948	189.95
821.127	89.6
821.305	230.91
821.483	116.22
821.661	171.52
821.839	153.09
822.017	144.89
822.195	126.46
822.373	148.99
822.551	163.33
822.729	175.61
822.907	214.52
823.085	157.18
823.262	151.04
823.44	159.23
823.618	146.94
823.796	89.6
823.974	169.47
824.152	202.24
824.329	128.51
824.507	196.09
824.685	128.51
824.863	148.99
825.04	128.51
825.218	128.51
825.396	171.52
825.574	155.13
825.751	108.03
825.929	163.33
826.107	60.93
826.284	124.41
826.462	134.65
826.639	132.61
826.817	132.61
826.994	173.57
827.172	108.03
827.349	114.17
827.527	132.61
827.704	112.13
827.882	200.19
828.059	210.43
828.237	165.37
828.414	118.27
828.591	81.41
828.769	157.18
828.946	52.74
829.124	136.7
829.301	138.75
829.478	151.04
829.655	159.23
829.833	105.98
830.01	112.13
830.187	108.03
830.364	177.66
830.542	103.93
830.719	110.08
830.896	130.56
831.073	157.18
831.25	93.69
831.427	142.85
831.604	196.09
831.782	103.93
831.959	110.08
832.136	114.17
832.313	126.46
832.49	134.65
832.667	124.41
832.844	99.84
833.021	138.75
833.198	91.65
833.374	146.94
833.551	69.12
833.728	71.17
833.905	128.51
834.082	75.26
834.259	91.65
834.436	118.27
834.612	75.26
834.789	165.37
834.966	99.84
835.143	157.18
835.319	67.07
835.496	101.89
835.673	83.45
835.85	116.22
836.026	71.17
836.203	122.37
836.38	17.92
836.556	67.07
836.733	79.36
836.909	54.78
837.086	136.7
837.262	69.12
837.439	120.32
837.616	105.98
837.792	93.69
837.968	85.5
838.145	89.6
838.321	144.89
838.498	103.93
838.674	126.46
838.851	120.32
839.027	52.74
839.203	99.84
839.38	44.54
839.556	153.09
839.732	110.08
839.909	67.07
840.085	65.02
840.261	65.02
840.437	87.55
840.614	40.45
840.79	75.26
840.966	110.08
841.142	132.61
841.318	93.69
841.494	112.13
841.671	112.13
841.847	87.55
842.023	13.82
842.199	99.84
842.375	62.98
842.551	95.74
842.727	9.73
842.903	101.89
843.079	28.16
843.255	120.32
843.431	83.45
843.607	-8.7
843.783	9.73
843.959	105.98
844.134	50.69
844.31	24.06
844.486	58.88
844.662	40.45
844.838	77.31
845.013	65.02
845.189	30.21
845.365	-2.56
845.541	81.41
845.716	108.03
845.892	151.04
846.068	122.37
846.244	77.31
846.419	50.69
846.595	-31.23
846.77	81.41
846.946	26.11
847.122	146.94
847.297	56.83
847.473	112.13
847.648	1.54
847.824	79.36
847.999	-37.38
848.175	62.98
848.35	103.93
848.526	122.37
848.701	-6.66
848.876	69.12
849.052	58.88
849.227	73.21
849.403	34.3
849.578	40.45
849.753	75.26
849.929	60.93
850.104	15.87
850.279	24.06
850.454	87.55
850.63	165.37
850.805	77.31
850.98	101.89
851.155	22.02
851.33	30.21
851.505	126.46
851.681	38.4
851.856	44.54
852.031	108.03
852.206	56.83
852.381	-0.51
852.556	17.92
852.731	79.36
852.906	122.37
853.081	42.5
853.256	95.74
853.431	56.83
853.606	-0.51
853.781	44.54
853.956	9.73
854.131	26.11
854.305	42.5
854.48	-2.56
854.655	24.06
854.83	89.6
855.005	60.93
855.18	38.4
855.354	48.64
855.529	69.12
855.704	-8.7
855.879	7.68
856.053	144.89
856.228	103.93
856.403	-20.99
856.577	93.69
856.752	79.36
856.926	85.5
857.101	-31.23
857.276	32.26
857.45	144.89
857.625	87.55
857.799	116.22
857.974	60.93
858.148	-8.7
858.323	32.26
858.497	81.41
858.672	-16.9
858.846	-51.71
859.02	62.98
859.195	17.92
859.369	54.78
859.543	9.73
859.718	13.82
859.892	30.21
860.066	17.92
860.241	-20.99
860.415	79.36
860.589	73.21
860.763	30.21
860.938	3.58
861.112	42.5
861.286	32.26
861.46	30.21
861.634	79.36
861.808	52.74
861.982	83.45
862.157	5.63
862.331	-6.66
862.505	9.73
862.679	-18.94
862.853	46.59
863.027	5.63
863.201	77.31
863.375	69.12
863.549	46.59
863.722	71.17
863.896	93.69
864.07	26.11
864.244	42.5
864.418	38.4
864.592	60.93
864.766	54.78
864.939	13.82
865.113	-49.66
865.287	101.89
865.461	-10.75
865.634	15.87
865.808	128.51
865.982	52.74
866.156	48.64
866.329	32.26
866.503	46.59
866.676	28.16
866.85	62.98
867.024	-6.66
867.197	65.02
867.371	26.11
867.544	79.36
867.718	15.87
867.891	48.64
868.065	-43.52
868.238	-6.66
868.412	34.3
868.585	87.55
868.759	3.58
868.932	30.21
869.105	-2.56
869.279	112.13
869.452	44.54
869.625	38.4
869.799	-16.9
869.972	-10.75
870.145	3.58
870.319	-8.7
870.492	15.87
870.665	9.73
870.838	40.45
871.011	-57.86
871.185	22.02
871.358	24.06
871.531	58.88
871.704	-57.86
871.877	13.82
872.05	-35.33
872.223	1.54
872.396	-20.99
872.569	58.88
872.742	9.73
872.915	-35.33
873.088	-2.56
873.261	42.5
873.434	-2.56
873.607	46.59
873.78	58.88
873.953	38.4
874.126	-29.18
874.299	99.84
874.471	36.35
874.644	54.78
874.817	28.16
874.99	9.73
875.163	7.68
875.335	-4.61
875.508	-14.85
875.681	19.97
875.853	-27.14
876.026	-20.99
876.199	15.87
876.371	97.79
876.544	1.54
876.717	-68.09
876.889	-10.75
877.062	50.69
877.234	22.02
877.407	52.74
877.579	-20.99
877.752	110.08
877.924	17.92
878.097	-8.7
878.269	19.97
878.442	-16.9
878.614	54.78
878.786	11.78
878.959	26.11
879.131	40.45
879.303	-96.77
879.476	65.02
879.648	105.98
879.82	-35.33
879.993	44.54
880.165	9.73
880.337	-23.04
880.509	30.21
880.681	42.5
880.854	-78.33
881.026	5.63
881.198	38.4
881.37	40.45
881.542	-6.66
881.714	11.78
881.886	28.16
882.058	17.92
882.23	48.64
882.402	15.87
882.574	69.12
882.746	42.5
882.918	46.59
883.09	11.78
883.262	48.64
883.434	-0.51
883.606	11.78
883.778	9.73
883.95	62.98
884.122	-27.14
884.293	52.74
884.465	13.82
884.637	73.21
884.809	-72.19
884.98	30.21
885.152	60.93
885.324	-33.28
885.496	-86.53
885.667	34.3
885.839	-8.7
886.011	79.36
886.182	-8.7
886.354	34.3
886.525	73.21
886.697	-37.38
886.869	38.4
887.04	32.26
887.212	48.64
887.383	48.64
887.555	40.45
887.726	-2.56
887.897	-68.09
888.069	114.17
888.24	-35.33
888.412	38.4
888.583	38.4
888.754	-57.86
888.926	-29.18
889.097	-0.51
889.268	-90.62
889.44	38.4
889.611	17.92
889.782	-43.52
889.953	-100.86
890.125	44.54
890.296	-0.51
890.467	48.64
890.638	1.54
890.809	1.54
890.98	-31.23
891.151	65.02
891.323	13.82
891.494	40.45
891.665	-51.71
891.836	44.54
892.007	-20.99
892.178	65.02
892.349	36.35
892.52	-20.99
892.691	17.92
892.862	-4.61
893.032	-41.47
893.203	24.06
893.374	7.68
893.545	-10.75
893.716	11.78
893.887	50.69
894.057	15.87
894.228	15.87
894.399	-25.09
894.57	58.88
894.74	44.54
894.911	22.02
895.082	-2.56
895.253	-49.66
895.423	-76.29
895.594	60.93
895.764	11.78
895.935	50.69
896.106	-35.33
896.276	15.87
896.447	9.73
896.617	1.54
896.788	-39.42
896.958	32.26
897.129	13.82
897.299	5.63
897.47	-41.47
897.64	28.16
897.81	-16.9
897.981	7.68
898.151	-23.04
898.322	-20.99
898.492	19.97
898.662	-6.66
898.832	-39.42
899.003	22.02
899.173	52.74
899.343	-10.75
899.513	36.35
