Data from USB4F104151__99__11-45-48-346.txt Node

Date: Fri Mar 14 11:45:48 EDT 2025
User: louis
Spectrometer: USB4F10415
Trigger mode: 4
Integration Time (sec): 2.000000E-2
Scans to average: 1
Electric dark correction enabled: true
Nonlinearity correction enabled: false
Boxcar width: 0
XAxis mode: Wavelengths
Number of Pixels in Spectrum: 3648
>>>>>Begin Spectral Data<<<<<
178.204	-60.76
178.424	-60.76
178.644	-60.76
178.864	-68.95
179.084	-83.28
179.304	37.55
179.524	-40.28
179.744	45.74
179.964	6.83
180.184	66.22
180.404	4.78
180.624	8.87
180.844	37.55
181.064	-87.38
181.283	-21.85
181.503	-54.61
181.723	-3.41
181.943	2.73
182.163	27.31
182.383	45.74
182.602	17.07
182.822	70.31
183.042	-27.99
183.262	33.45
183.482	47.79
183.701	-36.18
183.921	35.5
184.141	37.55
184.361	-1.37
184.58	37.55
184.8	27.31
185.02	-50.52
185.239	49.83
185.459	70.31
185.679	78.51
185.898	-13.65
186.118	4.78
186.338	-5.46
186.557	68.27
186.777	21.16
186.997	29.35
187.216	4.78
187.436	94.89
187.655	-9.56
187.875	15.02
188.095	62.12
188.314	2.73
188.534	31.4
188.753	-3.41
188.973	113.32
189.192	60.07
189.412	41.64
189.631	33.45
189.851	12.97
190.07	31.4
190.29	25.26
190.509	58.03
190.729	-11.61
190.948	-5.46
191.168	68.27
191.387	2.73
191.607	-38.23
191.826	29.35
192.045	6.83
192.265	47.79
192.484	43.69
192.704	49.83
192.923	-3.41
193.142	33.45
193.362	72.36
193.581	43.69
193.8	-85.33
194.02	-23.89
194.239	-77.14
194.458	4.78
194.678	-5.46
194.897	17.07
195.116	-1.37
195.335	29.35
195.555	-23.89
195.774	27.31
195.993	-44.37
196.212	60.07
196.432	8.87
196.651	45.74
196.87	60.07
197.089	47.79
197.308	0.68
197.528	33.45
197.747	-5.46
197.966	39.59
198.185	43.69
198.404	-34.13
198.623	21.16
198.842	64.17
199.062	47.79
199.281	90.79
199.5	29.35
199.719	21.16
199.938	29.35
200.157	37.55
200.376	-21.85
200.595	-9.56
200.814	-38.23
201.033	19.11
201.252	4.78
201.471	-40.28
201.69	60.07
201.909	10.92
202.128	-5.46
202.347	45.74
202.566	37.55
202.785	-25.94
203.004	41.64
203.223	17.07
203.442	-5.46
203.661	-21.85
203.879	2.73
204.098	37.55
204.317	51.88
204.536	-21.85
204.755	6.83
204.974	70.31
205.193	55.98
205.411	60.07
205.63	-44.37
205.849	-48.47
206.068	10.92
206.287	-54.61
206.505	29.35
206.724	0.68
206.943	-48.47
207.162	4.78
207.381	-17.75
207.599	6.83
207.818	94.89
208.037	31.4
208.255	47.79
208.474	64.17
208.693	58.03
208.911	-15.7
209.13	27.31
209.349	47.79
209.567	33.45
209.786	55.98
210.005	76.46
210.223	35.5
210.442	-56.66
210.661	86.7
210.879	45.74
211.098	53.93
211.316	21.16
211.535	66.22
211.753	15.02
211.972	-11.61
212.191	-9.56
212.409	15.02
212.628	8.87
212.846	88.75
213.065	53.93
213.283	31.4
213.502	6.83
213.72	58.03
213.938	-38.23
214.157	-1.37
214.375	-13.65
214.594	90.79
214.812	35.5
215.031	58.03
215.249	55.98
215.467	35.5
215.686	45.74
215.904	-9.56
216.122	60.07
216.341	39.59
216.559	39.59
216.778	82.6
216.996	68.27
217.214	12.97
217.432	8.87
217.651	12.97
217.869	-48.47
218.087	19.11
218.306	-48.47
218.524	68.27
218.742	-1.37
218.96	23.21
219.179	8.87
219.397	8.87
219.615	31.4
219.833	29.35
220.051	39.59
220.27	6.83
220.488	2.73
220.706	-34.13
220.924	60.07
221.142	53.93
221.36	33.45
221.578	27.31
221.796	-7.51
222.015	-7.51
222.233	23.21
222.451	23.21
222.669	-30.04
222.887	51.88
223.105	-7.51
223.323	47.79
223.541	-3.41
223.759	29.35
223.977	25.26
224.195	58.03
224.413	60.07
224.631	53.93
224.849	17.07
225.067	43.69
225.285	21.16
225.503	-5.46
225.721	29.35
225.939	-17.75
226.157	27.31
226.375	82.6
226.592	10.92
226.81	-5.46
227.028	39.59
227.246	72.36
227.464	6.83
227.682	12.97
227.9	12.97
228.117	27.31
228.335	92.84
228.553	25.26
228.771	39.59
228.989	27.31
229.206	60.07
229.424	19.11
229.642	-15.7
229.86	84.65
230.077	-13.65
230.295	6.83
230.513	33.45
230.731	15.02
230.948	66.22
231.166	125.61
231.384	0.68
231.601	33.45
231.819	33.45
232.037	17.07
232.254	-44.37
232.472	19.11
232.689	-46.42
232.907	49.83
233.125	49.83
233.342	45.74
233.56	-5.46
233.777	4.78
233.995	64.17
234.213	47.79
234.43	80.55
234.648	19.11
234.865	15.02
235.083	53.93
235.3	-17.75
235.518	-25.94
235.735	80.55
235.953	94.89
236.17	21.16
236.388	10.92
236.605	-9.56
236.822	41.64
237.04	41.64
237.257	17.07
237.475	-27.99
237.692	55.98
237.909	15.02
238.127	29.35
238.344	19.11
238.562	12.97
238.779	60.07
238.996	2.73
239.214	0.68
239.431	55.98
239.648	-19.8
239.865	74.41
240.083	8.87
240.3	76.46
240.517	76.46
240.735	15.02
240.952	-11.61
241.169	98.99
241.386	-48.47
241.603	70.31
241.821	41.64
242.038	60.07
242.255	58.03
242.472	33.45
242.689	23.21
242.907	0.68
243.124	41.64
243.341	25.26
243.558	4.78
243.775	23.21
243.992	17.07
244.209	55.98
244.426	47.79
244.643	33.45
244.86	-1.37
245.078	31.4
245.295	29.35
245.512	84.65
245.729	-5.46
245.946	0.68
246.163	66.22
246.38	-23.89
246.597	-60.76
246.814	60.07
247.031	0.68
247.248	12.97
247.464	84.65
247.681	43.69
247.898	58.03
248.115	84.65
248.332	39.59
248.549	45.74
248.766	27.31
248.983	-1.37
249.2	80.55
249.417	92.84
249.633	37.55
249.85	43.69
250.067	12.97
250.284	2.73
250.501	-38.23
250.717	62.12
250.934	10.92
251.151	53.93
251.368	33.45
251.585	58.03
251.801	90.79
252.018	-30.04
252.235	53.93
252.451	23.21
252.668	33.45
252.885	0.68
253.102	8.87
253.318	27.31
253.535	27.31
253.752	43.69
253.968	45.74
254.185	-25.94
254.401	43.69
254.618	31.4
254.835	-17.75
255.051	41.64
255.268	-1.37
255.484	-3.41
255.701	-19.8
255.917	4.78
256.134	29.35
256.351	0.68
256.567	47.79
256.784	29.35
257	-11.61
257.217	70.31
257.433	21.16
257.65	78.51
257.866	49.83
258.082	23.21
258.299	-1.37
258.515	37.55
258.732	-85.33
258.948	101.03
259.165	-9.56
259.381	19.11
259.597	8.87
259.814	66.22
260.03	10.92
260.246	31.4
260.463	17.07
260.679	27.31
260.895	-3.41
261.112	33.45
261.328	37.55
261.544	-1.37
261.761	17.07
261.977	58.03
262.193	49.83
262.409	25.26
262.626	64.17
262.842	10.92
263.058	49.83
263.274	10.92
263.49	53.93
263.707	72.36
263.923	33.45
264.139	111.27
264.355	-50.52
264.571	70.31
264.787	64.17
265.004	12.97
265.22	-15.7
265.436	23.21
265.652	35.5
265.868	8.87
266.084	-34.13
266.3	33.45
266.516	-54.61
266.732	-11.61
266.948	84.65
267.164	-5.46
267.38	45.74
267.596	49.83
267.812	-5.46
268.028	8.87
268.244	-30.04
268.46	41.64
268.676	10.92
268.892	17.07
269.108	41.64
269.324	-50.52
269.54	23.21
269.756	68.27
269.972	33.45
270.188	2.73
270.403	55.98
270.619	-15.7
270.835	-19.8
271.051	-32.08
271.267	86.7
271.483	25.26
271.698	70.31
271.914	47.79
272.13	-11.61
272.346	39.59
272.562	66.22
272.777	92.84
272.993	-19.8
273.209	31.4
273.425	21.16
273.64	10.92
273.856	51.88
274.072	-32.08
274.287	6.83
274.503	-3.41
274.719	10.92
274.934	37.55
275.15	-89.43
275.366	-17.75
275.581	-15.7
275.797	41.64
276.012	51.88
276.228	47.79
276.444	107.18
276.659	45.74
276.875	19.11
277.09	12.97
277.306	-13.65
277.521	68.27
277.737	-25.94
277.952	41.64
278.168	-5.46
278.383	10.92
278.599	-15.7
278.814	148.14
279.03	-5.46
279.245	41.64
279.461	35.5
279.676	37.55
279.892	-27.99
280.107	12.97
280.322	41.64
280.538	82.6
280.753	-7.51
280.969	-36.18
281.184	58.03
281.399	21.16
281.615	76.46
281.83	-5.46
282.045	78.51
282.26	41.64
282.476	8.87
282.691	94.89
282.906	-46.42
283.122	49.83
283.337	27.31
283.552	78.51
283.767	72.36
283.983	-46.42
284.198	27.31
284.413	47.79
284.628	-32.08
284.843	78.51
285.058	53.93
285.274	39.59
285.489	4.78
285.704	68.27
285.919	-21.85
286.134	58.03
286.349	19.11
286.564	-3.41
286.779	37.55
286.995	6.83
287.21	-17.75
287.425	10.92
287.64	-1.37
287.855	115.37
288.07	15.02
288.285	82.6
288.5	21.16
288.715	15.02
288.93	64.17
289.145	-19.8
289.36	53.93
289.575	0.68
289.79	15.02
290.004	27.31
290.219	90.79
290.434	68.27
290.649	62.12
290.864	-13.65
291.079	45.74
291.294	41.64
291.509	4.78
291.724	49.83
291.938	53.93
292.153	72.36
292.368	74.41
292.583	4.78
292.798	8.87
293.012	-1.37
293.227	27.31
293.442	-13.65
293.657	0.68
293.871	35.5
294.086	2.73
294.301	60.07
294.516	43.69
294.73	29.35
294.945	-36.18
295.16	-32.08
295.374	84.65
295.589	70.31
295.804	68.27
296.018	17.07
296.233	27.31
296.447	117.42
296.662	33.45
296.877	-21.85
297.091	66.22
297.306	39.59
297.52	2.73
297.735	-3.41
297.949	90.79
298.164	33.45
298.378	33.45
298.593	51.88
298.807	-11.61
299.022	80.55
299.236	103.08
299.451	47.79
299.665	41.64
299.88	-9.56
300.094	-11.61
300.309	10.92
300.523	53.93
300.737	35.5
300.952	117.42
301.166	76.46
301.381	10.92
301.595	84.65
301.809	58.03
302.024	15.02
302.238	135.85
302.452	66.22
302.667	17.07
302.881	2.73
303.095	113.32
303.309	17.07
303.524	41.64
303.738	27.31
303.952	12.97
304.166	62.12
304.381	66.22
304.595	58.03
304.809	-13.65
305.023	-7.51
305.237	49.83
305.452	86.7
305.666	17.07
305.88	82.6
306.094	123.56
306.308	0.68
306.522	68.27
306.736	51.88
306.95	35.5
307.164	25.26
307.379	21.16
307.593	43.69
307.807	41.64
308.021	43.69
308.235	35.5
308.449	4.78
308.663	68.27
308.877	31.4
309.091	78.51
309.305	125.61
309.519	8.87
309.733	90.79
309.947	78.51
310.161	58.03
310.374	39.59
310.588	64.17
310.802	4.78
311.016	-3.41
311.23	68.27
311.444	-13.65
311.658	78.51
311.872	17.07
312.085	78.51
312.299	64.17
312.513	107.18
312.727	6.83
312.941	-19.8
313.154	12.97
313.368	41.64
313.582	23.21
313.796	66.22
314.009	51.88
314.223	76.46
314.437	41.64
314.651	37.55
314.864	41.64
315.078	4.78
315.292	86.7
315.505	17.07
315.719	49.83
315.933	70.31
316.146	15.02
316.36	0.68
316.573	68.27
316.787	-42.32
317.001	4.78
317.214	17.07
317.428	96.94
317.641	23.21
317.855	-34.13
318.068	64.17
318.282	78.51
318.495	17.07
318.709	-32.08
318.922	17.07
319.136	19.11
319.349	53.93
319.563	-7.51
319.776	45.74
319.99	0.68
320.203	-1.37
320.417	92.84
320.63	45.74
320.843	21.16
321.057	84.65
321.27	0.68
321.483	74.41
321.697	53.93
321.91	-50.52
322.124	74.41
322.337	111.27
322.55	-11.61
322.763	37.55
322.977	41.64
323.19	37.55
323.403	37.55
323.617	15.02
323.83	2.73
324.043	-46.42
324.256	19.11
324.469	17.07
324.683	53.93
324.896	33.45
325.109	45.74
325.322	27.31
325.535	113.32
325.748	92.84
325.962	-5.46
326.175	15.02
326.388	-25.94
326.601	43.69
326.814	2.73
327.027	37.55
327.24	78.51
327.453	-30.04
327.666	62.12
327.879	37.55
328.092	45.74
328.305	-32.08
328.518	55.98
328.731	84.65
328.944	29.35
329.157	37.55
329.37	33.45
329.583	86.7
329.796	107.18
330.009	66.22
330.222	78.51
330.435	62.12
330.648	-5.46
330.861	72.36
331.073	80.55
331.286	96.94
331.499	-30.04
331.712	33.45
331.925	-1.37
332.138	-36.18
332.35	29.35
332.563	-15.7
332.776	10.92
332.989	19.11
333.202	41.64
333.414	-32.08
333.627	47.79
333.84	39.59
334.053	55.98
334.265	78.51
334.478	43.69
334.691	37.55
334.903	6.83
335.116	-19.8
335.329	-17.75
335.541	-3.41
335.754	103.08
335.966	76.46
336.179	17.07
336.392	-7.51
336.604	33.45
336.817	58.03
337.029	39.59
337.242	10.92
337.454	27.31
337.667	66.22
337.88	37.55
338.092	68.27
338.305	31.4
338.517	53.93
338.729	33.45
338.942	105.13
339.154	17.07
339.367	12.97
339.579	33.45
339.792	-27.99
340.004	45.74
340.217	8.87
340.429	68.27
340.641	45.74
340.854	8.87
341.066	-5.46
341.278	139.94
341.491	27.31
341.703	35.5
341.915	-71
342.128	78.51
342.34	6.83
342.552	58.03
342.764	21.16
342.977	45.74
343.189	23.21
343.401	15.02
343.613	107.18
343.826	25.26
344.038	47.79
344.25	43.69
344.462	10.92
344.674	39.59
344.886	64.17
345.099	62.12
345.311	78.51
345.523	47.79
345.735	-3.41
345.947	31.4
346.159	37.55
346.371	21.16
346.583	41.64
346.795	154.28
347.007	88.75
347.219	33.45
347.431	-58.71
347.643	17.07
347.855	94.89
348.067	0.68
348.279	74.41
348.491	60.07
348.703	41.64
348.915	68.27
349.127	-36.18
349.339	45.74
349.551	17.07
349.763	60.07
349.975	-3.41
350.187	-64.85
350.399	58.03
350.61	105.13
350.822	70.31
351.034	62.12
351.246	43.69
351.458	12.97
351.669	90.79
351.881	25.26
352.093	86.7
352.305	78.51
352.517	60.07
352.728	96.94
352.94	29.35
353.152	21.16
353.363	70.31
353.575	15.02
353.787	150.18
353.999	12.97
354.21	-17.75
354.422	33.45
354.633	2.73
354.845	21.16
355.057	66.22
355.268	55.98
355.48	76.46
355.692	15.02
355.903	74.41
356.115	-1.37
356.326	-15.7
356.538	90.79
356.749	37.55
356.961	35.5
357.172	15.02
357.384	19.11
357.595	98.99
357.807	72.36
358.018	-7.51
358.23	68.27
358.441	25.26
358.653	68.27
358.864	6.83
359.075	25.26
359.287	10.92
359.498	17.07
359.709	62.12
359.921	55.98
360.132	62.12
360.344	29.35
360.555	-48.47
360.766	90.79
360.977	-5.46
361.189	53.93
361.4	8.87
361.611	-15.7
361.823	72.36
362.034	80.55
362.245	-19.8
362.456	49.83
362.667	74.41
362.879	-42.32
363.09	68.27
363.301	-27.99
363.512	109.22
363.723	49.83
363.935	43.69
364.146	58.03
364.357	96.94
364.568	49.83
364.779	21.16
364.99	17.07
365.201	33.45
365.412	101.03
365.623	47.79
365.834	6.83
366.045	58.03
366.256	23.21
366.467	-27.99
366.678	33.45
366.889	101.03
367.1	78.51
367.311	-23.89
367.522	35.5
367.733	43.69
367.944	53.93
368.155	74.41
368.366	47.79
368.577	-9.56
368.788	94.89
368.999	0.68
369.209	39.59
369.42	12.97
369.631	86.7
369.842	86.7
370.053	12.97
370.264	-50.52
370.474	70.31
370.685	35.5
370.896	58.03
371.107	43.69
371.317	51.88
371.528	-52.56
371.739	29.35
371.95	-30.04
372.16	-17.75
372.371	51.88
372.582	-3.41
372.792	45.74
373.003	88.75
373.214	49.83
373.424	49.83
373.635	41.64
373.846	45.74
374.056	-44.37
374.267	96.94
374.477	94.89
374.688	12.97
374.898	51.88
375.109	96.94
375.319	-5.46
375.53	15.02
375.74	37.55
375.951	19.11
376.161	35.5
376.372	27.31
376.582	29.35
376.793	43.69
377.003	70.31
377.214	10.92
377.424	8.87
377.635	17.07
377.845	47.79
378.055	43.69
378.266	10.92
378.476	31.4
378.686	17.07
378.897	49.83
379.107	-19.8
379.317	10.92
379.528	60.07
379.738	33.45
379.948	-15.7
380.158	19.11
380.369	-21.85
380.579	21.16
380.789	45.74
380.999	88.75
381.21	4.78
381.42	-11.61
381.63	51.88
381.84	27.31
382.05	103.08
382.261	47.79
382.471	60.07
382.681	45.74
382.891	80.55
383.101	10.92
383.311	62.12
383.521	15.02
383.731	103.08
383.941	29.35
384.151	-5.46
384.361	58.03
384.571	148.14
384.781	55.98
384.991	98.99
385.201	60.07
385.411	-3.41
385.621	19.11
385.831	58.03
386.041	109.22
386.251	78.51
386.461	90.79
386.671	12.97
386.881	0.68
387.091	68.27
387.301	43.69
387.511	88.75
387.72	58.03
387.93	103.08
388.14	-25.94
388.35	29.35
388.56	70.31
388.769	39.59
388.979	-17.75
389.189	82.6
389.399	70.31
389.609	51.88
389.818	41.64
390.028	94.89
390.238	84.65
390.447	47.79
390.657	58.03
390.867	10.92
391.076	76.46
391.286	49.83
391.496	-7.51
391.705	21.16
391.915	150.18
392.125	66.22
392.334	33.45
392.544	27.31
392.753	121.51
392.963	60.07
393.172	35.5
393.382	76.46
393.591	45.74
393.801	-13.65
394.01	113.32
394.22	70.31
394.429	80.55
394.639	88.75
394.848	55.98
395.058	70.31
395.267	53.93
395.477	74.41
395.686	80.55
395.895	98.99
396.105	154.28
396.314	96.94
396.524	127.66
396.733	0.68
396.942	160.42
397.152	66.22
397.361	62.12
397.57	21.16
397.78	86.7
397.989	80.55
398.198	58.03
398.407	45.74
398.617	70.31
398.826	144.04
399.035	37.55
399.244	92.84
399.453	37.55
399.663	92.84
399.872	101.03
400.081	41.64
400.29	139.94
400.499	60.07
400.708	164.52
400.917	51.88
401.127	103.08
401.336	66.22
401.545	107.18
401.754	113.32
401.963	109.22
402.172	94.89
402.381	139.94
402.59	174.76
402.799	-30.04
403.008	60.07
403.217	88.75
403.426	109.22
403.635	109.22
403.844	78.51
404.053	129.7
404.262	101.03
404.471	135.85
404.68	111.27
404.888	203.43
405.097	141.99
405.306	164.52
405.515	182.95
405.724	121.51
405.933	185
406.142	166.57
406.35	82.6
406.559	160.42
406.768	78.51
406.977	199.34
407.185	185
407.394	205.48
407.603	148.14
407.812	219.82
408.02	205.48
408.229	156.33
408.438	244.39
408.646	215.72
408.855	154.28
409.064	225.96
409.272	250.53
409.481	201.38
409.69	225.96
409.898	277.16
410.107	287.4
410.315	295.59
410.524	228.01
410.733	289.45
410.941	273.06
411.15	406.18
411.358	348.84
411.567	332.45
411.775	385.7
411.984	344.74
412.192	303.78
412.401	434.85
412.609	445.09
412.818	453.28
413.026	377.51
413.234	434.85
413.443	424.61
413.651	453.28
413.86	510.63
414.068	545.44
414.276	613.03
414.485	508.58
414.693	543.39
414.901	516.77
415.11	572.07
415.318	578.21
415.526	653.98
415.734	658.08
415.943	635.55
416.151	662.18
416.359	778.91
416.567	703.14
416.776	762.53
416.984	793.25
417.192	838.3
417.4	938.65
417.608	938.65
417.817	885.41
418.025	883.36
418.233	1034.91
418.441	967.32
418.649	983.71
418.857	1147.55
419.065	1213.08
419.273	1036.95
419.481	1155.74
419.689	1229.46
419.897	1131.16
420.105	1276.57
420.313	1335.96
420.521	1307.29
420.729	1383.06
420.937	1421.97
421.145	1481.36
421.353	1637.01
421.561	1725.07
421.769	1655.44
421.977	1733.26
422.185	1692.3
422.393	1794.7
422.601	1911.44
422.809	2034.32
423.017	1962.64
423.224	2058.89
423.432	2071.18
423.64	2159.24
423.848	2400.9
424.056	2249.35
424.263	2433.67
424.471	2445.96
424.679	2445.96
424.887	2650.75
425.094	2517.64
425.302	2697.86
425.51	2878.08
425.718	2861.69
425.925	2949.76
426.133	3011.2
426.341	3123.83
426.548	3322.49
426.756	3345.02
426.964	3353.21
427.171	3621.49
427.379	3701.36
427.586	3779.18
427.794	3777.14
428.001	4031.09
428.209	4182.63
428.417	4205.16
428.624	4547.17
428.832	4551.27
429.039	4360.81
429.247	4471.4
429.454	4850.27
429.662	5120.6
429.869	4745.83
430.076	5237.34
430.284	4977.25
430.491	5093.98
430.699	5536.34
430.906	5417.56
431.114	5644.88
431.321	5716.56
431.528	6011.47
431.736	6222.41
431.943	6701.64
432.15	6431.3
432.358	6373.96
432.565	6736.45
432.772	6857.28
432.979	7170.62
433.187	7219.77
433.394	7330.36
433.601	7987.76
433.808	7819.83
434.016	7641.65
434.223	8208.94
434.43	8651.3
434.637	8491.56
434.844	9050.66
435.052	9036.32
435.259	9167.39
435.466	9302.56
435.673	8972.83
435.88	9779.73
436.087	10127.89
436.294	10191.38
436.501	9814.55
436.708	10199.57
436.915	10770.95
437.122	11049.47
437.329	10820.1
437.537	11205.12
437.743	11432.44
437.95	11569.66
438.157	12067.31
438.364	12394.99
438.571	12407.28
438.778	12380.65
438.985	13658.59
439.192	13095.39
439.399	13484.51
439.606	13115.87
439.813	13853.14
440.02	14582.22
440.227	14520.78
440.433	14608.84
440.64	14811.59
440.847	14692.81
441.054	15126.98
441.261	16101.81
441.467	15925.69
441.674	16105.91
441.881	16728.49
442.088	16748.97
442.294	16445.87
442.501	16951.72
442.708	17705.37
442.914	17918.36
443.121	18909.58
443.328	18266.52
443.534	19468.67
443.741	18993.54
443.948	18774.41
444.154	20279.67
444.361	20232.57
444.568	20478.32
444.774	20283.77
444.981	20697.45
445.187	21197.16
445.394	21956.96
445.6	21741.92
445.807	23535.94
446.013	22497.62
446.22	23273.8
446.426	23951.68
446.633	24387.89
446.839	25317.67
447.046	24168.76
447.252	25332.01
447.459	25614.63
447.665	25362.73
447.871	26114.33
448.078	27607.3
448.284	26364.18
448.491	26734.87
448.697	28119.29
448.903	28698.87
449.11	28483.83
449.316	28293.37
449.522	28649.72
449.728	29640.93
449.935	29663.46
450.141	29587.69
450.347	30312.67
450.553	29059.31
450.76	29788.39
450.966	30509.27
451.172	30329.05
451.378	31209.68
451.584	30523.61
451.791	31340.75
451.997	31140.05
452.203	32020.67
452.409	31674.57
452.615	31463.63
452.821	30302.43
453.027	29782.24
453.233	31762.63
453.44	30095.58
453.646	30621.91
453.852	31152.34
454.058	31631.56
454.264	30877.91
454.47	31140.05
454.676	30220.51
454.882	31281.36
455.088	28793.08
455.294	28909.81
455.5	29473
455.705	29645.03
455.911	28444.92
456.117	27971.84
456.323	27595.01
456.529	26118.43
456.735	27472.14
456.941	26773.78
457.147	26353.94
457.352	25571.62
457.558	25452.84
457.764	25155.88
457.97	24748.34
458.176	24459.57
458.381	24584.5
458.587	23136.59
458.793	23044.43
458.999	21793.12
459.204	23505.22
459.41	22874.45
459.616	21166.44
459.821	21361
460.027	21254.5
460.233	20674.93
460.438	19951.99
460.644	19954.04
460.85	19333.51
461.055	18954.63
461.261	18553.23
461.466	17428.9
461.672	16880.04
461.878	18026.9
462.083	16974.25
462.289	16738.73
462.494	16392.62
462.7	15710.65
462.905	15067.59
463.111	15847.86
463.316	15802.81
463.522	15546.81
463.727	15520.19
463.932	15327.68
464.138	15436.22
464.343	15260.1
464.549	14848.46
464.754	15296.96
464.959	15196.61
465.165	15059.4
465.37	14434.77
465.575	14248.4
465.781	14516.69
465.986	14504.4
466.191	14184.91
466.397	13769.18
466.602	13230.56
466.807	13840.86
467.012	13746.65
467.218	13646.3
467.423	13533.66
467.628	13537.76
467.833	14117.33
468.038	13654.49
468.244	13238.75
468.449	13689.31
468.654	13562.33
468.859	13281.76
469.064	12968.42
469.269	12677.61
469.474	12747.24
469.679	13050.34
469.885	12579.31
470.09	13029.86
470.295	12607.98
470.5	12337.65
470.705	12489.2
470.91	12116.47
471.115	12018.16
471.32	12276.21
471.525	12153.33
471.73	11731.45
471.935	11725.3
472.139	11428.35
472.344	11657.72
472.549	11567.61
472.754	11373.05
472.959	11174.4
473.164	10838.53
473.369	10863.11
473.574	11264.51
473.778	11028.99
473.983	10973.7
474.188	10889.73
474.393	10308.11
474.598	10390.03
474.802	10256.91
475.007	10273.29
475.212	10164.75
475.417	9931.28
475.621	10070.55
475.826	9902.61
476.031	9607.7
476.235	9605.66
476.44	9652.76
476.645	9423.39
476.849	9830.93
477.054	9501.21
477.259	9341.47
477.463	9257.5
477.668	9144.86
477.872	9017.89
478.077	8927.78
478.282	8790.56
478.486	8882.72
478.691	8577.58
478.895	8849.96
479.1	8563.24
479.304	8765.99
479.509	8360.49
479.713	8774.18
479.918	8426.03
480.122	8145.45
480.326	8170.03
480.531	8337.96
480.735	8264.24
480.94	8098.35
481.144	8559.14
481.348	7938.61
481.553	8165.93
481.757	7998
481.961	8086.06
482.166	8352.3
482.37	8210.99
482.574	7977.52
482.778	8012.34
482.983	7846.45
483.187	7954.99
483.391	8129.07
483.595	8008.24
483.8	7828.02
484.004	7995.95
484.208	8026.67
484.412	7928.37
484.616	7897.65
484.821	8223.28
485.025	7608.89
485.229	8038.96
485.433	7762.48
485.637	8010.29
485.841	8036.91
486.045	7916.08
486.249	7666.23
486.453	7731.76
486.657	7813.68
486.861	7991.86
487.065	7848.5
487.269	7930.42
487.473	7758.39
487.677	8004.14
487.881	7963.19
488.085	7858.74
488.289	7926.32
488.493	7911.99
488.697	7811.64
488.901	8057.39
489.105	8084.02
489.309	8139.31
489.512	7995.95
489.716	7938.61
489.92	8067.63
490.124	7883.31
490.328	8184.37
490.531	8049.2
490.735	8000.05
490.939	8237.61
491.143	8186.41
491.346	8090.16
491.55	8262.19
491.754	8266.28
491.958	8358.44
492.161	8227.37
492.365	8182.32
492.569	8170.03
492.772	8421.93
492.976	8389.16
493.18	8466.99
493.383	8557.1
493.587	8669.73
493.79	8765.99
493.994	8360.49
494.197	8718.89
494.401	8788.52
494.605	8819.24
494.808	8921.63
495.012	9099.81
495.215	9099.81
495.419	9157.15
495.622	8950.31
495.825	9081.38
496.029	9255.45
496.232	9310.75
496.436	9138.72
496.639	9609.75
496.843	9568.79
497.046	9746.97
497.249	9753.11
497.453	9636.38
497.656	9822.74
497.859	9867.8
498.063	10037.78
498.266	10238.48
498.469	10416.65
498.673	10256.91
498.876	10412.56
499.079	10537.48
499.282	10433.04
499.485	11035.14
499.689	10734.09
499.892	10840.58
500.095	11020.8
500.298	11571.71
500.501	11223.55
500.705	11493.88
500.908	11790.84
501.111	11827.7
501.314	11643.39
501.517	11962.87
501.72	11821.56
501.923	12091.89
502.126	12534.25
502.329	12218.86
502.532	12333.55
502.735	12622.31
502.938	12720.62
503.141	13109.73
503.344	13033.96
503.547	13064.68
503.75	13451.74
503.953	13576.67
504.156	13887.96
504.359	13873.62
504.562	13662.68
504.765	14270.93
504.968	14299.6
505.17	14340.56
505.373	14600.65
505.576	14551.5
505.779	15153.6
505.982	14957
506.185	15073.73
506.387	15458.75
506.59	15542.72
506.793	15794.62
506.996	15657.4
507.198	16288.18
507.401	16060.85
507.604	16327.09
507.807	16603.57
508.009	16576.94
508.212	16785.83
508.415	17078.69
508.617	17097.13
508.82	17252.77
509.022	17459.62
509.225	17858.97
509.428	17617.31
509.63	17918.36
509.833	17983.9
510.035	18461.07
510.238	18350.48
510.44	18483.6
510.643	18833.8
510.845	19227.01
511.048	18776.46
511.25	19401.09
511.453	19134.85
511.655	20095.35
511.858	19773.82
512.06	20136.31
512.262	20437.36
512.465	20150.65
512.667	20439.41
512.87	20771.18
513.072	20662.64
513.274	21346.66
513.477	21283.17
513.679	21774.69
513.881	21836.13
514.084	21991.77
514.286	22319.45
514.488	22417.75
514.69	22899.02
514.893	23118.15
515.095	23028.04
515.297	23259.46
515.499	23482.69
515.701	23601.47
515.904	24254.78
516.106	24068.41
516.308	24379.7
516.51	24578.36
516.712	24525.11
516.914	25327.91
517.116	25315.62
517.318	25436.45
517.52	25649.44
517.722	25741.6
517.925	26085.66
518.127	26411.29
518.329	26487.06
518.531	26470.68
518.733	26894.61
518.935	27474.18
519.136	26941.71
519.338	27713.8
519.54	27975.94
519.742	28141.82
519.944	27996.42
520.146	28578.04
520.348	28737.78
520.55	28995.82
520.752	28963.06
520.954	29683.94
521.155	29530.34
521.357	30021.86
521.559	30220.51
521.761	30337.24
521.963	30087.39
522.164	30576.86
522.366	30843.09
522.568	31547.59
522.77	31408.33
522.971	32006.34
523.173	31451.34
523.375	31852.74
523.576	32061.63
523.778	31789.25
523.98	32254.14
524.181	32874.68
524.383	32571.58
524.584	33267.89
524.786	33667.24
524.988	33036.47
525.189	33536.17
525.391	33923.24
525.592	33923.24
525.794	34115.75
525.995	34042.02
526.197	34375.84
526.398	34185.38
526.6	34531.48
526.801	35203.22
527.003	35197.07
527.204	34683.03
527.406	35496.08
527.607	35039.38
527.808	35571.85
528.01	35010.71
528.211	35373.2
528.412	36135.04
528.614	35606.67
528.815	35795.08
529.016	36135.04
529.218	35977.35
529.419	36460.67
529.62	36649.08
529.822	36167.81
530.023	36659.32
530.224	36900.98
530.425	37091.44
530.626	36620.41
530.828	36561.02
531.029	37474.41
531.23	36763.77
531.431	36880.5
531.632	36890.74
531.833	37320.82
532.035	37286
532.236	37390.45
532.437	37286
532.638	37359.73
532.839	37628.01
533.04	37232.75
533.241	37083.25
533.442	37646.44
533.643	37650.54
533.844	37406.83
534.045	37781.61
534.246	37228.66
534.447	37476.46
534.648	37206.13
534.849	37912.68
535.05	37451.89
535.251	37595.24
535.451	37894.25
535.652	37582.96
535.853	37496.94
536.054	37437.55
536.255	37986.41
536.456	37777.51
536.657	37916.78
536.857	37800.04
537.058	37476.46
537.259	37910.63
537.46	37994.6
537.66	37822.57
537.861	38027.37
538.062	37759.08
538.263	38217.83
538.463	37771.37
538.664	38115.43
538.865	37898.34
539.065	38217.83
539.266	37797.99
539.466	38084.71
539.667	37523.57
539.868	38121.57
540.068	37783.66
540.269	37765.23
540.469	37959.78
540.67	37865.58
540.87	37771.37
541.071	37716.08
541.271	37767.27
541.472	37834.86
541.672	38197.35
541.873	37648.49
542.073	37505.13
542.274	37961.83
542.474	37539.95
542.675	37681.26
542.875	37902.44
543.075	37804.14
543.276	37689.45
543.476	37953.64
543.676	37847.15
543.877	37795.95
544.077	37552.24
544.277	37675.12
544.478	37478.51
544.678	37783.66
544.878	37546.09
545.078	37662.83
545.279	37234.8
545.479	37492.85
545.679	37685.36
545.879	37834.86
546.079	37476.46
546.28	37550.19
546.48	37372.02
546.68	37470.32
546.88	37714.03
547.08	37472.37
547.28	37691.5
547.48	37505.13
547.68	37306.48
547.88	37435.5
548.081	37519.47
548.281	37628.01
548.481	37193.84
548.681	37759.08
548.881	37339.25
549.081	37617.77
549.28	37279.86
549.48	37548.14
549.68	37578.86
549.88	37826.67
550.08	37265.52
550.28	37517.42
550.48	37265.52
550.68	37232.75
550.88	37021.81
551.08	36952.18
551.279	37359.73
551.479	36819.06
551.679	37308.53
551.879	37089.4
552.079	37288.05
552.278	37199.99
552.478	37281.91
552.678	37388.4
552.878	37599.34
553.077	37314.67
553.277	36960.37
553.477	37286
553.676	37165.17
553.876	37138.55
554.076	36665.47
554.275	36946.04
554.475	36585.6
554.674	37099.64
554.874	36917.37
555.074	36694.14
555.273	36604.03
555.473	37265.52
555.672	36550.78
555.872	36771.96
556.071	36925.56
556.271	36886.65
556.47	36427.9
556.67	36178.05
556.869	36356.22
557.068	36751.48
557.268	36264.07
557.467	36384.9
557.667	36440.19
557.866	36290.69
558.065	36452.48
558.265	36204.67
558.464	35723.4
558.663	36432
558.863	35639.43
559.062	36520.06
559.261	36046.98
559.461	36327.55
559.66	35666.06
559.859	35588.24
560.058	35448.97
560.258	35629.19
560.457	35377.29
560.656	35922.05
560.855	35596.43
561.054	35778.7
561.253	35688.59
561.453	35285.14
561.652	35489.93
561.851	35244.18
562.05	35379.34
562.249	34908.31
562.448	35428.49
562.647	35094.68
562.846	35008.66
563.045	35111.06
563.244	34635.93
563.443	34703.51
563.642	34513.05
563.841	35141.78
564.04	34295.97
564.239	35287.18
564.438	34414.75
564.637	34033.83
564.836	34439.33
565.035	33628.33
565.234	33874.09
565.432	34085.03
565.631	33843.37
565.83	33847.46
566.029	33681.58
566.228	33577.13
566.427	33527.98
566.625	33503.4
566.824	33036.47
567.023	33456.3
567.222	33306.8
567.42	33613.99
567.619	33550.51
567.818	33106.1
568.016	32909.49
568.215	33376.43
568.414	33038.51
568.612	33317.04
568.811	32518.33
569.01	32557.24
569.208	31811.78
569.407	32618.68
569.605	32278.72
569.804	32405.69
570.002	32114.88
570.201	32293.05
570.4	31811.78
570.598	32102.59
570.797	31822.02
570.995	32069.83
571.193	31664.33
571.392	32032.96
571.59	31398.09
571.789	31633.61
571.987	31506.63
572.186	31619.27
572.384	31029.46
572.582	31060.18
572.781	31299.79
572.979	30722.26
573.177	30953.68
573.376	31135.95
573.574	30677.21
573.772	30996.69
573.971	30390.49
574.169	30386.39
574.367	30320.86
574.565	30413.02
574.763	30343.39
574.962	30251.23
575.16	29952.23
575.358	30212.32
575.556	29714.66
575.754	30023.9
575.952	29718.76
576.151	29798.63
576.349	29298.92
576.547	29421.8
576.745	29518.06
576.943	29868.26
577.141	29489.38
577.339	29513.96
577.537	29520.1
577.735	29094.13
577.933	28825.84
578.131	29184.24
578.329	29006.06
578.527	28813.55
578.725	28311.8
578.923	28936.43
579.121	28764.4
579.319	28764.4
579.516	28494.07
579.714	28221.69
579.912	28231.93
580.11	28092.67
580.308	28014.85
580.506	28147.97
580.704	27736.32
580.901	28133.63
581.099	28139.77
581.297	27881.73
581.495	27771.14
581.692	27672.84
581.89	27298.06
582.088	27699.46
582.285	27222.28
582.483	27468.04
582.681	27523.33
582.878	27455.75
583.076	27302.15
583.274	27166.99
583.471	26736.91
583.669	27293.96
583.866	26677.52
584.064	26966.29
584.262	26525.97
584.459	27076.88
584.657	26351.9
584.854	26958.1
585.052	26056.99
585.249	26718.48
585.447	26489.11
585.644	26143
585.841	26237.21
586.039	26466.58
586.236	26024.22
586.434	25968.93
586.631	25276.71
586.828	26071.32
587.026	25749.79
587.223	26020.13
587.42	25237.8
587.618	25565.48
587.815	24994.09
588.012	25180.46
588.21	25264.43
588.407	25370.92
588.604	25055.53
588.801	25098.54
588.999	24926.51
589.196	25143.59
589.393	24713.52
589.59	24592.69
589.787	24457.53
589.984	24662.32
590.182	24289.59
590.379	24893.74
590.576	24482.1
590.773	24449.33
590.97	24219.96
591.167	24328.5
591.364	23937.34
591.561	24078.65
591.758	24011.07
591.955	24000.83
592.152	24013.12
592.349	24068.41
592.546	23609.67
592.743	23521.6
592.94	23310.66
593.137	23767.36
593.334	23521.6
593.531	23279.94
593.727	23134.54
593.924	23232.84
594.121	23177.54
594.318	23208.26
594.515	22843.73
594.712	22966.6
594.908	22741.33
595.105	23064.91
595.302	22739.28
595.499	22966.6
595.696	22499.67
595.892	22464.85
596.089	22663.5
596.286	22604.11
596.482	22456.66
596.679	22333.78
596.876	22409.56
597.072	22200.66
597.269	22157.66
597.466	21952.86
597.662	22008.15
597.859	22186.33
598.055	22073.69
598.252	21766.49
598.448	21616.99
598.645	21678.43
598.841	21252.45
599.038	21660
599.234	21694.82
599.431	21188.97
599.627	21326.18
599.824	21430.63
600.02	21041.51
600.217	21436.77
600.413	21121.38
600.609	20939.12
600.806	20926.83
601.002	20959.59
601.198	20810.09
601.395	20904.3
601.591	20547.95
601.787	20746.61
601.984	20656.5
602.18	20701.55
602.376	20506.99
602.572	20633.97
602.769	20279.67
602.965	20246.9
603.161	20470.13
603.357	20177.27
603.553	20113.78
603.75	20052.34
603.946	20160.89
604.142	19970.43
604.338	19495.3
604.534	19636.61
604.73	19863.93
604.926	19698.05
605.122	19587.46
605.318	19587.46
605.514	19374.47
605.71	19415.43
605.906	19485.06
606.102	19401.09
606.298	19466.63
606.494	19184.01
606.69	19313.03
606.886	19417.47
607.082	19057.03
607.278	19026.31
607.474	19022.22
607.67	19274.12
607.866	18911.63
608.062	19210.63
608.257	18921.87
608.453	18903.43
608.649	18987.4
608.845	18620.81
609.041	18508.18
609.236	18852.23
609.432	18739.6
609.628	18741.64
609.824	18553.23
610.019	18596.24
610.215	18467.22
610.411	18545.04
610.606	18258.32
610.802	18309.52
610.998	18123.16
611.193	18616.72
611.389	18151.83
611.584	18059.67
611.78	17826.2
611.976	17992.09
612.171	18223.51
612.367	17887.64
612.562	18172.31
612.758	17652.13
612.953	17754.52
613.149	18119.06
613.344	17652.13
613.539	18090.39
613.735	17953.18
613.93	17793.44
614.126	17807.77
614.321	17953.18
614.517	17852.83
614.712	17461.66
614.907	17797.53
615.103	17695.13
615.298	17478.05
615.493	17688.99
615.688	17271.2
615.884	17688.99
616.079	17275.3
616.274	17199.52
616.47	17580.45
616.665	17443.23
616.86	17193.38
617.055	17199.52
617.25	17207.72
617.445	17172.9
617.641	16970.15
617.836	17330.59
618.031	16691.63
618.226	17183.14
618.421	16898.47
618.616	16722.35
618.811	16544.17
619.006	17070.5
619.201	16583.09
619.396	16656.81
619.591	16394.67
619.786	16789.93
619.981	16144.82
620.176	16648.62
620.371	16112.05
620.566	16120.24
620.761	16116.15
620.956	16527.79
621.151	15935.93
621.346	16300.47
621.541	15772.09
621.735	15962.55
621.93	15671.74
622.125	15587.77
622.32	15356.35
622.515	15657.4
622.709	15071.68
622.904	15411.65
623.099	15299.01
623.294	15219.14
623.488	15083.97
623.683	15145.41
623.878	14639.56
624.072	14975.43
624.267	14823.88
624.462	14707.15
624.656	14467.53
624.851	14598.6
625.046	14569.93
625.24	14680.52
625.435	14293.46
625.629	14361.04
625.824	14059.99
626.018	14459.34
626.213	14135.76
626.407	14064.08
626.602	13896.15
626.796	13914.58
626.991	13789.66
627.185	13631.96
627.38	13617.63
627.574	13502.94
627.768	13384.16
627.963	13390.3
628.157	13328.86
628.352	13363.68
628.546	13242.85
628.74	12974.56
628.935	12911.08
629.129	13095.39
629.323	12882.41
629.517	12949.99
629.712	12855.78
629.906	12704.23
630.1	12456.43
630.294	12427.76
630.489	12356.08
630.683	12493.29
630.877	12268.02
631.071	12386.8
631.265	12190.19
631.459	12194.29
631.653	12038.64
631.848	11895.29
632.042	11948.53
632.236	12120.56
632.43	11676.15
632.624	12188.14
632.818	11805.17
633.012	11586.04
633.206	11612.67
633.4	11452.92
633.594	11475.45
633.788	11430.4
633.982	11467.26
634.176	11221.5
634.369	11274.75
634.563	11194.88
634.757	11143.68
634.951	11174.4
635.145	10865.16
635.339	10918.4
635.533	10973.7
635.726	10955.27
635.92	10801.67
636.114	10848.77
636.308	10619.4
636.501	10746.37
636.695	10709.51
636.889	10488.33
637.083	10459.66
637.276	10404.36
637.47	10295.82
637.664	10306.06
637.857	10330.64
638.051	10152.46
638.244	10297.87
638.438	10097.17
638.632	10033.68
638.825	10023.44
639.019	9808.41
639.212	9849.36
639.406	9818.64
639.599	9810.45
639.793	9929.24
639.986	9646.62
640.18	9595.42
640.373	9644.57
640.567	9437.72
640.76	9458.2
640.954	9435.67
641.147	9234.97
641.34	9261.6
641.534	9216.54
641.727	9372.19
641.92	9370.14
642.114	9251.36
642.307	9312.8
642.5	9112.1
642.694	9034.27
642.887	9112.1
643.08	9093.66
643.273	8798.76
643.467	8907.3
643.66	8710.69
643.853	8565.29
644.046	8759.84
644.239	8632.87
644.432	8559.14
644.626	8528.42
644.819	8532.52
645.012	8485.42
645.205	8575.53
645.398	8546.86
645.591	8380.97
645.784	8305.2
645.977	8235.57
646.17	8317.48
646.363	8192.56
646.556	8038.96
646.749	8008.24
646.942	8057.39
647.135	7920.18
647.328	7787.06
647.521	7914.03
647.714	7961.14
647.907	7897.65
648.099	7758.39
648.292	7701.05
648.485	7686.71
648.678	7660.09
648.871	7402.04
649.064	7516.73
649.256	7541.3
649.449	7752.24
649.642	7289.4
649.835	7293.5
650.027	7346.75
650.22	7244.35
650.413	7211.58
650.605	7270.97
650.798	7262.78
650.991	7195.2
651.183	7268.92
651.376	7139.9
651.568	7078.46
651.761	7029.31
651.954	6939.2
652.146	6957.63
652.339	6931.01
652.531	6842.95
652.724	7049.79
652.916	6693.44
653.109	6910.53
653.301	6732.36
653.494	6679.11
653.686	6683.2
653.879	6701.64
654.071	6554.18
654.263	6466.12
654.456	6629.96
654.648	6543.94
654.84	6390.35
655.033	6414.92
655.225	6353.48
655.417	6232.65
655.61	6347.34
655.802	6371.91
655.994	6249.04
656.186	6208.08
656.379	6193.74
656.571	6152.78
656.763	6066.77
656.955	6175.31
657.148	6251.08
657.34	6107.73
657.532	6158.92
657.724	5911.12
657.916	5950.03
658.108	6040.14
658.3	5972.56
658.492	5927.5
658.684	5788.24
658.876	5694.04
659.068	5808.72
659.26	5775.95
659.452	5696.08
659.644	5759.57
659.836	5700.18
660.028	5708.37
660.22	5511.77
660.412	5573.21
660.604	5640.79
660.796	5702.23
660.988	5581.4
661.18	5462.62
661.372	5337.69
661.563	5448.28
661.755	5395.03
661.947	5491.29
662.139	5356.12
662.331	5276.25
662.522	5136.99
662.714	5268.06
662.906	5143.13
663.097	5102.17
663.289	5114.46
663.481	5128.8
663.673	5065.31
663.864	5106.27
664.056	5182.04
664.247	5061.21
664.439	4997.73
664.631	5018.21
664.822	4917.86
665.014	4848.22
665.205	4987.49
665.397	4911.71
665.588	4956.77
665.78	4973.15
665.971	4825.7
666.163	4794.98
666.354	4788.83
666.546	4807.27
666.737	4749.92
666.929	4754.02
667.12	4625
667.311	4700.77
667.503	4735.59
667.694	4786.79
667.885	4584.04
668.077	4604.52
668.268	4805.22
668.459	4672.1
668.651	4581.99
668.842	4461.16
669.033	4418.15
669.224	4563.56
669.416	4432.49
669.607	4364.9
669.798	4352.62
669.989	4498.02
670.18	4469.35
670.371	4403.82
670.563	4362.86
670.754	4401.77
670.945	4182.63
671.136	4266.6
671.327	4264.55
671.518	4297.32
671.709	4328.04
671.9	4309.61
672.091	4369
672.282	4264.55
672.473	4285.03
672.664	4287.08
672.855	4117.1
673.046	4244.07
673.237	4217.45
673.428	4121.2
673.619	4074.09
673.809	4102.76
674	4332.14
674.191	4139.63
674.382	4002.41
674.573	4123.24
674.764	3877.49
674.954	4055.66
675.145	3996.27
675.336	4057.71
675.527	3916.4
675.717	4072.04
675.908	3998.32
676.099	4026.99
676.289	3981.93
676.48	4051.56
676.671	3975.79
676.861	4006.51
677.052	3816.05
677.243	3877.49
677.433	3801.71
677.624	4024.94
677.814	3875.44
678.005	3822.19
678.195	3869.3
678.386	3707.51
678.576	3969.65
678.767	3816.05
678.957	3957.36
679.148	3797.62
679.338	3750.51
679.529	3699.31
679.719	3758.71
679.909	3811.95
680.1	3639.92
680.29	3816.05
680.481	3834.48
680.671	3885.68
680.861	3676.79
681.052	3818.1
681.242	3807.86
681.432	3748.47
681.622	3670.64
681.813	3664.5
682.003	3801.71
682.193	3658.35
682.383	3670.64
682.573	3641.97
682.764	3734.13
682.954	3596.92
683.144	3725.94
683.334	3627.64
683.524	3676.79
683.714	3547.76
683.904	3592.82
684.094	3594.87
684.284	3633.78
684.474	3527.28
684.664	3558
684.854	3580.53
685.044	3590.77
685.234	3596.92
685.424	3439.22
685.614	3539.57
685.804	3504.76
685.994	3502.71
686.184	3560.05
686.374	3447.41
686.564	3367.54
686.753	3484.28
686.943	3461.75
687.133	3502.71
687.323	3375.74
687.513	3490.42
687.702	3449.46
687.892	3279.48
688.082	3299.96
688.272	3400.31
688.461	3377.78
688.651	3369.59
688.841	3205.75
689.03	3215.99
689.22	3351.16
689.41	3297.91
689.599	3326.58
689.789	3275.38
689.979	3383.93
690.168	3144.31
690.358	3140.22
690.547	3113.6
690.737	2988.67
690.926	3074.68
691.116	3043.96
691.305	3207.8
691.495	3156.6
691.684	3095.16
691.874	3027.58
692.063	3050.11
692.252	3074.68
692.442	2974.33
692.631	2935.42
692.82	3066.49
693.01	2957.95
693.199	2962.05
693.388	2976.38
693.578	2994.81
693.767	3031.68
693.956	2912.89
694.146	2912.89
694.335	2828.93
694.524	2839.17
694.713	2855.55
694.902	2894.46
695.092	2855.55
695.281	2845.31
695.47	2824.83
695.659	2796.16
695.848	2900.61
696.037	2810.5
696.226	2851.46
696.415	2804.35
696.604	2949.76
696.793	2757.25
696.982	2660.99
697.171	2794.11
697.36	2732.67
697.549	2867.84
697.738	2818.69
697.927	2617.99
698.116	2775.68
698.305	2820.74
698.494	2816.64
698.683	2697.86
698.872	2783.87
699.061	2802.3
699.25	2761.34
699.438	2816.64
699.627	2808.45
699.816	2669.19
700.005	2763.39
700.193	2734.72
700.382	2724.48
700.571	2843.26
700.76	2779.78
700.948	2679.43
701.137	2697.86
701.326	2716.29
701.514	2716.29
701.703	2550.4
701.892	2634.37
702.08	2808.45
702.269	2787.97
702.457	2636.42
702.646	2685.57
702.834	2546.31
703.023	2566.79
703.212	2691.71
703.4	2706.05
703.589	2599.55
703.777	2607.75
703.965	2673.28
704.154	2671.23
704.342	2716.29
704.531	2577.03
704.719	2693.76
704.907	2773.63
705.096	2697.86
705.284	2728.58
705.472	2740.86
705.661	2626.18
705.849	2710.15
706.037	2671.23
706.226	2687.62
706.414	2605.7
706.602	2726.53
706.79	2679.43
706.979	2755.2
707.167	2589.32
707.355	2744.96
707.543	2675.33
707.731	2689.67
707.919	2734.72
708.107	2691.71
708.296	2667.14
708.484	2587.27
708.672	2548.36
708.86	2689.67
709.048	2587.27
709.236	2605.7
709.424	2605.7
709.612	2691.71
709.8	2658.95
709.988	2630.27
710.176	2724.48
710.364	2613.89
710.551	2577.03
710.739	2622.08
710.927	2714.24
711.115	2697.86
711.303	2583.17
711.491	2712.19
711.679	2677.38
711.866	2603.65
712.054	2601.6
712.242	2542.21
712.43	2751.1
712.617	2611.84
712.805	2704
712.993	2603.65
713.181	2638.47
713.368	2751.1
713.556	2650.75
713.744	2654.85
713.931	2620.03
714.119	2675.33
714.306	2615.94
714.494	2554.5
714.682	2583.17
714.869	2626.18
715.057	2622.08
715.244	2568.84
715.432	2689.67
715.619	2497.16
715.807	2660.99
715.994	2642.56
716.182	2697.86
716.369	2638.47
716.556	2675.33
716.744	2648.71
716.931	2630.27
717.119	2728.58
717.306	2656.9
717.493	2556.55
717.681	2710.15
717.868	2658.95
718.055	2607.75
718.242	2622.08
718.43	2552.45
718.617	2570.88
718.804	2650.75
718.991	2540.16
719.179	2691.71
719.366	2587.27
719.553	2769.54
719.74	2587.27
719.927	2654.85
720.114	2701.95
720.301	2581.12
720.488	2581.12
720.676	2540.16
720.863	2665.09
721.05	2595.46
721.237	2591.36
721.424	2583.17
721.611	2724.48
721.798	2611.84
721.985	2589.32
722.172	2617.99
722.358	2658.95
722.545	2654.85
722.732	2656.9
722.919	2671.23
723.106	2658.95
723.293	2556.55
723.48	2654.85
723.667	2697.86
723.853	2747.01
724.04	2689.67
724.227	2658.95
724.414	2564.74
724.6	2595.46
724.787	2470.53
724.974	2636.42
725.161	2611.84
725.347	2605.7
725.534	2570.88
725.72	2587.27
725.907	2640.51
726.094	2638.47
726.28	2601.6
726.467	2654.85
726.653	2579.08
726.84	2712.19
727.027	2798.21
727.213	2548.36
727.4	2720.39
727.586	2695.81
727.773	2677.38
727.959	2615.94
728.145	2732.67
728.332	2577.03
728.518	2704
728.705	2706.05
728.891	2601.6
729.077	2675.33
729.264	2681.47
729.45	2640.51
729.636	2691.71
729.823	2554.5
730.009	2583.17
730.195	2597.51
730.382	2681.47
730.568	2617.99
730.754	2636.42
730.94	2638.47
731.126	2695.81
731.313	2597.51
731.499	2620.03
731.685	2663.04
731.871	2646.66
732.057	2626.18
732.243	2681.47
732.429	2538.12
732.615	2699.91
732.801	2716.29
732.987	2613.89
733.173	2636.42
733.359	2701.95
733.545	2779.78
733.731	2714.24
733.917	2658.95
734.103	2656.9
734.289	2620.03
734.475	2747.01
734.661	2740.86
734.847	2716.29
735.033	2634.37
735.219	2634.37
735.404	2617.99
735.59	2601.6
735.776	2695.81
735.962	2607.75
736.148	2630.27
736.333	2771.58
736.519	2574.98
736.705	2679.43
736.89	2663.04
737.076	2558.6
737.262	2654.85
737.447	2749.06
737.633	2552.45
737.819	2552.45
738.004	2579.08
738.19	2708.1
738.375	2605.7
738.561	2624.13
738.747	2685.57
738.932	2507.4
739.118	2566.79
739.303	2599.55
739.489	2675.33
739.674	2605.7
739.859	2427.53
740.045	2591.36
740.23	2704
740.416	2484.87
740.601	2501.25
740.786	2585.22
740.972	2562.69
741.157	2536.07
741.342	2452.1
741.528	2443.91
741.713	2534.02
741.898	2425.48
742.084	2513.54
742.269	2462.34
742.454	2523.78
742.639	2456.2
742.824	2527.88
743.01	2568.84
743.195	2407.05
743.38	2386.57
743.565	2445.96
743.75	2474.63
743.935	2376.33
744.12	2486.92
744.305	2366.09
744.49	2337.41
744.675	2407.05
744.86	2376.33
745.045	2333.32
745.23	2335.37
745.415	2235.02
745.6	2337.41
745.785	2370.18
745.97	2337.41
746.155	2353.8
746.34	2286.22
746.525	2261.64
746.71	2392.71
746.895	2212.49
747.079	2192.01
747.264	2153.1
747.449	2282.12
747.634	2194.06
747.819	2200.2
748.003	2142.86
748.188	2271.88
748.373	2128.52
748.557	2179.72
748.742	2126.47
748.927	2058.89
749.111	2048.65
749.296	1938.06
749.481	2124.43
749.665	1999.5
749.85	2079.37
750.034	2136.71
750.219	1909.39
750.404	2001.55
750.588	2009.74
750.773	1966.73
750.957	2046.6
751.141	1970.83
751.326	1976.97
751.51	1901.2
751.695	1979.02
751.879	1909.39
752.064	2028.17
752.248	1929.87
752.432	1981.07
752.617	1938.06
752.801	1839.76
752.985	1831.57
753.17	1893.01
753.354	1751.7
753.538	1708.69
753.722	1778.32
753.907	1841.81
754.091	1809.04
754.275	1753.74
754.459	1708.69
754.643	1655.44
754.828	1710.74
755.012	1616.53
755.196	1686.16
755.38	1661.59
755.564	1628.82
755.748	1766.03
755.932	1675.92
756.116	1790.61
756.3	1637.01
756.484	1665.68
756.668	1682.06
756.852	1540.76
757.036	1749.65
757.22	1569.43
757.404	1538.71
757.588	1548.95
757.772	1567.38
757.956	1491.6
758.14	1548.95
758.323	1405.59
758.507	1563.28
758.691	1450.64
758.875	1460.88
759.059	1630.87
759.242	1399.45
759.426	1483.41
759.61	1426.07
759.794	1475.22
759.977	1325.72
760.161	1487.51
760.345	1286.81
760.528	1335.96
760.712	1458.84
760.895	1428.12
761.079	1340.05
761.263	1381.01
761.446	1286.81
761.63	1325.72
761.813	1397.4
761.997	1297.05
762.18	1309.33
762.364	1231.51
762.547	1342.1
762.731	1344.15
762.914	1317.53
763.098	1290.9
763.281	1268.38
763.464	1327.77
763.648	1391.25
763.831	1110.68
764.015	1243.8
764.198	1282.71
764.381	1251.99
764.564	1213.08
764.748	1272.47
764.931	1182.36
765.114	1249.94
765.297	1227.42
765.481	1172.12
765.664	1168.02
765.847	1243.8
766.03	1245.85
766.213	1204.89
766.397	1057.43
766.58	1125.02
766.763	1172.12
766.946	1196.7
767.129	1168.02
767.312	1110.68
767.495	1155.74
767.678	1030.81
767.861	1065.63
768.044	1139.35
768.227	1155.74
768.41	1092.25
768.593	1069.72
768.776	1133.21
768.959	1133.21
769.142	1073.82
769.324	1098.39
769.507	1028.76
769.69	1125.02
769.873	1028.76
770.056	1100.44
770.239	1045.15
770.421	1079.96
770.604	993.95
770.787	973.47
770.97	971.42
771.152	1043.1
771.335	1010.33
771.518	922.27
771.7	1069.72
771.883	975.52
772.066	1039
772.248	1090.2
772.431	963.23
772.613	957.08
772.796	985.76
772.978	991.9
773.161	975.52
773.343	934.56
773.526	893.6
773.708	866.97
773.891	920.22
774.073	875.17
774.256	1008.28
774.438	971.42
774.621	873.12
774.803	928.41
774.985	891.55
775.168	938.65
775.35	858.78
775.532	924.32
775.715	926.36
775.897	850.59
776.079	873.12
776.261	944.8
776.444	879.26
776.626	785.05
776.808	783.01
776.99	901.79
777.173	783.01
777.355	807.58
777.537	760.48
777.719	795.29
777.901	858.78
778.083	815.77
778.265	776.86
778.447	711.33
778.629	764.58
778.811	762.53
778.993	762.53
779.175	660.13
779.357	715.42
779.539	600.74
779.721	805.53
779.903	731.81
780.085	703.14
780.267	750.24
780.449	772.77
780.631	684.7
780.812	754.34
780.994	670.37
781.176	682.66
781.358	643.74
781.54	733.86
781.721	692.9
781.903	721.57
782.085	649.89
782.267	643.74
782.448	631.46
782.63	553.63
782.812	613.03
782.993	559.78
783.175	582.31
783.357	588.45
783.538	570.02
783.72	617.12
783.901	606.88
784.083	633.5
784.264	639.65
784.446	531.11
784.627	608.93
784.809	590.5
784.99	559.78
785.172	574.11
785.353	625.31
785.535	539.3
785.716	475.81
785.897	479.91
786.079	473.76
786.26	514.72
786.441	586.4
786.623	449.19
786.804	522.91
786.985	547.49
787.167	549.54
787.348	486.05
787.529	473.76
787.71	598.69
787.891	522.91
788.073	477.86
788.254	500.39
788.435	516.77
788.616	475.81
788.797	447.14
788.978	479.91
789.159	461.48
789.34	422.56
789.522	477.86
789.703	441
789.884	467.62
790.065	463.52
790.246	404.13
790.427	504.48
790.607	494.24
790.788	447.14
790.969	463.52
791.15	426.66
791.331	381.6
791.512	422.56
791.693	447.14
791.874	393.89
792.054	424.61
792.235	369.32
792.416	441
792.597	361.13
792.778	361.13
792.958	430.76
793.139	412.32
793.32	383.65
793.5	352.93
793.681	340.65
793.862	420.52
794.042	375.46
794.223	328.36
794.404	373.41
794.584	357.03
794.765	320.17
794.945	352.93
795.126	311.97
795.306	402.08
795.487	385.7
795.667	264.87
795.848	350.89
796.028	377.51
796.209	391.84
796.389	330.41
796.57	397.99
796.75	316.07
796.93	287.4
797.111	273.06
797.291	357.03
797.471	320.17
797.652	334.5
797.832	324.26
798.012	336.55
798.192	344.74
798.373	324.26
798.553	268.97
798.733	309.93
798.913	234.15
799.093	354.98
799.274	314.02
799.454	238.25
799.634	344.74
799.814	289.45
799.994	316.07
800.174	258.73
800.354	354.98
800.534	271.01
800.714	264.87
800.894	334.5
801.074	336.55
801.254	223.91
801.434	326.31
801.614	291.49
801.794	246.44
801.974	606.88
802.154	291.49
802.334	234.15
802.514	199.34
802.693	332.45
802.873	299.69
803.053	307.88
803.233	275.11
803.413	264.87
803.592	205.48
803.772	246.44
803.952	211.62
804.131	254.63
804.311	277.16
804.491	281.25
804.67	277.16
804.85	281.25
805.03	285.35
805.209	256.68
805.389	221.86
805.568	182.95
805.748	299.69
805.928	260.77
806.107	264.87
806.287	254.63
806.466	225.96
806.646	285.35
806.825	201.38
807.004	228.01
807.184	291.49
807.363	266.92
807.543	203.43
807.722	273.06
807.901	221.86
808.081	289.45
808.26	189.1
808.439	228.01
808.619	246.44
808.798	170.66
808.977	193.19
809.156	254.63
809.336	182.95
809.515	250.53
809.694	195.24
809.873	197.29
810.052	201.38
810.231	217.77
810.411	234.15
810.59	225.96
810.769	133.8
810.948	182.95
811.127	174.76
811.306	242.34
811.485	51.88
811.664	240.29
811.843	137.9
812.022	160.42
812.201	236.2
812.38	185
812.559	123.56
812.737	223.91
812.916	127.66
813.095	268.97
813.274	178.86
813.453	180.9
813.632	156.33
813.811	234.15
813.989	154.28
814.168	182.95
814.347	176.81
814.526	168.62
814.704	221.86
814.883	160.42
815.062	139.94
815.24	205.48
815.419	103.08
815.598	180.9
815.776	135.85
815.955	191.14
816.133	164.52
816.312	139.94
816.49	135.85
816.669	215.72
816.847	174.76
817.026	203.43
817.204	107.18
817.383	170.66
817.561	168.62
817.74	168.62
817.918	141.99
818.097	148.14
818.275	201.38
818.453	168.62
818.632	139.94
818.81	137.9
818.988	25.26
819.167	74.41
819.345	201.38
819.523	101.03
819.701	133.8
819.879	115.37
820.058	162.47
820.236	117.42
820.414	103.08
820.592	168.62
820.77	148.14
820.948	121.51
821.127	139.94
821.305	160.42
821.483	164.52
821.661	172.71
821.839	117.42
822.017	94.89
822.195	90.79
822.373	133.8
822.551	176.81
822.729	115.37
822.907	123.56
823.085	88.75
823.262	125.61
823.44	111.27
823.618	10.92
823.796	123.56
823.974	152.23
824.152	191.14
824.329	166.57
824.507	107.18
824.685	109.22
824.863	187.05
825.04	139.94
825.218	150.18
825.396	107.18
825.574	101.03
825.751	185
825.929	139.94
826.107	144.04
826.284	88.75
826.462	84.65
826.639	55.98
826.817	94.89
826.994	86.7
827.172	125.61
827.349	141.99
827.527	55.98
827.704	105.13
827.882	137.9
828.059	117.42
828.237	49.83
828.414	90.79
828.591	86.7
828.769	103.08
828.946	74.41
829.124	109.22
829.301	117.42
829.478	51.88
829.655	101.03
829.833	72.36
830.01	27.31
830.187	141.99
830.364	51.88
830.542	105.13
830.719	131.75
830.896	72.36
831.073	133.8
831.25	49.83
831.427	78.51
831.604	103.08
831.782	82.6
831.959	139.94
832.136	64.17
832.313	109.22
832.49	45.74
832.667	92.84
832.844	123.56
833.021	49.83
833.198	37.55
833.374	90.79
833.551	66.22
833.728	51.88
833.905	66.22
834.082	127.66
834.259	82.6
834.436	103.08
834.612	53.93
834.789	82.6
834.966	103.08
835.143	131.75
835.319	94.89
835.496	115.37
835.673	17.07
835.85	58.03
836.026	109.22
836.203	41.64
836.38	35.5
836.556	72.36
836.733	8.87
836.909	92.84
837.086	78.51
837.262	60.07
837.439	113.32
837.616	33.45
837.792	29.35
837.968	45.74
838.145	62.12
838.321	78.51
838.498	96.94
838.674	53.93
838.851	107.18
839.027	78.51
839.203	47.79
839.38	66.22
839.556	0.68
839.732	88.75
839.909	78.51
840.085	47.79
840.261	92.84
840.437	109.22
840.614	-27.99
840.79	8.87
840.966	82.6
841.142	74.41
841.318	96.94
841.494	60.07
841.671	29.35
841.847	68.27
842.023	45.74
842.199	129.7
842.375	25.26
842.551	70.31
842.727	37.55
842.903	135.85
843.079	6.83
843.255	74.41
843.431	53.93
843.607	98.99
843.783	51.88
843.959	111.27
844.134	27.31
844.31	90.79
844.486	37.55
844.662	37.55
844.838	31.4
845.013	105.13
845.189	107.18
845.365	17.07
845.541	-5.46
845.716	80.55
845.892	68.27
846.068	64.17
846.244	78.51
846.419	33.45
846.595	37.55
846.77	23.21
846.946	19.11
847.122	60.07
847.297	58.03
847.473	58.03
847.648	12.97
847.824	60.07
847.999	78.51
848.175	33.45
848.35	86.7
848.526	84.65
848.701	-11.61
848.876	98.99
849.052	41.64
849.227	70.31
849.403	-19.8
849.578	133.8
849.753	78.51
849.929	135.85
850.104	49.83
850.279	51.88
850.454	66.22
850.63	62.12
850.805	39.59
850.98	-1.37
851.155	31.4
851.33	92.84
851.505	60.07
851.681	29.35
851.856	96.94
852.031	90.79
852.206	70.31
852.381	17.07
852.556	111.27
852.731	86.7
852.906	68.27
853.081	58.03
853.256	35.5
853.431	39.59
853.606	27.31
853.781	10.92
853.956	-66.9
854.131	21.16
854.305	15.02
854.48	68.27
854.655	-11.61
854.83	78.51
855.005	66.22
855.18	31.4
855.354	92.84
855.529	62.12
855.704	78.51
855.879	84.65
856.053	37.55
856.228	19.11
856.403	-32.08
856.577	64.17
856.752	-9.56
856.926	-3.41
857.101	21.16
857.276	94.89
857.45	23.21
857.625	35.5
857.799	125.61
857.974	43.69
858.148	4.78
858.323	33.45
858.497	86.7
858.672	41.64
858.846	96.94
859.02	4.78
859.195	6.83
859.369	39.59
859.543	33.45
859.718	55.98
859.892	29.35
860.066	33.45
860.241	25.26
860.415	6.83
860.589	66.22
860.763	17.07
860.938	45.74
861.112	27.31
861.286	62.12
861.46	33.45
861.634	33.45
861.808	-9.56
861.982	23.21
862.157	53.93
862.331	-11.61
862.505	33.45
862.679	60.07
862.853	49.83
863.027	0.68
863.201	31.4
863.375	76.46
863.549	58.03
863.722	12.97
863.896	101.03
864.07	86.7
864.244	86.7
864.418	17.07
864.592	68.27
864.766	12.97
864.939	37.55
865.113	-30.04
865.287	25.26
865.461	19.11
865.634	47.79
865.808	55.98
865.982	76.46
866.156	19.11
866.329	45.74
866.503	12.97
866.676	12.97
866.85	-19.8
867.024	29.35
867.197	27.31
867.371	47.79
867.544	64.17
867.718	62.12
867.891	49.83
868.065	66.22
868.238	23.21
868.412	53.93
868.585	25.26
868.759	51.88
868.932	-34.13
869.105	53.93
869.279	62.12
869.452	-27.99
869.625	43.69
869.799	72.36
869.972	0.68
870.145	2.73
870.319	43.69
870.492	164.52
870.665	-11.61
870.838	15.02
871.011	10.92
871.185	33.45
871.358	49.83
871.531	4.78
871.704	15.02
871.877	-48.47
872.05	58.03
872.223	33.45
872.396	-3.41
872.569	64.17
872.742	60.07
872.915	15.02
873.088	-19.8
873.261	-19.8
873.434	107.18
873.607	15.02
873.78	17.07
873.953	21.16
874.126	17.07
874.299	-23.89
874.471	-7.51
874.644	-27.99
874.817	37.55
874.99	94.89
875.163	-19.8
875.335	33.45
875.508	-1.37
875.681	8.87
875.853	39.59
876.026	82.6
876.199	92.84
876.371	-9.56
876.544	19.11
876.717	68.27
876.889	-30.04
877.062	8.87
877.234	-40.28
877.407	0.68
877.579	-5.46
877.752	10.92
877.924	51.88
878.097	-5.46
878.269	-60.76
878.442	-1.37
878.614	25.26
878.786	33.45
878.959	49.83
879.131	39.59
879.303	-13.65
879.476	-79.19
879.648	23.21
879.82	31.4
879.993	-40.28
880.165	39.59
880.337	8.87
880.509	15.02
880.681	-23.89
880.854	0.68
881.026	21.16
881.198	33.45
881.37	10.92
881.542	-30.04
881.714	-7.51
881.886	-38.23
882.058	35.5
882.23	-11.61
882.402	25.26
882.574	90.79
882.746	47.79
882.918	12.97
883.09	-27.99
883.262	-30.04
883.434	29.35
883.606	43.69
883.778	29.35
883.95	49.83
884.122	6.83
884.293	12.97
884.465	8.87
884.637	60.07
884.809	4.78
884.98	-9.56
885.152	72.36
885.324	58.03
885.496	39.59
885.667	-19.8
885.839	33.45
886.011	21.16
886.182	25.26
886.354	39.59
886.525	39.59
886.697	80.55
886.869	8.87
887.04	-17.75
887.212	37.55
887.383	29.35
887.555	-116.05
887.726	27.31
887.897	-7.51
888.069	-5.46
888.24	43.69
888.412	64.17
888.583	25.26
888.754	37.55
888.926	-44.37
889.097	-9.56
889.268	-42.32
889.44	31.4
889.611	19.11
889.782	-32.08
889.953	-66.9
890.125	45.74
890.296	-19.8
890.467	29.35
890.638	-40.28
890.809	43.69
890.98	-34.13
891.151	53.93
891.323	90.79
891.494	-15.7
891.665	17.07
891.836	35.5
892.007	-58.71
892.178	-32.08
892.349	-17.75
892.52	-1.37
892.691	6.83
892.862	55.98
893.032	-32.08
893.203	8.87
893.374	-1.37
893.545	31.4
893.716	29.35
893.887	43.69
894.057	21.16
894.228	-7.51
894.399	-46.42
894.57	135.85
894.74	19.11
894.911	21.16
895.082	-15.7
895.253	-50.52
895.423	-68.95
895.594	55.98
895.764	17.07
895.935	43.69
896.106	68.27
896.276	-23.89
896.447	-19.8
896.617	-11.61
896.788	-15.7
896.958	29.35
897.129	43.69
897.299	-17.75
897.47	-7.51
897.64	31.4
897.81	-3.41
897.981	-23.89
898.151	29.35
898.322	23.21
898.492	21.16
898.662	31.4
898.832	-64.85
899.003	29.35
899.173	0.68
899.343	-77.14
899.513	-3.41
