Data from USB4F104151__16__11-44-35-814.txt Node

Date: Fri Mar 14 11:44:35 EDT 2025
User: louis
Spectrometer: USB4F10415
Trigger mode: 4
Integration Time (sec): 2.000000E-2
Scans to average: 1
Electric dark correction enabled: true
Nonlinearity correction enabled: false
Boxcar width: 0
XAxis mode: Wavelengths
Number of Pixels in Spectrum: 3648
>>>>>Begin Spectral Data<<<<<
178.204	-51.37
178.424	-51.37
178.644	-51.37
178.864	-127.14
179.084	-37.03
179.304	-8.36
179.524	-12.46
179.744	3.93
179.964	-22.7
180.184	59.22
180.404	-45.23
180.624	-6.31
180.844	100.18
181.064	-104.62
181.283	69.46
181.503	-18.6
181.723	-14.51
181.943	-10.41
182.163	-37.03
182.383	-47.27
182.602	20.31
182.822	-34.99
183.042	38.74
183.262	-4.27
183.482	71.51
183.701	-30.89
183.921	-2.22
184.141	-20.65
184.361	61.27
184.58	-16.55
184.8	34.64
185.02	-39.08
185.239	63.32
185.459	51.03
185.679	22.36
185.898	5.97
186.118	-10.41
186.338	-16.55
186.557	14.17
186.777	-39.08
186.997	-18.6
187.216	-20.65
187.436	-12.46
187.655	18.26
187.875	104.28
188.095	36.69
188.314	10.07
188.534	8.02
188.753	57.17
188.973	1.88
189.192	32.6
189.412	-14.51
189.631	-14.51
189.851	24.4
190.07	22.36
190.29	-2.22
190.509	14.17
190.729	38.74
190.948	77.65
191.168	116.56
191.387	108.37
191.607	53.08
191.826	5.97
192.045	14.17
192.265	-14.51
192.484	40.79
192.704	10.07
192.923	-16.55
193.142	79.7
193.362	24.4
193.581	42.84
193.8	73.56
194.02	-20.65
194.239	3.93
194.458	40.79
194.678	-39.08
194.897	28.5
195.116	-45.23
195.335	26.45
195.555	12.12
195.774	-6.31
195.993	53.08
196.212	40.79
196.432	10.07
196.651	-77.99
196.87	24.4
197.089	32.6
197.308	-8.36
197.528	83.8
197.747	-55.47
197.966	-14.51
198.185	91.99
198.404	26.45
198.623	38.74
198.842	28.5
199.062	1.88
199.281	36.69
199.5	-16.55
199.719	53.08
199.938	36.69
200.157	53.08
200.376	51.03
200.595	14.17
200.814	-10.41
201.033	18.26
201.252	38.74
201.471	59.22
201.69	32.6
201.909	-16.55
202.128	-4.27
202.347	5.97
202.566	63.32
202.785	-24.75
203.004	22.36
203.223	71.51
203.442	-61.61
203.661	-2.22
203.879	-22.7
204.098	-55.47
204.317	26.45
204.536	-4.27
204.755	30.55
204.974	100.18
205.193	-8.36
205.411	87.89
205.63	59.22
205.849	1.88
206.068	-8.36
206.287	34.64
206.505	-6.31
206.724	94.04
206.943	26.45
207.162	89.94
207.381	98.13
207.599	36.69
207.818	-80.04
208.037	12.12
208.255	-22.7
208.474	38.74
208.693	106.32
208.911	36.69
209.13	40.79
209.349	55.12
209.567	-28.84
209.786	18.26
210.005	20.31
210.223	-20.65
210.442	-104.62
210.661	32.6
210.879	-14.51
211.098	-8.36
211.316	14.17
211.535	30.55
211.753	16.21
211.972	-37.03
212.191	-22.7
212.409	63.32
212.628	36.69
212.846	-49.32
213.065	34.64
213.283	71.51
213.502	-49.32
213.72	-18.6
213.938	48.98
214.157	28.5
214.375	32.6
214.594	-18.6
214.812	57.17
215.031	85.84
215.249	46.93
215.467	8.02
215.686	26.45
215.904	83.8
216.122	61.27
216.341	-14.51
216.559	69.46
216.778	-8.36
216.996	18.26
217.214	-18.6
217.432	12.12
217.651	-14.51
217.869	-4.27
218.087	3.93
218.306	-43.18
218.524	10.07
218.742	8.02
218.96	40.79
219.179	34.64
219.397	-18.6
219.615	75.6
219.833	8.02
220.051	34.64
220.27	36.69
220.488	63.32
220.706	46.93
220.924	63.32
221.142	1.88
221.36	1.88
221.578	30.55
221.796	10.07
222.015	26.45
222.233	-0.17
222.451	14.17
222.669	-41.13
222.887	59.22
223.105	-26.79
223.323	-18.6
223.541	-90.28
223.759	10.07
223.977	-26.79
224.195	91.99
224.413	18.26
224.631	12.12
224.849	-2.22
225.067	14.17
225.285	73.56
225.503	36.69
225.721	-73.9
225.939	69.46
226.157	24.4
226.375	40.79
226.592	-0.17
226.81	-16.55
227.028	20.31
227.246	30.55
227.464	-10.41
227.682	63.32
227.9	10.07
228.117	32.6
228.335	30.55
228.553	59.22
228.771	48.98
228.989	104.28
229.206	20.31
229.424	-12.46
229.642	8.02
229.86	28.5
230.077	53.08
230.295	79.7
230.513	36.69
230.731	12.12
230.948	34.64
231.166	40.79
231.384	67.41
231.601	67.41
231.819	-8.36
232.037	20.31
232.254	18.26
232.472	-18.6
232.689	44.88
232.907	85.84
233.125	5.97
233.342	1.88
233.56	-41.13
233.777	69.46
233.995	53.08
234.213	32.6
234.43	-18.6
234.648	-59.56
234.865	14.17
235.083	-24.75
235.3	3.93
235.518	-12.46
235.735	-34.99
235.953	-32.94
236.17	30.55
236.388	-28.84
236.605	-8.36
236.822	-34.99
237.04	-10.41
237.257	67.41
237.475	34.64
237.692	40.79
237.909	-34.99
238.127	-22.7
238.344	34.64
238.562	46.93
238.779	3.93
238.996	63.32
239.214	-55.47
239.431	34.64
239.648	59.22
239.865	-22.7
240.083	46.93
240.3	3.93
240.517	-28.84
240.735	26.45
240.952	83.8
241.169	3.93
241.386	38.74
241.603	24.4
241.821	-26.79
242.038	42.84
242.255	42.84
242.472	-18.6
242.689	61.27
242.907	10.07
243.124	-32.94
243.341	46.93
243.558	-4.27
243.775	-18.6
243.992	-8.36
244.209	18.26
244.426	42.84
244.643	8.02
244.86	53.08
245.078	-18.6
245.295	55.12
245.512	-2.22
245.729	-37.03
245.946	34.64
246.163	36.69
246.38	-75.95
246.597	-14.51
246.814	67.41
247.031	10.07
247.248	-14.51
247.464	26.45
247.681	-10.41
247.898	42.84
248.115	51.03
248.332	40.79
248.549	22.36
248.766	91.99
248.983	38.74
249.2	10.07
249.417	28.5
249.633	-0.17
249.85	20.31
250.067	8.02
250.284	55.12
250.501	18.26
250.717	77.65
250.934	51.03
251.151	34.64
251.368	-6.31
251.585	-8.36
251.801	-80.04
252.018	-26.79
252.235	51.03
252.451	40.79
252.668	3.93
252.885	69.46
253.102	38.74
253.318	-20.65
253.535	65.36
253.752	8.02
253.968	30.55
254.185	28.5
254.401	26.45
254.618	-22.7
254.835	22.36
255.051	83.8
255.268	12.12
255.484	-43.18
255.701	1.88
255.917	83.8
256.134	5.97
256.351	61.27
256.567	-22.7
256.784	-18.6
257	-55.47
257.217	-32.94
257.433	71.51
257.65	71.51
257.866	24.4
258.082	28.5
258.299	-73.9
258.515	-0.17
258.732	-28.84
258.948	-8.36
259.165	89.94
259.381	38.74
259.597	20.31
259.814	-22.7
260.03	40.79
260.246	-4.27
260.463	83.8
260.679	69.46
260.895	48.98
261.112	59.22
261.328	-0.17
261.544	3.93
261.761	132.95
261.977	-14.51
262.193	3.93
262.409	42.84
262.626	-51.37
262.842	-43.18
263.058	16.21
263.274	-4.27
263.49	51.03
263.707	-28.84
263.923	5.97
264.139	38.74
264.355	42.84
264.571	46.93
264.787	1.88
265.004	32.6
265.22	61.27
265.436	-20.65
265.652	-28.84
265.868	65.36
266.084	-51.37
266.3	91.99
266.516	10.07
266.732	-8.36
266.948	44.88
267.164	32.6
267.38	51.03
267.596	71.51
267.812	67.41
268.028	57.17
268.244	-2.22
268.46	51.03
268.676	-45.23
268.892	61.27
269.108	-28.84
269.324	8.02
269.54	40.79
269.756	36.69
269.972	-32.94
270.188	38.74
270.403	-41.13
270.619	77.65
270.835	85.84
271.051	67.41
271.267	-24.75
271.483	10.07
271.698	40.79
271.914	-16.55
272.13	-4.27
272.346	-14.51
272.562	-14.51
272.777	44.88
272.993	26.45
273.209	-0.17
273.425	20.31
273.64	-12.46
273.856	63.32
274.072	-47.27
274.287	-26.79
274.503	34.64
274.719	-34.99
274.934	38.74
275.15	-34.99
275.366	46.93
275.581	-16.55
275.797	87.89
276.012	22.36
276.228	75.6
276.444	-12.46
276.659	63.32
276.875	-55.47
277.09	34.64
277.306	-49.32
277.521	34.64
277.737	-22.7
277.952	116.56
278.168	-4.27
278.383	-30.89
278.599	-2.22
278.814	85.84
279.03	-0.17
279.245	30.55
279.461	14.17
279.676	59.22
279.892	-28.84
280.107	12.12
280.322	-39.08
280.538	1.88
280.753	-43.18
280.969	26.45
281.184	32.6
281.399	22.36
281.615	71.51
281.83	22.36
282.045	-2.22
282.26	46.93
282.476	-41.13
282.691	-6.31
282.906	8.02
283.122	1.88
283.337	57.17
283.552	51.03
283.767	-12.46
283.983	38.74
284.198	24.4
284.413	10.07
284.628	-16.55
284.843	36.69
285.058	-8.36
285.274	46.93
285.489	30.55
285.704	-10.41
285.919	63.32
286.134	63.32
286.349	85.84
286.564	-14.51
286.779	44.88
286.995	30.55
287.21	-32.94
287.425	57.17
287.64	20.31
287.855	32.6
288.07	-0.17
288.285	91.99
288.5	5.97
288.715	34.64
288.93	51.03
289.145	20.31
289.36	48.98
289.575	5.97
289.79	-8.36
290.004	-86.19
290.219	40.79
290.434	16.21
290.649	-10.41
290.864	-12.46
291.079	30.55
291.294	65.36
291.509	3.93
291.724	55.12
291.938	-28.84
292.153	1.88
292.368	63.32
292.583	38.74
292.798	102.23
293.012	75.6
293.227	36.69
293.442	77.65
293.657	10.07
293.871	-20.65
294.086	42.84
294.301	38.74
294.516	22.36
294.73	34.64
294.945	-18.6
295.16	10.07
295.374	94.04
295.589	42.84
295.804	14.17
296.018	59.22
296.233	94.04
296.447	-32.94
296.662	67.41
296.877	89.94
297.091	59.22
297.306	-28.84
297.52	34.64
297.735	14.17
297.949	1.88
298.164	36.69
298.378	46.93
298.593	55.12
298.807	22.36
299.022	-14.51
299.236	-39.08
299.451	30.55
299.665	57.17
299.88	63.32
300.094	59.22
300.309	55.12
300.523	18.26
300.737	46.93
300.952	10.07
301.166	-41.13
301.381	-24.75
301.595	-0.17
301.809	28.5
302.024	-53.42
302.238	-47.27
302.452	61.27
302.667	-8.36
302.881	69.46
303.095	118.61
303.309	46.93
303.524	36.69
303.738	22.36
303.952	-12.46
304.166	22.36
304.381	-55.47
304.595	110.42
304.809	30.55
305.023	53.08
305.237	42.84
305.452	22.36
305.666	20.31
305.88	57.17
306.094	-12.46
306.308	22.36
306.522	18.26
306.736	-53.42
306.95	94.04
307.164	16.21
307.379	-2.22
307.593	8.02
307.807	32.6
308.021	57.17
308.235	71.51
308.449	-59.56
308.663	-28.84
308.877	57.17
309.091	34.64
309.305	55.12
309.519	-18.6
309.733	73.56
309.947	38.74
310.161	14.17
310.374	57.17
310.588	63.32
310.802	48.98
311.016	-30.89
311.23	65.36
311.444	14.17
311.658	14.17
311.872	20.31
312.085	18.26
312.299	30.55
312.513	51.03
312.727	32.6
312.941	38.74
313.154	46.93
313.368	12.12
313.582	-34.99
313.796	18.26
314.009	40.79
314.223	57.17
314.437	40.79
314.651	75.6
314.864	5.97
315.078	67.41
315.292	51.03
315.505	57.17
315.719	-34.99
315.933	14.17
316.146	75.6
316.36	10.07
316.573	30.55
316.787	46.93
317.001	48.98
317.214	12.12
317.428	143.19
317.641	24.4
317.855	-6.31
318.068	57.17
318.282	-16.55
318.495	65.36
318.709	40.79
318.922	51.03
319.136	110.42
319.349	51.03
319.563	-26.79
319.776	18.26
319.99	-20.65
320.203	-30.89
320.417	34.64
320.63	59.22
320.843	1.88
321.057	83.8
321.27	18.26
321.483	30.55
321.697	18.26
321.91	94.04
322.124	55.12
322.337	48.98
322.55	48.98
322.763	-22.7
322.977	-0.17
323.19	12.12
323.403	94.04
323.617	26.45
323.83	61.27
324.043	85.84
324.256	-2.22
324.469	-49.32
324.683	8.02
324.896	-4.27
325.109	14.17
325.322	10.07
325.535	51.03
325.748	26.45
325.962	-8.36
326.175	51.03
326.388	28.5
326.601	-18.6
326.814	-84.14
327.027	30.55
327.24	-20.65
327.453	-34.99
327.666	-12.46
327.879	53.08
328.092	79.7
328.305	53.08
328.518	32.6
328.731	-26.79
328.944	28.5
329.157	-30.89
329.37	69.46
329.583	65.36
329.796	65.36
330.009	-47.27
330.222	51.03
330.435	-2.22
330.648	-8.36
330.861	1.88
331.073	79.7
331.286	-16.55
331.499	120.66
331.712	-0.17
331.925	38.74
332.138	77.65
332.35	81.75
332.563	22.36
332.776	-12.46
332.989	-6.31
333.202	14.17
333.414	-0.17
333.627	51.03
333.84	73.56
334.053	20.31
334.265	63.32
334.478	36.69
334.691	-20.65
334.903	48.98
335.116	1.88
335.329	1.88
335.541	16.21
335.754	8.02
335.966	30.55
336.179	-30.89
336.392	14.17
336.604	22.36
336.817	38.74
337.029	1.88
337.242	55.12
337.454	110.42
337.667	-6.31
337.88	53.08
338.092	96.08
338.305	34.64
338.517	1.88
338.729	69.46
338.942	38.74
339.154	38.74
339.367	-22.7
339.579	81.75
339.792	12.12
340.004	24.4
340.217	-16.55
340.429	-18.6
340.641	59.22
340.854	16.21
341.066	-0.17
341.278	20.31
341.491	26.45
341.703	24.4
341.915	59.22
342.128	46.93
342.34	53.08
342.552	-39.08
342.764	26.45
342.977	30.55
343.189	51.03
343.401	57.17
343.613	59.22
343.826	14.17
344.038	20.31
344.25	24.4
344.462	151.38
344.674	-30.89
344.886	20.31
345.099	-4.27
345.311	-20.65
345.523	26.45
345.735	-24.75
345.947	8.02
346.159	-47.27
346.371	34.64
346.583	-4.27
346.795	120.66
347.007	71.51
347.219	79.7
347.431	59.22
347.643	67.41
347.855	46.93
348.067	30.55
348.279	-0.17
348.491	94.04
348.703	20.31
348.915	48.98
349.127	-18.6
349.339	100.18
349.551	30.55
349.763	57.17
349.975	38.74
350.187	81.75
350.399	-14.51
350.61	-4.27
350.822	48.98
351.034	36.69
351.246	3.93
351.458	28.5
351.669	28.5
351.881	36.69
352.093	-6.31
352.305	55.12
352.517	8.02
352.728	87.89
352.94	-0.17
353.152	81.75
353.363	12.12
353.575	3.93
353.787	63.32
353.999	77.65
354.21	67.41
354.422	-53.42
354.633	91.99
354.845	81.75
355.057	-53.42
355.268	34.64
355.48	-10.41
355.692	65.36
355.903	-6.31
356.115	44.88
356.326	-102.57
356.538	36.69
356.749	112.47
356.961	81.75
357.172	83.8
357.384	-57.51
357.595	85.84
357.807	120.66
358.018	46.93
358.23	71.51
358.441	83.8
358.653	34.64
358.864	51.03
359.075	26.45
359.287	57.17
359.498	42.84
359.709	30.55
359.921	-18.6
360.132	-6.31
360.344	18.26
360.555	-12.46
360.766	-12.46
360.977	-24.75
361.189	34.64
361.4	24.4
361.611	40.79
361.823	53.08
362.034	-22.7
362.245	-16.55
362.456	89.94
362.667	38.74
362.879	10.07
363.09	59.22
363.301	48.98
363.512	57.17
363.723	14.17
363.935	-30.89
364.146	98.13
364.357	20.31
364.568	67.41
364.779	53.08
364.99	55.12
365.201	-51.37
365.412	71.51
365.623	-26.79
365.834	26.45
366.045	-12.46
366.256	89.94
366.467	48.98
366.678	48.98
366.889	-2.22
367.1	67.41
367.311	20.31
367.522	42.84
367.733	40.79
367.944	-10.41
368.155	-0.17
368.366	118.61
368.577	32.6
368.788	36.69
368.999	53.08
369.209	18.26
369.42	51.03
369.631	22.36
369.842	-41.13
370.053	42.84
370.264	59.22
370.474	5.97
370.685	8.02
370.896	22.36
371.107	32.6
371.317	14.17
371.528	-49.32
371.739	63.32
371.95	22.36
372.16	12.12
372.371	34.64
372.582	44.88
372.792	61.27
373.003	-18.6
373.214	83.8
373.424	44.88
373.635	42.84
373.846	38.74
374.056	-8.36
374.267	63.32
374.477	20.31
374.688	44.88
374.898	42.84
375.109	26.45
375.319	26.45
375.53	57.17
375.74	-71.85
375.951	-26.79
376.161	89.94
376.372	30.55
376.582	-55.47
376.793	8.02
377.003	40.79
377.214	10.07
377.424	-16.55
377.635	63.32
377.845	53.08
378.055	-12.46
378.266	69.46
378.476	1.88
378.686	96.08
378.897	51.03
379.107	16.21
379.317	51.03
379.528	-55.47
379.738	42.84
379.948	34.64
380.158	55.12
380.369	12.12
380.579	59.22
380.789	-24.75
380.999	-32.94
381.21	46.93
381.42	75.6
381.63	-18.6
381.84	51.03
382.05	12.12
382.261	79.7
382.471	22.36
382.681	61.27
382.891	57.17
383.101	51.03
383.311	30.55
383.521	28.5
383.731	16.21
383.941	100.18
384.151	-12.46
384.361	24.4
384.571	120.66
384.781	38.74
384.991	3.93
385.201	32.6
385.411	63.32
385.621	51.03
385.831	94.04
386.041	-37.03
386.251	5.97
386.461	128.85
386.671	14.17
386.881	42.84
387.091	57.17
387.301	63.32
387.511	67.41
387.72	63.32
387.93	132.95
388.14	16.21
388.35	34.64
388.56	40.79
388.769	38.74
388.979	-0.17
389.189	-57.51
389.399	3.93
389.609	53.08
389.818	20.31
390.028	34.64
390.238	75.6
390.447	104.28
390.657	110.42
390.867	61.27
391.076	18.26
391.286	51.03
391.496	10.07
391.705	51.03
391.915	116.56
392.125	1.88
392.334	18.26
392.544	104.28
392.753	44.88
392.963	46.93
393.172	28.5
393.382	55.12
393.591	173.91
393.801	63.32
394.01	71.51
394.22	32.6
394.429	89.94
394.639	24.4
394.848	53.08
395.058	46.93
395.267	48.98
395.477	122.71
395.686	118.61
395.895	36.69
396.105	122.71
396.314	59.22
396.524	116.56
396.733	32.6
396.942	67.41
397.152	1.88
397.361	102.23
397.57	57.17
397.78	96.08
397.989	42.84
398.198	167.76
398.407	102.23
398.617	61.27
398.826	120.66
399.035	53.08
399.244	55.12
399.453	67.41
399.663	108.37
399.872	182.1
400.081	75.6
400.29	57.17
400.499	147.28
400.708	53.08
400.917	106.32
401.127	100.18
401.336	69.46
401.545	157.52
401.754	143.19
401.963	91.99
402.172	65.36
402.381	108.37
402.59	194.39
402.799	145.24
403.008	110.42
403.217	120.66
403.426	137.04
403.635	184.15
403.844	124.76
404.053	141.14
404.262	151.38
404.471	124.76
404.68	149.33
404.888	135
405.097	139.09
405.306	137.04
405.515	124.76
405.724	180.05
405.933	175.95
406.142	190.29
406.35	184.15
406.559	233.3
406.768	173.91
406.977	186.19
407.185	171.86
407.394	247.63
407.603	214.87
407.812	171.86
408.02	229.2
408.229	261.97
408.438	178
408.646	169.81
408.855	204.63
409.064	243.54
409.272	196.43
409.481	304.98
409.69	237.39
409.898	192.34
410.107	280.4
410.315	292.69
410.524	210.77
410.733	366.42
410.941	370.51
411.15	272.21
411.358	397.14
411.567	341.84
411.775	397.14
411.984	347.98
412.192	393.04
412.401	458.57
412.609	487.25
412.818	434
413.026	534.35
413.234	466.77
413.443	507.73
413.651	554.83
413.86	542.54
414.068	550.73
414.276	558.92
414.485	560.97
414.693	612.17
414.901	603.98
415.11	689.99
415.318	606.03
415.526	593.74
415.734	687.95
415.943	663.37
416.151	786.25
416.359	708.43
416.567	761.67
416.776	825.16
416.984	862.02
417.192	874.31
417.4	945.99
417.608	952.13
417.817	968.52
418.025	958.28
418.233	1120.07
418.441	1034.05
418.649	1120.07
418.857	1193.8
419.065	1275.71
419.273	1191.75
419.481	1326.91
419.689	1269.57
419.897	1349.44
420.105	1437.5
420.313	1462.08
420.521	1433.41
420.729	1484.61
420.937	1627.96
421.145	1677.12
421.353	1806.14
421.561	1836.86
421.769	1832.76
421.977	1945.4
422.185	1892.15
422.393	2035.51
422.601	2033.46
422.809	2115.38
423.017	2139.96
423.224	2258.74
423.432	2340.66
423.64	2334.51
423.848	2594.61
424.056	2537.26
424.263	2672.43
424.471	2666.28
424.679	2721.58
424.887	2961.19
425.094	2866.99
425.302	2846.51
425.51	3008.3
425.718	3153.7
425.925	3209
426.133	3272.48
426.341	3551.01
426.548	3684.13
426.756	3723.04
426.964	3653.41
427.171	3882.78
427.379	4081.43
427.586	3878.68
427.794	4146.97
428.001	4378.39
428.209	4603.66
428.417	4599.57
428.624	4861.71
428.832	4896.52
429.039	4679.44
429.247	4865.8
429.454	5179.14
429.662	5553.92
429.869	5297.92
430.076	5574.4
430.284	5459.71
430.491	5736.19
430.699	6170.36
430.906	6000.38
431.114	6141.69
431.321	6412.02
431.528	6633.2
431.736	6844.14
431.943	7227.11
432.15	6924.01
432.358	6977.26
432.565	7474.92
432.772	7438.05
432.979	7993.05
433.187	8068.83
433.394	8052.44
433.601	8552.15
433.808	8517.33
434.016	8521.43
434.223	8912.59
434.43	9492.16
434.637	9320.14
434.844	9875.13
435.052	9983.68
435.259	10077.88
435.466	10172.09
435.673	9905.85
435.88	10655.41
436.087	11148.97
436.294	11126.44
436.501	11005.61
436.708	11001.52
436.915	11484.84
437.122	11929.25
437.329	11900.58
437.537	12373.66
437.743	12529.3
437.95	12682.9
438.157	13248.14
438.364	13653.64
438.571	13420.17
438.778	13522.57
438.985	14800.5
439.192	14278.27
439.399	14726.77
439.606	14390.91
439.813	15050.35
440.02	16025.18
440.227	16023.14
440.433	15873.64
440.64	16475.74
440.847	16088.67
441.054	16580.18
441.261	17790.53
441.467	17315.41
441.674	17815.11
441.881	18454.08
442.088	18447.93
442.294	18064.96
442.501	18652.73
442.708	18996.79
442.914	19852.84
443.121	20618.78
443.328	20065.83
443.534	21726.73
443.741	21048.85
443.948	20747.8
444.154	22265.35
444.361	21982.73
444.568	22408.7
444.774	21962.25
444.981	22390.27
445.187	23168.5
445.394	24270.31
445.6	23682.54
445.807	26435.01
446.013	24972.76
446.22	25574.86
446.426	26289.6
446.633	26756.54
446.839	27487.67
447.046	26488.26
447.252	27868.59
447.459	28059.05
447.665	28061.1
447.871	29150.62
448.078	30471.56
448.284	28929.44
448.491	29388.18
448.697	31020.41
448.903	31411.57
449.11	31378.81
449.316	30670.21
449.522	31890.8
449.728	32683.36
449.935	32480.61
450.141	32394.6
450.347	33121.63
450.553	32361.83
450.76	32650.6
450.966	33770.83
451.172	33170.78
451.378	34143.56
451.584	33398.1
451.791	34307.4
451.997	34164.04
452.203	35044.67
452.409	35034.43
452.615	34596.17
452.821	33000.8
453.027	32914.78
453.233	34794.82
453.44	33295.71
453.646	33711.44
453.852	33805.65
454.058	34426.18
454.264	33404.25
454.47	34395.46
454.676	33211.74
454.882	34424.14
455.088	31401.33
455.294	31870.32
455.5	32679.27
455.705	32752.99
455.911	31749.49
456.117	30862.72
456.323	30248.33
456.529	29095.32
456.735	30213.51
456.941	29167
457.147	28824.99
457.352	28161.45
457.558	27528.63
457.764	27624.88
457.97	27397.56
458.176	26660.29
458.381	26521.02
458.587	25144.79
458.793	24970.71
458.999	23838.19
459.204	25869.77
459.41	24800.73
459.616	23416.3
459.821	23406.06
460.027	23244.27
460.233	22459.9
460.438	21597.71
460.644	21833.22
460.85	20852.25
461.055	20586.01
461.261	20583.96
461.466	19080.75
461.672	18396.73
461.878	19766.82
462.083	18169.41
462.289	18173.5
462.494	17905.22
462.7	17167.95
462.905	16719.45
463.111	17206.86
463.316	17217.1
463.522	17000.02
463.727	17049.17
463.932	16987.73
464.138	16739.93
464.343	16739.93
464.549	16326.24
464.754	16690.77
464.959	16658.01
465.165	16754.26
465.37	15914.59
465.575	15709.8
465.781	15953.51
465.986	16240.22
466.191	15543.91
466.397	15378.03
466.602	14513.78
466.807	15312.49
467.012	14913.14
467.218	15062.64
467.423	14861.94
467.628	14896.75
467.833	15556.2
468.038	14818.93
468.244	14487.16
468.449	15099.5
468.654	14669.43
468.859	14583.41
469.064	14374.52
469.269	13960.83
469.474	14071.42
469.679	14327.42
469.885	13835.91
470.09	14016.13
470.295	13926.02
470.5	13624.97
470.705	13870.72
470.91	13424.26
471.115	13385.35
471.32	13500.04
471.525	13532.81
471.73	13078.16
471.935	12877.46
472.139	12656.28
472.344	12748.43
472.549	12629.65
472.754	12431
472.959	12242.59
473.164	12000.93
473.369	11779.75
473.574	12480.15
473.778	12207.77
473.983	11857.57
474.188	11617.96
474.393	11560.61
474.598	11591.33
474.802	11364.01
475.007	11280.04
475.212	11189.93
475.417	10882.74
475.621	10716.85
475.826	10847.92
476.031	10835.63
476.235	10448.57
476.44	10849.97
476.645	10448.57
476.849	10702.51
477.054	10227.39
477.259	10182.33
477.463	10133.18
477.668	9914.05
477.872	10000.06
478.077	10008.25
478.282	9436.87
478.486	9584.32
478.691	9617.09
478.895	9692.87
479.1	9512.64
479.304	9475.78
479.509	9336.52
479.713	9381.57
479.918	9154.25
480.122	9160.39
480.326	9258.7
480.531	9162.44
480.735	8986.32
480.94	8857.29
481.144	9209.54
481.348	8769.23
481.553	9074.38
481.757	8879.82
481.961	8967.88
482.166	8994.51
482.37	8787.66
482.574	8748.75
482.778	8707.79
482.983	9035.47
483.187	8724.18
483.391	8883.92
483.595	8670.93
483.8	8613.59
484.004	8742.61
484.208	8765.14
484.412	8740.56
484.616	8771.28
484.821	8730.32
485.025	8601.3
485.229	8806.09
485.433	8675.02
485.637	8765.14
485.841	8691.41
486.045	8672.98
486.249	8695.5
486.453	8666.83
486.657	8752.85
486.861	8898.25
487.065	8464.08
487.269	8769.23
487.473	8629.97
487.677	8799.95
487.881	8826.57
488.085	8748.75
488.289	8705.74
488.493	8791.76
488.697	8967.88
488.901	8619.73
489.105	8763.09
489.309	8750.8
489.512	8732.37
489.716	8990.41
489.92	8826.57
490.124	8806.09
490.328	9055.95
490.531	8672.98
490.735	8971.98
490.939	8974.03
491.143	8896.21
491.346	8883.92
491.55	9070.28
491.754	9033.42
491.958	9072.33
492.161	9092.81
492.365	9322.18
492.569	9078.47
492.772	9307.85
492.976	9230.02
493.18	9344.71
493.383	9305.8
493.587	9481.92
493.79	9453.25
493.994	9387.72
494.197	9500.36
494.401	9713.35
494.605	9733.82
494.808	9914.05
495.012	9799.36
495.215	9766.59
495.419	10045.12
495.622	9932.48
495.825	10198.71
496.029	10124.99
496.232	10462.9
496.436	10249.91
496.639	10610.36
496.843	10337.98
497.046	10770.1
497.249	10706.61
497.453	10864.3
497.656	10755.76
497.859	10946.22
498.063	11273.9
498.266	11062.96
498.469	11105.96
498.673	11277.99
498.876	11574.95
499.079	11808.42
499.282	11642.53
499.485	11976.35
499.689	11982.49
499.892	12156.57
500.095	12242.59
500.298	12402.33
500.501	12218.01
500.705	12654.23
500.908	12822.16
501.111	12748.43
501.314	13088.4
501.517	13225.61
501.72	13229.71
501.923	13418.12
502.126	13608.58
502.329	13579.91
502.532	13700.74
502.735	14050.94
502.938	14233.21
503.141	14083.71
503.344	14296.7
503.547	14640.76
503.75	14564.98
503.953	14974.58
504.156	14929.52
504.359	15146.61
504.562	15130.22
504.765	15591.02
504.968	15754.85
505.17	15930.98
505.373	16197.21
505.576	16100.96
505.779	16436.83
505.982	16375.39
506.185	16873.04
506.387	17006.16
506.59	16963.15
506.793	17262.16
506.996	17096.27
507.198	17958.47
507.401	17747.53
507.604	17753.67
507.807	18271.81
508.009	18183.74
508.212	18435.64
508.415	18861.62
508.617	18671.16
508.82	18748.98
509.022	18947.64
509.225	19660.33
509.428	19453.48
509.63	19645.99
509.833	19768.87
510.035	20336.16
510.238	20213.28
510.44	20354.59
510.643	20575.77
510.845	20573.72
511.048	20469.28
511.25	21102.1
511.453	21292.56
511.655	21986.82
511.858	21745.16
512.06	21825.03
512.262	21956.1
512.465	22001.16
512.667	22535.68
512.87	22691.32
513.072	22740.47
513.274	23117.3
513.477	23221.75
513.679	23377.39
513.881	23784.94
514.084	23920.1
514.286	23971.3
514.488	24143.33
514.69	24579.55
514.893	24751.58
515.095	24462.82
515.297	25011.67
515.499	25132.5
515.701	25566.67
515.904	25548.24
516.106	26011.08
516.308	25978.31
516.51	26248.64
516.712	26645.95
516.914	26611.14
517.116	26971.58
517.318	26856.89
517.52	27223.48
517.722	27264.44
517.925	27684.27
518.127	28020.14
518.329	27706.8
518.531	27868.59
518.733	28460.45
518.935	28616.1
519.136	28691.87
519.338	29238.68
519.54	29160.86
519.742	29830.54
519.944	29406.61
520.146	30229.9
520.348	29957.52
520.55	29830.54
520.752	30051.72
520.954	30795.14
521.155	30782.85
521.357	31051.13
521.559	31616.37
521.761	31763.82
521.963	31686
522.164	31614.32
522.366	32109.93
522.568	32183.66
522.77	32253.29
522.971	32937.31
523.173	32605.54
523.375	32609.64
523.576	32855.39
523.778	32709.99
523.98	33197.4
524.181	33176.92
524.383	33414.49
524.584	34118.99
524.786	33713.49
524.988	33901.9
525.189	34317.64
525.391	34448.71
525.592	34260.3
525.794	34624.84
525.995	34778.43
526.197	34417.99
526.398	34944.32
526.6	35044.67
526.801	34932.03
527.003	35044.67
527.204	35138.88
527.406	35351.87
527.607	35431.74
527.808	35659.06
528.01	35097.92
528.211	35386.68
528.412	36379.95
528.614	35685.68
528.815	36058.42
529.016	35870
529.218	35933.49
529.419	36257.07
529.62	36332.84
529.822	35933.49
530.023	36007.22
530.224	36156.72
530.425	36134.19
530.626	35870
530.828	36033.84
531.029	37059.87
531.23	36201.77
531.431	36328.75
531.632	36801.83
531.833	36738.34
532.035	36664.61
532.236	36914.47
532.437	36713.77
532.638	36781.35
532.839	36820.26
533.04	37264.67
533.241	36191.53
533.442	37207.33
533.643	37027.1
533.844	37186.85
534.045	36824.36
534.246	36633.89
534.447	36967.71
534.648	36619.56
534.849	36719.91
535.05	36746.53
535.251	36603.17
535.451	36535.59
535.652	37192.99
535.853	36959.52
536.054	36982.05
536.255	36990.24
536.456	36367.66
536.657	37346.59
536.857	36691.24
537.058	36697.38
537.259	37174.56
537.46	36728.1
537.66	36701.48
537.861	36805.92
538.062	36660.52
538.263	36681
538.463	36601.13
538.664	37059.87
538.865	37063.97
539.065	37141.79
539.266	36558.12
539.466	37117.21
539.667	36345.13
539.868	37166.37
540.068	36771.11
540.269	36445.48
540.469	36793.64
540.67	36980
540.87	36859.17
541.071	36576.55
541.271	36924.71
541.472	36697.38
541.672	36582.7
541.873	36506.92
542.073	36019.5
542.274	36846.88
542.474	36568.36
542.675	36322.6
542.875	36859.17
543.075	36621.61
543.276	35910.96
543.476	36455.72
543.676	36232.49
543.877	36672.81
544.077	36318.51
544.277	36472.1
544.478	36646.18
544.678	36861.22
544.878	36252.97
545.078	36746.53
545.279	36119.85
545.479	36681
545.679	36578.6
545.879	36111.66
546.079	36416.81
546.28	36572.46
546.48	35812.66
546.68	36588.84
546.88	36644.13
547.08	36400.43
547.28	35890.48
547.48	35876.15
547.68	35982.64
547.88	36009.26
548.081	36498.73
548.281	36164.91
548.481	35980.59
548.681	36662.57
548.881	36285.74
549.081	36003.12
549.28	36193.58
549.48	36181.29
549.68	35700.02
549.88	36676.9
550.08	36029.74
550.28	36306.22
550.48	36312.36
550.68	36404.52
550.88	35857.71
551.08	36056.37
551.279	35872.05
551.479	35652.92
551.679	35921.2
551.879	35978.54
552.079	36162.86
552.278	36072.75
552.478	35820.85
552.678	36257.07
552.878	36279.6
553.077	35968.3
553.277	35990.83
553.477	36326.7
553.676	35902.77
553.876	35796.28
554.076	35771.7
554.275	36089.13
554.475	35351.87
554.674	35573.05
554.874	36027.7
555.074	35749.17
555.273	35837.23
555.473	35870
555.672	35882.29
555.872	35689.78
556.071	35872.05
556.271	35845.43
556.47	35611.96
556.67	35194.17
556.869	35513.66
557.068	35581.24
557.268	35157.31
557.467	35503.42
557.667	35218.75
557.866	35147.07
558.065	35411.26
558.265	35140.93
558.464	35046.72
558.663	35493.18
558.863	35222.84
559.062	35376.44
559.261	34860.35
559.461	35368.25
559.66	34694.47
559.859	35036.48
560.058	34995.52
560.258	34880.83
560.457	34553.16
560.656	34825.54
560.855	34456.9
561.054	34776.39
561.253	34626.88
561.453	34975.04
561.652	35118.4
561.851	34749.76
562.05	34305.35
562.249	34434.38
562.448	34796.87
562.647	34538.82
562.846	34299.21
563.045	34219.34
563.244	34422.09
563.443	34696.52
563.642	33926.48
563.841	34469.19
564.04	33785.17
564.239	34211.15
564.438	33623.38
564.637	34069.84
564.836	33897.81
565.035	33801.55
565.234	34022.73
565.432	33785.17
565.631	33826.13
565.83	33801.55
566.029	33482.07
566.228	33574.23
566.427	33721.68
566.625	33768.79
566.824	33326.42
567.023	33557.85
567.222	33023.33
567.42	33607
567.619	33273.18
567.818	33015.13
568.016	33588.56
568.215	33355.1
568.414	33021.28
568.612	33086.81
568.811	33066.33
569.01	33041.76
569.208	32628.07
569.407	33015.13
569.605	32718.18
569.804	33117.53
570.002	32599.4
570.201	32648.55
570.4	32140.65
570.598	32752.99
570.797	32378.22
570.995	32419.17
571.193	31968.62
571.392	32472.42
571.59	31997.29
571.789	32021.87
571.987	31784.3
572.186	31974.77
572.384	31903.09
572.582	31876.46
572.781	32146.79
572.979	31835.5
573.177	31948.14
573.376	31950.19
573.574	31696.24
573.772	32025.96
573.971	31057.28
574.169	31309.18
574.367	31149.43
574.565	31569.27
574.763	31303.03
574.962	31204.73
575.16	30854.53
575.358	31225.21
575.556	30799.23
575.754	31237.5
575.952	30475.65
576.151	31178.11
576.349	30850.43
576.547	30641.54
576.745	30705.02
576.943	30481.8
577.141	30453.12
577.339	30555.52
577.537	30311.81
577.735	30737.79
577.933	29885.84
578.131	30526.85
578.329	30231.94
578.527	29877.65
578.725	30096.78
578.923	30002.57
579.121	29916.56
579.319	29564.31
579.516	30045.58
579.714	29793.68
579.912	29705.62
580.11	29480.34
580.308	29486.48
580.506	29509.01
580.704	29062.55
580.901	29314.45
581.099	29177.24
581.297	29214.1
581.495	29306.26
581.692	29324.69
581.89	28650.91
582.088	29539.73
582.285	28646.82
582.483	29105.56
582.681	28614.05
582.878	28720.54
583.076	28503.46
583.274	28683.68
583.471	28339.62
583.669	28476.83
583.866	28661.15
584.064	28534.18
584.262	27987.37
584.459	28296.61
584.657	27975.08
584.854	28431.78
585.052	27915.69
585.249	27919.79
585.447	28249.51
585.644	27778.48
585.841	28069.29
586.039	28067.24
586.236	27295.16
586.434	27665.84
586.631	27420.08
586.828	27565.49
587.026	27297.2
587.223	27215.29
587.42	26748.35
587.618	27446.71
587.815	26738.11
588.012	26676.67
588.21	27166.13
588.407	26947
588.604	27094.46
588.801	26789.31
588.999	26629.57
589.196	26543.55
589.393	26494.4
589.59	26623.42
589.787	26297.8
589.984	25943.5
590.182	26174.92
590.379	26441.15
590.576	26156.49
590.773	26244.55
590.97	25818.57
591.167	26045.9
591.364	25540.05
591.561	25890.25
591.758	25378.26
591.955	25556.43
592.152	26047.94
592.349	25308.63
592.546	25542.1
592.743	25677.26
592.94	25079.25
593.137	25152.98
593.334	25652.69
593.531	25038.3
593.727	25044.44
593.924	25048.54
594.121	24595.93
594.318	25191.89
594.515	24421.86
594.712	24888.79
594.908	24544.73
595.105	24620.51
595.302	24550.88
595.499	24391.14
595.696	24188.39
595.892	24264.16
596.089	24335.84
596.286	24141.28
596.482	24059.37
596.679	24112.61
596.876	24079.85
597.072	23741.93
597.269	24102.37
597.466	23459.31
597.662	23723.5
597.859	23817.71
598.055	23385.58
598.252	23764.46
598.448	23494.13
598.645	23268.85
598.841	23186.93
599.038	23195.12
599.234	22908.41
599.431	22953.46
599.627	23006.71
599.824	23266.8
600.02	22793.72
600.217	22965.75
600.413	22498.81
600.609	22517.25
600.806	22674.94
601.002	22554.11
601.198	22306.3
601.395	22390.27
601.591	22482.43
601.787	22294.02
601.984	22056.45
602.18	22201.86
602.376	22115.84
602.572	21958.15
602.769	21988.87
602.965	21640.72
603.161	21804.55
603.357	21761.55
603.553	21755.4
603.75	21523.98
603.946	21487.12
604.142	21839.37
604.338	21231.12
604.534	21603.85
604.73	21310.99
604.926	21208.59
605.122	21208.59
605.318	21073.43
605.514	21098
605.71	21175.83
605.906	20934.17
606.102	20977.17
606.298	20956.69
606.494	20633.11
606.69	20842.01
606.886	20874.77
607.082	20702.75
607.278	20631.07
607.474	20516.38
607.67	20766.23
607.866	20397.6
608.062	20520.48
608.257	20411.93
608.453	20592.16
608.649	20477.47
608.845	19887.65
609.041	20436.51
609.236	20307.49
609.432	20213.28
609.628	19764.78
609.824	20432.41
610.019	19901.99
610.215	20020.77
610.411	20518.43
610.606	19668.52
610.802	20225.57
610.998	20014.63
611.193	19760.68
611.389	19899.94
611.584	19668.52
611.78	19674.67
611.976	19885.61
612.171	19815.97
612.367	19793.45
612.562	19465.77
612.758	19457.58
612.953	19349.04
613.149	19598.89
613.344	19535.4
613.539	19713.58
613.735	19461.68
613.93	19508.78
614.126	19252.78
614.321	19564.07
614.517	19201.58
614.712	19396.14
614.907	19269.17
615.103	19306.03
615.298	19136.05
615.493	19457.58
615.688	19062.32
615.884	19424.81
616.079	18964.02
616.274	18861.62
616.47	19117.62
616.665	18701.88
616.86	18859.57
617.055	18902.58
617.25	18859.57
617.445	18835
617.641	18748.98
617.836	18951.73
618.031	18449.98
618.226	18732.6
618.421	18617.91
618.616	18619.96
618.811	18155.07
619.006	18300.48
619.201	17956.42
619.396	18333.25
619.591	17952.32
619.786	17880.64
619.981	18007.62
620.176	18214.46
620.371	17632.84
620.566	17942.08
620.761	17567.31
620.956	17776.2
621.151	17559.11
621.346	17581.64
621.541	17163.86
621.735	17462.86
621.93	17305.17
622.125	17141.33
622.32	16969.3
622.515	16987.73
622.709	16969.3
622.904	16801.36
623.099	16799.32
623.294	16793.17
623.488	16674.39
623.683	16684.63
623.878	16182.88
624.072	16590.42
624.267	16330.33
624.462	16287.32
624.656	16135.78
624.851	16146.01
625.046	16082.53
625.24	15935.07
625.435	15734.37
625.629	15785.57
625.824	15552.1
626.018	15527.53
626.213	15189.61
626.407	15414.89
626.602	15447.66
626.796	15222.38
626.991	15304.3
627.185	14958.19
627.38	14884.47
627.574	14681.72
627.768	14759.54
627.963	14657.14
628.157	14694.01
628.352	14825.08
628.546	14306.94
628.74	14540.41
628.935	14261.88
629.129	14691.96
629.323	14212.73
629.517	14120.57
629.712	14079.61
629.906	14089.85
630.1	14046.85
630.294	13772.42
630.489	13731.46
630.683	13784.71
630.877	13285
631.071	13475.46
631.265	13504.14
631.459	13463.18
631.653	13233.8
631.848	13168.27
632.042	13067.92
632.236	13057.68
632.43	12885.65
632.624	13196.94
632.818	12807.83
633.012	12787.35
633.206	12717.72
633.4	12914.32
633.594	12547.73
633.788	12557.97
633.982	12482.2
634.176	12529.3
634.369	12459.67
634.563	12531.35
634.757	12250.78
634.951	12353.18
635.145	12447.38
635.339	12054.17
635.533	11904.67
635.726	12119.71
635.92	11761.31
636.114	11685.54
636.308	11859.62
636.501	11771.55
636.695	11574.95
636.889	11593.38
637.083	11542.18
637.276	11499.17
637.47	11638.44
637.664	11443.88
637.857	11249.32
638.051	11441.83
638.244	11351.72
638.438	11036.33
638.632	11153.07
638.825	11046.57
639.019	11058.86
639.212	10919.6
639.406	10823.34
639.599	10933.93
639.793	10753.71
639.986	10684.08
640.18	10815.15
640.373	10530.48
640.567	10510
640.76	10563.25
640.954	10333.88
641.147	10399.41
641.34	10200.76
641.534	10356.41
641.727	10348.22
641.92	10157.75
642.114	10149.56
642.307	10059.45
642.5	10178.23
642.694	9840.32
642.887	9928.38
643.08	9885.37
643.273	9924.29
643.467	9973.44
643.66	9674.43
643.853	9610.95
644.046	9723.58
644.239	9688.77
644.432	9438.92
644.626	9506.5
644.819	9490.12
645.012	9424.58
645.205	9498.31
645.398	9477.83
645.591	9125.58
645.784	9219.78
645.977	9043.66
646.17	9066.19
646.363	9084.62
646.556	8918.73
646.749	8939.21
646.942	9160.39
647.135	8877.77
647.328	9053.9
647.521	8625.87
647.714	8740.56
647.907	8603.35
648.099	8709.84
648.292	8523.48
648.485	8701.65
648.678	8507.09
648.871	8361.69
649.064	8378.07
649.256	8433.36
649.449	8394.45
649.642	8236.76
649.835	8281.81
650.027	8275.67
650.22	8228.57
650.413	8079.07
650.605	8046.3
650.798	8257.24
650.991	8007.39
651.183	8175.32
651.376	8060.63
651.568	7974.62
651.761	7626.46
651.954	7778.01
652.146	7689.95
652.339	7708.38
652.531	7696.1
652.724	7669.47
652.916	7567.07
653.109	7546.59
653.301	7519.97
653.494	7608.03
653.686	7378.66
653.879	7360.23
654.071	7489.25
654.263	7384.8
654.456	7237.35
654.648	7268.07
654.84	7233.25
655.033	7311.08
655.225	7233.25
655.417	7141.1
655.61	6991.59
655.802	7083.75
655.994	7005.93
656.186	7182.06
656.379	6891.24
656.571	6901.48
656.763	6860.52
656.955	6876.91
657.148	6737.65
657.34	6737.65
657.532	6770.41
657.724	6940.4
657.916	6840.04
658.108	6622.96
658.3	6563.57
658.492	6620.91
658.684	6491.89
658.876	6465.27
659.068	6586.1
659.26	6600.43
659.452	6508.27
659.644	6442.74
659.836	6237.94
660.028	6285.05
660.22	6147.83
660.412	6174.46
660.604	5977.85
660.796	6141.69
660.988	6184.69
661.18	6133.5
661.372	6070.01
661.563	6188.79
661.755	6053.62
661.947	6037.24
662.139	5865.21
662.331	5846.78
662.522	5803.77
662.714	5861.12
662.906	5781.25
663.097	5881.6
663.289	5670.65
663.481	5664.51
663.673	5717.76
663.864	5652.22
664.056	5799.68
664.247	5699.33
664.439	5807.87
664.631	5738.24
664.822	5588.74
665.014	5611.26
665.205	5506.82
665.397	5555.97
665.588	5515.01
665.78	5418.75
665.971	5408.51
666.163	5433.09
666.354	5244.68
666.546	5422.85
666.737	5185.29
666.929	5101.32
667.12	5127.94
667.311	5193.48
667.503	5191.43
667.694	5070.6
667.885	5070.6
668.077	5187.33
668.268	5062.41
668.459	5213.96
668.651	5015.3
668.842	5021.45
669.033	5119.75
669.224	5097.22
669.416	4962.06
669.607	4919.05
669.798	5013.26
669.989	4980.49
670.18	4777.74
670.371	4816.65
670.563	4679.44
670.754	4912.91
670.945	4697.87
671.136	4882.19
671.327	4691.73
671.518	4710.16
671.709	4720.4
671.9	4759.31
672.091	4562.7
672.282	4605.71
672.473	4679.44
672.664	4646.67
672.855	4484.88
673.046	4540.18
673.237	4677.39
673.428	4636.43
673.619	4390.67
673.809	4560.66
674	4443.92
674.191	4470.55
674.382	4421.39
674.573	4513.55
674.764	4355.86
674.954	4515.6
675.145	4278.04
675.336	4474.64
675.527	4265.75
675.717	4263.7
675.908	4306.71
676.099	4425.49
676.289	4308.76
676.48	4257.56
676.671	4253.46
676.861	4337.43
677.052	4140.82
677.243	4206.36
677.433	4161.3
677.624	4319
677.814	4261.65
678.005	4175.64
678.195	4204.31
678.386	4187.93
678.576	4220.69
678.767	4026.14
678.957	4112.15
679.148	4130.58
679.338	4286.23
679.529	4110.1
679.719	4022.04
679.909	4044.57
680.1	4192.02
680.29	4009.75
680.481	3952.41
680.671	3936.03
680.861	3962.65
681.052	4022.04
681.242	3993.37
681.432	3989.27
681.622	3913.5
681.813	3911.45
682.003	3847.96
682.193	3786.52
682.383	3946.27
682.573	3784.48
682.764	3970.84
682.954	4046.62
683.144	3841.82
683.334	3923.74
683.524	3733.28
683.714	3888.92
683.904	3508
684.094	3804.96
684.284	3739.42
684.474	3800.86
684.664	3610.4
684.854	3766.04
685.044	3798.81
685.234	3626.78
685.424	3575.58
685.614	3708.7
685.804	3555.1
685.994	3667.74
686.184	3602.21
686.374	3690.27
686.564	3508
686.753	3577.63
686.943	3600.16
687.133	3522.34
687.323	3387.17
687.513	3462.94
687.702	3516.19
687.892	3454.75
688.082	3370.79
688.272	3448.61
688.461	3372.83
688.651	3436.32
688.841	3542.82
689.03	3370.79
689.22	3264.29
689.41	3329.83
689.599	3346.21
689.789	3311.39
689.979	3196.71
690.168	3389.22
690.358	3266.34
690.547	3325.73
690.737	3143.46
690.926	3264.29
691.116	3252
691.305	3223.33
691.495	3139.37
691.684	3106.6
691.874	3116.84
692.063	3239.72
692.252	3092.26
692.442	3145.51
692.631	2893.61
692.82	3008.3
693.01	2963.24
693.199	2944.81
693.388	2989.86
693.578	2885.42
693.767	2934.57
693.956	2930.47
694.146	2936.62
694.335	2758.44
694.524	2860.84
694.713	2893.61
694.902	2912.04
695.092	2828.07
695.281	2807.59
695.47	2862.89
695.659	2840.36
695.848	2754.35
696.037	2582.32
696.226	2721.58
696.415	2744.11
696.604	2791.21
696.793	2754.35
696.982	2748.2
697.171	2633.52
697.36	2717.48
697.549	2639.66
697.738	2686.76
697.927	2486.06
698.116	2651.95
698.305	2615.09
698.494	2524.97
698.683	2598.7
698.872	2584.37
699.061	2686.76
699.25	2582.32
699.438	2518.83
699.627	2543.41
699.816	2635.57
700.005	2596.65
700.193	2436.91
700.382	2658.09
700.571	2488.11
700.76	2516.78
700.948	2496.3
701.137	2504.5
701.326	2492.21
701.514	2608.94
701.703	2572.08
701.892	2451.25
702.08	2449.2
702.269	2514.73
702.457	2359.09
702.646	2387.76
702.834	2381.62
703.023	2451.25
703.212	2475.82
703.4	2332.47
703.589	2391.86
703.777	2357.04
703.965	2406.19
704.154	2320.18
704.342	2410.29
704.531	2447.15
704.719	2404.14
704.907	2357.04
705.096	2307.89
705.284	2279.22
705.472	2234.16
705.661	2254.64
705.849	2379.57
706.037	2223.92
706.226	2389.81
706.414	2383.66
706.602	2254.64
706.79	2309.94
706.979	2219.83
707.167	2277.17
707.355	2215.73
707.543	2352.95
707.731	2426.67
707.919	2230.07
708.107	2287.41
708.296	2185.01
708.484	2221.88
708.672	2293.55
708.86	2314.03
709.048	2242.36
709.236	2238.26
709.424	2262.83
709.612	2174.77
709.8	2209.59
709.988	2295.6
710.176	2107.19
710.364	2289.46
710.551	2326.32
710.739	2264.88
710.927	2244.4
711.115	2137.91
711.303	2242.36
711.491	2232.12
711.679	2232.12
711.866	2264.88
712.054	2113.33
712.242	2180.92
712.43	2271.03
712.617	2125.62
712.805	2131.76
712.993	2152.24
713.181	2072.37
713.368	2170.68
713.556	2142
713.744	2205.49
713.931	2326.32
714.119	2185.01
714.306	2283.31
714.494	2201.4
714.682	2287.41
714.869	2144.05
715.057	2205.49
715.244	2099
715.432	2131.76
715.619	2240.31
715.807	2172.72
715.994	2223.92
716.182	2187.06
716.369	2223.92
716.556	2256.69
716.744	2131.76
716.931	2164.53
717.119	2187.06
717.306	2207.54
717.493	2185.01
717.681	2123.57
717.868	2092.85
718.055	2133.81
718.242	2244.4
718.43	2154.29
718.617	2197.3
718.804	2166.58
718.991	2129.72
719.179	2174.77
719.366	2109.24
719.553	2127.67
719.74	2123.57
719.927	2148.15
720.114	2062.13
720.301	2125.62
720.488	2160.44
720.676	2086.71
720.863	2213.68
721.05	2107.19
721.237	2144.05
721.424	2094.9
721.611	2205.49
721.798	2078.52
721.985	2101.05
722.172	2088.76
722.358	2221.88
722.545	2256.69
722.732	2146.1
722.919	2240.31
723.106	2172.72
723.293	2291.51
723.48	2209.59
723.667	2178.87
723.853	2203.44
724.04	2262.83
724.227	2228.02
724.414	2275.12
724.6	2174.77
724.787	2107.19
724.974	2133.81
725.161	2230.07
725.347	2178.87
725.534	2199.35
725.72	2219.83
725.907	2221.88
726.094	2180.92
726.28	2252.59
726.467	2166.58
726.653	2185.01
726.84	2170.68
727.027	2238.26
727.213	2103.09
727.4	2195.25
727.586	2117.43
727.773	2250.55
727.959	2176.82
728.145	2318.13
728.332	2250.55
728.518	2242.36
728.705	2168.63
728.891	2135.86
729.077	2137.91
729.264	2246.45
729.45	2156.34
729.636	2279.22
729.823	2217.78
730.009	2127.67
730.195	2238.26
730.382	2289.46
730.568	2193.2
730.754	2166.58
730.94	2131.76
731.126	2205.49
731.313	2166.58
731.499	2297.65
731.685	2232.12
731.871	2230.07
732.057	2285.36
732.243	2207.54
732.429	2271.03
732.615	2238.26
732.801	2258.74
732.987	2303.79
733.173	2225.97
733.359	2273.07
733.545	2260.79
733.731	2316.08
733.917	2350.9
734.103	2236.21
734.289	2197.3
734.475	2170.68
734.661	2127.67
734.847	2221.88
735.033	2213.68
735.219	2256.69
735.404	2287.41
735.59	2187.06
735.776	2162.48
735.962	2252.59
736.148	2363.19
736.333	2236.21
736.519	2264.88
736.705	2201.4
736.89	2363.19
737.076	2346.8
737.262	2271.03
737.447	2232.12
737.633	2281.27
737.819	2230.07
738.004	2256.69
738.19	2256.69
738.375	2293.55
738.561	2264.88
738.747	2303.79
738.932	2291.51
739.118	2271.03
739.303	2367.28
739.489	2330.42
739.674	2123.57
739.859	2101.05
740.045	2197.3
740.23	2238.26
740.416	2176.82
740.601	2322.23
740.786	2256.69
740.972	2099
741.157	2182.96
741.342	2066.23
741.528	2096.95
741.713	2119.48
741.898	2193.2
742.084	2170.68
742.269	2113.33
742.454	2129.72
742.639	2162.48
742.824	2252.59
743.01	2314.03
743.195	2109.24
743.38	2107.19
743.565	2197.3
743.75	2193.2
743.935	2039.61
744.12	2223.92
744.305	2088.76
744.49	2074.42
744.675	1955.64
744.86	2119.48
745.045	2090.81
745.23	2105.14
745.415	1910.58
745.6	1945.4
745.785	2041.65
745.97	2123.57
746.155	1910.58
746.34	1988.41
746.525	2105.14
746.71	2076.47
746.895	1957.69
747.079	2019.13
747.264	1951.54
747.449	2070.33
747.634	2064.18
747.819	1945.4
748.003	2031.41
748.188	1947.45
748.373	1963.83
748.557	1886.01
748.742	1818.43
748.927	1804.09
749.111	1922.87
749.296	1840.95
749.481	1894.2
749.665	1808.19
749.85	1732.41
750.034	1910.58
750.219	1857.34
750.404	1810.23
750.588	1773.37
750.773	1777.47
750.957	1716.03
751.141	1795.9
751.326	1857.34
751.51	1685.31
751.695	1740.6
751.879	1617.72
752.064	1740.6
752.248	1703.74
752.432	1705.79
752.617	1697.6
752.801	1681.21
752.985	1544
753.17	1648.44
753.354	1660.73
753.538	1578.81
753.722	1558.33
753.907	1584.96
754.091	1613.63
754.275	1572.67
754.459	1636.16
754.643	1576.77
754.828	1505.09
755.012	1587.01
755.196	1478.46
755.38	1519.42
755.564	1480.51
755.748	1421.12
755.932	1439.55
756.116	1490.75
756.3	1494.85
756.484	1378.11
756.668	1525.57
756.852	1435.46
757.036	1394.5
757.22	1464.13
757.404	1328.96
757.588	1324.87
757.772	1390.4
757.956	1425.22
758.14	1371.97
758.323	1361.73
758.507	1374.02
758.691	1357.63
758.875	1351.49
759.059	1343.3
759.242	1320.77
759.426	1361.73
759.61	1320.77
759.794	1345.34
759.977	1285.95
760.161	1386.3
760.345	1351.49
760.528	1367.87
760.712	1212.23
760.895	1236.8
761.079	1077.06
761.263	1300.29
761.446	1247.04
761.63	1251.14
761.813	1275.71
761.997	1197.89
762.18	1093.44
762.364	1185.6
762.547	1199.94
762.731	1242.95
762.914	1122.12
763.098	1175.36
763.281	1122.12
763.464	1216.32
763.648	1222.47
763.831	1191.75
764.015	1050.44
764.198	1177.41
764.381	1179.46
764.564	1075.01
764.748	1173.32
764.931	1099.59
765.114	1144.64
765.297	1062.73
765.481	1089.35
765.664	1052.49
765.847	1083.2
766.03	1050.44
766.213	1025.86
766.397	1038.15
766.58	982.85
766.763	1122.12
766.946	1097.54
767.129	1042.25
767.312	1015.62
767.495	1046.34
767.678	894.79
767.861	1023.81
768.044	1056.58
768.227	915.27
768.41	960.33
768.593	1013.57
768.776	1083.2
768.959	964.42
769.142	1003.33
769.324	986.95
769.507	984.9
769.69	954.18
769.873	968.52
770.056	1011.53
770.239	982.85
770.421	982.85
770.604	1015.62
770.787	980.81
770.97	900.94
771.152	968.52
771.335	976.71
771.518	925.51
771.7	833.35
771.883	941.89
772.066	829.26
772.248	941.89
772.431	997.19
772.613	950.09
772.796	868.17
772.978	884.55
773.161	956.23
773.343	870.22
773.526	823.11
773.708	862.02
773.891	907.08
774.073	845.64
774.256	870.22
774.438	890.7
774.621	907.08
774.803	933.7
774.985	841.54
775.168	741.19
775.35	804.68
775.532	839.5
775.715	827.21
775.897	806.73
776.079	708.43
776.261	812.87
776.444	743.24
776.626	776.01
776.808	786.25
776.99	720.71
777.173	720.71
777.355	796.49
777.537	728.91
777.719	673.61
777.901	595.79
778.083	675.66
778.265	747.34
778.447	704.33
778.629	689.99
778.811	624.46
778.993	599.88
779.175	694.09
779.357	681.8
779.539	698.19
779.721	618.32
779.903	638.8
780.085	698.19
780.267	575.31
780.449	634.7
780.631	661.32
780.812	673.61
780.994	669.52
781.176	724.81
781.358	644.94
781.54	583.5
781.721	616.27
781.903	599.88
782.085	546.64
782.267	579.4
782.448	571.21
782.63	657.23
782.812	546.64
782.993	610.12
783.175	526.16
783.357	569.16
783.538	569.16
783.72	579.4
783.901	538.45
784.083	577.36
784.264	567.12
784.446	503.63
784.627	472.91
784.809	571.21
784.99	538.45
785.172	563.02
785.353	495.44
785.535	563.02
785.716	458.57
785.897	509.77
786.079	499.53
786.26	542.54
786.441	517.97
786.623	440.14
786.804	477.01
786.985	495.44
787.167	452.43
787.348	472.91
787.529	431.95
787.71	468.81
787.891	395.09
788.073	468.81
788.254	427.85
788.435	386.9
788.616	442.19
788.797	393.04
788.978	448.33
789.159	393.04
789.34	536.4
789.522	397.14
789.703	395.09
789.884	405.33
790.065	329.55
790.246	450.38
790.427	331.6
790.607	446.29
790.788	462.67
790.969	327.5
791.15	358.22
791.331	354.13
791.512	370.51
791.693	415.57
791.874	384.85
792.054	352.08
792.235	401.23
792.416	419.66
792.597	395.09
792.778	325.46
792.958	393.04
793.139	386.9
793.32	327.5
793.5	333.65
793.681	380.75
793.862	313.17
794.042	319.31
794.223	333.65
794.404	337.74
794.584	286.54
794.765	370.51
794.945	425.81
795.126	331.6
795.306	356.18
795.487	382.8
795.667	280.4
795.848	384.85
796.028	325.46
796.209	319.31
796.389	313.17
796.57	337.74
796.75	264.02
796.93	352.08
797.111	241.49
797.291	325.46
797.471	370.51
797.652	313.17
797.832	231.25
798.012	200.53
798.192	325.46
798.373	257.87
798.553	280.4
798.733	214.87
798.913	261.97
799.093	235.35
799.274	229.2
799.454	259.92
799.634	278.35
799.814	317.26
799.994	329.55
800.174	280.4
800.354	198.48
800.534	319.31
800.714	329.55
800.894	259.92
801.074	274.26
801.254	319.31
801.434	282.45
801.614	192.34
801.794	261.97
801.974	540.49
802.154	239.44
802.334	178
802.514	257.87
802.693	229.2
802.873	171.86
803.053	233.3
803.233	198.48
803.413	202.58
803.592	161.62
803.772	266.07
803.952	255.83
804.131	182.1
804.311	143.19
804.491	268.11
804.67	184.15
804.85	235.35
805.03	169.81
805.209	218.96
805.389	212.82
805.568	212.82
805.748	184.15
805.928	227.15
806.107	261.97
806.287	137.04
806.466	173.91
806.646	210.77
806.825	247.63
807.004	208.72
807.184	231.25
807.363	202.58
807.543	151.38
807.722	192.34
807.901	251.73
808.081	255.83
808.26	180.05
808.439	227.15
808.619	198.48
808.798	233.3
808.977	204.63
809.156	188.24
809.336	163.67
809.515	333.65
809.694	180.05
809.873	175.95
810.052	221.01
810.231	198.48
810.411	167.76
810.59	157.52
810.769	190.29
810.948	257.87
811.127	171.86
811.306	112.47
811.485	147.28
811.664	153.43
811.843	143.19
812.022	135
812.201	163.67
812.38	165.71
812.559	161.62
812.737	184.15
812.916	114.52
813.095	116.56
813.274	112.47
813.453	182.1
813.632	180.05
813.811	173.91
813.989	173.91
814.168	157.52
814.347	171.86
814.526	149.33
814.704	153.43
814.883	198.48
815.062	159.57
815.24	91.99
815.419	161.62
815.598	108.37
815.776	180.05
815.955	161.62
816.133	139.09
816.312	178
816.49	63.32
816.669	139.09
816.847	147.28
817.026	91.99
817.204	200.53
817.383	137.04
817.561	210.77
817.74	120.66
817.918	180.05
818.097	102.23
818.275	161.62
818.453	96.08
818.632	186.19
818.81	151.38
818.988	157.52
819.167	173.91
819.345	89.94
819.523	112.47
819.701	124.76
819.879	145.24
820.058	91.99
820.236	182.1
820.414	159.57
820.592	118.61
820.77	108.37
820.948	159.57
821.127	116.56
821.305	141.14
821.483	73.56
821.661	210.77
821.839	77.65
822.017	100.18
822.195	124.76
822.373	130.9
822.551	108.37
822.729	161.62
822.907	139.09
823.085	157.52
823.262	114.52
823.44	124.76
823.618	141.14
823.796	73.56
823.974	149.33
824.152	139.09
824.329	81.75
824.507	135
824.685	124.76
824.863	100.18
825.04	96.08
825.218	122.71
825.396	167.76
825.574	175.95
825.751	157.52
825.929	128.85
826.107	87.89
826.284	157.52
826.462	42.84
826.639	89.94
826.817	169.81
826.994	130.9
827.172	59.22
827.349	155.47
827.527	159.57
827.704	42.84
827.882	108.37
828.059	69.46
828.237	65.36
828.414	128.85
828.591	153.43
828.769	26.45
828.946	40.79
829.124	116.56
829.301	159.57
829.478	55.12
829.655	81.75
829.833	51.03
830.01	104.28
830.187	83.8
830.364	83.8
830.542	26.45
830.719	112.47
830.896	98.13
831.073	65.36
831.25	91.99
831.427	46.93
831.604	106.32
831.782	67.41
831.959	61.27
832.136	75.6
832.313	61.27
832.49	116.56
832.667	79.7
832.844	1.88
833.021	98.13
833.198	40.79
833.374	59.22
833.551	57.17
833.728	112.47
833.905	24.4
834.082	106.32
834.259	83.8
834.436	87.89
834.612	26.45
834.789	96.08
834.966	59.22
835.143	120.66
835.319	48.98
835.496	-4.27
835.673	24.4
835.85	83.8
836.026	38.74
836.203	46.93
836.38	91.99
836.556	112.47
836.733	83.8
836.909	143.19
837.086	-39.08
837.262	53.08
837.439	59.22
837.616	75.6
837.792	57.17
837.968	48.98
838.145	24.4
838.321	63.32
838.498	61.27
838.674	75.6
838.851	51.03
839.027	53.08
839.203	57.17
839.38	59.22
839.556	79.7
839.732	81.75
839.909	77.65
840.085	110.42
840.261	12.12
840.437	-6.31
840.614	61.27
840.79	44.88
840.966	106.32
841.142	46.93
841.318	-14.51
841.494	55.12
841.671	28.5
841.847	16.21
842.023	40.79
842.199	79.7
842.375	57.17
842.551	51.03
842.727	65.36
842.903	96.08
843.079	44.88
843.255	75.6
843.431	104.28
843.607	59.22
843.783	-47.27
843.959	40.79
844.134	116.56
844.31	128.85
844.486	48.98
844.662	14.17
844.838	32.6
845.013	20.31
845.189	1.88
845.365	24.4
845.541	77.65
845.716	108.37
845.892	75.6
846.068	12.12
846.244	104.28
846.419	69.46
846.595	104.28
846.77	69.46
846.946	-51.37
847.122	36.69
847.297	-18.6
847.473	120.66
847.648	40.79
847.824	69.46
847.999	65.36
848.175	16.21
848.35	-4.27
848.526	77.65
848.701	71.51
848.876	34.64
849.052	30.55
849.227	42.84
849.403	48.98
849.578	8.02
849.753	63.32
849.929	38.74
850.104	61.27
850.279	46.93
850.454	26.45
850.63	67.41
850.805	51.03
850.98	151.38
851.155	32.6
851.33	20.31
851.505	42.84
851.681	38.74
851.856	-2.22
852.031	59.22
852.206	5.97
852.381	57.17
852.556	-4.27
852.731	20.31
852.906	34.64
853.081	30.55
853.256	24.4
853.431	51.03
853.606	22.36
853.781	10.07
853.956	51.03
854.131	5.97
854.305	28.5
854.48	-14.51
854.655	89.94
854.83	-28.84
855.005	-14.51
855.18	42.84
855.354	14.17
855.529	-10.41
855.704	18.26
855.879	61.27
856.053	-10.41
856.228	42.84
856.403	-6.31
856.577	48.98
856.752	28.5
856.926	61.27
857.101	44.88
857.276	-49.32
857.45	10.07
857.625	75.6
857.799	79.7
857.974	1.88
858.148	57.17
858.323	-6.31
858.497	5.97
858.672	24.4
858.846	1.88
859.02	-18.6
859.195	-22.7
859.369	-6.31
859.543	28.5
859.718	22.36
859.892	-28.84
860.066	53.08
860.241	8.02
860.415	42.84
860.589	-28.84
860.763	12.12
860.938	-16.55
861.112	106.32
861.286	14.17
861.46	16.21
861.634	-39.08
861.808	46.93
861.982	-34.99
862.157	65.36
862.331	16.21
862.505	5.97
862.679	-63.66
862.853	51.03
863.027	77.65
863.201	38.74
863.375	-125.1
863.549	10.07
863.722	44.88
863.896	26.45
864.07	57.17
864.244	12.12
864.418	42.84
864.592	55.12
864.766	22.36
864.939	26.45
865.113	-61.61
865.287	-51.37
865.461	-14.51
865.634	-26.79
865.808	36.69
865.982	-39.08
866.156	-69.8
866.329	-16.55
866.503	30.55
866.676	-32.94
866.85	8.02
867.024	34.64
867.197	12.12
867.371	-57.51
867.544	-8.36
867.718	81.75
867.891	3.93
868.065	34.64
868.238	24.4
868.412	55.12
868.585	-69.8
868.759	-6.31
868.932	36.69
869.105	12.12
869.279	-12.46
869.452	18.26
869.625	59.22
869.799	14.17
869.972	26.45
870.145	53.08
870.319	-10.41
870.492	-8.36
870.665	-16.55
870.838	5.97
871.011	-24.75
871.185	-22.7
871.358	30.55
871.531	26.45
871.704	59.22
871.877	108.37
872.05	-2.22
872.223	-37.03
872.396	-30.89
872.569	10.07
872.742	-14.51
872.915	40.79
873.088	-24.75
873.261	10.07
873.434	61.27
873.607	51.03
873.78	1.88
873.953	12.12
874.126	-18.6
874.299	40.79
874.471	46.93
874.644	22.36
874.817	32.6
874.99	24.4
875.163	-43.18
875.335	85.84
875.508	32.6
875.681	79.7
875.853	51.03
876.026	59.22
876.199	59.22
876.371	73.56
876.544	-20.65
876.717	38.74
876.889	5.97
877.062	5.97
877.234	-51.37
877.407	-6.31
877.579	18.26
877.752	40.79
877.924	-0.17
878.097	55.12
878.269	63.32
878.442	16.21
878.614	8.02
878.786	30.55
878.959	-10.41
879.131	14.17
879.303	-59.56
879.476	14.17
879.648	8.02
879.82	14.17
879.993	-14.51
880.165	87.89
880.337	28.5
880.509	26.45
880.681	-69.8
880.854	40.79
881.026	22.36
881.198	-71.85
881.37	48.98
881.542	-20.65
881.714	-16.55
881.886	63.32
882.058	-26.79
882.23	75.6
882.402	-20.65
882.574	-0.17
882.746	5.97
882.918	8.02
883.09	-34.99
883.262	-6.31
883.434	-8.36
883.606	14.17
883.778	18.26
883.95	-8.36
884.122	3.93
884.293	67.41
884.465	53.08
884.637	-24.75
884.809	-24.75
884.98	73.56
885.152	46.93
885.324	20.31
885.496	-28.84
885.667	-18.6
885.839	-22.7
886.011	53.08
886.182	8.02
886.354	48.98
886.525	83.8
886.697	-6.31
886.869	30.55
887.04	12.12
887.212	-16.55
887.383	89.94
887.555	32.6
887.726	42.84
887.897	-32.94
888.069	28.5
888.24	-6.31
888.412	-51.37
888.583	-10.41
888.754	8.02
888.926	1.88
889.097	-34.99
889.268	-24.75
889.44	-14.51
889.611	-4.27
889.782	-57.51
889.953	30.55
890.125	8.02
890.296	-16.55
890.467	-41.13
890.638	-10.41
890.809	-20.65
890.98	-10.41
891.151	44.88
891.323	-14.51
891.494	81.75
891.665	-24.75
891.836	-26.79
892.007	-75.95
892.178	3.93
892.349	-6.31
892.52	38.74
892.691	26.45
892.862	-32.94
893.032	-88.23
893.203	1.88
893.374	-45.23
893.545	-22.7
893.716	12.12
893.887	-39.08
894.057	-47.27
894.228	1.88
894.399	8.02
894.57	34.64
894.74	-55.47
894.911	-39.08
895.082	65.36
895.253	10.07
895.423	75.6
895.594	-20.65
895.764	-20.65
895.935	32.6
896.106	-55.47
896.276	-63.66
896.447	20.31
896.617	53.08
896.788	-34.99
896.958	-55.47
897.129	1.88
897.299	24.4
897.47	26.45
897.64	-26.79
897.81	51.03
897.981	3.93
898.151	-47.27
898.322	87.89
898.492	3.93
898.662	22.36
898.832	-26.79
899.003	14.17
899.173	-2.22
899.343	40.79
899.513	26.45
