Data from USB4F104151__46__11-45-08-030.txt Node

Date: Fri Mar 14 11:45:08 EDT 2025
User: louis
Spectrometer: USB4F10415
Trigger mode: 4
Integration Time (sec): 2.000000E-2
Scans to average: 1
Electric dark correction enabled: true
Nonlinearity correction enabled: false
Boxcar width: 0
XAxis mode: Wavelengths
Number of Pixels in Spectrum: 3648
>>>>>Begin Spectral Data<<<<<
178.204	-57.86
178.424	-57.86
178.644	-57.86
178.864	-86.53
179.084	-133.63
179.304	13.82
179.524	46.59
179.744	-0.51
179.964	30.21
180.184	-18.94
180.404	-49.66
180.624	5.63
180.844	-70.14
181.064	1.54
181.283	19.97
181.503	19.97
181.723	1.54
181.943	-27.14
182.163	99.84
182.383	17.92
182.602	-12.8
182.822	-16.9
183.042	-0.51
183.262	30.21
183.482	77.31
183.701	116.22
183.921	19.97
184.141	58.88
184.361	46.59
184.58	65.02
184.8	-6.66
185.02	-57.86
185.239	87.55
185.459	26.11
185.679	46.59
185.898	-78.33
186.118	19.97
186.338	87.55
186.557	28.16
186.777	71.17
186.997	32.26
187.216	26.11
187.436	36.35
187.655	65.02
187.875	56.83
188.095	-27.14
188.314	54.78
188.534	-29.18
188.753	38.4
188.973	46.59
189.192	26.11
189.412	48.64
189.631	-10.75
189.851	13.82
190.07	-70.14
190.29	-57.86
190.509	-27.14
190.729	42.5
190.948	-14.85
191.168	105.98
191.387	-6.66
191.607	-4.61
191.826	52.74
192.045	-12.8
192.265	9.73
192.484	13.82
192.704	54.78
192.923	32.26
193.142	44.54
193.362	28.16
193.581	50.69
193.8	58.88
194.02	-25.09
194.239	-14.85
194.458	-20.99
194.678	24.06
194.897	-41.47
195.116	-2.56
195.335	-45.57
195.555	69.12
195.774	36.35
195.993	-33.28
196.212	75.26
196.432	13.82
196.651	-10.75
196.87	1.54
197.089	-0.51
197.308	42.5
197.528	-23.04
197.747	-35.33
197.966	-4.61
198.185	69.12
198.404	19.97
198.623	28.16
198.842	-4.61
199.062	32.26
199.281	69.12
199.5	22.02
199.719	79.36
199.938	7.68
200.157	30.21
200.376	42.5
200.595	-16.9
200.814	-2.56
201.033	48.64
201.252	22.02
201.471	7.68
201.69	38.4
201.909	-45.57
202.128	-43.52
202.347	19.97
202.566	13.82
202.785	17.92
203.004	19.97
203.223	62.98
203.442	-43.52
203.661	36.35
203.879	-0.51
204.098	65.02
204.317	19.97
204.536	26.11
204.755	81.41
204.974	-41.47
205.193	42.5
205.411	48.64
205.63	65.02
205.849	-39.42
206.068	-68.09
206.287	7.68
206.505	15.87
206.724	30.21
206.943	-37.38
207.162	-29.18
207.381	19.97
207.599	40.45
207.818	-14.85
208.037	17.92
208.255	22.02
208.474	-31.23
208.693	15.87
208.911	5.63
209.13	-20.99
209.349	-14.85
209.567	56.83
209.786	58.88
210.005	-35.33
210.223	42.5
210.442	32.26
210.661	116.22
210.879	5.63
211.098	-0.51
211.316	34.3
211.535	32.26
211.753	-4.61
211.972	-12.8
212.191	5.63
212.409	52.74
212.628	-2.56
212.846	3.58
213.065	-31.23
213.283	-10.75
213.502	5.63
213.72	56.83
213.938	9.73
214.157	22.02
214.375	60.93
214.594	-64
214.812	56.83
215.031	15.87
215.249	69.12
215.467	19.97
215.686	-45.57
215.904	40.45
216.122	-43.52
216.341	34.3
216.559	22.02
216.778	85.5
216.996	32.26
217.214	9.73
217.432	-68.09
217.651	-18.94
217.869	42.5
218.087	17.92
218.306	60.93
218.524	40.45
218.742	-25.09
218.96	52.74
219.179	-0.51
219.397	42.5
219.615	-0.51
219.833	48.64
220.051	11.78
220.27	-4.61
220.488	-16.9
220.706	26.11
220.924	17.92
221.142	46.59
221.36	-2.56
221.578	85.5
221.796	24.06
222.015	7.68
222.233	38.4
222.451	36.35
222.669	19.97
222.887	60.93
223.105	-72.19
223.323	69.12
223.541	7.68
223.759	69.12
223.977	-55.81
224.195	52.74
224.413	30.21
224.631	7.68
224.849	38.4
225.067	-39.42
225.285	54.78
225.503	48.64
225.721	-37.38
225.939	-14.85
226.157	69.12
226.375	58.88
226.592	52.74
226.81	-10.75
227.028	-51.71
227.246	151.04
227.464	58.88
227.682	44.54
227.9	11.78
228.117	30.21
228.335	-59.9
228.553	112.13
228.771	36.35
228.989	71.17
229.206	-0.51
229.424	50.69
229.642	11.78
229.86	15.87
230.077	19.97
230.295	-0.51
230.513	54.78
230.731	-27.14
230.948	60.93
231.166	58.88
231.384	24.06
231.601	13.82
231.819	114.17
232.037	-6.66
232.254	-41.47
232.472	56.83
232.689	-37.38
232.907	62.98
233.125	-47.62
233.342	65.02
233.56	38.4
233.777	5.63
233.995	-51.71
234.213	-31.23
234.43	-14.85
234.648	22.02
234.865	9.73
235.083	67.07
235.3	101.89
235.518	54.78
235.735	-14.85
235.953	65.02
236.17	-23.04
236.388	24.06
236.605	22.02
236.822	7.68
237.04	48.64
237.257	-6.66
237.475	46.59
237.692	17.92
237.909	71.17
238.127	-8.7
238.344	-55.81
238.562	3.58
238.779	-10.75
238.996	28.16
239.214	-57.86
239.431	3.58
239.648	30.21
239.865	-6.66
240.083	62.98
240.3	28.16
240.517	62.98
240.735	67.07
240.952	15.87
241.169	-27.14
241.386	24.06
241.603	50.69
241.821	-35.33
242.038	-4.61
242.255	1.54
242.472	-12.8
242.689	15.87
242.907	58.88
243.124	-2.56
243.341	26.11
243.558	19.97
243.775	19.97
243.992	19.97
244.209	7.68
244.426	44.54
244.643	77.31
244.86	-0.51
245.078	-14.85
245.295	77.31
245.512	60.93
245.729	-0.51
245.946	50.69
246.163	5.63
246.38	56.83
246.597	-14.85
246.814	7.68
247.031	40.45
247.248	69.12
247.464	-2.56
247.681	44.54
247.898	11.78
248.115	52.74
248.332	-18.94
248.549	95.74
248.766	67.07
248.983	9.73
249.2	30.21
249.417	3.58
249.633	36.35
249.85	34.3
250.067	-29.18
250.284	19.97
250.501	-33.28
250.717	22.02
250.934	75.26
251.151	13.82
251.368	5.63
251.585	26.11
251.801	9.73
252.018	65.02
252.235	44.54
252.451	46.59
252.668	15.87
252.885	24.06
253.102	1.54
253.318	42.5
253.535	26.11
253.752	-27.14
253.968	52.74
254.185	38.4
254.401	-23.04
254.618	28.16
254.835	65.02
255.051	-29.18
255.268	-8.7
255.484	71.17
255.701	73.21
255.917	42.5
256.134	-49.66
256.351	-8.7
256.567	9.73
256.784	-0.51
257	-33.28
257.217	26.11
257.433	48.64
257.65	42.5
257.866	99.84
258.082	-45.57
258.299	1.54
258.515	42.5
258.732	-8.7
258.948	-51.71
259.165	95.74
259.381	-10.75
259.597	-25.09
259.814	-4.61
260.03	-64
260.246	-20.99
260.463	56.83
260.679	-0.51
260.895	-20.99
261.112	22.02
261.328	5.63
261.544	46.59
261.761	19.97
261.977	-88.57
262.193	-0.51
262.409	50.69
262.626	22.02
262.842	-27.14
263.058	-27.14
263.274	-57.86
263.49	-33.28
263.707	87.55
263.923	91.65
264.139	-37.38
264.355	17.92
264.571	7.68
264.787	-2.56
265.004	69.12
265.22	-0.51
265.436	95.74
265.652	19.97
265.868	54.78
266.084	34.3
266.3	-25.09
266.516	-8.7
266.732	-14.85
266.948	-16.9
267.164	56.83
267.38	-49.66
267.596	1.54
267.812	60.93
268.028	65.02
268.244	97.79
268.46	3.58
268.676	52.74
268.892	19.97
269.108	58.88
269.324	26.11
269.54	-6.66
269.756	-23.04
269.972	-57.86
270.188	87.55
270.403	-35.33
270.619	48.64
270.835	69.12
271.051	46.59
271.267	-8.7
271.483	-4.61
271.698	24.06
271.914	50.69
272.13	-8.7
272.346	19.97
272.562	-29.18
272.777	40.45
272.993	-23.04
273.209	48.64
273.425	7.68
273.64	42.5
273.856	-31.23
274.072	28.16
274.287	-6.66
274.503	-37.38
274.719	-49.66
274.934	19.97
275.15	11.78
275.366	11.78
275.581	58.88
275.797	-6.66
276.012	69.12
276.228	52.74
276.444	24.06
276.659	91.65
276.875	54.78
277.09	-49.66
277.306	-0.51
277.521	34.3
277.737	50.69
277.952	54.78
278.168	22.02
278.383	60.93
278.599	-43.52
278.814	17.92
279.03	7.68
279.245	56.83
279.461	9.73
279.676	77.31
279.892	-45.57
280.107	17.92
280.322	-14.85
280.538	36.35
280.753	54.78
280.969	105.98
281.184	-20.99
281.399	52.74
281.615	36.35
281.83	17.92
282.045	3.58
282.26	-20.99
282.476	-6.66
282.691	108.03
282.906	36.35
283.122	87.55
283.337	34.3
283.552	81.41
283.767	7.68
283.983	19.97
284.198	22.02
284.413	48.64
284.628	26.11
284.843	30.21
285.058	-119.29
285.274	-6.66
285.489	-33.28
285.704	-8.7
285.919	-29.18
286.134	24.06
286.349	50.69
286.564	46.59
286.779	34.3
286.995	5.63
287.21	48.64
287.425	93.69
287.64	62.98
287.855	19.97
288.07	-23.04
288.285	22.02
288.5	71.17
288.715	-18.94
288.93	42.5
289.145	26.11
289.36	32.26
289.575	1.54
289.79	-10.75
290.004	3.58
290.219	1.54
290.434	-4.61
290.649	22.02
290.864	-45.57
291.079	-33.28
291.294	26.11
291.509	65.02
291.724	44.54
291.938	-29.18
292.153	36.35
292.368	1.54
292.583	19.97
292.798	50.69
293.012	50.69
293.227	3.58
293.442	-68.09
293.657	1.54
293.871	56.83
294.086	-12.8
294.301	28.16
294.516	50.69
294.73	19.97
294.945	24.06
295.16	17.92
295.374	32.26
295.589	46.59
295.804	-4.61
296.018	13.82
296.233	44.54
296.447	-29.18
296.662	3.58
296.877	124.41
297.091	-4.61
297.306	36.35
297.52	-31.23
297.735	56.83
297.949	30.21
298.164	46.59
298.378	-6.66
298.593	-4.61
298.807	7.68
299.022	13.82
299.236	9.73
299.451	34.3
299.665	36.35
299.88	-35.33
300.094	7.68
300.309	40.45
300.523	95.74
300.737	-18.94
300.952	38.4
301.166	30.21
301.381	-2.56
301.595	38.4
301.809	67.07
302.024	9.73
302.238	-12.8
302.452	73.21
302.667	-6.66
302.881	3.58
303.095	3.58
303.309	54.78
303.524	13.82
303.738	44.54
303.952	30.21
304.166	108.03
304.381	22.02
304.595	-2.56
304.809	-0.51
305.023	93.69
305.237	-0.51
305.452	13.82
305.666	13.82
305.88	13.82
306.094	93.69
306.308	-25.09
306.522	87.55
306.736	5.63
306.95	-39.42
307.164	19.97
307.379	-29.18
307.593	75.26
307.807	9.73
308.021	48.64
308.235	1.54
308.449	44.54
308.663	-0.51
308.877	148.99
309.091	-2.56
309.305	87.55
309.519	-6.66
309.733	-33.28
309.947	-29.18
310.161	13.82
310.374	15.87
310.588	13.82
310.802	81.41
311.016	28.16
311.23	71.17
311.444	30.21
311.658	-8.7
311.872	114.17
312.085	15.87
312.299	-18.94
312.513	-0.51
312.727	5.63
312.941	-16.9
313.154	-61.95
313.368	-4.61
313.582	91.65
313.796	-27.14
314.009	34.3
314.223	38.4
314.437	50.69
314.651	7.68
314.864	19.97
315.078	101.89
315.292	56.83
315.505	-23.04
315.719	42.5
315.933	1.54
316.146	56.83
316.36	-0.51
316.573	60.93
316.787	-16.9
317.001	-8.7
317.214	50.69
317.428	-20.99
317.641	24.06
317.855	56.83
318.068	36.35
318.282	-29.18
318.495	28.16
318.709	97.79
318.922	-76.29
319.136	75.26
319.349	11.78
319.563	-66.05
319.776	-49.66
319.99	13.82
320.203	17.92
320.417	30.21
320.63	24.06
320.843	91.65
321.057	24.06
321.27	3.58
321.483	75.26
321.697	13.82
321.91	44.54
322.124	22.02
322.337	95.74
322.55	5.63
322.763	77.31
322.977	26.11
323.19	-27.14
323.403	38.4
323.617	69.12
323.83	40.45
324.043	-23.04
324.256	-4.61
324.469	19.97
324.683	67.07
324.896	50.69
325.109	13.82
325.322	-76.29
325.535	79.36
325.748	22.02
325.962	60.93
326.175	13.82
326.388	173.57
326.601	81.41
326.814	-16.9
327.027	-6.66
327.24	83.45
327.453	-25.09
327.666	75.26
327.879	32.26
328.092	46.59
328.305	81.41
328.518	75.26
328.731	28.16
328.944	32.26
329.157	40.45
329.37	19.97
329.583	34.3
329.796	28.16
330.009	-31.23
330.222	38.4
330.435	32.26
330.648	32.26
330.861	15.87
331.073	56.83
331.286	30.21
331.499	67.07
331.712	22.02
331.925	44.54
332.138	-4.61
332.35	48.64
332.563	24.06
332.776	52.74
332.989	-66.05
333.202	50.69
333.414	69.12
333.627	56.83
333.84	-74.24
334.053	-31.23
334.265	-2.56
334.478	56.83
334.691	38.4
334.903	22.02
335.116	44.54
335.329	52.74
335.541	38.4
335.754	-14.85
335.966	32.26
336.179	19.97
336.392	42.5
336.604	40.45
336.817	81.41
337.029	101.89
337.242	5.63
337.454	153.09
337.667	-43.52
337.88	44.54
338.092	11.78
338.305	73.21
338.517	-66.05
338.729	60.93
338.942	11.78
339.154	95.74
339.367	15.87
339.579	-14.85
339.792	11.78
340.004	1.54
340.217	-4.61
340.429	120.32
340.641	38.4
340.854	-12.8
341.066	-0.51
341.278	81.41
341.491	-16.9
341.703	30.21
341.915	1.54
342.128	38.4
342.34	93.69
342.552	15.87
342.764	-74.24
342.977	136.7
343.189	40.45
343.401	-27.14
343.613	11.78
343.826	-10.75
344.038	11.78
344.25	17.92
344.462	24.06
344.674	46.59
344.886	-14.85
345.099	36.35
345.311	26.11
345.523	81.41
345.735	30.21
345.947	89.6
346.159	46.59
346.371	13.82
346.583	69.12
346.795	32.26
347.007	-16.9
347.219	105.98
347.431	5.63
347.643	36.35
347.855	3.58
348.067	-12.8
348.279	40.45
348.491	19.97
348.703	56.83
348.915	7.68
349.127	46.59
349.339	3.58
349.551	67.07
349.763	52.74
349.975	32.26
350.187	32.26
350.399	67.07
350.61	-20.99
350.822	-8.7
351.034	101.89
351.246	65.02
351.458	69.12
351.669	34.3
351.881	36.35
352.093	-31.23
352.305	-0.51
352.517	81.41
352.728	5.63
352.94	7.68
353.152	38.4
353.363	67.07
353.575	42.5
353.787	79.36
353.999	71.17
354.21	42.5
354.422	-29.18
354.633	11.78
354.845	-57.86
355.057	-0.51
355.268	48.64
355.48	28.16
355.692	28.16
355.903	5.63
356.115	24.06
356.326	19.97
356.538	30.21
356.749	-25.09
356.961	26.11
357.172	-20.99
357.384	48.64
357.595	124.41
357.807	-61.95
358.018	26.11
358.23	34.3
358.441	85.5
358.653	30.21
358.864	73.21
359.075	132.61
359.287	-0.51
359.498	69.12
359.709	-14.85
359.921	-4.61
360.132	83.45
360.344	97.79
360.555	-43.52
360.766	38.4
360.977	22.02
361.189	-12.8
361.4	91.65
361.611	105.98
361.823	89.6
362.034	40.45
362.245	32.26
362.456	44.54
362.667	17.92
362.879	-4.61
363.09	-0.51
363.301	-31.23
363.512	83.45
363.723	-8.7
363.935	-16.9
364.146	62.98
364.357	7.68
364.568	36.35
364.779	50.69
364.99	32.26
365.201	48.64
365.412	32.26
365.623	71.17
365.834	58.88
366.045	110.08
366.256	40.45
366.467	60.93
366.678	-14.85
366.889	40.45
367.1	32.26
367.311	52.74
367.522	28.16
367.733	44.54
367.944	7.68
368.155	52.74
368.366	69.12
368.577	65.02
368.788	22.02
368.999	-20.99
369.209	-8.7
369.42	112.13
369.631	120.32
369.842	42.5
370.053	85.5
370.264	28.16
370.474	-23.04
370.685	22.02
370.896	19.97
371.107	44.54
371.317	34.3
371.528	44.54
371.739	22.02
371.95	38.4
372.16	52.74
372.371	83.45
372.582	19.97
372.792	-25.09
373.003	67.07
373.214	81.41
373.424	40.45
373.635	-25.09
373.846	54.78
374.056	36.35
374.267	108.03
374.477	97.79
374.688	28.16
374.898	-27.14
375.109	46.59
375.319	-0.51
375.53	38.4
375.74	9.73
375.951	-16.9
376.161	67.07
376.372	112.13
376.582	15.87
376.793	1.54
377.003	7.68
377.214	5.63
377.424	105.98
377.635	50.69
377.845	34.3
378.055	3.58
378.266	34.3
378.476	73.21
378.686	26.11
378.897	48.64
379.107	28.16
379.317	42.5
379.528	-23.04
379.738	-12.8
379.948	58.88
380.158	81.41
380.369	3.58
380.579	114.17
380.789	-10.75
380.999	77.31
381.21	114.17
381.42	83.45
381.63	83.45
381.84	1.54
382.05	62.98
382.261	110.08
382.471	-20.99
382.681	-8.7
382.891	114.17
383.101	73.21
383.311	89.6
383.521	-25.09
383.731	36.35
383.941	85.5
384.151	32.26
384.361	58.88
384.571	40.45
384.781	42.5
384.991	38.4
385.201	38.4
385.411	-47.62
385.621	22.02
385.831	-6.66
386.041	17.92
386.251	56.83
386.461	52.74
386.671	9.73
386.881	83.45
387.091	13.82
387.301	122.37
387.511	77.31
387.72	-2.56
387.93	34.3
388.14	-8.7
388.35	56.83
388.56	108.03
388.769	58.88
388.979	62.98
389.189	-27.14
389.399	1.54
389.609	71.17
389.818	58.88
390.028	65.02
390.238	-12.8
390.447	7.68
390.657	56.83
390.867	3.58
391.076	1.54
391.286	75.26
391.496	36.35
391.705	60.93
391.915	134.65
392.125	95.74
392.334	71.17
392.544	50.69
392.753	73.21
392.963	5.63
393.172	32.26
393.382	81.41
393.591	44.54
393.801	28.16
394.01	65.02
394.22	17.92
394.429	38.4
394.639	42.5
394.848	-2.56
395.058	30.21
395.267	54.78
395.477	89.6
395.686	89.6
395.895	165.37
396.105	60.93
396.314	56.83
396.524	-14.85
396.733	103.93
396.942	62.98
397.152	30.21
397.361	71.17
397.57	-16.9
397.78	7.68
397.989	114.17
398.198	58.88
398.407	22.02
398.617	44.54
398.826	89.6
399.035	65.02
399.244	65.02
399.453	69.12
399.663	71.17
399.872	148.99
400.081	40.45
400.29	142.85
400.499	40.45
400.708	67.07
400.917	79.36
401.127	101.89
401.336	60.93
401.545	108.03
401.754	97.79
401.963	179.71
402.172	38.4
402.381	28.16
402.59	50.69
402.799	85.5
403.008	-16.9
403.217	85.5
403.426	151.04
403.635	58.88
403.844	112.13
404.053	159.23
404.262	67.07
404.471	67.07
404.68	101.89
404.888	159.23
405.097	83.45
405.306	167.42
405.515	124.41
405.724	108.03
405.933	165.37
406.142	128.51
406.35	146.94
406.559	185.85
406.768	81.41
406.977	177.66
407.185	171.52
407.394	187.9
407.603	157.18
407.812	181.76
408.02	118.27
408.229	130.56
408.438	196.09
408.646	151.04
408.855	97.79
409.064	169.47
409.272	202.24
409.481	208.38
409.69	157.18
409.898	155.13
410.107	220.67
410.315	196.09
410.524	187.9
410.733	206.33
410.941	230.91
411.15	255.48
411.358	255.48
411.567	382.46
411.775	202.24
411.984	249.34
412.192	300.54
412.401	292.35
412.609	269.82
412.818	249.34
413.026	298.49
413.234	419.32
413.443	339.45
413.651	435.71
413.86	423.42
414.068	409.08
414.276	368.12
414.485	439.8
414.693	445.95
414.901	534.01
415.11	390.65
415.318	484.86
415.526	421.37
415.734	491
415.943	544.25
416.151	556.54
416.359	593.4
416.567	638.45
416.776	513.53
416.984	714.23
417.192	638.45
417.4	685.56
417.608	640.5
417.817	669.17
418.025	714.23
418.233	697.85
418.441	706.04
418.649	845.3
418.857	863.73
419.065	849.4
419.273	773.62
419.481	935.41
419.689	925.17
419.897	986.61
420.105	1023.47
420.313	1043.95
420.521	1072.62
420.729	1093.1
420.937	1101.3
421.145	1148.4
421.353	1314.28
421.561	1193.45
421.769	1224.17
421.977	1283.56
422.185	1334.76
422.393	1357.29
422.601	1488.36
422.809	1531.37
423.017	1566.18
423.224	1668.58
423.432	1564.14
423.64	1664.49
423.848	1799.65
424.056	1863.14
424.263	1836.52
424.471	1912.29
424.679	1940.96
424.887	2014.69
425.094	2055.65
425.302	2110.94
425.51	2108.9
425.718	2262.49
425.925	2252.25
426.133	2377.18
426.341	2477.53
426.548	2590.17
426.756	2586.07
426.964	2635.22
427.171	2754.01
427.379	2762.2
427.586	2909.65
427.794	2952.66
428.001	3057.11
428.209	3210.7
428.417	3179.98
428.624	3548.62
428.832	3294.67
429.039	3448.27
429.247	3397.07
429.454	3833.29
429.662	4048.32
429.869	3790.28
430.076	4040.13
430.284	3829.19
430.491	3993.03
430.699	4199.87
430.906	4177.34
431.114	4318.65
431.321	4472.25
431.528	4591.03
431.736	4775.35
431.943	5135.79
432.15	4904.37
432.358	5002.68
432.565	5148.08
432.772	5297.58
432.979	5477.8
433.187	5506.48
433.394	5608.87
433.601	5928.36
433.808	6073.76
434.016	6159.78
434.223	6245.79
434.43	6573.47
434.637	6577.56
434.844	6993.3
435.052	7140.76
435.259	6933.91
435.466	7009.69
435.673	7052.69
435.88	7650.7
436.087	7804.3
436.294	7808.39
436.501	7714.19
436.708	7771.53
436.915	8162.69
437.122	8504.7
437.329	8566.14
437.537	8777.08
437.743	8850.81
437.95	8787.32
438.157	9153.91
438.364	9571.69
438.571	9502.06
438.778	9604.46
438.985	10374.5
439.192	10046.82
439.399	10138.98
439.606	10157.41
439.813	10743.13
440.02	11535.7
440.227	11275.6
440.433	11052.38
440.64	11347.28
440.847	11425.11
441.054	11603.28
441.261	12717.37
441.467	12264.77
441.674	12676.41
441.881	12778.81
442.088	12838.2
442.294	12916.03
442.501	13221.17
442.708	13536.56
442.914	14056.75
443.121	14695.71
443.328	14046.51
443.534	15172.89
443.741	14746.91
443.948	14443.81
444.154	15547.67
444.361	15547.67
444.568	15459.6
444.774	15830.29
444.981	15815.95
445.187	16319.75
445.394	16989.44
445.6	16755.97
445.807	18220.27
446.013	17413.37
446.22	17818.86
446.426	18650.34
446.633	18642.15
446.839	19363.03
447.046	18593
447.252	19631.32
447.459	19541.21
447.665	19797.2
447.871	20499.66
448.078	21193.92
448.284	20384.97
448.491	20765.89
448.697	21578.93
448.903	21992.62
449.11	22084.78
449.316	21785.78
449.522	22070.45
449.728	22668.45
449.935	22918.31
450.141	22951.07
450.347	23710.87
450.553	22906.02
450.76	23041.18
450.966	23858.32
451.172	23407.77
451.378	24075.41
451.584	23770.26
451.791	24204.43
451.997	23946.39
452.203	24904.84
452.409	24513.67
452.615	24183.95
452.821	23645.34
453.027	23293.08
453.233	24767.62
453.44	23618.71
453.646	23641.24
453.852	24001.68
454.058	24224.91
454.264	23272.6
454.47	23841.94
454.676	23526.55
454.882	24319.12
455.088	21918.9
455.294	22656.17
455.5	23018.66
455.705	23010.46
455.911	22054.06
456.117	21699.76
456.323	21302.46
456.529	20339.91
456.735	21388.47
456.941	20387.02
457.147	20509.9
457.352	19412.18
457.558	19408.09
457.764	19610.84
457.97	19373.27
458.176	18789.6
458.381	18429.16
458.587	17853.68
458.793	17954.03
458.999	16788.74
459.204	18136.3
459.41	17569.01
459.616	16405.77
459.821	16401.67
460.027	16446.73
460.233	16053.52
460.438	15224.09
460.644	15529.24
460.85	14357.8
461.055	14601.51
461.261	14439.72
461.466	13440.31
461.672	12873.02
461.878	14206.25
462.083	13124.92
462.289	12895.55
462.494	12758.33
462.7	12012.87
462.905	11992.39
463.111	12328.26
463.316	12381.51
463.522	11949.39
463.727	11918.67
463.932	11810.12
464.138	11687.25
464.343	11826.51
464.549	11504.98
464.754	11822.41
464.959	11590.99
465.165	11619.66
465.37	11308.37
465.575	10589.53
465.781	11382.1
465.986	11478.35
466.191	11097.43
466.397	10667.36
466.602	10231.14
466.807	10700.12
467.012	10681.69
467.218	10476.9
467.423	10628.45
467.628	10726.75
467.833	10929.5
468.038	10509.66
468.244	10188.13
468.449	10747.23
468.654	10329.44
468.859	10167.65
469.064	10073.45
469.269	9819.5
469.474	9774.44
469.679	10235.24
469.885	9690.48
470.09	9737.58
470.295	9647.47
470.5	9813.35
470.705	9631.09
470.91	9373.04
471.115	9268.59
471.32	9631.09
471.525	9321.84
471.73	9123.19
471.935	9332.08
472.139	8990.07
472.344	9061.75
472.549	8668.54
472.754	8914.3
472.959	8617.34
473.164	8510.85
473.369	8441.22
473.574	8576.38
473.778	8516.99
473.983	8502.65
474.188	8572.29
474.393	8332.67
474.598	7982.47
474.802	8056.2
475.007	7894.41
475.212	7968.13
475.417	7724.43
475.621	7650.7
475.826	7615.88
476.031	7624.08
476.235	7368.08
476.44	7452.05
476.645	7372.18
476.849	7351.7
477.054	7179.67
477.259	7126.42
477.463	7259.54
477.668	7024.02
477.872	6995.35
478.077	7093.65
478.282	6739.35
478.486	6702.49
478.691	6788.5
478.895	6645.15
479.1	6665.63
479.304	6780.31
479.509	6331.81
479.713	6497.69
479.918	6550.94
480.122	6350.24
480.326	6471.07
480.531	6290.85
480.735	6399.39
480.94	6393.25
481.144	6604.19
481.348	6241.7
481.553	6223.27
481.757	6127.01
481.961	6155.68
482.166	6315.42
482.37	6253.98
482.574	6051.24
482.778	6100.39
482.983	6344.1
483.187	6219.17
483.391	6264.22
483.595	6280.61
483.8	6118.82
484.004	6284.7
484.208	6262.18
484.412	6315.42
484.616	6213.03
484.821	6198.69
485.025	6059.43
485.229	6167.97
485.433	6192.55
485.637	6239.65
485.841	6026.66
486.045	5993.89
486.249	6151.59
486.453	6100.39
486.657	6051.24
486.861	6237.6
487.065	6188.45
487.269	6210.98
487.473	6000.04
487.677	6167.97
487.881	6225.31
488.085	6047.14
488.289	6133.15
488.493	6065.57
488.697	6155.68
488.901	6186.4
489.105	6288.8
489.309	6157.73
489.512	6210.98
489.716	6172.07
489.92	6061.48
490.124	6061.48
490.328	6376.86
490.531	6288.8
490.735	6440.35
490.939	6393.25
491.143	6376.86
491.346	6380.96
491.55	6477.21
491.754	6428.06
491.958	6522.27
492.161	6419.87
492.365	6442.4
492.569	6368.67
492.772	6522.27
492.976	6716.83
493.18	6565.28
493.383	6600.09
493.587	6690.2
493.79	6604.19
493.994	6524.32
494.197	6788.5
494.401	6673.82
494.605	6759.83
494.808	7036.31
495.012	6991.25
495.215	7019.92
495.419	6950.29
495.622	7030.16
495.825	7114.13
496.029	7114.13
496.232	7253.39
496.436	7126.42
496.639	7277.97
496.843	7239.06
497.046	7505.29
497.249	7626.12
497.453	7726.47
497.656	7683.47
497.859	7769.48
498.063	7796.11
498.266	8091.01
498.469	7959.94
498.673	7974.28
498.876	8172.93
499.079	8310.15
499.282	8263.04
499.485	8459.65
499.689	8428.93
499.892	8486.27
500.095	8605.05
500.298	8873.34
500.501	8797.56
500.705	8865.14
500.908	9041.27
501.111	9018.74
501.314	9278.83
501.517	9416.05
501.72	9520.49
501.923	9258.35
502.126	9756.01
502.329	10005.86
502.532	9930.09
502.735	9870.7
502.938	9917.8
503.141	9989.48
503.344	10351.97
503.547	10313.06
503.75	10650.97
503.953	10749.28
504.156	10671.45
504.359	10964.31
504.562	10827.1
504.765	11318.61
504.968	11142.49
505.17	11240.79
505.373	11455.83
505.576	11564.37
505.779	11873.61
505.982	11902.28
506.185	12047.69
506.387	12066.12
506.59	12279.11
506.793	12250.44
506.996	12354.88
507.198	12713.28
507.401	12510.53
507.604	12956.99
507.807	12930.36
508.009	13057.34
508.212	13307.19
508.415	13286.71
508.617	13538.61
508.82	13518.13
509.022	13532.47
509.225	14032.17
509.428	14146.86
509.63	14236.97
509.833	14273.83
510.035	14556.45
510.238	14347.56
510.44	14701.86
510.643	14984.48
510.845	15283.48
511.048	14880.03
511.25	15263
511.453	15359.25
511.655	15875.34
511.858	15805.71
512.06	15793.42
512.262	16239.88
512.465	15971.6
512.667	16243.98
512.87	16336.13
513.072	16663.81
513.274	16852.22
513.477	17177.85
513.679	17237.24
513.881	17183.99
514.084	17493.24
514.286	17401.08
514.488	17724.66
514.69	18349.29
514.893	18144.49
515.095	18201.83
515.297	18353.38
515.499	18623.72
515.701	18656.48
515.904	18836.7
516.106	19135.71
516.308	19549.4
516.51	19588.31
516.712	19686.61
516.914	20249.8
517.116	20282.57
517.318	20235.47
517.52	20483.27
517.722	20516.04
517.925	20833.47
518.127	21013.7
518.329	21152.96
518.531	21347.51
518.733	21404.86
518.935	21638.33
519.136	21736.63
519.338	22109.36
519.54	22439.08
519.742	22609.06
519.944	22596.78
520.146	23051.42
520.348	23403.67
520.55	22936.74
520.752	23264.41
520.954	23854.23
521.155	23522.46
521.357	23952.53
521.559	24298.64
521.761	24257.68
521.963	24552.59
522.164	24657.03
522.366	24929.41
522.568	25037.95
522.77	25031.81
522.971	25570.43
523.173	25392.25
523.375	25148.54
523.576	25859.19
523.778	25916.53
523.98	26193.01
524.181	26408.05
524.383	26500.2
524.584	26909.8
524.786	26692.71
524.988	26645.61
525.189	26952.8
525.391	26770.54
525.592	27247.71
525.794	27825.24
525.995	27663.45
526.197	28105.81
526.398	27679.83
526.6	27903.06
526.801	27911.25
527.003	28396.62
527.204	28345.42
527.406	28841.03
527.607	28587.08
527.808	28953.67
528.01	28460.11
528.211	28718.15
528.412	29289.54
528.614	29324.35
528.815	29258.82
529.016	29674.56
529.218	29144.13
529.419	29506.62
529.62	29314.11
529.822	29490.24
530.023	29582.4
530.224	30014.52
530.425	29908.02
530.626	29660.22
530.828	29701.18
531.029	30563.37
531.23	29865.02
531.431	29955.13
531.632	30215.22
531.833	30223.41
532.035	30114.87
532.236	30307.38
532.437	30641.2
532.638	30020.66
532.839	30657.58
533.04	30506.03
533.241	30276.66
533.442	30884.9
533.643	30553.13
533.844	30602.29
534.045	30823.47
534.246	30446.64
534.447	30956.58
534.648	30899.24
534.849	30762.03
535.05	30667.82
535.251	30934.06
535.451	30604.33
535.652	30497.84
535.853	30544.94
536.054	31001.64
536.255	30813.23
536.456	30770.22
536.657	31714.33
536.857	31222.82
537.058	30716.97
537.259	31235.11
537.46	30985.26
537.66	30764.07
537.861	30995.5
538.062	31198.24
538.263	31251.49
538.463	30874.66
538.664	30817.32
538.865	31108.13
539.065	31312.93
539.266	30663.72
539.466	31079.46
539.667	30759.98
539.868	31134.76
540.068	30612.52
540.269	31056.93
540.469	31196.2
540.67	30782.51
540.87	31054.89
541.071	30796.84
541.271	30968.87
541.472	30704.68
541.672	30735.4
541.873	30741.55
542.073	30446.64
542.274	30987.3
542.474	30620.72
542.675	30751.79
542.875	31110.18
543.075	30950.44
543.276	30301.23
543.476	31095.85
543.676	30835.75
543.877	30714.92
544.077	30948.39
544.277	30704.68
544.478	30712.88
544.678	30856.23
544.878	30757.93
545.078	31097.89
545.279	30704.68
545.479	30655.53
545.679	30823.47
545.879	31159.33
546.079	30600.24
546.28	30962.73
546.48	30469.17
546.68	30897.19
546.88	31038.5
547.08	31177.76
547.28	30616.62
547.48	30522.41
547.68	30475.31
547.88	30612.52
548.081	30688.3
548.281	30702.64
548.481	30460.98
548.681	30952.49
548.881	30794.79
549.081	30710.83
549.28	30571.57
549.48	30426.16
549.68	30813.23
549.88	30676.01
550.08	30610.48
550.28	30780.46
550.48	30424.11
550.68	30934.06
550.88	30366.77
551.08	30594.09
551.279	30671.92
551.479	30395.44
551.679	30438.45
551.879	30534.7
552.079	30794.79
552.278	30526.51
552.478	30479.41
552.678	30536.75
552.878	30704.68
553.077	30366.77
553.277	30239.79
553.477	30688.3
553.676	30264.37
553.876	30503.98
554.076	30413.87
554.275	30219.31
554.475	30086.2
554.674	30456.88
554.874	30157.88
555.074	30352.43
555.273	30125.11
555.473	30393.39
555.672	30030.9
555.872	30129.2
556.071	30207.03
556.271	30299.19
556.47	29879.35
556.67	29498.43
556.869	29969.46
557.068	29973.56
557.268	29830.2
557.467	29772.86
557.667	29555.77
557.866	29983.8
558.065	29713.47
558.265	29426.75
558.464	29502.53
558.663	29871.16
558.863	29385.79
559.062	29619.26
559.261	29277.25
559.461	29676.6
559.66	29158.47
559.859	28881.99
560.058	28953.67
560.258	29293.63
560.457	28978.25
560.656	29314.11
560.855	28763.21
561.054	29123.65
561.253	28634.19
561.453	28955.72
561.652	28783.69
561.851	28994.63
562.05	28679.24
562.249	28441.68
562.448	28941.38
562.647	29011.01
562.846	28533.84
563.045	28523.6
563.244	28308.56
563.443	28636.24
563.642	27851.86
563.841	27925.59
564.04	28103.76
564.239	28243.03
564.438	28056.66
564.637	28060.76
564.836	28081.24
565.035	27724.89
565.234	27894.87
565.432	27444.32
565.631	27683.93
565.83	27595.87
566.029	27440.22
566.228	27528.28
566.427	27145.31
566.625	27090.02
566.824	27047.01
567.023	27397.21
567.222	26801.26
567.42	27112.55
567.619	27268.19
567.818	26940.52
568.016	27057.25
568.215	26971.24
568.414	26963.04
568.612	26821.73
568.811	26434.67
569.01	26375.28
569.208	25945.2
569.407	26692.71
569.605	26133.62
569.804	26811.49
570.002	25846.9
570.201	26133.62
570.4	25660.54
570.598	25822.33
570.797	25900.15
570.995	25574.52
571.193	25556.09
571.392	25695.35
571.59	25384.06
571.789	25220.22
571.987	25492.6
572.186	25420.92
572.384	25429.12
572.582	25201.79
572.781	25265.28
572.979	24927.36
573.177	24814.73
573.376	25078.91
573.574	24728.71
573.772	24929.41
573.971	24687.75
574.169	24640.65
574.367	24319.12
574.565	24771.72
574.763	24560.78
574.962	24462.47
575.16	24294.54
575.358	24462.47
575.556	23915.67
575.754	24519.82
575.952	23897.24
576.151	24183.95
576.349	23794.84
576.547	24009.87
576.745	23694.49
576.943	23694.49
577.141	23911.57
577.339	23557.27
577.537	23409.82
577.735	23626.9
577.933	23393.44
578.131	23377.05
578.329	23229.6
578.527	23360.67
578.725	23313.56
578.923	23190.69
579.121	23088.29
579.319	22711.46
579.516	22899.87
579.714	22858.92
579.912	22635.69
580.11	22793.38
580.308	22697.13
580.506	22703.27
580.704	22443.18
580.901	22463.66
581.099	22713.51
581.297	22424.75
581.495	22109.36
581.692	22201.52
581.89	21939.38
582.088	22367.4
582.285	21648.57
582.483	21986.48
582.681	22009.01
582.878	21836.98
583.076	21476.54
583.274	21783.73
583.471	21355.71
583.669	21648.57
583.866	21427.39
584.064	21621.94
584.262	21226.68
584.459	21630.13
584.657	21421.24
584.854	21034.18
585.052	20872.39
585.249	21138.62
585.447	21146.81
585.644	20890.82
585.841	20919.49
586.039	20980.93
586.236	20882.63
586.434	20913.34
586.631	20561.09
586.828	20446.41
587.026	20591.81
587.223	20657.35
587.42	20550.85
587.618	20552.9
587.815	20372.68
588.012	20210.89
588.21	20022.48
588.407	20268.23
588.604	19862.74
588.801	19842.26
588.999	19913.94
589.196	19885.26
589.393	20153.55
589.59	19625.17
589.787	19703
589.984	19864.78
590.182	19533.01
590.379	19932.37
590.576	19422.42
590.773	19651.8
590.97	19307.74
591.167	19403.99
591.364	18986.21
591.561	19125.47
591.758	18924.77
591.955	18945.25
592.152	19018.97
592.349	18926.82
592.546	19174.62
592.743	18875.62
592.94	18515.17
593.137	19012.83
593.334	18703.59
593.531	18396.39
593.727	18812.13
593.924	18390.25
594.121	18517.22
594.318	18939.1
594.515	18148.59
594.712	18328.81
594.908	18220.27
595.105	18355.43
595.302	18162.92
595.499	18267.37
595.696	18062.57
595.892	17882.35
596.089	18416.87
596.286	17982.7
596.482	18083.05
596.679	17554.68
596.876	17626.36
597.072	17921.26
597.269	17700.08
597.466	17833.2
597.662	17775.86
597.859	17655.03
598.055	17595.64
598.252	17452.28
598.448	17315.06
598.645	17577.2
598.841	17333.5
599.038	17214.71
599.234	17016.06
599.431	17198.33
599.627	16839.94
599.824	16952.57
600.02	17093.88
600.217	16905.47
600.413	16801.02
600.609	16751.87
600.806	16631.04
601.002	17065.21
601.198	16901.37
601.395	16596.23
601.591	16502.02
601.787	16387.33
601.984	16448.77
602.18	16506.12
602.376	16196.87
602.572	16256.26
602.769	16487.68
602.965	16004.36
603.161	16207.11
603.357	16119.05
603.553	15852.81
603.75	16135.43
603.946	15772.94
604.142	15803.66
604.338	15818
604.534	15895.82
604.73	15545.62
604.926	15781.14
605.122	15648.02
605.318	15912.21
605.514	15473.94
605.71	15379.73
605.906	15330.58
606.102	15285.53
606.298	15455.51
606.494	15484.18
606.69	15285.53
606.886	15400.21
607.082	15109.4
607.278	15473.94
607.474	15084.83
607.67	15023.39
607.866	15039.77
608.062	15287.57
608.257	15131.93
608.453	14744.86
608.649	15058.2
608.845	14871.84
609.041	15031.58
609.236	14746.91
609.432	14679.33
609.628	14863.65
609.824	14873.89
610.019	14652.7
610.215	14828.83
610.411	14873.89
610.606	14730.53
610.802	14683.42
610.998	14509.35
611.193	14550.31
611.389	14525.73
611.584	14466.34
611.78	14419.24
611.976	14368.04
612.171	14286.12
612.367	14400.8
612.562	14034.22
612.758	14107.94
612.953	14167.34
613.149	14335.27
613.344	13966.63
613.539	14335.27
613.735	13911.34
613.93	14001.45
614.126	14234.92
614.321	14298.41
614.517	13880.62
614.712	13763.89
614.907	14095.66
615.103	13940.01
615.298	13901.1
615.493	13944.11
615.688	13645.1
615.884	13927.72
616.079	13933.87
616.274	13712.69
616.47	13724.97
616.665	13770.03
616.86	13651.25
617.055	13583.66
617.25	13438.26
617.445	13763.89
617.641	13430.07
617.836	13659.44
618.031	13215.03
618.226	13567.28
618.421	13272.37
618.616	13303.09
618.811	13186.36
619.006	13442.35
619.201	12838.2
619.396	13313.33
619.591	13026.62
619.786	12985.66
619.981	12846.4
620.176	12950.84
620.371	12858.68
620.566	12834.11
620.761	12858.68
620.956	12690.75
621.151	12473.67
621.346	12582.21
621.541	12643.65
621.735	12678.46
621.93	12399.94
622.125	12520.77
622.32	12526.91
622.515	12387.65
622.709	12244.29
622.904	12199.24
623.099	11967.82
623.294	12234.05
623.488	11744.59
623.683	11763.02
623.878	11726.16
624.072	11836.75
624.267	11840.84
624.462	11652.43
624.656	11521.36
624.851	11699.53
625.046	11502.93
625.24	11425.11
625.435	11386.19
625.629	11353.43
625.824	11367.76
626.018	11117.91
626.213	10972.5
626.407	11085.14
626.602	10841.43
626.796	11021.66
626.991	10884.44
627.185	10978.65
627.38	10710.36
627.574	10702.17
627.768	10458.46
627.963	10644.83
628.157	10458.46
628.352	10587.49
628.546	10282.34
628.74	10462.56
628.935	10296.67
629.129	10315.11
629.323	9848.17
629.517	10202.47
629.712	9983.34
629.906	9895.27
630.1	9858.41
630.294	9960.81
630.489	9776.49
630.683	9979.24
630.877	9545.07
631.071	9678.19
631.265	9727.34
631.459	9467.25
631.653	9547.12
631.848	9600.37
632.042	9549.17
632.236	9477.49
632.43	9360.75
632.624	9379.18
632.818	9252.21
633.012	9225.59
633.206	9108.85
633.4	9080.18
633.594	9155.96
633.788	9160.05
633.982	9172.34
634.176	8992.12
634.369	8848.76
634.563	8797.56
634.757	8748.41
634.951	8756.6
635.145	8662.4
635.339	8594.81
635.533	8744.31
635.726	8594.81
635.92	8592.76
636.114	8441.22
636.308	8502.65
636.501	8478.08
636.695	8390.02
636.889	8199.55
637.083	8222.08
637.276	8217.99
637.47	8271.23
637.664	8199.55
637.857	8050.05
638.051	8029.57
638.244	7945.61
638.438	7957.89
638.632	7974.28
638.825	7720.33
639.019	7878.02
639.212	7775.63
639.406	7826.82
639.599	7605.64
639.793	7730.57
639.986	7507.34
640.18	7474.57
640.373	7593.36
640.567	7441.81
640.76	7558.54
640.954	7280.02
641.147	7271.83
641.34	7220.63
641.534	7382.42
641.727	7339.41
641.92	7210.39
642.114	7271.83
642.307	7101.84
642.5	7245.2
642.694	7107.99
642.887	6978.97
643.08	7138.71
643.273	6886.81
643.467	6778.26
643.66	6872.47
643.853	6847.9
644.046	6831.51
644.239	6806.94
644.432	6864.28
644.626	6747.55
644.819	6722.97
645.012	6706.59
645.205	6817.18
645.398	6626.71
645.591	6499.74
645.784	6532.51
645.977	6473.12
646.17	6329.76
646.363	6407.58
646.556	6495.64
646.749	6235.55
646.942	6430.11
647.135	6200.74
647.328	6227.36
647.521	6202.79
647.714	5977.51
647.907	6135.2
648.099	5997.99
648.292	6057.38
648.485	5963.17
648.678	6112.67
648.871	5936.55
649.064	5825.96
649.256	6028.71
649.449	5922.21
649.642	5954.98
649.835	5737.9
650.027	5692.84
650.22	5795.24
650.413	5778.86
650.605	5510.57
650.798	5526.96
650.991	5488.04
651.183	5762.47
651.376	5471.66
651.568	5572.01
651.761	5463.47
651.954	5457.32
652.146	5455.28
652.339	5428.65
652.531	5422.51
652.724	5451.18
652.916	5367.21
653.109	5250.48
653.301	5334.45
653.494	5281.2
653.686	5115.31
653.879	5277.1
654.071	5133.75
654.263	5055.92
654.456	5129.65
654.648	5221.81
654.84	5027.25
655.033	5219.76
655.225	4849.08
655.417	4957.62
655.61	5084.59
655.802	5002.68
655.994	4990.39
656.186	4773.3
656.379	4822.45
656.571	4978.1
656.763	4859.32
656.955	4853.17
657.148	4765.11
657.34	4875.7
657.532	4808.12
657.724	4705.72
657.916	4683.19
658.108	4642.23
658.3	4457.92
658.492	4828.6
658.684	4398.52
658.876	4580.79
659.068	4654.52
659.26	4570.55
659.452	4492.73
659.644	4357.57
659.836	4568.51
660.028	4586.94
660.22	4402.62
660.412	4500.92
660.604	4335.04
660.796	4412.86
660.988	4220.35
661.18	4130.24
661.372	4158.91
661.563	4390.33
661.755	4281.79
661.947	4279.74
662.139	4238.78
662.331	4042.18
662.522	4109.76
662.714	4232.64
662.906	4066.75
663.097	4054.47
663.289	4011.46
663.481	4025.79
663.673	4062.66
663.864	3995.08
664.056	3907.01
664.247	4029.89
664.439	3904.96
664.631	4128.19
664.822	4081.09
665.014	3968.45
665.205	3997.12
665.397	3821
665.588	3786.18
665.78	3837.38
665.971	3821
666.163	3823.05
666.354	3792.33
666.546	3724.74
666.737	3730.89
666.929	3657.16
667.12	3726.79
667.311	3788.23
667.503	3646.92
667.694	3706.31
667.885	3644.87
668.077	3646.92
668.268	3632.58
668.459	3628.49
668.651	3653.06
668.842	3780.04
669.033	3585.48
669.224	3481.03
669.416	3661.26
669.607	3419.6
669.798	3546.57
669.989	3573.19
670.18	3435.98
670.371	3438.03
670.563	3425.74
670.754	3599.82
670.945	3444.17
671.136	3468.75
671.327	3403.21
671.518	3347.92
671.709	3392.97
671.9	3472.84
672.091	3395.02
672.282	3491.27
672.473	3253.71
672.664	3415.5
672.855	3304.91
673.046	3120.59
673.237	3345.87
673.428	3210.7
673.619	3222.99
673.809	3266
674	3325.39
674.191	3222.99
674.382	3200.46
674.573	3259.85
674.764	3306.96
674.954	3243.47
675.145	3237.33
675.336	3186.13
675.527	3159.5
675.717	3255.76
675.908	3243.47
676.099	3175.89
676.289	3296.72
676.48	3149.26
676.671	3212.75
676.861	3038.67
677.052	3124.69
677.243	2997.71
677.433	3151.31
677.624	3124.69
677.814	3038.67
678.005	3141.07
678.195	3182.03
678.386	3069.39
678.576	3022.29
678.767	3081.68
678.957	3124.69
679.148	3130.83
679.338	3184.08
679.529	3134.93
679.719	2997.71
679.909	3059.15
680.1	3093.97
680.29	3222.99
680.481	3155.41
680.671	2950.61
680.861	3098.06
681.052	3151.31
681.242	3022.29
681.432	3073.49
681.622	2985.43
681.813	3046.87
682.003	2995.67
682.193	2971.09
682.383	3104.21
682.573	3087.82
682.764	3036.63
682.954	2944.47
683.144	3186.13
683.334	2913.75
683.524	3044.82
683.714	2985.43
683.904	3022.29
684.094	2979.28
684.284	2944.47
684.474	3053.01
684.664	3005.91
684.854	2966.99
685.044	2858.45
685.234	2903.51
685.424	2831.83
685.614	2956.75
685.804	2872.79
685.994	2819.54
686.184	2942.42
686.374	2930.13
686.564	2932.18
686.753	2835.92
686.943	2885.08
687.133	2835.92
687.323	2807.25
687.513	3022.29
687.702	2706.9
687.892	2784.73
688.082	2768.34
688.272	2846.16
688.461	2758.1
688.651	2874.84
688.841	2731.48
689.03	2706.9
689.22	2797.01
689.41	2717.14
689.599	2811.35
689.789	2829.78
689.979	2723.29
690.168	2745.81
690.358	2684.38
690.547	2688.47
690.737	2620.89
690.926	2659.8
691.116	2690.52
691.305	2584.02
691.495	2624.98
691.684	2670.04
691.874	2604.5
692.063	2610.65
692.252	2577.88
692.442	2459.1
692.631	2520.54
692.82	2473.43
693.01	2405.85
693.199	2455
693.388	2485.72
693.578	2418.14
693.767	2448.86
693.956	2565.59
694.146	2516.44
694.335	2434.52
694.524	2436.57
694.713	2448.86
694.902	2418.14
695.092	2299.36
695.281	2450.91
695.47	2457.05
695.659	2368.99
695.848	2348.51
696.037	2299.36
696.226	2375.13
696.415	2401.76
696.604	2358.75
696.793	2368.99
696.982	2311.64
697.171	2340.32
697.36	2510.3
697.549	2317.79
697.738	2346.46
697.927	2334.17
698.116	2252.25
698.305	2239.97
698.494	2260.45
698.683	2405.85
698.872	2358.75
699.061	2407.9
699.25	2362.84
699.438	2428.38
699.627	2420.19
699.816	2338.27
700.005	2233.82
700.193	2354.65
700.382	2295.26
700.571	2354.65
700.76	2268.64
700.948	2223.58
701.137	2338.27
701.326	2244.06
701.514	2266.59
701.703	2336.22
701.892	2399.71
702.08	2368.99
702.269	2215.39
702.457	2293.21
702.646	2223.58
702.834	2233.82
703.023	2297.31
703.212	2352.6
703.4	2350.56
703.589	2248.16
703.777	2303.45
703.965	2270.69
704.154	2346.46
704.342	2309.6
704.531	2199.01
704.719	2239.97
704.907	2313.69
705.096	2309.6
705.284	2309.6
705.472	2368.99
705.661	2188.77
705.849	2330.08
706.037	2377.18
706.226	2389.47
706.414	2301.4
706.602	2389.47
706.79	2313.69
706.979	2174.43
707.167	2227.68
707.355	2338.27
707.543	2420.19
707.731	2301.4
707.919	2219.49
708.107	2354.65
708.296	2362.84
708.484	2248.16
708.672	2338.27
708.86	2350.56
709.048	2387.42
709.236	2334.17
709.424	2416.09
709.612	2485.72
709.8	2291.17
709.988	2262.49
710.176	2332.12
710.364	2356.7
710.551	2336.22
710.739	2250.21
710.927	2350.56
711.115	2321.88
711.303	2323.93
711.491	2270.69
711.679	2373.08
711.866	2379.23
712.054	2383.32
712.242	2182.62
712.43	2264.54
712.617	2299.36
712.805	2348.51
712.993	2192.86
713.181	2272.73
713.368	2207.2
713.556	2358.75
713.744	2317.79
713.931	2412
714.119	2334.17
714.306	2358.75
714.494	2387.42
714.682	2332.12
714.869	2299.36
715.057	2440.67
715.244	2332.12
715.432	2373.08
715.619	2409.95
715.807	2307.55
715.994	2461.15
716.182	2455
716.369	2432.47
716.556	2334.17
716.744	2340.32
716.931	2293.21
717.119	2495.96
717.306	2471.39
717.493	2387.42
717.681	2407.9
717.868	2424.28
718.055	2360.8
718.242	2389.47
718.43	2475.48
718.617	2340.32
718.804	2469.34
718.991	2416.09
719.179	2438.62
719.366	2366.94
719.553	2391.52
719.74	2317.79
719.927	2440.67
720.114	2579.93
720.301	2471.39
720.488	2348.51
720.676	2391.52
720.863	2368.99
721.05	2436.57
721.237	2426.33
721.424	2426.33
721.611	2430.43
721.798	2465.24
721.985	2356.7
722.172	2350.56
722.358	2424.28
722.545	2403.8
722.732	2362.84
722.919	2430.43
723.106	2328.03
723.293	2336.22
723.48	2334.17
723.667	2442.71
723.853	2438.62
724.04	2491.87
724.227	2487.77
724.414	2409.95
724.6	2461.15
724.787	2225.63
724.974	2512.35
725.161	2352.6
725.347	2336.22
725.534	2340.32
725.72	2407.9
725.907	2409.95
726.094	2514.39
726.28	2424.28
726.467	2512.35
726.653	2455
726.84	2487.77
727.027	2448.86
727.213	2444.76
727.4	2495.96
727.586	2493.91
727.773	2422.24
727.959	2524.63
728.145	2303.45
728.332	2522.59
728.518	2600.41
728.705	2461.15
728.891	2500.06
729.077	2514.39
729.264	2452.95
729.45	2536.92
729.636	2479.58
729.823	2483.67
730.009	2500.06
730.195	2545.11
730.382	2508.25
730.568	2549.21
730.754	2500.06
730.94	2565.59
731.126	2438.62
731.313	2516.44
731.499	2481.63
731.685	2514.39
731.871	2514.39
732.057	2508.25
732.243	2581.98
732.429	2532.83
732.615	2465.24
732.801	2504.15
732.987	2414.04
733.173	2557.4
733.359	2563.54
733.545	2498.01
733.731	2565.59
733.917	2567.64
734.103	2500.06
734.289	2588.12
734.475	2455
734.661	2491.87
734.847	2600.41
735.033	2541.02
735.219	2502.11
735.404	2543.07
735.59	2586.07
735.776	2600.41
735.962	2520.54
736.148	2635.22
736.333	2534.87
736.519	2590.17
736.705	2477.53
736.89	2551.26
737.076	2469.34
737.262	2471.39
737.447	2657.75
737.633	2516.44
737.819	2487.77
738.004	2563.54
738.19	2506.2
738.375	2469.34
738.561	2332.12
738.747	2465.24
738.932	2567.64
739.118	2459.1
739.303	2502.11
739.489	2594.26
739.674	2493.91
739.859	2577.88
740.045	2459.1
740.23	2487.77
740.416	2463.19
740.601	2455
740.786	2424.28
740.972	2543.07
741.157	2450.91
741.342	2457.05
741.528	2495.96
741.713	2422.24
741.898	2475.48
742.084	2358.75
742.269	2461.15
742.454	2424.28
742.639	2469.34
742.824	2405.85
743.01	2358.75
743.195	2448.86
743.38	2285.02
743.565	2391.52
743.75	2301.4
743.935	2344.41
744.12	2323.93
744.305	2420.19
744.49	2336.22
744.675	2354.65
744.86	2338.27
745.045	2325.98
745.23	2311.64
745.415	2346.46
745.6	2371.04
745.785	2307.55
745.97	2219.49
746.155	2184.67
746.34	2274.78
746.525	2158.05
746.71	2227.68
746.895	2268.64
747.079	2127.33
747.264	2168.29
747.449	2348.51
747.634	2270.69
747.819	2289.12
748.003	2080.22
748.188	2063.84
748.373	2215.39
748.557	2139.62
748.742	2084.32
748.927	2055.65
749.111	2151.9
749.296	1977.83
749.481	2018.79
749.665	2207.2
749.85	1863.14
750.034	2008.55
750.219	2092.51
750.404	1906.15
750.588	1916.39
750.773	2022.88
750.957	1926.63
751.141	1983.97
751.326	1990.11
751.51	1971.68
751.695	1957.35
751.879	1836.52
752.064	1908.19
752.248	1789.41
752.432	1943.01
752.617	1863.14
752.801	1867.24
752.985	1822.18
753.17	1816.04
753.354	1803.75
753.538	1916.39
753.722	1797.6
753.907	1732.07
754.091	1775.08
754.275	1732.07
754.459	1721.83
754.643	1709.54
754.828	1707.49
755.012	1672.68
755.196	1678.82
755.38	1641.96
755.564	1711.59
755.748	1613.29
755.932	1633.77
756.116	1590.76
756.3	1615.34
756.484	1607.14
756.668	1582.57
756.852	1594.86
757.036	1553.9
757.22	1578.47
757.404	1514.98
757.588	1465.83
757.772	1504.75
757.956	1459.69
758.14	1519.08
758.323	1418.73
758.507	1549.8
758.691	1353.2
758.875	1476.07
759.059	1394.15
759.242	1404.39
759.426	1410.54
759.61	1406.44
759.794	1410.54
759.977	1523.18
760.161	1330.67
760.345	1435.11
760.528	1527.27
760.712	1383.91
760.895	1420.78
761.079	1383.91
761.263	1306.09
761.446	1316.33
761.63	1324.52
761.813	1371.63
761.997	1349.1
762.18	1289.71
762.364	1351.15
762.547	1181.17
762.731	1293.8
762.914	1332.72
763.098	1258.99
763.281	1345
763.464	1320.43
763.648	1242.61
763.831	1250.8
764.015	1170.93
764.198	1256.94
764.381	1199.6
764.564	1220.08
764.748	1256.94
764.931	1175.02
765.114	1269.23
765.297	1148.4
765.481	1224.17
765.664	1215.98
765.847	1164.78
766.03	1158.64
766.213	1189.36
766.397	1162.73
766.58	1181.17
766.763	1144.3
766.946	1144.3
767.129	1140.21
767.312	1170.93
767.495	1168.88
767.678	1029.62
767.861	1150.45
768.044	1076.72
768.227	1103.34
768.41	1070.58
768.593	1179.12
768.776	1095.15
768.959	1103.34
769.142	1029.62
769.324	990.7
769.507	1132.01
769.69	1089.01
769.873	1019.38
770.056	1080.82
770.239	1129.97
770.421	1091.06
770.604	1084.91
770.787	988.66
770.97	1013.23
771.152	1015.28
771.335	1115.63
771.518	1031.66
771.7	1023.47
771.883	1011.18
772.066	972.27
772.248	966.13
772.431	1011.18
772.613	1054.19
772.796	982.51
772.978	929.27
773.161	978.42
773.343	925.17
773.526	882.16
773.708	871.92
773.891	929.27
774.073	882.16
774.256	939.51
774.438	945.65
774.621	876.02
774.803	880.11
774.985	841.2
775.168	910.83
775.35	884.21
775.532	824.82
775.715	812.53
775.897	863.73
776.079	878.07
776.261	830.96
776.444	833.01
776.626	783.86
776.808	787.96
776.99	806.39
777.173	921.07
777.355	818.68
777.537	843.25
777.719	759.28
777.901	781.81
778.083	824.82
778.265	706.04
778.447	800.24
778.629	810.48
778.811	833.01
778.993	777.72
779.175	753.14
779.357	718.33
779.539	736.76
779.721	708.09
779.903	802.29
780.085	660.98
780.267	732.66
780.449	673.27
780.631	712.18
780.812	620.02
780.994	708.09
781.176	671.22
781.358	599.54
781.54	663.03
781.721	636.41
781.903	628.21
782.085	593.4
782.267	660.98
782.448	597.49
782.63	560.63
782.812	611.83
782.993	595.45
783.175	603.64
783.357	587.26
783.538	609.78
783.72	556.54
783.901	534.01
784.083	583.16
784.264	560.63
784.446	546.3
784.627	550.39
784.809	564.73
784.99	538.1
785.172	529.91
785.353	542.2
785.535	564.73
785.716	513.53
785.897	480.76
786.079	466.42
786.26	439.8
786.441	531.96
786.623	519.67
786.804	507.38
786.985	499.19
787.167	497.14
787.348	501.24
787.529	396.79
787.71	513.53
787.891	460.28
788.073	452.09
788.254	396.79
788.435	507.38
788.616	542.2
788.797	407.03
788.978	505.34
789.159	398.84
789.34	437.75
789.522	472.57
789.703	353.79
789.884	372.22
790.065	445.95
790.246	452.09
790.427	421.37
790.607	488.95
790.788	427.51
790.969	368.12
791.15	452.09
791.331	413.18
791.512	427.51
791.693	372.22
791.874	384.51
792.054	486.9
792.235	441.85
792.416	404.99
792.597	353.79
792.778	386.55
792.958	368.12
793.139	351.74
793.32	396.79
793.5	339.45
793.681	417.27
793.862	384.51
794.042	370.17
794.223	333.31
794.404	378.36
794.584	374.27
794.765	417.27
794.945	339.45
795.126	382.46
795.306	368.12
795.487	382.46
795.667	366.07
795.848	257.53
796.028	265.72
796.209	298.49
796.389	361.98
796.57	318.97
796.75	312.83
796.93	306.68
797.111	220.67
797.291	296.44
797.471	333.31
797.652	343.55
797.832	255.48
798.012	306.68
798.192	329.21
798.373	271.87
798.553	323.07
798.733	318.97
798.913	275.96
799.093	331.26
799.274	243.2
799.454	286.2
799.634	267.77
799.814	280.06
799.994	290.3
800.174	245.24
800.354	249.34
800.534	310.78
800.714	249.34
800.894	302.59
801.074	187.9
801.254	261.63
801.434	267.77
801.614	306.68
801.794	282.11
801.974	738.8
802.154	253.44
802.334	321.02
802.514	253.44
802.693	247.29
802.873	292.35
803.053	290.3
803.233	247.29
803.413	331.26
803.592	269.82
803.772	237.05
803.952	212.48
804.131	292.35
804.311	228.86
804.491	241.15
804.67	259.58
804.85	271.87
805.03	284.16
805.209	198.14
805.389	228.86
805.568	220.67
805.748	198.14
805.928	204.28
806.107	294.4
806.287	261.63
806.466	243.2
806.646	187.9
806.825	187.9
807.004	208.38
807.184	187.9
807.363	259.58
807.543	202.24
807.722	202.24
807.901	175.61
808.081	218.62
808.26	181.76
808.439	220.67
808.619	202.24
808.798	228.86
808.977	241.15
809.156	245.24
809.336	196.09
809.515	232.96
809.694	249.34
809.873	124.41
810.052	140.8
810.231	265.72
810.411	208.38
810.59	253.44
810.769	155.13
810.948	224.76
811.127	108.03
811.306	148.99
811.485	206.33
811.664	253.44
811.843	179.71
812.022	278.01
812.201	187.9
812.38	220.67
812.559	177.66
812.737	210.43
812.916	187.9
813.095	173.57
813.274	202.24
813.453	249.34
813.632	144.89
813.811	259.58
813.989	69.12
814.168	136.7
814.347	163.33
814.526	173.57
814.704	216.57
814.883	216.57
815.062	89.6
815.24	261.63
815.419	134.65
815.598	179.71
815.776	95.74
815.955	157.18
816.133	89.6
816.312	224.76
816.49	146.94
816.669	194.05
816.847	120.32
817.026	183.81
817.204	130.56
817.383	187.9
817.561	169.47
817.74	110.08
817.918	128.51
818.097	196.09
818.275	122.37
818.453	132.61
818.632	161.28
818.81	200.19
818.988	136.7
819.167	148.99
819.345	171.52
819.523	194.05
819.701	241.15
819.879	132.61
820.058	124.41
820.236	128.51
820.414	153.09
820.592	105.98
820.77	173.57
820.948	134.65
821.127	146.94
821.305	140.8
821.483	110.08
821.661	157.18
821.839	179.71
822.017	81.41
822.195	60.93
822.373	171.52
822.551	56.83
822.729	103.93
822.907	79.36
823.085	198.14
823.262	142.85
823.44	89.6
823.618	101.89
823.796	163.33
823.974	114.17
824.152	95.74
824.329	153.09
824.507	140.8
824.685	161.28
824.863	95.74
825.04	128.51
825.218	110.08
825.396	54.78
825.574	142.85
825.751	153.09
825.929	67.07
826.107	73.21
826.284	77.31
826.462	155.13
826.639	79.36
826.817	48.64
826.994	103.93
827.172	110.08
827.349	105.98
827.527	97.79
827.704	165.37
827.882	110.08
828.059	124.41
828.237	85.5
828.414	126.46
828.591	73.21
828.769	89.6
828.946	67.07
829.124	140.8
829.301	77.31
829.478	159.23
829.655	103.93
829.833	79.36
830.01	13.82
830.187	103.93
830.364	40.45
830.542	140.8
830.719	132.61
830.896	95.74
831.073	73.21
831.25	118.27
831.427	120.32
831.604	69.12
831.782	54.78
831.959	153.09
832.136	69.12
832.313	144.89
832.49	103.93
832.667	114.17
832.844	54.78
833.021	108.03
833.198	56.83
833.374	120.32
833.551	71.17
833.728	50.69
833.905	62.98
834.082	71.17
834.259	110.08
834.436	183.81
834.612	112.13
834.789	54.78
834.966	93.69
835.143	108.03
835.319	42.5
835.496	112.13
835.673	118.27
835.85	38.4
836.026	42.5
836.203	81.41
836.38	17.92
836.556	19.97
836.733	89.6
836.909	163.33
837.086	17.92
837.262	108.03
837.439	85.5
837.616	50.69
837.792	28.16
837.968	112.13
838.145	40.45
838.321	110.08
838.498	65.02
838.674	50.69
838.851	67.07
839.027	97.79
839.203	17.92
839.38	124.41
839.556	62.98
839.732	128.51
839.909	13.82
840.085	138.75
840.261	69.12
840.437	85.5
840.614	3.58
840.79	134.65
840.966	93.69
841.142	24.06
841.318	73.21
841.494	81.41
841.671	30.21
841.847	48.64
842.023	89.6
842.199	81.41
842.375	120.32
842.551	3.58
842.727	79.36
842.903	134.65
843.079	52.74
843.255	73.21
843.431	26.11
843.607	65.02
843.783	79.36
843.959	71.17
844.134	36.35
844.31	105.98
844.486	1.54
844.662	38.4
844.838	60.93
845.013	85.5
845.189	75.26
845.365	-12.8
845.541	112.13
845.716	56.83
845.892	26.11
846.068	5.63
846.244	77.31
846.419	77.31
846.595	30.21
846.77	9.73
846.946	91.65
847.122	58.88
847.297	30.21
847.473	62.98
847.648	17.92
847.824	46.59
847.999	11.78
848.175	3.58
848.35	56.83
848.526	140.8
848.701	62.98
848.876	79.36
849.052	-0.51
849.227	85.5
849.403	103.93
849.578	11.78
849.753	30.21
849.929	52.74
850.104	40.45
850.279	-8.7
850.454	81.41
850.63	48.64
850.805	26.11
850.98	60.93
851.155	-0.51
851.33	118.27
851.505	81.41
851.681	60.93
851.856	30.21
852.031	-0.51
852.206	40.45
852.381	42.5
852.556	54.78
852.731	105.98
852.906	58.88
853.081	144.89
853.256	85.5
853.431	42.5
853.606	58.88
853.781	28.16
853.956	13.82
854.131	71.17
854.305	73.21
854.48	40.45
854.655	13.82
854.83	13.82
855.005	-29.18
855.18	56.83
855.354	97.79
855.529	97.79
855.704	69.12
855.879	54.78
856.053	-31.23
856.228	65.02
856.403	3.58
856.577	56.83
856.752	101.89
856.926	48.64
857.101	15.87
857.276	13.82
857.45	3.58
857.625	28.16
857.799	36.35
857.974	17.92
858.148	46.59
858.323	24.06
858.497	22.02
858.672	-37.38
858.846	-4.61
859.02	140.8
859.195	-18.94
859.369	42.5
859.543	-16.9
859.718	9.73
859.892	26.11
860.066	71.17
860.241	-14.85
860.415	34.3
860.589	50.69
860.763	32.26
860.938	5.63
861.112	11.78
861.286	62.98
861.46	73.21
861.634	22.02
861.808	60.93
861.982	38.4
862.157	24.06
862.331	-8.7
862.505	32.26
862.679	-37.38
862.853	9.73
863.027	3.58
863.201	112.13
863.375	60.93
863.549	40.45
863.722	-8.7
863.896	48.64
864.07	22.02
864.244	-2.56
864.418	-12.8
864.592	44.54
864.766	40.45
864.939	17.92
865.113	19.97
865.287	40.45
865.461	-129.53
865.634	52.74
865.808	17.92
865.982	91.65
866.156	7.68
866.329	52.74
866.503	73.21
866.676	-23.04
866.85	-4.61
867.024	-16.9
867.197	65.02
867.371	-16.9
867.544	-8.7
867.718	24.06
867.891	-39.42
868.065	54.78
868.238	13.82
868.412	46.59
868.585	36.35
868.759	60.93
868.932	-8.7
869.105	19.97
869.279	-4.61
869.452	32.26
869.625	-23.04
869.799	79.36
869.972	-8.7
870.145	-37.38
870.319	-2.56
870.492	60.93
870.665	22.02
870.838	69.12
871.011	-47.62
871.185	3.58
871.358	-33.28
871.531	9.73
871.704	-8.7
871.877	42.5
872.05	9.73
872.223	-43.52
872.396	81.41
872.569	24.06
872.742	32.26
872.915	-14.85
873.088	-25.09
873.261	60.93
873.434	19.97
873.607	52.74
873.78	26.11
873.953	42.5
874.126	56.83
874.299	58.88
874.471	3.58
874.644	42.5
874.817	48.64
874.99	22.02
875.163	11.78
875.335	19.97
875.508	36.35
875.681	13.82
875.853	-51.71
876.026	7.68
876.199	26.11
876.371	-61.95
876.544	-6.66
876.717	34.3
876.889	-25.09
877.062	-10.75
877.234	17.92
877.407	-0.51
877.579	34.3
877.752	-51.71
877.924	65.02
878.097	69.12
878.269	60.93
878.442	-57.86
878.614	-12.8
878.786	52.74
878.959	-74.24
879.131	65.02
879.303	-2.56
879.476	22.02
879.648	85.5
879.82	-4.61
879.993	-2.56
880.165	-2.56
880.337	13.82
880.509	32.26
880.681	9.73
880.854	-20.99
881.026	-12.8
881.198	34.3
881.37	-39.42
881.542	-6.66
881.714	7.68
881.886	48.64
882.058	-41.47
882.23	-2.56
882.402	22.02
882.574	77.31
882.746	56.83
882.918	5.63
883.09	26.11
883.262	24.06
883.434	-23.04
883.606	22.02
883.778	40.45
883.95	60.93
884.122	50.69
884.293	67.07
884.465	-8.7
884.637	54.78
884.809	7.68
884.98	42.5
885.152	42.5
885.324	19.97
885.496	-25.09
885.667	9.73
885.839	-8.7
886.011	-16.9
886.182	-41.47
886.354	50.69
886.525	11.78
886.697	-104.96
886.869	3.58
887.04	-12.8
887.212	-25.09
887.383	44.54
887.555	-16.9
887.726	15.87
887.897	7.68
888.069	-43.52
888.24	13.82
888.412	19.97
888.583	3.58
888.754	-27.14
888.926	-0.51
889.097	44.54
889.268	-37.38
889.44	24.06
889.611	-20.99
889.782	83.45
889.953	-23.04
890.125	17.92
890.296	-2.56
890.467	9.73
890.638	19.97
890.809	19.97
890.98	-55.81
891.151	-25.09
891.323	-59.9
891.494	-29.18
891.665	46.59
891.836	15.87
892.007	-33.28
892.178	38.4
892.349	7.68
892.52	30.21
892.691	17.92
892.862	11.78
893.032	-90.62
893.203	-94.72
893.374	17.92
893.545	46.59
893.716	9.73
893.887	46.59
894.057	-35.33
894.228	24.06
894.399	-33.28
894.57	3.58
894.74	-0.51
894.911	-27.14
895.082	-20.99
895.253	30.21
895.423	-29.18
895.594	-18.94
895.764	65.02
895.935	-2.56
896.106	22.02
896.276	24.06
896.447	73.21
896.617	81.41
896.788	-8.7
896.958	-10.75
897.129	-10.75
897.299	-14.85
897.47	62.98
897.64	13.82
897.81	1.54
897.981	46.59
898.151	56.83
898.322	-14.85
898.492	46.59
898.662	-4.61
898.832	-84.48
899.003	1.54
899.173	58.88
899.343	-33.28
899.513	34.3
