Data from USB4F104151__54__11-45-12-550.txt Node

Date: Fri Mar 14 11:45:12 EDT 2025
User: louis
Spectrometer: USB4F10415
Trigger mode: 4
Integration Time (sec): 2.000000E-2
Scans to average: 1
Electric dark correction enabled: true
Nonlinearity correction enabled: false
Boxcar width: 0
XAxis mode: Wavelengths
Number of Pixels in Spectrum: 3648
>>>>>Begin Spectral Data<<<<<
178.204	-105.47
178.424	-105.47
178.644	-105.47
178.864	-46.08
179.084	-119.81
179.304	19.46
179.524	-46.08
179.744	-23.55
179.964	46.08
180.184	1.02
180.404	-11.26
180.624	58.37
180.844	19.46
181.064	-72.7
181.283	29.7
181.503	-33.79
181.723	13.31
181.943	-60.42
182.163	-15.36
182.383	1.02
182.602	37.89
182.822	1.02
183.042	-7.17
183.262	23.55
183.482	52.22
183.701	54.27
183.921	-7.17
184.141	-37.89
184.361	29.7
184.58	-11.26
184.8	48.13
185.02	-25.6
185.239	66.56
185.459	-7.17
185.679	-60.42
185.898	-91.13
186.118	-35.84
186.338	91.13
186.557	5.12
186.777	-19.46
186.997	-41.98
187.216	27.65
187.436	52.22
187.655	66.56
187.875	76.8
188.095	3.07
188.314	-3.07
188.534	11.26
188.753	-15.36
188.973	19.46
189.192	19.46
189.412	74.75
189.631	27.65
189.851	87.04
190.07	-9.22
190.29	52.22
190.509	76.8
190.729	-35.84
190.948	31.74
191.168	37.89
191.387	7.17
191.607	11.26
191.826	-48.13
192.045	-17.41
192.265	78.85
192.484	128
192.704	-25.6
192.923	-21.5
193.142	70.65
193.362	33.79
193.581	-27.65
193.8	44.03
194.02	64.51
194.239	-39.94
194.458	-17.41
194.678	52.22
194.897	1.02
195.116	39.94
195.335	9.22
195.555	74.75
195.774	3.07
195.993	56.32
196.212	-37.89
196.432	11.26
196.651	-3.07
196.87	46.08
197.089	5.12
197.308	-9.22
197.528	29.7
197.747	-50.18
197.966	64.51
198.185	13.31
198.404	29.7
198.623	1.02
198.842	21.5
199.062	48.13
199.281	11.26
199.5	7.17
199.719	48.13
199.938	-17.41
200.157	78.85
200.376	84.99
200.595	39.94
200.814	-58.37
201.033	64.51
201.252	93.18
201.471	-3.07
201.69	13.31
201.909	7.17
202.128	11.26
202.347	27.65
202.566	-27.65
202.785	31.74
203.004	-39.94
203.223	74.75
203.442	5.12
203.661	41.98
203.879	19.46
204.098	-39.94
204.317	13.31
204.536	41.98
204.755	62.46
204.974	117.76
205.193	17.41
205.411	70.65
205.63	44.03
205.849	62.46
206.068	-33.79
206.287	-9.22
206.505	-11.26
206.724	-15.36
206.943	23.55
207.162	-5.12
207.381	3.07
207.599	60.42
207.818	-13.31
208.037	-37.89
208.255	-19.46
208.474	21.5
208.693	-31.74
208.911	-7.17
209.13	50.18
209.349	37.89
209.567	44.03
209.786	15.36
210.005	-37.89
210.223	-21.5
210.442	17.41
210.661	-31.74
210.879	17.41
211.098	-11.26
211.316	19.46
211.535	128
211.753	44.03
211.972	82.94
212.191	-5.12
212.409	-7.17
212.628	50.18
212.846	52.22
213.065	29.7
213.283	66.56
213.502	17.41
213.72	-39.94
213.938	-11.26
214.157	117.76
214.375	72.7
214.594	35.84
214.812	17.41
215.031	46.08
215.249	33.79
215.467	21.5
215.686	44.03
215.904	52.22
216.122	-60.42
216.341	19.46
216.559	-56.32
216.778	-27.65
216.996	-19.46
217.214	62.46
217.432	48.13
217.651	15.36
217.869	19.46
218.087	13.31
218.306	-39.94
218.524	41.98
218.742	5.12
218.96	31.74
219.179	13.31
219.397	-5.12
219.615	37.89
219.833	80.89
220.051	-35.84
220.27	99.33
220.488	15.36
220.706	105.47
220.924	11.26
221.142	87.04
221.36	9.22
221.578	-21.5
221.796	-13.31
222.015	1.02
222.233	37.89
222.451	31.74
222.669	-54.27
222.887	19.46
223.105	50.18
223.323	-35.84
223.541	48.13
223.759	87.04
223.977	-52.22
224.195	17.41
224.413	21.5
224.631	66.56
224.849	25.6
225.067	60.42
225.285	29.7
225.503	23.55
225.721	19.46
225.939	27.65
226.157	21.5
226.375	91.13
226.592	84.99
226.81	-1.02
227.028	156.67
227.246	54.27
227.464	35.84
227.682	1.02
227.9	64.51
228.117	62.46
228.335	17.41
228.553	41.98
228.771	-21.5
228.989	-5.12
229.206	-13.31
229.424	52.22
229.642	-56.32
229.86	21.5
230.077	91.13
230.295	35.84
230.513	68.61
230.731	-15.36
230.948	9.22
231.166	3.07
231.384	-37.89
231.601	89.09
231.819	39.94
232.037	-13.31
232.254	-3.07
232.472	19.46
232.689	103.42
232.907	89.09
233.125	7.17
233.342	7.17
233.56	3.07
233.777	-3.07
233.995	5.12
234.213	72.7
234.43	46.08
234.648	62.46
234.865	3.07
235.083	11.26
235.3	15.36
235.518	23.55
235.735	78.85
235.953	17.41
236.17	27.65
236.388	39.94
236.605	58.37
236.822	17.41
237.04	1.02
237.257	84.99
237.475	-1.02
237.692	-5.12
237.909	44.03
238.127	5.12
238.344	7.17
238.562	31.74
238.779	5.12
238.996	76.8
239.214	29.7
239.431	44.03
239.648	68.61
239.865	5.12
240.083	64.51
240.3	-9.22
240.517	19.46
240.735	37.89
240.952	-19.46
241.169	44.03
241.386	13.31
241.603	33.79
241.821	5.12
242.038	9.22
242.255	44.03
242.472	48.13
242.689	46.08
242.907	15.36
243.124	-15.36
243.341	-15.36
243.558	27.65
243.775	-1.02
243.992	-31.74
244.209	39.94
244.426	48.13
244.643	15.36
244.86	5.12
245.078	11.26
245.295	35.84
245.512	33.79
245.729	-9.22
245.946	31.74
246.163	39.94
246.38	23.55
246.597	39.94
246.814	37.89
247.031	91.13
247.248	-19.46
247.464	39.94
247.681	15.36
247.898	-33.79
248.115	58.37
248.332	11.26
248.549	27.65
248.766	33.79
248.983	50.18
249.2	-11.26
249.417	-35.84
249.633	-1.02
249.85	60.42
250.067	5.12
250.284	39.94
250.501	11.26
250.717	119.81
250.934	-35.84
251.151	13.31
251.368	13.31
251.585	-5.12
251.801	-13.31
252.018	58.37
252.235	37.89
252.451	17.41
252.668	29.7
252.885	-33.79
253.102	23.55
253.318	-9.22
253.535	-3.07
253.752	-13.31
253.968	29.7
254.185	-41.98
254.401	-5.12
254.618	52.22
254.835	48.13
255.051	19.46
255.268	-80.89
255.484	17.41
255.701	25.6
255.917	52.22
256.134	-13.31
256.351	-1.02
256.567	-70.65
256.784	29.7
257	-7.17
257.217	19.46
257.433	78.85
257.65	-46.08
257.866	-27.65
258.082	-78.85
258.299	-21.5
258.515	29.7
258.732	-9.22
258.948	13.31
259.165	3.07
259.381	-7.17
259.597	-35.84
259.814	60.42
260.03	23.55
260.246	80.89
260.463	58.37
260.679	29.7
260.895	-44.03
261.112	35.84
261.328	60.42
261.544	-3.07
261.761	-5.12
261.977	76.8
262.193	60.42
262.409	-21.5
262.626	17.41
262.842	50.18
263.058	25.6
263.274	9.22
263.49	-13.31
263.707	29.7
263.923	21.5
264.139	39.94
264.355	78.85
264.571	33.79
264.787	19.46
265.004	13.31
265.22	39.94
265.436	33.79
265.652	5.12
265.868	17.41
266.084	23.55
266.3	66.56
266.516	-7.17
266.732	-5.12
266.948	103.42
267.164	84.99
267.38	41.98
267.596	54.27
267.812	11.26
268.028	25.6
268.244	17.41
268.46	-1.02
268.676	97.28
268.892	-60.42
269.108	-21.5
269.324	29.7
269.54	5.12
269.756	21.5
269.972	27.65
270.188	103.42
270.403	52.22
270.619	-15.36
270.835	5.12
271.051	54.27
271.267	-56.32
271.483	-41.98
271.698	37.89
271.914	13.31
272.13	-52.22
272.346	80.89
272.562	-5.12
272.777	-31.74
272.993	111.61
273.209	-3.07
273.425	31.74
273.64	-7.17
273.856	-3.07
274.072	-35.84
274.287	-19.46
274.503	56.32
274.719	62.46
274.934	66.56
275.15	134.14
275.366	48.13
275.581	11.26
275.797	91.13
276.012	56.32
276.228	39.94
276.444	21.5
276.659	117.76
276.875	-3.07
277.09	56.32
277.306	-46.08
277.521	-7.17
277.737	54.27
277.952	46.08
278.168	48.13
278.383	33.79
278.599	-37.89
278.814	80.89
279.03	-13.31
279.245	21.5
279.461	-27.65
279.676	-21.5
279.892	-21.5
280.107	39.94
280.322	27.65
280.538	78.85
280.753	9.22
280.969	95.23
281.184	11.26
281.399	23.55
281.615	82.94
281.83	39.94
282.045	-27.65
282.26	58.37
282.476	48.13
282.691	31.74
282.906	-21.5
283.122	-64.51
283.337	-3.07
283.552	121.85
283.767	-62.46
283.983	48.13
284.198	5.12
284.413	58.37
284.628	21.5
284.843	68.61
285.058	-5.12
285.274	54.27
285.489	29.7
285.704	111.61
285.919	-3.07
286.134	19.46
286.349	27.65
286.564	33.79
286.779	54.27
286.995	-46.08
287.21	11.26
287.425	91.13
287.64	5.12
287.855	48.13
288.07	21.5
288.285	5.12
288.5	44.03
288.715	89.09
288.93	25.6
289.145	-17.41
289.36	54.27
289.575	29.7
289.79	39.94
290.004	-3.07
290.219	103.42
290.434	-37.89
290.649	3.07
290.864	23.55
291.079	9.22
291.294	-5.12
291.509	-27.65
291.724	23.55
291.938	-35.84
292.153	33.79
292.368	33.79
292.583	52.22
292.798	-23.55
293.012	21.5
293.227	33.79
293.442	21.5
293.657	48.13
293.871	48.13
294.086	84.99
294.301	74.75
294.516	27.65
294.73	58.37
294.945	-3.07
295.16	78.85
295.374	56.32
295.589	15.36
295.804	33.79
296.018	21.5
296.233	3.07
296.447	80.89
296.662	-5.12
296.877	3.07
297.091	1.02
297.306	58.37
297.52	-17.41
297.735	64.51
297.949	72.7
298.164	56.32
298.378	29.7
298.593	25.6
298.807	-17.41
299.022	35.84
299.236	60.42
299.451	33.79
299.665	-19.46
299.88	-23.55
300.094	93.18
300.309	50.18
300.523	66.56
300.737	1.02
300.952	74.75
301.166	-15.36
301.381	-9.22
301.595	74.75
301.809	-17.41
302.024	-19.46
302.238	13.31
302.452	48.13
302.667	-21.5
302.881	82.94
303.095	7.17
303.309	62.46
303.524	44.03
303.738	82.94
303.952	21.5
304.166	37.89
304.381	-70.65
304.595	15.36
304.809	-37.89
305.023	41.98
305.237	15.36
305.452	33.79
305.666	48.13
305.88	56.32
306.094	52.22
306.308	-19.46
306.522	33.79
306.736	-82.94
306.95	80.89
307.164	-9.22
307.379	37.89
307.593	33.79
307.807	50.18
308.021	78.85
308.235	95.23
308.449	3.07
308.663	-11.26
308.877	11.26
309.091	13.31
309.305	117.76
309.519	19.46
309.733	80.89
309.947	70.65
310.161	93.18
310.374	-3.07
310.588	1.02
310.802	23.55
311.016	50.18
311.23	13.31
311.444	66.56
311.658	54.27
311.872	33.79
312.085	21.5
312.299	91.13
312.513	-31.74
312.727	66.56
312.941	-3.07
313.154	23.55
313.368	13.31
313.582	9.22
313.796	-5.12
314.009	17.41
314.223	60.42
314.437	-39.94
314.651	37.89
314.864	62.46
315.078	107.52
315.292	9.22
315.505	19.46
315.719	82.94
315.933	68.61
316.146	66.56
316.36	-84.99
316.573	23.55
316.787	15.36
317.001	68.61
317.214	-17.41
317.428	60.42
317.641	-3.07
317.855	23.55
318.068	60.42
318.282	72.7
318.495	125.95
318.709	-23.55
318.922	62.46
319.136	-21.5
319.349	3.07
319.563	31.74
319.776	60.42
319.99	87.04
320.203	50.18
320.417	58.37
320.63	-17.41
320.843	56.32
321.057	37.89
321.27	76.8
321.483	119.81
321.697	-27.65
321.91	37.89
322.124	56.32
322.337	19.46
322.55	-44.03
322.763	37.89
322.977	58.37
323.19	62.46
323.403	58.37
323.617	97.28
323.83	91.13
324.043	46.08
324.256	33.79
324.469	17.41
324.683	54.27
324.896	7.17
325.109	-25.6
325.322	-35.84
325.535	39.94
325.748	78.85
325.962	5.12
326.175	31.74
326.388	39.94
326.601	48.13
326.814	87.04
327.027	84.99
327.24	11.26
327.453	17.41
327.666	115.71
327.879	7.17
328.092	-25.6
328.305	78.85
328.518	99.33
328.731	52.22
328.944	31.74
329.157	23.55
329.37	25.6
329.583	91.13
329.796	33.79
330.009	44.03
330.222	-7.17
330.435	68.61
330.648	62.46
330.861	50.18
331.073	41.98
331.286	54.27
331.499	46.08
331.712	46.08
331.925	58.37
332.138	39.94
332.35	21.5
332.563	-52.22
332.776	70.65
332.989	66.56
333.202	-27.65
333.414	48.13
333.627	109.57
333.84	-33.79
334.053	54.27
334.265	93.18
334.478	31.74
334.691	41.98
334.903	80.89
335.116	52.22
335.329	46.08
335.541	50.18
335.754	64.51
335.966	39.94
336.179	-58.37
336.392	15.36
336.604	31.74
336.817	68.61
337.029	13.31
337.242	-1.02
337.454	17.41
337.667	74.75
337.88	1.02
338.092	50.18
338.305	33.79
338.517	17.41
338.729	-52.22
338.942	44.03
339.154	11.26
339.367	-29.7
339.579	87.04
339.792	39.94
340.004	58.37
340.217	119.81
340.429	46.08
340.641	-50.18
340.854	31.74
341.066	9.22
341.278	54.27
341.491	87.04
341.703	17.41
341.915	101.37
342.128	33.79
342.34	41.98
342.552	37.89
342.764	60.42
342.977	-5.12
343.189	-7.17
343.401	23.55
343.613	23.55
343.826	23.55
344.038	48.13
344.25	13.31
344.462	56.32
344.674	9.22
344.886	29.7
345.099	41.98
345.311	68.61
345.523	37.89
345.735	44.03
345.947	-9.22
346.159	33.79
346.371	37.89
346.583	35.84
346.795	72.7
347.007	50.18
347.219	-1.02
347.431	-23.55
347.643	109.57
347.855	48.13
348.067	78.85
348.279	27.65
348.491	48.13
348.703	-5.12
348.915	78.85
349.127	44.03
349.339	84.99
349.551	13.31
349.763	46.08
349.975	17.41
350.187	72.7
350.399	72.7
350.61	19.46
350.822	23.55
351.034	125.95
351.246	37.89
351.458	48.13
351.669	23.55
351.881	50.18
352.093	39.94
352.305	52.22
352.517	27.65
352.728	39.94
352.94	54.27
353.152	29.7
353.363	-41.98
353.575	50.18
353.787	87.04
353.999	23.55
354.21	68.61
354.422	39.94
354.633	-7.17
354.845	89.09
355.057	7.17
355.268	78.85
355.48	46.08
355.692	17.41
355.903	-5.12
356.115	-9.22
356.326	5.12
356.538	44.03
356.749	27.65
356.961	23.55
357.172	39.94
357.384	-58.37
357.595	142.33
357.807	74.75
358.018	52.22
358.23	-11.26
358.441	95.23
358.653	46.08
358.864	46.08
359.075	50.18
359.287	109.57
359.498	21.5
359.709	35.84
359.921	58.37
360.132	15.36
360.344	41.98
360.555	9.22
360.766	72.7
360.977	3.07
361.189	111.61
361.4	13.31
361.611	54.27
361.823	121.85
362.034	60.42
362.245	17.41
362.456	25.6
362.667	48.13
362.879	44.03
363.09	54.27
363.301	48.13
363.512	9.22
363.723	52.22
363.935	31.74
364.146	50.18
364.357	132.09
364.568	95.23
364.779	13.31
364.99	115.71
365.201	-46.08
365.412	74.75
365.623	52.22
365.834	52.22
366.045	56.32
366.256	60.42
366.467	-5.12
366.678	25.6
366.889	76.8
367.1	21.5
367.311	27.65
367.522	27.65
367.733	70.65
367.944	76.8
368.155	76.8
368.366	19.46
368.577	109.57
368.788	99.33
368.999	91.13
369.209	97.28
369.42	113.66
369.631	166.91
369.842	115.71
370.053	29.7
370.264	130.05
370.474	54.27
370.685	19.46
370.896	17.41
371.107	87.04
371.317	105.47
371.528	56.32
371.739	60.42
371.95	33.79
372.16	37.89
372.371	44.03
372.582	-35.84
372.792	54.27
373.003	21.5
373.214	13.31
373.424	74.75
373.635	46.08
373.846	109.57
374.056	31.74
374.267	13.31
374.477	41.98
374.688	5.12
374.898	25.6
375.109	27.65
375.319	21.5
375.53	74.75
375.74	-13.31
375.951	60.42
376.161	70.65
376.372	15.36
376.582	70.65
376.793	35.84
377.003	48.13
377.214	91.13
377.424	78.85
377.635	76.8
377.845	23.55
378.055	97.28
378.266	33.79
378.476	13.31
378.686	56.32
378.897	54.27
379.107	50.18
379.317	48.13
379.528	99.33
379.738	54.27
379.948	62.46
380.158	41.98
380.369	-37.89
380.579	68.61
380.789	115.71
380.999	25.6
381.21	66.56
381.42	82.94
381.63	87.04
381.84	89.09
382.05	31.74
382.261	138.24
382.471	56.32
382.681	27.65
382.891	66.56
383.101	50.18
383.311	66.56
383.521	80.89
383.731	115.71
383.941	158.72
384.151	15.36
384.361	58.37
384.571	13.31
384.781	150.53
384.991	5.12
385.201	95.23
385.411	25.6
385.621	66.56
385.831	136.19
386.041	19.46
386.251	11.26
386.461	74.75
386.671	-7.17
386.881	50.18
387.091	50.18
387.301	21.5
387.511	48.13
387.72	46.08
387.93	68.61
388.14	91.13
388.35	29.7
388.56	99.33
388.769	97.28
388.979	33.79
389.189	66.56
389.399	99.33
389.609	7.17
389.818	15.36
390.028	119.81
390.238	46.08
390.447	189.44
390.657	17.41
390.867	64.51
391.076	105.47
391.286	82.94
391.496	37.89
391.705	58.37
391.915	70.65
392.125	150.53
392.334	115.71
392.544	29.7
392.753	68.61
392.963	23.55
393.172	62.46
393.382	66.56
393.591	140.29
393.801	80.89
394.01	84.99
394.22	107.52
394.429	64.51
394.639	66.56
394.848	39.94
395.058	60.42
395.267	46.08
395.477	150.53
395.686	74.75
395.895	123.9
396.105	66.56
396.314	68.61
396.524	68.61
396.733	95.23
396.942	138.24
397.152	27.65
397.361	199.68
397.57	60.42
397.78	171.01
397.989	91.13
398.198	95.23
398.407	107.52
398.617	128
398.826	78.85
399.035	44.03
399.244	138.24
399.453	64.51
399.663	21.5
399.872	44.03
400.081	111.61
400.29	140.29
400.499	99.33
400.708	166.91
400.917	91.13
401.127	87.04
401.336	50.18
401.545	87.04
401.754	154.62
401.963	146.43
402.172	111.61
402.381	171.01
402.59	130.05
402.799	103.42
403.008	181.25
403.217	164.86
403.426	91.13
403.635	93.18
403.844	76.8
404.053	185.34
404.262	142.33
404.471	207.87
404.68	228.35
404.888	183.29
405.097	134.14
405.306	205.82
405.515	140.29
405.724	199.68
405.933	201.72
406.142	134.14
406.35	95.23
406.559	136.19
406.768	160.77
406.977	187.39
407.185	164.86
407.394	173.05
407.603	156.67
407.812	197.63
408.02	228.35
408.229	216.06
408.438	203.77
408.646	183.29
408.855	238.59
409.064	271.36
409.272	275.45
409.481	257.02
409.69	324.6
409.898	250.88
410.107	320.51
410.315	340.99
410.524	285.69
410.733	379.9
410.941	279.55
411.15	412.67
411.358	336.89
411.567	412.67
411.775	398.33
411.984	369.66
412.192	447.48
412.401	445.43
412.609	531.45
412.818	519.16
413.026	506.87
413.234	504.82
413.443	553.98
413.651	492.54
413.86	504.82
414.068	537.59
414.276	615.41
414.485	599.03
414.693	627.7
414.901	766.96
415.11	642.04
415.318	762.87
415.526	758.77
415.734	752.63
415.943	738.29
416.151	836.6
416.359	775.16
416.567	850.93
416.776	912.37
416.984	1049.58
417.192	1012.72
417.4	1020.91
417.608	1010.67
417.817	1041.39
418.025	1080.3
418.233	1108.98
418.441	1213.42
418.649	1272.81
418.857	1379.31
419.065	1311.72
419.273	1274.86
419.481	1393.64
419.689	1526.76
419.897	1459.18
420.105	1582.06
420.313	1577.96
420.521	1580.01
420.729	1719.27
420.937	1674.21
421.145	1805.28
421.353	1897.44
421.561	1891.3
421.769	2030.56
421.977	2057.18
422.185	2063.33
422.393	2225.12
422.601	2194.4
422.809	2274.27
423.017	2202.59
423.224	2304.99
423.432	2632.66
423.64	2458.59
423.848	2743.25
424.056	2647
424.263	2786.26
424.471	2786.26
424.679	2896.85
424.887	2943.96
425.094	3202
425.302	3195.86
425.51	3357.64
425.718	3503.05
425.925	3402.7
426.133	3627.98
426.341	3742.66
426.548	4012.99
426.756	3867.59
426.964	3974.08
427.171	4121.54
427.379	4338.62
427.586	4428.73
427.794	4555.71
428.001	4623.29
428.209	5018.55
428.417	4754.36
428.624	5204.91
428.832	5102.51
429.039	5168.05
429.247	5090.23
429.454	5882.79
429.662	5993.38
429.869	5692.33
430.076	6048.68
430.284	5847.97
430.491	6200.23
430.699	6390.69
430.906	6527.9
431.114	6759.32
431.321	6931.35
431.528	7105.43
431.736	7390.1
431.943	7609.23
432.15	7549.84
432.358	7685
432.565	8070.02
432.772	7906.18
432.979	8508.29
433.187	8614.78
433.394	8586.11
433.601	9384.82
433.808	9118.58
434.016	9012.09
434.223	9556.85
434.43	10232.68
434.637	9855.85
434.844	10525.54
435.052	10707.8
435.259	10640.22
435.466	10736.48
435.673	10642.27
435.88	11449.17
436.087	11780.94
436.294	12036.94
436.501	11617.1
436.708	11930.44
436.915	12335.94
437.122	12778.3
437.329	12911.42
437.537	13239.09
437.743	13546.29
437.95	13280.05
438.157	14254.89
438.364	14428.96
438.571	14551.84
438.778	14553.89
438.985	15901.45
439.192	15317.78
439.399	15903.5
439.606	15287.06
439.813	16513.8
440.02	17353.46
440.227	17001.21
440.433	16870.14
440.64	17234.68
440.847	17093.37
441.054	17646.32
441.261	19241.69
441.467	18842.34
441.674	19114.72
441.881	19577.56
442.088	19802.83
442.294	19653.33
442.501	19989.2
442.708	20409.03
442.914	20941.5
443.121	21852.85
443.328	21441.21
443.534	22864.55
443.741	22389.42
443.948	22135.47
444.154	23536.28
444.361	23509.66
444.568	24050.32
444.774	23837.33
444.981	24074.9
445.187	24752.77
445.394	25846.39
445.6	25252.48
445.807	27501.15
446.013	26706.54
446.22	27298.4
446.426	28138.07
446.633	28512.84
446.839	29778.49
447.046	28109.4
447.252	29639.23
447.459	29731.39
447.665	29819.45
447.871	30876.2
448.078	32201.24
448.284	31203.88
448.491	31232.55
448.697	32879.11
448.903	33475.07
449.11	33921.53
449.316	32909.83
449.522	33647.1
449.728	34136.57
449.935	34486.77
450.141	34437.62
450.347	35232.23
450.553	34267.64
450.76	35144.17
450.966	36047.32
451.172	35555.81
451.378	36501.97
451.584	35926.49
451.791	36602.32
451.997	36352.47
452.203	37013.96
452.409	37210.57
452.615	37087.69
452.821	35240.42
453.027	34867.69
453.233	37028.3
453.44	35557.86
453.646	36108.76
453.852	35918.3
454.058	36733.39
454.264	35729.89
454.47	36299.22
454.676	35473.89
454.882	36813.26
455.088	33520.13
455.294	34165.24
455.5	34335.22
455.705	34808.3
455.911	33276.42
456.117	32952.84
456.323	32244.24
456.529	30573.1
456.735	32078.36
456.941	31050.28
457.147	30743.08
457.352	30046.77
457.558	29389.38
457.764	29571.64
457.97	29117
458.176	28469.84
458.381	28232.27
458.587	26708.58
458.793	26774.12
458.999	25236.09
459.204	27312.74
459.41	26823.27
459.616	24933
459.821	24963.72
460.027	24644.23
460.233	24394.38
460.438	23009.95
460.644	23296.67
460.85	22293.16
461.055	21848.75
461.261	22043.31
461.466	20128.46
461.672	19499.73
461.878	20994.75
462.083	19819.22
462.289	19538.65
462.494	19014.37
462.7	18281.19
462.905	17771.25
463.111	18340.58
463.316	18359.02
463.522	18223.85
463.727	17859.31
463.932	18285.29
464.138	17754.87
464.343	17978.09
464.549	17208.06
464.754	17836.78
464.959	17785.58
465.165	17593.08
465.37	16898.81
465.575	16478.98
465.781	17093.37
465.986	17335.03
466.191	16646.91
466.397	16311.05
466.602	15393.56
466.807	16126.73
467.012	15868.69
467.218	16098.06
467.423	15772.43
467.628	15950.6
467.833	16456.45
468.038	15788.82
468.244	15508.24
468.449	16161.55
468.654	15659.79
468.859	15393.56
469.064	15610.64
469.269	14750.49
469.474	14971.68
469.679	15244.06
469.885	14777.12
470.09	15002.4
470.295	14979.87
470.5	14349.09
470.705	14764.83
470.91	14224.17
471.115	14224.17
471.32	14291.75
471.525	14242.6
471.73	14009.13
471.935	13923.12
472.139	13394.74
472.344	13443.89
472.549	13400.88
472.754	13302.58
472.959	13120.31
473.164	12811.07
473.369	12587.84
473.574	13089.59
473.778	13001.53
473.983	12741.44
474.188	12555.07
474.393	12407.62
474.598	12096.33
474.802	12071.75
475.007	11950.92
475.212	12206.92
475.417	11739.98
475.621	11498.32
475.826	11676.49
476.031	11563.86
476.235	11201.37
476.44	11365.2
476.645	11105.11
476.849	11248.47
477.054	11015
477.259	10883.93
477.463	10861.4
477.668	10666.85
477.872	10654.56
478.077	10543.97
478.282	10339.17
478.486	10326.88
478.691	10253.16
478.895	10015.59
479.1	10079.08
479.304	10050.41
479.509	9737.07
479.713	10031.97
479.918	9579.37
480.122	9370.48
480.326	9548.65
480.531	9655.15
480.735	9495.41
480.94	9427.82
481.144	9669.48
481.348	9278.32
481.553	9378.67
481.757	9272.18
481.961	9139.06
482.166	9470.83
482.37	9284.47
482.574	9229.17
482.778	9247.6
482.983	9395.06
483.187	9124.72
483.391	9431.92
483.595	9218.93
483.8	9102.2
484.004	9315.19
484.208	9206.64
484.412	9333.62
484.616	9409.39
484.821	9173.88
485.025	9089.91
485.229	9433.97
485.433	9163.64
485.637	9220.98
485.841	9288.56
486.045	9085.81
486.249	9300.85
486.453	9081.72
486.657	9061.24
486.861	9358.19
487.065	8967.03
487.269	9210.74
487.473	9094.01
487.677	9309.04
487.881	9225.08
488.085	9081.72
488.289	9083.77
488.493	9188.21
488.697	9395.06
488.901	9233.27
489.105	9216.88
489.309	9300.85
489.512	9423.73
489.716	9519.98
489.92	9337.71
490.124	9460.59
490.328	9499.5
490.531	9331.57
490.735	9384.82
490.939	9565.04
491.143	9298.8
491.346	9409.39
491.55	9552.75
491.754	9599.85
491.958	9462.64
492.161	9468.78
492.365	9589.61
492.569	9644.91
492.772	9587.57
492.976	9730.92
493.18	9816.94
493.383	9982.82
493.587	9861.99
493.79	10005.35
493.994	9882.47
494.197	10165.09
494.401	10218.34
494.605	10214.24
494.808	10326.88
495.012	10281.83
495.215	10441.57
495.419	10433.38
495.622	10373.99
495.825	10720.09
496.029	10744.67
496.232	10855.26
496.436	10922.84
496.639	10933.08
496.843	10959.7
497.046	11418.45
497.249	11174.74
497.453	11252.56
497.656	11557.71
497.859	11453.27
498.063	11529.04
498.266	11862.86
498.469	11774.8
498.673	11637.58
498.876	12079.94
499.079	12284.74
499.282	12266.31
499.485	12495.68
499.689	12680
499.892	12794.68
500.095	13085.5
500.298	13157.18
500.501	13122.36
500.705	13478.71
500.908	13480.75
501.111	13599.54
501.314	13624.11
501.517	13595.44
501.72	14232.36
501.923	13962.03
502.126	14197.54
502.329	14392.1
502.532	14656.29
502.735	14703.39
502.938	14986.01
503.141	14816.03
503.344	15096.6
503.547	15205.14
503.75	15428.37
503.953	15960.84
504.156	15950.6
504.359	16153.35
504.562	16155.4
504.765	16503.56
504.968	16691.97
505.17	16933.63
505.373	16622.34
505.576	17111.8
505.779	17263.35
505.982	17361.66
506.185	17572.6
506.387	17722.1
506.59	17625.84
506.793	18334.44
506.996	17916.65
507.198	18649.83
507.401	18434.79
507.604	18756.32
507.807	19174.11
508.009	19239.64
508.212	19362.52
508.415	19905.23
508.617	19645.14
508.82	19786.45
509.022	19616.47
509.225	20501.19
509.428	20562.63
509.63	20548.29
509.833	20804.29
510.035	21146.3
510.238	21379.77
510.44	21269.18
510.643	21783.22
510.845	21992.11
511.048	21801.65
511.25	22071.98
511.453	22305.45
511.655	23268
511.858	22674.09
512.06	22952.61
512.262	23044.77
512.465	23552.66
512.667	23634.58
512.87	23679.64
513.072	23882.39
513.274	24218.25
513.477	24386.19
513.679	24926.85
513.881	25016.96
514.084	25459.32
514.286	25303.68
514.488	25535.1
514.69	26059.38
514.893	26264.18
515.095	26327.66
515.297	26706.54
515.499	26544.75
515.701	26849.89
515.904	27101.79
516.106	27476.57
516.308	27421.28
516.51	27828.82
516.712	27886.17
516.914	28568.14
517.116	28588.62
517.318	28883.53
517.52	28707.4
517.722	28738.12
517.925	29315.65
518.127	29796.92
518.329	29768.25
518.531	29620.8
518.733	30349.87
518.935	30771.75
519.136	30534.19
519.338	31068.71
519.54	31382.05
519.742	31197.73
519.944	31697.44
520.146	32027.16
520.348	32104.98
520.55	32219.67
520.752	32252.44
520.954	32928.27
521.155	32711.18
521.357	33051.14
521.559	33372.67
521.761	33835.52
521.963	34044.41
522.164	33872.38
522.366	34306.55
522.568	34019.83
522.77	34634.22
522.971	35299.81
523.173	35021.29
523.375	35412.45
523.576	35162.6
523.778	35576.29
523.98	35985.88
524.181	36157.91
524.383	35842.53
524.584	36473.3
524.786	36770.25
524.988	36530.64
525.189	37110.22
525.391	37306.82
525.592	37257.67
525.794	37212.62
525.995	37394.89
526.197	37394.89
526.398	37575.11
526.6	38246.84
526.801	38097.34
527.003	38136.25
527.204	38189.5
527.406	38996.4
527.607	38764.98
527.808	38885.81
528.01	38646.19
528.211	38746.54
528.412	39084.46
528.614	39078.32
528.815	39057.84
529.016	39569.83
529.218	39348.65
529.419	39508.39
529.62	39696.8
529.822	39358.89
530.023	39492.01
530.224	39528.87
530.425	39868.83
530.626	39322.02
530.828	39901.6
531.029	40573.33
531.23	39756.19
531.431	39874.98
531.632	40413.59
531.833	40368.54
532.035	39852.45
532.236	40296.86
532.437	40647.06
532.638	40149.4
532.839	40509.85
533.04	41007.5
533.241	40311.19
533.442	40753.55
533.643	40577.43
533.844	40612.24
534.045	40681.88
534.246	40309.14
534.447	40970.64
534.648	40407.45
534.849	40475.03
535.05	40565.14
535.251	40546.71
535.451	40368.54
535.652	40569.24
535.853	40683.92
536.054	40556.95
536.255	40651.16
536.456	40423.83
536.657	41161.1
536.857	40956.3
537.058	40143.26
537.259	40894.86
537.46	40581.52
537.66	40624.53
537.861	40933.78
538.062	40501.65
538.263	40927.63
538.463	40499.61
538.664	40610.2
538.865	40812.95
539.065	40948.11
539.266	40376.73
539.466	41044.37
539.667	40098.2
539.868	41087.37
540.068	40442.26
540.269	40706.45
540.469	40876.43
540.67	40683.92
540.87	40671.64
541.071	40487.32
541.271	40389.02
541.472	40225.18
541.672	40681.88
541.873	40405.4
542.073	39772.58
542.274	40653.2
542.474	40522.13
542.675	40190.36
542.875	40606.1
543.075	40401.3
543.276	40051.1
543.476	40661.4
543.676	40014.24
543.877	40501.65
544.077	40663.44
544.277	40264.09
544.478	40231.32
544.678	40296.86
544.878	40292.76
545.078	40454.55
545.279	40167.84
545.479	40237.47
545.679	40462.74
545.879	40239.51
546.079	39836.06
546.28	40239.51
546.48	39807.39
546.68	40294.81
546.88	40604.05
547.08	40268.19
547.28	39758.24
547.48	39883.17
547.68	40311.19
547.88	39707.04
548.081	39889.31
548.281	40143.26
548.481	39573.92
548.681	40319.38
548.881	40173.98
549.081	39993.76
549.28	39582.12
549.48	40454.55
549.68	39928.22
549.88	40325.53
550.08	39772.58
550.28	39764.39
550.48	39661.99
550.68	40354.2
550.88	39762.34
551.08	39799.2
551.279	39707.04
551.479	39446.95
551.679	39688.61
551.879	39782.82
552.079	40085.92
552.278	39420.33
552.478	39807.39
552.678	39848.35
552.878	39879.07
553.077	39567.78
553.277	39430.57
553.477	39881.12
553.676	39725.47
553.876	39637.41
554.076	39520.68
554.275	39379.37
554.475	39231.91
554.674	39504.29
554.874	39631.27
555.074	39264.68
555.273	39557.54
555.473	39758.24
555.672	39356.84
555.872	39416.23
556.071	39440.81
556.271	39637.41
556.47	38986.16
556.67	38668.72
556.869	38934.96
557.068	39246.25
557.268	38863.28
557.467	39188.91
557.667	39197.1
557.866	38752.69
558.065	38554.04
558.265	38576.56
558.464	38611.38
558.663	38980.01
558.863	38470.07
559.062	38715.83
559.261	38205.88
559.461	38930.86
559.66	38136.25
559.859	38347.19
560.058	38113.72
560.258	38734.26
560.457	37835.2
560.656	38601.14
560.855	38142.39
561.054	38316.47
561.253	37960.12
561.453	38083
561.652	38334.9
561.851	37984.7
562.05	38369.72
562.249	37927.36
562.448	37913.02
562.647	37880.25
562.846	37552.58
563.045	37491.14
563.244	37312.97
563.443	37605.83
563.642	37550.53
563.841	37810.62
564.04	37149.13
564.239	37632.45
564.438	36764.11
564.637	37321.16
564.836	37366.21
565.035	36663.76
565.234	37147.08
565.432	37036.49
565.631	36604.37
565.83	36862.41
566.029	36620.75
566.228	36547.03
566.427	36667.86
566.625	36297.17
566.824	36149.72
567.023	36590.03
567.222	35760.61
567.42	36395.48
567.619	36268.5
567.818	36092.38
568.016	35912.16
568.215	36041.18
568.414	35594.72
568.612	35928.54
568.811	35641.82
569.01	35533.28
569.208	35125.74
569.407	35992.03
569.605	35176.94
569.804	35652.06
570.002	34869.74
570.201	35527.14
570.4	34781.68
570.598	34871.79
570.797	34681.33
570.995	35074.54
571.193	34509.3
571.392	34953.71
571.59	34572.78
571.789	34447.86
571.987	34834.92
572.186	34529.78
572.384	34226.68
572.582	34664.94
572.781	34658.8
572.979	33915.39
573.177	33942.01
573.376	34011.64
573.574	33694.21
573.772	34304.5
573.971	33966.59
574.169	33419.78
574.367	33305.09
574.565	33528.32
574.763	33348.1
574.962	33425.92
575.16	33208.84
575.358	33352.2
575.556	33065.48
575.754	33563.14
575.952	32995.85
576.151	33597.95
576.349	32680.46
576.547	32942.6
576.745	32766.48
576.943	32926.22
577.141	32684.56
577.339	32743.95
577.537	32129.56
577.735	32461.33
577.933	32072.21
578.131	32414.23
578.329	32215.57
578.527	31957.53
578.725	31779.36
578.923	31963.67
579.121	31574.56
579.319	31668.76
579.516	31941.14
579.714	31312.42
579.912	31558.17
580.11	31199.78
580.308	31474.21
580.506	31466.02
580.704	30861.87
580.901	31193.64
581.099	31304.23
581.297	30704.17
581.495	30812.71
581.692	31078.95
581.89	30734.89
582.088	30831.15
582.285	30417.46
582.483	30759.47
582.681	30720.56
582.878	30292.53
583.076	30011.96
583.274	30102.07
583.471	30069.3
583.669	29915.7
583.866	30075.45
584.064	30204.47
584.262	29960.76
584.459	29973.05
584.657	29483.58
584.854	29628.99
585.052	29325.89
585.249	29594.17
585.447	29612.6
585.644	29231.68
585.841	29551.17
586.039	29620.8
586.236	28813.9
586.434	28791.37
586.631	29104.71
586.828	28748.36
587.026	28424.78
587.223	28627.53
587.42	28500.56
587.618	28727.88
587.815	28291.66
588.012	28240.47
588.21	28064.34
588.407	28367.44
588.604	28170.83
588.801	27867.73
588.999	27984.47
589.196	27916.89
589.393	27873.88
589.59	27816.54
589.787	27751
589.984	27746.9
590.182	27447.9
590.379	27511.39
590.576	27243.1
590.773	27286.11
590.97	27290.21
591.167	27691.61
591.364	26798.7
591.561	27171.43
591.758	27138.66
591.955	26806.89
592.152	27040.36
592.349	26780.26
592.546	26778.22
592.743	26880.61
592.94	26268.27
593.137	26655.34
593.334	26847.85
593.531	25969.27
593.727	26339.95
593.924	26206.83
594.121	26057.33
594.318	26303.09
594.515	25727.61
594.712	26200.69
594.908	25688.7
595.105	26034.8
595.302	25434.75
595.499	25567.87
595.696	25657.98
595.892	25426.56
596.089	25569.91
596.286	25287.29
596.482	25145.98
596.679	25246.33
596.876	25170.56
597.072	25012.87
597.269	25043.59
597.466	24959.62
597.662	24795.78
597.859	24611.46
598.055	25029.25
598.252	24697.48
598.448	24568.46
598.645	24683.14
598.841	24507.02
599.038	24365.71
599.234	24484.49
599.431	24156.82
599.627	23843.48
599.824	24019.6
600.02	23974.55
600.217	23968.4
600.413	23640.73
600.609	23698.07
600.806	23884.44
601.002	23777.94
601.198	23468.7
601.395	23356.06
601.591	23102.11
601.787	23175.84
601.984	23251.61
602.18	23552.66
602.376	23161.5
602.572	23407.26
602.769	23261.85
602.965	22870.69
603.161	23089.82
603.357	23018.14
603.553	22583.98
603.75	22518.44
603.946	22422.19
604.142	22803.11
604.338	22282.92
604.534	22330.03
604.73	22080.18
604.926	22141.61
605.122	22092.46
605.318	21963.44
605.514	21936.82
605.71	21988.02
605.906	21840.56
606.102	21758.64
606.298	22018.74
606.494	22016.69
606.69	21826.23
606.886	21648.05
607.082	21396.15
607.278	21858.99
607.474	21465.78
607.67	21457.59
607.866	21146.3
608.062	21752.5
608.257	21252.8
608.453	21377.72
608.649	21316.28
608.845	21074.62
609.041	21080.77
609.236	21250.75
609.432	20851.39
609.628	21140.16
609.824	20947.65
610.019	20835.01
610.215	21029.57
610.411	21119.68
610.606	20824.77
610.802	20820.67
610.998	20783.81
611.193	20710.08
611.389	20531.91
611.584	20581.06
611.78	20370.12
611.976	20511.43
612.171	20564.68
612.367	20564.68
612.562	20531.91
612.758	20400.84
612.953	20142.8
613.149	20626.12
613.344	20138.7
613.539	20466.38
613.735	20320.97
613.93	20269.77
614.126	20388.55
614.321	20464.33
614.517	20118.22
614.712	20202.19
614.907	19772.11
615.103	20105.93
615.298	19970.77
615.493	20120.27
615.688	19733.2
615.884	20273.87
616.079	19722.96
616.274	19735.25
616.47	20021.97
616.665	19770.07
616.86	19411.67
617.055	19499.73
617.25	19849.94
617.445	19608.28
617.641	19440.34
617.836	19823.31
618.031	19419.86
618.226	19198.68
618.421	19403.48
618.616	19309.27
618.811	19086.04
619.006	19552.98
619.201	18897.63
619.396	18963.17
619.591	18696.93
619.786	18885.34
619.981	18821.86
620.176	18864.86
620.371	18672.36
620.566	18436.84
620.761	18326.25
620.956	18594.53
621.151	18203.37
621.346	18027.24
621.541	17896.17
621.735	18508.52
621.93	17763.06
622.125	18135.79
622.32	17509.11
622.515	17658.61
622.709	17586.93
622.904	17611.51
623.099	17597.17
623.294	17214.2
623.488	17220.35
623.683	17206.01
623.878	17087.23
624.072	16984.83
624.267	17027.84
624.462	16902.91
624.656	16825.09
624.851	16511.75
625.046	16884.48
625.24	16487.17
625.435	16317.19
625.629	16171.79
625.824	16259.85
626.018	16143.11
626.213	15678.22
626.407	15999.76
626.602	15809.29
626.796	15864.59
626.991	15942.41
627.185	15461.14
627.38	15559.44
627.574	15622.93
627.768	15170.33
627.963	15237.91
628.157	15186.71
628.352	15426.32
628.546	15000.35
628.74	14916.38
628.935	14736.16
629.129	14820.13
629.323	14504.74
629.517	14611.23
629.712	14687.01
629.906	14365.48
630.1	14410.53
630.294	14428.96
630.489	14113.58
630.683	14361.38
630.877	14132.01
631.071	14019.37
631.265	14054.19
631.459	14033.71
631.653	13921.07
631.848	13939.5
632.042	13624.11
632.236	13628.21
632.43	13759.28
632.624	13601.58
632.818	13466.42
633.012	13210.42
633.206	13263.67
633.4	13239.09
633.594	13103.93
633.788	13134.65
633.982	13042.49
634.176	13007.67
634.369	13144.89
634.563	12647.23
634.757	12804.92
634.951	12733.25
635.145	12782.4
635.339	12770.11
635.533	12467.01
635.726	12616.51
635.92	12227.4
636.114	12350.28
636.308	12278.6
636.501	12143.43
636.695	11932.49
636.889	12006.22
637.083	12274.5
637.276	11879.24
637.47	11944.78
637.664	11815.76
637.857	11895.63
638.051	11600.72
638.244	11584.34
638.438	11666.25
638.632	11600.72
638.825	11328.34
639.019	11383.63
639.212	11295.57
639.406	11293.52
639.599	11273.04
639.793	11430.74
639.986	10906.46
640.18	11006.81
640.373	11043.67
640.567	10883.93
640.76	11158.36
640.954	10607.45
641.147	10482.53
641.34	10605.41
641.534	10654.56
641.727	10613.6
641.92	10404.71
642.114	10543.97
642.307	10363.75
642.5	10562.4
642.694	10249.06
642.887	10042.21
643.08	10316.64
643.273	10169.19
643.467	10197.86
643.66	10005.35
643.853	9919.34
644.046	9825.13
644.239	9968.49
644.432	9804.65
644.626	9845.61
644.819	9839.47
645.012	9798.51
645.205	9706.35
645.398	9669.48
645.591	9712.49
645.784	9679.72
645.977	9470.83
646.17	9460.59
646.363	9405.3
646.556	9474.93
646.749	9266.03
646.942	9141.11
647.135	9268.08
647.328	9094.01
647.521	9030.52
647.714	8905.59
647.907	9096.05
648.099	8932.22
648.292	9134.96
648.485	8878.97
648.678	8745.85
648.871	8799.1
649.064	8821.63
649.256	8778.62
649.449	8766.33
649.642	8674.17
649.835	8582.01
650.027	8356.74
650.22	8434.56
650.413	8358.78
650.605	8272.77
650.798	8291.2
650.991	8289.15
651.183	8227.71
651.376	8016.77
651.568	8213.38
651.761	8201.09
651.954	7922.57
652.146	8127.36
652.339	7981.96
652.531	8043.4
652.724	7883.66
652.916	7816.07
653.109	7826.31
653.301	7807.88
653.494	7889.8
653.686	7738.25
653.879	7912.33
654.071	7768.97
654.263	7525.26
654.456	7605.13
654.648	7531.41
654.84	7369.62
655.033	7562.12
655.225	7406.48
655.417	7203.73
655.61	7281.55
655.802	7490.45
655.994	7130
656.186	7130
656.379	7091.09
656.571	7191.44
656.763	7041.94
656.955	7093.14
657.148	7117.72
657.34	7183.25
657.532	6859.67
657.724	6818.71
657.916	6818.71
658.108	6882.2
658.3	6857.62
658.492	6744.99
658.684	6503.32
658.876	6730.65
659.068	6618.01
659.26	6681.5
659.452	6816.66
659.644	6658.97
659.836	6435.74
660.028	6437.79
660.22	6253.47
660.412	6587.29
660.604	6511.52
660.796	6331.3
660.988	6286.24
661.18	6239.14
661.372	6112.16
661.563	6372.25
661.755	6263.71
661.947	6187.94
662.139	6239.14
662.331	6126.5
662.522	5991.33
662.714	6265.76
662.906	5862.31
663.097	6095.78
663.289	6122.4
663.481	5813.16
663.673	5956.52
663.864	5749.67
664.056	5839.78
664.247	5837.73
664.439	5718.95
664.631	5788.58
664.822	5919.65
665.014	5872.55
665.205	5706.66
665.397	5630.89
665.588	5737.38
665.78	5489.58
665.971	5575.59
666.163	5581.74
666.354	5731.24
666.546	5481.39
666.737	5499.82
666.929	5391.28
667.12	5360.56
667.311	5432.24
667.503	5225.39
667.694	5340.08
667.885	5297.07
668.077	5395.37
668.268	5184.43
668.459	5188.53
668.651	5266.35
668.842	5252.02
669.033	5139.38
669.224	5030.84
669.416	5229.49
669.607	4953.01
669.798	5143.47
669.989	5057.46
670.18	5026.74
670.371	5118.9
670.563	4971.44
670.754	4936.63
670.945	5014.45
671.136	4873.14
671.327	5055.41
671.518	4862.9
671.709	4883.38
671.9	4862.9
672.091	4924.34
672.282	4760.5
672.473	4801.46
672.664	4821.94
672.855	4674.49
673.046	4778.94
673.237	4565.95
673.428	4697.02
673.619	4625.34
673.809	4627.39
674	4561.85
674.191	4686.78
674.382	4492.22
674.573	4703.16
674.764	4531.13
674.954	4590.52
675.145	4438.97
675.336	4516.8
675.527	4516.8
675.717	4500.41
675.908	4400.06
676.099	4455.36
676.289	4363.2
676.48	4414.4
676.671	4443.07
676.861	4479.93
677.052	4281.28
677.243	4131.78
677.433	4389.82
677.624	4385.73
677.814	4328.38
678.005	4268.99
678.195	4244.42
678.386	4375.49
678.576	4275.13
678.767	4240.32
678.957	4246.46
679.148	4305.85
679.338	4211.65
679.529	4318.14
679.719	4228.03
679.909	4168.64
680.1	4185.02
680.29	4180.93
680.481	4117.44
680.671	4060.1
680.861	4021.19
681.052	4109.25
681.242	3959.75
681.432	4158.4
681.622	4056
681.813	3984.32
682.003	4010.95
682.193	4084.67
682.383	4027.33
682.573	4012.99
682.764	4019.14
682.954	4111.3
683.144	4029.38
683.334	3988.42
683.524	3920.84
683.714	4033.47
683.904	3931.08
684.094	3855.3
684.284	3943.36
684.474	3886.02
684.664	3849.16
684.854	3834.82
685.044	3763.14
685.234	3705.8
685.424	3855.3
685.614	3883.97
685.804	3834.82
685.994	3781.57
686.184	3832.77
686.374	3687.37
686.564	3732.42
686.753	3759.05
686.943	3746.76
687.133	3752.9
687.323	3634.12
687.513	3711.94
687.702	3660.74
687.892	3519.43
688.082	3572.68
688.272	3650.5
688.461	3582.92
688.651	3660.74
688.841	3480.52
689.03	3505.1
689.22	3556.3
689.41	3517.39
689.599	3427.28
689.789	3494.86
689.979	3390.41
690.168	3541.96
690.358	3501
690.547	3513.29
690.737	3351.5
690.926	3394.51
691.116	3419.08
691.305	3396.56
691.495	3314.64
691.684	3316.69
691.874	3267.53
692.063	3165.14
692.252	3234.77
692.442	3316.69
692.631	3234.77
692.82	3140.56
693.01	3066.83
693.199	3146.7
693.388	3197.9
693.578	3146.7
693.767	3072.98
693.956	3017.68
694.146	3021.78
694.335	2954.19
694.524	3128.27
694.713	3077.07
694.902	3124.18
695.092	3050.45
695.281	3056.59
695.47	3060.69
695.659	2989.01
695.848	2978.77
696.037	2984.91
696.226	3173.33
696.415	2810.84
696.604	2929.62
696.793	2964.43
696.982	2929.62
697.171	2937.81
697.36	2888.66
697.549	2896.85
697.738	2954.19
697.927	2843.6
698.116	2847.7
698.305	2915.28
698.494	2769.88
698.683	2884.56
698.872	2837.46
699.061	2792.41
699.25	2739.16
699.438	2814.93
699.627	2845.65
699.816	2878.42
700.005	2759.64
700.193	2816.98
700.382	2847.7
700.571	2724.82
700.76	2825.17
700.948	2833.36
701.137	2876.37
701.326	2773.97
701.514	2675.67
701.703	2888.66
701.892	2704.34
702.08	2776.02
702.269	2720.73
702.457	2714.58
702.646	2720.73
702.834	2761.69
703.023	2769.88
703.212	2733.01
703.4	2733.01
703.589	2638.81
703.777	2753.49
703.965	2616.28
704.154	2708.44
704.342	2593.75
704.531	2685.91
704.719	2647
704.907	2679.77
705.096	2704.34
705.284	2632.66
705.472	2628.57
705.661	2714.58
705.849	2610.14
706.037	2626.52
706.226	2599.9
706.414	2728.92
706.602	2704.34
706.79	2477.02
706.979	2575.32
707.167	2534.36
707.355	2708.44
707.543	2603.99
707.731	2708.44
707.919	2575.32
708.107	2616.28
708.296	2573.27
708.484	2565.08
708.672	2630.62
708.86	2612.18
709.048	2565.08
709.236	2642.9
709.424	2681.82
709.612	2667.48
709.8	2610.14
709.988	2524.12
710.176	2550.75
710.364	2589.66
710.551	2544.6
710.739	2546.65
710.927	2601.94
711.115	2571.22
711.303	2603.99
711.491	2554.84
711.679	2474.97
711.866	2612.18
712.054	2673.62
712.242	2690.01
712.43	2552.79
712.617	2528.22
712.805	2597.85
712.993	2606.04
713.181	2565.08
713.368	2552.79
713.556	2558.94
713.744	2585.56
713.931	2681.82
714.119	2696.15
714.306	2571.22
714.494	2579.42
714.682	2581.46
714.869	2417.63
715.057	2530.27
715.244	2552.79
715.432	2642.9
715.619	2497.5
715.807	2622.42
715.994	2448.35
716.182	2489.31
716.369	2575.32
716.556	2692.05
716.744	2556.89
716.931	2554.84
717.119	2647
717.306	2628.57
717.493	2491.35
717.681	2563.03
717.868	2540.51
718.055	2651.1
718.242	2524.12
718.43	2677.72
718.617	2444.25
718.804	2544.6
718.991	2577.37
719.179	2661.34
719.366	2560.98
719.553	2567.13
719.74	2583.51
719.927	2567.13
720.114	2618.33
720.301	2599.9
720.488	2520.03
720.676	2532.31
720.863	2569.18
721.05	2495.45
721.237	2663.38
721.424	2589.66
721.611	2577.37
721.798	2667.48
721.985	2522.07
722.172	2532.31
722.358	2450.39
722.545	2532.31
722.732	2522.07
722.919	2626.52
723.106	2603.99
723.293	2483.16
723.48	2573.27
723.667	2511.83
723.853	2622.42
724.04	2575.32
724.227	2569.18
724.414	2573.27
724.6	2653.14
724.787	2649.05
724.974	2667.48
725.161	2583.51
725.347	2546.65
725.534	2595.8
725.72	2618.33
725.907	2618.33
726.094	2548.7
726.28	2663.38
726.467	2595.8
726.653	2595.8
726.84	2733.01
727.027	2565.08
727.213	2593.75
727.4	2665.43
727.586	2456.54
727.773	2603.99
727.959	2577.37
728.145	2565.08
728.332	2550.75
728.518	2591.7
728.705	2632.66
728.891	2597.85
729.077	2616.28
729.264	2757.59
729.45	2587.61
729.636	2681.82
729.823	2577.37
730.009	2616.28
730.195	2634.71
730.382	2608.09
730.568	2673.62
730.754	2536.41
730.94	2567.13
731.126	2708.44
731.313	2581.46
731.499	2560.98
731.685	2571.22
731.871	2563.03
732.057	2671.58
732.243	2706.39
732.429	2575.32
732.615	2665.43
732.801	2649.05
732.987	2532.31
733.173	2726.87
733.359	2659.29
733.545	2556.89
733.731	2591.7
733.917	2651.1
734.103	2737.11
734.289	2634.71
734.475	2593.75
734.661	2710.49
734.847	2560.98
735.033	2632.66
735.219	2669.53
735.404	2634.71
735.59	2671.58
735.776	2669.53
735.962	2606.04
736.148	2515.93
736.333	2626.52
736.519	2614.23
736.705	2448.35
736.89	2665.43
737.076	2442.2
737.262	2603.99
737.447	2665.43
737.633	2671.58
737.819	2601.94
738.004	2534.36
738.19	2573.27
738.375	2573.27
738.561	2575.32
738.747	2587.61
738.932	2493.4
739.118	2622.42
739.303	2517.98
739.489	2620.38
739.674	2577.37
739.859	2440.15
740.045	2360.28
740.23	2505.69
740.416	2403.29
740.601	2515.93
740.786	2380.76
740.972	2522.07
741.157	2563.03
741.342	2493.4
741.528	2511.83
741.713	2565.08
741.898	2300.89
742.084	2517.98
742.269	2505.69
742.454	2618.33
742.639	2458.59
742.824	2534.36
743.01	2481.11
743.195	2497.5
743.38	2438.11
743.565	2442.2
743.75	2501.59
743.935	2290.65
744.12	2438.11
744.305	2343.9
744.49	2438.11
744.675	2526.17
744.86	2417.63
745.045	2427.87
745.23	2343.9
745.415	2286.56
745.6	2391
745.785	2401.24
745.97	2278.37
746.155	2186.21
746.34	2231.26
746.525	2296.8
746.71	2286.56
746.895	2358.24
747.079	2237.41
747.264	2196.45
747.449	2276.32
747.634	2276.32
747.819	2167.77
748.003	2190.3
748.188	2268.13
748.373	2124.77
748.557	2139.1
748.742	2069.47
748.927	2190.3
749.111	2161.63
749.296	2190.3
749.481	2098.14
749.665	2042.85
749.85	2024.42
750.034	1991.65
750.219	2065.38
750.404	1971.17
750.588	2087.9
750.773	2032.61
750.957	1909.73
751.141	2010.08
751.326	1962.98
751.51	1999.84
751.695	1917.92
751.879	1930.21
752.064	1915.87
752.248	1807.33
752.432	1995.75
752.617	1934.31
752.801	1917.92
752.985	1883.11
753.17	1766.37
753.354	1754.09
753.538	1790.95
753.722	1848.29
753.907	1768.42
754.091	1858.53
754.275	1793
754.459	1713.13
754.643	1749.99
754.828	1854.44
755.012	1635.3
755.196	1670.12
755.38	1684.45
755.564	1606.63
755.748	1645.54
755.932	1678.31
756.116	1676.26
756.3	1657.83
756.484	1717.22
756.668	1627.11
756.852	1496.04
757.036	1623.02
757.22	1594.34
757.404	1602.54
757.588	1493.99
757.772	1469.42
757.956	1530.86
758.14	1647.59
758.323	1485.8
758.507	1534.95
758.691	1508.33
758.875	1440.75
759.059	1461.23
759.242	1498.09
759.426	1465.32
759.61	1444.84
759.794	1367.02
759.977	1418.22
760.161	1436.65
760.345	1524.71
760.528	1502.19
760.712	1422.31
760.895	1412.07
761.079	1289.2
761.263	1317.87
761.446	1350.64
761.63	1311.72
761.813	1324.01
761.997	1332.2
762.18	1397.74
762.364	1250.28
762.547	1362.92
762.731	1377.26
762.914	1324.01
763.098	1223.66
763.281	1444.84
763.464	1287.15
763.648	1270.76
763.831	1274.86
764.015	1291.24
764.198	1266.67
764.381	1268.72
764.564	1231.85
764.748	1319.92
764.931	1201.13
765.114	1307.63
765.297	1244.14
765.481	1231.85
765.664	1154.03
765.847	1154.03
766.03	1143.79
766.213	1227.76
766.397	1194.99
766.58	1242.09
766.763	1166.32
766.946	1131.5
767.129	1270.76
767.312	1086.45
767.495	1117.17
767.678	1131.5
767.861	1184.75
768.044	1080.3
768.227	1059.82
768.41	1188.85
768.593	1141.74
768.776	1065.97
768.959	1147.89
769.142	1209.33
769.324	1131.5
769.507	1043.44
769.69	1080.3
769.873	1104.88
770.056	1065.97
770.239	1113.07
770.421	1127.41
770.604	1131.5
770.787	1086.45
770.97	1022.96
771.152	1002.48
771.335	1098.74
771.518	1045.49
771.7	1004.53
771.883	1074.16
772.066	990.19
772.248	967.67
772.431	1004.53
772.613	1000.43
772.796	1053.68
772.978	1016.82
773.161	945.14
773.343	998.38
773.526	977.91
773.708	977.91
773.891	982
774.073	945.14
774.256	967.67
774.438	971.76
774.621	832.5
774.803	912.37
774.985	947.19
775.168	910.32
775.35	842.74
775.532	838.64
775.715	930.8
775.897	959.47
776.079	893.94
776.261	867.31
776.444	893.94
776.626	812.02
776.808	883.7
776.99	803.83
777.173	783.35
777.355	877.55
777.537	898.03
777.719	869.36
777.901	791.54
778.083	830.45
778.265	822.26
778.447	820.21
778.629	797.68
778.811	726
778.993	719.86
779.175	871.41
779.357	738.29
779.539	707.57
779.721	779.25
779.903	865.27
780.085	648.18
780.267	713.72
780.449	668.66
780.631	721.91
780.812	758.77
780.994	697.33
781.176	652.28
781.358	648.18
781.54	627.7
781.721	693.24
781.903	674.81
782.085	629.75
782.267	635.89
782.448	656.37
782.63	588.79
782.812	664.57
782.993	570.36
783.175	519.16
783.357	654.33
783.538	635.89
783.72	654.33
783.901	633.85
784.083	623.61
784.264	558.07
784.446	568.31
784.627	590.84
784.809	648.18
784.99	607.22
785.172	611.32
785.353	648.18
785.535	553.98
785.716	558.07
785.897	556.02
786.079	576.5
786.26	539.64
786.441	592.89
786.623	599.03
786.804	478.2
786.985	513.02
787.167	523.26
787.348	541.69
787.529	543.74
787.71	515.06
787.891	502.78
788.073	404.47
788.254	490.49
788.435	508.92
788.616	461.82
788.797	525.3
788.978	480.25
789.159	439.29
789.34	439.29
789.522	482.3
789.703	523.26
789.884	424.95
790.065	420.86
790.246	433.15
790.427	537.59
790.607	478.2
790.788	465.91
790.969	476.15
791.15	447.48
791.331	445.43
791.512	457.72
791.693	361.47
791.874	424.95
792.054	494.58
792.235	472.06
792.416	353.27
792.597	351.23
792.778	355.32
792.958	361.47
793.139	377.85
793.32	439.29
793.5	402.43
793.681	422.91
793.862	371.71
794.042	431.1
794.223	308.22
794.404	347.13
794.584	410.62
794.765	275.45
794.945	404.47
795.126	427
795.306	369.66
795.487	375.8
795.667	355.32
795.848	412.67
796.028	336.89
796.209	338.94
796.389	363.51
796.57	334.84
796.75	320.51
796.93	291.84
797.111	351.23
797.291	320.51
797.471	365.56
797.652	244.73
797.832	302.08
798.012	322.56
798.192	248.83
798.373	222.2
798.553	310.27
798.733	359.42
798.913	322.56
799.093	197.63
799.274	281.6
799.454	257.02
799.634	324.6
799.814	355.32
799.994	250.88
800.174	377.85
800.354	314.36
800.534	343.03
800.714	308.22
800.894	295.93
801.074	285.69
801.254	310.27
801.434	265.21
801.614	281.6
801.794	263.16
801.974	615.41
802.154	279.55
802.334	359.42
802.514	209.92
802.693	252.92
802.873	312.32
803.053	252.92
803.233	218.11
803.413	267.26
803.592	244.73
803.772	300.03
803.952	259.07
804.131	205.82
804.311	271.36
804.491	306.17
804.67	226.3
804.85	254.97
805.03	236.54
805.209	171.01
805.389	324.6
805.568	267.26
805.748	248.83
805.928	252.92
806.107	203.77
806.287	263.16
806.466	312.32
806.646	297.98
806.825	209.92
807.004	189.44
807.184	240.64
807.363	222.2
807.543	193.53
807.722	234.49
807.901	234.49
808.081	265.21
808.26	211.96
808.439	252.92
808.619	216.06
808.798	230.4
808.977	250.88
809.156	275.45
809.336	263.16
809.515	250.88
809.694	193.53
809.873	142.33
810.052	218.11
810.231	222.2
810.411	277.5
810.59	226.3
810.769	185.34
810.948	232.44
811.127	183.29
811.306	175.1
811.485	242.68
811.664	238.59
811.843	168.96
812.022	183.29
812.201	199.68
812.38	191.49
812.559	214.01
812.737	138.24
812.916	152.57
813.095	222.2
813.274	130.05
813.453	214.01
813.632	216.06
813.811	314.36
813.989	265.21
814.168	140.29
814.347	156.67
814.526	160.77
814.704	119.81
814.883	203.77
815.062	132.09
815.24	228.35
815.419	183.29
815.598	248.83
815.776	166.91
815.955	277.5
816.133	84.99
816.312	201.72
816.49	177.15
816.669	166.91
816.847	123.9
817.026	134.14
817.204	154.62
817.383	207.87
817.561	74.75
817.74	181.25
817.918	216.06
818.097	314.36
818.275	193.53
818.453	201.72
818.632	207.87
818.81	185.34
818.988	156.67
819.167	234.49
819.345	234.49
819.523	117.76
819.701	146.43
819.879	140.29
820.058	148.48
820.236	138.24
820.414	181.25
820.592	105.47
820.77	97.28
820.948	130.05
821.127	97.28
821.305	154.62
821.483	160.77
821.661	189.44
821.839	121.85
822.017	162.81
822.195	123.9
822.373	191.49
822.551	152.57
822.729	222.2
822.907	173.05
823.085	146.43
823.262	93.18
823.44	160.77
823.618	115.71
823.796	168.96
823.974	152.57
824.152	123.9
824.329	187.39
824.507	138.24
824.685	105.47
824.863	107.52
825.04	160.77
825.218	187.39
825.396	113.66
825.574	216.06
825.751	128
825.929	125.95
826.107	78.85
826.284	111.61
826.462	107.52
826.639	140.29
826.817	35.84
826.994	111.61
827.172	87.04
827.349	99.33
827.527	136.19
827.704	134.14
827.882	68.61
828.059	97.28
828.237	128
828.414	150.53
828.591	123.9
828.769	156.67
828.946	91.13
829.124	113.66
829.301	68.61
829.478	152.57
829.655	82.94
829.833	138.24
830.01	52.22
830.187	142.33
830.364	62.46
830.542	115.71
830.719	177.15
830.896	66.56
831.073	46.08
831.25	103.42
831.427	171.01
831.604	97.28
831.782	148.48
831.959	177.15
832.136	99.33
832.313	132.09
832.49	119.81
832.667	91.13
832.844	66.56
833.021	187.39
833.198	144.38
833.374	132.09
833.551	91.13
833.728	111.61
833.905	68.61
834.082	52.22
834.259	134.14
834.436	50.18
834.612	29.7
834.789	142.33
834.966	115.71
835.143	115.71
835.319	74.75
835.496	117.76
835.673	187.39
835.85	46.08
836.026	134.14
836.203	58.37
836.38	91.13
836.556	78.85
836.733	17.41
836.909	95.23
837.086	39.94
837.262	52.22
837.439	97.28
837.616	115.71
837.792	70.65
837.968	130.05
838.145	103.42
838.321	44.03
838.498	119.81
838.674	70.65
838.851	84.99
839.027	84.99
839.203	101.37
839.38	31.74
839.556	50.18
839.732	50.18
839.909	70.65
840.085	56.32
840.261	25.6
840.437	128
840.614	80.89
840.79	148.48
840.966	50.18
841.142	37.89
841.318	50.18
841.494	56.32
841.671	27.65
841.847	130.05
842.023	84.99
842.199	39.94
842.375	84.99
842.551	64.51
842.727	76.8
842.903	91.13
843.079	84.99
843.255	78.85
843.431	91.13
843.607	97.28
843.783	13.31
843.959	107.52
844.134	66.56
844.31	50.18
844.486	72.7
844.662	136.19
844.838	5.12
845.013	44.03
845.189	136.19
845.365	31.74
845.541	21.5
845.716	74.75
845.892	21.5
846.068	54.27
846.244	23.55
846.419	66.56
846.595	-11.26
846.77	87.04
846.946	11.26
847.122	-5.12
847.297	74.75
847.473	37.89
847.648	70.65
847.824	60.42
847.999	54.27
848.175	58.37
848.35	107.52
848.526	39.94
848.701	82.94
848.876	37.89
849.052	15.36
849.227	78.85
849.403	103.42
849.578	48.13
849.753	58.37
849.929	11.26
850.104	50.18
850.279	58.37
850.454	-35.84
850.63	68.61
850.805	89.09
850.98	44.03
851.155	7.17
851.33	91.13
851.505	21.5
851.681	117.76
851.856	21.5
852.031	-37.89
852.206	-31.74
852.381	-15.36
852.556	113.66
852.731	23.55
852.906	76.8
853.081	37.89
853.256	95.23
853.431	164.86
853.606	-1.02
853.781	1.02
853.956	37.89
854.131	62.46
854.305	3.07
854.48	62.46
854.655	33.79
854.83	33.79
855.005	78.85
855.18	121.85
855.354	17.41
855.529	78.85
855.704	21.5
855.879	64.51
856.053	21.5
856.228	66.56
856.403	11.26
856.577	66.56
856.752	5.12
856.926	54.27
857.101	56.32
857.276	91.13
857.45	58.37
857.625	80.89
857.799	11.26
857.974	44.03
858.148	21.5
858.323	68.61
858.497	68.61
858.672	31.74
858.846	-11.26
859.02	-15.36
859.195	-5.12
859.369	56.32
859.543	-5.12
859.718	-1.02
859.892	44.03
860.066	50.18
860.241	1.02
860.415	-29.7
860.589	66.56
860.763	1.02
860.938	60.42
861.112	31.74
861.286	46.08
861.46	21.5
861.634	54.27
861.808	-15.36
861.982	27.65
862.157	52.22
862.331	27.65
862.505	15.36
862.679	99.33
862.853	-9.22
863.027	74.75
863.201	70.65
863.375	17.41
863.549	-25.6
863.722	-3.07
863.896	58.37
864.07	5.12
864.244	50.18
864.418	95.23
864.592	27.65
864.766	11.26
864.939	70.65
865.113	-44.03
865.287	27.65
865.461	84.99
865.634	-11.26
865.808	-3.07
865.982	44.03
866.156	-19.46
866.329	78.85
866.503	7.17
866.676	44.03
866.85	29.7
867.024	58.37
867.197	21.5
867.371	64.51
867.544	-23.55
867.718	25.6
867.891	15.36
868.065	15.36
868.238	9.22
868.412	50.18
868.585	27.65
868.759	-13.31
868.932	1.02
869.105	-31.74
869.279	31.74
869.452	-52.22
869.625	74.75
869.799	-35.84
869.972	31.74
870.145	52.22
870.319	64.51
870.492	82.94
870.665	19.46
870.838	9.22
871.011	-19.46
871.185	13.31
871.358	-19.46
871.531	44.03
871.704	-39.94
871.877	15.36
872.05	35.84
872.223	-54.27
872.396	-60.42
872.569	13.31
872.742	-39.94
872.915	21.5
873.088	11.26
873.261	33.79
873.434	58.37
873.607	37.89
873.78	50.18
873.953	-56.32
874.126	66.56
874.299	-15.36
874.471	1.02
874.644	-13.31
874.817	1.02
874.99	68.61
875.163	27.65
875.335	23.55
875.508	-21.5
875.681	17.41
875.853	-33.79
876.026	7.17
876.199	15.36
876.371	7.17
876.544	27.65
876.717	84.99
876.889	54.27
877.062	-50.18
877.234	-19.46
877.407	62.46
877.579	-7.17
877.752	25.6
877.924	23.55
878.097	3.07
878.269	11.26
878.442	39.94
878.614	70.65
878.786	13.31
878.959	-27.65
879.131	39.94
879.303	3.07
879.476	93.18
879.648	-9.22
879.82	21.5
879.993	-35.84
880.165	-11.26
880.337	5.12
880.509	-23.55
880.681	15.36
880.854	-15.36
881.026	-25.6
881.198	62.46
881.37	-31.74
881.542	-9.22
881.714	-33.79
881.886	78.85
882.058	-7.17
882.23	1.02
882.402	-25.6
882.574	-13.31
882.746	27.65
882.918	23.55
883.09	25.6
883.262	52.22
883.434	54.27
883.606	-3.07
883.778	64.51
883.95	54.27
884.122	9.22
884.293	25.6
884.465	13.31
884.637	33.79
884.809	7.17
884.98	9.22
885.152	1.02
885.324	15.36
885.496	9.22
885.667	9.22
885.839	68.61
886.011	74.75
886.182	60.42
886.354	-3.07
886.525	-15.36
886.697	27.65
886.869	-19.46
887.04	23.55
887.212	37.89
887.383	-7.17
887.555	-29.7
887.726	3.07
887.897	27.65
888.069	50.18
888.24	-11.26
888.412	29.7
888.583	-7.17
888.754	31.74
888.926	21.5
889.097	-21.5
889.268	-13.31
889.44	-11.26
889.611	-33.79
889.782	5.12
889.953	-25.6
890.125	5.12
890.296	-17.41
890.467	-19.46
890.638	-15.36
890.809	-52.22
890.98	-37.89
891.151	25.6
891.323	13.31
891.494	-5.12
891.665	21.5
891.836	62.46
892.007	15.36
892.178	44.03
892.349	37.89
892.52	29.7
892.691	-11.26
892.862	109.57
893.032	-66.56
893.203	-11.26
893.374	29.7
893.545	35.84
893.716	72.7
893.887	-58.37
894.057	7.17
894.228	27.65
894.399	5.12
894.57	50.18
894.74	-9.22
894.911	-1.02
895.082	15.36
895.253	35.84
895.423	21.5
895.594	37.89
895.764	7.17
895.935	-66.56
896.106	89.09
896.276	-17.41
896.447	46.08
896.617	-1.02
896.788	-23.55
896.958	37.89
897.129	50.18
897.299	-15.36
897.47	-9.22
897.64	15.36
897.81	64.51
897.981	56.32
898.151	-41.98
898.322	44.03
898.492	35.84
898.662	52.22
898.832	-13.31
899.003	-64.51
899.173	44.03
899.343	-17.41
899.513	-29.7
