Data from USB4F104151__45__11-45-07-730.txt Node

Date: Fri Mar 14 11:45:07 EDT 2025
User: louis
Spectrometer: USB4F10415
Trigger mode: 4
Integration Time (sec): 2.000000E-2
Scans to average: 1
Electric dark correction enabled: true
Nonlinearity correction enabled: false
Boxcar width: 0
XAxis mode: Wavelengths
Number of Pixels in Spectrum: 3648
>>>>>Begin Spectral Data<<<<<
178.204	-41.64
178.424	-41.64
178.644	-41.64
178.864	-8.87
179.084	-43.69
179.304	-4.78
179.524	-10.92
179.744	5.46
179.964	83.28
180.184	-37.55
180.404	-19.11
180.624	9.56
180.844	-33.45
181.064	-19.11
181.283	-4.78
181.503	11.61
181.723	19.8
181.943	-15.02
182.163	52.56
182.383	11.61
182.602	11.61
182.822	54.61
183.042	46.42
183.262	30.04
183.482	-6.83
183.701	40.28
183.921	48.47
184.141	38.23
184.361	68.95
184.58	120.15
184.8	44.37
185.02	17.75
185.239	56.66
185.459	-84.65
185.679	60.76
185.898	46.42
186.118	83.28
186.338	-10.92
186.557	66.9
186.777	64.85
186.997	-17.07
187.216	120.15
187.436	99.67
187.655	5.46
187.875	19.8
188.095	79.19
188.314	60.76
188.534	58.71
188.753	5.46
188.973	9.56
189.192	17.75
189.412	25.94
189.631	25.94
189.851	-0.68
190.07	77.14
190.29	71
190.509	-21.16
190.729	32.08
190.948	17.75
191.168	87.38
191.387	9.56
191.607	32.08
191.826	44.37
192.045	17.75
192.265	27.99
192.484	107.86
192.704	32.08
192.923	3.41
193.142	66.9
193.362	44.37
193.581	32.08
193.8	30.04
194.02	54.61
194.239	34.13
194.458	-8.87
194.678	17.75
194.897	-15.02
195.116	58.71
195.335	-49.83
195.555	1.37
195.774	-2.73
195.993	-0.68
196.212	34.13
196.432	15.7
196.651	-23.21
196.87	-0.68
197.089	107.86
197.308	-12.97
197.528	-8.87
197.747	64.85
197.966	38.23
198.185	68.95
198.404	-6.83
198.623	50.52
198.842	21.84
199.062	68.95
199.281	68.95
199.5	58.71
199.719	-8.87
199.938	60.76
200.157	54.61
200.376	-35.5
200.595	19.8
200.814	38.23
201.033	52.56
201.252	27.99
201.471	1.37
201.69	40.28
201.909	50.52
202.128	-31.4
202.347	23.89
202.566	38.23
202.785	46.42
203.004	66.9
203.223	89.43
203.442	44.37
203.661	73.04
203.879	17.75
204.098	44.37
204.317	50.52
204.536	-2.73
204.755	64.85
204.974	103.76
205.193	-25.26
205.411	48.47
205.63	62.8
205.849	38.23
206.068	52.56
206.287	32.08
206.505	52.56
206.724	9.56
206.943	34.13
207.162	46.42
207.381	83.28
207.599	-35.5
207.818	25.94
208.037	52.56
208.255	27.99
208.474	9.56
208.693	34.13
208.911	9.56
209.13	40.28
209.349	58.71
209.567	83.28
209.786	107.86
210.005	40.28
210.223	-27.31
210.442	46.42
210.661	27.99
210.879	-17.07
211.098	97.62
211.316	-29.35
211.535	-4.78
211.753	44.37
211.972	56.66
212.191	1.37
212.409	-37.55
212.628	60.76
212.846	93.52
213.065	23.89
213.283	105.81
213.502	-37.55
213.72	-51.88
213.938	73.04
214.157	25.94
214.375	42.32
214.594	58.71
214.812	89.43
215.031	36.18
215.249	30.04
215.467	30.04
215.686	-0.68
215.904	46.42
216.122	-2.73
216.341	97.62
216.559	30.04
216.778	58.71
216.996	-10.92
217.214	27.99
217.432	-23.21
217.651	-12.97
217.869	21.84
218.087	19.8
218.306	-12.97
218.524	56.66
218.742	1.37
218.96	152.91
219.179	15.7
219.397	58.71
219.615	32.08
219.833	62.8
220.051	36.18
220.27	52.56
220.488	46.42
220.706	46.42
220.924	3.41
221.142	34.13
221.36	44.37
221.578	81.24
221.796	38.23
222.015	-43.69
222.233	9.56
222.451	79.19
222.669	3.41
222.887	-33.45
223.105	-4.78
223.323	-10.92
223.541	42.32
223.759	-23.21
223.977	64.85
224.195	62.8
224.413	-25.26
224.631	99.67
224.849	46.42
225.067	81.24
225.285	75.09
225.503	-6.83
225.721	-10.92
225.939	30.04
226.157	66.9
226.375	107.86
226.592	-2.73
226.81	89.43
227.028	77.14
227.246	46.42
227.464	-19.11
227.682	34.13
227.9	27.99
228.117	68.95
228.335	11.61
228.553	13.65
228.771	-29.35
228.989	42.32
229.206	-41.64
229.424	11.61
229.642	21.84
229.86	36.18
230.077	62.8
230.295	75.09
230.513	56.66
230.731	81.24
230.948	66.9
231.166	17.75
231.384	7.51
231.601	-6.83
231.819	81.24
232.037	44.37
232.254	62.8
232.472	30.04
232.689	1.37
232.907	56.66
233.125	-6.83
233.342	-10.92
233.56	9.56
233.777	58.71
233.995	52.56
234.213	62.8
234.43	42.32
234.648	-6.83
234.865	9.56
235.083	103.76
235.3	-29.35
235.518	19.8
235.735	132.44
235.953	93.52
236.17	-19.11
236.388	-37.55
236.605	7.51
236.822	116.05
237.04	-12.97
237.257	60.76
237.475	52.56
237.692	-10.92
237.909	75.09
238.127	34.13
238.344	46.42
238.562	-12.97
238.779	21.84
238.996	-19.11
239.214	27.99
239.431	79.19
239.648	60.76
239.865	46.42
240.083	71
240.3	60.76
240.517	30.04
240.735	15.7
240.952	46.42
241.169	56.66
241.386	103.76
241.603	44.37
241.821	-8.87
242.038	-55.98
242.255	64.85
242.472	42.32
242.689	7.51
242.907	109.91
243.124	-58.03
243.341	46.42
243.558	15.7
243.775	38.23
243.992	9.56
244.209	87.38
244.426	-21.16
244.643	7.51
244.86	13.65
245.078	52.56
245.295	-45.74
245.512	7.51
245.729	-2.73
245.946	58.71
246.163	42.32
246.38	21.84
246.597	83.28
246.814	95.57
247.031	83.28
247.248	52.56
247.464	81.24
247.681	9.56
247.898	5.46
248.115	-2.73
248.332	5.46
248.549	58.71
248.766	9.56
248.983	23.89
249.2	73.04
249.417	64.85
249.633	1.37
249.85	15.7
250.067	40.28
250.284	13.65
250.501	50.52
250.717	48.47
250.934	-8.87
251.151	1.37
251.368	9.56
251.585	-12.97
251.801	34.13
252.018	42.32
252.235	21.84
252.451	81.24
252.668	85.33
252.885	64.85
253.102	-2.73
253.318	75.09
253.535	48.47
253.752	64.85
253.968	-10.92
254.185	32.08
254.401	17.75
254.618	-8.87
254.835	-23.21
255.051	13.65
255.268	40.28
255.484	1.37
255.701	-55.98
255.917	3.41
256.134	95.57
256.351	13.65
256.567	1.37
256.784	-4.78
257	-19.11
257.217	23.89
257.433	62.8
257.65	42.32
257.866	25.94
258.082	56.66
258.299	17.75
258.515	89.43
258.732	111.96
258.948	42.32
259.165	83.28
259.381	25.94
259.597	-29.35
259.814	40.28
260.03	64.85
260.246	17.75
260.463	23.89
260.679	89.43
260.895	25.94
261.112	103.76
261.328	9.56
261.544	73.04
261.761	56.66
261.977	71
262.193	-0.68
262.409	77.14
262.626	19.8
262.842	83.28
263.058	52.56
263.274	11.61
263.49	87.38
263.707	64.85
263.923	-27.31
264.139	79.19
264.355	58.71
264.571	48.47
264.787	89.43
265.004	87.38
265.22	48.47
265.436	7.51
265.652	11.61
265.868	58.71
266.084	11.61
266.3	34.13
266.516	-2.73
266.732	32.08
266.948	-29.35
267.164	97.62
267.38	-29.35
267.596	36.18
267.812	32.08
268.028	48.47
268.244	42.32
268.46	3.41
268.676	27.99
268.892	89.43
269.108	-4.78
269.324	54.61
269.54	21.84
269.756	103.76
269.972	-25.26
270.188	71
270.403	23.89
270.619	83.28
270.835	19.8
271.051	-6.83
271.267	32.08
271.483	36.18
271.698	62.8
271.914	46.42
272.13	38.23
272.346	23.89
272.562	-0.68
272.777	34.13
272.993	-8.87
273.209	50.52
273.425	7.51
273.64	79.19
273.856	27.99
274.072	-10.92
274.287	-15.02
274.503	13.65
274.719	-0.68
274.934	44.37
275.15	-74.41
275.366	-12.97
275.581	46.42
275.797	-4.78
276.012	1.37
276.228	9.56
276.444	73.04
276.659	1.37
276.875	17.75
277.09	21.84
277.306	1.37
277.521	-4.78
277.737	81.24
277.952	161.11
278.168	36.18
278.383	42.32
278.599	25.94
278.814	-4.78
279.03	56.66
279.245	48.47
279.461	60.76
279.676	68.95
279.892	77.14
280.107	91.48
280.322	21.84
280.538	38.23
280.753	118.1
280.969	58.71
281.184	25.94
281.399	19.8
281.615	-21.16
281.83	21.84
282.045	-4.78
282.26	9.56
282.476	34.13
282.691	-55.98
282.906	32.08
283.122	-25.26
283.337	97.62
283.552	48.47
283.767	-19.11
283.983	44.37
284.198	-4.78
284.413	83.28
284.628	30.04
284.843	62.8
285.058	105.81
285.274	54.61
285.489	87.38
285.704	27.99
285.919	32.08
286.134	25.94
286.349	19.8
286.564	23.89
286.779	48.47
286.995	71
287.21	34.13
287.425	71
287.64	-15.02
287.855	66.9
288.07	11.61
288.285	52.56
288.5	21.84
288.715	25.94
288.93	-23.21
289.145	1.37
289.36	7.51
289.575	3.41
289.79	-29.35
290.004	58.71
290.219	54.61
290.434	50.52
290.649	-45.74
290.864	9.56
291.079	34.13
291.294	77.14
291.509	99.67
291.724	111.96
291.938	23.89
292.153	40.28
292.368	-37.55
292.583	93.52
292.798	30.04
293.012	27.99
293.227	15.7
293.442	44.37
293.657	144.72
293.871	27.99
294.086	93.52
294.301	91.48
294.516	68.95
294.73	58.71
294.945	-21.16
295.16	-27.31
295.374	71
295.589	9.56
295.804	48.47
296.018	27.99
296.233	32.08
296.447	46.42
296.662	-39.59
296.877	36.18
297.091	89.43
297.306	7.51
297.52	60.76
297.735	42.32
297.949	64.85
298.164	-25.26
298.378	64.85
298.593	27.99
298.807	32.08
299.022	19.8
299.236	91.48
299.451	17.75
299.665	-47.79
299.88	-19.11
300.094	3.41
300.309	56.66
300.523	91.48
300.737	9.56
300.952	126.29
301.166	38.23
301.381	34.13
301.595	62.8
301.809	-0.68
302.024	48.47
302.238	75.09
302.452	60.76
302.667	34.13
302.881	81.24
303.095	85.33
303.309	23.89
303.524	79.19
303.738	64.85
303.952	7.51
304.166	-2.73
304.381	-2.73
304.595	111.96
304.809	-10.92
305.023	56.66
305.237	-33.45
305.452	58.71
305.666	73.04
305.88	60.76
306.094	79.19
306.308	40.28
306.522	27.99
306.736	21.84
306.95	48.47
307.164	75.09
307.379	58.71
307.593	23.89
307.807	32.08
308.021	56.66
308.235	79.19
308.449	42.32
308.663	36.18
308.877	120.15
309.091	99.67
309.305	11.61
309.519	-8.87
309.733	120.15
309.947	21.84
310.161	11.61
310.374	109.91
310.588	48.47
310.802	7.51
311.016	19.8
311.23	60.76
311.444	1.37
311.658	97.62
311.872	-17.07
312.085	13.65
312.299	83.28
312.513	73.04
312.727	52.56
312.941	60.76
313.154	42.32
313.368	34.13
313.582	60.76
313.796	32.08
314.009	27.99
314.223	9.56
314.437	77.14
314.651	46.42
314.864	58.71
315.078	-17.07
315.292	50.52
315.505	-8.87
315.719	32.08
315.933	17.75
316.146	-33.45
316.36	73.04
316.573	17.75
316.787	1.37
317.001	42.32
317.214	32.08
317.428	9.56
317.641	34.13
317.855	71
318.068	30.04
318.282	15.7
318.495	58.71
318.709	27.99
318.922	17.75
319.136	114
319.349	52.56
319.563	27.99
319.776	54.61
319.99	46.42
320.203	36.18
320.417	83.28
320.63	89.43
320.843	40.28
321.057	21.84
321.27	-15.02
321.483	81.24
321.697	111.96
321.91	44.37
322.124	34.13
322.337	40.28
322.55	19.8
322.763	-27.31
322.977	-19.11
323.19	17.75
323.403	60.76
323.617	71
323.83	136.53
324.043	23.89
324.256	77.14
324.469	-19.11
324.683	77.14
324.896	-35.5
325.109	-0.68
325.322	48.47
325.535	34.13
325.748	-35.5
325.962	38.23
326.175	27.99
326.388	60.76
326.601	56.66
326.814	-4.78
327.027	52.56
327.24	-19.11
327.453	-45.74
327.666	73.04
327.879	101.72
328.092	54.61
328.305	75.09
328.518	52.56
328.731	46.42
328.944	21.84
329.157	75.09
329.37	71
329.583	111.96
329.796	64.85
330.009	3.41
330.222	25.94
330.435	64.85
330.648	48.47
330.861	-6.83
331.073	109.91
331.286	3.41
331.499	-23.21
331.712	-2.73
331.925	93.52
332.138	40.28
332.35	3.41
332.563	21.84
332.776	71
332.989	56.66
333.202	42.32
333.414	36.18
333.627	25.94
333.84	1.37
334.053	23.89
334.265	25.94
334.478	-47.79
334.691	66.9
334.903	103.76
335.116	62.8
335.329	83.28
335.541	1.37
335.754	40.28
335.966	21.84
336.179	7.51
336.392	89.43
336.604	-27.31
336.817	-6.83
337.029	34.13
337.242	3.41
337.454	25.94
337.667	3.41
337.88	116.05
338.092	15.7
338.305	32.08
338.517	-17.07
338.729	25.94
338.942	91.48
339.154	42.32
339.367	-2.73
339.579	9.56
339.792	71
340.004	13.65
340.217	13.65
340.429	25.94
340.641	-31.4
340.854	159.06
341.066	-15.02
341.278	21.84
341.491	56.66
341.703	42.32
341.915	118.1
342.128	-35.5
342.34	30.04
342.552	42.32
342.764	34.13
342.977	103.76
343.189	3.41
343.401	38.23
343.613	46.42
343.826	13.65
344.038	50.52
344.25	46.42
344.462	25.94
344.674	23.89
344.886	34.13
345.099	36.18
345.311	1.37
345.523	-4.78
345.735	-0.68
345.947	107.86
346.159	1.37
346.371	34.13
346.583	66.9
346.795	75.09
347.007	42.32
347.219	-10.92
347.431	-27.31
347.643	13.65
347.855	-17.07
348.067	-0.68
348.279	48.47
348.491	114
348.703	3.41
348.915	23.89
349.127	7.51
349.339	62.8
349.551	32.08
349.763	50.52
349.975	-25.26
350.187	58.71
350.399	93.52
350.61	-4.78
350.822	44.37
351.034	91.48
351.246	68.95
351.458	85.33
351.669	-10.92
351.881	62.8
352.093	87.38
352.305	17.75
352.517	58.71
352.728	81.24
352.94	27.99
353.152	97.62
353.363	81.24
353.575	15.7
353.787	50.52
353.999	126.29
354.21	64.85
354.422	-2.73
354.633	40.28
354.845	21.84
355.057	17.75
355.268	19.8
355.48	54.61
355.692	-31.4
355.903	58.71
356.115	30.04
356.326	62.8
356.538	52.56
356.749	48.47
356.961	27.99
357.172	27.99
357.384	71
357.595	23.89
357.807	40.28
358.018	-6.83
358.23	3.41
358.441	68.95
358.653	30.04
358.864	77.14
359.075	97.62
359.287	87.38
359.498	122.2
359.709	34.13
359.921	89.43
360.132	132.44
360.344	56.66
360.555	-12.97
360.766	85.33
360.977	5.46
361.189	46.42
361.4	-6.83
361.611	101.72
361.823	60.76
362.034	-45.74
362.245	34.13
362.456	85.33
362.667	13.65
362.879	1.37
363.09	5.46
363.301	68.95
363.512	68.95
363.723	38.23
363.935	116.05
364.146	73.04
364.357	21.84
364.568	27.99
364.779	13.65
364.99	85.33
365.201	-2.73
365.412	56.66
365.623	9.56
365.834	40.28
366.045	48.47
366.256	107.86
366.467	103.76
366.678	58.71
366.889	23.89
367.1	105.81
367.311	1.37
367.522	62.8
367.733	91.48
367.944	21.84
368.155	48.47
368.366	17.75
368.577	81.24
368.788	3.41
368.999	-35.5
369.209	56.66
369.42	62.8
369.631	97.62
369.842	19.8
370.053	52.56
370.264	105.81
370.474	62.8
370.685	7.51
370.896	52.56
371.107	30.04
371.317	75.09
371.528	79.19
371.739	73.04
371.95	95.57
372.16	50.52
372.371	58.71
372.582	27.99
372.792	71
373.003	79.19
373.214	17.75
373.424	93.52
373.635	73.04
373.846	58.71
374.056	81.24
374.267	71
374.477	101.72
374.688	15.7
374.898	19.8
375.109	73.04
375.319	124.24
375.53	71
375.74	73.04
375.951	54.61
376.161	77.14
376.372	56.66
376.582	7.51
376.793	64.85
377.003	-35.5
377.214	46.42
377.424	87.38
377.635	66.9
377.845	73.04
378.055	60.76
378.266	25.94
378.476	21.84
378.686	1.37
378.897	60.76
379.107	48.47
379.317	85.33
379.528	81.24
379.738	122.2
379.948	-51.88
380.158	83.28
380.369	73.04
380.579	40.28
380.789	23.89
380.999	120.15
381.21	132.44
381.42	83.28
381.63	66.9
381.84	50.52
382.05	15.7
382.261	27.99
382.471	5.46
382.681	1.37
382.891	21.84
383.101	42.32
383.311	46.42
383.521	42.32
383.731	15.7
383.941	27.99
384.151	5.46
384.361	25.94
384.571	87.38
384.781	-35.5
384.991	91.48
385.201	73.04
385.411	46.42
385.621	60.76
385.831	77.14
386.041	79.19
386.251	50.52
386.461	73.04
386.671	-33.45
386.881	17.75
387.091	50.52
387.301	-19.11
387.511	27.99
387.72	58.71
387.93	-8.87
388.14	-53.93
388.35	15.7
388.56	68.95
388.769	30.04
388.979	-10.92
389.189	66.9
389.399	66.9
389.609	46.42
389.818	21.84
390.028	44.37
390.238	40.28
390.447	56.66
390.657	15.7
390.867	-15.02
391.076	3.41
391.286	87.38
391.496	21.84
391.705	44.37
391.915	87.38
392.125	81.24
392.334	109.91
392.544	146.77
392.753	79.19
392.963	23.89
393.172	83.28
393.382	27.99
393.591	99.67
393.801	-8.87
394.01	48.47
394.22	34.13
394.429	1.37
394.639	54.61
394.848	54.61
395.058	73.04
395.267	27.99
395.477	99.67
395.686	60.76
395.895	163.15
396.105	118.1
396.314	-2.73
396.524	62.8
396.733	-2.73
396.942	124.24
397.152	73.04
397.361	91.48
397.57	50.52
397.78	79.19
397.989	103.76
398.198	87.38
398.407	66.9
398.617	46.42
398.826	118.1
399.035	34.13
399.244	101.72
399.453	71
399.663	30.04
399.872	101.72
400.081	56.66
400.29	144.72
400.499	46.42
400.708	138.58
400.917	32.08
401.127	103.76
401.336	62.8
401.545	150.87
401.754	99.67
401.963	38.23
402.172	95.57
402.381	128.34
402.59	79.19
402.799	101.72
403.008	38.23
403.217	118.1
403.426	97.62
403.635	85.33
403.844	48.47
404.053	109.91
404.262	34.13
404.471	157.01
404.68	54.61
404.888	148.82
405.097	66.9
405.306	66.9
405.515	116.05
405.724	95.57
405.933	202.07
406.142	120.15
406.35	105.81
406.559	71
406.768	99.67
406.977	163.15
407.185	173.39
407.394	146.77
407.603	87.38
407.812	157.01
408.02	169.3
408.229	161.11
408.438	148.82
408.646	195.92
408.855	146.77
409.064	163.15
409.272	204.11
409.481	171.35
409.69	150.87
409.898	202.07
410.107	212.31
410.315	187.73
410.524	171.35
410.733	224.59
410.941	265.55
411.15	294.22
411.358	269.65
411.567	298.32
411.775	308.56
411.984	304.46
412.192	283.98
412.401	236.88
412.609	353.62
412.818	353.62
413.026	283.98
413.234	353.62
413.443	382.29
413.651	304.46
413.86	400.72
414.068	458.06
414.276	472.4
414.485	431.44
414.693	423.25
414.901	468.3
415.11	464.21
415.318	505.17
415.526	533.84
415.734	558.41
415.943	542.03
416.151	580.94
416.359	542.03
416.567	527.69
416.776	531.79
416.984	636.24
417.192	587.08
417.4	689.48
417.608	707.91
417.817	669
418.025	755.02
418.233	845.13
418.441	736.59
418.649	755.02
418.857	800.07
419.065	892.23
419.273	855.37
419.481	890.18
419.689	978.25
419.897	978.25
420.105	1035.59
420.313	939.33
420.521	1187.14
420.729	1131.84
420.937	1092.93
421.145	1172.8
421.353	1176.9
421.561	1295.68
421.769	1355.07
421.977	1355.07
422.185	1285.44
422.393	1465.66
422.601	1506.62
422.809	1482.05
423.017	1570.11
423.224	1557.82
423.432	1606.97
423.64	1592.64
423.848	1750.33
424.056	1674.56
424.263	1813.82
424.471	1842.49
424.679	1932.6
424.887	1948.98
425.094	2157.88
425.302	2106.68
425.51	2213.17
425.718	2315.57
425.925	2217.27
426.133	2377.01
426.341	2473.26
426.548	2544.94
426.756	2581.81
426.964	2565.42
427.171	2780.46
427.379	2811.18
427.586	2972.97
427.794	2913.58
428.001	3130.66
428.209	3202.34
428.417	3175.72
428.624	3552.54
428.832	3474.72
429.039	3343.65
429.247	3353.89
429.454	3781.92
429.662	3892.51
429.869	3716.38
430.076	3996.95
430.284	3878.17
430.491	3970.33
430.699	4334.87
430.906	4355.35
431.114	4334.87
431.321	4513.04
431.528	4697.36
431.736	4797.71
431.943	5123.34
432.15	4959.5
432.358	4926.73
432.565	5223.69
432.772	5270.79
432.979	5582.08
433.187	5668.09
433.394	5647.62
433.601	6049.02
433.808	6077.69
434.016	6036.73
434.223	6241.53
434.43	6552.82
434.637	6431.99
434.844	6741.23
435.052	7085.29
435.259	7003.37
435.466	7236.84
435.673	6974.7
435.88	7443.68
436.087	7787.74
436.294	7779.55
436.501	7720.16
436.708	7978.2
436.915	8068.31
437.122	8373.46
437.329	8238.3
437.537	8608.98
437.743	8824.01
437.95	8625.36
438.157	9182.41
438.364	9458.89
438.571	9630.91
438.778	9637.06
438.985	10355.9
439.192	10149.05
439.399	10355.9
439.606	10075.32
439.813	10822.83
440.02	11324.58
440.227	11310.25
440.433	11037.87
440.64	11476.13
440.847	11283.63
441.054	11740.32
441.261	12461.21
441.467	12287.13
441.674	12336.28
441.881	12780.69
442.088	12901.52
442.294	13005.97
442.501	12989.58
442.708	13288.59
442.914	13933.7
443.121	14570.61
443.328	14161.02
443.534	15076.46
443.741	14742.64
443.948	14339.19
444.154	15547.5
444.361	15504.49
444.568	15653.99
444.774	15467.63
444.981	15930.47
445.187	16348.25
445.394	16960.59
445.6	16626.78
445.807	18265.15
446.013	17568.84
446.22	17740.87
446.426	18455.61
446.633	18631.74
446.839	19151.92
447.046	18306.11
447.252	19565.61
447.459	19426.35
447.665	19227.7
447.871	20321.31
448.078	21228.56
448.284	20173.86
448.491	20894.74
448.697	21511.18
448.903	21976.07
449.11	22133.76
449.316	21589
449.522	21779.47
449.728	22682.62
449.935	23004.15
450.141	22766.59
450.347	23241.71
450.553	22950.9
450.76	23012.34
450.966	23862.25
451.172	23624.68
451.378	23882.73
451.584	23589.87
451.791	23995.37
451.997	23948.26
452.203	24239.08
452.409	24345.57
452.615	24343.52
452.821	23524.33
453.027	23331.83
453.233	24263.65
453.44	23583.73
453.646	23577.58
453.852	24105.96
454.058	24521.7
454.264	23434.22
454.47	23600.11
454.676	23458.8
454.882	24277.99
455.088	22156.29
455.294	22443.01
455.5	22803.45
455.705	23129.08
455.911	22301.7
456.117	21632.01
456.323	21343.25
456.529	20100.13
456.735	21490.7
456.941	20579.36
457.147	20286.5
457.352	19794.98
457.558	19373.1
457.764	19379.25
457.97	19020.85
458.176	18674.74
458.381	18572.35
458.587	17486.92
458.793	17845.32
458.999	16931.92
459.204	18009.15
459.41	17617.99
459.616	16491.61
459.821	16671.83
460.027	16356.44
460.233	16116.83
460.438	15453.29
460.644	15203.44
460.85	14738.55
461.055	14826.61
461.261	14412.92
461.466	13618.31
461.672	12911.76
461.878	13823.11
462.083	12856.47
462.289	12797.07
462.494	12553.37
462.7	12074.14
462.905	11818.15
463.111	12188.83
463.316	12098.72
463.522	11922.59
463.727	11816.1
463.932	12080.28
464.138	11709.6
464.343	11924.64
464.549	11463.85
464.754	11795.62
464.959	11556
465.165	11605.16
465.37	11422.89
465.575	10792.11
465.781	11257
465.986	11232.43
466.191	11074.73
466.397	10810.54
466.602	10298.55
466.807	10613.94
467.012	10437.81
467.218	10570.93
467.423	10572.98
467.628	10380.47
467.833	10816.69
468.038	10589.36
468.244	10280.12
468.449	10581.17
468.654	10192.06
468.859	10026.17
469.064	10058.94
469.269	9819.33
469.474	9700.55
469.679	10130.62
469.885	9749.7
470.09	9938.11
470.295	10079.42
470.5	9379.01
470.705	9667.78
470.91	9383.11
471.115	9405.64
471.32	9360.58
471.525	9387.21
471.73	9125.07
471.935	8981.71
472.139	8881.36
472.344	8858.83
472.549	8832.21
472.754	8854.73
472.959	8676.56
473.164	8482
473.369	8326.36
473.574	8596.69
473.778	8633.55
473.983	8422.61
474.188	8408.28
474.393	7890.14
474.598	8037.59
474.802	7943.39
475.007	7914.72
475.212	7957.72
475.417	7632.1
475.621	7785.69
475.826	7724.26
476.031	7634.14
476.235	7419.11
476.44	7607.52
476.645	7316.71
476.849	7408.87
477.054	7453.92
477.259	7175.4
477.463	7193.83
477.668	7036.14
477.872	7118.06
478.077	6786.29
478.282	6665.46
478.486	6702.32
478.691	6726.89
478.895	6784.24
479.1	6841.58
479.304	6739.18
479.509	6386.93
479.713	6522.1
479.918	6448.37
480.122	6300.92
480.326	6474.99
480.531	6317.3
480.735	6216.95
480.94	6370.55
481.144	6552.82
481.348	6075.64
481.553	6380.79
481.757	6186.23
481.961	6262.01
482.166	6333.68
482.37	6302.97
482.574	6153.46
482.778	6106.36
482.983	6130.94
483.187	6135.03
483.391	6186.23
483.595	6067.45
483.8	6122.74
484.004	6159.61
484.208	6223.09
484.412	6130.94
484.616	6214.9
484.821	6069.5
485.025	6071.54
485.229	6204.66
485.433	6173.94
485.637	6208.76
485.841	6182.13
486.045	5993.72
486.249	6251.77
486.453	6116.6
486.657	6089.98
486.861	6126.84
487.065	6143.22
487.269	6100.22
487.473	6157.56
487.677	5967.1
487.881	6282.49
488.085	6153.46
488.289	6264.05
488.493	6200.57
488.697	6200.57
488.901	6178.04
489.105	6161.66
489.309	6200.57
489.512	6212.85
489.716	6229.24
489.92	6159.61
490.124	6180.09
490.328	6395.12
490.531	6112.5
490.735	6214.9
490.939	6300.92
491.143	6425.84
491.346	6294.77
491.55	6167.8
491.754	6399.22
491.958	6491.38
492.161	6462.71
492.365	6489.33
492.569	6509.81
492.772	6425.84
492.976	6520.05
493.18	6563.06
493.383	6636.78
493.587	6747.37
493.79	6536.43
493.994	6630.64
494.197	6720.75
494.401	6880.49
494.605	6874.35
494.808	6862.06
495.012	6855.92
495.215	6943.98
495.419	6952.17
495.622	7029.99
495.825	7175.4
496.029	6956.27
496.232	7281.89
496.436	7154.92
496.639	7369.96
496.843	7359.72
497.046	7630.05
497.249	7521.51
497.453	7656.67
497.656	7566.56
497.859	7681.25
498.063	7800.03
498.266	7963.87
498.469	7951.58
498.673	7871.71
498.876	8049.88
499.079	8215.77
499.282	8297.69
499.485	8297.69
499.689	8461.52
499.892	8557.78
500.095	8557.78
500.298	8885.45
500.501	8717.52
500.705	8965.32
500.908	9198.79
501.111	9170.12
501.314	9227.46
501.517	9438.41
501.72	9456.84
501.923	9336.01
502.126	9770.18
502.329	9942.21
502.532	9813.18
502.735	9944.25
502.938	10288.31
503.141	9979.07
503.344	10472.63
503.547	10233.02
503.75	10359.99
503.953	10470.58
504.156	10538.16
504.359	10831.02
504.562	10732.72
504.765	11166.89
504.968	11037.87
505.17	11304.1
505.373	11449.51
505.576	11484.33
505.779	11451.56
505.982	11947.17
506.185	11949.22
506.387	12141.72
506.59	12197.02
506.793	12354.71
506.996	12168.35
507.198	12727.44
507.401	12567.7
507.604	12590.23
507.807	12973.2
508.009	13169.8
508.212	13167.76
508.415	13300.87
508.617	13462.66
508.82	13526.15
509.022	13612.17
509.225	14128.25
509.428	14007.42
509.63	14226.56
509.833	14118.01
510.035	14777.46
510.238	14593.14
510.44	14871.67
510.643	15010.93
510.845	15049.84
511.048	14974.06
511.25	15010.93
511.453	15406.19
511.655	16026.72
511.858	15639.65
512.06	15893.6
512.262	15946.85
512.465	15946.85
512.667	16507.99
512.87	16499.8
513.072	16368.73
513.274	16886.87
513.477	17093.71
513.679	17099.86
513.881	17189.97
514.084	17505.35
514.286	17558.6
514.488	17650.76
514.69	18150.46
514.893	18256.96
515.095	18148.42
515.297	18492.48
515.499	18580.54
515.701	18996.28
515.904	18816.05
516.106	19184.69
516.308	19225.65
516.51	19563.56
516.712	19526.7
516.914	19809.32
517.116	20225.06
517.318	20288.54
517.52	20333.6
517.722	20128.8
517.925	20759.58
518.127	21015.57
518.329	21349.39
518.531	21206.03
518.733	21433.36
518.935	21877.77
519.136	21623.82
519.338	22279.17
519.54	22209.54
519.742	22356.99
519.944	22504.45
520.146	22731.77
520.348	23211
520.55	23127.03
520.752	23118.84
520.954	23626.73
521.155	23559.15
521.357	23763.95
521.559	23968.74
521.761	24366.05
521.963	24296.42
522.164	24302.56
522.366	24708.06
522.568	24783.84
522.77	25154.52
522.971	25418.71
523.173	25449.42
523.375	25521.1
523.576	25668.56
523.778	25871.31
523.98	26153.93
524.181	26141.64
524.383	26123.21
524.584	26518.46
524.786	26721.21
524.988	26559.42
525.189	27016.12
525.391	27407.28
525.592	27100.09
525.794	27605.94
525.995	27747.25
526.197	27507.63
526.398	27780.01
526.6	27845.55
526.801	27894.7
527.003	27976.62
527.204	28453.8
527.406	28619.68
527.607	28470.18
527.808	28760.99
528.01	28476.32
528.211	29125.53
528.412	29406.1
528.614	29172.63
528.815	29180.82
529.016	29461.4
529.218	29004.7
529.419	29551.51
529.62	29547.41
529.822	29295.51
530.023	29295.51
530.224	29547.41
530.425	29664.14
530.626	29662.1
530.828	29531.03
531.029	30309.25
531.23	29864.85
531.431	29803.41
531.632	29844.37
531.833	30210.95
532.035	30155.66
532.236	30133.13
532.437	30477.19
532.638	30137.23
532.839	30518.15
533.04	30604.16
533.241	30628.74
533.442	30903.17
533.643	30647.17
533.844	30479.24
534.045	30606.21
534.246	30538.63
534.447	30669.7
534.648	30778.24
534.849	30634.88
535.05	30645.12
535.251	30700.42
535.451	30698.37
535.652	30911.36
535.853	30858.11
536.054	30968.7
536.255	30772.1
536.456	30768
536.657	31200.12
536.857	30466.95
537.058	30659.46
537.259	30731.14
537.46	30794.62
537.66	30749.57
537.861	31107.96
538.062	30694.27
538.263	31116.15
538.463	30770.05
538.664	30866.3
538.865	30800.77
539.065	30968.7
539.266	30815.1
539.466	31189.88
539.667	30544.77
539.868	30983.04
540.068	31028.09
540.269	30722.94
540.469	31349.62
540.67	30931.84
540.87	30931.84
541.071	30628.74
541.271	30780.29
541.472	30651.27
541.672	30550.92
541.873	30819.2
542.073	30583.68
542.274	31024
542.474	30673.79
542.675	30401.41
542.875	31038.33
543.075	30735.23
543.276	30548.87
543.476	31208.31
543.676	30663.55
543.877	30962.56
544.077	30724.99
544.277	30747.52
544.478	30817.15
544.678	30772.1
544.878	30813.06
545.078	30722.94
545.279	30665.6
545.479	30528.39
545.679	30845.82
545.879	30565.25
546.079	30921.6
546.28	30839.68
546.48	30731.14
546.68	30512
546.88	30770.05
547.08	30710.66
547.28	30618.5
547.48	30438.28
547.68	30661.51
547.88	30323.59
548.081	30561.15
548.281	30471.04
548.481	30569.35
548.681	30851.97
548.881	30528.39
549.081	30614.4
549.28	30645.12
549.48	30696.32
549.68	30342.02
549.88	31071.1
550.08	30870.4
550.28	30770.05
550.48	30843.77
550.68	31103.87
550.88	30520.2
551.08	30471.04
551.279	30546.82
551.479	30200.71
551.679	30290.82
551.879	30110.6
552.079	30669.7
552.278	30178.18
552.478	30415.75
552.678	30647.17
552.878	30473.09
553.077	30522.24
553.277	30124.94
553.477	30624.64
553.676	30075.79
553.876	30270.34
554.076	30411.65
554.275	30083.98
554.475	29963.15
554.674	30421.89
554.874	30299.01
555.074	29997.96
555.273	29830.03
555.473	30260.1
555.672	30194.57
555.872	30180.23
556.071	30057.35
556.271	30305.16
556.47	29784.97
556.67	29776.78
556.869	29838.22
557.068	29770.64
557.268	29813.65
557.467	29817.74
557.667	29905.81
557.866	29895.57
558.065	29520.79
558.265	29758.35
558.464	29469.59
558.663	29627.28
558.863	28959.64
559.062	29600.66
559.261	29164.44
559.461	29402
559.66	29168.54
559.859	29201.3
560.058	29207.45
560.258	28984.22
560.457	28892.06
560.656	29062.04
560.855	29113.24
561.054	28832.67
561.253	28433.32
561.453	28783.52
561.652	28808.09
561.851	28742.56
562.05	28746.65
562.249	28332.97
562.448	29000.6
562.647	28523.43
562.846	28638.11
563.045	28799.9
563.244	28214.18
563.443	28818.33
563.642	28015.53
563.841	28357.54
564.04	28068.78
564.239	28613.54
564.438	27820.97
564.637	27980.71
564.836	28249
565.035	27661.23
565.234	27849.64
565.432	27655.09
565.631	27634.61
565.83	27704.24
566.029	27253.69
566.228	27364.28
566.427	27478.96
566.625	27104.18
566.824	26991.55
567.023	27136.95
567.222	26723.26
567.42	27087.8
567.619	26893.24
567.818	26866.62
568.016	26596.29
568.215	27016.12
568.414	26807.23
568.612	26835.9
568.811	26428.35
569.01	26504.13
569.208	26268.61
569.407	26528.7
569.605	26104.77
569.804	26235.84
570.002	25988.04
570.201	26168.26
570.4	25820.11
570.598	25789.39
570.797	25502.67
570.995	25947.08
571.193	25719.76
571.392	25988.04
571.59	25252.82
571.789	25406.42
571.987	25359.31
572.186	25385.94
572.384	25267.16
572.582	25103.32
572.781	25353.17
572.979	24910.81
573.177	25148.37
573.376	25308.12
573.574	24452.06
573.772	24927.19
573.971	24701.92
574.169	24605.66
574.367	24318.95
574.565	24654.81
574.763	24359.91
574.962	24327.14
575.16	24314.85
575.358	24183.78
575.556	23804.91
575.754	24318.95
575.952	23870.44
576.151	24210.4
576.349	23510
576.547	23831.53
576.745	23712.75
576.943	23858.15
577.141	23651.31
577.339	23653.36
577.537	23550.96
577.735	23438.32
577.933	23399.41
578.131	23180.28
578.329	23358.45
578.527	23100.4
578.725	23215.09
578.923	23043.06
579.121	22823.93
579.319	22768.63
579.516	22899.7
579.714	22998.01
579.912	22516.73
580.11	22782.97
580.308	22645.76
580.506	22637.56
580.704	22137.86
580.901	22516.73
581.099	22682.62
581.297	22397.95
581.495	22035.46
581.692	22465.53
581.89	22338.56
582.088	22096.9
582.285	21834.76
582.483	22197.25
582.681	21933.06
582.878	21832.71
583.076	21634.06
583.274	21869.58
583.471	21537.8
583.669	21537.8
583.866	21240.85
584.064	21414.93
584.262	21310.48
584.459	21568.52
584.657	21285.9
584.854	21433.36
585.052	20933.65
585.249	20960.28
585.447	21238.8
585.644	20878.36
585.841	20935.7
586.039	21034
586.236	20739.1
586.434	20546.59
586.631	20626.46
586.828	20577.31
587.026	20636.7
587.223	20384.8
587.42	20292.64
587.618	20505.63
587.815	20270.11
588.012	20259.87
588.21	20042.79
588.407	20401.18
588.604	19981.35
588.801	19731.5
588.999	20053.03
589.196	20044.84
589.393	19711.02
589.59	19610.67
589.787	19684.39
589.984	19737.64
590.182	19430.44
590.379	19891.24
590.576	19393.58
590.773	19237.94
590.97	19268.66
591.167	19072.05
591.364	18854.97
591.561	19584.04
591.758	19057.71
591.955	19090.48
592.152	19008.56
592.349	18848.82
592.546	19026.99
592.743	18916.4
592.94	18674.74
593.137	18873.4
593.334	18908.21
593.531	18535.48
593.727	18869.3
593.924	18750.52
594.121	18455.61
594.318	18424.89
594.515	18224.19
594.712	18449.47
594.908	18209.86
595.105	18254.91
595.302	17994.82
595.499	18203.71
595.696	18019.39
595.892	17861.7
596.089	18160.7
596.286	18025.54
596.482	17781.83
596.679	17771.59
596.876	17679.43
597.072	17716.29
597.269	17824.84
597.466	17529.93
597.662	17333.32
597.859	17597.51
598.055	17275.98
598.252	17568.84
598.448	17419.34
598.645	17077.33
598.841	17232.97
599.038	17069.14
599.234	17073.23
599.431	17026.13
599.627	16974.93
599.824	16981.07
600.02	16903.25
600.217	16966.74
600.413	16878.68
600.609	16786.52
600.806	16401.5
601.002	16495.71
601.198	16641.11
601.395	16505.95
601.591	16704.6
601.787	16819.28
601.984	16364.64
602.18	16469.08
602.376	16270.43
602.572	16403.55
602.769	16141.41
602.965	16082.02
603.161	16067.68
603.357	16178.27
603.553	15936.61
603.75	15946.85
603.946	15481.96
604.142	15946.85
604.338	15846.5
604.534	15852.64
604.73	15817.83
604.926	15668.33
605.122	15631.46
605.318	15596.65
605.514	15590.5
605.71	15488.1
605.906	15430.76
606.102	15215.73
606.298	15436.91
606.494	15463.53
606.69	15236.2
606.886	15350.89
607.082	14914.67
607.278	15246.44
607.474	14857.33
607.67	15477.87
607.866	14912.63
608.062	15221.87
608.257	14912.63
608.453	14976.11
608.649	14949.49
608.845	14799.99
609.041	14859.38
609.236	14845.04
609.432	14830.71
609.628	14781.56
609.824	14681.21
610.019	14570.61
610.215	14789.75
610.411	14601.33
610.606	14523.51
610.802	14761.08
610.998	14435.45
611.193	14683.25
611.389	14576.76
611.584	14341.24
611.78	14425.21
611.976	14607.48
612.171	14398.59
612.367	14277.76
612.562	14083.2
612.758	13948.03
612.953	13919.36
613.149	14126.21
613.344	14101.63
613.539	14290.04
613.735	14181.5
613.93	14175.36
614.126	13755.52
614.321	14228.6
614.517	14050.43
614.712	14132.35
614.907	13810.82
615.103	13847.68
615.298	13882.5
615.493	13968.51
615.688	13851.78
615.884	13984.9
616.079	13683.84
616.274	13771.91
616.47	13536.39
616.665	13552.77
616.86	13638.79
617.055	13462.66
617.25	13517.96
617.445	13622.41
617.641	13444.23
617.836	13501.58
618.031	13206.67
618.226	13630.6
618.421	13102.22
618.616	13530.25
618.811	13237.39
619.006	13448.33
619.201	13024.4
619.396	13151.37
619.591	12835.99
619.786	13159.56
619.981	13020.3
620.176	12999.82
620.371	13061.26
620.566	12809.36
620.761	12635.28
620.956	12876.94
621.151	12641.43
621.346	12623
621.541	12440.73
621.735	12487.83
621.93	12299.42
622.125	12291.23
622.32	12334.23
622.515	12305.56
622.709	12221.59
622.904	12307.61
623.099	12117.15
623.294	12080.28
623.488	11941.02
623.683	11867.3
623.878	11605.16
624.072	11656.36
624.267	11619.49
624.462	11605.16
624.656	11486.37
624.851	11216.04
625.046	11332.78
625.24	11588.77
625.435	11375.78
625.629	11140.27
625.824	11031.73
626.018	11041.96
626.213	11027.63
626.407	10912.94
626.602	10669.23
626.796	10951.85
626.991	10988.72
627.185	10806.45
627.38	10720.43
627.574	10691.76
627.768	10515.64
627.963	10290.36
628.157	10357.94
628.352	10382.52
628.546	10323.13
628.74	10255.54
628.935	10245.31
629.129	10368.18
629.323	10036.41
629.517	10079.42
629.712	9901.25
629.906	9901.25
630.1	9964.73
630.294	9837.76
630.489	9714.88
630.683	9827.52
630.877	9655.49
631.071	9848
631.265	9655.49
631.459	9600.19
631.653	9331.91
631.848	9577.67
632.042	9581.76
632.236	9561.28
632.43	9424.07
632.624	9323.72
632.818	9319.62
633.012	9153.74
633.206	9047.24
633.4	9184.46
633.594	9202.89
633.788	8991.95
633.982	8994
634.176	8934.6
634.369	9045.2
634.563	8871.12
634.757	8623.31
634.951	8742.1
635.145	8727.76
635.339	8725.71
635.533	8697.04
635.726	8512.72
635.92	8445.14
636.114	8322.26
636.308	8553.68
636.501	8363.22
636.695	8484.05
636.889	8322.26
637.083	8226.01
637.276	8187.1
637.47	8191.19
637.664	8039.64
637.857	8277.21
638.051	8047.83
638.244	8053.98
638.438	7961.82
638.632	7965.92
638.825	7843.04
639.019	7974.11
639.212	7855.33
639.406	7845.09
639.599	7546.08
639.793	7666.91
639.986	7515.36
640.18	7689.44
640.373	7625.95
640.567	7558.37
640.76	7693.54
640.954	7412.96
641.147	7449.83
641.34	7337.19
641.534	7296.23
641.727	7384.29
641.92	7294.18
642.114	7103.72
642.307	7161.06
642.5	7171.3
642.694	6978.79
642.887	6970.6
643.08	6995.18
643.273	6989.03
643.467	6866.16
643.66	6991.08
643.853	6986.99
644.046	6585.58
644.239	6751.47
644.432	6843.63
644.626	6751.47
644.819	6591.73
645.012	6548.72
645.205	6661.36
645.398	6548.72
645.591	6386.93
645.784	6472.95
645.977	6335.73
646.17	6407.41
646.363	6403.32
646.556	6198.52
646.749	6311.16
646.942	6309.11
647.135	6253.81
647.328	6206.71
647.521	6143.22
647.714	6190.33
647.907	6094.07
648.099	5891.32
648.292	6311.16
648.485	6251.77
648.678	6044.92
648.871	5987.58
649.064	5963
649.256	5874.94
649.449	5688.57
649.642	5889.28
649.835	5967.1
650.027	5866.75
650.22	5793.02
650.413	5750.01
650.605	5866.75
650.798	5723.39
650.991	5645.57
651.183	5627.14
651.376	5565.7
651.568	5379.33
651.761	5592.32
651.954	5614.85
652.146	5524.74
652.339	5274.88
652.531	5321.99
652.724	5436.67
652.916	5399.81
653.109	5317.89
653.301	5430.53
653.494	5321.99
653.686	5072.14
653.879	5297.41
654.071	5115.14
654.263	5182.73
654.456	5029.13
654.648	5235.97
654.84	4971.79
655.033	4998.41
655.225	5125.38
655.417	4910.35
655.61	5088.52
655.802	5172.49
655.994	4887.82
656.186	4881.67
656.379	4865.29
656.571	4777.23
656.763	4812.04
656.955	4855.05
657.148	4721.93
657.34	4754.7
657.532	4670.73
657.724	4783.37
657.916	4642.06
658.108	4732.17
658.3	4605.2
658.492	4648.21
658.684	4564.24
658.876	4617.49
659.068	4568.34
659.26	4500.75
659.452	4320.53
659.644	4523.28
659.836	4386.07
660.028	4566.29
660.22	4437.27
660.412	4429.07
660.604	4275.48
660.796	4341.01
660.988	4304.15
661.18	4320.53
661.372	4238.61
661.563	4189.46
661.755	4168.98
661.947	4248.85
662.139	4138.26
662.331	4183.32
662.522	4283.67
662.714	4117.78
662.906	4064.54
663.097	4183.32
663.289	4046.1
663.481	4003.1
663.673	3945.75
663.864	4060.44
664.056	3992.86
664.247	4138.26
664.439	3931.42
664.631	3960.09
664.822	3917.08
665.014	3919.13
665.205	3857.69
665.397	3892.51
665.588	3851.55
665.78	3933.47
665.971	3788.06
666.163	3810.59
666.354	3740.96
666.546	3730.72
666.737	3826.97
666.929	3783.96
667.12	3740.96
667.311	3693.85
667.503	3781.92
667.694	3648.8
667.885	3626.27
668.077	3644.7
668.268	3560.73
668.459	3347.75
668.651	3513.63
668.842	3677.47
669.033	3525.92
669.224	3566.88
669.416	3646.75
669.607	3515.68
669.798	3480.86
669.989	3640.61
670.18	3534.11
670.371	3554.59
670.563	3431.71
670.754	3403.04
670.945	3454.24
671.136	3433.76
671.327	3355.94
671.518	3329.31
671.709	3556.64
671.9	3360.03
672.091	3405.09
672.282	3286.31
672.473	3456.29
672.664	3468.58
672.855	3454.24
673.046	3429.66
673.237	3431.71
673.428	3319.07
673.619	3339.55
673.809	3212.58
674	3304.74
674.191	3233.06
674.382	3220.77
674.573	3212.58
674.764	3224.87
674.954	3294.5
675.145	3263.78
675.336	3224.87
675.527	3228.96
675.717	3163.43
675.908	3206.44
676.099	3126.57
676.289	3274.02
676.48	3052.84
676.671	3145
676.861	3056.93
677.052	3104.04
677.243	3108.13
677.433	3054.89
677.624	3183.91
677.814	3235.11
678.005	3095.85
678.195	3183.91
678.386	3061.03
678.576	3050.79
678.767	3005.74
678.957	2979.11
679.148	3042.6
679.338	3134.76
679.529	3251.49
679.719	3020.07
679.909	3079.46
680.1	2952.49
680.29	3061.03
680.481	3155.24
680.671	3061.03
680.861	2917.67
681.052	3142.95
681.242	3106.09
681.432	3065.13
681.622	2962.73
681.813	2954.54
682.003	3032.36
682.193	3054.89
682.383	2995.5
682.573	3114.28
682.764	3048.74
682.954	2970.92
683.144	3046.69
683.334	2936.1
683.524	3040.55
683.714	2934.06
683.904	2798.89
684.094	3007.78
684.284	2884.91
684.474	3114.28
684.664	2936.1
684.854	2878.76
685.044	2901.29
685.234	2852.14
685.424	2802.99
685.614	2845.99
685.804	2899.24
685.994	2891.05
686.184	2784.55
686.374	2819.37
686.564	2889
686.753	2833.71
686.943	2917.67
687.133	2901.29
687.323	2866.47
687.513	2889
687.702	2731.31
687.892	2788.65
688.082	2815.27
688.272	2825.51
688.461	2731.31
688.651	2757.93
688.841	2755.88
689.03	2735.4
689.22	2696.49
689.41	2733.36
689.599	2727.21
689.789	2784.55
689.979	2809.13
690.168	2749.74
690.358	2676.01
690.547	2719.02
690.737	2608.43
690.926	2708.78
691.116	2606.38
691.305	2610.48
691.495	2618.67
691.684	2579.76
691.874	2606.38
692.063	2497.84
692.252	2590
692.442	2544.94
692.631	2522.41
692.82	2491.7
693.01	2534.7
693.199	2434.35
693.388	2501.94
693.578	2483.5
693.767	2422.06
693.956	2452.78
694.146	2469.17
694.335	2442.54
694.524	2467.12
694.713	2542.89
694.902	2499.89
695.092	2342.19
695.281	2313.52
695.47	2434.35
695.659	2409.78
695.848	2329.91
696.037	2442.54
696.226	2467.12
696.415	2350.39
696.604	2254.13
696.793	2356.53
696.982	2358.58
697.171	2344.24
697.36	2266.42
697.549	2284.85
697.738	2344.24
697.927	2329.91
698.116	2360.63
698.305	2366.77
698.494	2477.36
698.683	2438.45
698.872	2278.71
699.061	2297.14
699.25	2524.46
699.438	2350.39
699.627	2379.06
699.816	2409.78
700.005	2340.15
700.193	2366.77
700.382	2383.15
700.571	2329.91
700.76	2207.03
700.948	2311.47
701.137	2391.34
701.326	2434.35
701.514	2460.98
701.703	2266.42
701.892	2211.12
702.08	2477.36
702.269	2344.24
702.457	2413.87
702.646	2393.39
702.834	2204.98
703.023	2235.7
703.212	2336.05
703.4	2278.71
703.589	2321.71
703.777	2286.9
703.965	2323.76
704.154	2266.42
704.342	2334
704.531	2278.71
704.719	2295.09
704.907	2430.26
705.096	2362.67
705.284	2282.8
705.472	2348.34
705.661	2340.15
705.849	2274.61
706.037	2303.28
706.226	2235.7
706.414	2282.8
706.602	2266.42
706.79	2325.81
706.979	2237.75
707.167	2286.9
707.355	2385.2
707.543	2303.28
707.731	2364.72
707.919	2231.6
708.107	2262.32
708.296	2366.77
708.484	2391.34
708.672	2174.26
708.86	2239.8
709.048	2331.95
709.236	2407.73
709.424	2409.78
709.612	2272.56
709.8	2264.37
709.988	2297.14
710.176	2344.24
710.364	2293.04
710.551	2315.57
710.739	2358.58
710.927	2377.01
711.115	2319.67
711.303	2209.08
711.491	2219.32
711.679	2420.02
711.866	2311.47
712.054	2317.62
712.242	2323.76
712.43	2325.81
712.617	2389.3
712.805	2227.51
712.993	2321.71
713.181	2319.67
713.368	2329.91
713.556	2323.76
713.744	2307.38
713.931	2358.58
714.119	2417.97
714.306	2401.58
714.494	2344.24
714.682	2366.77
714.869	2272.56
715.057	2395.44
715.244	2331.95
715.432	2372.91
715.619	2360.63
715.807	2264.37
715.994	2387.25
716.182	2313.52
716.369	2428.21
716.556	2395.44
716.744	2399.54
716.931	2434.35
717.119	2303.28
717.306	2344.24
717.493	2356.53
717.681	2225.46
717.868	2360.63
718.055	2471.22
718.242	2319.67
718.43	2440.5
718.617	2448.69
718.804	2448.69
718.991	2454.83
719.179	2295.09
719.366	2434.35
719.553	2432.3
719.74	2397.49
719.927	2303.28
720.114	2340.15
720.301	2368.82
720.488	2430.26
720.676	2428.21
720.863	2438.45
721.05	2368.82
721.237	2372.91
721.424	2344.24
721.611	2360.63
721.798	2409.78
721.985	2434.35
722.172	2286.9
722.358	2471.22
722.545	2438.45
722.732	2387.25
722.919	2508.08
723.106	2463.02
723.293	2460.98
723.48	2448.69
723.667	2432.3
723.853	2393.39
724.04	2399.54
724.227	2434.35
724.414	2383.15
724.6	2356.53
724.787	2426.16
724.974	2587.95
725.161	2395.44
725.347	2407.73
725.534	2542.89
725.72	2295.09
725.907	2536.75
726.094	2411.82
726.28	2393.39
726.467	2475.31
726.653	2549.04
726.84	2530.61
727.027	2571.57
727.213	2438.45
727.4	2374.96
727.586	2346.29
727.773	2559.28
727.959	2567.47
728.145	2544.94
728.332	2526.51
728.518	2503.98
728.705	2628.91
728.891	2491.7
729.077	2532.65
729.264	2573.61
729.45	2528.56
729.636	2565.42
729.823	2536.75
730.009	2575.66
730.195	2567.47
730.382	2450.74
730.568	2499.89
730.754	2450.74
730.94	2456.88
731.126	2544.94
731.313	2573.61
731.499	2497.84
731.685	2676.01
731.871	2565.42
732.057	2563.37
732.243	2389.3
732.429	2575.66
732.615	2651.44
732.801	2528.56
732.987	2479.41
733.173	2477.36
733.359	2467.12
733.545	2481.46
733.731	2497.84
733.917	2536.75
734.103	2565.42
734.289	2514.22
734.475	2553.13
734.661	2407.73
734.847	2542.89
735.033	2577.71
735.219	2602.29
735.404	2536.75
735.59	2534.7
735.776	2510.13
735.962	2555.18
736.148	2442.54
736.333	2536.75
736.519	2518.32
736.705	2639.15
736.89	2585.9
737.076	2608.43
737.262	2610.48
737.447	2522.41
737.633	2516.27
737.819	2608.43
738.004	2503.98
738.19	2499.89
738.375	2544.94
738.561	2637.1
738.747	2479.41
738.932	2598.19
739.118	2497.84
739.303	2532.65
739.489	2456.88
739.674	2460.98
739.859	2413.87
740.045	2485.55
740.23	2473.26
740.416	2413.87
740.601	2354.48
740.786	2409.78
740.972	2358.58
741.157	2422.06
741.342	2352.43
741.528	2526.51
741.713	2544.94
741.898	2409.78
742.084	2546.99
742.269	2528.56
742.454	2344.24
742.639	2372.91
742.824	2270.51
743.01	2389.3
743.195	2438.45
743.38	2428.21
743.565	2432.3
743.75	2424.11
743.935	2381.1
744.12	2452.78
744.305	2268.47
744.49	2311.47
744.675	2356.53
744.86	2399.54
745.045	2282.8
745.23	2309.43
745.415	2354.48
745.6	2256.18
745.785	2264.37
745.97	2272.56
746.155	2334
746.34	2266.42
746.525	2250.03
746.71	2264.37
746.895	2157.88
747.079	2219.32
747.264	2153.78
747.449	2250.03
747.634	2264.37
747.819	2211.12
748.003	2141.49
748.188	2141.49
748.373	2129.2
748.557	2092.34
748.742	2102.58
748.927	2090.29
749.111	2030.9
749.296	2157.88
749.481	2086.2
749.665	2094.39
749.85	2051.38
750.034	2006.33
750.219	2000.18
750.404	1959.22
750.588	1881.4
750.773	1991.99
750.957	1901.88
751.141	1969.46
751.326	2024.76
751.51	1924.41
751.695	1885.5
751.879	1836.35
752.064	1817.91
752.248	1875.26
752.432	1881.4
752.617	1889.59
752.801	1862.97
752.985	1875.26
753.17	1891.64
753.354	1905.98
753.538	1824.06
753.722	1795.39
753.907	1727.8
754.091	1842.49
754.275	1676.6
754.459	1750.33
754.643	1701.18
754.828	1686.84
755.012	1611.07
755.196	1717.56
755.38	1660.22
755.564	1557.82
755.748	1619.26
755.932	1641.79
756.116	1543.49
756.3	1545.53
756.484	1627.45
756.668	1600.83
756.852	1539.39
757.036	1563.97
757.22	1617.21
757.404	1447.23
757.588	1426.75
757.772	1486.14
757.956	1525.05
758.14	1523.01
758.323	1475.9
758.507	1484.09
758.691	1486.14
758.875	1453.38
759.059	1475.9
759.242	1367.36
759.426	1414.46
759.61	1393.98
759.794	1432.9
759.977	1443.14
760.161	1457.47
760.345	1424.7
760.528	1283.39
760.712	1412.42
760.895	1328.45
761.079	1443.14
761.263	1369.41
761.446	1363.26
761.63	1332.54
761.813	1389.89
761.997	1299.78
762.18	1320.26
762.364	1301.83
762.547	1310.02
762.731	1211.71
762.914	1271.11
763.098	1197.38
763.281	1244.48
763.464	1258.82
763.648	1336.64
763.831	1215.81
764.015	1303.87
764.198	1203.52
764.381	1137.99
764.564	1328.45
764.748	1277.25
764.931	1123.65
765.114	1187.14
765.297	1275.2
765.481	1150.28
765.664	1256.77
765.847	1285.44
766.03	1158.47
766.213	1133.89
766.397	1236.29
766.58	1164.61
766.763	1211.71
766.946	1195.33
767.129	1105.22
767.312	1117.51
767.495	1103.17
767.678	1109.32
767.861	1066.31
768.044	1086.79
768.227	1023.3
768.41	1111.36
768.593	1117.51
768.776	1045.83
768.959	1078.6
769.142	1117.51
769.324	1178.95
769.507	1097.03
769.69	980.29
769.873	1078.6
770.056	988.49
770.239	1031.49
770.421	1056.07
770.604	976.2
770.787	968.01
770.97	1019.21
771.152	1015.11
771.335	1086.79
771.518	1021.25
771.7	1058.12
771.883	994.63
772.066	920.9
772.248	976.2
772.431	1056.07
772.613	998.73
772.796	902.47
772.978	998.73
773.161	970.05
773.343	961.86
773.526	990.53
773.708	849.22
773.891	914.76
774.073	871.75
774.256	935.24
774.438	900.42
774.621	947.53
774.803	920.9
774.985	922.95
775.168	951.62
775.35	847.18
775.532	957.77
775.715	873.8
775.897	875.85
776.079	877.9
776.261	841.03
776.444	845.13
776.626	814.41
776.808	884.04
776.99	824.65
777.173	808.26
777.355	763.21
777.537	818.5
777.719	765.26
777.901	750.92
778.083	720.2
778.265	765.26
778.447	830.79
778.629	746.83
778.811	746.83
778.993	791.88
779.175	750.92
779.357	677.19
779.539	757.07
779.721	718.15
779.903	699.72
780.085	681.29
780.267	765.26
780.449	707.91
780.631	673.1
780.812	738.63
780.994	656.72
781.176	767.31
781.358	726.35
781.54	742.73
781.721	740.68
781.903	626
782.085	623.95
782.267	714.06
782.448	601.42
782.63	617.8
782.812	677.19
782.993	621.9
783.175	679.24
783.357	669
783.538	574.8
783.72	599.37
783.901	623.95
784.083	550.22
784.264	505.17
784.446	580.94
784.627	542.03
784.809	501.07
784.99	609.61
785.172	613.71
785.353	587.08
785.535	580.94
785.716	542.03
785.897	470.35
786.079	580.94
786.26	486.73
786.441	542.03
786.623	531.79
786.804	456.01
786.985	480.59
787.167	462.16
787.348	521.55
787.529	533.84
787.71	560.46
787.891	451.92
788.073	402.77
788.254	499.02
788.435	587.08
788.616	445.77
788.797	490.83
788.978	529.74
789.159	513.36
789.34	494.93
789.522	484.69
789.703	425.29
789.884	470.35
790.065	431.44
790.246	453.97
790.427	437.58
790.607	447.82
790.788	464.21
790.969	451.92
791.15	419.15
791.331	400.72
791.512	378.19
791.693	439.63
791.874	466.25
792.054	472.4
792.235	433.49
792.416	417.1
792.597	404.82
792.778	353.62
792.958	343.38
793.139	425.29
793.32	392.53
793.5	390.48
793.681	380.24
793.862	355.66
794.042	361.81
794.223	365.9
794.404	386.38
794.584	378.19
794.765	279.89
794.945	398.67
795.126	345.42
795.306	417.1
795.487	335.18
795.667	382.29
795.848	437.58
796.028	404.82
796.209	320.85
796.389	349.52
796.57	341.33
796.75	326.99
796.93	300.37
797.111	361.81
797.291	370
797.471	374.1
797.652	243.03
797.832	331.09
798.012	320.85
798.192	263.51
798.373	335.18
798.553	310.61
798.733	329.04
798.913	290.13
799.093	374.1
799.274	341.33
799.454	331.09
799.634	341.33
799.814	292.18
799.994	345.42
800.174	283.98
800.354	304.46
800.534	302.42
800.714	298.32
800.894	249.17
801.074	185.68
801.254	265.55
801.434	267.6
801.614	308.56
801.794	335.18
801.974	603.47
802.154	269.65
802.334	316.75
802.514	249.17
802.693	263.51
802.873	283.98
803.053	259.41
803.233	288.08
803.413	296.27
803.592	296.27
803.772	345.42
803.952	236.88
804.131	230.74
804.311	316.75
804.491	238.93
804.67	243.03
804.85	234.83
805.03	222.55
805.209	294.22
805.389	255.31
805.568	210.26
805.748	220.5
805.928	316.75
806.107	222.55
806.287	263.51
806.466	226.64
806.646	261.46
806.825	226.64
807.004	234.83
807.184	322.9
807.363	183.63
807.543	204.11
807.722	228.69
807.901	240.98
808.081	300.37
808.26	214.35
808.439	197.97
808.619	292.18
808.798	228.69
808.977	224.59
809.156	232.79
809.336	169.3
809.515	193.87
809.694	138.58
809.873	245.07
810.052	214.35
810.231	263.51
810.411	204.11
810.59	167.25
810.769	138.58
810.948	222.55
811.127	163.15
811.306	232.79
811.485	197.97
811.664	197.97
811.843	171.35
812.022	122.2
812.201	159.06
812.38	249.17
812.559	124.24
812.737	220.5
812.916	204.11
813.095	173.39
813.274	202.07
813.453	128.34
813.632	187.73
813.811	232.79
813.989	191.83
814.168	181.59
814.347	175.44
814.526	218.45
814.704	152.91
814.883	286.03
815.062	177.49
815.24	202.07
815.419	169.3
815.598	173.39
815.776	120.15
815.955	175.44
816.133	144.72
816.312	183.63
816.49	97.62
816.669	167.25
816.847	138.58
817.026	132.44
817.204	134.48
817.383	165.2
817.561	140.63
817.74	142.68
817.918	185.68
818.097	175.44
818.275	122.2
818.453	152.91
818.632	154.96
818.81	93.52
818.988	157.01
819.167	130.39
819.345	152.91
819.523	148.82
819.701	238.93
819.879	253.27
820.058	210.26
820.236	87.38
820.414	173.39
820.592	183.63
820.77	134.48
820.948	173.39
821.127	167.25
821.305	103.76
821.483	30.04
821.661	148.82
821.839	144.72
822.017	167.25
822.195	126.29
822.373	208.21
822.551	77.14
822.729	179.54
822.907	150.87
823.085	85.33
823.262	146.77
823.44	126.29
823.618	150.87
823.796	107.86
823.974	105.81
824.152	91.48
824.329	142.68
824.507	114
824.685	89.43
824.863	161.11
825.04	124.24
825.218	146.77
825.396	93.52
825.574	136.53
825.751	107.86
825.929	73.04
826.107	101.72
826.284	134.48
826.462	54.61
826.639	68.95
826.817	128.34
826.994	126.29
827.172	50.52
827.349	152.91
827.527	50.52
827.704	157.01
827.882	97.62
828.059	177.49
828.237	101.72
828.414	71
828.591	30.04
828.769	195.92
828.946	114
829.124	56.66
829.301	120.15
829.478	138.58
829.655	103.76
829.833	146.77
830.01	83.28
830.187	124.24
830.364	134.48
830.542	81.24
830.719	105.81
830.896	150.87
831.073	17.75
831.25	138.58
831.427	120.15
831.604	152.91
831.782	105.81
831.959	124.24
832.136	89.43
832.313	91.48
832.49	107.86
832.667	99.67
832.844	54.61
833.021	189.78
833.198	122.2
833.374	91.48
833.551	83.28
833.728	144.72
833.905	124.24
834.082	17.75
834.259	66.9
834.436	101.72
834.612	105.81
834.789	193.87
834.966	19.8
835.143	87.38
835.319	71
835.496	138.58
835.673	99.67
835.85	91.48
836.026	36.18
836.203	144.72
836.38	99.67
836.556	77.14
836.733	21.84
836.909	132.44
837.086	128.34
837.262	163.15
837.439	36.18
837.616	66.9
837.792	101.72
837.968	97.62
838.145	136.53
838.321	52.56
838.498	134.48
838.674	23.89
838.851	154.96
839.027	95.57
839.203	30.04
839.38	64.85
839.556	11.61
839.732	142.68
839.909	144.72
840.085	93.52
840.261	42.32
840.437	38.23
840.614	-29.35
840.79	93.52
840.966	66.9
841.142	62.8
841.318	83.28
841.494	71
841.671	165.2
841.847	25.94
842.023	85.33
842.199	107.86
842.375	89.43
842.551	101.72
842.727	52.56
842.903	159.06
843.079	120.15
843.255	68.95
843.431	60.76
843.607	75.09
843.783	36.18
843.959	58.71
844.134	23.89
844.31	9.56
844.486	44.37
844.662	-10.92
844.838	32.08
845.013	9.56
845.189	126.29
845.365	15.7
845.541	105.81
845.716	62.8
845.892	64.85
846.068	99.67
846.244	48.47
846.419	85.33
846.595	-6.83
846.77	83.28
846.946	83.28
847.122	9.56
847.297	-4.78
847.473	62.8
847.648	52.56
847.824	27.99
847.999	-29.35
848.175	52.56
848.35	114
848.526	44.37
848.701	-25.26
848.876	85.33
849.052	40.28
849.227	3.41
849.403	11.61
849.578	34.13
849.753	32.08
849.929	89.43
850.104	5.46
850.279	56.66
850.454	56.66
850.63	75.09
850.805	13.65
850.98	56.66
851.155	85.33
851.33	62.8
851.505	23.89
851.681	71
851.856	13.65
852.031	40.28
852.206	7.51
852.381	38.23
852.556	38.23
852.731	56.66
852.906	99.67
853.081	54.61
853.256	62.8
853.431	54.61
853.606	-6.83
853.781	62.8
853.956	-12.97
854.131	89.43
854.305	62.8
854.48	77.14
854.655	15.7
854.83	91.48
855.005	75.09
855.18	50.52
855.354	116.05
855.529	13.65
855.704	15.7
855.879	30.04
856.053	7.51
856.228	27.99
856.403	56.66
856.577	64.85
856.752	27.99
856.926	50.52
857.101	-39.59
857.276	-2.73
857.45	32.08
857.625	91.48
857.799	87.38
857.974	34.13
858.148	21.84
858.323	132.44
858.497	93.52
858.672	34.13
858.846	23.89
859.02	103.76
859.195	19.8
859.369	3.41
859.543	48.47
859.718	30.04
859.892	75.09
860.066	7.51
860.241	34.13
860.415	54.61
860.589	-19.11
860.763	44.37
860.938	54.61
861.112	101.72
861.286	11.61
861.46	40.28
861.634	23.89
861.808	85.33
861.982	58.71
862.157	15.7
862.331	13.65
862.505	75.09
862.679	60.76
862.853	1.37
863.027	-4.78
863.201	83.28
863.375	34.13
863.549	-35.5
863.722	-10.92
863.896	93.52
864.07	-19.11
864.244	7.51
864.418	107.86
864.592	-6.83
864.766	19.8
864.939	-72.36
865.113	-6.83
865.287	87.38
865.461	7.51
865.634	25.94
865.808	-15.02
865.982	-15.02
866.156	50.52
866.329	11.61
866.503	38.23
866.676	42.32
866.85	54.61
867.024	-15.02
867.197	3.41
867.371	36.18
867.544	42.32
867.718	-37.55
867.891	62.8
868.065	13.65
868.238	23.89
868.412	79.19
868.585	32.08
868.759	83.28
868.932	9.56
869.105	7.51
869.279	1.37
869.452	122.2
869.625	-35.5
869.799	40.28
869.972	-8.87
870.145	27.99
870.319	19.8
870.492	44.37
870.665	-25.26
870.838	60.76
871.011	-25.26
871.185	54.61
871.358	11.61
871.531	44.37
871.704	-6.83
871.877	-27.31
872.05	34.13
872.223	36.18
872.396	122.2
872.569	1.37
872.742	44.37
872.915	107.86
873.088	1.37
873.261	40.28
873.434	46.42
873.607	9.56
873.78	34.13
873.953	56.66
874.126	-2.73
874.299	42.32
874.471	36.18
874.644	15.7
874.817	-15.02
874.99	56.66
875.163	-51.88
875.335	-25.26
875.508	62.8
875.681	-25.26
875.853	-2.73
876.026	-51.88
876.199	64.85
876.371	56.66
876.544	19.8
876.717	93.52
876.889	42.32
877.062	62.8
877.234	1.37
877.407	-35.5
877.579	-39.59
877.752	44.37
877.924	11.61
878.097	21.84
878.269	81.24
878.442	32.08
878.614	91.48
878.786	-62.12
878.959	-4.78
879.131	42.32
879.303	83.28
879.476	50.52
879.648	17.75
879.82	23.89
879.993	27.99
880.165	58.71
880.337	19.8
880.509	27.99
880.681	27.99
880.854	32.08
881.026	-23.21
881.198	95.57
881.37	3.41
881.542	23.89
881.714	23.89
881.886	64.85
882.058	54.61
882.23	66.9
882.402	-23.21
882.574	-10.92
882.746	54.61
882.918	46.42
883.09	-12.97
883.262	-27.31
883.434	-35.5
883.606	-15.02
883.778	56.66
883.95	66.9
884.122	44.37
884.293	56.66
884.465	75.09
884.637	27.99
884.809	48.47
884.98	19.8
885.152	27.99
885.324	114
885.496	-39.59
885.667	15.7
885.839	44.37
886.011	64.85
886.182	15.7
886.354	44.37
886.525	19.8
886.697	21.84
886.869	1.37
887.04	-12.97
887.212	-31.4
887.383	52.56
887.555	73.04
887.726	-33.45
887.897	-66.22
888.069	-51.88
888.24	75.09
888.412	-31.4
888.583	-47.79
888.754	19.8
888.926	11.61
889.097	-15.02
889.268	-8.87
889.44	-21.16
889.611	-53.93
889.782	-19.11
889.953	-15.02
890.125	99.67
890.296	-74.41
890.467	27.99
890.638	81.24
890.809	15.7
890.98	34.13
891.151	91.48
891.323	109.91
891.494	50.52
891.665	38.23
891.836	30.04
892.007	11.61
892.178	52.56
892.349	36.18
892.52	-64.17
892.691	34.13
892.862	13.65
893.032	30.04
893.203	-10.92
893.374	-51.88
893.545	62.8
893.716	58.71
893.887	103.76
894.057	-33.45
894.228	60.76
894.399	85.33
894.57	105.81
894.74	21.84
894.911	21.84
895.082	46.42
895.253	7.51
895.423	30.04
895.594	103.76
895.764	34.13
895.935	-4.78
896.106	79.19
896.276	-2.73
896.447	-35.5
896.617	-25.26
896.788	73.04
896.958	38.23
897.129	-15.02
897.299	13.65
897.47	40.28
897.64	7.51
897.81	38.23
897.981	-17.07
898.151	27.99
898.322	27.99
898.492	-47.79
898.662	-2.73
898.832	7.51
899.003	-15.02
899.173	30.04
899.343	30.04
899.513	15.7
