Data from USB4F104151__15__11-44-35-394.txt Node

Date: Fri Mar 14 11:44:35 EDT 2025
User: louis
Spectrometer: USB4F10415
Trigger mode: 4
Integration Time (sec): 2.000000E-2
Scans to average: 1
Electric dark correction enabled: true
Nonlinearity correction enabled: false
Boxcar width: 0
XAxis mode: Wavelengths
Number of Pixels in Spectrum: 3648
>>>>>Begin Spectral Data<<<<<
178.204	-3.58
178.424	-3.58
178.644	-3.58
178.864	-116.22
179.084	-36.35
179.304	-46.59
179.524	29.18
179.744	-36.35
179.964	-13.82
180.184	8.7
180.404	57.86
180.624	12.8
180.844	39.42
181.064	-73.21
181.283	29.18
181.503	-1.54
181.723	-5.63
181.943	20.99
182.163	43.52
182.383	31.23
182.602	49.66
182.822	109.05
183.042	35.33
183.262	-11.78
183.482	47.62
183.701	-9.73
183.921	88.57
184.141	53.76
184.361	12.8
184.58	76.29
184.8	76.29
185.02	88.57
185.239	64
185.459	66.05
185.679	64
185.898	-30.21
186.118	61.95
186.338	80.38
186.557	133.63
186.777	6.66
186.997	51.71
187.216	39.42
187.436	117.25
187.655	8.7
187.875	31.23
188.095	68.09
188.314	6.66
188.534	59.9
188.753	-11.78
188.973	59.9
189.192	74.24
189.412	29.18
189.631	43.52
189.851	57.86
190.07	78.33
190.29	59.9
190.509	23.04
190.729	23.04
190.948	-32.26
191.168	133.63
191.387	43.52
191.607	70.14
191.826	-1.54
192.045	86.53
192.265	78.33
192.484	43.52
192.704	66.05
192.923	29.18
193.142	92.67
193.362	-1.54
193.581	64
193.8	4.61
194.02	82.43
194.239	96.77
194.458	35.33
194.678	4.61
194.897	72.19
195.116	111.1
195.335	-1.54
195.555	68.09
195.774	25.09
195.993	117.25
196.212	37.38
196.432	72.19
196.651	92.67
196.87	-24.06
197.089	84.48
197.308	45.57
197.528	25.09
197.747	-50.69
197.966	51.71
198.185	59.9
198.404	16.9
198.623	20.99
198.842	23.04
199.062	115.2
199.281	49.66
199.5	27.14
199.719	-11.78
199.938	23.04
200.157	49.66
200.376	74.24
200.595	100.86
200.814	51.71
201.033	23.04
201.252	33.28
201.471	64
201.69	35.33
201.909	68.09
202.128	29.18
202.347	53.76
202.566	18.94
202.785	10.75
203.004	115.2
203.223	107.01
203.442	51.71
203.661	23.04
203.879	31.23
204.098	29.18
204.317	10.75
204.536	119.29
204.755	70.14
204.974	70.14
205.193	23.04
205.411	107.01
205.63	84.48
205.849	59.9
206.068	121.34
206.287	31.23
206.505	90.62
206.724	39.42
206.943	16.9
207.162	51.71
207.381	55.81
207.599	4.61
207.818	61.95
208.037	27.14
208.255	45.57
208.474	121.34
208.693	27.14
208.911	72.19
209.13	55.81
209.349	27.14
209.567	70.14
209.786	80.38
210.005	25.09
210.223	76.29
210.442	-46.59
210.661	31.23
210.879	-3.58
211.098	53.76
211.316	84.48
211.535	27.14
211.753	4.61
211.972	10.75
212.191	80.38
212.409	74.24
212.628	96.77
212.846	59.9
213.065	37.38
213.283	55.81
213.502	66.05
213.72	53.76
213.938	20.99
214.157	84.48
214.375	18.94
214.594	-11.78
214.812	80.38
215.031	51.71
215.249	92.67
215.467	18.94
215.686	74.24
215.904	98.81
216.122	78.33
216.341	141.82
216.559	-30.21
216.778	127.49
216.996	64
217.214	98.81
217.432	29.18
217.651	18.94
217.869	12.8
218.087	80.38
218.306	53.76
218.524	45.57
218.742	8.7
218.96	66.05
219.179	14.85
219.397	29.18
219.615	109.05
219.833	49.66
220.051	-62.98
220.27	47.62
220.488	49.66
220.706	125.44
220.924	23.04
221.142	31.23
221.36	64
221.578	76.29
221.796	47.62
222.015	45.57
222.233	20.99
222.451	25.09
222.669	82.43
222.887	29.18
223.105	59.9
223.323	45.57
223.541	72.19
223.759	49.66
223.977	27.14
224.195	125.44
224.413	45.57
224.631	-3.58
224.849	4.61
225.067	55.81
225.285	72.19
225.503	55.81
225.721	29.18
225.939	41.47
226.157	74.24
226.375	152.06
226.592	57.86
226.81	74.24
227.028	55.81
227.246	61.95
227.464	31.23
227.682	43.52
227.9	10.75
228.117	43.52
228.335	29.18
228.553	90.62
228.771	20.99
228.989	64
229.206	78.33
229.424	27.14
229.642	80.38
229.86	-19.97
230.077	0.51
230.295	-48.64
230.513	190.97
230.731	66.05
230.948	47.62
231.166	47.62
231.384	43.52
231.601	29.18
231.819	53.76
232.037	29.18
232.254	2.56
232.472	33.28
232.689	33.28
232.907	39.42
233.125	-1.54
233.342	33.28
233.56	6.66
233.777	25.09
233.995	14.85
234.213	115.2
234.43	20.99
234.648	82.43
234.865	53.76
235.083	0.51
235.3	107.01
235.518	29.18
235.735	47.62
235.953	49.66
236.17	107.01
236.388	64
236.605	18.94
236.822	107.01
237.04	29.18
237.257	47.62
237.475	37.38
237.692	8.7
237.909	53.76
238.127	-11.78
238.344	74.24
238.562	78.33
238.779	31.23
238.996	72.19
239.214	39.42
239.431	129.53
239.648	20.99
239.865	66.05
240.083	115.2
240.3	31.23
240.517	66.05
240.735	20.99
240.952	66.05
241.169	107.01
241.386	12.8
241.603	8.7
241.821	35.33
242.038	84.48
242.255	27.14
242.472	10.75
242.689	94.72
242.907	59.9
243.124	-3.58
243.341	27.14
243.558	51.71
243.775	23.04
243.992	-65.02
244.209	61.95
244.426	-19.97
244.643	104.96
244.86	16.9
245.078	14.85
245.295	35.33
245.512	43.52
245.729	-13.82
245.946	-7.68
246.163	78.33
246.38	64
246.597	12.8
246.814	41.47
247.031	117.25
247.248	41.47
247.464	66.05
247.681	53.76
247.898	107.01
248.115	92.67
248.332	-11.78
248.549	4.61
248.766	29.18
248.983	90.62
249.2	27.14
249.417	-7.68
249.633	14.85
249.85	-42.5
250.067	86.53
250.284	92.67
250.501	84.48
250.717	119.29
250.934	29.18
251.151	76.29
251.368	68.09
251.585	88.57
251.801	-13.82
252.018	2.56
252.235	143.87
252.451	53.76
252.668	64
252.885	31.23
253.102	64
253.318	51.71
253.535	37.38
253.752	27.14
253.968	12.8
254.185	-75.26
254.401	27.14
254.618	102.91
254.835	92.67
255.051	78.33
255.268	47.62
255.484	53.76
255.701	76.29
255.917	117.25
256.134	55.81
256.351	-1.54
256.567	2.56
256.784	14.85
257	-67.07
257.217	31.23
257.433	78.33
257.65	119.29
257.866	23.04
258.082	90.62
258.299	-13.82
258.515	39.42
258.732	31.23
258.948	64
259.165	66.05
259.381	20.99
259.597	20.99
259.814	170.49
260.03	27.14
260.246	76.29
260.463	53.76
260.679	-5.63
260.895	104.96
261.112	-9.73
261.328	45.57
261.544	-34.3
261.761	102.91
261.977	35.33
262.193	41.47
262.409	14.85
262.626	82.43
262.842	35.33
263.058	25.09
263.274	29.18
263.49	4.61
263.707	35.33
263.923	104.96
264.139	27.14
264.355	109.05
264.571	39.42
264.787	-17.92
265.004	96.77
265.22	123.39
265.436	33.28
265.652	-50.69
265.868	72.19
266.084	53.76
266.3	18.94
266.516	78.33
266.732	70.14
266.948	27.14
267.164	84.48
267.38	104.96
267.596	80.38
267.812	23.04
268.028	37.38
268.244	23.04
268.46	-9.73
268.676	2.56
268.892	53.76
269.108	68.09
269.324	2.56
269.54	-11.78
269.756	35.33
269.972	53.76
270.188	12.8
270.403	0.51
270.619	61.95
270.835	35.33
271.051	78.33
271.267	66.05
271.483	12.8
271.698	16.9
271.914	80.38
272.13	72.19
272.346	76.29
272.562	0.51
272.777	119.29
272.993	25.09
273.209	14.85
273.425	78.33
273.64	53.76
273.856	64
274.072	66.05
274.287	90.62
274.503	-40.45
274.719	31.23
274.934	64
275.15	14.85
275.366	47.62
275.581	-19.97
275.797	94.72
276.012	20.99
276.228	49.66
276.444	131.58
276.659	68.09
276.875	96.77
277.09	98.81
277.306	10.75
277.521	4.61
277.737	64
277.952	43.52
278.168	45.57
278.383	82.43
278.599	49.66
278.814	47.62
279.03	31.23
279.245	129.53
279.461	-48.64
279.676	14.85
279.892	-11.78
280.107	20.99
280.322	70.14
280.538	35.33
280.753	57.86
280.969	10.75
281.184	47.62
281.399	45.57
281.615	20.99
281.83	76.29
282.045	20.99
282.26	18.94
282.476	43.52
282.691	78.33
282.906	53.76
283.122	-1.54
283.337	45.57
283.552	35.33
283.767	-19.97
283.983	12.8
284.198	0.51
284.413	59.9
284.628	82.43
284.843	76.29
285.058	6.66
285.274	43.52
285.489	41.47
285.704	-5.63
285.919	18.94
286.134	-19.97
286.349	20.99
286.564	39.42
286.779	94.72
286.995	64
287.21	14.85
287.425	35.33
287.64	-50.69
287.855	53.76
288.07	59.9
288.285	39.42
288.5	76.29
288.715	20.99
288.93	29.18
289.145	74.24
289.36	84.48
289.575	51.71
289.79	74.24
290.004	-1.54
290.219	-1.54
290.434	70.14
290.649	18.94
290.864	53.76
291.079	76.29
291.294	57.86
291.509	59.9
291.724	-19.97
291.938	64
292.153	0.51
292.368	53.76
292.583	84.48
292.798	57.86
293.012	-17.92
293.227	64
293.442	37.38
293.657	90.62
293.871	12.8
294.086	2.56
294.301	90.62
294.516	29.18
294.73	43.52
294.945	125.44
295.16	76.29
295.374	25.09
295.589	57.86
295.804	25.09
296.018	43.52
296.233	72.19
296.447	18.94
296.662	27.14
296.877	74.24
297.091	84.48
297.306	-13.82
297.52	45.57
297.735	39.42
297.949	41.47
298.164	8.7
298.378	61.95
298.593	20.99
298.807	37.38
299.022	18.94
299.236	70.14
299.451	-13.82
299.665	31.23
299.88	59.9
300.094	35.33
300.309	55.81
300.523	43.52
300.737	72.19
300.952	53.76
301.166	-83.45
301.381	4.61
301.595	18.94
301.809	49.66
302.024	74.24
302.238	72.19
302.452	27.14
302.667	27.14
302.881	72.19
303.095	33.28
303.309	51.71
303.524	78.33
303.738	-7.68
303.952	37.38
304.166	59.9
304.381	-3.58
304.595	47.62
304.809	39.42
305.023	4.61
305.237	72.19
305.452	29.18
305.666	80.38
305.88	82.43
306.094	84.48
306.308	45.57
306.522	-30.21
306.736	66.05
306.95	23.04
307.164	119.29
307.379	27.14
307.593	68.09
307.807	88.57
308.021	57.86
308.235	47.62
308.449	18.94
308.663	61.95
308.877	102.91
309.091	115.2
309.305	59.9
309.519	6.66
309.733	74.24
309.947	27.14
310.161	78.33
310.374	107.01
310.588	66.05
310.802	41.47
311.016	41.47
311.23	92.67
311.444	27.14
311.658	2.56
311.872	27.14
312.085	37.38
312.299	64
312.513	14.85
312.727	23.04
312.941	27.14
313.154	72.19
313.368	41.47
313.582	6.66
313.796	-26.11
314.009	74.24
314.223	98.81
314.437	92.67
314.651	43.52
314.864	55.81
315.078	-38.4
315.292	74.24
315.505	64
315.719	70.14
315.933	59.9
316.146	57.86
316.36	-5.63
316.573	64
316.787	49.66
317.001	-24.06
317.214	6.66
317.428	90.62
317.641	76.29
317.855	-5.63
318.068	25.09
318.282	43.52
318.495	47.62
318.709	70.14
318.922	35.33
319.136	90.62
319.349	47.62
319.563	61.95
319.776	96.77
319.99	-3.58
320.203	72.19
320.417	25.09
320.63	4.61
320.843	-13.82
321.057	37.38
321.27	47.62
321.483	47.62
321.697	47.62
321.91	-24.06
322.124	-5.63
322.337	59.9
322.55	47.62
322.763	72.19
322.977	45.57
323.19	51.71
323.403	47.62
323.617	-5.63
323.83	35.33
324.043	64
324.256	43.52
324.469	35.33
324.683	61.95
324.896	10.75
325.109	92.67
325.322	150.01
325.535	64
325.748	-26.11
325.962	49.66
326.175	64
326.388	92.67
326.601	53.76
326.814	23.04
327.027	41.47
327.24	90.62
327.453	-36.35
327.666	29.18
327.879	84.48
328.092	-1.54
328.305	53.76
328.518	115.2
328.731	43.52
328.944	74.24
329.157	25.09
329.37	39.42
329.583	-9.73
329.796	78.33
330.009	113.15
330.222	109.05
330.435	31.23
330.648	31.23
330.861	10.75
331.073	51.71
331.286	-17.92
331.499	4.61
331.712	37.38
331.925	72.19
332.138	39.42
332.35	96.77
332.563	0.51
332.776	98.81
332.989	-7.68
333.202	27.14
333.414	-3.58
333.627	29.18
333.84	-17.92
334.053	27.14
334.265	66.05
334.478	45.57
334.691	49.66
334.903	8.7
335.116	47.62
335.329	37.38
335.541	53.76
335.754	78.33
335.966	31.23
336.179	55.81
336.392	29.18
336.604	98.81
336.817	31.23
337.029	55.81
337.242	23.04
337.454	84.48
337.667	23.04
337.88	6.66
338.092	59.9
338.305	35.33
338.517	37.38
338.729	127.49
338.942	-22.02
339.154	23.04
339.367	119.29
339.579	25.09
339.792	45.57
340.004	20.99
340.217	72.19
340.429	29.18
340.641	41.47
340.854	-17.92
341.066	25.09
341.278	20.99
341.491	57.86
341.703	66.05
341.915	-26.11
342.128	4.61
342.34	14.85
342.552	96.77
342.764	47.62
342.977	10.75
343.189	125.44
343.401	53.76
343.613	-24.06
343.826	27.14
344.038	14.85
344.25	43.52
344.462	57.86
344.674	35.33
344.886	96.77
345.099	137.73
345.311	86.53
345.523	131.58
345.735	-26.11
345.947	12.8
346.159	57.86
346.371	23.04
346.583	25.09
346.795	53.76
347.007	12.8
347.219	39.42
347.431	27.14
347.643	6.66
347.855	-15.87
348.067	86.53
348.279	68.09
348.491	113.15
348.703	39.42
348.915	18.94
349.127	98.81
349.339	4.61
349.551	107.01
349.763	76.29
349.975	98.81
350.187	72.19
350.399	76.29
350.61	14.85
350.822	64
351.034	66.05
351.246	51.71
351.458	10.75
351.669	59.9
351.881	45.57
352.093	39.42
352.305	-13.82
352.517	43.52
352.728	18.94
352.94	64
353.152	37.38
353.363	-7.68
353.575	123.39
353.787	158.21
353.999	43.52
354.21	47.62
354.422	-5.63
354.633	72.19
354.845	51.71
355.057	109.05
355.268	12.8
355.48	45.57
355.692	59.9
355.903	82.43
356.115	92.67
356.326	86.53
356.538	37.38
356.749	45.57
356.961	127.49
357.172	96.77
357.384	80.38
357.595	10.75
357.807	76.29
358.018	0.51
358.23	59.9
358.441	82.43
358.653	59.9
358.864	29.18
359.075	78.33
359.287	45.57
359.498	150.01
359.709	100.86
359.921	27.14
360.132	47.62
360.344	143.87
360.555	-22.02
360.766	14.85
360.977	59.9
361.189	102.91
361.4	84.48
361.611	86.53
361.823	49.66
362.034	94.72
362.245	115.2
362.456	49.66
362.667	129.53
362.879	86.53
363.09	55.81
363.301	59.9
363.512	78.33
363.723	27.14
363.935	80.38
364.146	88.57
364.357	20.99
364.568	135.68
364.779	-46.59
364.99	125.44
365.201	53.76
365.412	94.72
365.623	45.57
365.834	57.86
366.045	37.38
366.256	57.86
366.467	25.09
366.678	74.24
366.889	68.09
367.1	64
367.311	121.34
367.522	23.04
367.733	107.01
367.944	51.71
368.155	29.18
368.366	47.62
368.577	59.9
368.788	127.49
368.999	61.95
369.209	176.64
369.42	115.2
369.631	86.53
369.842	18.94
370.053	86.53
370.264	45.57
370.474	125.44
370.685	64
370.896	27.14
371.107	72.19
371.317	94.72
371.528	113.15
371.739	37.38
371.95	55.81
372.16	66.05
372.371	-9.73
372.582	104.96
372.792	47.62
373.003	117.25
373.214	14.85
373.424	82.43
373.635	23.04
373.846	55.81
374.056	0.51
374.267	104.96
374.477	29.18
374.688	53.76
374.898	70.14
375.109	66.05
375.319	109.05
375.53	119.29
375.74	86.53
375.951	0.51
376.161	123.39
376.372	113.15
376.582	20.99
376.793	64
377.003	49.66
377.214	59.9
377.424	68.09
377.635	88.57
377.845	55.81
378.055	84.48
378.266	117.25
378.476	-30.21
378.686	4.61
378.897	57.86
379.107	-22.02
379.317	74.24
379.528	43.52
379.738	55.81
379.948	-1.54
380.158	129.53
380.369	68.09
380.579	74.24
380.789	39.42
380.999	53.76
381.21	59.9
381.42	121.34
381.63	66.05
381.84	53.76
382.05	125.44
382.261	43.52
382.471	84.48
382.681	86.53
382.891	74.24
383.101	123.39
383.311	37.38
383.521	88.57
383.731	25.09
383.941	47.62
384.151	55.81
384.361	74.24
384.571	72.19
384.781	123.39
384.991	143.87
385.201	147.97
385.411	143.87
385.621	-42.5
385.831	68.09
386.041	68.09
386.251	35.33
386.461	33.28
386.671	45.57
386.881	41.47
387.091	131.58
387.301	84.48
387.511	119.29
387.72	92.67
387.93	57.86
388.14	-1.54
388.35	84.48
388.56	133.63
388.769	68.09
388.979	47.62
389.189	59.9
389.399	74.24
389.609	53.76
389.818	113.15
390.028	117.25
390.238	104.96
390.447	45.57
390.657	78.33
390.867	20.99
391.076	10.75
391.286	92.67
391.496	98.81
391.705	29.18
391.915	61.95
392.125	158.21
392.334	72.19
392.544	133.63
392.753	102.91
392.963	70.14
393.172	70.14
393.382	64
393.591	66.05
393.801	84.48
394.01	131.58
394.22	121.34
394.429	45.57
394.639	20.99
394.848	129.53
395.058	193.02
395.267	129.53
395.477	141.82
395.686	72.19
395.895	102.91
396.105	137.73
396.314	154.11
396.524	131.58
396.733	88.57
396.942	188.93
397.152	66.05
397.361	109.05
397.57	96.77
397.78	98.81
397.989	94.72
398.198	117.25
398.407	98.81
398.617	121.34
398.826	49.66
399.035	86.53
399.244	84.48
399.453	113.15
399.663	152.06
399.872	233.98
400.081	131.58
400.29	111.1
400.499	29.18
400.708	127.49
400.917	98.81
401.127	74.24
401.336	176.64
401.545	141.82
401.754	133.63
401.963	182.78
402.172	219.64
402.381	139.77
402.59	197.12
402.799	137.73
403.008	186.88
403.217	82.43
403.426	125.44
403.635	76.29
403.844	131.58
404.053	154.11
404.262	107.01
404.471	223.74
404.68	197.12
404.888	168.45
405.097	172.54
405.306	199.16
405.515	152.06
405.724	170.49
405.933	199.16
406.142	160.25
406.35	197.12
406.559	219.64
406.768	190.97
406.977	190.97
407.185	195.07
407.394	203.26
407.603	199.16
407.812	215.55
408.02	346.62
408.229	231.93
408.438	233.98
408.646	260.6
408.855	326.14
409.064	303.61
409.272	295.42
409.481	297.47
409.69	293.37
409.898	279.04
410.107	365.05
410.315	313.85
410.524	317.95
410.733	338.43
410.941	424.44
411.15	408.06
411.358	393.72
411.567	393.72
411.775	358.91
411.984	381.43
412.192	416.25
412.401	373.24
412.609	453.11
412.818	578.04
413.026	453.11
413.234	428.54
413.443	487.93
413.651	524.79
413.86	471.54
414.068	645.62
414.276	715.25
414.485	600.57
414.693	549.37
414.901	670.2
415.11	653.81
415.318	580.09
415.526	717.3
415.734	760.31
415.943	780.79
416.151	754.16
416.359	766.45
416.567	813.56
416.776	895.47
416.984	895.47
417.192	932.34
417.4	901.62
417.608	944.63
417.817	975.35
418.025	1030.64
418.233	1147.37
418.441	1038.83
418.649	1124.85
418.857	1239.53
419.065	1206.77
419.273	1257.96
419.481	1251.82
419.689	1292.78
419.897	1415.66
420.105	1462.76
420.313	1505.77
420.521	1575.4
420.729	1468.91
420.937	1567.21
421.145	1692.13
421.353	1681.89
421.561	1776.1
421.769	1858.02
421.977	1917.41
422.185	1880.55
422.393	1978.85
422.601	2173.41
422.809	2126.3
423.017	2267.61
423.224	2247.13
423.432	2267.61
423.64	2322.91
423.848	2564.57
424.056	2408.92
424.263	2759.13
424.471	2589.14
424.679	2787.8
424.887	2910.68
425.094	2896.34
425.302	2963.92
425.51	3117.52
425.718	3060.18
425.925	3187.15
426.133	3373.52
426.341	3551.69
426.548	3547.59
426.756	3580.36
426.964	3742.15
427.171	4063.68
427.379	4116.93
427.586	4010.43
427.794	4196.8
428.001	4454.84
428.209	4661.69
428.417	4442.56
428.624	4999.6
428.832	4929.97
429.039	4555.19
429.247	4825.53
429.454	5370.29
429.662	5546.41
429.869	5239.22
430.076	5706.15
430.284	5366.19
430.491	5695.91
430.699	6017.44
430.906	6066.6
431.114	6205.86
431.321	6328.74
431.528	6429.09
431.736	6941.08
431.943	7211.41
432.15	7106.96
432.358	6996.37
432.565	7649.68
432.772	7428.49
432.979	7840.14
433.187	8075.65
433.394	7854.47
433.601	8614.27
433.808	8620.41
434.016	8509.82
434.223	8731
434.43	9404.78
434.637	9030.01
434.844	9894.25
435.052	10080.61
435.259	10013.03
435.466	10000.74
435.673	9896.3
435.88	10592.61
436.087	11102.55
436.294	11264.34
436.501	10905.95
436.708	10953.05
436.915	11549.01
437.122	11762
437.329	12013.9
437.537	12269.89
437.743	12419.39
437.95	12558.66
438.157	12761.41
438.364	13560.11
438.571	13461.81
438.778	13547.83
438.985	14811.42
439.192	14178.6
439.399	14741.79
439.606	14342.44
439.813	15051.03
440.02	16310.54
440.227	15829.26
440.433	15651.09
440.64	16349.45
440.847	16204.04
441.054	16658.69
441.261	17823.98
441.467	17404.15
441.674	18102.51
441.881	18557.16
442.088	18145.52
442.294	18491.62
442.501	18475.24
442.708	19054.81
442.914	19962.06
443.121	20617.41
443.328	19839.19
443.534	21504.18
443.741	20756.68
443.948	20541.64
444.154	22249.64
444.361	21993.65
444.568	22225.07
444.774	21983.41
444.981	22300.84
445.187	23156.89
445.394	24270.99
445.6	23570.58
445.807	26065.01
446.013	25198.72
446.22	25376.89
446.426	26288.24
446.633	26218.61
446.839	27480.16
447.046	26325.1
447.252	27666.52
447.459	27553.88
447.665	27398.24
447.871	28846.15
448.078	30181.43
448.284	28659.79
448.491	29669.44
448.697	30476.33
448.903	31215.65
449.11	31115.3
449.316	30588.97
449.522	30939.18
449.728	32153.62
449.935	32237.59
450.141	32032.79
450.347	32942.09
450.553	31942.68
450.76	32544.78
450.966	33601.54
451.172	33052.68
451.378	33929.21
451.584	33423.36
451.791	34256.89
451.997	34275.32
452.203	34543.6
452.409	34693.1
452.615	34291.7
452.821	33214.47
453.027	32759.82
453.233	34701.29
453.44	33318.92
453.646	33648.64
453.852	33740.8
454.058	34291.7
454.264	32907.27
454.47	33892.35
454.676	32825.36
454.882	34246.65
455.088	31156.26
455.294	31528.99
455.5	32194.58
455.705	32272.4
455.911	31346.72
456.117	30562.35
456.323	29993.01
456.529	28786.76
456.735	29732.92
456.941	29225.03
457.147	28823.62
457.352	27906.13
457.558	27474.01
457.764	27754.58
457.97	26902.63
458.176	26296.43
458.381	26509.42
458.587	24928.39
458.793	25008.26
458.999	23994.51
459.204	25723
459.41	24731.78
459.616	23054.5
459.821	23322.78
460.027	23068.83
460.233	22798.5
460.438	21770.42
460.644	21944.5
460.85	20799.68
461.055	20576.45
461.261	20369.61
461.466	19114.2
461.672	18213.1
461.878	19722.45
462.083	18335.98
462.289	18125.04
462.494	17815.79
462.7	16990.46
462.905	16541.96
463.111	17221.88
463.316	17033.47
463.522	16836.86
463.727	16765.18
463.932	16705.79
464.138	16414.98
464.343	16654.59
464.549	16318.73
464.754	16783.62
464.959	16607.49
465.165	16261.38
465.37	15876.37
465.575	15485.2
465.781	16013.58
465.986	16126.22
466.191	15565.07
466.397	15165.72
466.602	14328.1
466.807	14979.36
467.012	15204.63
467.218	14903.58
467.423	14760.22
467.628	14788.89
467.833	15626.51
468.038	14956.83
468.244	14641.44
468.449	14975.26
468.654	14668.06
468.859	14498.08
469.064	14416.16
469.269	13351.22
469.474	13941.04
469.679	14383.4
469.885	13762.86
470.09	13955.37
470.295	13947.18
470.5	13558.07
470.705	13537.59
470.91	13257.01
471.115	13183.29
471.32	13615.41
471.525	13328.69
471.73	12998.97
471.935	12857.66
472.139	12616
472.344	12620.1
472.549	12433.73
472.754	12439.87
472.959	11962.7
473.164	11819.34
473.369	11850.06
473.574	12214.6
473.778	12212.55
473.983	11970.89
474.188	12005.7
474.393	11313.49
474.598	11407.7
474.802	11315.54
475.007	11417.94
475.212	11319.64
475.417	11106.65
475.621	10758.49
475.826	10699.1
476.031	10582.37
476.235	10537.31
476.44	10682.72
476.645	10178.92
476.849	10488.16
477.054	10328.42
477.259	10250.6
477.463	10000.74
477.668	9800.04
477.872	9714.03
478.077	9877.87
478.282	9656.68
478.486	9582.96
478.691	9343.35
478.895	9509.23
479.1	9353.59
479.304	9539.95
479.509	9365.87
479.713	9429.36
479.918	9265.52
480.122	9030.01
480.326	9118.07
480.531	9130.36
480.735	9046.39
480.94	8884.6
481.144	9265.52
481.348	8731
481.553	8677.76
481.757	8663.42
481.961	8776.06
482.166	8821.11
482.37	8638.84
482.574	8546.69
482.778	8769.91
482.983	8638.84
483.187	8575.36
483.391	8569.21
483.595	8667.52
483.8	8554.88
484.004	8825.21
484.208	8958.33
484.412	8653.18
484.616	8747.39
484.821	8554.88
485.025	8475.01
485.229	8595.84
485.433	8501.63
485.637	8487.29
485.841	8432
486.045	8614.27
486.249	8790.39
486.453	8690.04
486.657	8814.97
486.861	8855.93
487.065	8491.39
487.269	8802.68
487.473	8599.93
487.677	8755.58
487.881	8808.83
488.085	8528.25
488.289	8829.31
488.493	8534.4
488.697	8694.14
488.901	8833.4
489.105	8735.1
489.309	8700.28
489.512	8806.78
489.716	8835.45
489.92	8743.29
490.124	8995.19
490.328	9017.72
490.531	8929.66
490.735	8722.81
490.939	8952.18
491.143	8997.24
491.346	8745.34
491.55	9040.25
491.754	8919.42
491.958	9019.77
492.161	8900.98
492.365	9214.32
492.569	9046.39
492.772	9199.99
492.976	9191.8
493.18	9275.76
493.383	9455.98
493.587	9425.26
493.79	9458.03
493.994	9470.32
494.197	9470.32
494.401	9529.71
494.605	9513.33
494.808	9849.19
495.012	9775.47
495.215	9949.54
495.419	9697.64
495.622	9888.11
495.825	10103.14
496.029	10209.64
496.232	10326.37
496.436	10178.92
496.639	10557.79
496.843	10615.13
497.046	10490.21
497.249	10676.57
497.453	10606.94
497.656	10967.38
497.859	10987.86
498.063	11100.5
498.266	11196.76
498.469	11360.59
498.673	11225.43
498.876	11567.44
499.079	11718.99
499.282	11549.01
499.485	12024.14
499.689	11952.46
499.892	12020.04
500.095	11985.23
500.298	12474.69
500.501	12290.37
500.705	12659.01
500.908	12757.31
501.111	13035.83
501.314	12921.15
501.517	13162.81
501.72	13238.58
501.923	13381.94
502.126	13484.34
502.329	13844.78
502.532	13756.72
502.735	13984.04
502.938	14049.58
503.141	14108.97
503.344	14512.42
503.547	14491.94
503.75	14780.7
503.953	14962.97
504.156	14997.79
504.359	15196.44
504.562	15091.99
504.765	15726.86
504.968	15810.83
505.17	15872.27
505.373	15810.83
505.576	16058.63
505.779	16314.63
505.982	16419.08
506.185	16736.51
506.387	16455.94
506.59	16668.93
506.793	17271.03
506.996	17379.57
507.198	17635.57
507.401	17426.68
507.604	17875.18
507.807	18137.32
508.009	18186.47
508.212	17899.76
508.415	18530.53
508.617	18753.76
508.82	18600.16
509.022	18677.99
509.225	19056.86
509.428	19370.2
509.63	19638.48
509.833	19437.78
510.035	20181.2
510.238	19910.86
510.44	20134.09
510.643	20234.44
510.845	20699.33
511.048	20347.08
511.25	20828.35
511.453	21248.19
511.655	21375.16
511.858	21508.28
512.06	21946.55
512.262	21960.88
512.465	21766.32
512.667	22118.57
512.87	22608.04
513.072	22491.3
513.274	23007.39
513.477	22843.56
513.679	23263.39
513.881	23548.06
514.084	23533.72
514.286	23672.98
514.488	23963.79
514.69	24825.99
514.893	24447.11
515.095	24567.95
515.297	24748.17
515.499	24651.91
515.701	25143.42
515.904	25288.83
516.106	25731.19
516.308	25739.38
516.51	26181.74
516.712	26089.59
516.914	26534
517.116	26837.09
517.318	26923.11
517.52	26830.95
517.722	27342.94
517.925	27703.39
518.127	27476.06
518.329	28016.72
518.531	27756.63
518.733	28577.87
518.935	28383.31
519.136	28401.74
519.338	28741.71
519.54	29091.91
519.742	29390.91
519.944	29325.38
520.146	29687.87
520.348	29909.05
520.55	30095.41
520.752	30056.5
520.954	30722.09
521.155	30281.78
521.357	31402.02
521.559	31080.49
521.761	31385.63
521.963	31184.93
522.164	31977.5
522.366	31674.4
522.568	32024.6
522.77	32098.33
522.971	32530.45
523.173	32112.66
523.375	32573.45
523.576	32405.52
523.778	32933.9
523.98	33155.08
524.181	33202.18
524.383	33062.92
524.584	33384.45
524.786	33703.93
524.988	33748.99
525.189	33701.89
525.391	33978.36
525.592	34310.13
525.794	34412.53
525.995	34336.76
526.197	34213.88
526.398	34721.77
526.6	34947.05
526.801	34959.34
527.003	34965.48
527.204	35106.79
527.406	35282.92
527.607	35418.08
527.808	35047.4
528.01	34875.37
528.211	35397.6
528.412	35831.77
528.614	35739.61
528.815	35889.12
529.016	36106.2
529.218	35768.29
529.419	35659.74
529.62	36038.62
529.822	36151.26
530.023	36169.69
530.224	36218.84
530.425	36171.74
530.626	35790.81
530.828	36104.15
531.029	36757.46
531.23	36001.75
531.431	36380.63
531.632	36429.78
531.833	36374.48
532.035	36392.92
532.236	36282.33
532.437	36685.78
532.638	36284.37
532.839	36454.36
533.04	36618.19
533.241	36302.81
533.442	36515.79
533.643	36683.73
533.844	36923.34
534.045	36435.92
534.246	36571.09
534.447	36675.54
534.648	36644.82
534.849	36917.2
535.05	36413.4
535.251	36472.79
535.451	37019.6
535.652	36782.03
535.853	36466.64
536.054	36839.37
536.255	36810.7
536.456	36487.12
536.657	36945.87
536.857	36454.36
537.058	36407.25
537.259	36597.71
537.46	36982.73
537.66	36130.78
537.861	36947.92
538.062	36773.84
538.263	36591.57
538.463	36489.17
538.664	36704.21
538.865	36478.93
539.065	36693.97
539.266	36282.33
539.466	36653.01
539.667	36042.71
539.868	36646.86
540.068	36495.32
540.269	36179.93
540.469	36616.15
540.67	36358.1
540.87	36495.32
541.071	36321.24
541.271	36681.68
541.472	36507.6
541.672	36472.79
541.873	36562.9
542.073	35921.88
542.274	36968.4
542.474	36466.64
542.675	36263.89
542.875	36648.91
543.075	36599.76
543.276	35799.01
543.476	36626.39
543.676	36632.53
543.877	36341.72
544.077	36505.55
544.277	36388.82
544.478	36407.25
544.678	36306.9
544.878	36405.2
545.078	36333.53
545.279	35993.56
545.479	35874.78
545.679	36491.22
545.879	36298.71
546.079	36378.58
546.28	36073.43
546.48	35667.94
546.68	36313.05
546.88	36294.61
547.08	36130.78
547.28	36331.48
547.48	36208.6
547.68	36460.5
547.88	35807.2
548.081	36163.54
548.281	36405.2
548.481	35913.69
548.681	36276.18
548.881	36198.36
549.081	36171.74
549.28	35774.43
549.48	36624.34
549.68	35487.71
549.88	36782.03
550.08	35700.7
550.28	36169.69
550.48	35747.81
550.68	36255.7
550.88	35735.52
551.08	36057.05
551.279	35971.04
551.479	35616.74
551.679	35966.94
551.879	35583.97
552.079	35848.16
552.278	35465.19
552.478	36069.34
552.678	35999.71
552.878	36132.82
553.077	35629.02
553.277	35727.33
553.477	35921.88
553.676	35614.69
553.876	35553.25
554.076	35426.28
554.275	35332.07
554.475	35397.6
554.674	35647.46
554.874	35727.33
555.074	35512.29
555.273	35383.27
555.473	35655.65
555.672	35387.36
555.872	35250.15
556.071	35454.95
556.271	35510.24
556.47	35432.42
556.67	35119.08
556.869	35401.7
557.068	35405.8
557.268	35131.37
557.467	35067.88
557.667	35180.52
557.866	35131.37
558.065	35125.22
558.265	34723.82
558.464	34811.88
558.663	35141.61
558.863	34936.81
559.062	35532.77
559.261	34605.04
559.461	35209.19
559.66	34850.8
559.859	34906.09
560.058	34660.34
560.258	34815.98
560.457	34598.9
560.656	34500.59
560.855	34639.86
561.054	34779.12
561.253	34455.54
561.453	34455.54
561.652	34897.9
561.851	34867.18
562.05	34144.25
562.249	33964.03
562.448	34514.93
562.647	34056.18
562.846	34109.43
563.045	34512.88
563.244	33968.12
563.443	34721.77
563.642	33736.7
563.841	34267.13
564.04	33726.46
564.239	33949.69
564.438	34064.38
564.637	33978.36
564.836	34209.78
565.035	33898.49
565.234	33892.35
565.432	33884.15
565.631	33902.59
565.83	33902.59
566.029	33304.58
566.228	33132.55
566.427	32972.81
566.625	33634.3
566.824	32833.55
567.023	33427.46
567.222	32600.08
567.42	33312.77
567.619	33316.87
567.818	32798.73
568.016	33239.04
568.215	33603.58
568.414	33056.78
568.612	32968.71
568.811	32806.92
569.01	32696.33
569.208	32229.4
569.407	32694.29
569.605	32358.42
569.804	32608.27
570.002	32407.57
570.201	32516.11
570.4	32426
570.598	32002.07
570.797	32155.67
570.995	32411.67
571.193	31926.3
571.392	32600.08
571.59	31877.15
571.789	32442.38
571.987	31844.38
572.186	31862.81
572.384	31959.06
572.582	32229.4
572.781	31664.16
572.979	31424.54
573.177	31641.63
573.376	31528.99
573.574	31260.71
573.772	31682.59
573.971	31674.4
574.169	31352.87
574.367	31191.08
574.565	31160.36
574.763	31146.02
574.962	30855.21
575.16	30908.46
575.358	30967.85
575.556	30531.63
575.754	31066.15
575.952	30292.02
576.151	30703.66
576.349	30570.54
576.547	30836.78
576.745	30720.04
576.943	30693.42
577.141	30199.86
577.339	30285.87
577.537	30443.57
577.735	30183.48
577.933	30040.12
578.131	30435.38
578.329	29784.12
578.527	30095.41
578.725	29608
578.923	29990.97
579.121	29771.83
579.319	30015.54
579.516	29696.06
579.714	29577.28
579.912	29677.63
580.11	29526.08
580.308	29548.61
580.506	29288.51
580.704	28670.03
580.901	29349.95
581.099	29278.27
581.297	28633.16
581.495	28987.46
581.692	29016.13
581.89	28545.1
582.088	28522.57
582.285	29020.23
582.483	29073.48
582.681	29155.4
582.878	28706.89
583.076	28153.94
583.274	28657.74
583.471	28102.74
583.669	28076.12
583.866	28129.36
584.064	28207.19
584.262	28172.37
584.459	28268.62
584.657	27777.11
584.854	28010.58
585.052	28029.01
585.249	27936.85
585.447	27586.65
585.644	27414.62
585.841	27555.93
586.039	27912.28
586.236	27205.73
586.434	27488.35
586.631	27134.05
586.828	27404.38
587.026	27318.37
587.223	27328.61
587.42	27033.7
587.618	27041.89
587.815	26787.94
588.012	27031.65
588.21	26824.81
588.407	27033.7
588.604	26732.65
588.801	26599.53
588.999	26228.85
589.196	26499.18
589.393	26407.02
589.59	26423.4
589.787	26026.1
589.984	26398.83
590.182	25960.56
590.379	26185.84
590.576	25667.7
590.773	25956.47
590.97	25481.34
591.167	25655.42
591.364	25329.79
591.561	25733.24
591.758	25372.8
591.955	25393.28
592.152	25366.65
592.349	25311.36
592.546	25104.51
592.743	25180.29
592.94	25090.18
593.137	24987.78
593.334	25194.62
593.531	24739.97
593.727	24928.39
593.924	24920.2
594.121	24600.71
594.318	24705.16
594.515	24344.72
594.712	24817.8
594.908	24602.76
595.105	24567.95
595.302	24367.24
595.499	24260.75
595.696	24440.97
595.892	24213.65
596.089	24524.94
596.286	23857.3
596.482	23965.84
596.679	23730.33
596.876	23955.6
597.072	23623.83
597.269	23885.97
597.466	23509.15
597.662	23396.51
597.859	23462.04
598.055	23709.85
598.252	23570.58
598.448	23044.26
598.645	23294.11
598.841	22935.71
599.038	22939.81
599.234	22804.64
599.431	22950.05
599.627	22980.77
599.824	23105.7
600.02	22974.63
600.217	22827.17
600.413	22931.62
600.609	22329.52
600.806	22399.15
601.002	22655.14
601.198	22165.68
601.395	22407.34
601.591	22218.92
601.787	22268.08
601.984	22139.05
602.18	22562.98
602.376	22134.96
602.572	21719.22
602.769	21952.69
602.965	21598.39
603.161	21891.25
603.357	21590.2
603.553	21412.03
603.75	21571.77
603.946	21704.88
604.142	21440.7
604.338	21096.64
604.534	21471.42
604.73	21170.36
604.926	21110.97
605.122	21407.93
605.318	21194.94
605.514	20949.18
605.71	20938.94
605.906	20703.43
606.102	20564.17
606.298	21119.17
606.494	20691.14
606.69	20840.64
606.886	20740.29
607.082	20238.54
607.278	20717.76
607.474	20388.04
607.67	20455.62
607.866	20314.31
608.062	20314.31
608.257	20390.09
608.453	20209.87
608.649	20363.47
608.845	20177.1
609.041	20164.81
609.236	20213.96
609.432	20240.59
609.628	19933.39
609.824	19937.49
610.019	19632.34
610.215	20009.17
610.411	19843.28
610.606	19974.35
610.802	19904.72
610.998	19835.09
611.193	19720.4
611.389	19558.61
611.584	19820.75
611.78	19513.56
611.976	19628.24
612.171	19452.12
612.367	19843.28
612.562	19394.78
612.758	19386.58
612.953	19220.7
613.149	19376.34
613.344	19298.52
613.539	19833.04
613.735	19300.57
613.93	19536.09
614.126	18911.46
614.321	19497.17
614.517	19366.1
614.712	19337.43
614.907	19036.38
615.103	19189.98
615.298	19157.21
615.493	19376.34
615.688	18948.32
615.884	19341.53
616.079	19020
616.274	18903.26
616.47	18731.23
616.665	18927.84
616.86	18698.47
617.055	18968.8
617.25	18684.13
617.445	18727.14
617.641	18503.91
617.836	18495.72
618.031	18608.36
618.226	18557.16
618.421	18528.49
618.616	18725.09
618.811	18116.84
619.006	18512.1
619.201	17963.25
619.396	18008.3
619.591	18120.94
619.786	18016.49
619.981	18002.16
620.176	17862.9
620.371	17637.62
620.566	18112.75
620.761	17760.5
620.956	17912.05
621.151	17168.63
621.346	17717.49
621.541	17144.06
621.735	17342.71
621.93	16879.87
622.125	17340.66
622.32	16763.14
622.515	16914.69
622.709	16855.29
622.904	16861.44
623.099	16685.31
623.294	16636.16
623.488	16490.76
623.683	16644.35
623.878	16197.9
624.072	16523.52
624.267	16621.83
624.462	16232.71
624.656	16138.51
624.851	15925.52
625.046	16038.16
625.24	15673.62
625.435	15778.06
625.629	15737.1
625.824	15595.79
626.018	15444.24
626.213	15294.74
626.407	15286.55
626.602	15270.17
626.796	15094.04
626.991	15188.25
627.185	15038.75
627.38	14819.61
627.574	14856.48
627.768	14651.68
627.963	14827.81
628.157	14760.22
628.352	14803.23
628.546	14371.11
628.74	14483.75
628.935	14272.81
629.129	14266.66
629.323	14125.35
629.517	14117.16
629.712	13981.99
629.906	13840.68
630.1	13756.72
630.294	13955.37
630.489	13703.47
630.683	13789.49
630.877	13330.74
631.071	13488.43
631.265	13572.4
631.459	13302.07
631.653	13064.5
631.848	13097.27
632.042	13218.1
632.236	13365.56
632.43	13148.47
632.624	12998.97
632.818	12683.58
633.012	12773.69
633.206	12681.53
633.4	12669.25
633.594	12722.49
633.788	12532.03
633.982	12550.46
634.176	12519.74
634.369	12452.16
634.563	12357.96
634.757	12261.7
634.951	12341.57
635.145	12306.76
635.339	12083.53
635.533	11946.31
635.726	12040.52
635.92	11788.62
636.114	11841.87
636.308	11911.5
636.501	11692.37
636.695	11862.35
636.889	11587.92
637.083	11319.64
637.276	11530.58
637.47	11344.21
637.664	11546.96
637.857	11471.18
638.051	11178.33
638.244	11225.43
638.438	11075.93
638.632	11096.41
638.825	10836.31
639.019	10783.07
639.212	10781.02
639.406	10733.92
639.599	10776.92
639.793	10770.78
639.986	10723.68
640.18	10647.9
640.373	10670.43
640.567	10555.74
640.76	10529.12
640.954	10451.3
641.147	10434.91
641.34	10457.44
641.534	10340.71
641.727	10191.2
641.92	10199.4
642.114	10148.2
642.307	10189.16
642.5	9884.01
642.694	9845.1
642.887	9920.87
643.08	9898.34
643.273	9765.23
643.467	9699.69
643.66	9662.83
643.853	9675.12
644.046	9480.56
644.239	9521.52
644.432	9470.32
644.626	9433.46
644.819	9429.36
645.012	9365.87
645.205	9341.3
645.398	9318.77
645.591	9240.95
645.784	9355.63
645.977	9185.65
646.17	9240.95
646.363	9116.02
646.556	8872.31
646.749	9156.98
646.942	9038.2
647.135	8962.42
647.328	8769.91
647.521	8753.53
647.714	8585.6
647.907	8651.13
648.099	8552.83
648.292	8657.28
648.485	8606.08
648.678	8499.58
648.871	8319.36
649.064	8407.42
649.256	8356.22
649.449	8307.07
649.642	8055.17
649.835	8280.45
650.027	8235.39
650.22	8159.62
650.413	8081.8
650.605	8071.56
650.798	8159.62
650.991	7950.73
651.183	7973.25
651.376	7786.89
651.568	7819.66
651.761	7874.95
651.954	7948.68
652.146	7772.55
652.339	7872.9
652.531	7692.68
652.724	7631.24
652.916	7565.71
653.109	7430.54
653.301	7707.02
653.494	7360.91
653.686	7332.24
653.879	7412.11
654.071	7342.48
654.263	7379.34
654.456	7211.41
654.648	7281.04
654.84	7154.07
655.033	7131.54
655.225	7104.92
655.417	7041.43
655.61	6994.33
655.802	7166.35
655.994	6859.16
656.186	7061.91
656.379	6877.59
656.571	6961.56
656.763	6814.1
656.955	6738.33
657.148	6744.47
657.34	6680.99
657.532	6744.47
657.724	6687.13
657.916	6652.31
658.108	6609.31
658.3	6560.16
658.492	6529.44
658.684	6515.1
658.876	6371.74
659.068	6398.37
659.26	6525.34
659.452	6486.43
659.644	6318.5
659.836	6226.34
660.028	6353.31
660.22	6367.65
660.412	6152.61
660.604	6097.31
660.796	6011.3
660.988	6148.51
661.18	6271.39
661.372	6175.14
661.563	6035.88
661.755	5982.63
661.947	5939.62
662.139	5818.79
662.331	5941.67
662.522	5966.24
662.714	5753.26
662.906	5826.98
663.097	5945.77
663.289	5910.95
663.481	5771.69
663.673	5632.43
663.864	5581.23
664.056	5573.03
664.247	5575.08
664.439	5636.52
664.631	5493.16
664.822	5583.27
665.014	5446.06
665.205	5374.38
665.397	5470.64
665.588	5419.44
665.78	5286.32
665.971	5351.85
666.163	5515.69
666.354	5341.61
666.546	5331.37
666.737	5171.63
666.929	5360.05
667.12	5210.54
667.311	5145.01
667.503	5194.16
667.694	5284.27
667.885	5220.78
668.077	5212.59
668.268	5018.04
668.459	5102
668.651	5024.18
668.842	5042.61
669.033	4991.41
669.224	4921.78
669.416	4942.26
669.607	5042.61
669.798	4923.83
669.989	5007.8
670.18	4915.64
670.371	4749.75
670.563	4846.01
670.754	4729.27
670.945	4794.81
671.136	4876.73
671.327	4735.42
671.518	4798.9
671.709	4716.98
671.9	4774.33
672.091	4622.78
672.282	4690.36
672.473	4504
672.664	4630.97
672.855	4708.79
673.046	4659.64
673.237	4626.87
673.428	4551.1
673.619	4454.84
673.809	4506.04
674	4415.93
674.191	4559.29
674.382	4506.04
674.573	4454.84
674.764	4409.79
674.954	4381.12
675.145	4399.55
675.336	4405.69
675.527	4293.05
675.717	4368.83
675.908	4311.49
676.099	4286.91
676.289	4366.78
676.48	4262.33
676.671	4256.19
676.861	4198.85
677.052	4188.61
677.243	4270.53
677.433	4239.81
677.624	4248
677.814	4180.42
678.005	4196.8
678.195	4024.77
678.386	4123.07
678.576	4123.07
678.767	4012.48
678.957	4139.46
679.148	4020.67
679.338	4059.59
679.529	4024.77
679.719	3922.37
679.909	4053.44
680.1	4004.29
680.29	4002.24
680.481	4041.15
680.671	3985.86
680.861	3887.56
681.052	4061.63
681.242	3942.85
681.432	4086.21
681.622	3840.45
681.813	3871.17
682.003	3957.19
682.193	3852.74
682.383	3957.19
682.573	3772.87
682.764	3949
682.954	3846.6
683.144	3840.45
683.334	3873.22
683.524	3842.5
683.714	3838.41
683.904	3869.12
684.094	3752.39
684.284	3688.9
684.474	3762.63
684.664	3695.05
684.854	3672.52
685.044	3688.9
685.234	3570.12
685.424	3660.23
685.614	3678.66
685.804	3703.24
685.994	3441.1
686.184	3824.07
686.374	3547.59
686.564	3557.83
686.753	3518.92
686.943	3500.49
687.133	3494.35
687.323	3502.54
687.513	3500.49
687.702	3545.55
687.892	3449.29
688.082	3566.03
688.272	3430.86
688.461	3377.61
688.651	3312.08
688.841	3416.52
689.03	3342.8
689.22	3287.5
689.41	3375.56
689.599	3387.85
689.789	3293.65
689.979	3332.56
690.168	3328.46
690.358	3236.3
690.547	3170.77
690.737	3099.09
690.926	3254.73
691.116	3209.68
691.305	3189.2
691.495	3107.28
691.684	3025.36
691.874	3082.7
692.063	3135.95
692.252	3082.7
692.442	2935.25
692.631	3019.22
692.82	3125.71
693.01	2900.44
693.199	3000.79
693.388	2943.44
693.578	2947.54
693.767	3107.28
693.956	2822.61
694.146	2879.96
694.335	2853.33
694.524	2834.9
694.713	2865.62
694.902	2804.18
695.092	2984.4
695.281	2834.9
695.47	2777.56
695.659	2839
695.848	2908.63
696.037	2808.28
696.226	2865.62
696.415	2824.66
696.604	2726.36
696.793	2738.65
696.982	2658.78
697.171	2742.74
697.36	2617.82
697.549	2548.19
697.738	2599.38
697.927	2656.73
698.116	2728.41
698.305	2566.62
698.494	2587.1
698.683	2583
698.872	2669.02
699.061	2531.8
699.25	2501.08
699.438	2609.62
699.627	2511.32
699.816	2599.38
700.005	2564.57
700.193	2460.12
700.382	2490.84
700.571	2626.01
700.76	2529.75
700.948	2435.55
701.137	2435.55
701.326	2443.74
701.514	2464.22
701.703	2488.79
701.892	2445.79
702.08	2474.46
702.269	2472.41
702.457	2456.03
702.646	2445.79
702.834	2378.2
703.023	2437.59
703.212	2435.55
703.4	2419.16
703.589	2314.72
703.777	2345.44
703.965	2331.1
704.154	2327
704.342	2263.52
704.531	2347.48
704.719	2453.98
704.907	2386.4
705.096	2243.04
705.284	2386.4
705.472	2320.86
705.661	2353.63
705.849	2400.73
706.037	2286.05
706.226	2304.48
706.414	2284
706.602	2284
706.79	2329.05
706.979	2265.57
707.167	2331.1
707.355	2347.48
707.543	2320.86
707.731	2337.24
707.919	2292.19
708.107	2304.48
708.296	2279.9
708.484	2206.17
708.672	2251.23
708.86	2173.41
709.048	2238.94
709.236	2095.58
709.424	2468.31
709.612	2357.72
709.8	2236.89
709.988	2314.72
710.176	2271.71
710.364	2253.28
710.551	2210.27
710.739	2218.46
710.927	2208.22
711.115	2261.47
711.303	2208.22
711.491	2189.79
711.679	2218.46
711.866	2206.17
712.054	2140.64
712.242	2150.88
712.43	2195.93
712.617	2218.46
712.805	2148.83
712.993	2204.13
713.181	2265.57
713.368	2175.45
713.556	2294.24
713.744	2191.84
713.931	2267.61
714.119	2195.93
714.306	2212.32
714.494	2204.13
714.682	2179.55
714.869	2222.56
715.057	2154.98
715.244	2150.88
715.432	2234.85
715.619	2118.11
715.807	2222.56
715.994	2253.28
716.182	2152.93
716.369	2077.15
716.556	2249.18
716.744	2247.13
716.931	2177.5
717.119	2193.89
717.306	2279.9
717.493	2212.32
717.681	2165.21
717.868	2191.84
718.055	2208.22
718.242	2159.07
718.43	2279.9
718.617	2126.3
718.804	2144.74
718.991	2197.98
719.179	2146.78
719.366	2128.35
719.553	2234.85
719.74	2071.01
719.927	2204.13
720.114	2140.64
720.301	2187.74
720.488	2175.45
720.676	2097.63
720.863	2247.13
721.05	2161.12
721.237	2173.41
721.424	2210.27
721.611	2228.7
721.798	2224.61
721.985	2054.62
722.172	2185.69
722.358	2208.22
722.545	2142.69
722.732	2187.74
722.919	2140.64
723.106	2111.97
723.293	2146.78
723.48	2105.82
723.667	2066.91
723.853	2152.93
724.04	2036.19
724.227	2136.54
724.414	2238.94
724.6	2236.89
724.787	2025.95
724.974	2222.56
725.161	2101.73
725.347	2146.78
725.534	2163.17
725.72	2134.5
725.907	2173.41
726.094	2228.7
726.28	2109.92
726.467	2085.34
726.653	2228.7
726.84	2249.18
727.027	2275.81
727.213	2130.4
727.4	2130.4
727.586	2157.02
727.773	2136.54
727.959	2236.89
728.145	2267.61
728.332	2185.69
728.518	2202.08
728.705	2210.27
728.891	2238.94
729.077	2228.7
729.264	2212.32
729.45	2163.17
729.636	2318.81
729.823	2277.85
730.009	2150.88
730.195	2214.37
730.382	2197.98
730.568	2154.98
730.754	2247.13
730.94	2279.9
731.126	2142.69
731.313	2339.29
731.499	2238.94
731.685	2195.93
731.871	2265.57
732.057	2269.66
732.243	2267.61
732.429	2202.08
732.615	2232.8
732.801	2310.62
732.987	2232.8
733.173	2210.27
733.359	2167.26
733.545	2243.04
733.731	2216.41
733.917	2322.91
734.103	2159.07
734.289	2222.56
734.475	2214.37
734.661	2228.7
734.847	2238.94
735.033	2189.79
735.219	2263.52
735.404	2306.52
735.59	2222.56
735.776	2175.45
735.962	2312.67
736.148	2247.13
736.333	2310.62
736.519	2234.85
736.705	2259.42
736.89	2284
737.076	2331.1
737.262	2073.06
737.447	2259.42
737.633	2245.09
737.819	2300.38
738.004	2189.79
738.19	2230.75
738.375	2197.98
738.561	2261.47
738.747	2173.41
738.932	2218.46
739.118	2208.22
739.303	2234.85
739.489	2236.89
739.674	2167.26
739.859	2232.8
740.045	2111.97
740.23	2245.09
740.416	2222.56
740.601	2204.13
740.786	2259.42
740.972	2077.15
741.157	2150.88
741.342	2128.35
741.528	2265.57
741.713	2298.33
741.898	2202.08
742.084	2154.98
742.269	2157.02
742.454	2279.9
742.639	2130.4
742.824	2103.78
743.01	2083.3
743.195	2175.45
743.38	2068.96
743.565	2214.37
743.75	2251.23
743.935	2114.02
744.12	2210.27
744.305	2066.91
744.49	1984.99
744.675	2021.86
744.86	2011.62
745.045	2015.71
745.23	2136.54
745.415	2159.07
745.6	2087.39
745.785	1954.27
745.97	1944.03
746.155	1927.65
746.34	1927.65
746.525	1991.14
746.71	2021.86
746.895	2017.76
747.079	1941.99
747.264	2005.47
747.449	1978.85
747.634	1905.12
747.819	1894.88
748.003	1831.4
748.188	1794.53
748.373	2021.86
748.557	1888.74
748.742	1941.99
748.927	1800.68
749.111	1954.27
749.296	1841.64
749.481	1759.72
749.665	1845.73
749.85	1849.83
750.034	1874.4
750.219	1860.07
750.404	1792.48
750.588	1823.2
750.773	1833.44
750.957	1757.67
751.141	1735.14
751.326	1710.57
751.51	1751.53
751.695	1823.2
751.879	1753.57
752.064	1757.67
752.248	1647.08
752.432	1772
752.617	1663.46
752.801	1780.2
752.985	1757.67
753.17	1651.17
753.354	1671.65
753.538	1595.88
753.722	1485.29
753.907	1642.98
754.091	1593.83
754.275	1554.92
754.459	1616.36
754.643	1518.06
754.828	1518.06
755.012	1591.78
755.196	1556.97
755.38	1499.63
755.564	1520.1
755.748	1440.23
755.932	1522.15
756.116	1524.2
756.3	1384.94
756.484	1481.19
756.668	1399.27
756.852	1468.91
757.036	1423.85
757.22	1487.34
757.404	1425.9
757.588	1382.89
757.772	1362.41
757.956	1354.22
758.14	1411.56
758.323	1397.23
758.507	1366.51
758.691	1419.75
758.875	1395.18
759.059	1440.23
759.242	1292.78
759.426	1292.78
759.61	1382.89
759.794	1268.2
759.977	1354.22
760.161	1313.26
760.345	1350.12
760.528	1251.82
760.712	1343.98
760.895	1411.56
761.079	1266.16
761.263	1192.43
761.446	1243.63
761.63	1253.87
761.813	1239.53
761.997	1210.86
762.18	1239.53
762.364	1327.6
762.547	1204.72
762.731	1243.63
762.914	1249.77
763.098	1085.94
763.281	1184.24
763.464	1139.18
763.648	1083.89
763.831	1198.57
764.015	1114.61
764.198	1247.72
764.381	1112.56
764.564	1124.85
764.748	1229.29
764.931	1243.63
765.114	1077.74
765.297	1200.62
765.481	1110.51
765.664	1077.74
765.847	1063.41
766.03	1155.57
766.213	1063.41
766.397	1042.93
766.58	1104.37
766.763	1137.13
766.946	1153.52
767.129	1061.36
767.312	1120.75
767.495	1042.93
767.678	1014.26
767.861	1135.09
768.044	915.95
768.227	1081.84
768.41	1055.22
768.593	1063.41
768.776	944.63
768.959	993.78
769.142	1020.4
769.324	1034.74
769.507	997.87
769.69	1034.74
769.873	999.92
770.056	1053.17
770.239	969.2
770.421	1065.46
770.604	956.91
770.787	913.91
770.97	954.87
771.152	893.43
771.335	965.11
771.518	903.67
771.7	983.54
771.883	918
772.066	913.91
772.248	989.68
772.431	920.05
772.613	913.91
772.796	893.43
772.978	881.14
773.161	981.49
773.343	901.62
773.526	866.8
773.708	854.51
773.891	846.32
774.073	918
774.256	928.24
774.438	885.23
774.621	821.75
774.803	848.37
774.985	836.08
775.168	803.32
775.35	903.67
775.532	819.7
775.715	846.32
775.897	819.7
776.079	780.79
776.261	813.56
776.444	905.71
776.626	864.75
776.808	768.5
776.99	731.64
777.173	705.01
777.355	803.32
777.537	719.35
777.719	807.41
777.901	745.97
778.083	752.12
778.265	664.05
778.447	752.12
778.629	788.98
778.811	684.53
778.993	717.3
779.175	735.73
779.357	723.44
779.539	715.25
779.721	698.87
779.903	672.25
780.085	674.29
780.267	682.49
780.449	690.68
780.631	719.35
780.812	629.24
780.994	707.06
781.176	664.05
781.358	657.91
781.54	596.47
781.721	608.76
781.903	653.81
782.085	580.09
782.267	621.05
782.448	631.29
782.63	639.48
782.812	631.29
782.993	582.14
783.175	627.19
783.357	600.57
783.538	645.62
783.72	616.95
783.901	578.04
784.083	627.19
784.264	545.27
784.446	555.51
784.627	547.32
784.809	563.7
784.99	586.23
785.172	547.32
785.353	598.52
785.535	479.74
785.716	549.37
785.897	596.47
786.079	514.55
786.26	514.55
786.441	563.7
786.623	477.69
786.804	496.12
786.985	496.12
787.167	459.26
787.348	467.45
787.529	479.74
787.71	504.31
787.891	416.25
788.073	457.21
788.254	453.11
788.435	485.88
788.616	449.02
788.797	494.07
788.978	494.07
789.159	461.3
789.34	459.26
789.522	436.73
789.703	414.2
789.884	457.21
790.065	467.45
790.246	446.97
790.427	371.19
790.607	393.72
790.788	461.3
790.969	393.72
791.15	397.82
791.331	387.58
791.512	379.39
791.693	412.15
791.874	408.06
792.054	465.4
792.235	363
792.416	401.91
792.597	358.91
792.778	385.53
792.958	330.23
793.139	338.43
793.32	406.01
793.5	356.86
793.681	430.59
793.862	414.2
794.042	432.63
794.223	328.19
794.404	324.09
794.584	305.66
794.765	326.14
794.945	412.15
795.126	332.28
795.306	332.28
795.487	317.95
795.667	311.8
795.848	295.42
796.028	309.76
796.209	332.28
796.389	383.48
796.57	385.53
796.75	276.99
796.93	330.23
797.111	279.04
797.291	301.56
797.471	358.91
797.652	270.84
797.832	317.95
798.012	354.81
798.192	287.23
798.373	315.9
798.553	225.79
798.733	350.71
798.913	297.47
799.093	287.23
799.274	225.79
799.454	281.08
799.634	272.89
799.814	356.86
799.994	285.18
800.174	352.76
800.354	283.13
800.534	324.09
800.714	338.43
800.894	262.65
801.074	209.4
801.254	307.71
801.434	289.28
801.614	248.32
801.794	258.56
801.974	647.67
802.154	334.33
802.334	289.28
802.514	279.04
802.693	297.47
802.873	289.28
803.053	287.23
803.233	248.32
803.413	256.51
803.592	233.98
803.772	285.18
803.952	197.12
804.131	252.41
804.311	238.08
804.491	254.46
804.67	221.69
804.85	299.52
805.03	293.37
805.209	340.47
805.389	254.46
805.568	219.64
805.748	246.27
805.928	170.49
806.107	201.21
806.287	217.6
806.466	254.46
806.646	240.12
806.825	244.22
807.004	170.49
807.184	289.28
807.363	246.27
807.543	250.36
807.722	272.89
807.901	305.66
808.081	197.12
808.26	129.53
808.439	303.61
808.619	211.45
808.798	207.36
808.977	190.97
809.156	305.66
809.336	238.08
809.515	246.27
809.694	203.26
809.873	215.55
810.052	250.36
810.231	217.6
810.411	256.51
810.59	260.6
810.769	276.99
810.948	162.3
811.127	178.69
811.306	203.26
811.485	172.54
811.664	215.55
811.843	201.21
812.022	240.12
812.201	266.75
812.38	166.4
812.559	238.08
812.737	217.6
812.916	143.87
813.095	168.45
813.274	211.45
813.453	209.4
813.632	174.59
813.811	229.88
813.989	203.26
814.168	260.6
814.347	121.34
814.526	248.32
814.704	211.45
814.883	211.45
815.062	111.1
815.24	217.6
815.419	143.87
815.598	205.31
815.776	143.87
815.955	184.83
816.133	166.4
816.312	190.97
816.49	180.73
816.669	205.31
816.847	217.6
817.026	145.92
817.204	127.49
817.383	152.06
817.561	225.79
817.74	188.93
817.918	152.06
818.097	252.41
818.275	98.81
818.453	182.78
818.632	92.67
818.81	223.74
818.988	160.25
819.167	92.67
819.345	55.81
819.523	174.59
819.701	152.06
819.879	240.12
820.058	217.6
820.236	150.01
820.414	154.11
820.592	133.63
820.77	172.54
820.948	131.58
821.127	190.97
821.305	211.45
821.483	162.3
821.661	100.86
821.839	145.92
822.017	156.16
822.195	121.34
822.373	199.16
822.551	143.87
822.729	133.63
822.907	90.62
823.085	193.02
823.262	154.11
823.44	170.49
823.618	145.92
823.796	152.06
823.974	111.1
824.152	174.59
824.329	57.86
824.507	115.2
824.685	90.62
824.863	92.67
825.04	107.01
825.218	109.05
825.396	121.34
825.574	176.64
825.751	86.53
825.929	111.1
826.107	98.81
826.284	115.2
826.462	145.92
826.639	78.33
826.817	129.53
826.994	104.96
827.172	76.29
827.349	109.05
827.527	174.59
827.704	125.44
827.882	137.73
828.059	104.96
828.237	78.33
828.414	190.97
828.591	98.81
828.769	162.3
828.946	86.53
829.124	147.97
829.301	49.66
829.478	190.97
829.655	98.81
829.833	96.77
830.01	57.86
830.187	104.96
830.364	111.1
830.542	127.49
830.719	129.53
830.896	117.25
831.073	125.44
831.25	123.39
831.427	152.06
831.604	147.97
831.782	117.25
831.959	131.58
832.136	96.77
832.313	121.34
832.49	96.77
832.667	121.34
832.844	76.29
833.021	74.24
833.198	68.09
833.374	107.01
833.551	49.66
833.728	111.1
833.905	129.53
834.082	129.53
834.259	55.81
834.436	59.9
834.612	166.4
834.789	166.4
834.966	109.05
835.143	100.86
835.319	141.82
835.496	55.81
835.673	147.97
835.85	84.48
836.026	107.01
836.203	92.67
836.38	125.44
836.556	49.66
836.733	133.63
836.909	131.58
837.086	72.19
837.262	20.99
837.439	125.44
837.616	115.2
837.792	92.67
837.968	135.68
838.145	86.53
838.321	66.05
838.498	33.28
838.674	78.33
838.851	18.94
839.027	172.54
839.203	55.81
839.38	94.72
839.556	80.38
839.732	66.05
839.909	123.39
840.085	119.29
840.261	0.51
840.437	104.96
840.614	59.9
840.79	23.04
840.966	180.73
841.142	199.16
841.318	129.53
841.494	82.43
841.671	121.34
841.847	72.19
842.023	104.96
842.199	129.53
842.375	147.97
842.551	31.23
842.727	121.34
842.903	74.24
843.079	96.77
843.255	139.77
843.431	92.67
843.607	137.73
843.783	16.9
843.959	113.15
844.134	49.66
844.31	107.01
844.486	82.43
844.662	47.62
844.838	80.38
845.013	133.63
845.189	88.57
845.365	57.86
845.541	31.23
845.716	109.05
845.892	76.29
846.068	10.75
846.244	2.56
846.419	90.62
846.595	66.05
846.77	57.86
846.946	59.9
847.122	76.29
847.297	0.51
847.473	117.25
847.648	74.24
847.824	51.71
847.999	86.53
848.175	49.66
848.35	109.05
848.526	76.29
848.701	109.05
848.876	119.29
849.052	117.25
849.227	51.71
849.403	59.9
849.578	92.67
849.753	141.82
849.929	64
850.104	96.77
850.279	119.29
850.454	127.49
850.63	49.66
850.805	125.44
850.98	25.09
851.155	88.57
851.33	47.62
851.505	51.71
851.681	57.86
851.856	-7.68
852.031	80.38
852.206	96.77
852.381	64
852.556	64
852.731	72.19
852.906	35.33
853.081	90.62
853.256	119.29
853.431	109.05
853.606	6.66
853.781	113.15
853.956	113.15
854.131	43.52
854.305	-1.54
854.48	86.53
854.655	113.15
854.83	125.44
855.005	57.86
855.18	80.38
855.354	74.24
855.529	35.33
855.704	12.8
855.879	139.77
856.053	43.52
856.228	35.33
856.403	100.86
856.577	135.68
856.752	-22.02
856.926	66.05
857.101	23.04
857.276	49.66
857.45	68.09
857.625	96.77
857.799	76.29
857.974	29.18
858.148	66.05
858.323	35.33
858.497	10.75
858.672	49.66
858.846	8.7
859.02	90.62
859.195	45.57
859.369	57.86
859.543	78.33
859.718	-34.3
859.892	61.95
860.066	86.53
860.241	43.52
860.415	123.39
860.589	6.66
860.763	68.09
860.938	33.28
861.112	84.48
861.286	37.38
861.46	4.61
861.634	55.81
861.808	57.86
861.982	8.7
862.157	29.18
862.331	-9.73
862.505	84.48
862.679	29.18
862.853	121.34
863.027	-52.74
863.201	41.47
863.375	78.33
863.549	-11.78
863.722	-13.82
863.896	57.86
864.07	43.52
864.244	31.23
864.418	27.14
864.592	-32.26
864.766	18.94
864.939	107.01
865.113	78.33
865.287	49.66
865.461	-36.35
865.634	31.23
865.808	53.76
865.982	72.19
866.156	61.95
866.329	64
866.503	-28.16
866.676	53.76
866.85	25.09
867.024	72.19
867.197	27.14
867.371	76.29
867.544	14.85
867.718	4.61
867.891	31.23
868.065	6.66
868.238	53.76
868.412	123.39
868.585	12.8
868.759	6.66
868.932	88.57
869.105	123.39
869.279	27.14
869.452	47.62
869.625	55.81
869.799	-22.02
869.972	39.42
870.145	96.77
870.319	92.67
870.492	68.09
870.665	-46.59
870.838	25.09
871.011	90.62
871.185	29.18
871.358	-58.88
871.531	-15.87
871.704	12.8
871.877	-5.63
872.05	47.62
872.223	-13.82
872.396	92.67
872.569	74.24
872.742	12.8
872.915	16.9
873.088	80.38
873.261	78.33
873.434	35.33
873.607	53.76
873.78	64
873.953	53.76
874.126	10.75
874.299	25.09
874.471	49.66
874.644	27.14
874.817	70.14
874.99	47.62
875.163	39.42
875.335	107.01
875.508	20.99
875.681	25.09
875.853	45.57
876.026	68.09
876.199	43.52
876.371	51.71
876.544	49.66
876.717	29.18
876.889	53.76
877.062	43.52
877.234	72.19
877.407	25.09
877.579	80.38
877.752	53.76
877.924	20.99
878.097	45.57
878.269	39.42
878.442	66.05
878.614	41.47
878.786	-1.54
878.959	78.33
879.131	43.52
879.303	39.42
879.476	20.99
879.648	107.01
879.82	64
879.993	66.05
880.165	31.23
880.337	-9.73
880.509	29.18
880.681	-22.02
880.854	27.14
881.026	68.09
881.198	113.15
881.37	-28.16
881.542	61.95
881.714	43.52
881.886	104.96
882.058	55.81
882.23	20.99
882.402	66.05
882.574	-22.02
882.746	-9.73
882.918	33.28
883.09	49.66
883.262	-32.26
883.434	8.7
883.606	57.86
883.778	115.2
883.95	102.91
884.122	39.42
884.293	102.91
884.465	16.9
884.637	0.51
884.809	-28.16
884.98	41.47
885.152	-15.87
885.324	76.29
885.496	29.18
885.667	10.75
885.839	23.04
886.011	43.52
886.182	31.23
886.354	61.95
886.525	10.75
886.697	16.9
886.869	35.33
887.04	27.14
887.212	37.38
887.383	86.53
887.555	47.62
887.726	41.47
887.897	-11.78
888.069	82.43
888.24	59.9
888.412	-15.87
888.583	-9.73
888.754	33.28
888.926	-5.63
889.097	8.7
889.268	29.18
889.44	57.86
889.611	-103.93
889.782	25.09
889.953	12.8
890.125	37.38
890.296	23.04
890.467	2.56
890.638	18.94
890.809	64
890.98	-11.78
891.151	45.57
891.323	-42.5
891.494	90.62
891.665	12.8
891.836	25.09
892.007	23.04
892.178	39.42
892.349	-13.82
892.52	2.56
892.691	-32.26
892.862	53.76
893.032	8.7
893.203	45.57
893.374	59.9
893.545	51.71
893.716	51.71
893.887	35.33
894.057	-9.73
894.228	43.52
894.399	-19.97
894.57	131.58
894.74	10.75
894.911	12.8
895.082	31.23
895.253	-9.73
895.423	4.61
895.594	51.71
895.764	-34.3
895.935	-3.58
896.106	96.77
896.276	107.01
896.447	-9.73
896.617	16.9
896.788	37.38
896.958	41.47
897.129	-24.06
897.299	0.51
897.47	57.86
897.64	25.09
897.81	-1.54
897.981	82.43
898.151	35.33
898.322	18.94
898.492	39.42
898.662	35.33
898.832	23.04
899.003	-17.92
899.173	80.38
899.343	51.71
899.513	8.7
