Data from USB4F104151__19__11-44-37-133.txt Node

Date: Fri Mar 14 11:44:37 EDT 2025
User: louis
Spectrometer: USB4F10415
Trigger mode: 4
Integration Time (sec): 2.000000E-2
Scans to average: 1
Electric dark correction enabled: true
Nonlinearity correction enabled: false
Boxcar width: 0
XAxis mode: Wavelengths
Number of Pixels in Spectrum: 3648
>>>>>Begin Spectral Data<<<<<
178.204	-53.08
178.424	-53.08
178.644	-53.08
178.864	14.51
179.084	-67.41
179.304	-10.07
179.524	-51.03
179.744	30.89
179.964	-5.97
180.184	16.55
180.404	18.6
180.624	-30.55
180.844	8.36
181.064	-40.79
181.283	30.89
181.503	-26.45
181.723	59.56
181.943	39.08
182.163	92.33
182.383	-3.93
182.602	88.23
182.822	43.18
183.042	12.46
183.262	-36.69
183.482	34.99
183.701	-44.88
183.921	41.13
184.141	8.36
184.361	34.99
184.58	84.14
184.8	34.99
185.02	-34.64
185.239	49.32
185.459	-36.69
185.679	-8.02
185.898	-36.69
186.118	37.03
186.338	12.46
186.557	90.28
186.777	86.19
186.997	-12.12
187.216	26.79
187.436	98.47
187.655	6.31
187.875	6.31
188.095	22.7
188.314	73.9
188.534	24.75
188.753	-55.12
188.973	82.09
189.192	84.14
189.412	10.41
189.631	47.27
189.851	53.42
190.07	69.8
190.29	-26.45
190.509	59.56
190.729	-26.45
190.948	88.23
191.168	75.95
191.387	49.32
191.607	4.27
191.826	16.55
192.045	-30.55
192.265	6.31
192.484	12.46
192.704	20.65
192.923	-24.4
193.142	114.86
193.362	30.89
193.581	108.71
193.8	-1.88
194.02	51.37
194.239	28.84
194.458	-20.31
194.678	-14.17
194.897	43.18
195.116	24.75
195.335	57.51
195.555	24.75
195.774	2.22
195.993	47.27
196.212	-24.4
196.432	49.32
196.651	39.08
196.87	-28.5
197.089	30.89
197.308	-26.45
197.528	26.79
197.747	-40.79
197.966	2.22
198.185	34.99
198.404	4.27
198.623	-8.02
198.842	-10.07
199.062	16.55
199.281	110.76
199.5	51.37
199.719	39.08
199.938	30.89
200.157	6.31
200.376	26.79
200.595	34.99
200.814	18.6
201.033	43.18
201.252	61.61
201.471	26.79
201.69	92.33
201.909	30.89
202.128	2.22
202.347	73.9
202.566	34.99
202.785	32.94
203.004	-14.17
203.223	94.38
203.442	63.66
203.661	0.17
203.879	10.41
204.098	41.13
204.317	-44.88
204.536	51.37
204.755	-26.45
204.974	80.04
205.193	2.22
205.411	22.7
205.63	30.89
205.849	47.27
206.068	92.33
206.287	4.27
206.505	45.23
206.724	-61.27
206.943	39.08
207.162	10.41
207.381	47.27
207.599	18.6
207.818	4.27
208.037	6.31
208.255	18.6
208.474	43.18
208.693	43.18
208.911	16.55
209.13	-3.93
209.349	53.42
209.567	67.75
209.786	57.51
210.005	51.37
210.223	75.95
210.442	-40.79
210.661	67.75
210.879	0.17
211.098	47.27
211.316	28.84
211.535	12.46
211.753	24.75
211.972	51.37
212.191	45.23
212.409	57.51
212.628	26.79
212.846	-26.45
213.065	82.09
213.283	10.41
213.502	-10.07
213.72	53.42
213.938	-24.4
214.157	41.13
214.375	45.23
214.594	43.18
214.812	65.71
215.031	43.18
215.249	-44.88
215.467	65.71
215.686	-1.88
215.904	10.41
216.122	6.31
216.341	20.65
216.559	22.7
216.778	-3.93
216.996	47.27
217.214	6.31
217.432	-42.84
217.651	20.65
217.869	-44.88
218.087	18.6
218.306	-51.03
218.524	18.6
218.742	-14.17
218.96	-71.51
219.179	-14.17
219.397	59.56
219.615	49.32
219.833	39.08
220.051	30.89
220.27	73.9
220.488	-8.02
220.706	98.47
220.924	26.79
221.142	65.71
221.36	-8.02
221.578	59.56
221.796	-30.55
222.015	37.03
222.233	32.94
222.451	61.61
222.669	41.13
222.887	45.23
223.105	53.42
223.323	-5.97
223.541	-1.88
223.759	14.51
223.977	22.7
224.195	67.75
224.413	63.66
224.631	-10.07
224.849	47.27
225.067	125.1
225.285	-57.17
225.503	45.23
225.721	12.46
225.939	-30.55
226.157	-14.17
226.375	41.13
226.592	-22.36
226.81	22.7
227.028	43.18
227.246	49.32
227.464	10.41
227.682	-18.26
227.9	-22.36
228.117	-1.88
228.335	39.08
228.553	10.41
228.771	69.8
228.989	67.75
229.206	-46.93
229.424	45.23
229.642	10.41
229.86	-1.88
230.077	61.61
230.295	32.94
230.513	18.6
230.731	-18.26
230.948	30.89
231.166	55.47
231.384	-32.6
231.601	32.94
231.819	118.95
232.037	10.41
232.254	-16.21
232.472	61.61
232.689	49.32
232.907	63.66
233.125	8.36
233.342	114.86
233.56	28.84
233.777	-22.36
233.995	18.6
234.213	49.32
234.43	90.28
234.648	30.89
234.865	28.84
235.083	55.47
235.3	12.46
235.518	123.05
235.735	55.47
235.953	45.23
236.17	55.47
236.388	-20.31
236.605	41.13
236.822	71.85
237.04	69.8
237.257	59.56
237.475	41.13
237.692	30.89
237.909	16.55
238.127	61.61
238.344	22.7
238.562	106.67
238.779	-16.21
238.996	26.79
239.214	53.42
239.431	24.75
239.648	0.17
239.865	104.62
240.083	10.41
240.3	77.99
240.517	-32.6
240.735	69.8
240.952	71.85
241.169	6.31
241.386	24.75
241.603	57.51
241.821	-10.07
242.038	55.47
242.255	14.51
242.472	14.51
242.689	108.71
242.907	39.08
243.124	84.14
243.341	2.22
243.558	12.46
243.775	61.61
243.992	-3.93
244.209	26.79
244.426	67.75
244.643	65.71
244.86	45.23
245.078	73.9
245.295	59.56
245.512	39.08
245.729	4.27
245.946	41.13
246.163	-28.5
246.38	6.31
246.597	98.47
246.814	2.22
247.031	43.18
247.248	39.08
247.464	71.85
247.681	10.41
247.898	90.28
248.115	32.94
248.332	30.89
248.549	32.94
248.766	92.33
248.983	43.18
249.2	-48.98
249.417	125.1
249.633	-26.45
249.85	98.47
250.067	34.99
250.284	28.84
250.501	-26.45
250.717	20.65
250.934	2.22
251.151	51.37
251.368	69.8
251.585	16.55
251.801	-30.55
252.018	-48.98
252.235	67.75
252.451	71.85
252.668	16.55
252.885	-5.97
253.102	22.7
253.318	22.7
253.535	67.75
253.752	10.41
253.968	18.6
254.185	24.75
254.401	-3.93
254.618	55.47
254.835	12.46
255.051	39.08
255.268	-24.4
255.484	41.13
255.701	-1.88
255.917	14.51
256.134	-1.88
256.351	18.6
256.567	12.46
256.784	65.71
257	45.23
257.217	94.38
257.433	100.52
257.65	39.08
257.866	8.36
258.082	37.03
258.299	-71.51
258.515	-3.93
258.732	32.94
258.948	4.27
259.165	37.03
259.381	6.31
259.597	41.13
259.814	75.95
260.03	61.61
260.246	14.51
260.463	-20.31
260.679	2.22
260.895	39.08
261.112	61.61
261.328	-26.45
261.544	22.7
261.761	65.71
261.977	55.47
262.193	59.56
262.409	96.43
262.626	110.76
262.842	53.42
263.058	2.22
263.274	2.22
263.49	14.51
263.707	80.04
263.923	86.19
264.139	6.31
264.355	47.27
264.571	-12.12
264.787	-10.07
265.004	-14.17
265.22	-55.12
265.436	14.51
265.652	57.51
265.868	94.38
266.084	-12.12
266.3	10.41
266.516	-38.74
266.732	18.6
266.948	57.51
267.164	20.65
267.38	84.14
267.596	6.31
267.812	45.23
268.028	121
268.244	73.9
268.46	37.03
268.676	12.46
268.892	61.61
269.108	-59.22
269.324	18.6
269.54	28.84
269.756	59.56
269.972	26.79
270.188	63.66
270.403	-18.26
270.619	-14.17
270.835	6.31
271.051	-5.97
271.267	-12.12
271.483	18.6
271.698	28.84
271.914	43.18
272.13	26.79
272.346	32.94
272.562	61.61
272.777	55.47
272.993	102.57
273.209	-18.26
273.425	-55.12
273.64	-8.02
273.856	59.56
274.072	8.36
274.287	57.51
274.503	-26.45
274.719	43.18
274.934	47.27
275.15	69.8
275.366	121
275.581	-1.88
275.797	63.66
276.012	30.89
276.228	0.17
276.444	71.85
276.659	55.47
276.875	8.36
277.09	67.75
277.306	61.61
277.521	32.94
277.737	22.7
277.952	90.28
278.168	0.17
278.383	43.18
278.599	30.89
278.814	108.71
279.03	-1.88
279.245	43.18
279.461	65.71
279.676	10.41
279.892	6.31
280.107	30.89
280.322	-28.5
280.538	121
280.753	-3.93
280.969	26.79
281.184	57.51
281.399	57.51
281.615	12.46
281.83	51.37
282.045	-10.07
282.26	26.79
282.476	84.14
282.691	4.27
282.906	96.43
283.122	41.13
283.337	8.36
283.552	8.36
283.767	14.51
283.983	63.66
284.198	-32.6
284.413	34.99
284.628	49.32
284.843	30.89
285.058	12.46
285.274	82.09
285.489	-34.64
285.704	73.9
285.919	41.13
286.134	88.23
286.349	71.85
286.564	37.03
286.779	34.99
286.995	4.27
287.21	-18.26
287.425	65.71
287.64	-32.6
287.855	-5.97
288.07	53.42
288.285	20.65
288.5	106.67
288.715	73.9
288.93	14.51
289.145	4.27
289.36	28.84
289.575	43.18
289.79	43.18
290.004	26.79
290.219	14.51
290.434	43.18
290.649	43.18
290.864	45.23
291.079	41.13
291.294	8.36
291.509	59.56
291.724	39.08
291.938	14.51
292.153	104.62
292.368	18.6
292.583	6.31
292.798	53.42
293.012	-55.12
293.227	96.43
293.442	49.32
293.657	98.47
293.871	75.95
294.086	63.66
294.301	141.48
294.516	125.1
294.73	18.6
294.945	-20.31
295.16	137.38
295.374	104.62
295.589	47.27
295.804	8.36
296.018	43.18
296.233	0.17
296.447	71.85
296.662	55.47
296.877	129.19
297.091	100.52
297.306	57.51
297.52	37.03
297.735	84.14
297.949	18.6
298.164	57.51
298.378	-28.5
298.593	-5.97
298.807	39.08
299.022	65.71
299.236	14.51
299.451	75.95
299.665	-46.93
299.88	61.61
300.094	63.66
300.309	82.09
300.523	-20.31
300.737	100.52
300.952	102.57
301.166	0.17
301.381	22.7
301.595	20.65
301.809	65.71
302.024	71.85
302.238	6.31
302.452	22.7
302.667	-10.07
302.881	75.95
303.095	96.43
303.309	-1.88
303.524	26.79
303.738	53.42
303.952	121
304.166	61.61
304.381	-59.22
304.595	32.94
304.809	30.89
305.023	86.19
305.237	53.42
305.452	-30.55
305.666	88.23
305.88	34.99
306.094	14.51
306.308	43.18
306.522	67.75
306.736	49.32
306.95	18.6
307.164	34.99
307.379	22.7
307.593	37.03
307.807	28.84
308.021	69.8
308.235	-53.08
308.449	0.17
308.663	49.32
308.877	61.61
309.091	10.41
309.305	125.1
309.519	-30.55
309.733	24.75
309.947	32.94
310.161	59.56
310.374	-14.17
310.588	59.56
310.802	51.37
311.016	-1.88
311.23	49.32
311.444	-1.88
311.658	94.38
311.872	18.6
312.085	26.79
312.299	100.52
312.513	51.37
312.727	41.13
312.941	-1.88
313.154	32.94
313.368	0.17
313.582	118.95
313.796	67.75
314.009	151.72
314.223	4.27
314.437	104.62
314.651	-5.97
314.864	73.9
315.078	16.55
315.292	-16.21
315.505	80.04
315.719	26.79
315.933	24.75
316.146	14.51
316.36	-20.31
316.573	37.03
316.787	37.03
317.001	65.71
317.214	-18.26
317.428	12.46
317.641	26.79
317.855	82.09
318.068	6.31
318.282	92.33
318.495	26.79
318.709	80.04
318.922	6.31
319.136	67.75
319.349	98.47
319.563	104.62
319.776	30.89
319.99	22.7
320.203	14.51
320.417	77.99
320.63	73.9
320.843	14.51
321.057	-1.88
321.27	14.51
321.483	65.71
321.697	55.47
321.91	53.42
322.124	71.85
322.337	30.89
322.55	0.17
322.763	49.32
322.977	57.51
323.19	-36.69
323.403	69.8
323.617	20.65
323.83	71.85
324.043	88.23
324.256	37.03
324.469	61.61
324.683	37.03
324.896	28.84
325.109	45.23
325.322	0.17
325.535	92.33
325.748	26.79
325.962	4.27
326.175	-32.6
326.388	45.23
326.601	45.23
326.814	22.7
327.027	4.27
327.24	39.08
327.453	61.61
327.666	67.75
327.879	45.23
328.092	-3.93
328.305	51.37
328.518	88.23
328.731	-32.6
328.944	59.56
329.157	-36.69
329.37	37.03
329.583	55.47
329.796	45.23
330.009	45.23
330.222	61.61
330.435	90.28
330.648	92.33
330.861	34.99
331.073	88.23
331.286	59.56
331.499	71.85
331.712	37.03
331.925	-20.31
332.138	45.23
332.35	43.18
332.563	14.51
332.776	73.9
332.989	41.13
333.202	82.09
333.414	22.7
333.627	82.09
333.84	16.55
334.053	51.37
334.265	57.51
334.478	67.75
334.691	51.37
334.903	37.03
335.116	26.79
335.329	49.32
335.541	75.95
335.754	176.3
335.966	30.89
336.179	55.47
336.392	94.38
336.604	47.27
336.817	39.08
337.029	12.46
337.242	41.13
337.454	88.23
337.667	39.08
337.88	59.56
338.092	24.75
338.305	51.37
338.517	49.32
338.729	94.38
338.942	59.56
339.154	-10.07
339.367	18.6
339.579	34.99
339.792	57.51
340.004	30.89
340.217	71.85
340.429	12.46
340.641	-16.21
340.854	94.38
341.066	-46.93
341.278	-22.36
341.491	77.99
341.703	26.79
341.915	114.86
342.128	73.9
342.34	-28.5
342.552	32.94
342.764	63.66
342.977	55.47
343.189	53.42
343.401	75.95
343.613	-69.46
343.826	4.27
344.038	90.28
344.25	-32.6
344.462	-32.6
344.674	-38.74
344.886	30.89
345.099	67.75
345.311	22.7
345.523	2.22
345.735	61.61
345.947	102.57
346.159	24.75
346.371	53.42
346.583	51.37
346.795	86.19
347.007	49.32
347.219	30.89
347.431	26.79
347.643	80.04
347.855	86.19
348.067	24.75
348.279	16.55
348.491	39.08
348.703	41.13
348.915	-30.55
349.127	32.94
349.339	51.37
349.551	43.18
349.763	41.13
349.975	-63.32
350.187	73.9
350.399	37.03
350.61	71.85
350.822	61.61
351.034	-18.26
351.246	82.09
351.458	37.03
351.669	53.42
351.881	51.37
352.093	86.19
352.305	6.31
352.517	10.41
352.728	-3.93
352.94	30.89
353.152	39.08
353.363	-22.36
353.575	37.03
353.787	14.51
353.999	69.8
354.21	104.62
354.422	57.51
354.633	12.46
354.845	26.79
355.057	71.85
355.268	100.52
355.48	57.51
355.692	-34.64
355.903	94.38
356.115	12.46
356.326	71.85
356.538	41.13
356.749	100.52
356.961	84.14
357.172	75.95
357.384	24.75
357.595	55.47
357.807	51.37
358.018	-1.88
358.23	12.46
358.441	73.9
358.653	47.27
358.864	2.22
359.075	10.41
359.287	116.9
359.498	71.85
359.709	102.57
359.921	86.19
360.132	8.36
360.344	63.66
360.555	8.36
360.766	37.03
360.977	-26.45
361.189	34.99
361.4	-38.74
361.611	110.76
361.823	84.14
362.034	-38.74
362.245	55.47
362.456	45.23
362.667	63.66
362.879	30.89
363.09	63.66
363.301	39.08
363.512	49.32
363.723	-18.26
363.935	10.41
364.146	127.14
364.357	88.23
364.568	96.43
364.779	-24.4
364.99	55.47
365.201	59.56
365.412	71.85
365.623	-1.88
365.834	49.32
366.045	39.08
366.256	69.8
366.467	41.13
366.678	47.27
366.889	4.27
367.1	-22.36
367.311	121
367.522	18.6
367.733	88.23
367.944	14.51
368.155	10.41
368.366	88.23
368.577	32.94
368.788	28.84
368.999	47.27
369.209	69.8
369.42	73.9
369.631	77.99
369.842	30.89
370.053	24.75
370.264	77.99
370.474	-28.5
370.685	69.8
370.896	75.95
371.107	26.79
371.317	71.85
371.528	-8.02
371.739	92.33
371.95	32.94
372.16	71.85
372.371	12.46
372.582	49.32
372.792	63.66
373.003	0.17
373.214	53.42
373.424	34.99
373.635	82.09
373.846	63.66
374.056	75.95
374.267	-55.12
374.477	90.28
374.688	125.1
374.898	61.61
375.109	80.04
375.319	37.03
375.53	47.27
375.74	63.66
375.951	-16.21
376.161	77.99
376.372	59.56
376.582	88.23
376.793	80.04
377.003	22.7
377.214	59.56
377.424	39.08
377.635	90.28
377.845	88.23
378.055	51.37
378.266	39.08
378.476	37.03
378.686	-1.88
378.897	30.89
379.107	28.84
379.317	4.27
379.528	34.99
379.738	65.71
379.948	49.32
380.158	51.37
380.369	131.24
380.579	112.81
380.789	37.03
380.999	-10.07
381.21	118.95
381.42	61.61
381.63	65.71
381.84	41.13
382.05	8.36
382.261	90.28
382.471	69.8
382.681	45.23
382.891	86.19
383.101	67.75
383.311	-12.12
383.521	67.75
383.731	75.95
383.941	45.23
384.151	65.71
384.361	-18.26
384.571	82.09
384.781	51.37
384.991	121
385.201	92.33
385.411	90.28
385.621	61.61
385.831	39.08
386.041	53.42
386.251	22.7
386.461	112.81
386.671	71.85
386.881	110.76
387.091	125.1
387.301	100.52
387.511	45.23
387.72	6.31
387.93	-8.02
388.14	16.55
388.35	51.37
388.56	157.86
388.769	32.94
388.979	88.23
389.189	110.76
389.399	65.71
389.609	161.96
389.818	80.04
390.028	75.95
390.238	127.14
390.447	61.61
390.657	77.99
390.867	8.36
391.076	63.66
391.286	96.43
391.496	116.9
391.705	141.48
391.915	63.66
392.125	32.94
392.334	53.42
392.544	110.76
392.753	51.37
392.963	88.23
393.172	71.85
393.382	57.51
393.591	88.23
393.801	71.85
394.01	73.9
394.22	71.85
394.429	108.71
394.639	116.9
394.848	49.32
395.058	86.19
395.267	49.32
395.477	53.42
395.686	55.47
395.895	137.38
396.105	114.86
396.314	84.14
396.524	84.14
396.733	90.28
396.942	75.95
397.152	26.79
397.361	145.58
397.57	61.61
397.78	96.43
397.989	80.04
398.198	145.58
398.407	143.53
398.617	61.61
398.826	121
399.035	157.86
399.244	75.95
399.453	112.81
399.663	123.05
399.872	139.43
400.081	75.95
400.29	151.72
400.499	80.04
400.708	30.89
400.917	102.57
401.127	172.2
401.336	149.67
401.545	137.38
401.754	71.85
401.963	139.43
402.172	80.04
402.381	116.9
402.59	125.1
402.799	94.38
403.008	108.71
403.217	147.62
403.426	159.91
403.635	104.62
403.844	137.38
404.053	174.25
404.262	145.58
404.471	104.62
404.68	133.29
404.888	123.05
405.097	153.77
405.306	178.34
405.515	127.14
405.724	174.25
405.933	149.67
406.142	190.63
406.35	223.4
406.559	211.11
406.768	141.48
406.977	270.5
407.185	200.87
407.394	192.68
407.603	143.53
407.812	170.15
408.02	252.07
408.229	280.74
408.438	196.78
408.646	223.4
408.855	153.77
409.064	278.69
409.272	250.02
409.481	235.69
409.69	190.63
409.898	336.04
410.107	286.89
410.315	278.69
410.524	299.17
410.733	305.32
410.941	321.7
411.15	348.33
411.358	344.23
411.567	436.39
411.775	401.57
411.984	352.42
412.192	501.92
412.401	503.97
412.609	483.49
412.818	413.86
413.026	452.77
413.234	520.35
413.443	481.44
413.651	510.11
413.86	456.87
414.068	495.78
414.276	645.28
414.485	544.93
414.693	659.62
414.901	602.27
415.11	690.34
415.318	719.01
415.526	655.52
415.734	776.35
415.943	733.34
416.151	782.49
416.359	778.4
416.567	807.07
416.776	811.17
416.984	882.85
417.192	952.48
417.4	895.13
417.608	970.91
417.817	1040.54
418.025	1106.07
418.233	1251.48
418.441	970.91
418.649	1171.61
418.857	1171.61
419.065	1239.19
419.273	1163.42
419.481	1245.34
419.689	1341.59
419.897	1403.03
420.105	1386.65
420.313	1511.57
420.521	1497.24
420.729	1554.58
420.937	1577.11
421.145	1710.22
421.353	1831.05
421.561	1740.94
421.769	1759.38
421.977	2009.23
422.185	1831.05
422.393	2056.33
422.601	2158.73
422.809	2240.65
423.017	2248.84
423.224	2297.99
423.432	2300.04
423.64	2361.48
423.848	2607.23
424.056	2541.7
424.263	2766.98
424.471	2689.15
424.679	2758.78
424.887	2975.87
425.094	3037.31
425.302	2967.68
425.51	3143.8
425.718	3131.51
425.925	3295.35
426.133	3424.37
426.341	3635.32
426.548	3629.17
426.756	3766.39
426.964	3727.47
427.171	4067.44
427.379	4112.49
427.586	4167.79
427.794	4249.71
428.001	4436.07
428.209	4644.96
428.417	4610.15
428.624	4892.77
428.832	4911.2
429.039	4886.62
429.247	4878.43
429.454	5353.56
429.662	5744.72
429.869	5339.23
430.076	5673.04
430.284	5505.11
430.491	5654.61
430.699	6078.54
430.906	6160.46
431.114	6215.76
431.321	6467.66
431.528	6561.86
431.736	6985.79
431.943	7252.03
432.15	7059.52
432.358	7196.73
432.565	7520.31
432.772	7594.04
432.979	7774.26
433.187	8056.88
433.394	8286.25
433.601	8595.5
433.808	8742.95
434.016	8378.41
434.223	9025.57
434.43	9617.43
434.637	9402.4
434.844	9818.13
435.052	10201.1
435.259	9969.68
435.466	10207.25
435.673	9930.77
435.88	10561.55
436.087	11409.4
436.294	11274.24
436.501	11073.54
436.708	11483.13
436.915	11653.11
437.122	12247.02
437.329	12150.77
437.537	12345.33
437.743	12847.08
437.95	12625.9
438.157	13154.27
438.364	13909.97
438.571	13613.02
438.778	13750.23
438.985	15114.18
439.192	14604.24
439.399	14763.98
439.606	14651.34
439.813	15427.52
440.02	16349.11
440.227	16175.03
440.433	15951.8
440.64	16428.98
440.847	16275.38
441.054	16633.77
441.261	17858.46
441.467	17762.2
441.674	17997.72
441.881	18839.44
442.088	18708.37
442.294	18386.83
442.501	18937.74
442.708	19433.35
442.914	20391.8
443.121	20846.44
443.328	20154.23
443.534	21763.93
443.741	21364.58
443.948	20840.3
444.154	22437.72
444.361	22224.73
444.568	22464.34
444.774	22261.59
444.981	22964.04
445.187	23256.9
445.394	24422.2
445.6	24067.9
445.807	26421.02
446.013	25225
446.22	25773.86
446.426	26836.75
446.633	27121.42
446.839	27733.76
447.046	26810.13
447.252	28307.19
447.459	28444.41
447.665	28135.17
447.871	29320.94
448.078	30756.57
448.284	29181.68
448.491	29867.75
448.697	31203.02
448.903	31579.85
449.11	31866.56
449.316	31651.53
449.522	32116.42
449.728	32661.18
449.935	32880.31
450.141	32556.73
450.347	33531.56
450.553	32558.78
450.76	33060.53
450.966	33957.54
451.172	33930.92
451.378	34692.76
451.584	33951.4
451.791	34719.38
451.997	34594.46
452.203	35143.31
452.409	34977.43
452.615	35253.9
452.821	34068.13
453.027	33205.94
453.233	35141.27
453.44	33971.88
453.646	34025.12
453.852	34516.64
454.058	34834.07
454.264	33650.35
454.47	34463.39
454.676	33373.87
454.882	35014.29
455.088	31917.76
455.294	32259.77
455.5	32372.41
455.705	32779.96
455.911	31645.38
456.117	30981.84
456.323	30588.63
456.529	29370.09
456.735	30516.95
456.941	29572.84
457.147	29079.28
457.352	28372.73
457.558	28049.15
457.764	27858.69
457.97	27455.24
458.176	27090.7
458.381	26767.12
458.587	25540.39
458.793	25388.84
458.999	24307.51
459.204	25726.75
459.41	25546.53
459.616	23508.8
459.821	23543.62
460.027	23326.53
460.233	22929.23
460.438	22144.86
460.644	22130.52
460.85	21292.9
461.055	20463.47
461.261	20692.85
461.466	19443.59
461.672	18337.68
461.878	19982.2
462.083	18526.1
462.289	18286.48
462.494	18028.44
462.7	17356.71
462.905	16996.26
463.111	17598.37
463.316	17520.54
463.522	16906.15
463.727	17205.16
463.932	16990.12
464.138	16918.44
464.343	17098.66
464.549	16478.13
464.754	17012.65
464.959	16988.07
465.165	16576.43
465.37	15941.56
465.575	15544.25
465.781	16297.91
465.986	16381.87
466.191	15943.61
466.397	15622.08
466.602	14806.98
466.807	15353.79
467.012	15353.79
467.218	14925.77
467.423	14776.27
467.628	15017.93
467.833	15818.68
468.038	15026.12
468.244	14843.85
468.449	15476.67
468.654	14804.94
468.859	14716.87
469.064	14440.4
469.269	14108.63
469.474	14495.69
469.679	14616.52
469.885	14192.59
470.09	14274.51
470.295	13995.99
470.5	13721.56
470.705	13842.39
470.91	13420.51
471.115	13576.16
471.32	13541.34
471.525	13410.27
471.73	13348.83
471.935	12972
472.139	12957.67
472.344	12851.17
472.549	12941.29
472.754	12716.01
472.959	12269.55
473.164	12242.93
473.369	12144.63
473.574	12543.98
473.778	12095.47
473.983	11892.73
474.188	12083.19
474.393	11474.94
474.598	11634.68
474.802	11567.1
475.007	11364.35
475.212	11315.2
475.417	10917.89
475.621	11053.06
475.826	11161.6
476.031	10809.35
476.235	10502.15
476.44	10866.69
476.645	10627.08
476.849	10766.34
477.054	10459.15
477.259	10237.97
477.463	10276.88
477.668	9883.67
477.872	10151.95
478.077	9842.71
478.282	9807.89
478.486	9734.17
478.691	9633.82
478.895	9678.87
479.1	9596.95
479.304	9506.84
479.509	9265.18
479.713	9568.28
479.918	9048.1
480.122	9066.53
480.326	9353.24
480.531	9179.17
480.735	9091.1
480.94	9072.67
481.144	9562.14
481.348	8968.23
481.553	9017.38
481.757	8822.82
481.961	8886.31
482.166	9048.1
482.37	9107.49
482.574	8921.12
482.778	8902.69
482.983	9082.91
483.187	8847.4
483.391	9074.72
483.595	8687.65
483.8	8685.61
484.004	8808.48
484.208	8910.88
484.412	8697.89
484.616	8677.41
484.821	8921.12
485.025	8804.39
485.229	9011.23
485.433	8755.24
485.637	8847.4
485.841	8675.37
486.045	8661.03
486.249	8675.37
486.453	8765.48
486.657	8712.23
486.861	8951.84
487.065	8669.22
487.269	8839.2
487.473	8716.33
487.677	8706.09
487.881	9136.16
488.085	8802.34
488.289	8847.4
488.493	8615.98
488.697	8726.57
488.901	8947.75
489.105	8788
489.309	9101.34
489.512	8814.63
489.716	8970.27
489.92	9003.04
490.124	9013.28
490.328	8919.07
490.531	8851.49
490.735	9127.97
490.939	9211.93
491.143	8949.79
491.346	9031.71
491.55	9316.38
491.754	9140.26
491.958	9213.98
492.161	9213.98
492.365	9359.39
492.569	9332.76
492.772	9259.04
492.976	9281.57
493.18	9412.64
493.383	9336.86
493.587	9506.84
493.79	9613.34
493.994	9615.38
494.197	9574.42
494.401	9805.85
494.605	9672.73
494.808	9981.97
495.012	10010.64
495.215	10063.89
495.419	9971.73
495.622	9963.54
495.825	10307.6
496.029	10086.42
496.232	10496.01
496.436	10405.9
496.639	10829.83
496.843	10610.7
497.046	11010.05
497.249	10838.02
497.453	10876.93
497.656	11128.83
497.859	11059.2
498.063	11341.82
498.266	11462.65
498.469	11388.92
498.673	11460.6
498.876	11528.19
499.079	11845.62
499.282	11825.14
499.485	12107.76
499.689	12036.08
499.892	12138.48
500.095	12218.35
500.298	12636.14
500.501	12609.51
500.705	12789.74
500.908	12967.91
501.111	13027.3
501.314	13025.25
501.517	13369.31
501.72	13434.85
501.923	13316.06
502.126	13895.64
502.329	13864.92
502.532	14163.92
502.735	14094.29
502.938	14364.62
503.141	14452.69
503.344	14784.46
503.547	14768.07
503.75	14976.97
503.953	15329.22
504.156	15503.29
504.359	15327.17
504.562	15333.31
504.765	15808.44
504.968	15888.31
505.17	15886.26
505.373	16013.24
505.576	16541.61
505.779	16689.07
505.982	16658.35
506.185	16850.86
506.387	17086.37
506.59	17463.2
506.793	17373.09
506.996	17452.96
507.198	17829.79
507.401	17643.42
507.604	18040.73
507.807	18341.78
508.009	18452.37
508.212	18595.73
508.415	19044.23
508.617	18878.35
508.82	19023.75
509.022	18773.9
509.225	19582.85
509.428	19750.78
509.63	19783.55
509.833	19767.17
510.035	20461.43
510.238	20352.88
510.44	20584.3
510.643	21059.43
510.845	21073.77
511.048	20834.16
511.25	21530.47
511.453	21516.13
511.655	22155.1
511.858	21946.2
512.06	21675.87
512.262	22304.6
512.465	22312.79
512.667	22443.86
512.87	23000.91
513.072	22744.91
513.274	23381.83
513.477	23498.56
513.679	23639.87
513.881	23938.88
514.084	24475.45
514.286	24239.93
514.488	24313.66
514.69	25202.47
514.893	24944.43
515.095	24739.63
515.297	25296.68
515.499	25239.34
515.701	25675.55
515.904	26150.68
516.106	26197.79
516.308	26263.32
516.51	26584.85
516.712	26642.2
516.914	26842.9
517.116	27125.52
517.318	27481.86
517.52	27293.45
517.722	27770.63
517.925	28260.09
518.127	28356.35
518.329	28096.25
518.531	28468.98
518.733	28733.17
518.935	29361.9
519.136	28782.32
519.338	29415.15
519.54	29251.31
519.742	29923.04
519.944	30023.39
520.146	30549.72
520.348	30576.34
520.55	30809.81
520.752	30688.98
520.954	31360.72
521.155	30838.48
521.357	31762.12
521.559	31712.97
521.761	31895.24
521.963	31989.44
522.164	32161.47
522.366	32497.34
522.568	32480.96
522.77	32577.21
522.971	33019.57
523.173	32499.39
523.375	33506.99
523.576	32935.6
523.778	33294
523.98	33498.8
524.181	33867.43
524.383	33767.08
524.584	34234.02
524.786	34049.7
524.988	34033.32
525.189	34651.8
525.391	34358.94
525.592	34533.02
525.794	34766.49
525.995	35092.12
526.197	34739.86
526.398	35090.07
526.6	35292.82
526.801	34981.52
527.003	35520.14
527.204	35337.87
527.406	36009.61
527.607	35929.73
527.808	36226.69
528.01	35696.27
528.211	35866.25
528.412	36656.76
528.614	36281.99
528.815	36601.47
529.016	36904.57
529.218	36109.96
529.419	36867.7
529.62	36470.4
529.822	36476.54
530.023	36634.24
530.224	36884.09
530.425	36869.75
530.626	36619.9
530.828	36236.93
531.029	36791.93
531.23	37099.12
531.431	37041.78
531.632	37181.04
531.833	36740.73
532.035	37295.73
532.236	37006.97
532.437	37146.23
532.638	36884.09
532.839	37607.02
533.04	37318.26
533.241	36652.67
533.442	37643.88
533.643	37238.39
533.844	37023.35
534.045	37658.22
534.246	37068.41
534.447	37191.28
534.648	37088.88
534.849	37232.24
535.05	36892.28
535.251	37432.94
535.451	37146.23
535.652	37162.61
535.853	37408.37
536.054	37281.39
536.255	37346.93
536.456	36791.93
536.657	37543.53
536.857	37377.65
537.058	37174.9
537.259	37488.24
537.46	37600.88
537.66	37090.93
537.861	37277.3
538.062	37527.15
538.263	37400.18
538.463	37043.83
538.664	37054.07
538.865	37193.33
539.065	37248.63
539.266	36832.89
539.466	37555.82
539.667	36683.39
539.868	37387.89
540.068	37484.14
540.269	37234.29
540.469	37011.06
540.67	37088.88
540.87	37285.49
541.071	36994.68
541.271	37516.91
541.472	37281.39
541.672	37441.14
541.873	37152.37
542.073	36701.82
542.274	37398.13
542.474	37283.44
542.675	36816.5
542.875	37174.9
543.075	37181.04
543.276	36740.73
543.476	37232.24
543.676	37031.54
543.877	37191.28
544.077	36978.29
544.277	36847.22
544.478	36978.29
544.678	37158.52
544.878	37004.92
545.078	37516.91
545.279	37025.4
545.479	36800.12
545.679	36947.57
545.879	36707.96
546.079	36753.02
546.28	36529.79
546.48	36630.14
546.68	37041.78
546.88	36798.07
547.08	36765.31
547.28	36492.93
547.48	36398.72
547.68	36716.15
547.88	36370.05
548.081	36818.55
548.281	36474.49
548.481	36482.69
548.681	36699.77
548.881	36701.82
549.081	36560.51
549.28	36212.35
549.48	36892.28
549.68	36769.4
549.88	37246.58
550.08	36378.24
550.28	36564.6
550.48	36378.24
550.68	36863.61
550.88	36533.89
551.08	36726.39
551.279	36621.95
551.479	36046.47
551.679	36476.54
551.879	36499.07
552.079	36710.01
552.278	36081.28
552.478	36560.51
552.678	36724.35
552.878	36617.85
553.077	36249.22
553.277	36472.45
553.477	36714.11
553.676	36095.62
553.876	36423.29
554.076	36138.63
554.275	36173.44
554.475	35899.01
554.674	36232.83
554.874	36236.93
555.074	36202.11
555.273	36134.53
555.473	36155.01
555.672	35935.88
555.872	35878.54
556.071	35888.78
556.271	36204.16
556.47	35935.88
556.67	35798.66
556.869	35708.55
557.068	36042.37
557.268	35575.44
557.467	35718.79
557.667	35714.7
557.866	35655.31
558.065	35792.52
558.265	35722.89
558.464	35454.61
558.663	35862.15
558.863	35329.68
559.062	35688.07
559.261	35382.93
559.461	35606.16
559.66	35212.95
559.859	35401.36
560.058	35311.25
560.258	35264.14
560.457	35266.19
560.656	35419.79
560.855	35063.44
561.054	35491.47
561.253	35092.12
561.453	35292.82
561.652	35272.34
561.851	35258
562.05	35174.03
562.249	34784.92
562.448	35235.47
562.647	34887.32
562.846	34807.45
563.045	34918.04
563.244	34481.82
563.443	34844.31
563.642	34395.81
563.841	34803.35
564.04	34293.41
564.239	34942.61
564.438	34219.68
564.637	34678.43
564.836	34483.87
565.035	34176.67
565.234	34586.27
565.432	33924.77
565.631	33957.54
565.83	34442.91
566.029	34148
566.228	34358.94
566.427	33951.4
566.625	33877.67
566.824	33908.39
567.023	34076.32
567.222	33179.31
567.42	34119.33
567.619	33838.76
567.818	33595.05
568.016	33377.97
568.215	33935.01
568.414	33533.61
568.612	33603.24
568.811	33281.71
569.01	33414.83
569.208	33144.5
569.407	33588.91
569.605	32870.07
569.804	33183.41
570.002	32505.53
570.201	33040.05
570.4	32839.35
570.598	32820.92
570.797	32554.68
570.995	33027.76
571.193	32521.91
571.392	32577.21
571.59	32642.74
571.789	32558.78
571.987	32155.33
572.186	32427.71
572.384	32489.15
572.582	32515.77
572.781	32378.56
572.979	31979.2
573.177	31864.52
573.376	32349.89
573.574	32059.07
573.772	32126.66
573.971	31583.94
574.169	31778.5
574.367	31471.31
574.565	31708.87
574.763	31629
574.962	31522.51
575.16	31489.74
575.358	31497.93
575.556	31069.9
575.754	31579.85
575.952	31221.45
576.151	31446.73
576.349	31121.1
576.547	31065.81
576.745	30959.31
576.943	30963.41
577.141	30879.44
577.339	30820.05
577.537	30570.2
577.735	30820.05
577.933	30660.31
578.131	30621.4
578.329	30400.22
578.527	30228.19
578.725	29982.43
578.923	30097.12
579.121	30383.84
579.319	30121.7
579.516	30373.6
579.714	29818.6
579.912	30291.68
580.11	30035.68
580.308	30002.91
580.506	29658.85
580.704	29204.21
580.901	29693.67
581.099	29767.4
581.297	29892.32
581.495	29345.51
581.692	29374.19
581.89	29155.05
582.088	29730.53
582.285	29046.51
582.483	29630.18
582.681	29292.27
582.878	29234.92
583.076	28960.5
583.274	29079.28
583.471	28737.27
583.669	28720.88
583.866	28573.43
584.064	28788.47
584.262	28137.21
584.459	28761.84
584.657	28419.83
584.854	28315.39
585.052	28075.77
585.249	28237.56
585.447	28337.91
585.644	28092.16
585.841	27903.74
586.039	28065.53
586.236	27623.17
586.434	27766.53
586.631	27543.3
586.828	27854.59
587.026	27836.16
587.223	27496.2
587.42	27395.85
587.618	27522.82
587.815	27422.47
588.012	27141.9
588.21	27197.2
588.407	27571.97
588.604	27105.04
588.801	26631.96
588.999	27043.6
589.196	26750.74
589.393	26951.44
589.59	26814.23
589.787	26654.48
589.984	26674.96
590.182	26257.18
590.379	26498.84
590.576	26378.01
590.773	26185.5
590.97	26056.48
591.167	26074.91
591.364	26044.19
591.561	25960.22
591.758	25790.24
591.955	26017.57
592.152	25949.98
592.349	25437.99
592.546	25863.97
592.743	25816.86
592.94	25294.63
593.137	25569.06
593.334	25749.28
593.531	25272.11
593.727	25366.31
593.924	25407.27
594.121	25061.16
594.318	25347.88
594.515	24788.78
594.712	25077.55
594.908	24952.62
595.105	24962.86
595.302	24770.35
595.499	24850.22
595.696	24598.32
595.892	24518.45
596.089	24749.87
596.286	24264.5
596.482	24348.47
596.679	24377.14
596.876	24399.67
597.072	23881.53
597.269	24327.99
597.466	23904.06
597.662	23713.6
597.859	23998.27
598.055	23920.45
598.252	23629.63
598.448	23758.66
598.645	23813.95
598.841	23359.3
599.038	23670.59
599.234	23312.2
599.431	23093.07
599.627	22914.89
599.824	23336.77
600.02	23138.12
600.217	23129.93
600.413	22562.64
600.609	22660.94
600.806	22847.31
601.002	23080.78
601.198	22851.41
601.395	22611.79
601.591	22493.01
601.787	22742.86
601.984	22402.9
602.18	22675.28
602.376	22390.61
602.572	22280.02
602.769	22421.33
602.965	22097.75
603.161	22208.34
603.357	22101.85
603.553	22142.81
603.75	21933.92
603.946	21806.94
604.142	21784.41
604.338	21323.62
604.534	21825.37
604.73	21430.12
604.926	21256.04
605.122	21561.19
605.318	21428.07
605.514	21419.88
605.71	21081.96
605.906	21149.54
606.102	21495.65
606.298	21065.58
606.494	21065.58
606.69	21024.62
606.886	21057.39
607.082	20766.57
607.278	20934.51
607.474	20649.84
607.67	21129.06
607.866	20619.12
608.062	20942.7
608.257	20541.3
608.453	20750.19
608.649	20639.6
608.845	20623.22
609.041	20572.02
609.236	20336.5
609.432	20584.3
609.628	20422.52
609.824	20440.95
610.019	20168.57
610.215	20455.28
610.411	20301.68
610.606	20334.45
610.802	20158.33
610.998	19976.06
611.193	20293.49
611.389	19812.22
611.584	19947.39
611.78	20000.63
611.976	19928.95
612.171	19941.24
612.367	19924.86
612.562	19849.08
612.758	19681.15
612.953	19769.21
613.149	19783.55
613.344	19595.14
613.539	19738.49
613.735	19832.7
613.93	19609.47
614.126	19367.81
614.321	19797.88
614.517	19623.81
614.712	19570.56
614.907	19353.48
615.103	19691.39
615.298	19330.95
615.493	19457.92
615.688	19097.48
615.884	19586.94
616.079	19146.63
616.274	19224.45
616.47	19236.74
616.665	19382.15
616.86	19029.9
617.055	19011.46
617.25	19193.73
617.445	19173.25
617.641	18780.04
617.836	18956.17
618.031	18462.61
618.226	18943.88
618.421	18669.45
618.616	18919.31
618.811	18702.22
619.006	18771.85
619.201	18560.91
619.396	18435.99
619.591	18145.17
619.786	18417.55
619.981	18032.54
620.176	18345.87
620.371	17907.61
620.566	18071.45
620.761	17792.92
620.956	18022.3
621.151	17829.79
621.346	17778.59
621.541	17670.05
621.735	17553.31
621.93	17221.54
622.125	17325.99
622.32	17491.87
622.515	17405.86
622.709	17012.65
622.904	17047.46
623.099	16811.95
623.294	16928.68
623.488	16617.39
623.683	16836.52
623.878	16383.92
624.072	16736.17
624.267	16533.42
624.462	16578.48
624.656	16172.98
624.851	16101.3
625.046	16074.68
625.24	15976.37
625.435	15837.11
625.629	15957.94
625.824	15673.28
626.018	15898.55
626.213	15587.26
626.407	15464.38
626.602	15402.94
626.796	15318.98
626.991	15321.02
627.185	15083.46
627.38	15065.03
627.574	15067.08
627.768	14637
627.963	14827.46
628.157	14630.86
628.352	15036.36
628.546	14565.32
628.74	14663.63
628.935	14428.11
629.129	14626.76
629.323	14018.52
629.517	14227.41
629.712	13989.85
629.906	14409.68
630.1	13940.69
630.294	14092.24
630.489	13897.69
630.683	13907.93
630.877	13737.95
631.071	13631.45
631.265	13670.36
631.459	13512.67
631.653	13678.55
631.848	13256.67
632.042	13397.98
632.236	13328.35
632.43	13242.34
632.624	12963.81
632.818	12965.86
633.012	12838.89
633.206	13084.64
633.4	12912.61
633.594	12736.49
633.788	12576.75
633.982	12845.03
634.176	12578.79
634.369	12695.53
634.563	12593.13
634.757	12511.21
634.951	12503.02
635.145	12302.32
635.339	12179.44
635.533	12003.32
635.726	12118
635.92	11923.44
636.114	12089.33
636.308	11956.21
636.501	11902.97
636.695	12046.32
636.889	11757.56
637.083	11737.08
637.276	11712.5
637.47	11696.12
637.664	11632.63
637.857	11784.18
638.051	11415.55
638.244	11497.47
638.438	11343.87
638.632	11231.23
638.825	11034.63
639.019	11141.12
639.212	11020.29
639.406	11231.23
639.599	11046.91
639.793	11175.94
639.986	10684.42
640.18	10858.5
640.373	10639.37
640.567	10610.7
640.76	10668.04
640.954	10477.58
641.147	10436.62
641.34	10455.05
641.534	10448.91
641.727	10426.38
641.92	10225.68
642.114	10315.79
642.307	10520.59
642.5	10170.38
642.694	9975.83
642.887	9883.67
643.08	10147.86
643.273	10039.31
643.467	9811.99
643.66	10008.59
643.853	9676.82
644.046	9852.95
644.239	9842.71
644.432	9555.99
644.626	9869.33
644.819	9328.67
645.012	9539.61
645.205	9566.23
645.398	9576.47
645.591	9357.34
645.784	9416.73
645.977	9209.89
646.17	9297.95
646.363	9279.52
646.556	9017.38
646.749	9056.29
646.942	9031.71
647.135	8874.02
647.328	8984.61
647.521	8845.35
647.714	8589.35
647.907	8968.23
648.099	8955.94
648.292	8695.85
648.485	8665.13
648.678	8585.26
648.871	8650.79
649.064	8372.27
649.256	8593.45
649.449	8532.01
649.642	8427.56
649.835	8202.29
650.027	8364.08
650.22	8257.58
650.413	8353.84
650.605	8241.2
650.798	8190
650.991	8071.22
651.183	8120.37
651.376	8085.55
651.568	8009.78
651.761	7878.71
651.954	7948.34
652.146	7868.47
652.339	7749.68
652.531	7716.92
652.724	7647.29
652.916	7702.58
653.109	7508.02
653.301	7684.15
653.494	7919.67
653.686	7594.04
653.879	7645.24
654.071	7364.67
654.263	7479.35
654.456	7319.61
654.648	7405.63
654.84	7243.84
655.033	7329.85
655.225	7209.02
655.417	7067.71
655.61	7198.78
655.802	7186.49
655.994	7094.33
656.186	7098.43
656.379	6969.41
656.571	7014.46
656.763	7024.7
656.955	7024.7
657.148	6938.69
657.34	6840.39
657.532	6733.89
657.724	6621.25
657.916	6791.24
658.108	6680.64
658.3	6639.69
658.492	6836.29
658.684	6531.14
658.876	6551.62
659.068	6627.4
659.26	6469.7
659.452	6551.62
659.644	6703.17
659.836	6479.94
660.028	6514.76
660.22	6238.28
660.412	6211.66
660.604	6328.39
660.796	6119.5
660.988	6305.87
661.18	6115.41
661.372	6203.47
661.563	6121.55
661.755	5970
661.947	6144.08
662.139	6072.4
662.331	6131.79
662.522	6008.91
662.714	5863.51
662.906	5691.48
663.097	5914.7
663.289	5832.79
663.481	5970
663.673	5931.09
663.864	5812.31
664.056	5838.93
664.247	5584.98
664.439	5734.48
664.631	5711.96
664.822	5664.85
665.014	5576.79
665.205	5658.71
665.397	5480.54
665.588	5587.03
665.78	5576.79
665.971	5462.1
666.163	5345.37
666.354	5378.14
666.546	5527.64
666.737	5347.42
666.929	5406.81
667.12	5271.64
667.311	5306.46
667.503	5230.68
667.694	5154.91
667.885	5183.58
668.077	5199.96
668.268	5175.39
668.459	5296.22
668.651	5111.9
668.842	5138.52
669.033	5111.9
669.224	5068.89
669.416	5118.04
669.607	5034.08
669.798	4882.53
669.989	5105.76
670.18	5003.36
670.371	5097.56
670.563	4882.53
670.754	4929.63
670.945	4743.27
671.136	4892.77
671.327	4716.64
671.518	4794.47
671.709	4710.5
671.9	4794.47
672.091	5007.45
672.282	4825.19
672.473	4608.1
672.664	4737.12
672.855	4601.96
673.046	4659.3
673.237	4710.5
673.428	4642.92
673.619	4470.89
673.809	4726.88
674	4585.57
674.191	4669.54
674.382	4542.57
674.573	4499.56
674.764	4536.42
674.954	4550.76
675.145	4503.65
675.336	4509.8
675.527	4470.89
675.717	4395.11
675.908	4200.55
676.099	4403.3
676.289	4417.64
676.48	4186.22
676.671	4452.45
676.861	4214.89
677.052	4266.09
677.243	4243.56
677.433	4216.94
677.624	4130.92
677.814	4178.03
678.005	4280.43
678.195	4311.14
678.386	4315.24
678.576	4257.9
678.767	4175.98
678.957	4223.08
679.148	4175.98
679.338	4153.45
679.529	4077.68
679.719	4200.55
679.909	4159.6
680.1	4003.95
680.29	4067.44
680.481	4132.97
680.671	4114.54
680.861	4190.31
681.052	4073.58
681.242	4038.77
681.432	4014.19
681.622	4001.9
681.813	4036.72
682.003	3995.76
682.193	3928.17
682.383	3987.57
682.573	3926.13
682.764	3905.65
682.954	3827.82
683.144	3852.4
683.334	3747.95
683.524	3879.02
683.714	3825.78
683.904	3979.37
684.094	3856.5
684.284	3852.4
684.474	3766.39
684.664	3827.82
684.854	3842.16
685.044	3784.82
685.234	3784.82
685.424	3768.43
685.614	3713.14
685.804	3745.91
685.994	3760.24
686.184	3608.69
686.374	3700.85
686.564	3754.1
686.753	3766.39
686.943	3672.18
687.133	3784.82
687.323	3723.38
687.513	3590.26
687.702	3582.07
687.892	3575.92
688.082	3549.3
688.272	3627.12
688.461	3557.49
688.651	3494.01
688.841	3401.85
689.03	3504.25
689.22	3410.04
689.41	3440.76
689.599	3414.13
689.789	3358.84
689.979	3256.44
690.168	3438.71
690.358	3276.92
690.547	3326.07
690.737	3412.09
690.926	3256.44
691.116	3207.29
691.305	3494.01
691.495	3309.69
691.684	3240.06
691.874	3221.63
692.063	3229.82
692.252	3123.32
692.442	3176.57
692.631	2982.01
692.82	3139.71
693.01	3096.7
693.199	3127.42
693.388	3055.74
693.578	2887.81
693.767	3016.83
693.956	2838.66
694.146	2855.04
694.335	2877.57
694.524	2885.76
694.713	3029.12
694.902	3002.49
695.092	2893.95
695.281	2945.15
695.47	2990.21
695.659	2865.28
695.848	2816.13
696.037	2762.88
696.226	2734.21
696.415	2766.98
696.604	2861.18
696.793	2777.22
696.982	2775.17
697.171	2844.8
697.36	2807.94
697.549	2676.87
697.738	2562.18
697.927	2660.48
698.116	2701.44
698.305	2611.33
698.494	2709.63
698.683	2779.26
698.872	2572.42
699.061	2816.13
699.25	2603.14
699.438	2633.86
699.627	2535.56
699.816	2586.76
700.005	2656.39
700.193	2547.84
700.382	2664.58
700.571	2592.9
700.76	2578.56
700.948	2541.7
701.137	2572.42
701.326	2494.6
701.514	2504.84
701.703	2697.35
701.892	2392.2
702.08	2566.28
702.269	2502.79
702.457	2484.36
702.646	2424.97
702.834	2537.6
703.023	2537.6
703.212	2523.27
703.4	2427.01
703.589	2453.64
703.777	2396.29
703.965	2484.36
704.154	2427.01
704.342	2422.92
704.531	2508.93
704.719	2390.15
704.907	2381.96
705.096	2390.15
705.284	2549.89
705.472	2416.77
705.661	2449.54
705.849	2334.86
706.037	2404.49
706.226	2422.92
706.414	2408.58
706.602	2312.33
706.79	2406.53
706.979	2431.11
707.167	2439.3
707.355	2328.71
707.543	2486.4
707.731	2381.96
707.919	2341
708.107	2326.66
708.296	2254.98
708.484	2254.98
708.672	2424.97
708.86	2218.12
709.048	2353.29
709.236	2201.74
709.424	2271.37
709.612	2283.66
709.8	2347.14
709.988	2271.37
710.176	2297.99
710.364	2291.85
710.551	2279.56
710.739	2228.36
710.927	2261.13
711.115	2345.09
711.303	2306.18
711.491	2287.75
711.679	2359.43
711.866	2347.14
712.054	2345.09
712.242	2199.69
712.43	2353.29
712.617	2248.84
712.805	2166.92
712.993	2314.38
713.181	2248.84
713.368	2318.47
713.556	2252.94
713.744	2199.69
713.931	2297.99
714.119	2265.22
714.306	2254.98
714.494	2244.74
714.682	2224.26
714.869	2187.4
715.057	2232.46
715.244	2142.35
715.432	2377.86
715.619	2295.94
715.807	2267.27
715.994	2203.79
716.182	2238.6
716.369	2314.38
716.556	2142.35
716.744	2101.39
716.931	2246.79
717.119	2242.7
717.306	2257.03
717.493	2185.35
717.681	2263.18
717.868	2252.94
718.055	2259.08
718.242	2314.38
718.43	2201.74
718.617	2232.46
718.804	2293.9
718.991	2232.46
719.179	2189.45
719.366	2232.46
719.553	2250.89
719.74	2320.52
719.927	2273.42
720.114	2216.07
720.301	2209.93
720.488	2211.98
720.676	2265.22
720.863	2373.77
721.05	2338.95
721.237	2183.31
721.424	2191.5
721.611	2203.79
721.798	2254.98
721.985	2168.97
722.172	2244.74
722.358	2218.12
722.545	2248.84
722.732	2269.32
722.919	2287.75
723.106	2144.39
723.293	2320.52
723.48	2136.2
723.667	2287.75
723.853	2332.81
724.04	2261.13
724.227	2285.7
724.414	2242.7
724.6	2228.36
724.787	2152.59
724.974	2289.8
725.161	2246.79
725.347	2257.03
725.534	2205.83
725.72	2193.55
725.907	2224.26
726.094	2232.46
726.28	2232.46
726.467	2160.78
726.653	2254.98
726.84	2359.43
727.027	2306.18
727.213	2332.81
727.4	2271.37
727.586	2277.51
727.773	2224.26
727.959	2287.75
728.145	2271.37
728.332	2293.9
728.518	2187.4
728.705	2273.42
728.891	2242.7
729.077	2293.9
729.264	2341
729.45	2230.41
729.636	2232.46
729.823	2191.5
730.009	2341
730.195	2375.81
730.382	2336.9
730.568	2377.86
730.754	2263.18
730.94	2242.7
731.126	2250.89
731.313	2418.82
731.499	2377.86
731.685	2263.18
731.871	2353.29
732.057	2306.18
732.243	2349.19
732.429	2304.14
732.615	2390.15
732.801	2295.94
732.987	2300.04
733.173	2338.95
733.359	2259.08
733.545	2302.09
733.731	2341
733.917	2355.33
734.103	2107.53
734.289	2400.39
734.475	2351.24
734.661	2435.21
734.847	2365.57
735.033	2373.77
735.219	2412.68
735.404	2304.14
735.59	2318.47
735.776	2400.39
735.962	2384.01
736.148	2351.24
736.333	2310.28
736.519	2349.19
736.705	2306.18
736.89	2349.19
737.076	2345.09
737.262	2324.62
737.447	2220.17
737.633	2398.34
737.819	2297.99
738.004	2377.86
738.19	2416.77
738.375	2341
738.561	2363.53
738.747	2314.38
738.932	2367.62
739.118	2304.14
739.303	2318.47
739.489	2400.39
739.674	2328.71
739.859	2297.99
740.045	2297.99
740.23	2322.57
740.416	2367.62
740.601	2220.17
740.786	2240.65
740.972	2240.65
741.157	2261.13
741.342	2336.9
741.528	2316.42
741.713	2320.52
741.898	2271.37
742.084	2203.79
742.269	2183.31
742.454	2281.61
742.639	2297.99
742.824	2179.21
743.01	2330.76
743.195	2261.13
743.38	2384.01
743.565	2156.68
743.75	2263.18
743.935	2316.42
744.12	2283.66
744.305	2144.39
744.49	2205.83
744.675	2046.09
744.86	2209.93
745.045	2279.56
745.23	2173.07
745.415	2117.77
745.6	2107.53
745.785	2220.17
745.97	2195.59
746.155	2082.95
746.34	2031.76
746.525	2095.24
746.71	2152.59
746.895	2093.19
747.079	2037.9
747.264	2074.76
747.449	2080.91
747.634	2054.28
747.819	2050.19
748.003	2033.8
748.188	2009.23
748.373	2037.9
748.557	2013.32
748.742	1898.64
748.927	1972.36
749.111	1941.65
749.296	1941.65
749.481	1947.79
749.665	1853.58
749.85	1962.12
750.034	1947.79
750.219	2066.57
750.404	1906.83
750.588	1837.2
750.773	1847.44
750.957	1773.71
751.141	1923.21
751.326	1855.63
751.51	1837.2
751.695	1775.76
751.879	1861.77
752.064	1904.78
752.248	1652.88
752.432	1697.94
752.617	1798.29
752.801	1808.53
752.985	1779.86
753.17	1661.07
753.354	1742.99
753.538	1605.78
753.722	1656.98
753.907	1704.08
754.091	1665.17
754.275	1654.93
754.459	1620.11
754.643	1622.16
754.828	1632.4
755.012	1742.99
755.196	1595.54
755.38	1607.83
755.564	1613.97
755.748	1544.34
755.932	1566.87
756.116	1527.96
756.3	1542.29
756.484	1443.99
756.668	1443.99
756.852	1507.48
757.036	1443.99
757.22	1513.62
757.404	1513.62
757.588	1460.37
757.772	1435.8
757.956	1521.81
758.14	1337.49
758.323	1439.89
758.507	1349.78
758.691	1476.76
758.875	1382.55
759.059	1435.8
759.242	1321.11
759.426	1355.93
759.61	1429.65
759.794	1409.17
759.977	1439.89
760.161	1290.39
760.345	1368.21
760.528	1335.45
760.712	1333.4
760.895	1269.91
761.079	1343.64
761.263	1179.8
761.446	1173.66
761.63	1296.53
761.813	1304.73
761.997	1327.25
762.18	1292.44
762.364	1300.63
762.547	1190.04
762.731	1271.96
762.914	1167.51
763.098	1343.64
763.281	1185.94
763.464	1257.62
763.648	1251.48
763.831	1097.88
764.015	1194.14
764.198	1206.42
764.381	1288.34
764.564	1200.28
764.748	1206.42
764.931	1192.09
765.114	1212.57
765.297	1130.65
765.481	1124.51
765.664	1151.13
765.847	1226.9
766.03	1144.99
766.213	1128.6
766.397	1159.32
766.58	1032.35
766.763	1083.55
766.946	1097.88
767.129	1112.22
767.312	1140.89
767.495	1079.45
767.678	1124.51
767.861	1048.73
768.044	1067.16
768.227	1028.25
768.41	1020.06
768.593	1104.03
768.776	1058.97
768.959	1091.74
769.142	1058.97
769.324	1077.4
769.507	1067.16
769.69	1024.16
769.873	1058.97
770.056	1054.87
770.239	1032.35
770.421	1001.63
770.604	1052.83
770.787	934.04
770.97	1011.87
771.152	964.76
771.335	925.85
771.518	1018.01
771.7	1024.16
771.883	1075.35
772.066	882.85
772.248	995.48
772.431	956.57
772.613	964.76
772.796	929.95
772.978	989.34
773.161	966.81
773.343	954.52
773.526	880.8
773.708	823.45
773.891	833.69
774.073	809.12
774.256	788.64
774.438	893.09
774.621	852.13
774.803	956.57
774.985	860.32
775.168	882.85
775.35	825.5
775.532	778.4
775.715	843.93
775.897	874.65
776.079	850.08
776.261	790.69
776.444	686.24
776.626	776.35
776.808	796.83
776.99	825.5
777.173	837.79
777.355	776.35
777.537	690.34
777.719	733.34
777.901	788.64
778.083	733.34
778.265	735.39
778.447	735.39
778.629	714.91
778.811	739.49
778.993	759.97
779.175	723.1
779.357	733.34
779.539	585.89
779.721	612.51
779.903	708.77
780.085	696.48
780.267	710.82
780.449	706.72
780.631	594.08
780.812	786.59
780.994	735.39
781.176	659.62
781.358	555.17
781.54	618.66
781.721	604.32
781.903	573.6
782.085	624.8
782.267	678.05
782.448	637.09
782.63	641.18
782.812	669.86
782.993	555.17
783.175	598.18
783.357	524.45
783.538	561.31
783.72	579.75
783.901	624.8
784.083	589.99
784.264	635.04
784.446	575.65
784.627	647.33
784.809	561.31
784.99	516.26
785.172	565.41
785.353	530.59
785.535	477.35
785.716	567.46
785.897	481.44
786.079	506.02
786.26	516.26
786.441	430.24
786.623	579.75
786.804	526.5
786.985	485.54
787.167	538.79
787.348	522.4
787.529	510.11
787.71	518.31
787.891	528.55
788.073	391.33
788.254	409.76
788.435	503.97
788.616	561.31
788.797	469.16
788.978	471.2
789.159	399.52
789.34	497.83
789.522	407.72
789.703	448.68
789.884	415.91
790.065	391.33
790.246	460.96
790.427	497.83
790.607	448.68
790.788	342.18
790.969	381.09
791.15	401.57
791.331	436.39
791.512	465.06
791.693	383.14
791.874	399.52
792.054	436.39
792.235	440.48
792.416	370.85
792.597	370.85
792.778	399.52
792.958	397.48
793.139	432.29
793.32	448.68
793.5	358.57
793.681	397.48
793.862	387.24
794.042	397.48
794.223	321.7
794.404	346.28
794.584	354.47
794.765	395.43
794.945	342.18
795.126	364.71
795.306	356.52
795.487	401.57
795.667	399.52
795.848	348.33
796.028	424.1
796.209	317.61
796.389	317.61
796.57	370.85
796.75	344.23
796.93	360.61
797.111	323.75
797.291	319.65
797.471	346.28
797.652	305.32
797.832	319.65
798.012	340.13
798.192	303.27
798.373	348.33
798.553	243.88
798.733	360.61
798.913	264.36
799.093	297.13
799.274	254.12
799.454	274.6
799.634	295.08
799.814	284.84
799.994	305.32
800.174	303.27
800.354	346.28
800.534	258.21
800.714	303.27
800.894	235.69
801.074	223.4
801.254	264.36
801.434	225.45
801.614	250.02
801.794	293.03
801.974	676
802.154	284.84
802.334	333.99
802.514	239.78
802.693	348.33
802.873	164.01
803.053	288.93
803.233	331.94
803.413	170.15
803.592	309.41
803.772	286.89
803.952	164.01
804.131	260.26
804.311	202.92
804.491	243.88
804.67	196.78
804.85	215.21
805.03	237.74
805.209	270.5
805.389	221.35
805.568	200.87
805.748	250.02
805.928	233.64
806.107	247.97
806.287	256.17
806.466	284.84
806.646	202.92
806.825	184.49
807.004	250.02
807.184	231.59
807.363	305.32
807.543	213.16
807.722	190.63
807.901	194.73
808.081	297.13
808.26	170.15
808.439	157.86
808.619	215.21
808.798	186.54
808.977	194.73
809.156	168.1
809.336	168.1
809.515	229.54
809.694	155.82
809.873	202.92
810.052	235.69
810.231	176.3
810.411	207.02
810.59	274.6
810.769	145.58
810.948	86.19
811.127	180.39
811.306	250.02
811.485	202.92
811.664	190.63
811.843	266.41
812.022	166.06
812.201	170.15
812.38	192.68
812.559	159.91
812.737	184.49
812.916	178.34
813.095	147.62
813.274	204.97
813.453	180.39
813.632	237.74
813.811	161.96
813.989	141.48
814.168	190.63
814.347	241.83
814.526	170.15
814.704	129.19
814.883	161.96
815.062	92.33
815.24	202.92
815.419	67.75
815.598	235.69
815.776	194.73
815.955	278.69
816.133	127.14
816.312	231.59
816.49	100.52
816.669	164.01
816.847	178.34
817.026	118.95
817.204	202.92
817.383	168.1
817.561	213.16
817.74	182.44
817.918	155.82
818.097	129.19
818.275	204.97
818.453	194.73
818.632	118.95
818.81	153.77
818.988	155.82
819.167	151.72
819.345	77.99
819.523	143.53
819.701	67.75
819.879	98.47
820.058	118.95
820.236	147.62
820.414	110.76
820.592	84.14
820.77	106.67
820.948	125.1
821.127	143.53
821.305	151.72
821.483	188.58
821.661	235.69
821.839	141.48
822.017	127.14
822.195	151.72
822.373	147.62
822.551	155.82
822.729	149.67
822.907	121
823.085	170.15
823.262	153.77
823.44	69.8
823.618	198.82
823.796	71.85
823.974	116.9
824.152	75.95
824.329	127.14
824.507	129.19
824.685	135.34
824.863	121
825.04	196.78
825.218	129.19
825.396	104.62
825.574	135.34
825.751	143.53
825.929	112.81
826.107	98.47
826.284	65.71
826.462	94.38
826.639	63.66
826.817	92.33
826.994	123.05
827.172	98.47
827.349	121
827.527	114.86
827.704	96.43
827.882	178.34
828.059	90.28
828.237	118.95
828.414	137.38
828.591	57.51
828.769	147.62
828.946	145.58
829.124	121
829.301	168.1
829.478	41.13
829.655	121
829.833	100.52
830.01	47.27
830.187	92.33
830.364	118.95
830.542	123.05
830.719	75.95
830.896	108.71
831.073	118.95
831.25	100.52
831.427	59.56
831.604	118.95
831.782	18.6
831.959	155.82
832.136	69.8
832.313	59.56
832.49	131.24
832.667	159.91
832.844	51.37
833.021	131.24
833.198	26.79
833.374	112.81
833.551	168.1
833.728	86.19
833.905	139.43
834.082	39.08
834.259	147.62
834.436	-1.88
834.612	61.61
834.789	20.65
834.966	116.9
835.143	106.67
835.319	88.23
835.496	110.76
835.673	61.61
835.85	104.62
836.026	34.99
836.203	155.82
836.38	106.67
836.556	90.28
836.733	45.23
836.909	155.82
837.086	57.51
837.262	94.38
837.439	39.08
837.616	45.23
837.792	90.28
837.968	90.28
838.145	39.08
838.321	75.95
838.498	77.99
838.674	141.48
838.851	96.43
839.027	123.05
839.203	90.28
839.38	49.32
839.556	57.51
839.732	112.81
839.909	71.85
840.085	102.57
840.261	26.79
840.437	53.42
840.614	43.18
840.79	59.56
840.966	-16.21
841.142	88.23
841.318	51.37
841.494	45.23
841.671	104.62
841.847	69.8
842.023	51.37
842.199	84.14
842.375	110.76
842.551	73.9
842.727	34.99
842.903	84.14
843.079	59.56
843.255	143.53
843.431	67.75
843.607	20.65
843.783	65.71
843.959	86.19
844.134	53.42
844.31	102.57
844.486	51.37
844.662	49.32
844.838	96.43
845.013	80.04
845.189	26.79
845.365	67.75
845.541	82.09
845.716	24.75
845.892	71.85
846.068	88.23
846.244	133.29
846.419	45.23
846.595	-28.5
846.77	45.23
846.946	96.43
847.122	127.14
847.297	61.61
847.473	96.43
847.648	-28.5
847.824	77.99
847.999	57.51
848.175	94.38
848.35	30.89
848.526	121
848.701	63.66
848.876	82.09
849.052	39.08
849.227	65.71
849.403	24.75
849.578	41.13
849.753	43.18
849.929	65.71
850.104	43.18
850.279	43.18
850.454	88.23
850.63	37.03
850.805	65.71
850.98	47.27
851.155	57.51
851.33	45.23
851.505	61.61
851.681	84.14
851.856	-28.5
852.031	80.04
852.206	20.65
852.381	65.71
852.556	86.19
852.731	96.43
852.906	6.31
853.081	24.75
853.256	96.43
853.431	125.1
853.606	51.37
853.781	37.03
853.956	-10.07
854.131	10.41
854.305	43.18
854.48	104.62
854.655	12.46
854.83	10.41
855.005	53.42
855.18	49.32
855.354	-3.93
855.529	77.99
855.704	-12.12
855.879	65.71
856.053	45.23
856.228	12.46
856.403	-14.17
856.577	47.27
856.752	69.8
856.926	47.27
857.101	92.33
857.276	24.75
857.45	32.94
857.625	22.7
857.799	57.51
857.974	-5.97
858.148	37.03
858.323	84.14
858.497	49.32
858.672	22.7
858.846	10.41
859.02	80.04
859.195	22.7
859.369	39.08
859.543	51.37
859.718	104.62
859.892	65.71
860.066	10.41
860.241	69.8
860.415	-5.97
860.589	-5.97
860.763	-16.21
860.938	37.03
861.112	45.23
861.286	67.75
861.46	82.09
861.634	80.04
861.808	-8.02
861.982	69.8
862.157	-40.79
862.331	45.23
862.505	26.79
862.679	2.22
862.853	32.94
863.027	-20.31
863.201	39.08
863.375	92.33
863.549	135.34
863.722	71.85
863.896	90.28
864.07	77.99
864.244	6.31
864.418	39.08
864.592	59.56
864.766	43.18
864.939	57.51
865.113	49.32
865.287	51.37
865.461	41.13
865.634	20.65
865.808	26.79
865.982	-1.88
866.156	6.31
866.329	43.18
866.503	45.23
866.676	59.56
866.85	57.51
867.024	22.7
867.197	18.6
867.371	139.43
867.544	106.67
867.718	55.47
867.891	61.61
868.065	30.89
868.238	34.99
868.412	57.51
868.585	73.9
868.759	55.47
868.932	51.37
869.105	-3.93
869.279	-18.26
869.452	55.47
869.625	-1.88
869.799	69.8
869.972	2.22
870.145	34.99
870.319	-16.21
870.492	59.56
870.665	59.56
870.838	53.42
871.011	18.6
871.185	47.27
871.358	16.55
871.531	71.85
871.704	-48.98
871.877	-10.07
872.05	-28.5
872.223	-28.5
872.396	59.56
872.569	55.47
872.742	59.56
872.915	55.47
873.088	-1.88
873.261	-8.02
873.434	104.62
873.607	-22.36
873.78	0.17
873.953	-1.88
874.126	-3.93
874.299	12.46
874.471	8.36
874.644	43.18
874.817	20.65
874.99	77.99
875.163	16.55
875.335	28.84
875.508	49.32
875.681	61.61
875.853	-12.12
876.026	8.36
876.199	-12.12
876.371	24.75
876.544	55.47
876.717	-20.31
876.889	22.7
877.062	30.89
877.234	65.71
877.407	18.6
877.579	37.03
877.752	34.99
877.924	32.94
878.097	-38.74
878.269	28.84
878.442	28.84
878.614	0.17
878.786	10.41
878.959	24.75
879.131	-57.17
879.303	18.6
879.476	57.51
879.648	4.27
879.82	-3.93
879.993	-22.36
880.165	30.89
880.337	4.27
880.509	-18.26
880.681	24.75
880.854	-36.69
881.026	22.7
881.198	45.23
881.37	63.66
881.542	20.65
881.714	-24.4
881.886	8.36
882.058	43.18
882.23	65.71
882.402	2.22
882.574	51.37
882.746	14.51
882.918	43.18
883.09	22.7
883.262	14.51
883.434	41.13
883.606	-1.88
883.778	-18.26
883.95	34.99
884.122	10.41
884.293	125.1
884.465	2.22
884.637	6.31
884.809	49.32
884.98	53.42
885.152	59.56
885.324	57.51
885.496	-42.84
885.667	53.42
885.839	4.27
886.011	45.23
886.182	-46.93
886.354	71.85
886.525	-96.08
886.697	63.66
886.869	6.31
887.04	28.84
887.212	43.18
887.383	114.86
887.555	-14.17
887.726	10.41
887.897	-10.07
888.069	12.46
888.24	92.33
888.412	-20.31
888.583	-20.31
888.754	24.75
888.926	10.41
889.097	90.28
889.268	28.84
889.44	0.17
889.611	10.41
889.782	22.7
889.953	-18.26
890.125	10.41
890.296	2.22
890.467	-32.6
890.638	-53.08
890.809	-1.88
890.98	92.33
891.151	80.04
891.323	75.95
891.494	-1.88
891.665	34.99
891.836	45.23
892.007	4.27
892.178	-8.02
892.349	26.79
892.52	41.13
892.691	-42.84
892.862	-48.98
893.032	0.17
893.203	8.36
893.374	37.03
893.545	22.7
893.716	39.08
893.887	149.67
894.057	4.27
894.228	41.13
894.399	34.99
894.57	57.51
894.74	4.27
894.911	6.31
895.082	-42.84
895.253	6.31
895.423	8.36
895.594	37.03
895.764	65.71
895.935	-1.88
896.106	6.31
896.276	57.51
896.447	-18.26
896.617	34.99
896.788	34.99
896.958	32.94
897.129	22.7
897.299	30.89
897.47	47.27
897.64	-14.17
897.81	-14.17
897.981	-26.45
898.151	-38.74
898.322	26.79
898.492	-26.45
898.662	2.22
898.832	-69.46
899.003	71.85
899.173	43.18
899.343	32.94
899.513	16.55
