Data from USB4F104151__207__14-20-44-861.txt Node

Date: Thu Mar 13 14:20:44 EDT 2025
User: louis
Spectrometer: USB4F10415
Trigger mode: 4
Integration Time (sec): 2.000000E-2
Scans to average: 1
Electric dark correction enabled: true
Nonlinearity correction enabled: false
Boxcar width: 0
XAxis mode: Wavelengths
Number of Pixels in Spectrum: 3648
>>>>>Begin Spectral Data<<<<<
178.204	-84.14
178.424	-84.14
178.644	-84.14
178.864	-184.49
179.084	-164.01
179.304	-41.13
179.524	20.31
179.744	-34.99
179.964	8.02
180.184	-28.84
180.404	48.98
180.624	14.17
180.844	-32.94
181.064	-28.84
181.283	16.21
181.503	-2.22
181.723	61.27
181.943	-65.71
182.163	12.12
182.383	-2.22
182.602	71.51
182.822	34.64
183.042	-12.46
183.262	3.93
183.482	-67.75
183.701	-45.23
183.921	63.32
184.141	28.5
184.361	46.93
184.58	-4.27
184.8	32.6
185.02	-8.36
185.239	46.93
185.459	-12.46
185.679	73.56
185.898	-57.51
186.118	85.84
186.338	26.45
186.557	-20.65
186.777	5.97
186.997	-12.46
187.216	53.08
187.436	36.69
187.655	-24.75
187.875	-12.46
188.095	18.26
188.314	-4.27
188.534	75.6
188.753	36.69
188.973	48.98
189.192	69.46
189.412	73.56
189.631	-12.46
189.851	-32.94
190.07	48.98
190.29	20.31
190.509	28.5
190.729	28.5
190.948	104.28
191.168	126.8
191.387	87.89
191.607	40.79
191.826	32.6
192.045	28.5
192.265	12.12
192.484	1.88
192.704	61.27
192.923	-75.95
193.142	46.93
193.362	102.23
193.581	71.51
193.8	14.17
194.02	135
194.239	3.93
194.458	16.21
194.678	-28.84
194.897	61.27
195.116	5.97
195.335	85.84
195.555	-20.65
195.774	73.56
195.993	77.65
196.212	1.88
196.432	-12.46
196.651	-20.65
196.87	-75.95
197.089	53.08
197.308	65.36
197.528	-14.51
197.747	-18.6
197.966	-12.46
198.185	44.88
198.404	53.08
198.623	73.56
198.842	91.99
199.062	38.74
199.281	-8.36
199.5	-37.03
199.719	55.12
199.938	61.27
200.157	79.7
200.376	48.98
200.595	14.17
200.814	32.6
201.033	-24.75
201.252	75.6
201.471	30.55
201.69	-53.42
201.909	-6.31
202.128	69.46
202.347	18.26
202.566	-10.41
202.785	-8.36
203.004	-26.79
203.223	77.65
203.442	12.12
203.661	81.75
203.879	-37.03
204.098	71.51
204.317	3.93
204.536	55.12
204.755	-12.46
204.974	61.27
205.193	30.55
205.411	71.51
205.63	77.65
205.849	-6.31
206.068	40.79
206.287	24.4
206.505	18.26
206.724	-2.22
206.943	77.65
207.162	-20.65
207.381	-34.99
207.599	-22.7
207.818	5.97
208.037	32.6
208.255	-41.13
208.474	63.32
208.693	38.74
208.911	-12.46
209.13	20.31
209.349	46.93
209.567	38.74
209.786	81.75
210.005	28.5
210.223	28.5
210.442	-12.46
210.661	87.89
210.879	-28.84
211.098	-6.31
211.316	-82.09
211.535	-10.41
211.753	22.36
211.972	5.97
212.191	34.64
212.409	63.32
212.628	94.04
212.846	-63.66
213.065	46.93
213.283	94.04
213.502	22.36
213.72	5.97
213.938	40.79
214.157	46.93
214.375	14.17
214.594	81.75
214.812	-71.85
215.031	12.12
215.249	-61.61
215.467	32.6
215.686	-4.27
215.904	28.5
216.122	5.97
216.341	30.55
216.559	3.93
216.778	63.32
216.996	57.17
217.214	-0.17
217.432	-69.8
217.651	57.17
217.869	-34.99
218.087	-8.36
218.306	38.74
218.524	-6.31
218.742	40.79
218.96	61.27
219.179	12.12
219.397	24.4
219.615	81.75
219.833	20.31
220.051	-0.17
220.27	44.88
220.488	-8.36
220.706	46.93
220.924	3.93
221.142	8.02
221.36	36.69
221.578	36.69
221.796	-20.65
222.015	48.98
222.233	3.93
222.451	53.08
222.669	18.26
222.887	42.84
223.105	30.55
223.323	22.36
223.541	-8.36
223.759	-28.84
223.977	96.08
224.195	-0.17
224.413	-34.99
224.631	69.46
224.849	18.26
225.067	73.56
225.285	20.31
225.503	36.69
225.721	-43.18
225.939	26.45
226.157	26.45
226.375	110.42
226.592	-32.94
226.81	24.4
227.028	69.46
227.246	30.55
227.464	81.75
227.682	44.88
227.9	-26.79
228.117	-37.03
228.335	59.22
228.553	44.88
228.771	32.6
228.989	16.21
229.206	20.31
229.424	-12.46
229.642	8.02
229.86	20.31
230.077	65.36
230.295	-0.17
230.513	34.64
230.731	8.02
230.948	55.12
231.166	-12.46
231.384	-0.17
231.601	-45.23
231.819	94.04
232.037	28.5
232.254	12.12
232.472	-49.32
232.689	-88.23
232.907	36.69
233.125	18.26
233.342	71.51
233.56	32.6
233.777	110.42
233.995	-55.47
234.213	98.13
234.43	12.12
234.648	3.93
234.865	28.5
235.083	77.65
235.3	110.42
235.518	16.21
235.735	12.12
235.953	128.85
236.17	24.4
236.388	-4.27
236.605	-10.41
236.822	51.03
237.04	-22.7
237.257	24.4
237.475	38.74
237.692	61.27
237.909	94.04
238.127	40.79
238.344	8.02
238.562	-53.42
238.779	3.93
238.996	-28.84
239.214	36.69
239.431	67.41
239.648	-24.75
239.865	44.88
240.083	75.6
240.3	12.12
240.517	-10.41
240.735	12.12
240.952	114.52
241.169	44.88
241.386	-6.31
241.603	65.36
241.821	-4.27
242.038	-4.27
242.255	87.89
242.472	8.02
242.689	8.02
242.907	-20.65
243.124	26.45
243.341	-69.8
243.558	12.12
243.775	28.5
243.992	-45.23
244.209	20.31
244.426	53.08
244.643	-0.17
244.86	69.46
245.078	-59.56
245.295	-20.65
245.512	46.93
245.729	3.93
245.946	38.74
246.163	-20.65
246.38	61.27
246.597	32.6
246.814	51.03
247.031	40.79
247.248	102.23
247.464	53.08
247.681	40.79
247.898	61.27
248.115	30.55
248.332	5.97
248.549	77.65
248.766	94.04
248.983	69.46
249.2	53.08
249.417	65.36
249.633	14.17
249.85	73.56
250.067	87.89
250.284	44.88
250.501	44.88
250.717	28.5
250.934	-2.22
251.151	-0.17
251.368	98.13
251.585	46.93
251.801	-16.55
252.018	-26.79
252.235	-2.22
252.451	28.5
252.668	-24.75
252.885	73.56
253.102	110.42
253.318	12.12
253.535	61.27
253.752	36.69
253.968	28.5
254.185	-41.13
254.401	48.98
254.618	14.17
254.835	-61.61
255.051	22.36
255.268	-12.46
255.484	65.36
255.701	36.69
255.917	100.18
256.134	53.08
256.351	57.17
256.567	-28.84
256.784	57.17
257	-20.65
257.217	26.45
257.433	30.55
257.65	36.69
257.866	79.7
258.082	32.6
258.299	22.36
258.515	-26.79
258.732	-20.65
258.948	-4.27
259.165	147.28
259.381	3.93
259.597	71.51
259.814	73.56
260.03	67.41
260.246	36.69
260.463	53.08
260.679	-12.46
260.895	-47.27
261.112	44.88
261.328	-8.36
261.544	36.69
261.761	120.66
261.977	53.08
262.193	-20.65
262.409	61.27
262.626	145.24
262.842	61.27
263.058	87.89
263.274	10.07
263.49	36.69
263.707	-0.17
263.923	14.17
264.139	36.69
264.355	24.4
264.571	69.46
264.787	18.26
265.004	1.88
265.22	-77.99
265.436	-24.75
265.652	-18.6
265.868	61.27
266.084	-37.03
266.3	36.69
266.516	-22.7
266.732	26.45
266.948	-37.03
267.164	14.17
267.38	24.4
267.596	14.17
267.812	69.46
268.028	81.75
268.244	38.74
268.46	-6.31
268.676	36.69
268.892	53.08
269.108	-18.6
269.324	-20.65
269.54	59.22
269.756	71.51
269.972	28.5
270.188	3.93
270.403	-4.27
270.619	75.6
270.835	55.12
271.051	38.74
271.267	-8.36
271.483	-4.27
271.698	42.84
271.914	-0.17
272.13	65.36
272.346	20.31
272.562	44.88
272.777	36.69
272.993	32.6
273.209	44.88
273.425	36.69
273.64	34.64
273.856	75.6
274.072	32.6
274.287	53.08
274.503	75.6
274.719	110.42
274.934	30.55
275.15	-16.55
275.366	34.64
275.581	-59.56
275.797	46.93
276.012	-4.27
276.228	3.93
276.444	22.36
276.659	100.18
276.875	61.27
277.09	-4.27
277.306	-2.22
277.521	77.65
277.737	18.26
277.952	89.94
278.168	-20.65
278.383	77.65
278.599	96.08
278.814	55.12
279.03	3.93
279.245	46.93
279.461	-20.65
279.676	46.93
279.892	-4.27
280.107	-37.03
280.322	81.75
280.538	28.5
280.753	-55.47
280.969	94.04
281.184	28.5
281.399	28.5
281.615	-4.27
281.83	69.46
282.045	20.31
282.26	12.12
282.476	55.12
282.691	102.23
282.906	16.21
283.122	75.6
283.337	-8.36
283.552	14.17
283.767	55.12
283.983	61.27
284.198	16.21
284.413	46.93
284.628	-2.22
284.843	16.21
285.058	18.26
285.274	18.26
285.489	-37.03
285.704	5.97
285.919	26.45
286.134	36.69
286.349	48.98
286.564	48.98
286.779	20.31
286.995	55.12
287.21	77.65
287.425	14.17
287.64	-65.71
287.855	44.88
288.07	-39.08
288.285	79.7
288.5	8.02
288.715	34.64
288.93	-12.46
289.145	-30.89
289.36	8.02
289.575	85.84
289.79	40.79
290.004	20.31
290.219	69.46
290.434	-37.03
290.649	24.4
290.864	28.5
291.079	69.46
291.294	28.5
291.509	10.07
291.724	85.84
291.938	65.36
292.153	85.84
292.368	-53.42
292.583	36.69
292.798	32.6
293.012	73.56
293.227	26.45
293.442	65.36
293.657	5.97
293.871	44.88
294.086	16.21
294.301	5.97
294.516	102.23
294.73	96.08
294.945	5.97
295.16	24.4
295.374	20.31
295.589	40.79
295.804	-6.31
296.018	42.84
296.233	48.98
296.447	48.98
296.662	94.04
296.877	57.17
297.091	-49.32
297.306	38.74
297.52	-75.95
297.735	30.55
297.949	51.03
298.164	57.17
298.378	46.93
298.593	3.93
298.807	-34.99
299.022	-12.46
299.236	110.42
299.451	24.4
299.665	118.61
299.88	175.95
300.094	48.98
300.309	61.27
300.523	44.88
300.737	12.12
300.952	46.93
301.166	-24.75
301.381	53.08
301.595	48.98
301.809	71.51
302.024	81.75
302.238	57.17
302.452	55.12
302.667	38.74
302.881	53.08
303.095	112.47
303.309	102.23
303.524	14.17
303.738	61.27
303.952	-18.6
304.166	98.13
304.381	-37.03
304.595	89.94
304.809	77.65
305.023	-4.27
305.237	5.97
305.452	-2.22
305.666	79.7
305.88	65.36
306.094	83.8
306.308	48.98
306.522	100.18
306.736	-8.36
306.95	-2.22
307.164	38.74
307.379	-24.75
307.593	73.56
307.807	61.27
308.021	20.31
308.235	77.65
308.449	36.69
308.663	3.93
308.877	126.8
309.091	67.41
309.305	77.65
309.519	53.08
309.733	120.66
309.947	53.08
310.161	46.93
310.374	69.46
310.588	44.88
310.802	-2.22
311.016	3.93
311.23	5.97
311.444	-41.13
311.658	57.17
311.872	106.32
312.085	63.32
312.299	77.65
312.513	44.88
312.727	53.08
312.941	44.88
313.154	65.36
313.368	3.93
313.582	16.21
313.796	16.21
314.009	20.31
314.223	85.84
314.437	30.55
314.651	77.65
314.864	55.12
315.078	61.27
315.292	38.74
315.505	36.69
315.719	71.51
315.933	28.5
316.146	12.12
316.36	-37.03
316.573	77.65
316.787	-8.36
317.001	24.4
317.214	24.4
317.428	36.69
317.641	20.31
317.855	-75.95
318.068	28.5
318.282	57.17
318.495	110.42
318.709	30.55
318.922	40.79
319.136	24.4
319.349	12.12
319.563	-16.55
319.776	94.04
319.99	38.74
320.203	61.27
320.417	16.21
320.63	69.46
320.843	40.79
321.057	51.03
321.27	63.32
321.483	-8.36
321.697	89.94
321.91	44.88
322.124	77.65
322.337	77.65
322.55	69.46
322.763	30.55
322.977	69.46
323.19	-2.22
323.403	30.55
323.617	36.69
323.83	102.23
324.043	10.07
324.256	12.12
324.469	18.26
324.683	38.74
324.896	16.21
325.109	57.17
325.322	-8.36
325.535	42.84
325.748	122.71
325.962	-2.22
326.175	-10.41
326.388	110.42
326.601	44.88
326.814	73.56
327.027	69.46
327.24	59.22
327.453	20.31
327.666	61.27
327.879	61.27
328.092	38.74
328.305	5.97
328.518	22.36
328.731	-6.31
328.944	-18.6
329.157	38.74
329.37	57.17
329.583	94.04
329.796	122.71
330.009	48.98
330.222	18.26
330.435	8.02
330.648	1.88
330.861	51.03
331.073	42.84
331.286	57.17
331.499	53.08
331.712	-24.75
331.925	42.84
332.138	110.42
332.35	61.27
332.563	48.98
332.776	53.08
332.989	3.93
333.202	12.12
333.414	-12.46
333.627	83.8
333.84	16.21
334.053	-4.27
334.265	22.36
334.478	42.84
334.691	44.88
334.903	59.22
335.116	-49.32
335.329	65.36
335.541	32.6
335.754	75.6
335.966	100.18
336.179	55.12
336.392	8.02
336.604	63.32
336.817	-18.6
337.029	98.13
337.242	28.5
337.454	98.13
337.667	81.75
337.88	128.85
338.092	32.6
338.305	44.88
338.517	12.12
338.729	89.94
338.942	69.46
339.154	102.23
339.367	-20.65
339.579	-16.55
339.792	3.93
340.004	28.5
340.217	3.93
340.429	46.93
340.641	36.69
340.854	3.93
341.066	65.36
341.278	48.98
341.491	12.12
341.703	22.36
341.915	12.12
342.128	24.4
342.34	44.88
342.552	65.36
342.764	51.03
342.977	-4.27
343.189	89.94
343.401	126.8
343.613	38.74
343.826	46.93
344.038	-8.36
344.25	28.5
344.462	57.17
344.674	40.79
344.886	38.74
345.099	61.27
345.311	18.26
345.523	36.69
345.735	12.12
345.947	79.7
346.159	38.74
346.371	79.7
346.583	3.93
346.795	85.84
347.007	36.69
347.219	61.27
347.431	12.12
347.643	53.08
347.855	61.27
348.067	81.75
348.279	20.31
348.491	61.27
348.703	59.22
348.915	57.17
349.127	36.69
349.339	73.56
349.551	71.51
349.763	38.74
349.975	22.36
350.187	30.55
350.399	110.42
350.61	40.79
350.822	42.84
351.034	61.27
351.246	30.55
351.458	14.17
351.669	59.22
351.881	112.47
352.093	100.18
352.305	8.02
352.517	104.28
352.728	53.08
352.94	20.31
353.152	130.9
353.363	-10.41
353.575	71.51
353.787	63.32
353.999	71.51
354.21	77.65
354.422	63.32
354.633	-34.99
354.845	79.7
355.057	98.13
355.268	91.99
355.48	55.12
355.692	32.6
355.903	61.27
356.115	-4.27
356.326	85.84
356.538	57.17
356.749	42.84
356.961	46.93
357.172	-30.89
357.384	63.32
357.595	53.08
357.807	53.08
358.018	3.93
358.23	46.93
358.441	89.94
358.653	79.7
358.864	55.12
359.075	20.31
359.287	63.32
359.498	57.17
359.709	18.26
359.921	77.65
360.132	-59.56
360.344	63.32
360.555	36.69
360.766	14.17
360.977	59.22
361.189	-32.94
361.4	26.45
361.611	44.88
361.823	63.32
362.034	94.04
362.245	-53.42
362.456	94.04
362.667	61.27
362.879	38.74
363.09	116.56
363.301	57.17
363.512	102.23
363.723	139.09
363.935	44.88
364.146	77.65
364.357	14.17
364.568	-12.46
364.779	32.6
364.99	79.7
365.201	28.5
365.412	106.32
365.623	-20.65
365.834	30.55
366.045	36.69
366.256	53.08
366.467	12.12
366.678	-16.55
366.889	36.69
367.1	36.69
367.311	-8.36
367.522	53.08
367.733	94.04
367.944	65.36
368.155	94.04
368.366	100.18
368.577	149.33
368.788	55.12
368.999	-6.31
369.209	30.55
369.42	46.93
369.631	46.93
369.842	-45.23
370.053	53.08
370.264	91.99
370.474	71.51
370.685	81.75
370.896	-20.65
371.107	81.75
371.317	96.08
371.528	3.93
371.739	65.36
371.95	104.28
372.16	-8.36
372.371	1.88
372.582	12.12
372.792	77.65
373.003	61.27
373.214	110.42
373.424	83.8
373.635	55.12
373.846	67.41
374.056	-18.6
374.267	16.21
374.477	-2.22
374.688	34.64
374.898	40.79
375.109	36.69
375.319	-28.84
375.53	71.51
375.74	28.5
375.951	73.56
376.161	26.45
376.372	106.32
376.582	16.21
376.793	71.51
377.003	40.79
377.214	36.69
377.424	73.56
377.635	-37.03
377.845	-12.46
378.055	126.8
378.266	-8.36
378.476	94.04
378.686	61.27
378.897	139.09
379.107	16.21
379.317	81.75
379.528	3.93
379.738	87.89
379.948	-12.46
380.158	61.27
380.369	81.75
380.579	114.52
380.789	18.26
380.999	14.17
381.21	73.56
381.42	171.86
381.63	67.41
381.84	30.55
382.05	22.36
382.261	46.93
382.471	44.88
382.681	69.46
382.891	98.13
383.101	192.34
383.311	67.41
383.521	69.46
383.731	46.93
383.941	94.04
384.151	77.65
384.361	3.93
384.571	110.42
384.781	114.52
384.991	63.32
385.201	135
385.411	53.08
385.621	51.03
385.831	3.93
386.041	-24.75
386.251	42.84
386.461	151.38
386.671	3.93
386.881	18.26
387.091	-4.27
387.301	28.5
387.511	46.93
387.72	69.46
387.93	61.27
388.14	-28.84
388.35	48.98
388.56	137.04
388.769	38.74
388.979	155.47
389.189	-4.27
389.399	135
389.609	30.55
389.818	26.45
390.028	16.21
390.238	48.98
390.447	53.08
390.657	163.67
390.867	61.27
391.076	57.17
391.286	98.13
391.496	81.75
391.705	71.51
391.915	53.08
392.125	94.04
392.334	32.6
392.544	81.75
392.753	-14.51
392.963	57.17
393.172	75.6
393.382	69.46
393.591	53.08
393.801	12.12
394.01	53.08
394.22	75.6
394.429	118.61
394.639	73.56
394.848	65.36
395.058	120.66
395.267	77.65
395.477	40.79
395.686	69.46
395.895	194.39
396.105	159.57
396.314	36.69
396.524	112.47
396.733	20.31
396.942	122.71
397.152	116.56
397.361	71.51
397.57	67.41
397.78	48.98
397.989	102.23
398.198	173.91
398.407	53.08
398.617	108.37
398.826	141.14
399.035	108.37
399.244	151.38
399.453	110.42
399.663	151.38
399.872	77.65
400.081	104.28
400.29	163.67
400.499	69.46
400.708	202.58
400.917	59.22
401.127	44.88
401.336	79.7
401.545	218.96
401.754	182.1
401.963	118.61
402.172	114.52
402.381	137.04
402.59	135
402.799	225.11
403.008	161.62
403.217	184.15
403.426	202.58
403.635	102.23
403.844	180.05
404.053	204.63
404.262	175.95
404.471	235.35
404.68	221.01
404.888	163.67
405.097	59.22
405.306	196.43
405.515	255.83
405.724	169.81
405.933	239.44
406.142	196.43
406.35	237.39
406.559	204.63
406.768	178
406.977	290.64
407.185	241.49
407.394	296.78
407.603	286.54
407.812	245.59
408.02	282.45
408.229	290.64
408.438	223.06
408.646	315.22
408.855	298.83
409.064	315.22
409.272	290.64
409.481	397.14
409.69	368.46
409.898	253.78
410.107	366.42
410.315	411.47
410.524	399.18
410.733	454.48
410.941	460.62
411.15	479.05
411.358	454.48
411.567	487.25
411.775	483.15
411.984	534.35
412.192	565.07
412.401	610.12
412.609	606.03
412.818	642.89
413.026	577.36
413.234	606.03
413.443	528.21
413.651	646.99
413.86	728.91
414.068	739.15
414.276	823.11
414.485	704.33
414.693	888.65
414.901	814.92
415.11	917.32
415.318	857.93
415.526	896.84
415.734	1005.38
415.943	1036.1
416.151	978.76
416.359	980.81
416.567	1105.73
416.776	1118.02
416.984	1191.75
417.192	1290.05
417.4	1146.69
417.608	1290.05
417.817	1394.5
418.025	1349.44
418.233	1464.13
418.441	1449.79
418.649	1341.25
418.857	1535.81
419.065	1677.12
419.273	1593.15
419.481	1595.2
419.689	1799.99
419.897	1849.15
420.105	1914.68
420.313	2035.51
420.521	1976.12
420.729	2156.34
420.937	2162.48
421.145	2215.73
421.353	2299.7
421.561	2340.66
421.769	2395.95
421.977	2547.5
422.185	2576.17
422.393	2705.2
422.601	2901.8
422.809	2875.18
423.017	2930.47
423.224	2998.06
423.432	3075.88
423.64	3088.17
423.848	3272.48
424.056	3362.59
424.263	3542.82
424.471	3514.14
424.679	3610.4
424.887	3895.07
425.094	3915.55
425.302	3895.07
425.51	4024.09
425.718	4321.04
425.925	4300.56
426.133	4562.7
426.341	4673.29
426.548	4947.72
426.756	4798.22
426.964	4771.6
427.171	5095.18
427.379	5418.75
427.586	5512.96
427.794	5670.65
428.001	6029.05
428.209	6188.79
428.417	5920.51
428.624	6545.14
428.832	6567.67
429.039	6328.05
429.247	6598.38
429.454	7003.88
429.662	7640.8
429.869	6991.59
430.076	7460.58
430.284	7479.01
430.491	7657.18
430.699	8173.27
430.906	8001.24
431.114	8099.55
431.321	8531.67
431.528	8589.01
431.736	9107.15
431.943	9447.11
432.15	9246.41
432.358	9668.29
432.565	9930.43
432.772	10012.35
432.979	10520.24
433.187	10682.03
433.394	10671.79
433.601	11425.45
433.808	11390.63
434.016	11230.89
434.223	11636.39
434.43	12279.45
434.637	12209.82
434.844	12869.26
435.052	13129.36
435.259	12926.61
435.466	13110.93
435.673	13151.88
435.88	14147.2
436.087	14581.37
436.294	14663.29
436.501	14087.81
436.708	14802.55
436.915	15066.74
437.122	15724.13
437.329	15920.74
437.537	16117.34
437.743	16465.5
437.95	16629.34
438.157	17151.57
438.364	17512.01
438.571	17718.85
438.778	17628.74
438.985	19613.23
439.192	18718.26
439.399	19271.22
439.606	18908.72
439.813	20043.3
440.02	21190.16
440.227	20540.96
440.433	20536.86
440.64	21378.58
440.847	21036.56
441.054	21704.2
441.261	22982.13
441.467	22748.67
441.674	23127.54
441.881	24006.12
442.088	24014.31
442.294	23588.33
442.501	24249.83
442.708	24798.68
442.914	25890.25
443.121	26934.71
443.328	26084.81
443.534	27895.21
443.741	27233.72
443.948	26930.62
444.154	28761.5
444.361	28540.32
444.568	28632.48
444.774	28779.93
444.981	28994.97
445.187	29756.82
445.394	31393.14
445.6	30967.16
445.807	33334.62
446.013	31794.54
446.22	32509.29
446.426	34061.65
446.633	34616.65
446.839	35525.94
447.046	34162
447.252	35849.52
447.459	35607.86
447.665	36138.29
447.871	37289.24
448.078	38667.53
448.284	37387.55
448.491	38036.75
448.697	39697.66
448.903	40109.3
449.11	40086.77
449.316	39247.1
449.522	40451.31
449.728	41579.74
449.935	41667.8
450.141	41444.57
450.347	42542.28
450.553	41174.24
450.76	41864.41
450.966	42935.49
451.172	42495.18
451.378	43697.34
451.584	42501.32
451.791	43701.43
451.997	43433.15
452.203	44434.61
452.409	43916.47
452.615	44270.77
452.821	42511.56
453.027	42147.03
453.233	44455.09
453.44	42640.59
453.646	43363.52
453.852	43502.78
454.058	43668.67
454.264	42962.12
454.47	43644.09
454.676	42370.25
454.882	43883.7
455.088	40008.95
455.294	40719.59
455.5	41565.4
455.705	41952.47
455.911	40092.91
456.117	39359.74
456.323	39154.94
456.529	36930.85
456.735	38239.5
456.941	37371.16
457.147	36531.5
457.352	35790.13
457.558	35906.87
457.764	35464.5
457.97	34862.4
458.176	34248.01
458.381	34086.22
458.587	32617.83
458.793	32396.65
458.999	30952.83
459.204	32935.26
459.41	32056.68
459.616	30170.5
459.821	29963.66
460.027	29797.77
460.233	29289.88
460.438	27907.5
460.644	28310.95
460.85	27108.79
461.055	26703.29
461.261	26590.66
461.466	24544.73
461.672	23809.51
461.878	25538
462.083	24079.85
462.289	23129.59
462.494	23268.85
462.7	22040.07
462.905	21503.5
463.111	22224.39
463.316	22349.31
463.522	21839.37
463.727	21988.87
463.932	21597.71
464.138	21550.6
464.343	21499.41
464.549	21061.14
464.754	21947.91
464.959	21483.02
465.165	21241.36
465.37	20518.43
465.575	20135.46
465.781	20878.87
465.986	21059.09
466.191	20184.61
466.397	19879.46
466.602	18941.49
466.807	19353.13
467.012	19713.58
467.218	19537.45
467.423	19088.95
467.628	19093.04
467.833	19965.48
468.038	19353.13
468.244	18820.66
468.449	19539.5
468.654	18599.48
468.859	18665.02
469.064	18490.94
469.269	18013.76
469.474	18140.74
469.679	18425.4
469.885	17831.49
470.09	18181.7
470.295	18001.47
470.5	17665.61
470.705	17690.18
470.91	17155.66
471.115	17030.74
471.32	17174.1
471.525	17096.27
471.73	16725.59
471.935	16637.53
472.139	16272.99
472.344	16402.01
472.549	16363.1
472.754	16129.63
472.959	15830.63
473.164	15459.95
473.369	15312.49
473.574	15904.35
473.778	15621.73
473.983	15375.98
474.188	15177.33
474.393	14921.33
474.598	14751.35
474.802	14728.82
475.007	14581.37
475.212	14642.81
475.417	14016.13
475.621	14165.63
475.826	13987.46
476.031	13733.51
476.235	13672.07
476.44	13760.13
476.645	13622.92
476.849	13514.38
477.054	13459.08
477.259	13143.69
477.463	13039.25
477.668	12918.42
477.872	12875.41
478.077	12850.83
478.282	12369.56
478.486	12512.92
478.691	12304.03
478.895	12035.74
479.1	12084.89
479.304	12138.14
479.509	11843.23
479.713	12002.97
479.918	11849.38
480.122	11620
480.326	11773.6
480.531	11781.79
480.735	11685.54
480.94	11587.24
481.144	11884.19
481.348	11349.67
481.553	11230.89
481.757	11212.46
481.961	11521.7
482.166	11478.69
482.37	11493.03
482.574	11140.78
482.778	11214.51
482.983	11439.78
483.187	11357.86
483.391	11318.95
483.595	11077.29
483.8	11261.61
484.004	11189.93
484.208	11298.47
484.412	11198.12
484.616	11232.94
484.821	11234.99
485.025	11081.39
485.229	11450.02
485.433	11228.84
485.637	11249.32
485.841	10917.55
486.045	11069.1
486.249	11245.23
486.453	11048.62
486.657	11120.3
486.861	11308.71
487.065	11013.81
487.269	11234.99
487.473	11087.53
487.677	11167.4
487.881	11228.84
488.085	11114.16
488.289	11312.81
488.493	11062.96
488.697	11312.81
488.901	11161.26
489.105	11364.01
489.309	11335.34
489.512	11398.82
489.716	11323.05
489.92	11222.7
490.124	11288.23
490.328	11456.17
490.531	11300.52
490.735	11525.8
490.939	11486.89
491.143	11431.59
491.346	11341.48
491.55	11622.05
491.754	11701.92
491.958	11757.22
492.161	11593.38
492.365	11708.07
492.569	11656.87
492.772	11802.27
492.976	12101.28
493.18	11947.68
493.383	12250.78
493.587	12273.31
493.79	12304.03
493.994	12041.89
494.197	12195.48
494.401	12361.37
494.605	12166.81
494.808	12471.96
495.012	12727.96
495.215	12588.69
495.419	12754.58
495.622	12709.52
495.825	12920.46
496.029	12875.41
496.232	13242
496.436	13112.97
496.639	13356.68
496.843	13389.45
497.046	13524.61
497.249	13782.66
497.453	13919.87
497.656	14067.33
497.859	13958.78
498.063	14188.16
498.266	14351.99
498.469	14413.43
498.673	14292.6
498.876	14659.19
499.079	14802.55
499.282	14872.18
499.485	15027.82
499.689	15246.96
499.892	15619.69
500.095	15418.99
500.298	15943.27
500.501	15732.33
500.705	16395.87
500.908	16373.34
501.111	16676.44
501.314	16696.92
501.517	16832.08
501.72	16969.3
501.923	16713.3
502.126	17397.32
502.329	17503.82
502.532	17446.48
502.735	17415.76
502.938	17991.23
503.141	18124.35
503.344	18511.42
503.547	18591.29
503.75	18865.72
503.953	18781.75
504.156	19297.84
504.359	19189.3
504.562	19443.24
504.765	19873.32
504.968	19957.28
505.17	20395.55
505.373	20211.23
505.576	20538.91
505.779	20622.87
505.982	21061.14
506.185	21335.57
506.387	21423.63
506.59	21530.12
506.793	22070.79
506.996	21888.52
507.198	22638.08
507.401	22187.52
507.604	22570.49
507.807	23133.68
508.009	23311.86
508.212	23342.58
508.415	23977.45
508.617	23985.64
508.82	24141.28
509.022	23899.62
509.225	25034.2
509.428	24790.49
509.63	24899.03
509.833	25578.96
510.035	25845.19
510.238	25634.25
510.44	25888.2
510.643	26373.57
510.845	26400.19
511.048	26396.1
511.25	26678.72
511.453	26940.86
511.655	27841.96
511.858	27483.57
512.06	28050.86
512.262	28190.12
512.465	28177.83
512.667	28669.34
512.87	29201.82
513.072	28808.61
513.274	29316.5
513.477	29662.61
513.679	30012.81
513.881	30334.34
514.084	30135.69
514.286	30627.2
514.488	30354.82
514.69	31536.5
514.893	31536.5
515.095	31581.56
515.297	32028.01
515.499	32560.48
515.701	32492.9
515.904	32576.87
516.106	33150.3
516.308	33271.13
516.51	33635.67
516.712	33357.14
516.914	34159.95
517.116	34712.9
517.318	34487.62
517.52	34698.56
517.722	35120.45
517.925	35405.11
518.127	35888.43
518.329	35847.47
518.531	36183.34
518.733	36511.02
518.935	36879.65
519.136	36728.1
519.338	37496.09
519.54	37578.01
519.742	37956.88
519.944	37702.93
520.146	38622.47
520.348	38223.12
520.55	38552.84
520.752	39173.38
520.954	39730.42
521.155	39277.82
521.357	39982.32
521.559	40318.19
521.761	40506.6
521.963	40766.7
522.164	40762.6
522.366	41000.16
522.568	41155.81
522.77	41542.88
522.971	41995.48
523.173	41592.03
523.375	41954.52
523.576	42441.93
523.778	42220.75
523.98	42616.01
524.181	42841.29
524.383	43189.44
524.584	43586.75
524.786	43533.5
524.988	43285.7
525.189	43781.31
525.391	44229.81
525.592	44160.18
525.794	44233.91
525.995	44577.97
526.197	44559.53
526.398	44719.27
526.6	45079.72
526.801	44852.39
527.003	45434.02
527.204	45391.01
527.406	45376.67
527.607	45919.38
527.808	46144.66
528.01	45261.99
528.211	45982.87
528.412	46611.6
528.614	46023.83
528.815	46390.42
529.016	46802.06
529.218	46105.75
529.419	46429.33
529.62	46486.67
529.822	46300.31
530.023	46458
530.224	46832.78
530.425	46812.3
530.626	46451.86
530.828	46720.14
531.029	47795.32
531.23	46828.68
531.431	46984.33
531.632	46984.33
531.833	47500.42
532.035	46945.42
532.236	47309.96
532.437	47629.44
532.638	46988.42
532.839	47842.43
533.04	47461.51
533.241	46703.76
533.442	47889.53
533.643	47424.64
533.844	47146.12
534.045	47658.11
534.246	46924.94
534.447	47332.48
534.648	47076.49
534.849	47387.78
535.05	47078.53
535.251	47322.24
535.451	47359.11
535.652	47670.4
535.853	47037.58
536.054	47309.96
536.255	47584.38
536.456	46998.66
536.657	47879.29
536.857	47242.37
537.058	46578.83
537.259	47481.98
537.46	47369.35
537.66	46867.59
537.861	47393.92
538.062	47383.68
538.263	47332.48
538.463	46949.51
538.664	47129.73
538.865	47580.29
539.065	47271.04
539.266	46826.63
539.466	47182.98
539.667	46546.06
539.868	47664.25
540.068	47096.97
540.269	46969.99
540.469	47438.98
540.67	47017.1
540.87	47070.34
541.071	47178.89
541.271	47283.33
541.472	46853.26
541.672	46988.42
541.873	46855.31
542.073	46468.24
542.274	47285.38
542.474	47086.73
542.675	46757
542.875	47228.04
543.075	47269
543.276	46701.71
543.476	47344.77
543.676	47062.15
543.877	47189.13
544.077	46843.02
544.277	46621.84
544.478	46593.17
544.678	46748.81
544.878	46806.16
545.078	47137.93
545.279	46615.69
545.479	46382.23
545.679	46759.05
545.879	46673.04
546.079	46791.82
546.28	46752.91
546.48	46642.32
546.68	47199.37
546.88	46869.64
547.08	46728.33
547.28	46253.2
547.48	46169.24
547.68	46961.8
547.88	46298.26
548.081	46691.47
548.281	46505.1
548.481	46462.1
548.681	46650.51
548.881	46505.1
549.081	46431.38
549.28	46267.54
549.48	46709.9
549.68	46421.14
549.88	46865.55
550.08	46298.26
550.28	46478.48
550.48	46466.19
550.68	46847.11
550.88	45964.44
551.08	46253.2
551.279	46468.24
551.479	45870.23
551.679	46525.58
551.879	46040.21
552.079	46838.92
552.278	46146.71
552.478	46259.35
552.678	46349.46
552.878	46535.82
553.077	46417.04
553.277	45655.2
553.477	46300.31
553.676	46343.31
553.876	46402.71
554.076	46032.02
554.275	45745.31
554.475	45876.38
554.674	46445.71
554.874	46214.29
555.074	45687.96
555.273	45913.24
555.473	46343.31
555.672	45651.1
555.872	46206.1
556.071	46247.06
556.271	45831.32
556.47	45827.23
556.67	45835.42
556.869	45989.02
557.068	45927.58
557.268	45479.07
557.467	46015.64
557.667	45632.67
557.866	45311.14
558.065	45489.31
558.265	45085.86
558.464	45505.69
558.663	45857.95
558.863	44917.93
559.062	45743.26
559.261	44960.94
559.461	45694.11
559.66	45001.89
559.859	45268.13
560.058	44909.74
560.258	45092.01
560.457	44344.5
560.656	45028.52
560.855	44965.03
561.054	44926.12
561.253	44653.74
561.453	44715.18
561.652	44729.51
561.851	45096.1
562.05	44956.84
562.249	44481.71
562.448	44684.46
562.647	44254.39
562.846	44455.09
563.045	44459.18
563.244	43951.29
563.443	44715.18
563.642	43818.17
563.841	44119.22
564.04	44229.81
564.239	44649.64
564.438	44027.06
564.637	44123.32
564.836	43551.93
565.035	43484.35
565.234	43605.18
565.432	43285.7
565.631	43433.15
565.83	43482.3
566.029	43365.57
566.228	43156.67
566.427	43220.16
566.625	42955.97
566.824	42994.89
567.023	43410.62
567.222	42394.83
567.42	43125.96
567.619	42863.82
567.818	42695.88
568.016	42779.85
568.215	43013.32
568.414	42790.09
568.612	42912.97
568.811	42294.48
569.01	42564.81
569.208	41909.46
569.407	42659.02
569.605	42015.96
569.804	41960.66
570.002	41860.31
570.201	42269.9
570.4	41882.84
570.598	41792.73
570.797	41420
570.995	41893.08
571.193	40830.18
571.392	41725.14
571.59	41331.93
571.789	41272.54
571.987	41069.79
572.186	41444.57
572.384	41100.51
572.582	41698.52
572.781	41497.82
572.979	40492.27
573.177	40989.92
573.376	40869.09
573.574	40641.77
573.772	40570.09
573.971	40576.23
574.169	40252.66
574.367	40180.98
574.565	40754.41
574.763	40201.46
574.962	39937.27
575.16	39988.47
575.358	40248.56
575.556	39652.6
575.754	40129.78
575.952	39222.53
576.151	39929.08
576.349	39456
576.547	39605.5
576.745	39122.18
576.943	39388.41
577.141	39001.35
577.339	39398.65
577.537	38958.34
577.735	39070.98
577.933	38493.45
578.131	38663.43
578.329	38665.48
578.527	38546.7
578.725	38651.14
578.923	38384.91
579.121	38253.84
579.319	38075.66
579.516	38616.33
579.714	38165.77
579.912	37860.63
580.11	37840.15
580.308	37893.4
580.506	38051.09
580.704	37262.62
580.901	37731.61
581.099	38323.47
581.297	37487.9
581.495	37004.58
581.692	37580.06
581.89	37031.2
582.088	37571.86
582.285	37192.99
582.483	37365.02
582.681	36844.84
582.878	36801.83
583.076	36439.34
583.274	37102.88
583.471	36144.43
583.669	36584.74
583.866	36322.6
584.064	36355.37
584.262	36035.89
584.459	36050.22
584.657	35949.87
584.854	36142.38
585.052	35169.6
585.249	35919.15
585.447	35556.66
585.644	35403.07
585.841	35700.02
586.039	35659.06
586.236	35317.05
586.434	35505.46
586.631	35163.45
586.828	35288.38
587.026	35220.8
587.223	35118.4
587.42	35093.82
587.618	34868.55
587.815	34731.33
588.012	34659.65
588.21	34389.32
588.407	34626.88
588.604	34411.85
588.801	33975.63
588.999	34248.01
589.196	34176.33
589.393	34293.07
589.59	33701.2
589.787	33324.38
589.984	33731.92
590.182	33279.32
590.379	33744.21
590.576	33514.84
590.773	33334.62
590.97	33451.35
591.167	33394.01
591.364	32445.8
591.561	33195.35
591.758	32705.89
591.955	32839.01
592.152	33000.8
592.349	32709.99
592.546	32626.02
592.743	32570.72
592.94	32277.86
593.137	32529.76
593.334	32341.35
593.531	31995.25
593.727	31991.15
593.924	32243.05
594.121	31888.75
594.318	31991.15
594.515	31751.54
594.712	32111.98
594.908	31501.68
595.105	31698.29
595.302	31233.4
595.499	31317.37
595.696	31272.31
595.892	30967.16
596.089	31319.42
596.286	31155.58
596.482	31235.45
596.679	30817.66
596.876	30504.32
597.072	30743.94
597.269	30807.42
597.466	30408.07
597.662	30326.15
597.859	30862.72
598.055	30827.9
598.252	30115.21
598.448	29988.24
598.645	29883.79
598.841	29627.79
599.038	29678.99
599.234	29826.45
599.431	29592.98
599.627	29431.19
599.824	29746.58
600.02	29599.12
600.217	29549.97
600.413	29308.31
600.609	29367.7
600.806	29484.44
601.002	29140.38
601.198	28632.48
601.395	28822.94
601.591	28646.82
601.787	28708.26
601.984	28487.07
602.18	28999.07
602.376	28462.5
602.572	28646.82
602.769	27995.56
602.965	28081.58
603.161	28353.96
603.357	27958.7
603.553	28159.4
603.75	28239.27
603.946	27657.65
604.142	27760.05
604.338	27211.19
604.534	27880.88
604.73	27807.15
604.926	27485.62
605.122	27293.11
605.318	27317.68
605.514	27092.41
605.71	27180.47
605.906	26908.09
606.102	27260.34
606.298	27293.11
606.494	27145.66
606.69	26967.48
606.886	27051.45
607.082	26285.51
607.278	27082.17
607.474	26334.66
607.67	26498.5
607.866	26193.35
608.062	26453.44
608.257	26115.53
608.453	26232.26
608.649	26557.89
608.845	26084.81
609.041	26072.52
609.236	26279.36
609.432	25978.31
609.628	25869.77
609.824	25978.31
610.019	25724.36
610.215	25914.83
610.411	25869.77
610.606	25849.29
610.802	25701.84
610.998	25525.71
611.193	25581.01
611.389	25621.97
611.584	25603.53
611.78	25296.34
611.976	25482.7
612.171	25595.34
612.367	25535.95
612.562	24872.41
612.758	25026.01
612.953	24864.22
613.149	25003.48
613.344	24798.68
613.539	25230.8
613.735	24968.66
613.93	25060.82
614.126	24952.28
614.321	25013.72
614.517	24843.74
614.712	24804.83
614.907	24585.69
615.103	24921.56
615.298	24290.79
615.493	24708.57
615.688	24145.38
615.884	24833.5
616.079	24016.36
616.274	24497.63
616.47	24280.55
616.665	24397.28
616.86	24438.24
617.055	24219.11
617.25	24135.14
617.445	24339.94
617.641	23791.08
617.836	23780.84
618.031	23852.52
618.226	23991.78
618.421	23627.24
618.616	23948.78
618.811	23715.31
619.006	23637.48
619.201	23154.16
619.396	23494.13
619.591	23019
619.786	23549.42
619.981	22679.04
620.176	23039.48
620.371	23002.61
620.566	23117.3
620.761	22595.07
620.956	23043.57
621.151	22339.07
621.346	22474.24
621.541	22208
621.735	22261.25
621.93	21861.9
622.125	22132.23
622.32	21632.52
622.515	21890.57
622.709	21743.11
622.904	21865.99
623.099	21423.63
623.294	21491.21
623.488	21345.81
623.683	21315.09
623.878	21042.71
624.072	21302.8
624.267	21253.65
624.462	20715.03
624.656	20860.44
624.851	20651.55
625.046	20526.62
625.24	20237.86
625.435	20207.14
625.629	20117.03
625.824	20145.7
626.018	19904.04
626.213	19807.78
626.407	19754.54
626.602	19377.71
626.796	19648.04
626.991	19531.31
627.185	19473.96
627.38	19349.04
627.574	19076.66
627.768	19162.67
627.963	18910.77
628.157	18507.32
628.352	19119.67
628.546	18429.5
628.74	18609.72
628.935	18208.32
629.129	18232.9
629.323	18163.26
629.517	17976.9
629.712	18386.49
629.906	18024
630.1	17827.4
630.294	17825.35
630.489	17620.55
630.683	17643.08
630.877	17509.96
631.071	17495.63
631.265	17630.79
631.459	17163.86
631.653	17008.21
631.848	17145.42
632.042	17055.31
632.236	16934.48
632.43	16891.48
632.624	16698.97
632.818	16588.38
633.012	16428.63
633.206	16379.48
633.4	16678.49
633.594	16154.21
633.788	16197.21
633.982	16111.2
634.176	16074.34
634.369	16066.14
634.563	15793.76
634.757	15724.13
634.951	15660.65
635.145	15883.87
635.339	15832.68
635.533	15636.07
635.726	15623.78
635.92	15126.13
636.114	15281.77
636.308	15277.68
636.501	14952.05
636.695	15013.49
636.889	14945.91
637.083	14714.48
637.276	14874.23
637.47	14663.29
637.664	14524.02
637.857	14868.08
638.051	14521.98
638.244	14282.36
638.438	14427.77
638.632	14216.83
638.825	14290.56
639.019	14206.59
639.212	13960.83
639.406	14016.13
639.599	14110.33
639.793	13801.09
639.986	13631.11
640.18	13823.62
640.373	13782.66
640.567	13633.16
640.76	13686.4
640.954	13225.61
641.147	13139.6
641.34	13272.71
641.534	13217.42
641.727	13031.05
641.92	13127.31
642.114	13090.45
642.307	12983.95
642.5	12750.48
642.694	12678.8
642.887	12867.22
643.08	12854.93
643.273	12740.24
643.467	12428.95
643.66	12455.58
643.853	12279.45
644.046	12166.81
644.239	12424.86
644.432	12316.31
644.626	11966.11
644.819	12199.58
645.012	12183.2
645.205	11906.72
645.398	11871.9
645.591	11871.9
645.784	11828.9
645.977	11523.75
646.17	11990.69
646.363	11652.77
646.556	11671.2
646.749	11622.05
646.942	11431.59
647.135	11292.33
647.328	11386.54
647.521	11099.82
647.714	11294.38
647.907	11048.62
648.099	11015.85
648.292	11013.81
648.485	11013.81
648.678	10684.08
648.871	10886.83
649.064	10950.32
649.256	10772.14
649.449	10663.6
649.642	10645.17
649.835	10579.64
650.027	10442.42
650.22	10299.06
650.413	10524.34
650.605	10268.34
650.798	10342.07
650.991	10096.32
651.183	10213.05
651.376	10176.19
651.568	10122.94
651.761	10147.51
651.954	10092.22
652.146	10069.69
652.339	10032.83
652.531	9905.85
652.724	9955.01
652.916	9719.49
653.109	9490.12
653.301	9678.53
653.494	9600.71
653.686	9465.54
653.879	9533.12
654.071	9412.29
654.263	9328.33
654.456	9367.24
654.648	9324.23
654.84	9238.22
655.033	9285.32
655.225	9064.14
655.417	9090.76
655.61	9062.09
655.802	8935.12
655.994	8996.56
656.186	8971.98
656.379	8971.98
656.571	8965.84
656.763	8752.85
656.955	8822.48
657.148	8859.34
657.34	8795.86
657.532	8613.59
657.724	8505.04
657.916	8705.74
658.108	8632.02
658.3	8574.67
658.492	8429.27
658.684	8378.07
658.876	8380.12
659.068	8384.21
659.26	8097.5
659.452	8341.21
659.644	8318.68
659.836	7995.1
660.028	8300.25
660.22	7937.76
660.412	8036.06
660.604	8017.63
660.796	7952.09
660.988	7855.84
661.18	7847.65
661.372	7818.97
661.563	7892.7
661.755	7608.03
661.947	7685.86
662.139	7655.14
662.331	7446.24
662.522	7571.17
662.714	7456.48
662.906	7446.24
663.097	7538.4
663.289	7526.11
663.481	7411.43
663.673	7263.97
663.864	7263.97
664.056	7311.08
664.247	7231.21
664.439	7085.8
664.631	7192.3
664.822	7114.47
665.014	7122.66
665.205	6864.62
665.397	6983.4
665.588	7016.17
665.78	6901.48
665.971	6848.24
666.163	6940.4
666.354	6819.57
666.546	6921.96
666.737	6715.12
666.929	6610.67
667.12	6786.8
667.311	6844.14
667.503	6598.38
667.694	6643.44
667.885	6455.03
668.077	6409.97
668.268	6510.32
668.459	6516.47
668.651	6405.88
668.842	6440.69
669.033	6444.79
669.224	6459.12
669.416	6362.87
669.607	6432.5
669.798	6258.42
669.989	6432.5
670.18	6188.79
670.371	6100.73
670.563	6201.08
670.754	6223.61
670.945	6063.86
671.136	5846.78
671.327	5943.03
671.518	5951.23
671.709	6135.54
671.9	6065.91
672.091	6006.52
672.282	5795.58
672.473	5779.2
672.664	5779.2
672.855	5734.14
673.046	5734.14
673.237	5850.88
673.428	5676.8
673.619	5684.99
673.809	5762.81
674	5562.11
674.191	5664.51
674.382	5582.59
674.573	5480.19
674.764	5650.18
674.954	5488.39
675.145	5582.59
675.336	5586.69
675.527	5394.18
675.717	5414.66
675.908	5441.28
676.099	5459.71
676.289	5578.5
676.48	5398.27
676.671	5363.46
676.861	5547.78
677.052	5123.85
677.243	5205.77
677.433	5310.21
677.624	5355.27
677.814	5236.49
678.005	5361.41
678.195	5175.05
678.386	5154.57
678.576	5064.46
678.767	5181.19
678.957	5134.09
679.148	5209.86
679.338	5152.52
679.529	4998.92
679.719	5005.06
679.909	5093.13
680.1	4919.05
680.29	5160.71
680.481	4929.29
680.671	4957.96
680.861	4886.28
681.052	4962.06
681.242	4828.94
681.432	4861.71
681.622	4849.42
681.813	4970.25
682.003	4886.28
682.193	4706.06
682.383	4962.06
682.573	4886.28
682.764	4781.84
682.954	4845.32
683.144	4755.21
683.334	4710.16
683.524	4620.05
683.714	4794.12
683.904	4681.49
684.094	4747.02
684.284	4607.76
684.474	4738.83
684.664	4640.53
684.854	4552.46
685.044	4607.76
685.234	4570.9
685.424	4683.53
685.614	4624.14
685.804	4587.28
685.994	4419.35
686.184	4611.85
686.374	4493.07
686.564	4439.83
686.753	4396.82
686.943	4392.72
687.133	4249.36
687.323	4341.52
687.513	4333.33
687.702	4495.12
687.892	4265.75
688.082	4239.12
688.272	4339.48
688.461	4259.6
688.651	4304.66
688.841	4103.96
689.03	4138.77
689.22	4181.78
689.41	4282.13
689.599	4210.45
689.789	4296.47
689.979	4167.45
690.168	4099.86
690.358	4075.29
690.547	4075.29
690.737	4097.81
690.926	4171.54
691.116	3960.6
691.305	4036.38
691.495	3991.32
691.684	3809.05
691.874	3880.73
692.063	3862.3
692.252	3815.2
692.442	3938.07
692.631	3725.08
692.82	3847.96
693.01	3780.38
693.199	3915.55
693.388	3706.65
693.578	3800.86
693.767	3757.85
693.956	3649.31
694.146	3600.16
694.335	3757.85
694.524	3743.52
694.713	3733.28
694.902	3829.53
695.092	3575.58
695.281	3733.28
695.47	3757.85
695.659	3628.83
695.848	3596.06
696.037	3594.01
696.226	3682.08
696.415	3522.34
696.604	3608.35
696.793	3532.58
696.982	3559.2
697.171	3583.77
697.36	3505.95
697.549	3512.1
697.738	3430.18
697.927	3428.13
698.116	3501.86
698.305	3553.06
698.494	3577.63
698.683	3583.77
698.872	3669.79
699.061	3512.1
699.25	3381.03
699.438	3473.18
699.627	3329.83
699.816	3323.68
700.005	3225.38
700.193	3348.26
700.382	3479.33
700.571	3254.05
700.76	3321.63
700.948	3372.83
701.137	3262.24
701.326	3325.73
701.514	3401.51
701.703	3362.59
701.892	3317.54
702.08	3374.88
702.269	3194.66
702.457	3295.01
702.646	3249.96
702.834	3247.91
703.023	3254.05
703.212	3342.11
703.4	3133.22
703.589	3104.55
703.777	3245.86
703.965	3180.32
704.154	3233.57
704.342	3184.42
704.531	3200.8
704.719	3225.38
704.907	3366.69
705.096	3125.03
705.284	3161.89
705.472	3116.84
705.661	3086.12
705.849	3057.45
706.037	3284.77
706.226	3047.21
706.414	3223.33
706.602	2998.06
706.79	3061.54
706.979	3116.84
707.167	3223.33
707.355	3096.36
707.543	2981.67
707.731	3102.5
707.919	3067.69
708.107	3010.34
708.296	2981.67
708.484	2977.58
708.672	3059.49
708.86	3057.45
709.048	3014.44
709.236	2916.14
709.424	2950.95
709.612	3018.54
709.8	2922.28
709.988	2938.66
710.176	2938.66
710.364	2934.57
710.551	2983.72
710.739	2926.38
710.927	2912.04
711.115	2862.89
711.303	2899.75
711.491	2922.28
711.679	2871.08
711.866	2969.38
712.054	2813.74
712.242	2879.27
712.43	2895.66
712.617	2936.62
712.805	2866.99
712.993	2764.59
713.181	2752.3
713.368	2862.89
713.556	2844.46
713.744	2701.1
713.931	2854.7
714.119	2740.01
714.306	2723.63
714.494	2793.26
714.682	2799.4
714.869	2713.39
715.057	2838.31
715.244	2660.14
715.432	2719.53
715.619	2717.48
715.807	2756.4
715.994	2803.5
716.182	2631.47
716.369	2651.95
716.556	2733.87
716.744	2633.52
716.931	2701.1
717.119	2783.02
717.306	2551.6
717.493	2592.56
717.681	2660.14
717.868	2785.07
718.055	2697
718.242	2619.18
718.43	2692.91
718.617	2645.8
718.804	2635.57
718.991	2727.72
719.179	2559.79
719.366	2535.21
719.553	2639.66
719.74	2576.17
719.927	2662.19
720.114	2582.32
720.301	2604.85
720.488	2481.97
720.676	2555.69
720.863	2600.75
721.05	2633.52
721.237	2469.68
721.424	2592.56
721.611	2617.13
721.798	2475.82
721.985	2518.83
722.172	2596.65
722.358	2420.53
722.545	2559.79
722.732	2484.02
722.919	2494.26
723.106	2629.42
723.293	2438.96
723.48	2498.35
723.667	2512.69
723.853	2469.68
724.04	2531.12
724.227	2391.86
724.414	2404.14
724.6	2649.9
724.787	2557.74
724.974	2449.2
725.161	2338.61
725.347	2457.39
725.534	2527.02
725.72	2467.63
725.907	2436.91
726.094	2547.5
726.28	2457.39
726.467	2467.63
726.653	2453.3
726.84	2406.19
727.027	2471.73
727.213	2424.62
727.4	2545.45
727.586	2377.52
727.773	2461.49
727.959	2322.23
728.145	2381.62
728.332	2404.14
728.518	2350.9
728.705	2445.1
728.891	2332.47
729.077	2326.32
729.264	2404.14
729.45	2354.99
729.636	2414.38
729.823	2314.03
730.009	2324.27
730.195	2434.86
730.382	2346.8
730.568	2332.47
730.754	2295.6
730.94	2289.46
731.126	2348.85
731.313	2305.84
731.499	2350.9
731.685	2365.23
731.871	2338.61
732.057	2209.59
732.243	2283.31
732.429	2244.4
732.615	2285.36
732.801	2295.6
732.987	2234.16
733.173	2283.31
733.359	2195.25
733.545	2211.64
733.731	2283.31
733.917	2256.69
734.103	2154.29
734.289	2283.31
734.475	2146.1
734.661	2330.42
734.847	2240.31
735.033	2152.24
735.219	2168.63
735.404	2201.4
735.59	2195.25
735.776	2187.06
735.962	2230.07
736.148	2084.66
736.333	2365.23
736.519	2117.43
736.705	2223.92
736.89	2123.57
737.076	2150.2
737.262	2174.77
737.447	2146.1
737.633	2178.87
737.819	2068.28
738.004	2142
738.19	2107.19
738.375	2109.24
738.561	2121.52
738.747	2019.13
738.932	2035.51
739.118	2047.8
739.303	2072.37
739.489	2094.9
739.674	1912.63
739.859	2092.85
740.045	2027.32
740.23	1982.26
740.416	2019.13
740.601	1908.54
740.786	2053.94
740.972	1955.64
741.157	2070.33
741.342	1857.34
741.528	1998.65
741.713	2015.03
741.898	1963.83
742.084	2033.46
742.269	1869.62
742.454	1984.31
742.639	1982.26
742.824	1953.59
743.01	1996.6
743.195	1961.78
743.38	1824.57
743.565	1871.67
743.75	1943.35
743.935	1857.34
744.12	1961.78
744.305	1806.14
744.49	1814.33
744.675	1922.87
744.86	1845.05
745.045	1824.57
745.23	1830.71
745.415	1797.95
745.6	1840.95
745.785	1744.7
745.97	1822.52
746.155	1756.99
746.34	1705.79
746.525	1808.19
746.71	1935.16
746.895	1740.6
747.079	1713.98
747.264	1793.85
747.449	1728.31
747.634	1640.25
747.819	1716.03
748.003	1726.27
748.188	1670.97
748.373	1773.37
748.557	1634.11
748.742	1539.9
748.927	1630.01
749.111	1660.73
749.296	1605.44
749.481	1582.91
749.665	1519.42
749.85	1529.66
750.034	1564.48
750.219	1625.92
750.404	1472.32
750.588	1441.6
750.773	1603.39
750.957	1466.17
751.141	1480.51
751.326	1519.42
751.51	1433.41
751.695	1513.28
751.879	1441.6
752.064	1451.84
752.248	1429.31
752.432	1517.37
752.617	1365.82
752.801	1404.74
752.985	1369.92
753.17	1369.92
753.354	1404.74
753.538	1371.97
753.722	1455.94
753.907	1384.26
754.091	1261.38
754.275	1326.91
754.459	1306.43
754.643	1359.68
754.828	1318.72
755.012	1257.28
755.196	1300.29
755.38	1201.99
755.564	1242.95
755.748	1261.38
755.932	1298.24
756.116	1285.95
756.3	1142.6
756.484	1249.09
756.668	1238.85
756.852	1185.6
757.036	1032.01
757.22	1105.73
757.404	1070.92
757.588	1195.84
757.772	1273.67
757.956	1146.69
758.14	1201.99
758.323	1220.42
758.507	1158.98
758.691	1070.92
758.875	1195.84
759.059	1111.88
759.242	1089.35
759.426	1126.21
759.61	1085.25
759.794	1060.68
759.977	1152.84
760.161	1140.55
760.345	1007.43
760.528	1011.53
760.712	1077.06
760.895	1093.44
761.079	1040.2
761.263	974.66
761.446	964.42
761.63	931.66
761.813	974.66
761.997	980.81
762.18	1003.33
762.364	1036.1
762.547	919.37
762.731	960.33
762.914	1060.68
763.098	925.51
763.281	978.76
763.464	1019.72
763.648	1011.53
763.831	986.95
764.015	958.28
764.198	929.61
764.381	913.22
764.564	933.7
764.748	888.65
764.931	907.08
765.114	945.99
765.297	995.14
765.481	907.08
765.664	925.51
765.847	989
766.03	851.78
766.213	902.98
766.397	808.78
766.58	833.35
766.763	888.65
766.946	931.66
767.129	862.02
767.312	821.06
767.495	888.65
767.678	884.55
767.861	804.68
768.044	812.87
768.227	857.93
768.41	776.01
768.593	851.78
768.776	839.5
768.959	900.94
769.142	892.74
769.324	823.11
769.507	753.48
769.69	763.72
769.873	816.97
770.056	829.26
770.239	812.87
770.421	902.98
770.604	753.48
770.787	839.5
770.97	765.77
771.152	683.85
771.335	751.43
771.518	749.39
771.7	864.07
771.883	790.35
772.066	716.62
772.248	778.06
772.431	710.47
772.613	757.58
772.796	737.1
772.978	765.77
773.161	720.71
773.343	743.24
773.526	778.06
773.708	778.06
773.891	649.04
774.073	765.77
774.256	687.95
774.438	716.62
774.621	634.7
774.803	710.47
774.985	675.66
775.168	710.47
775.35	659.28
775.532	692.04
775.715	675.66
775.897	685.9
776.079	571.21
776.261	679.75
776.444	718.67
776.626	692.04
776.808	677.71
776.99	626.51
777.173	593.74
777.355	642.89
777.537	683.85
777.719	616.27
777.901	581.45
778.083	659.28
778.265	595.79
778.447	603.98
778.629	567.12
778.811	563.02
778.993	556.88
779.175	579.4
779.357	595.79
779.539	532.3
779.721	569.16
779.903	626.51
780.085	517.97
780.267	630.6
780.449	464.72
780.631	610.12
780.812	528.21
780.994	560.97
781.176	581.45
781.358	468.81
781.54	454.48
781.721	522.06
781.903	577.36
782.085	511.82
782.267	536.4
782.448	536.4
782.63	538.45
782.812	444.24
782.993	554.83
783.175	538.45
783.357	431.95
783.538	552.78
783.72	520.01
783.901	495.44
784.083	454.48
784.264	460.62
784.446	497.49
784.627	421.71
784.809	440.14
784.99	472.91
785.172	526.16
785.353	440.14
785.535	560.97
785.716	438.09
785.897	397.14
786.079	454.48
786.26	485.2
786.441	360.27
786.623	423.76
786.804	364.37
786.985	325.46
787.167	415.57
787.348	456.53
787.529	405.33
787.71	417.61
787.891	393.04
788.073	384.85
788.254	364.37
788.435	339.79
788.616	388.94
788.797	350.03
788.978	405.33
789.159	440.14
789.34	454.48
789.522	407.38
789.703	327.5
789.884	356.18
790.065	302.93
790.246	388.94
790.427	405.33
790.607	350.03
790.788	341.84
790.969	347.98
791.15	397.14
791.331	339.79
791.512	350.03
791.693	333.65
791.874	356.18
792.054	374.61
792.235	372.56
792.416	319.31
792.597	268.11
792.778	368.46
792.958	335.7
793.139	300.88
793.32	315.22
793.5	294.74
793.681	298.83
793.862	339.79
794.042	335.7
794.223	266.07
794.404	257.87
794.584	282.45
794.765	331.6
794.945	276.31
795.126	309.07
795.306	341.84
795.487	288.59
795.667	309.07
795.848	307.02
796.028	270.16
796.209	241.49
796.389	298.83
796.57	290.64
796.75	241.49
796.93	261.97
797.111	274.26
797.291	282.45
797.471	307.02
797.652	261.97
797.832	165.71
798.012	339.79
798.192	225.11
798.373	180.05
798.553	276.31
798.733	282.45
798.913	192.34
799.093	249.68
799.274	231.25
799.454	229.2
799.634	241.49
799.814	237.39
799.994	229.2
800.174	300.88
800.354	192.34
800.534	171.86
800.714	249.68
800.894	282.45
801.074	184.15
801.254	200.53
801.434	274.26
801.614	225.11
801.794	221.01
801.974	694.09
802.154	323.41
802.334	309.07
802.514	218.96
802.693	288.59
802.873	141.14
803.053	294.74
803.233	135
803.413	216.91
803.592	210.77
803.772	202.58
803.952	274.26
804.131	184.15
804.311	221.01
804.491	286.54
804.67	235.35
804.85	151.38
805.03	180.05
805.209	245.59
805.389	182.1
805.568	202.58
805.748	225.11
805.928	190.29
806.107	233.3
806.287	159.57
806.466	184.15
806.646	216.91
806.825	167.76
807.004	126.8
807.184	75.6
807.363	94.04
807.543	167.76
807.722	143.19
807.901	165.71
808.081	192.34
808.26	135
808.439	182.1
808.619	143.19
808.798	71.51
808.977	155.47
809.156	171.86
809.336	208.72
809.515	233.3
809.694	135
809.873	135
810.052	120.66
810.231	196.43
810.411	229.2
810.59	178
810.769	110.42
810.948	153.43
811.127	69.46
811.306	147.28
811.485	147.28
811.664	225.11
811.843	200.53
812.022	143.19
812.201	139.09
812.38	159.57
812.559	132.95
812.737	155.47
812.916	161.62
813.095	175.95
813.274	216.91
813.453	110.42
813.632	118.61
813.811	182.1
813.989	81.75
814.168	167.76
814.347	124.76
814.526	94.04
814.704	180.05
814.883	194.39
815.062	139.09
815.24	118.61
815.419	85.84
815.598	173.91
815.776	91.99
815.955	79.7
816.133	147.28
816.312	77.65
816.49	65.36
816.669	147.28
816.847	163.67
817.026	151.38
817.204	192.34
817.383	108.37
817.561	89.94
817.74	163.67
817.918	147.28
818.097	114.52
818.275	94.04
818.453	85.84
818.632	141.14
818.81	104.28
818.988	65.36
819.167	73.56
819.345	169.81
819.523	159.57
819.701	132.95
819.879	94.04
820.058	77.65
820.236	91.99
820.414	91.99
820.592	81.75
820.77	130.9
820.948	73.56
821.127	102.23
821.305	110.42
821.483	65.36
821.661	208.72
821.839	69.46
822.017	63.32
822.195	135
822.373	128.85
822.551	57.17
822.729	126.8
822.907	145.24
823.085	141.14
823.262	12.12
823.44	69.46
823.618	147.28
823.796	112.47
823.974	26.45
824.152	16.21
824.329	38.74
824.507	122.71
824.685	44.88
824.863	139.09
825.04	51.03
825.218	102.23
825.396	96.08
825.574	135
825.751	106.32
825.929	98.13
826.107	28.5
826.284	102.23
826.462	137.04
826.639	137.04
826.817	40.79
826.994	143.19
827.172	55.12
827.349	87.89
827.527	65.36
827.704	44.88
827.882	96.08
828.059	44.88
828.237	87.89
828.414	71.51
828.591	32.6
828.769	120.66
828.946	77.65
829.124	102.23
829.301	165.71
829.478	110.42
829.655	106.32
829.833	202.58
830.01	110.42
830.187	83.8
830.364	61.27
830.542	38.74
830.719	135
830.896	98.13
831.073	61.27
831.25	180.05
831.427	20.31
831.604	57.17
831.782	48.98
831.959	73.56
832.136	118.61
832.313	135
832.49	-12.46
832.667	61.27
832.844	61.27
833.021	30.55
833.198	102.23
833.374	94.04
833.551	118.61
833.728	71.51
833.905	104.28
834.082	12.12
834.259	85.84
834.436	143.19
834.612	48.98
834.789	77.65
834.966	-12.46
835.143	69.46
835.319	143.19
835.496	67.41
835.673	79.7
835.85	94.04
836.026	53.08
836.203	61.27
836.38	77.65
836.556	85.84
836.733	91.99
836.909	120.66
837.086	40.79
837.262	8.02
837.439	77.65
837.616	1.88
837.792	40.79
837.968	51.03
838.145	-0.17
838.321	48.98
838.498	61.27
838.674	53.08
838.851	-12.46
839.027	14.17
839.203	126.8
839.38	137.04
839.556	12.12
839.732	106.32
839.909	73.56
840.085	147.28
840.261	-12.46
840.437	5.97
840.614	-4.27
840.79	77.65
840.966	53.08
841.142	42.84
841.318	10.07
841.494	94.04
841.671	61.27
841.847	20.31
842.023	3.93
842.199	118.61
842.375	94.04
842.551	14.17
842.727	-30.89
842.903	85.84
843.079	28.5
843.255	135
843.431	96.08
843.607	44.88
843.783	-14.51
843.959	65.36
844.134	-4.27
844.31	57.17
844.486	46.93
844.662	-2.22
844.838	8.02
845.013	46.93
845.189	77.65
845.365	57.17
845.541	-14.51
845.716	-2.22
845.892	61.27
846.068	112.47
846.244	59.22
846.419	-2.22
846.595	5.97
846.77	34.64
846.946	69.46
847.122	114.52
847.297	77.65
847.473	137.04
847.648	-20.65
847.824	34.64
847.999	-34.99
848.175	26.45
848.35	-16.55
848.526	71.51
848.701	-26.79
848.876	73.56
849.052	61.27
849.227	73.56
849.403	24.4
849.578	-12.46
849.753	20.31
849.929	118.61
850.104	-12.46
850.279	-59.56
850.454	22.36
850.63	61.27
850.805	16.21
850.98	12.12
851.155	-2.22
851.33	106.32
851.505	12.12
851.681	108.37
851.856	-32.94
852.031	85.84
852.206	10.07
852.381	5.97
852.556	69.46
852.731	20.31
852.906	61.27
853.081	85.84
853.256	14.17
853.431	30.55
853.606	38.74
853.781	89.94
853.956	14.17
854.131	48.98
854.305	-14.51
854.48	12.12
854.655	-34.99
854.83	51.03
855.005	3.93
855.18	130.9
855.354	-26.79
855.529	44.88
855.704	40.79
855.879	94.04
856.053	-45.23
856.228	65.36
856.403	28.5
856.577	83.8
856.752	-45.23
856.926	3.93
857.101	14.17
857.276	36.69
857.45	18.26
857.625	28.5
857.799	44.88
857.974	20.31
858.148	53.08
858.323	38.74
858.497	-32.94
858.672	-0.17
858.846	-8.36
859.02	22.36
859.195	-43.18
859.369	-10.41
859.543	-4.27
859.718	-2.22
859.892	28.5
860.066	20.31
860.241	28.5
860.415	89.94
860.589	-32.94
860.763	71.51
860.938	-39.08
861.112	14.17
861.286	5.97
861.46	73.56
861.634	63.32
861.808	-18.6
861.982	71.51
862.157	14.17
862.331	-69.8
862.505	-61.61
862.679	-51.37
862.853	20.31
863.027	-10.41
863.201	63.32
863.375	-20.65
863.549	83.8
863.722	-0.17
863.896	44.88
864.07	8.02
864.244	-30.89
864.418	26.45
864.592	8.02
864.766	40.79
864.939	5.97
865.113	-34.99
865.287	44.88
865.461	-4.27
865.634	20.31
865.808	-49.32
865.982	-18.6
866.156	1.88
866.329	16.21
866.503	-90.28
866.676	20.31
866.85	20.31
867.024	36.69
867.197	28.5
867.371	48.98
867.544	-26.79
867.718	63.32
867.891	81.75
868.065	-12.46
868.238	40.79
868.412	24.4
868.585	-18.6
868.759	-2.22
868.932	44.88
869.105	44.88
869.279	-2.22
869.452	-45.23
869.625	61.27
869.799	34.64
869.972	-16.55
870.145	-18.6
870.319	12.12
870.492	63.32
870.665	-12.46
870.838	8.02
871.011	-24.75
871.185	18.26
871.358	-34.99
871.531	16.21
871.704	-16.55
871.877	5.97
872.05	12.12
872.223	-4.27
872.396	-24.75
872.569	118.61
872.742	18.26
872.915	38.74
873.088	-4.27
873.261	18.26
873.434	-30.89
873.607	5.97
873.78	-10.41
873.953	20.31
874.126	-28.84
874.299	28.5
874.471	-22.7
874.644	-18.6
874.817	28.5
874.99	53.08
875.163	-53.42
875.335	36.69
875.508	-8.36
875.681	-8.36
875.853	-16.55
876.026	44.88
876.199	12.12
876.371	-90.28
876.544	36.69
876.717	48.98
876.889	-41.13
877.062	-30.89
877.234	-94.38
877.407	44.88
877.579	-61.61
877.752	36.69
877.924	63.32
878.097	-0.17
878.269	-10.41
878.442	61.27
878.614	20.31
878.786	46.93
878.959	20.31
879.131	-61.61
879.303	42.84
879.476	-28.84
879.648	-49.32
879.82	-53.42
879.993	-22.7
880.165	12.12
880.337	-8.36
880.509	26.45
880.681	-0.17
880.854	5.97
881.026	28.5
881.198	44.88
881.37	20.31
881.542	18.26
881.714	65.36
881.886	-10.41
882.058	22.36
882.23	-12.46
882.402	-45.23
882.574	20.31
882.746	22.36
882.918	46.93
883.09	61.27
883.262	-47.27
883.434	-4.27
883.606	-75.95
883.778	12.12
883.95	-16.55
884.122	-22.7
884.293	-22.7
884.465	16.21
884.637	-16.55
884.809	65.36
884.98	18.26
885.152	-43.18
885.324	32.6
885.496	5.97
885.667	3.93
885.839	-8.36
886.011	69.46
886.182	-30.89
886.354	1.88
886.525	36.69
886.697	38.74
886.869	-20.65
887.04	22.36
887.212	63.32
887.383	-2.22
887.555	-24.75
887.726	16.21
887.897	12.12
888.069	-18.6
888.24	-45.23
888.412	1.88
888.583	22.36
888.754	20.31
888.926	-61.61
889.097	28.5
889.268	-14.51
889.44	24.4
889.611	-75.95
889.782	-86.19
889.953	-6.31
890.125	-8.36
890.296	5.97
890.467	30.55
890.638	-47.27
890.809	-20.65
890.98	16.21
891.151	1.88
891.323	81.75
891.494	69.46
891.665	-8.36
891.836	36.69
892.007	8.02
892.178	-53.42
892.349	-4.27
892.52	24.4
892.691	-61.61
892.862	-69.8
893.032	-30.89
893.203	55.12
893.374	-26.79
893.545	36.69
893.716	3.93
893.887	20.31
894.057	3.93
894.228	-26.79
894.399	61.27
894.57	130.9
894.74	12.12
894.911	-4.27
895.082	-20.65
895.253	-34.99
895.423	12.12
895.594	28.5
895.764	-28.84
895.935	-30.89
896.106	-49.32
896.276	42.84
896.447	3.93
896.617	-55.47
896.788	3.93
896.958	20.31
897.129	20.31
897.299	-20.65
897.47	-4.27
897.64	79.7
897.81	-22.7
897.981	-4.27
898.151	-12.46
898.322	-65.71
898.492	-41.13
898.662	34.64
898.832	16.21
899.003	-12.46
899.173	34.64
899.343	3.93
899.513	-67.75
