Data from USB4F104151__40__14-16-44-327.txt Node

Date: Thu Mar 13 14:16:44 EDT 2025
User: louis
Spectrometer: USB4F10415
Trigger mode: 4
Integration Time (sec): 2.000000E-2
Scans to average: 1
Electric dark correction enabled: true
Nonlinearity correction enabled: false
Boxcar width: 0
XAxis mode: Wavelengths
Number of Pixels in Spectrum: 3648
>>>>>Begin Spectral Data<<<<<
178.204	-44.37
178.424	-44.37
178.644	-44.37
178.864	-83.28
179.084	-111.96
179.304	6.83
179.524	45.74
179.744	-5.46
179.964	-3.41
180.184	-32.08
180.404	76.46
180.624	64.17
180.844	19.11
181.064	-40.28
181.283	2.73
181.503	-101.72
181.723	-32.08
181.943	-111.96
182.163	-40.28
182.383	-34.13
182.602	-17.75
182.822	8.87
183.042	39.59
183.262	35.5
183.482	-34.13
183.701	35.5
183.921	-30.04
184.141	19.11
184.361	72.36
184.58	31.4
184.8	72.36
185.02	8.87
185.239	0.68
185.459	39.59
185.679	6.83
185.898	-58.71
186.118	41.64
186.338	27.31
186.557	43.69
186.777	-25.94
186.997	-9.56
187.216	-36.18
187.436	58.03
187.655	0.68
187.875	55.98
188.095	10.92
188.314	60.07
188.534	82.6
188.753	23.21
188.973	39.59
189.192	10.92
189.412	17.07
189.631	23.21
189.851	8.87
190.07	92.84
190.29	33.45
190.509	-23.89
190.729	27.31
190.948	70.31
191.168	144.04
191.387	51.88
191.607	-15.7
191.826	-1.37
192.045	78.51
192.265	-17.75
192.484	23.21
192.704	-32.08
192.923	-13.65
193.142	64.17
193.362	49.83
193.581	70.31
193.8	23.21
194.02	58.03
194.239	37.55
194.458	-52.56
194.678	-81.24
194.897	25.26
195.116	23.21
195.335	19.11
195.555	31.4
195.774	2.73
195.993	-23.89
196.212	-21.85
196.432	23.21
196.651	27.31
196.87	74.41
197.089	39.59
197.308	12.97
197.528	47.79
197.747	-23.89
197.966	55.98
198.185	88.75
198.404	-1.37
198.623	113.32
198.842	-1.37
199.062	19.11
199.281	8.87
199.5	-1.37
199.719	21.16
199.938	84.65
200.157	43.69
200.376	-5.46
200.595	76.46
200.814	33.45
201.033	-9.56
201.252	27.31
201.471	15.02
201.69	60.07
201.909	27.31
202.128	66.22
202.347	47.79
202.566	60.07
202.785	-46.42
203.004	-23.89
203.223	55.98
203.442	105.13
203.661	4.78
203.879	0.68
204.098	10.92
204.317	-5.46
204.536	62.12
204.755	19.11
204.974	43.69
205.193	64.17
205.411	107.18
205.63	72.36
205.849	66.22
206.068	-25.94
206.287	37.55
206.505	15.02
206.724	66.22
206.943	25.26
207.162	117.42
207.381	35.5
207.599	51.88
207.818	0.68
208.037	64.17
208.255	-79.19
208.474	64.17
208.693	10.92
208.911	-21.85
209.13	15.02
209.349	8.87
209.567	15.02
209.786	33.45
210.005	43.69
210.223	-5.46
210.442	31.4
210.661	-48.47
210.879	-25.94
211.098	35.5
211.316	27.31
211.535	84.65
211.753	29.35
211.972	17.07
212.191	-32.08
212.409	55.98
212.628	39.59
212.846	-11.61
213.065	-1.37
213.283	15.02
213.502	37.55
213.72	21.16
213.938	33.45
214.157	-5.46
214.375	43.69
214.594	55.98
214.812	23.21
215.031	35.5
215.249	-7.51
215.467	-21.85
215.686	0.68
215.904	31.4
216.122	-54.61
216.341	51.88
216.559	-19.8
216.778	105.13
216.996	131.75
217.214	39.59
217.432	72.36
217.651	47.79
217.869	4.78
218.087	10.92
218.306	12.97
218.524	39.59
218.742	-23.89
218.96	23.21
219.179	-58.71
219.397	-38.23
219.615	96.94
219.833	64.17
220.051	0.68
220.27	27.31
220.488	37.55
220.706	23.21
220.924	31.4
221.142	33.45
221.36	-25.94
221.578	41.64
221.796	23.21
222.015	39.59
222.233	29.35
222.451	49.83
222.669	6.83
222.887	78.51
223.105	-17.75
223.323	31.4
223.541	-34.13
223.759	4.78
223.977	17.07
224.195	131.75
224.413	55.98
224.631	2.73
224.849	-7.51
225.067	101.03
225.285	-25.94
225.503	33.45
225.721	0.68
225.939	-7.51
226.157	33.45
226.375	76.46
226.592	-58.71
226.81	-1.37
227.028	21.16
227.246	-5.46
227.464	31.4
227.682	31.4
227.9	21.16
228.117	12.97
228.335	10.92
228.553	-15.7
228.771	10.92
228.989	15.02
229.206	80.55
229.424	15.02
229.642	8.87
229.86	70.31
230.077	35.5
230.295	66.22
230.513	-1.37
230.731	-1.37
230.948	-9.56
231.166	88.75
231.384	53.93
231.601	-13.65
231.819	94.89
232.037	-54.61
232.254	-1.37
232.472	90.79
232.689	-25.94
232.907	29.35
233.125	-5.46
233.342	55.98
233.56	-48.47
233.777	23.21
233.995	31.4
234.213	55.98
234.43	68.27
234.648	-64.85
234.865	78.51
235.083	51.88
235.3	55.98
235.518	-1.37
235.735	68.27
235.953	51.88
236.17	-17.75
236.388	37.55
236.605	0.68
236.822	33.45
237.04	70.31
237.257	39.59
237.475	27.31
237.692	64.17
237.909	21.16
238.127	-13.65
238.344	33.45
238.562	-15.7
238.779	-75.09
238.996	-34.13
239.214	0.68
239.431	43.69
239.648	31.4
239.865	23.21
240.083	72.36
240.3	33.45
240.517	23.21
240.735	23.21
240.952	-1.37
241.169	-13.65
241.386	33.45
241.603	25.26
241.821	2.73
242.038	-23.89
242.255	127.66
242.472	-1.37
242.689	64.17
242.907	37.55
243.124	-48.47
243.341	-9.56
243.558	-15.7
243.775	17.07
243.992	-17.75
244.209	109.22
244.426	35.5
244.643	64.17
244.86	-9.56
245.078	12.97
245.295	80.55
245.512	55.98
245.729	66.22
245.946	2.73
246.163	129.7
246.38	6.83
246.597	74.41
246.814	70.31
247.031	-32.08
247.248	-5.46
247.464	39.59
247.681	31.4
247.898	64.17
248.115	90.79
248.332	6.83
248.549	53.93
248.766	74.41
248.983	23.21
249.2	86.7
249.417	82.6
249.633	41.64
249.85	72.36
250.067	-50.52
250.284	15.02
250.501	35.5
250.717	84.65
250.934	-25.94
251.151	-5.46
251.368	-9.56
251.585	98.99
251.801	15.02
252.018	25.26
252.235	80.55
252.451	-3.41
252.668	-1.37
252.885	92.84
253.102	41.64
253.318	64.17
253.535	15.02
253.752	78.51
253.968	0.68
254.185	-40.28
254.401	47.79
254.618	-3.41
254.835	88.75
255.051	49.83
255.268	15.02
255.484	-30.04
255.701	15.02
255.917	33.45
256.134	-5.46
256.351	19.11
256.567	-32.08
256.784	35.5
257	6.83
257.217	35.5
257.433	98.99
257.65	-25.94
257.866	70.31
258.082	31.4
258.299	-5.46
258.515	64.17
258.732	-13.65
258.948	0.68
259.165	76.46
259.381	58.03
259.597	-52.56
259.814	55.98
260.03	17.07
260.246	31.4
260.463	64.17
260.679	82.6
260.895	35.5
261.112	8.87
261.328	31.4
261.544	92.84
261.761	47.79
261.977	-9.56
262.193	-17.75
262.409	17.07
262.626	55.98
262.842	64.17
263.058	51.88
263.274	82.6
263.49	17.07
263.707	58.03
263.923	15.02
264.139	-1.37
264.355	86.7
264.571	58.03
264.787	66.22
265.004	74.41
265.22	6.83
265.436	-9.56
265.652	-11.61
265.868	96.94
266.084	41.64
266.3	117.42
266.516	27.31
266.732	-62.8
266.948	-13.65
267.164	15.02
267.38	25.26
267.596	43.69
267.812	19.11
268.028	49.83
268.244	6.83
268.46	66.22
268.676	0.68
268.892	15.02
269.108	33.45
269.324	23.21
269.54	2.73
269.756	62.12
269.972	-36.18
270.188	19.11
270.403	66.22
270.619	47.79
270.835	47.79
271.051	90.79
271.267	25.26
271.483	-1.37
271.698	-5.46
271.914	72.36
272.13	70.31
272.346	58.03
272.562	39.59
272.777	64.17
272.993	-15.7
273.209	-9.56
273.425	78.51
273.64	-17.75
273.856	43.69
274.072	-32.08
274.287	82.6
274.503	4.78
274.719	64.17
274.934	19.11
275.15	23.21
275.366	33.45
275.581	-56.66
275.797	125.61
276.012	58.03
276.228	49.83
276.444	6.83
276.659	80.55
276.875	-46.42
277.09	-3.41
277.306	31.4
277.521	49.83
277.737	31.4
277.952	51.88
278.168	-7.51
278.383	17.07
278.599	82.6
278.814	66.22
279.03	10.92
279.245	45.74
279.461	60.07
279.676	39.59
279.892	15.02
280.107	-1.37
280.322	4.78
280.538	31.4
280.753	8.87
280.969	88.75
281.184	-66.9
281.399	15.02
281.615	0.68
281.83	84.65
282.045	-9.56
282.26	0.68
282.476	31.4
282.691	55.98
282.906	35.5
283.122	-1.37
283.337	-17.75
283.552	80.55
283.767	45.74
283.983	62.12
284.198	6.83
284.413	96.94
284.628	-5.46
284.843	-3.41
285.058	10.92
285.274	41.64
285.489	49.83
285.704	64.17
285.919	80.55
286.134	-5.46
286.349	39.59
286.564	-36.18
286.779	27.31
286.995	62.12
287.21	-9.56
287.425	86.7
287.64	72.36
287.855	55.98
288.07	-9.56
288.285	68.27
288.5	39.59
288.715	72.36
288.93	55.98
289.145	-15.7
289.36	35.5
289.575	23.21
289.79	15.02
290.004	31.4
290.219	37.55
290.434	10.92
290.649	4.78
290.864	-38.23
291.079	-19.8
291.294	35.5
291.509	72.36
291.724	64.17
291.938	31.4
292.153	72.36
292.368	6.83
292.583	37.55
292.798	8.87
293.012	-1.37
293.227	4.78
293.442	-32.08
293.657	-5.46
293.871	72.36
294.086	72.36
294.301	33.45
294.516	12.97
294.73	33.45
294.945	-13.65
295.16	6.83
295.374	90.79
295.589	68.27
295.804	35.5
296.018	8.87
296.233	-3.41
296.447	19.11
296.662	101.03
296.877	21.16
297.091	-1.37
297.306	6.83
297.52	-25.94
297.735	55.98
297.949	-9.56
298.164	43.69
298.378	47.79
298.593	15.02
298.807	15.02
299.022	15.02
299.236	107.18
299.451	0.68
299.665	-23.89
299.88	37.55
300.094	-9.56
300.309	-50.52
300.523	-9.56
300.737	-25.94
300.952	23.21
301.166	101.03
301.381	82.6
301.595	76.46
301.809	21.16
302.024	94.89
302.238	6.83
302.452	25.26
302.667	15.02
302.881	53.93
303.095	45.74
303.309	-48.47
303.524	39.59
303.738	35.5
303.952	-7.51
304.166	17.07
304.381	-1.37
304.595	25.26
304.809	-56.66
305.023	25.26
305.237	96.94
305.452	84.65
305.666	135.85
305.88	64.17
306.094	43.69
306.308	98.99
306.522	74.41
306.736	64.17
306.95	72.36
307.164	25.26
307.379	-50.52
307.593	8.87
307.807	76.46
308.021	6.83
308.235	15.02
308.449	-25.94
308.663	84.65
308.877	74.41
309.091	47.79
309.305	60.07
309.519	-87.38
309.733	109.22
309.947	39.59
310.161	64.17
310.374	-17.75
310.588	15.02
310.802	80.55
311.016	64.17
311.23	80.55
311.444	15.02
311.658	-15.7
311.872	33.45
312.085	64.17
312.299	80.55
312.513	47.79
312.727	19.11
312.941	-48.47
313.154	107.18
313.368	31.4
313.582	68.27
313.796	6.83
314.009	64.17
314.223	-25.94
314.437	2.73
314.651	60.07
314.864	76.46
315.078	2.73
315.292	17.07
315.505	35.5
315.719	17.07
315.933	25.26
316.146	72.36
316.36	0.68
316.573	-1.37
316.787	49.83
317.001	2.73
317.214	51.88
317.428	47.79
317.641	10.92
317.855	49.83
318.068	15.02
318.282	17.07
318.495	72.36
318.709	80.55
318.922	-25.94
319.136	92.84
319.349	72.36
319.563	6.83
319.776	4.78
319.99	-34.13
320.203	2.73
320.417	60.07
320.63	74.41
320.843	-3.41
321.057	-30.04
321.27	-23.89
321.483	51.88
321.697	76.46
321.91	51.88
322.124	0.68
322.337	-15.7
322.55	64.17
322.763	107.18
322.977	31.4
323.19	-25.94
323.403	-25.94
323.617	82.6
323.83	72.36
324.043	80.55
324.256	12.97
324.469	45.74
324.683	35.5
324.896	43.69
325.109	15.02
325.322	41.64
325.535	49.83
325.748	47.79
325.962	55.98
326.175	15.02
326.388	41.64
326.601	25.26
326.814	-17.75
327.027	-19.8
327.24	131.75
327.453	-54.61
327.666	-36.18
327.879	58.03
328.092	35.5
328.305	74.41
328.518	80.55
328.731	33.45
328.944	58.03
329.157	41.64
329.37	-5.46
329.583	80.55
329.796	105.13
330.009	49.83
330.222	37.55
330.435	-1.37
330.648	115.37
330.861	105.13
331.073	39.59
331.286	58.03
331.499	92.84
331.712	2.73
331.925	-40.28
332.138	64.17
332.35	88.75
332.563	49.83
332.776	68.27
332.989	19.11
333.202	105.13
333.414	139.94
333.627	64.17
333.84	-9.56
334.053	47.79
334.265	66.22
334.478	15.02
334.691	15.02
334.903	-34.13
335.116	-99.67
335.329	80.55
335.541	96.94
335.754	113.32
335.966	-5.46
336.179	55.98
336.392	35.5
336.604	31.4
336.817	-15.7
337.029	74.41
337.242	62.12
337.454	64.17
337.667	23.21
337.88	-11.61
338.092	55.98
338.305	88.75
338.517	41.64
338.729	-23.89
338.942	43.69
339.154	15.02
339.367	23.21
339.579	60.07
339.792	82.6
340.004	39.59
340.217	23.21
340.429	17.07
340.641	51.88
340.854	35.5
341.066	27.31
341.278	101.03
341.491	68.27
341.703	39.59
341.915	-58.71
342.128	15.02
342.34	12.97
342.552	55.98
342.764	55.98
342.977	82.6
343.189	60.07
343.401	107.18
343.613	10.92
343.826	98.99
344.038	47.79
344.25	88.75
344.462	-5.46
344.674	103.08
344.886	-9.56
345.099	80.55
345.311	-52.56
345.523	66.22
345.735	8.87
345.947	25.26
346.159	49.83
346.371	0.68
346.583	27.31
346.795	66.22
347.007	-21.85
347.219	35.5
347.431	23.21
347.643	119.46
347.855	-34.13
348.067	39.59
348.279	17.07
348.491	121.51
348.703	64.17
348.915	19.11
349.127	29.35
349.339	-1.37
349.551	47.79
349.763	70.31
349.975	27.31
350.187	105.13
350.399	15.02
350.61	58.03
350.822	2.73
351.034	41.64
351.246	33.45
351.458	43.69
351.669	47.79
351.881	55.98
352.093	55.98
352.305	101.03
352.517	-42.32
352.728	66.22
352.94	51.88
353.152	98.99
353.363	78.51
353.575	21.16
353.787	129.7
353.999	47.79
354.21	105.13
354.422	62.12
354.633	82.6
354.845	64.17
355.057	-7.51
355.268	90.79
355.48	17.07
355.692	25.26
355.903	101.03
356.115	66.22
356.326	-52.56
356.538	115.37
356.749	68.27
356.961	84.65
357.172	29.35
357.384	39.59
357.595	113.32
357.807	19.11
358.018	53.93
358.23	6.83
358.441	45.74
358.653	74.41
358.864	15.02
359.075	8.87
359.287	2.73
359.498	109.22
359.709	58.03
359.921	0.68
360.132	55.98
360.344	37.55
360.555	78.51
360.766	39.59
360.977	-17.75
361.189	35.5
361.4	33.45
361.611	90.79
361.823	60.07
362.034	64.17
362.245	19.11
362.456	107.18
362.667	105.13
362.879	49.83
363.09	64.17
363.301	82.6
363.512	64.17
363.723	98.99
363.935	21.16
364.146	129.7
364.357	88.75
364.568	-9.56
364.779	-3.41
364.99	58.03
365.201	-34.13
365.412	17.07
365.623	35.5
365.834	43.69
366.045	17.07
366.256	96.94
366.467	107.18
366.678	33.45
366.889	55.98
367.1	47.79
367.311	43.69
367.522	68.27
367.733	39.59
367.944	72.36
368.155	53.93
368.366	58.03
368.577	64.17
368.788	47.79
368.999	-32.08
369.209	66.22
369.42	76.46
369.631	141.99
369.842	29.35
370.053	35.5
370.264	6.83
370.474	92.84
370.685	43.69
370.896	35.5
371.107	148.14
371.317	84.65
371.528	35.5
371.739	23.21
371.95	43.69
372.16	72.36
372.371	72.36
372.582	-17.75
372.792	101.03
373.003	86.7
373.214	-3.41
373.424	111.27
373.635	74.41
373.846	49.83
374.056	23.21
374.267	39.59
374.477	15.02
374.688	86.7
374.898	72.36
375.109	15.02
375.319	84.65
375.53	115.37
375.74	84.65
375.951	64.17
376.161	88.75
376.372	146.09
376.582	58.03
376.793	64.17
377.003	-32.08
377.214	6.83
377.424	23.21
377.635	129.7
377.845	88.75
378.055	43.69
378.266	27.31
378.476	55.98
378.686	23.21
378.897	103.08
379.107	-1.37
379.317	6.83
379.528	55.98
379.738	82.6
379.948	15.02
380.158	58.03
380.369	17.07
380.579	49.83
380.789	84.65
380.999	96.94
381.21	-9.56
381.42	72.36
381.63	15.02
381.84	6.83
382.05	94.89
382.261	-9.56
382.471	27.31
382.681	35.5
382.891	66.22
383.101	2.73
383.311	2.73
383.521	39.59
383.731	121.51
383.941	101.03
384.151	55.98
384.361	80.55
384.571	25.26
384.781	2.73
384.991	43.69
385.201	137.9
385.411	129.7
385.621	70.31
385.831	27.31
386.041	66.22
386.251	27.31
386.461	121.51
386.671	88.75
386.881	107.18
387.091	-60.76
387.301	72.36
387.511	33.45
387.72	17.07
387.93	133.8
388.14	31.4
388.35	27.31
388.56	135.85
388.769	94.89
388.979	66.22
389.189	47.79
389.399	35.5
389.609	2.73
389.818	133.8
390.028	76.46
390.238	17.07
390.447	27.31
390.657	72.36
390.867	35.5
391.076	-34.13
391.286	41.64
391.496	-9.56
391.705	84.65
391.915	103.08
392.125	111.27
392.334	135.85
392.544	187.05
392.753	55.98
392.963	-13.65
393.172	17.07
393.382	15.02
393.591	74.41
393.801	39.59
394.01	115.37
394.22	129.7
394.429	74.41
394.639	82.6
394.848	19.11
395.058	96.94
395.267	150.18
395.477	78.51
395.686	117.42
395.895	72.36
396.105	121.51
396.314	72.36
396.524	70.31
396.733	80.55
396.942	141.99
397.152	66.22
397.361	117.42
397.57	107.18
397.78	133.8
397.989	146.09
398.198	215.72
398.407	58.03
398.617	105.13
398.826	170.66
399.035	96.94
399.244	166.57
399.453	98.99
399.663	119.46
399.872	146.09
400.081	121.51
400.29	146.09
400.499	135.85
400.708	51.88
400.917	47.79
401.127	66.22
401.336	107.18
401.545	141.99
401.754	146.09
401.963	166.57
402.172	58.03
402.381	154.28
402.59	141.99
402.799	146.09
403.008	211.62
403.217	187.05
403.426	180.9
403.635	182.95
403.844	174.76
404.053	144.04
404.262	178.86
404.471	164.52
404.68	180.9
404.888	154.28
405.097	228.01
405.306	174.76
405.515	205.48
405.724	193.19
405.933	201.38
406.142	240.29
406.35	252.58
406.559	240.29
406.768	205.48
406.977	232.1
407.185	170.66
407.394	262.82
407.603	213.67
407.812	275.11
408.02	262.82
408.229	244.39
408.438	211.62
408.646	301.73
408.855	277.16
409.064	256.68
409.272	234.15
409.481	383.65
409.69	289.45
409.898	330.41
410.107	422.56
410.315	350.89
410.524	367.27
410.733	395.94
410.941	377.51
411.15	481.96
411.358	420.52
411.567	494.24
411.775	486.05
411.984	533.15
412.192	490.15
412.401	475.81
412.609	490.15
412.818	625.31
413.026	596.64
413.234	647.84
413.443	563.87
413.651	629.41
413.86	653.98
414.068	664.22
414.276	684.7
414.485	737.95
414.693	744.1
414.901	871.07
415.11	889.5
415.318	821.92
415.526	909.98
415.734	836.25
415.943	967.32
416.151	1102.49
416.359	957.08
416.567	1055.39
416.776	996
416.984	1114.78
417.192	1067.67
417.4	1178.26
417.608	1145.5
417.817	1161.88
418.025	1262.23
418.233	1350.29
418.441	1338.01
418.649	1411.73
418.857	1393.3
419.065	1563.28
419.273	1571.47
419.481	1589.91
419.689	1694.35
419.897	1708.69
420.105	1786.51
420.313	1821.33
420.521	1882.77
420.729	1890.96
420.937	2108.04
421.145	2093.71
421.353	2198.15
421.561	2267.78
421.769	2228.87
421.977	2378.37
422.185	2275.98
422.393	2579.08
422.601	2685.57
422.809	2654.85
423.017	2777.73
423.224	2783.87
423.432	2964.09
423.64	3029.63
423.848	3218.04
424.056	3105.4
424.263	3422.84
424.471	3390.07
424.679	3416.69
424.887	3570.29
425.094	3627.64
425.302	3742.32
425.51	3787.38
425.718	4072.04
425.925	3992.17
426.133	4225.64
426.341	4520.55
426.548	4602.47
426.756	4590.18
426.964	4610.66
427.171	4883.04
427.379	5014.11
427.586	5022.3
427.794	5530.2
428.001	5622.36
428.209	5945.94
428.417	5778
428.624	6191.69
428.832	6140.49
429.039	6029.9
429.247	6126.16
429.454	6683.2
429.662	7105.09
429.869	6650.44
430.076	7213.63
430.284	6896.19
430.491	7027.26
430.699	7375.42
430.906	7643.7
431.114	7649.85
431.321	8112.69
431.528	8350.25
431.736	8673.83
431.943	8888.87
432.15	8708.65
432.358	8878.63
432.565	9302.56
432.772	9275.93
432.979	9812.5
433.187	10015.25
433.394	9955.86
433.601	10697.22
433.808	10848.77
434.016	10566.15
434.223	11166.21
434.43	11700.73
434.637	11495.93
434.844	12433.9
435.052	12601.83
435.259	12317.17
435.466	12380.65
435.673	12327.41
435.88	13140.45
436.087	13816.28
436.294	13730.27
436.501	13568.48
436.708	13890.01
436.915	14387.66
437.122	14918.09
437.329	14918.09
437.537	15374.78
437.743	15874.49
437.95	15479.23
438.157	16220.6
438.364	16669.1
438.571	16574.89
438.778	16751.02
438.985	18426.26
439.192	17598.88
439.399	18338.19
439.606	17619.36
439.813	18710.93
440.02	20099.45
440.227	19392.9
440.433	19495.3
440.64	20240.76
440.847	19870.08
441.054	20402.55
441.261	21844.32
441.467	21277.03
441.674	22104.41
441.881	22563.15
442.088	22772.05
442.294	22544.72
442.501	23320.9
442.708	23505.22
442.914	24082.75
443.121	25192.75
443.328	24635.7
443.534	26587.41
443.741	25608.48
443.948	25293.1
444.154	27465.99
444.361	26777.87
444.568	27343.11
444.774	27302.15
444.981	27515.14
445.187	27914.5
445.394	29808.87
445.6	29409.51
445.807	32198.85
446.013	30271.71
446.22	31432.91
446.426	32534.71
446.633	32458.94
446.839	33421.48
447.046	32147.65
447.252	34279.58
447.459	34545.82
447.665	33765.54
447.871	35641.48
448.078	37177.46
448.284	35283.09
448.491	36040.84
448.697	37488.75
448.903	37992.55
449.11	38336.61
449.316	37597.29
449.522	38557.79
449.728	39460.94
449.935	39747.66
450.141	39784.52
450.347	40343.62
450.553	39073.88
450.76	39542.86
450.966	41023.54
451.172	40648.77
451.378	42004.52
451.584	41125.94
451.791	41773.1
451.997	41670.7
452.203	42711.07
452.409	42156.07
452.615	42088.49
452.821	40747.07
453.027	40104.01
453.233	42371.11
453.44	40800.32
453.646	41166.9
453.852	41447.47
454.058	42387.49
454.264	40611.9
454.47	41426.99
454.676	40663.1
454.882	42098.73
455.088	38420.58
455.294	38811.74
455.5	39764.04
455.705	40058.95
455.911	38709.34
456.117	37490.8
456.323	37335.15
456.529	35274.9
456.735	37427.31
456.941	35924.1
457.147	35543.18
457.352	33968.29
457.558	34109.6
457.764	33775.78
457.97	33175.73
458.176	32665.78
458.381	32886.96
458.587	31221.97
458.793	31006.93
458.999	29544.68
459.204	31860.93
459.41	30494.94
459.616	28530.94
459.821	28786.93
460.027	28772.6
460.233	28145.92
460.438	26558.74
460.644	26765.59
460.85	25598.24
461.055	25641.25
461.261	25207.08
461.466	23574.85
461.672	22755.66
461.878	24510.77
462.083	22845.77
462.289	22274.39
462.494	22276.44
462.7	21135.72
462.905	20310.39
463.111	21213.54
463.316	21365.09
463.522	20762.99
463.727	20928.88
463.932	20926.83
464.138	20566.38
464.343	20609.39
464.549	19954.04
464.754	20963.69
464.959	20654.45
465.165	20627.82
465.37	19786.11
465.575	18913.67
465.781	19818.88
465.986	19890.56
466.191	18792.84
466.397	18823.56
466.602	17799.58
466.807	18702.73
467.012	18729.36
467.218	18608.53
467.423	18127.25
467.628	18571.66
467.833	19224.97
468.038	18442.64
468.244	17883.55
468.449	18682.25
468.654	17961.37
468.859	18047.38
469.064	18004.38
469.269	17234.34
469.474	17150.37
469.679	17457.57
469.885	16986.54
470.09	17119.65
470.295	17115.56
470.5	16775.59
470.705	16783.79
470.91	16554.41
471.115	16306.61
471.32	16560.56
471.525	16615.85
471.73	15845.82
471.935	15911.35
472.139	15350.21
472.344	15747.51
472.549	15432.13
472.754	15206.85
472.959	15362.5
473.164	14686.67
473.369	14557.64
473.574	15071.68
473.778	14821.83
473.983	14725.58
474.188	14903.75
474.393	14244.31
474.598	14062.04
474.802	13771.22
475.007	13861.34
475.212	13812.18
475.417	13384.16
475.621	13595.1
475.826	13537.76
476.031	13087.2
476.235	12868.07
476.44	13083.11
476.645	12823.01
476.849	12933.61
477.054	12663.27
477.259	12476.91
477.463	12528.11
477.668	12284.4
477.872	12401.13
478.077	12200.43
478.282	11883
478.486	11710.97
478.691	11786.74
478.895	11655.67
479.1	11772.41
479.304	11708.92
479.509	11373.05
479.713	11475.45
479.918	11379.2
480.122	11276.8
480.326	11461.12
480.531	11239.94
480.735	11131.39
480.94	11016.71
481.144	11309.57
481.348	10824.2
481.553	10924.55
481.757	10648.07
481.961	11231.74
482.166	11319.81
482.37	10852.87
482.574	10713.61
482.778	10848.77
482.983	11172.35
483.187	10725.89
483.391	10830.34
483.595	10562.06
483.8	10672.65
484.004	10748.42
484.208	10893.83
484.412	10928.64
484.616	10836.49
484.821	10883.59
485.025	10473.99
485.229	10940.93
485.433	10623.5
485.637	10770.95
485.841	10566.15
486.045	10625.54
486.249	10852.87
486.453	10768.9
486.657	10775.05
486.861	10693.13
487.065	10658.31
487.269	10641.93
487.473	10820.1
487.677	10799.62
487.881	10910.21
488.085	10627.59
488.289	10691.08
488.493	10811.91
488.697	10918.4
488.901	10715.66
489.105	10846.73
489.309	10869.25
489.512	10942.98
489.716	11104.77
489.92	10967.56
490.124	11008.51
490.328	11258.37
490.531	10910.21
490.735	10949.12
490.939	11225.6
491.143	10863.11
491.346	11061.76
491.55	11299.33
491.754	11151.87
491.958	11524.6
492.161	11170.3
492.365	11313.66
492.569	11538.94
492.772	11477.5
492.976	11583.99
493.18	11557.37
493.383	11708.92
493.587	11821.56
493.79	11756.02
493.994	11713.02
494.197	11839.99
494.401	11966.96
494.605	12239.34
494.808	12265.97
495.012	12124.66
495.215	12116.47
495.419	12446.19
495.622	12392.94
495.825	12317.17
496.029	12435.95
496.232	12900.84
496.436	12601.83
496.639	13023.72
496.843	12990.95
497.046	13122.02
497.249	13228.51
497.453	13380.06
497.656	13597.15
497.859	13717.98
498.063	13617.63
498.266	14184.91
498.469	14135.76
498.673	14033.36
498.876	14213.59
499.079	14422.48
499.282	14369.23
499.485	14838.22
499.689	14614.99
499.892	15231.43
500.095	15073.73
500.298	15405.5
500.501	15483.33
500.705	15890.87
500.908	15960.5
501.111	16335.28
501.314	16349.62
501.517	16544.17
501.72	16267.7
501.923	16259.51
502.126	16898.47
502.329	17181.09
502.532	17293.73
502.735	17459.62
502.938	17664.41
503.141	17701.28
503.344	18016.66
503.547	18092.44
503.75	18151.83
503.953	18467.22
504.156	18803.08
504.359	18796.94
504.562	19077.51
504.765	19118.47
504.968	19435.91
505.17	19784.06
505.373	19814.78
505.576	20285.81
505.779	20242.81
505.982	20326.77
506.185	20842.86
506.387	20769.13
506.59	21258.6
506.793	21789.02
506.996	21522.79
507.198	21868.89
507.401	22040.92
507.604	22339.93
507.807	22692.18
508.009	22821.2
508.212	22970.7
508.415	23425.35
508.617	23707.97
508.82	23808.32
509.022	23398.73
509.225	24064.32
509.428	24185.15
509.63	24478.01
509.833	24410.42
510.035	25385.26
510.238	25084.2
510.44	25669.92
510.643	25876.77
510.845	26241.31
511.048	25960.73
511.25	26437.91
511.453	26460.44
511.655	27341.07
511.858	27261.19
512.06	27558.15
512.262	27689.22
512.465	27787.52
512.667	28076.29
512.87	28416.25
513.072	28713.2
513.274	29194.48
513.477	29343.98
513.679	29436.14
513.881	29671.65
514.084	30245.09
514.286	29962.47
514.488	30539.99
514.69	31064.27
514.893	31353.04
515.095	31738.05
515.297	31977.67
515.499	32010.43
515.701	32426.17
515.904	32630.97
516.106	32696.5
516.308	32622.78
516.51	33851.56
516.712	33732.78
516.914	33956
517.116	34433.18
517.318	34326.69
517.52	34748.57
517.722	34873.49
517.925	35356.82
518.127	35967.11
518.329	35557.52
518.531	35446.93
518.733	36483.2
518.935	36843.64
519.136	36665.47
519.338	37300.34
519.54	37664.88
519.742	37777.51
519.944	37933.16
520.146	38803.55
520.348	38631.52
520.55	38883.42
520.752	39272.53
520.954	39686.22
521.155	39561.29
521.357	39721.04
521.559	40204.36
521.761	40794.17
521.963	40898.62
522.164	41060.41
522.366	41101.37
522.568	41480.24
522.77	41859.12
522.971	42389.54
523.173	42004.52
523.375	42176.55
523.576	42518.56
523.778	42371.11
523.98	43159.58
524.181	43337.75
524.383	43378.71
524.584	44163.08
524.786	43888.65
524.988	43567.12
525.189	44288.01
525.391	44560.39
525.592	44492.8
525.794	45496.31
525.995	45068.28
526.197	45037.56
526.398	45326.33
526.6	45567.99
526.801	45633.52
527.003	45600.75
527.204	45756.4
527.406	45852.65
527.607	46082.03
527.808	46499.81
528.01	45934.57
528.211	46237.67
528.412	47302.62
528.614	46733.28
528.815	46460.9
529.016	47611.86
529.218	46970.85
529.419	47314.9
529.62	47337.43
529.822	47335.38
530.023	47488.98
530.224	47325.14
530.425	47232.99
530.626	47218.65
530.828	46901.22
531.029	48265.16
531.23	47912.91
531.431	47798.23
531.632	48203.72
531.833	48011.21
532.035	47947.73
532.236	47792.08
532.437	48005.07
532.638	48199.63
532.839	48590.79
533.04	48457.67
533.241	47618
533.442	48717.76
533.643	48347.08
533.844	47949.78
534.045	48046.03
534.246	47740.88
534.447	48328.65
534.648	48226.25
534.849	48383.94
535.05	47974.35
535.251	48203.72
535.451	48062.41
535.652	48412.62
535.853	47912.91
536.054	48377.8
536.255	48299.98
536.456	47857.62
536.657	48447.43
536.857	48136.14
537.058	48160.72
537.259	48807.87
537.46	48191.44
537.66	47984.59
537.861	48416.71
538.062	48105.42
538.263	48383.94
538.463	48177.1
538.664	48162.76
538.865	48385.99
539.065	48441.29
539.266	48066.51
539.466	48562.12
539.667	47636.44
539.868	48347.08
540.068	48007.12
540.269	48318.41
540.469	48496.58
540.67	47853.52
540.87	47775.7
541.071	48179.15
541.271	48326.6
541.472	47982.54
541.672	48015.31
541.873	47507.41
542.073	47626.2
542.274	48127.95
542.474	47572.95
542.675	47337.43
542.875	48369.61
543.075	48281.55
543.276	47300.57
543.476	47966.16
543.676	47771.6
543.877	47646.68
544.077	47507.41
544.277	47771.6
544.478	47347.67
544.678	47990.73
544.878	47724.5
545.078	47710.16
545.279	47493.08
545.479	47448.02
545.679	48025.55
545.879	47515.61
546.079	47482.84
546.28	47919.06
546.48	47314.9
546.68	47609.81
546.88	47886.29
547.08	47687.64
547.28	47515.61
547.48	47114.2
547.68	47542.23
547.88	47239.13
548.081	47929.3
548.281	47237.08
548.481	47251.42
548.681	47661.01
548.881	47620.05
549.081	47435.73
549.28	47589.33
549.48	47427.54
549.68	47237.08
549.88	47964.11
550.08	46886.88
550.28	47329.24
550.48	47507.41
550.68	47036.38
550.88	46944.22
551.08	47331.29
551.279	47310.81
551.479	46983.13
551.679	47591.38
551.879	47192.03
552.079	47693.78
552.278	47085.53
552.478	47169.5
552.678	46960.61
552.878	47290.33
553.077	47036.38
553.277	46839.78
553.477	47470.55
553.676	46675.94
553.876	46759.91
554.076	47015.9
554.275	46723.04
554.475	46624.74
554.674	47206.36
554.874	47056.86
555.074	46872.54
555.273	46895.07
555.473	47212.51
555.672	46215.15
555.872	46639.07
556.071	46737.38
556.271	47140.83
556.47	46223.34
556.67	46297.06
556.869	46870.5
557.068	46657.51
557.268	46305.26
557.467	47110.11
557.667	46280.68
557.866	46358.5
558.065	46411.75
558.265	46098.41
558.464	46010.35
558.663	46325.74
558.863	46202.86
559.062	46673.89
559.261	45953.01
559.461	46036.97
559.66	45707.25
559.859	46026.73
560.058	45821.94
560.258	45910
560.457	45486.07
560.656	46120.94
560.855	45721.58
561.054	45524.98
561.253	45453.3
561.453	45690.87
561.652	45893.61
561.851	45838.32
562.05	45369.33
562.249	45017.08
562.448	45252.6
562.647	45369.33
562.846	45324.28
563.045	45363.19
563.244	44818.43
563.443	45109.24
563.642	44519.43
563.841	45012.99
564.04	44812.29
564.239	45219.83
564.438	44752.9
564.637	44978.17
564.836	45199.35
565.035	44765.18
565.234	44414.98
565.432	44384.26
565.631	44242.95
565.83	44369.93
566.029	44498.95
566.228	44075.02
566.427	44281.86
566.625	43644.94
566.824	43585.55
567.023	43976.72
567.222	43409.43
567.42	43956.24
567.619	43759.63
567.818	43446.29
568.016	43442.2
568.215	43728.91
568.414	43546.64
568.612	43425.81
568.811	43182.1
569.01	43382.8
569.208	42690.59
569.407	43391
569.605	42694.69
569.804	43505.68
570.002	42403.88
570.201	42620.96
570.4	42092.58
570.598	42448.93
570.797	42418.21
570.995	42643.49
571.193	41955.37
571.392	42504.23
571.59	41582.64
571.789	41756.72
571.987	41814.06
572.186	41746.48
572.384	42102.82
572.582	41570.35
572.781	41926.7
572.979	41173.05
573.177	41740.33
573.376	41349.17
573.574	41171
573.772	41252.92
573.971	40888.38
574.169	40798.27
574.367	40321.09
574.565	40781.88
574.763	40611.9
574.962	40736.83
575.16	40194.12
575.358	40593.47
575.556	40036.42
575.754	40431.68
575.952	39997.51
576.151	40218.69
576.349	39751.76
576.547	39923.79
576.745	40155.21
576.943	39899.21
577.141	39381.07
577.339	39770.19
577.537	39348.31
577.735	39358.55
577.933	38910.04
578.131	39137.37
578.329	39202.9
578.527	38678.62
578.725	39153.75
578.923	38903.9
579.121	38748.25
579.319	38791.26
579.516	39303.25
579.714	38502.5
579.912	38514.78
580.11	38314.08
580.308	38522.97
580.506	38314.08
580.704	38156.39
580.901	38021.22
581.099	38260.83
581.297	37734.51
581.495	37552.24
581.692	37761.13
581.89	37642.35
582.088	38053.99
582.285	37363.82
582.483	37554.29
582.681	37214.32
582.878	37408.88
583.076	36667.52
583.274	37070.97
583.471	36640.89
583.669	36581.5
583.866	36806.78
584.064	36941.94
584.262	36157.57
584.459	36642.94
584.657	36515.97
584.854	36753.53
585.052	36212.87
585.249	36112.52
585.447	36372.61
585.644	35799.18
585.841	36141.19
586.039	36063.36
586.236	35342.48
586.434	35807.37
586.631	35172.5
586.828	35674.25
587.026	35127.44
587.223	35426.45
587.42	35217.55
587.618	35178.64
587.815	34902.17
588.012	34693.27
588.21	34728.09
588.407	34799.77
588.604	34744.47
588.801	34283.68
588.999	34568.35
589.196	34439.33
589.393	34263.2
589.59	34130.08
589.787	34048.16
589.984	33933.48
590.182	33783.98
590.379	33788.07
590.576	33634.47
590.773	33851.56
590.97	33644.71
591.167	33732.78
591.364	33204.4
591.561	33411.24
591.758	32907.44
591.955	33175.73
592.152	32751.8
592.349	32954.55
592.546	32868.53
592.743	32891.06
592.94	32096.45
593.137	32641.21
593.334	32735.42
593.531	32475.32
593.727	32553.15
593.924	32123.07
594.121	31783.11
594.318	32217.28
594.515	31754.44
594.712	32108.74
594.908	31781.06
595.105	31813.83
595.302	31275.21
595.499	31680.71
595.696	31441.1
595.892	31604.94
596.089	31402.19
596.286	31494.35
596.482	31264.97
596.679	31154.38
596.876	31178.96
597.072	30773.46
597.269	30798.04
597.466	30628.06
597.662	30492.89
597.859	30568.66
598.055	30591.19
598.252	30353.63
598.448	30576.86
598.645	30263.52
598.841	29706.47
599.038	30228.7
599.234	30056.67
599.431	29489.38
599.627	29845.73
599.824	29772
600.02	29460.71
600.217	29323.5
600.413	29348.07
600.609	29532.39
600.806	29169.9
601.002	29440.23
601.198	29083.89
601.395	29145.33
601.591	29128.94
601.787	28983.54
601.984	28518.65
602.18	29061.36
602.376	28621.05
602.572	28471.54
602.769	28621.05
602.965	28510.46
603.161	28246.27
603.357	28002.56
603.553	27808
603.75	28127.49
603.946	28000.51
604.142	28113.15
604.338	27732.23
604.534	27963.65
604.73	27609.35
604.926	27539.72
605.122	27697.41
605.318	27316.49
605.514	27107.6
605.71	27156.75
605.906	27126.03
606.102	27078.93
606.298	27240.71
606.494	27144.46
606.69	27044.11
606.886	26888.46
607.082	26646.8
607.278	26761.49
607.474	26288.41
607.67	26679.57
607.866	26304.79
608.062	26497.3
608.257	26636.56
608.453	26325.27
608.649	26513.69
608.845	25930.01
609.041	26081.56
609.236	26128.67
609.432	26063.13
609.628	25776.42
609.824	25997.6
610.019	25721.12
610.215	26036.51
610.411	25962.78
610.606	25749.79
610.802	25721.12
610.998	25579.81
611.193	25755.94
611.389	25633.06
611.584	25366.82
611.78	25213.23
611.976	25442.6
612.171	25436.45
612.367	25043.24
612.562	24965.42
612.758	24975.66
612.953	25174.31
613.149	25190.7
613.344	24666.42
613.539	25215.27
613.735	25067.82
613.93	24936.75
614.126	24451.38
614.321	25278.76
614.517	24537.4
614.712	24690.99
614.907	24697.14
615.103	24723.76
615.298	24582.45
615.493	24611.12
615.688	24310.07
615.884	24848.69
616.079	24310.07
616.274	24047.93
616.47	24418.61
616.665	24262.97
616.86	24211.77
617.055	24148.28
617.25	23904.57
617.445	24238.39
617.641	23755.07
617.836	23933.25
618.031	23830.85
618.226	23499.08
618.421	23632.19
618.616	23789.89
618.811	23404.87
619.006	23621.95
619.201	23337.29
619.396	23028.04
619.591	22946.12
619.786	23185.74
619.981	22911.31
620.176	23267.66
620.371	22982.99
620.566	22802.77
620.761	22384.98
620.956	22905.17
621.151	22505.81
621.346	22335.83
621.541	22178.14
621.735	22223.19
621.93	21850.46
622.125	22116.7
622.32	21639.52
622.515	21887.32
622.709	21655.9
622.904	21696.86
623.099	21313.89
623.294	21580.13
623.488	20994.41
623.683	21256.55
623.878	20762.99
624.072	20912.49
624.267	20990.31
624.462	20840.81
624.656	20470.13
624.851	20590.96
625.046	20271.48
625.24	20386.16
625.435	20019.58
625.629	19906.94
625.824	19769.72
626.018	19904.89
626.213	19843.45
626.407	19618.18
626.602	19446.15
626.796	19564.93
626.991	19245.44
627.185	19345.8
627.38	19110.28
627.574	18891.15
627.768	18891.15
627.963	18850.19
628.157	18755.98
628.352	18606.48
628.546	18526.61
628.74	18442.64
628.935	18694.54
629.129	18106.77
629.323	17965.46
629.517	18119.06
629.712	18217.36
629.906	17713.56
630.1	17709.47
630.294	17605.02
630.489	17381.79
630.683	17582.49
630.877	17152.42
631.071	17459.62
631.265	17312.16
631.459	17250.72
631.653	16996.78
631.848	16986.54
632.042	17007.02
632.236	17062.31
632.43	16753.07
632.624	16527.79
632.818	16515.5
633.012	16382.38
633.206	16228.79
633.4	16304.56
633.594	15950.26
633.788	16138.68
633.982	16200.12
634.176	15940.02
634.369	15727.03
634.563	16030.13
634.757	15929.78
634.951	15729.08
635.145	15522.24
635.339	15608.25
635.533	15428.03
635.726	15550.91
635.92	15208.9
636.114	15397.31
636.308	15362.5
636.501	15100.36
636.695	14961.09
636.889	14881.22
637.083	14682.57
637.276	14510.54
637.47	14758.35
637.664	14678.47
637.857	14588.36
638.051	14457.29
638.244	14211.54
638.438	14270.93
638.632	14236.11
638.825	13986.26
639.019	14256.59
639.212	13801.94
639.406	13767.13
639.599	13859.29
639.793	13810.14
639.986	13650.39
640.18	13621.72
640.373	13517.28
640.567	13380.06
640.76	13691.35
640.954	13406.69
641.147	13322.72
641.34	13027.81
641.534	13097.44
641.727	13099.49
641.92	13265.38
642.114	12804.58
642.307	12904.93
642.5	12734.95
642.694	12429.8
642.887	12433.9
643.08	12929.51
643.273	12540.4
643.467	12304.88
643.66	12288.5
643.853	12343.79
644.046	12138.99
644.239	12179.95
644.432	12085.75
644.626	12100.08
644.819	11860.47
645.012	11989.49
645.205	12120.56
645.398	11930.1
645.591	11622.91
645.784	11807.22
645.977	11457.02
646.17	11772.41
646.363	11344.38
646.556	11180.54
646.749	11403.77
646.942	11465.21
647.135	11342.33
647.328	11190.78
647.521	11256.32
647.714	10807.81
647.907	10994.18
648.099	11008.51
648.292	11037.19
648.485	10918.4
648.678	10992.13
648.871	10699.27
649.064	10566.15
649.256	10781.19
649.449	10578.44
649.642	10777.09
649.835	10521.1
650.027	10439.18
650.22	10263.05
650.413	10185.23
650.605	10246.67
650.798	10256.91
650.991	9988.63
651.183	10267.15
651.376	10107.41
651.568	9828.88
651.761	9740.82
651.954	9927.19
652.146	9798.17
652.339	9910.8
652.531	9787.93
652.724	9519.64
652.916	9476.63
653.109	9579.03
653.301	9517.59
653.494	9470.49
653.686	9312.8
653.879	9486.87
654.071	9431.58
654.263	9361.95
654.456	9366.04
654.648	9374.24
654.84	9216.54
655.033	9132.58
655.225	9046.56
655.417	8983.07
655.61	9001.51
655.802	8884.77
655.994	9021.98
656.186	8976.93
656.379	8714.79
656.571	8755.75
656.763	8505.9
656.955	8679.97
657.148	8550.95
657.34	8618.54
657.532	8542.76
657.724	8505.9
657.916	8444.46
658.108	8380.97
658.3	8397.35
658.492	8133.17
658.684	8204.85
658.876	8192.56
659.068	8215.09
659.26	8028.72
659.452	8055.34
659.644	8114.73
659.836	7936.56
660.028	7942.71
660.22	7772.72
660.412	7766.58
660.604	7887.41
660.796	7954.99
660.988	7717.43
661.18	7529.02
661.372	7545.4
661.563	7676.47
661.755	7498.3
661.947	7584.31
662.139	7426.62
662.331	7494.2
662.522	7412.28
662.714	7387.71
662.906	7125.57
663.097	7281.21
663.289	7215.68
663.481	7232.06
663.673	7215.68
663.864	7236.16
664.056	6996.54
664.247	7146.05
664.439	6994.5
664.631	7043.65
664.822	6937.15
665.014	7002.69
665.205	6883.91
665.397	6908.48
665.588	6965.82
665.78	6855.23
665.971	6650.44
666.163	6675.01
666.354	6685.25
666.546	6611.53
666.737	6625.86
666.929	6584.9
667.12	6548.04
667.311	6421.06
667.503	6513.22
667.694	6306.38
667.885	6349.39
668.077	6529.61
668.268	6324.81
668.459	6314.57
668.651	6390.35
668.842	6314.57
669.033	6140.49
669.224	6111.82
669.416	6363.72
669.607	6107.73
669.798	6187.6
669.989	6189.64
670.18	6066.77
670.371	6040.14
670.563	6023.76
670.754	6224.46
670.945	5915.22
671.136	5907.02
671.327	6029.9
671.518	6023.76
671.709	6001.23
671.9	5857.87
672.091	5827.15
672.282	5745.23
672.473	5722.71
672.664	5778
672.855	5792.34
673.046	5786.19
673.237	5794.39
673.428	5603.93
673.619	5732.95
673.809	5657.17
674	5610.07
674.191	5694.04
674.382	5397.08
674.573	5659.22
674.764	5612.12
674.954	5452.38
675.145	5450.33
675.336	5386.84
675.527	5421.66
675.717	5585.49
675.908	5347.93
676.099	5413.46
676.289	5292.63
676.48	5339.74
676.671	5333.59
676.861	5266.01
677.052	5235.29
677.243	5216.86
677.433	5374.55
677.624	5397.08
677.814	5143.13
678.005	5204.57
678.195	5237.34
678.386	5182.04
678.576	5237.34
678.767	5126.75
678.957	5186.14
679.148	5091.93
679.338	5026.4
679.529	5046.88
679.719	4995.68
679.909	5106.27
680.1	5020.25
680.29	5122.65
680.481	4860.51
680.671	5055.07
680.861	4997.73
681.052	5007.97
681.242	4903.52
681.432	4856.42
681.622	4809.31
681.813	4926.05
682.003	4883.04
682.193	4878.94
682.383	4969.05
682.573	4919.9
682.764	4782.69
682.954	4690.53
683.144	4799.07
683.334	4665.96
683.524	4692.58
683.714	4686.44
683.904	4844.13
684.094	4627.04
684.284	4637.28
684.474	4610.66
684.664	4721.25
684.854	4594.28
685.044	4579.94
685.234	4567.65
685.424	4608.61
685.614	4614.76
685.804	4528.74
685.994	4549.22
686.184	4530.79
686.374	4538.98
686.564	4418.15
686.753	4610.66
686.943	4426.34
687.133	4483.69
687.323	4512.36
687.513	4459.11
687.702	4446.82
687.892	4412.01
688.082	4266.6
688.272	4399.72
688.461	4448.87
688.651	4264.55
688.841	4430.44
689.03	4303.47
689.22	4254.31
689.41	4143.72
689.599	4192.87
689.789	4285.03
689.979	4285.03
690.168	4164.2
690.358	4160.11
690.547	4131.44
690.737	4123.24
690.926	4086.38
691.116	3879.54
691.305	4086.38
691.495	4100.72
691.684	3992.17
691.874	3926.64
692.063	4020.85
692.252	3820.14
692.442	3897.97
692.631	3963.5
692.82	4008.56
693.01	3963.5
693.199	3775.09
693.388	3832.43
693.578	3922.54
693.767	4004.46
693.956	3791.47
694.146	3883.63
694.335	3791.47
694.524	3875.44
694.713	3611.25
694.902	3775.09
695.092	3738.23
695.281	3727.99
695.47	3736.18
695.659	3785.33
695.848	3732.08
696.037	3754.61
696.226	3676.79
696.415	3584.63
696.604	3746.42
696.793	3719.79
696.982	3676.79
697.171	3719.79
697.36	3676.79
697.549	3664.5
697.738	3607.16
697.927	3543.67
698.116	3598.96
698.305	3590.77
698.494	3525.24
698.683	3496.57
698.872	3656.31
699.061	3525.24
699.25	3564.15
699.438	3492.47
699.627	3324.54
699.816	3488.37
700.005	3582.58
700.193	3519.09
700.382	3613.3
700.571	3433.08
700.76	3488.37
700.948	3465.85
701.137	3424.89
701.326	3431.03
701.514	3334.78
701.703	3521.14
701.892	3476.09
702.08	3426.93
702.269	3469.94
702.457	3293.82
702.646	3537.52
702.834	3476.09
703.023	3336.82
703.212	3302.01
703.4	3316.34
703.589	3187.32
703.777	3400.31
703.965	3199.61
704.154	3353.21
704.342	3261.05
704.531	3230.33
704.719	3236.47
704.907	3324.54
705.096	3170.94
705.284	3299.96
705.472	3406.45
705.661	3199.61
705.849	3285.62
706.037	3197.56
706.226	3275.38
706.414	3138.17
706.602	3144.31
706.79	3349.11
706.979	3168.89
707.167	3277.43
707.355	3168.89
707.543	3250.81
707.731	3134.07
707.919	3064.44
708.107	3236.47
708.296	3050.11
708.484	3086.97
708.672	3213.95
708.86	3156.6
709.048	3136.12
709.236	3121.79
709.424	3095.16
709.612	3136.12
709.8	3109.5
709.988	3103.36
710.176	3138.17
710.364	3068.54
710.551	3048.06
710.739	3115.64
710.927	3033.72
711.115	2990.72
711.303	2933.37
711.491	3115.64
711.679	2898.56
711.866	3097.21
712.054	2955.9
712.242	2980.48
712.43	2984.57
712.617	3029.63
712.805	2966.14
712.993	3076.73
713.181	2851.46
713.368	2808.45
713.556	2933.37
713.744	2980.48
713.931	2888.32
714.119	2916.99
714.306	2808.45
714.494	2853.5
714.682	2886.27
714.869	2816.64
715.057	2900.61
715.244	2800.26
715.432	2898.56
715.619	2718.34
715.807	2775.68
715.994	2843.26
716.182	2837.12
716.369	2892.41
716.556	2845.31
716.744	2783.87
716.931	2828.93
717.119	2820.74
717.306	2767.49
717.493	2755.2
717.681	2771.58
717.868	2720.39
718.055	2742.91
718.242	2759.3
718.43	2607.75
718.617	2677.38
718.804	2669.19
718.991	2673.28
719.179	2726.53
719.366	2560.64
719.553	2665.09
719.74	2669.19
719.927	2546.31
720.114	2529.92
720.301	2599.56
720.488	2546.31
720.676	2560.64
720.863	2521.73
721.05	2689.67
721.237	2603.65
721.424	2595.46
721.611	2640.51
721.798	2558.6
721.985	2476.68
722.172	2556.55
722.358	2493.06
722.545	2542.21
722.732	2468.48
722.919	2509.44
723.106	2597.51
723.293	2577.03
723.48	2439.81
723.667	2460.29
723.853	2562.69
724.04	2589.32
724.227	2452.1
724.414	2425.48
724.6	2546.31
724.787	2515.59
724.974	2495.11
725.161	2448.01
725.347	2425.48
725.534	2521.73
725.72	2435.72
725.907	2482.82
726.094	2415.24
726.28	2413.19
726.467	2405
726.653	2491.01
726.84	2437.77
727.027	2407.05
727.213	2407.05
727.4	2321.03
727.586	2329.22
727.773	2419.33
727.959	2398.85
728.145	2335.37
728.332	2458.25
728.518	2353.8
728.705	2402.95
728.891	2359.94
729.077	2292.36
729.264	2286.22
729.45	2265.74
729.636	2411.14
729.823	2284.17
730.009	2376.33
730.195	2228.87
730.382	2415.24
730.568	2316.94
730.754	2228.87
730.94	2314.89
731.126	2220.68
731.313	2316.94
731.499	2185.87
731.685	2144.91
731.871	2216.58
732.057	2237.06
732.243	2212.49
732.429	2341.51
732.615	2204.3
732.801	2204.3
732.987	2308.74
733.173	2292.36
733.359	2198.15
733.545	2228.87
733.731	2222.73
733.917	2206.34
734.103	2206.34
734.289	2300.55
734.475	2284.17
734.661	2179.72
734.847	2284.17
735.033	2187.91
735.219	2144.91
735.404	2132.62
735.59	2095.75
735.776	2112.14
735.962	2171.53
736.148	2179.72
736.333	2204.3
736.519	2089.61
736.705	2062.99
736.89	2062.99
737.076	2052.75
737.262	2112.14
737.447	2122.38
737.633	2046.6
737.819	2075.27
738.004	2120.33
738.19	2044.56
738.375	2079.37
738.561	2085.51
738.747	1976.97
738.932	2005.64
739.118	2144.91
739.303	2067.08
739.489	1972.88
739.674	1995.4
739.859	2003.6
740.045	2013.84
740.23	1970.83
740.416	1985.16
740.601	1987.21
740.786	1893.01
740.972	1825.42
741.157	1874.57
741.342	1880.72
741.528	1890.96
741.713	1886.86
741.898	1974.92
742.084	1835.66
742.269	1878.67
742.454	1901.2
742.639	1931.92
742.824	1819.28
743.01	1913.49
743.195	1958.54
743.38	1772.18
743.565	1833.61
743.75	1798.8
743.935	1866.38
744.12	1819.28
744.305	1819.28
744.49	1632.91
744.675	1790.61
744.86	1731.22
745.045	1753.74
745.23	1827.47
745.415	1686.16
745.6	1731.22
745.785	1704.59
745.97	1731.22
746.155	1702.54
746.34	1743.5
746.525	1735.31
746.71	1745.55
746.895	1567.38
747.079	1579.67
747.264	1641.11
747.449	1591.95
747.634	1714.83
747.819	1723.02
748.003	1596.05
748.188	1614.48
748.373	1585.81
748.557	1622.67
748.742	1563.28
748.927	1505.94
749.111	1645.2
749.296	1460.88
749.481	1587.86
749.665	1481.36
749.85	1497.75
750.034	1383.06
750.219	1430.16
750.404	1469.08
750.588	1516.18
750.773	1405.59
750.957	1342.1
751.141	1467.03
751.326	1366.68
751.51	1391.25
751.695	1376.92
751.879	1350.29
752.064	1456.79
752.248	1448.6
752.432	1417.88
752.617	1370.77
752.801	1403.54
752.985	1272.47
753.17	1399.45
753.354	1331.86
753.538	1350.29
753.722	1219.22
753.907	1315.48
754.091	1254.04
754.275	1268.38
754.459	1215.13
754.643	1270.42
754.828	1317.53
755.012	1211.03
755.196	1180.31
755.38	1251.99
755.564	1188.5
755.748	1196.7
755.932	1295
756.116	1176.22
756.3	1129.11
756.484	1165.98
756.668	1065.63
756.852	1127.07
757.036	1131.16
757.22	1112.73
757.404	1061.53
757.588	1098.39
757.772	1122.97
757.956	1157.78
758.14	1086.11
758.323	1116.83
758.507	1057.43
758.691	1073.82
758.875	957.08
759.059	1082.01
759.242	1022.62
759.426	975.52
759.61	1067.67
759.794	1071.77
759.977	989.85
760.161	1100.44
760.345	993.95
760.528	1065.63
760.712	932.51
760.895	1032.86
761.079	932.51
761.263	916.12
761.446	955.04
761.63	983.71
761.813	985.76
761.997	1024.67
762.18	903.84
762.364	907.93
762.547	909.98
762.731	940.7
762.914	924.32
763.098	918.17
763.281	975.52
763.464	963.23
763.648	866.97
763.831	877.21
764.015	914.08
764.198	916.12
764.381	889.5
764.564	850.59
764.748	871.07
764.931	899.74
765.114	907.93
765.297	893.6
765.481	830.11
765.664	809.63
765.847	858.78
766.03	897.69
766.213	801.44
766.397	797.34
766.58	889.5
766.763	766.62
766.946	811.68
767.129	813.73
767.312	826.01
767.495	885.41
767.678	791.2
767.861	785.05
768.044	858.78
768.227	830.11
768.41	780.96
768.593	823.97
768.776	748.19
768.959	778.91
769.142	836.25
769.324	719.52
769.507	735.9
769.69	723.62
769.873	789.15
770.056	821.92
770.239	834.21
770.421	832.16
770.604	791.2
770.787	815.77
770.97	737.95
771.152	776.86
771.335	731.81
771.518	752.29
771.7	727.71
771.883	719.52
772.066	629.41
772.248	682.66
772.431	711.33
772.613	754.34
772.796	721.57
772.978	703.14
773.161	727.71
773.343	645.79
773.526	670.37
773.708	576.16
773.891	637.6
774.073	678.56
774.256	711.33
774.438	742.05
774.621	653.98
774.803	641.7
774.985	637.6
775.168	653.98
775.35	649.89
775.532	653.98
775.715	713.38
775.897	662.18
776.079	572.07
776.261	656.03
776.444	613.03
776.626	684.7
776.808	682.66
776.99	588.45
777.173	555.68
777.355	645.79
777.537	594.59
777.719	637.6
777.901	539.3
778.083	541.35
778.265	570.02
778.447	635.55
778.629	567.97
778.811	537.25
778.993	574.11
779.175	555.68
779.357	533.15
779.539	447.14
779.721	522.91
779.903	524.96
780.085	547.49
780.267	574.11
780.449	479.91
780.631	559.78
780.812	590.5
780.994	524.96
781.176	565.92
781.358	459.43
781.54	524.96
781.721	465.57
781.903	522.91
782.085	522.91
782.267	484
782.448	438.95
782.63	420.52
782.812	457.38
782.993	402.08
783.175	395.94
783.357	420.52
783.538	465.57
783.72	365.22
783.901	424.61
784.083	410.28
784.264	432.8
784.446	393.89
784.627	383.65
784.809	469.67
784.99	410.28
785.172	457.38
785.353	420.52
785.535	389.8
785.716	334.5
785.897	365.22
786.079	432.8
786.26	383.65
786.441	412.32
786.623	408.23
786.804	361.13
786.985	281.25
787.167	451.24
787.348	352.93
787.529	338.6
787.71	522.91
787.891	506.53
788.073	254.63
788.254	361.13
788.435	361.13
788.616	420.52
788.797	322.21
788.978	377.51
789.159	406.18
789.34	383.65
789.522	359.08
789.703	322.21
789.884	305.83
790.065	359.08
790.246	391.84
790.427	359.08
790.607	309.93
790.788	402.08
790.969	309.93
791.15	346.79
791.331	268.97
791.512	326.31
791.693	252.58
791.874	361.13
792.054	375.46
792.235	311.97
792.416	293.54
792.597	248.49
792.778	342.69
792.958	301.73
793.139	354.98
793.32	307.88
793.5	266.92
793.681	248.49
793.862	314.02
794.042	311.97
794.223	266.92
794.404	228.01
794.584	248.49
794.765	178.86
794.945	260.77
795.126	301.73
795.306	309.93
795.487	197.29
795.667	273.06
795.848	244.39
796.028	297.64
796.209	311.97
796.389	273.06
796.57	213.67
796.75	254.63
796.93	252.58
797.111	228.01
797.291	268.97
797.471	246.44
797.652	277.16
797.832	211.62
798.012	277.16
798.192	164.52
798.373	195.24
798.553	221.86
798.733	326.31
798.913	146.09
799.093	246.44
799.274	172.71
799.454	187.05
799.634	346.79
799.814	297.64
799.994	203.43
800.174	266.92
800.354	193.19
800.534	180.9
800.714	244.39
800.894	217.77
801.074	215.72
801.254	189.1
801.434	201.38
801.614	191.14
801.794	150.18
801.974	705.18
802.154	213.67
802.334	213.67
802.514	172.71
802.693	215.72
802.873	187.05
803.053	248.49
803.233	166.57
803.413	168.62
803.592	205.48
803.772	236.2
803.952	223.91
804.131	164.52
804.311	191.14
804.491	264.87
804.67	172.71
804.85	80.55
805.03	244.39
805.209	219.82
805.389	244.39
805.568	150.18
805.748	182.95
805.928	148.14
806.107	150.18
806.287	211.62
806.466	207.53
806.646	211.62
806.825	203.43
807.004	158.38
807.184	144.04
807.363	166.57
807.543	158.38
807.722	170.66
807.901	109.22
808.081	221.86
808.26	74.41
808.439	135.85
808.619	129.7
808.798	150.18
808.977	115.37
809.156	211.62
809.336	170.66
809.515	174.76
809.694	125.61
809.873	174.76
810.052	240.29
810.231	187.05
810.411	178.86
810.59	133.8
810.769	139.94
810.948	168.62
811.127	131.75
811.306	156.33
811.485	72.36
811.664	176.81
811.843	156.33
812.022	195.24
812.201	76.46
812.38	172.71
812.559	141.99
812.737	152.23
812.916	60.07
813.095	105.13
813.274	92.84
813.453	185
813.632	172.71
813.811	158.38
813.989	94.89
814.168	180.9
814.347	74.41
814.526	121.51
814.704	141.99
814.883	178.86
815.062	123.56
815.24	199.34
815.419	66.22
815.598	205.48
815.776	105.13
815.955	92.84
816.133	55.98
816.312	119.46
816.49	27.31
816.669	158.38
816.847	117.42
817.026	121.51
817.204	74.41
817.383	92.84
817.561	90.79
817.74	207.53
817.918	182.95
818.097	88.75
818.275	90.79
818.453	68.27
818.632	148.14
818.81	109.22
818.988	125.61
819.167	113.32
819.345	168.62
819.523	111.27
819.701	174.76
819.879	133.8
820.058	64.17
820.236	90.79
820.414	92.84
820.592	68.27
820.77	117.42
820.948	125.61
821.127	43.69
821.305	111.27
821.483	113.32
821.661	125.61
821.839	6.83
822.017	43.69
822.195	80.55
822.373	105.13
822.551	141.99
822.729	113.32
822.907	133.8
823.085	115.37
823.262	148.14
823.44	58.03
823.618	96.94
823.796	92.84
823.974	98.99
824.152	96.94
824.329	96.94
824.507	35.5
824.685	103.08
824.863	86.7
825.04	64.17
825.218	148.14
825.396	41.64
825.574	90.79
825.751	35.5
825.929	49.83
826.107	80.55
826.284	88.75
826.462	72.36
826.639	19.11
826.817	66.22
826.994	80.55
827.172	62.12
827.349	125.61
827.527	113.32
827.704	88.75
827.882	72.36
828.059	74.41
828.237	31.4
828.414	66.22
828.591	80.55
828.769	58.03
828.946	68.27
829.124	117.42
829.301	121.51
829.478	64.17
829.655	137.9
829.833	62.12
830.01	23.21
830.187	129.7
830.364	-5.46
830.542	96.94
830.719	109.22
830.896	78.51
831.073	10.92
831.25	115.37
831.427	101.03
831.604	82.6
831.782	37.55
831.959	80.55
832.136	139.94
832.313	19.11
832.49	2.73
832.667	37.55
832.844	101.03
833.021	82.6
833.198	92.84
833.374	6.83
833.551	64.17
833.728	164.52
833.905	88.75
834.082	-17.75
834.259	90.79
834.436	96.94
834.612	92.84
834.789	76.46
834.966	58.03
835.143	90.79
835.319	47.79
835.496	92.84
835.673	105.13
835.85	70.31
836.026	82.6
836.203	150.18
836.38	49.83
836.556	43.69
836.733	86.7
836.909	101.03
837.086	-1.37
837.262	27.31
837.439	80.55
837.616	15.02
837.792	-3.41
837.968	-1.37
838.145	25.26
838.321	31.4
838.498	72.36
838.674	68.27
838.851	-1.37
839.027	47.79
839.203	47.79
839.38	49.83
839.556	55.98
839.732	29.35
839.909	86.7
840.085	74.41
840.261	49.83
840.437	64.17
840.614	-5.46
840.79	72.36
840.966	45.74
841.142	8.87
841.318	8.87
841.494	64.17
841.671	107.18
841.847	47.79
842.023	6.83
842.199	39.59
842.375	6.83
842.551	60.07
842.727	76.46
842.903	96.94
843.079	-9.56
843.255	47.79
843.431	58.03
843.607	12.97
843.783	-23.89
843.959	51.88
844.134	-25.94
844.31	90.79
844.486	-21.85
844.662	21.16
844.838	-3.41
845.013	80.55
845.189	107.18
845.365	88.75
845.541	-38.23
845.716	-46.42
845.892	10.92
846.068	43.69
846.244	10.92
846.419	66.22
846.595	45.74
846.77	39.59
846.946	35.5
847.122	0.68
847.297	51.88
847.473	98.99
847.648	66.22
847.824	39.59
847.999	-30.04
848.175	72.36
848.35	0.68
848.526	113.32
848.701	6.83
848.876	72.36
849.052	39.59
849.227	72.36
849.403	131.75
849.578	-54.61
849.753	129.7
849.929	23.21
850.104	0.68
850.279	23.21
850.454	0.68
850.63	72.36
850.805	72.36
850.98	66.22
851.155	41.64
851.33	35.5
851.505	78.51
851.681	-25.94
851.856	55.98
852.031	96.94
852.206	33.45
852.381	84.65
852.556	27.31
852.731	-17.75
852.906	39.59
853.081	-1.37
853.256	49.83
853.431	150.18
853.606	-25.94
853.781	8.87
853.956	-21.85
854.131	15.02
854.305	-13.65
854.48	23.21
854.655	27.31
854.83	-13.65
855.005	74.41
855.18	82.6
855.354	-19.8
855.529	10.92
855.704	66.22
855.879	66.22
856.053	-42.32
856.228	4.78
856.403	17.07
856.577	19.11
856.752	-17.75
856.926	-13.65
857.101	-32.08
857.276	23.21
857.45	27.31
857.625	2.73
857.799	49.83
857.974	86.7
858.148	33.45
858.323	43.69
858.497	62.12
858.672	10.92
858.846	51.88
859.02	17.07
859.195	17.07
859.369	-52.56
859.543	-11.61
859.718	31.4
859.892	4.78
860.066	55.98
860.241	-56.66
860.415	-9.56
860.589	55.98
860.763	-9.56
860.938	-17.75
861.112	27.31
861.286	15.02
861.46	31.4
861.634	-25.94
861.808	55.98
861.982	8.87
862.157	-17.75
862.331	25.26
862.505	47.79
862.679	10.92
862.853	60.07
863.027	-17.75
863.201	115.37
863.375	-23.89
863.549	39.59
863.722	39.59
863.896	19.11
864.07	-79.19
864.244	31.4
864.418	6.83
864.592	23.21
864.766	-1.37
864.939	-9.56
865.113	-3.41
865.287	6.83
865.461	-25.94
865.634	29.35
865.808	72.36
865.982	-15.7
866.156	-87.38
866.329	25.26
866.503	-27.99
866.676	53.93
866.85	-1.37
867.024	39.59
867.197	23.21
867.371	4.78
867.544	49.83
867.718	19.11
867.891	15.02
868.065	29.35
868.238	51.88
868.412	47.79
868.585	6.83
868.759	17.07
868.932	33.45
869.105	-3.41
869.279	-46.42
869.452	33.45
869.625	8.87
869.799	29.35
869.972	-54.61
870.145	-56.66
870.319	15.02
870.492	-1.37
870.665	88.75
870.838	15.02
871.011	6.83
871.185	64.17
871.358	23.21
871.531	-9.56
871.704	-1.37
871.877	-1.37
872.05	6.83
872.223	33.45
872.396	82.6
872.569	17.07
872.742	47.79
872.915	39.59
873.088	-58.71
873.261	-7.51
873.434	19.11
873.607	12.97
873.78	-64.85
873.953	-56.66
874.126	-23.89
874.299	-9.56
874.471	-17.75
874.644	-23.89
874.817	-1.37
874.99	19.11
875.163	-44.37
875.335	25.26
875.508	-7.51
875.681	35.5
875.853	-97.62
876.026	-11.61
876.199	-15.7
876.371	27.31
876.544	-23.89
876.717	27.31
876.889	-1.37
877.062	-1.37
877.234	33.45
877.407	15.02
877.579	31.4
877.752	-38.23
877.924	-1.37
878.097	53.93
878.269	-44.37
878.442	6.83
878.614	47.79
878.786	6.83
878.959	23.21
879.131	10.92
879.303	-56.66
879.476	-38.23
879.648	72.36
879.82	53.93
879.993	-34.13
880.165	-1.37
880.337	53.93
880.509	92.84
880.681	6.83
880.854	-15.7
881.026	-25.94
881.198	88.75
881.37	2.73
881.542	68.27
881.714	15.02
881.886	47.79
882.058	-9.56
882.23	4.78
882.402	45.74
882.574	8.87
882.746	49.83
882.918	2.73
883.09	-30.04
883.262	-1.37
883.434	-48.47
883.606	-62.8
883.778	27.31
883.95	31.4
884.122	6.83
884.293	60.07
884.465	6.83
884.637	6.83
884.809	31.4
884.98	-64.85
885.152	39.59
885.324	45.74
885.496	-5.46
885.667	-17.75
885.839	-17.75
886.011	35.5
886.182	8.87
886.354	19.11
886.525	64.17
886.697	15.02
886.869	-40.28
887.04	55.98
887.212	-1.37
887.383	-23.89
887.555	-17.75
887.726	-13.65
887.897	-46.42
888.069	55.98
888.24	0.68
888.412	6.83
888.583	-36.18
888.754	43.69
888.926	-46.42
889.097	33.45
889.268	-1.37
889.44	-13.65
889.611	-103.76
889.782	-3.41
889.953	-23.89
890.125	19.11
890.296	-50.52
890.467	10.92
890.638	-13.65
890.809	-1.37
890.98	-95.57
891.151	-19.8
891.323	8.87
891.494	-17.75
891.665	68.27
891.836	39.59
892.007	29.35
892.178	-13.65
892.349	-1.37
892.52	-25.94
892.691	8.87
892.862	66.22
893.032	-17.75
893.203	15.02
893.374	62.12
893.545	23.21
893.716	-66.9
893.887	64.17
894.057	15.02
894.228	-83.28
894.399	33.45
894.57	-17.75
894.74	35.5
894.911	-7.51
895.082	-68.95
895.253	49.83
895.423	-89.43
895.594	-17.75
895.764	-23.89
895.935	12.97
896.106	29.35
896.276	-30.04
896.447	-21.85
896.617	43.69
896.788	15.02
896.958	-42.32
897.129	41.64
897.299	4.78
897.47	6.83
897.64	35.5
897.81	19.11
897.981	-34.13
898.151	6.83
898.322	-32.08
898.492	-38.23
898.662	51.88
898.832	-95.57
899.003	47.79
899.173	-5.46
899.343	17.07
899.513	-15.7
