Data from USB4F104151__205__14-20-39-443.txt Node

Date: Thu Mar 13 14:20:39 EDT 2025
User: louis
Spectrometer: USB4F10415
Trigger mode: 4
Integration Time (sec): 2.000000E-2
Scans to average: 1
Electric dark correction enabled: true
Nonlinearity correction enabled: false
Boxcar width: 0
XAxis mode: Wavelengths
Number of Pixels in Spectrum: 3648
>>>>>Begin Spectral Data<<<<<
178.204	-133.12
178.424	-133.12
178.644	-133.12
178.864	-129.02
179.084	-59.39
179.304	-55.3
179.524	16.38
179.744	-4.1
179.964	65.54
180.184	-6.14
180.404	49.15
180.624	16.38
180.844	-24.58
181.064	0
181.283	-8.19
181.503	-49.15
181.723	0
181.943	-67.58
182.163	38.91
182.383	-36.86
182.602	43.01
182.822	4.1
183.042	65.54
183.262	-51.2
183.482	92.16
183.701	12.29
183.921	-28.67
184.141	-20.48
184.361	149.5
184.58	20.48
184.8	-38.91
185.02	26.62
185.239	65.54
185.459	106.49
185.679	-38.91
185.898	18.43
186.118	65.54
186.338	32.77
186.557	124.93
186.777	40.96
186.997	94.21
187.216	51.2
187.436	88.06
187.655	0
187.875	73.73
188.095	65.54
188.314	57.34
188.534	57.34
188.753	65.54
188.973	102.4
189.192	73.73
189.412	-32.77
189.631	38.91
189.851	106.49
190.07	104.45
190.29	40.96
190.509	34.82
190.729	-55.3
190.948	12.29
191.168	100.35
191.387	43.01
191.607	8.19
191.826	71.68
192.045	43.01
192.265	71.68
192.484	4.1
192.704	32.77
192.923	40.96
193.142	57.34
193.362	75.77
193.581	43.01
193.8	51.2
194.02	61.44
194.239	55.3
194.458	2.05
194.678	53.25
194.897	0
195.116	2.05
195.335	116.73
195.555	77.82
195.774	-8.19
195.993	75.77
196.212	77.82
196.432	43.01
196.651	10.24
196.87	-16.38
197.089	96.25
197.308	49.15
197.528	24.58
197.747	40.96
197.966	131.07
198.185	83.97
198.404	18.43
198.623	10.24
198.842	149.5
199.062	24.58
199.281	122.88
199.5	38.91
199.719	0
199.938	36.86
200.157	40.96
200.376	67.58
200.595	90.11
200.814	55.3
201.033	40.96
201.252	90.11
201.471	40.96
201.69	59.39
201.909	133.12
202.128	79.87
202.347	20.48
202.566	94.21
202.785	-16.38
203.004	63.49
203.223	172.03
203.442	65.54
203.661	-16.38
203.879	20.48
204.098	38.91
204.317	43.01
204.536	83.97
204.755	40.96
204.974	73.73
205.193	40.96
205.411	36.86
205.63	61.44
205.849	28.67
206.068	30.72
206.287	57.34
206.505	12.29
206.724	53.25
206.943	59.39
207.162	16.38
207.381	-2.05
207.599	38.91
207.818	-12.29
208.037	40.96
208.255	8.19
208.474	0
208.693	-8.19
208.911	49.15
209.13	114.69
209.349	57.34
209.567	53.25
209.786	73.73
210.005	24.58
210.223	0
210.442	26.62
210.661	32.77
210.879	59.39
211.098	53.25
211.316	16.38
211.535	79.87
211.753	47.1
211.972	-6.14
212.191	16.38
212.409	24.58
212.628	67.58
212.846	16.38
213.065	73.73
213.283	88.06
213.502	-12.29
213.72	63.49
213.938	65.54
214.157	49.15
214.375	75.77
214.594	28.67
214.812	49.15
215.031	65.54
215.249	22.53
215.467	8.19
215.686	2.05
215.904	40.96
216.122	-16.38
216.341	49.15
216.559	77.82
216.778	47.1
216.996	32.77
217.214	-16.38
217.432	26.62
217.651	-26.62
217.869	32.77
218.087	0
218.306	59.39
218.524	0
218.742	-10.24
218.96	73.73
219.179	0
219.397	61.44
219.615	114.69
219.833	73.73
220.051	92.16
220.27	65.54
220.488	51.2
220.706	57.34
220.924	12.29
221.142	-26.62
221.36	65.54
221.578	28.67
221.796	0
222.015	32.77
222.233	24.58
222.451	100.35
222.669	14.34
222.887	96.25
223.105	71.68
223.323	106.49
223.541	69.63
223.759	53.25
223.977	0
224.195	88.06
224.413	22.53
224.631	122.88
224.849	2.05
225.067	53.25
225.285	65.54
225.503	20.48
225.721	16.38
225.939	18.43
226.157	38.91
226.375	102.4
226.592	0
226.81	34.82
227.028	22.53
227.246	90.11
227.464	51.2
227.682	53.25
227.9	67.58
228.117	61.44
228.335	49.15
228.553	71.68
228.771	47.1
228.989	67.58
229.206	86.01
229.424	43.01
229.642	24.58
229.86	61.44
230.077	73.73
230.295	57.34
230.513	63.49
230.731	12.29
230.948	61.44
231.166	94.21
231.384	65.54
231.601	57.34
231.819	86.01
232.037	75.77
232.254	34.82
232.472	34.82
232.689	36.86
232.907	114.69
233.125	36.86
233.342	77.82
233.56	20.48
233.777	2.05
233.995	96.25
234.213	59.39
234.43	10.24
234.648	24.58
234.865	75.77
235.083	75.77
235.3	10.24
235.518	98.3
235.735	114.69
235.953	34.82
236.17	-24.58
236.388	49.15
236.605	-16.38
236.822	90.11
237.04	40.96
237.257	45.06
237.475	40.96
237.692	30.72
237.909	43.01
238.127	36.86
238.344	77.82
238.562	92.16
238.779	36.86
238.996	94.21
239.214	32.77
239.431	108.54
239.648	45.06
239.865	38.91
240.083	106.49
240.3	102.4
240.517	4.1
240.735	49.15
240.952	75.77
241.169	57.34
241.386	-6.14
241.603	57.34
241.821	0
242.038	34.82
242.255	32.77
242.472	10.24
242.689	77.82
242.907	59.39
243.124	-6.14
243.341	32.77
243.558	-8.19
243.775	92.16
243.992	-63.49
244.209	-6.14
244.426	55.3
244.643	116.73
244.86	40.96
245.078	10.24
245.295	30.72
245.512	40.96
245.729	94.21
245.946	69.63
246.163	69.63
246.38	86.01
246.597	81.92
246.814	-14.34
247.031	98.3
247.248	61.44
247.464	49.15
247.681	49.15
247.898	49.15
248.115	45.06
248.332	67.58
248.549	65.54
248.766	92.16
248.983	139.26
249.2	18.43
249.417	4.1
249.633	-75.77
249.85	116.73
250.067	-40.96
250.284	122.88
250.501	137.21
250.717	24.58
250.934	40.96
251.151	36.86
251.368	28.67
251.585	32.77
251.801	59.39
252.018	53.25
252.235	122.88
252.451	67.58
252.668	18.43
252.885	61.44
253.102	16.38
253.318	22.53
253.535	-4.1
253.752	-8.19
253.968	77.82
254.185	-26.62
254.401	16.38
254.618	65.54
254.835	0
255.051	120.83
255.268	139.26
255.484	69.63
255.701	8.19
255.917	51.2
256.134	-36.86
256.351	51.2
256.567	133.12
256.784	22.53
257	34.82
257.217	124.93
257.433	-30.72
257.65	83.97
257.866	-8.19
258.082	12.29
258.299	71.68
258.515	14.34
258.732	-14.34
258.948	16.38
259.165	26.62
259.381	45.06
259.597	20.48
259.814	73.73
260.03	63.49
260.246	102.4
260.463	38.91
260.679	65.54
260.895	67.58
261.112	26.62
261.328	28.67
261.544	45.06
261.761	69.63
261.977	45.06
262.193	49.15
262.409	69.63
262.626	30.72
262.842	124.93
263.058	-24.58
263.274	51.2
263.49	4.1
263.707	24.58
263.923	131.07
264.139	53.25
264.355	32.77
264.571	131.07
264.787	-55.3
265.004	43.01
265.22	102.4
265.436	40.96
265.652	81.92
265.868	92.16
266.084	-8.19
266.3	45.06
266.516	59.39
266.732	22.53
266.948	26.62
267.164	47.1
267.38	45.06
267.596	63.49
267.812	32.77
268.028	59.39
268.244	65.54
268.46	116.73
268.676	81.92
268.892	59.39
269.108	73.73
269.324	49.15
269.54	16.38
269.756	77.82
269.972	26.62
270.188	67.58
270.403	28.67
270.619	10.24
270.835	57.34
271.051	43.01
271.267	71.68
271.483	102.4
271.698	2.05
271.914	10.24
272.13	-4.1
272.346	10.24
272.562	81.92
272.777	114.69
272.993	-4.1
273.209	34.82
273.425	10.24
273.64	-4.1
273.856	81.92
274.072	51.2
274.287	24.58
274.503	51.2
274.719	59.39
274.934	24.58
275.15	8.19
275.366	96.25
275.581	-24.58
275.797	36.86
276.012	51.2
276.228	10.24
276.444	149.5
276.659	108.54
276.875	61.44
277.09	36.86
277.306	106.49
277.521	96.25
277.737	-14.34
277.952	75.77
278.168	118.78
278.383	75.77
278.599	18.43
278.814	120.83
279.03	122.88
279.245	65.54
279.461	57.34
279.676	-4.1
279.892	-53.25
280.107	-4.1
280.322	-2.05
280.538	75.77
280.753	-32.77
280.969	122.88
281.184	43.01
281.399	77.82
281.615	40.96
281.83	65.54
282.045	0
282.26	61.44
282.476	65.54
282.691	53.25
282.906	114.69
283.122	124.93
283.337	4.1
283.552	81.92
283.767	40.96
283.983	73.73
284.198	92.16
284.413	18.43
284.628	22.53
284.843	43.01
285.058	55.3
285.274	57.34
285.489	-55.3
285.704	4.1
285.919	75.77
286.134	0
286.349	59.39
286.564	106.49
286.779	98.3
286.995	6.14
287.21	114.69
287.425	34.82
287.64	24.58
287.855	18.43
288.07	49.15
288.285	122.88
288.5	120.83
288.715	114.69
288.93	-8.19
289.145	2.05
289.36	155.65
289.575	49.15
289.79	81.92
290.004	45.06
290.219	57.34
290.434	129.02
290.649	16.38
290.864	43.01
291.079	-65.53
291.294	28.67
291.509	131.07
291.724	-14.34
291.938	-2.05
292.153	55.3
292.368	24.58
292.583	51.2
292.798	38.91
293.012	43.01
293.227	75.77
293.442	53.25
293.657	86.01
293.871	18.43
294.086	10.24
294.301	108.54
294.516	133.12
294.73	30.72
294.945	65.54
295.16	86.01
295.374	86.01
295.589	92.16
295.804	43.01
296.018	61.44
296.233	12.29
296.447	108.54
296.662	14.34
296.877	102.4
297.091	4.1
297.306	-2.05
297.52	-6.14
297.735	61.44
297.949	57.34
298.164	104.45
298.378	81.92
298.593	114.69
298.807	6.14
299.022	57.34
299.236	79.87
299.451	18.43
299.665	81.92
299.88	69.63
300.094	16.38
300.309	79.87
300.523	92.16
300.737	67.58
300.952	65.54
301.166	114.69
301.381	86.01
301.595	-24.58
301.809	92.16
302.024	65.54
302.238	57.34
302.452	98.3
302.667	81.92
302.881	114.69
303.095	90.11
303.309	67.58
303.524	24.58
303.738	28.67
303.952	55.3
304.166	112.64
304.381	-18.43
304.595	43.01
304.809	40.96
305.023	40.96
305.237	2.05
305.452	-24.58
305.666	32.77
305.88	135.17
306.094	-6.14
306.308	59.39
306.522	32.77
306.736	77.82
306.95	69.63
307.164	8.19
307.379	77.82
307.593	4.1
307.807	45.06
308.021	96.25
308.235	53.25
308.449	40.96
308.663	36.86
308.877	131.07
309.091	8.19
309.305	131.07
309.519	90.11
309.733	81.92
309.947	0
310.161	24.58
310.374	49.15
310.588	16.38
310.802	45.06
311.016	26.62
311.23	102.4
311.444	65.54
311.658	77.82
311.872	124.93
312.085	71.68
312.299	69.63
312.513	77.82
312.727	126.97
312.941	53.25
313.154	114.69
313.368	32.77
313.582	47.1
313.796	8.19
314.009	122.88
314.223	96.25
314.437	55.3
314.651	65.54
314.864	16.38
315.078	118.78
315.292	16.38
315.505	-8.19
315.719	53.25
315.933	81.92
316.146	20.48
316.36	118.78
316.573	96.25
316.787	112.64
317.001	73.73
317.214	-8.19
317.428	14.34
317.641	51.2
317.855	102.4
318.068	67.58
318.282	90.11
318.495	30.72
318.709	79.87
318.922	43.01
319.136	131.07
319.349	34.82
319.563	32.77
319.776	14.34
319.99	-24.58
320.203	16.38
320.417	147.45
320.63	16.38
320.843	73.73
321.057	118.78
321.27	92.16
321.483	135.17
321.697	92.16
321.91	98.3
322.124	57.34
322.337	18.43
322.55	65.54
322.763	24.58
322.977	67.58
323.19	24.58
323.403	135.17
323.617	34.82
323.83	118.78
324.043	-10.24
324.256	98.3
324.469	36.86
324.683	73.73
324.896	65.54
325.109	69.63
325.322	22.53
325.535	69.63
325.748	104.45
325.962	18.43
326.175	16.38
326.388	12.29
326.601	149.5
326.814	36.86
327.027	133.12
327.24	180.22
327.453	-57.34
327.666	14.34
327.879	36.86
328.092	61.44
328.305	81.92
328.518	57.34
328.731	47.1
328.944	81.92
329.157	67.58
329.37	83.97
329.583	133.12
329.796	106.49
330.009	36.86
330.222	20.48
330.435	81.92
330.648	106.49
330.861	-14.34
331.073	88.06
331.286	102.4
331.499	67.58
331.712	18.43
331.925	106.49
332.138	77.82
332.35	4.1
332.563	-4.1
332.776	98.3
332.989	79.87
333.202	55.3
333.414	-32.77
333.627	-10.24
333.84	28.67
334.053	57.34
334.265	73.73
334.478	-4.1
334.691	88.06
334.903	63.49
335.116	114.69
335.329	26.62
335.541	116.73
335.754	106.49
335.966	79.87
336.179	57.34
336.392	102.4
336.604	100.35
336.817	34.82
337.029	2.05
337.242	-4.1
337.454	59.39
337.667	75.77
337.88	122.88
338.092	55.3
338.305	69.63
338.517	77.82
338.729	16.38
338.942	65.54
339.154	86.01
339.367	4.1
339.579	120.83
339.792	90.11
340.004	69.63
340.217	114.69
340.429	163.84
340.641	12.29
340.854	49.15
341.066	67.58
341.278	83.97
341.491	133.12
341.703	65.54
341.915	36.86
342.128	10.24
342.34	112.64
342.552	16.38
342.764	71.68
342.977	104.45
343.189	63.49
343.401	161.79
343.613	57.34
343.826	2.05
344.038	92.16
344.25	49.15
344.462	79.87
344.674	114.69
344.886	94.21
345.099	116.73
345.311	-6.14
345.523	8.19
345.735	-30.72
345.947	49.15
346.159	28.67
346.371	57.34
346.583	59.39
346.795	126.97
347.007	98.3
347.219	106.49
347.431	124.93
347.643	26.62
347.855	6.14
348.067	108.54
348.279	131.07
348.491	75.77
348.703	83.97
348.915	49.15
349.127	45.06
349.339	8.19
349.551	69.63
349.763	83.97
349.975	40.96
350.187	2.05
350.399	59.39
350.61	45.06
350.822	88.06
351.034	77.82
351.246	81.92
351.458	51.2
351.669	22.53
351.881	188.41
352.093	63.49
352.305	16.38
352.517	8.19
352.728	57.34
352.94	124.93
353.152	108.54
353.363	77.82
353.575	116.73
353.787	75.77
353.999	61.44
354.21	114.69
354.422	59.39
354.633	112.64
354.845	40.96
355.057	40.96
355.268	75.77
355.48	67.58
355.692	47.1
355.903	67.58
356.115	18.43
356.326	40.96
356.538	106.49
356.749	28.67
356.961	124.93
357.172	77.82
357.384	40.96
357.595	106.49
357.807	24.58
358.018	43.01
358.23	75.77
358.441	106.49
358.653	75.77
358.864	20.48
359.075	63.49
359.287	106.49
359.498	73.73
359.709	45.06
359.921	90.11
360.132	49.15
360.344	61.44
360.555	63.49
360.766	186.37
360.977	88.06
361.189	98.3
361.4	114.69
361.611	57.34
361.823	67.58
362.034	81.92
362.245	-28.67
362.456	81.92
362.667	90.11
362.879	49.15
363.09	88.06
363.301	98.3
363.512	32.77
363.723	8.19
363.935	34.82
364.146	108.54
364.357	75.77
364.568	100.35
364.779	55.3
364.99	88.06
365.201	36.86
365.412	108.54
365.623	2.05
365.834	118.78
366.045	73.73
366.256	90.11
366.467	92.16
366.678	118.78
366.889	114.69
367.1	12.29
367.311	75.77
367.522	90.11
367.733	61.44
367.944	69.63
368.155	28.67
368.366	69.63
368.577	147.45
368.788	43.01
368.999	77.82
369.209	94.21
369.42	122.88
369.631	96.25
369.842	98.3
370.053	114.69
370.264	100.35
370.474	73.73
370.685	-10.24
370.896	49.15
371.107	108.54
371.317	98.3
371.528	32.77
371.739	145.41
371.95	116.73
372.16	126.97
372.371	61.44
372.582	106.49
372.792	79.87
373.003	135.17
373.214	67.58
373.424	122.88
373.635	53.25
373.846	100.35
374.056	73.73
374.267	67.58
374.477	86.01
374.688	12.29
374.898	51.2
375.109	36.86
375.319	88.06
375.53	53.25
375.74	131.07
375.951	65.54
376.161	143.36
376.372	20.48
376.582	38.91
376.793	38.91
377.003	57.34
377.214	65.54
377.424	65.54
377.635	143.36
377.845	59.39
378.055	67.58
378.266	57.34
378.476	94.21
378.686	59.39
378.897	114.69
379.107	77.82
379.317	67.58
379.528	90.11
379.738	40.96
379.948	32.77
380.158	153.6
380.369	45.06
380.579	141.31
380.789	98.3
380.999	116.73
381.21	81.92
381.42	65.54
381.63	49.15
381.84	155.65
382.05	55.3
382.261	155.65
382.471	106.49
382.681	61.44
382.891	147.45
383.101	135.17
383.311	45.06
383.521	73.73
383.731	81.92
383.941	81.92
384.151	40.96
384.361	94.21
384.571	45.06
384.781	40.96
384.991	65.54
385.201	110.59
385.411	110.59
385.621	61.44
385.831	75.77
386.041	147.45
386.251	65.54
386.461	90.11
386.671	106.49
386.881	65.54
387.091	100.35
387.301	92.16
387.511	53.25
387.72	75.77
387.93	122.88
388.14	135.17
388.35	18.43
388.56	180.22
388.769	45.06
388.979	57.34
389.189	102.4
389.399	38.91
389.609	47.1
389.818	40.96
390.028	40.96
390.238	114.69
390.447	61.44
390.657	110.59
390.867	96.25
391.076	69.63
391.286	149.5
391.496	88.06
391.705	67.58
391.915	139.26
392.125	98.3
392.334	106.49
392.544	122.88
392.753	83.97
392.963	45.06
393.172	139.26
393.382	30.72
393.591	147.45
393.801	98.3
394.01	159.74
394.22	90.11
394.429	59.39
394.639	104.45
394.848	100.35
395.058	73.73
395.267	43.01
395.477	77.82
395.686	100.35
395.895	176.13
396.105	192.51
396.314	108.54
396.524	81.92
396.733	147.45
396.942	129.02
397.152	206.84
397.361	137.21
397.57	102.4
397.78	139.26
397.989	133.12
398.198	147.45
398.407	131.07
398.617	223.23
398.826	131.07
399.035	65.54
399.244	157.69
399.453	194.56
399.663	118.78
399.872	204.8
400.081	118.78
400.29	159.74
400.499	223.23
400.708	215.04
400.917	120.83
401.127	174.08
401.336	212.99
401.545	262.14
401.754	245.76
401.963	151.55
402.172	145.41
402.381	100.35
402.59	151.55
402.799	120.83
403.008	167.93
403.217	198.65
403.426	129.02
403.635	159.74
403.844	206.84
404.053	147.45
404.262	172.03
404.471	274.43
404.68	155.65
404.888	256
405.097	204.8
405.306	206.84
405.515	229.37
405.724	208.89
405.933	229.37
406.142	247.8
406.35	206.84
406.559	247.8
406.768	264.19
406.977	282.62
407.185	280.57
407.394	208.89
407.603	256
407.812	356.35
408.02	354.3
408.229	319.48
408.438	358.39
408.646	274.43
408.855	352.25
409.064	364.54
409.272	272.38
409.481	376.83
409.69	331.77
409.898	397.31
410.107	372.73
410.315	450.55
410.524	387.07
410.733	468.98
410.941	446.46
411.15	516.09
411.358	591.86
411.567	499.7
411.775	534.52
411.984	514.04
412.192	485.37
412.401	542.71
412.609	675.83
412.818	544.76
413.026	657.4
413.234	661.49
413.443	761.84
413.651	712.69
413.86	770.04
414.068	823.28
414.276	882.67
414.485	808.95
414.693	901.11
414.901	966.64
415.11	851.96
415.318	886.77
415.526	946.16
415.734	1030.13
415.943	1050.61
416.151	1118.19
416.359	1093.62
416.567	1142.77
416.776	1200.11
416.984	1236.97
417.192	1239.02
417.4	1261.55
417.608	1343.47
417.817	1400.81
418.025	1482.73
418.233	1533.93
418.441	1591.27
418.649	1568.74
418.857	1665
419.065	1787.88
419.273	1679.33
419.481	1843.17
419.689	1859.56
419.897	2093.02
420.105	2078.69
420.313	2047.97
420.521	2115.55
420.729	2050.02
420.937	2197.47
421.145	2334.68
421.353	2383.84
421.561	2490.33
421.769	2613.21
421.977	2633.69
422.185	2678.74
422.393	2846.68
422.601	2953.17
422.809	3045.33
423.017	2918.36
423.224	3162.06
423.432	3262.41
423.64	3330
423.848	3481.55
424.056	3334.09
424.263	3784.65
424.471	3788.74
424.679	3719.11
424.887	3923.91
425.094	3913.67
425.302	4218.82
425.51	4259.78
425.718	4270.01
425.925	4415.42
426.133	4695.99
426.341	4888.5
426.548	5210.03
426.756	5046.2
426.964	4972.47
427.171	5463.98
427.379	5615.53
427.586	5654.44
427.794	5859.24
428.001	6059.94
428.209	6504.35
428.417	6305.7
428.624	6645.66
428.832	6705.05
429.039	6608.8
429.247	6719.39
429.454	7286.67
429.662	7663.5
429.869	7188.37
430.076	7978.89
430.284	7368.59
430.491	7972.74
430.699	8265.6
430.906	8576.89
431.114	8441.73
431.321	8843.13
431.528	8929.14
431.736	9473.9
431.943	10151.78
432.15	9643.88
432.358	9817.96
432.565	10446.69
432.772	10233.7
432.979	10741.6
433.187	11059.03
433.394	10821.47
433.601	11829.07
433.808	12003.14
434.016	11800.4
434.223	12248.9
434.43	12965.69
434.637	12726.08
434.844	13631.28
435.052	13811.5
435.259	13633.33
435.466	13674.29
435.673	13705.01
435.88	14448.42
436.087	15335.19
436.294	15077.15
436.501	14679.84
436.708	15216.41
436.915	15757.07
437.122	16348.93
437.329	16260.87
437.537	16854.78
437.743	17280.76
437.95	16834.3
438.157	17792.75
438.364	18527.97
438.571	18282.22
438.778	18517.73
438.985	20119.24
439.192	19408.6
439.399	20201.16
439.606	19617.49
439.813	20709.06
440.02	21812.92
440.227	21665.46
440.433	21565.11
440.64	21956.27
440.847	21894.83
441.054	22589.1
441.261	23735.96
441.467	23586.46
441.674	24047.25
441.881	24931.97
442.088	24632.97
442.294	24530.57
442.501	25480.83
442.708	25749.11
442.914	26820.2
443.121	27969.11
443.328	27442.78
443.534	28919.37
443.741	28077.65
443.948	27930.2
444.154	30146.1
444.361	29865.53
444.568	30281.27
444.774	29822.52
444.981	30387.76
445.187	31319.59
445.394	32402.96
445.6	31704.6
445.807	34858.48
446.013	33521.15
446.22	34082.3
446.426	34942.44
446.633	35706.34
446.839	36875.73
447.046	35268.07
447.252	36949.45
447.459	37340.61
447.665	37180.87
447.871	38786.48
448.078	40191.39
448.284	38241.72
448.491	39333.29
448.697	41008.53
448.903	41962.88
449.11	41395.59
449.316	41536.9
449.522	41307.53
449.728	42669.43
449.935	42952.05
450.141	43107.69
450.347	43908.45
450.553	42552.69
450.76	43138.41
450.966	44328.28
451.172	43924.83
451.378	45393.23
451.584	44479.83
451.791	45747.53
451.997	45106.51
452.203	45972.8
452.409	46101.82
452.615	45980.99
452.821	44027.23
453.027	43597.16
453.233	45847.88
453.44	44066.14
453.646	44723.54
453.852	44807.51
454.058	45651.27
454.264	44139.87
454.47	45612.36
454.676	43761
454.882	45593.93
455.088	41409.93
455.294	42182.01
455.5	42974.58
455.705	43036.02
455.911	41514.37
456.117	40617.36
456.323	40340.89
456.529	38331.83
456.735	40226.2
456.941	39253.42
457.147	38360.5
457.352	37168.58
457.558	36818.38
457.764	36937.16
457.97	35978.71
458.176	35182.06
458.381	35317.22
458.587	33703.42
458.793	33861.12
458.999	32237.08
459.204	34125.3
459.41	33312.26
459.616	30983.72
459.821	31430.18
460.027	30942.76
460.233	30658.09
460.438	29216.32
460.644	29281.86
460.85	27870.81
461.055	27598.43
461.261	27512.41
461.466	25536.12
461.672	24747.65
461.878	26564.2
462.083	24665.74
462.289	24313.49
462.494	23936.66
462.7	23090.85
462.905	22437.55
463.111	23643.8
463.316	23201.44
463.522	22697.64
463.727	22472.36
463.932	22636.2
464.138	22435.5
464.343	22533.8
464.549	21962.42
464.754	22406.83
464.959	22378.15
465.165	22054.58
465.37	21499.58
465.575	20831.94
465.781	21513.91
465.986	21569.21
466.191	20715.2
466.397	20518.6
466.602	19556.05
466.807	20020.94
467.012	20121.29
467.218	20160.2
467.423	19826.39
467.628	20055.76
467.833	20848.32
468.038	20147.92
468.244	19390.17
468.449	20336.33
468.654	19564.25
468.859	19255
469.064	19357.4
469.269	18620.13
469.474	18613.99
469.679	18960.09
469.885	18550.5
470.09	18990.81
470.295	18759.39
470.5	18319.08
470.705	18478.82
470.91	17712.88
471.115	17780.46
471.32	17964.78
471.525	17788.66
471.73	17555.19
471.935	17673.97
472.139	16871.17
472.344	17086.2
472.549	16750.34
472.754	16774.91
472.959	16230.15
473.164	15920.91
473.369	16043.79
473.574	16641.79
473.778	16387.85
473.983	15920.91
474.188	15738.64
474.393	15220.5
474.598	15458.07
474.802	15171.35
475.007	15058.71
475.212	15273.75
475.417	14460.71
475.621	14610.21
475.826	14761.76
476.031	14309.16
476.235	14126.89
476.44	14368.55
476.645	14171.94
476.849	14139.18
477.054	13827.88
477.259	13479.73
477.463	13582.13
477.668	13223.73
477.872	13561.65
478.077	13190.97
478.282	12658.49
478.486	12681.02
478.691	12760.89
478.895	12748.61
479.1	12683.07
479.304	12560.19
479.509	12230.47
479.713	12486.47
479.918	12113.74
480.122	12013.38
480.326	12230.47
480.531	12150.6
480.735	12017.48
480.94	11849.55
481.144	12339.01
481.348	11845.45
481.553	11851.6
481.757	11835.21
481.961	11839.31
482.166	12025.67
482.37	11820.88
482.574	11648.85
482.778	11718.48
482.983	11837.26
483.187	11540.3
483.391	11556.69
483.595	11667.28
483.8	11452.24
484.004	11898.7
484.208	11665.23
484.412	11601.74
484.616	11675.47
484.821	11659.09
485.025	11536.21
485.229	11808.59
485.433	11659.09
485.637	11632.46
485.841	11407.19
486.045	11419.47
486.249	11618.13
486.453	11394.9
486.657	11560.78
486.861	11464.53
487.065	11442
487.269	11251.54
487.473	11372.37
487.677	11870.03
487.881	11728.72
488.085	11566.93
488.289	11624.27
488.493	11544.4
488.697	11685.71
488.901	11503.44
489.105	11611.98
489.309	11790.16
489.512	11681.61
489.716	11730.76
489.92	11702.09
490.124	11657.04
490.328	11757.39
490.531	11812.68
490.735	12025.67
490.939	11992.9
491.143	11820.88
491.346	11878.22
491.55	12056.39
491.754	12066.63
491.958	12091.21
492.161	12074.82
492.365	12095.3
492.569	12283.72
492.772	12111.69
492.976	12408.64
493.18	12478.27
493.383	12349.25
493.587	12408.64
493.79	12539.71
493.994	12416.83
494.197	12732.22
494.401	12873.53
494.605	12869.44
494.808	13035.32
495.012	13156.15
495.215	13123.38
495.419	13213.49
495.622	13332.28
495.825	13305.65
496.029	13377.33
496.232	13666.1
496.436	13580.08
496.639	13958.95
496.843	13707.05
497.046	14171.94
497.249	14200.62
497.453	14337.83
497.656	14667.55
497.859	14526.24
498.063	14667.55
498.266	14872.35
498.469	14890.78
498.673	15046.43
498.876	15195.93
499.079	15294.23
499.282	15458.07
499.485	15896.33
499.689	15740.69
499.892	16084.75
500.095	15861.52
500.298	16488.2
500.501	16461.57
500.705	16701.19
500.908	16981.76
501.111	17110.78
501.314	17180.41
501.517	17297.14
501.72	17671.92
501.923	17735.41
502.126	18155.24
502.329	18040.56
502.532	18417.38
502.735	18247.4
502.938	19013.34
503.141	19054.3
503.344	19191.52
503.547	19285.72
503.75	19521.24
503.953	19726.03
504.156	20016.85
504.359	20135.63
504.562	20319.95
504.765	20664
504.968	20420.3
505.17	20960.96
505.373	21180.09
505.576	21399.23
505.779	21495.48
505.982	21968.56
506.185	21860.02
506.387	22365.87
506.59	22417.07
506.793	22779.56
506.996	22853.28
507.198	23209.63
507.401	23183.01
507.604	23686.81
507.807	23744.15
508.009	24168.08
508.212	24278.67
508.415	24518.28
508.617	25081.47
508.82	24757.89
509.022	24835.72
509.225	25884.28
509.428	25601.66
509.63	25919.09
509.833	26226.29
510.035	26562.15
510.238	26703.46
510.44	27018.85
510.643	27055.72
510.845	27401.82
511.048	27397.73
511.25	27598.43
511.453	27926.1
511.655	28636.75
511.858	28556.88
512.06	28733
512.262	29324.86
512.465	29455.93
512.667	29761.08
512.87	30015.03
513.072	29920.82
513.274	30684.72
513.477	30639.66
513.679	30813.74
513.881	31540.77
514.084	31589.92
514.286	31446.56
514.488	31923.74
514.69	32689.68
514.893	32452.11
515.095	32685.58
515.297	33250.82
515.499	33275.4
515.701	33527.3
515.904	34227.7
516.106	34221.56
516.308	34477.55
516.51	35040.75
516.712	34954.73
516.914	35227.11
517.116	35780.06
517.318	35610.08
517.52	36275.67
517.722	35980.76
517.925	37037.51
518.127	36971.98
518.329	37297.61
518.531	37105.1
518.733	37727.68
518.935	37942.72
519.136	37950.91
519.338	38729.14
519.54	38555.06
519.742	39038.38
519.944	39417.25
520.146	39792.03
520.348	39818.66
520.55	39851.42
520.752	40336.79
520.954	41219.47
521.155	40699.28
521.357	41219.47
521.559	41706.88
521.761	42182.01
521.963	42104.19
522.164	42157.44
522.366	42225.02
522.568	42739.06
522.77	42845.55
522.971	43761
523.173	43472.23
523.375	43357.55
523.576	43650.41
523.778	43470.18
523.98	44090.72
524.181	44209.5
524.383	44488.03
524.584	44965.2
524.786	45010.26
524.988	44821.84
525.189	45192.53
525.391	45831.49
525.592	45725
525.794	45907.27
525.995	45688.13
526.197	45872.45
526.398	45944.13
526.6	46415.16
526.801	46695.74
527.003	46980.4
527.204	46787.89
527.406	47041.84
527.607	47285.55
527.808	47578.41
528.01	46988.59
528.211	47502.64
528.412	48049.44
528.614	48360.73
528.815	47770.92
529.016	48389.41
529.218	47828.26
529.419	48188.7
529.62	47770.92
529.822	48123.17
530.023	48166.18
530.224	47897.89
530.425	48049.44
530.626	48031.01
530.828	48137.51
531.029	49073.43
531.23	48215.33
531.431	48454.94
531.632	48938.26
531.833	48780.57
532.035	48856.34
532.236	48909.59
532.437	49177.87
532.638	48657.69
532.839	49042.71
533.04	48932.12
533.241	48616.73
533.442	49368.33
533.643	48999.7
533.844	48676.12
534.045	48936.21
534.246	48405.79
534.447	49091.86
534.648	48887.06
534.849	49368.33
535.05	48592.15
535.251	49024.28
535.451	48592.15
535.652	49456.4
535.853	48958.74
536.054	49491.21
536.255	49278.22
536.456	48526.62
536.657	48944.41
536.857	48680.22
537.058	48796.95
537.259	48858.39
537.46	48807.19
537.66	48629.02
537.861	48809.24
538.062	48938.26
538.263	49169.68
538.463	48543
538.664	48864.53
538.865	48891.16
539.065	48876.82
539.266	48526.62
539.466	48854.29
539.667	48444.7
539.868	49179.92
540.068	48893.21
540.269	48815.38
540.469	49263.89
540.67	48657.69
540.87	48598.3
541.071	48854.29
541.271	48786.71
541.472	48786.71
541.672	48362.78
541.873	48723.22
542.073	47412.52
542.274	48983.32
542.474	48477.47
542.675	47723.82
542.875	48624.92
543.075	48239.9
543.276	48108.83
543.476	48780.57
543.676	48086.31
543.877	48813.34
544.077	48493.85
544.277	48661.79
544.478	47965.48
544.678	48244
544.878	48626.97
545.078	48571.67
545.279	48399.65
545.479	48432.41
545.679	48413.98
545.879	48405.79
546.079	48053.54
546.28	48215.33
546.48	47713.58
546.68	48616.73
546.88	48325.92
547.08	48114.98
547.28	47920.42
547.48	47885.61
547.68	48000.29
547.88	48094.5
548.081	48231.71
548.281	48274.72
548.481	48022.82
548.681	48368.93
548.881	47926.56
549.081	47951.14
549.28	48053.54
549.48	48338.21
549.68	48059.68
549.88	48383.26
550.08	47721.77
550.28	47947.04
550.48	48348.45
550.68	48411.93
550.88	47621.42
551.08	47734.06
551.279	48143.65
551.479	47621.42
551.679	47754.54
551.879	47527.21
552.079	47820.07
552.278	47795.49
552.478	48151.84
552.678	47805.73
552.878	48229.66
553.077	47639.85
553.277	47645.99
553.477	48235.81
553.676	47543.59
553.876	47492.4
554.076	47576.36
554.275	47492.4
554.475	47502.64
554.674	47693.1
554.874	47598.89
555.074	47275.31
555.273	47629.61
555.473	47809.83
555.672	47531.31
555.872	47830.31
556.071	47783.21
556.271	47516.97
556.47	47228.21
556.67	47033.65
556.869	47150.38
557.068	47084.85
557.268	47011.12
557.467	47060.27
557.667	47097.14
557.866	47467.82
558.065	46751.03
558.265	46738.74
558.464	46619.96
558.663	47156.53
558.863	46710.07
559.062	46953.78
559.261	46695.74
559.461	46966.07
559.66	46185.79
559.859	46738.74
560.058	46470.46
560.258	46478.65
560.457	46298.43
560.656	46558.52
560.855	46247.23
561.054	46394.68
561.253	45997.38
561.453	46275.9
561.652	46370.11
561.851	46406.97
562.05	46183.74
562.249	45700.42
562.448	46372.16
562.647	45870.4
562.846	46071.1
563.045	46003.52
563.244	45657.42
563.443	46177.6
563.642	45149.52
563.841	45483.34
564.04	45135.18
564.239	45933.89
564.438	45225.29
564.637	45485.39
564.836	45739.33
565.035	44670.29
565.234	45280.59
565.432	44850.52
565.631	44799.32
565.83	45198.67
566.029	44871
566.228	44143.97
566.427	44778.84
566.625	44473.69
566.824	44119.39
567.023	44760.4
567.222	44262.75
567.42	44629.33
567.619	44445.02
567.818	44068.19
568.016	44248.41
568.215	44342.62
568.414	44176.73
568.612	44426.59
568.811	43775.33
569.01	44123.49
569.208	43627.88
569.407	43939.17
569.605	43832.68
569.804	43611.49
570.002	43193.71
570.201	43724.13
570.4	43296.11
570.598	43312.49
570.797	42853.75
570.995	43101.55
571.193	42485.11
571.392	43240.81
571.59	42874.23
571.789	42462.58
571.987	42208.64
572.186	43064.69
572.384	42229.12
572.582	42655.09
572.781	42333.56
572.979	41960.83
573.177	42036.61
573.376	42734.96
573.574	41766.27
573.772	42110.33
573.971	41846.15
574.169	41465.22
574.367	41254.28
574.565	42093.95
574.763	41450.89
574.962	41350.54
575.16	41479.56
575.358	41340.3
575.556	40492.44
575.754	41311.63
575.952	40727.95
576.151	40881.55
576.349	40668.56
576.547	40584.6
576.745	40578.45
576.943	40727.95
577.141	40734.1
577.339	40641.94
577.537	40398.23
577.735	40392.09
577.933	39736.74
578.131	40043.93
578.329	40162.72
578.527	39587.24
578.725	39593.38
578.923	40175
579.121	39566.76
579.319	39652.77
579.516	39845.28
579.714	39372.2
579.912	39153.07
580.11	39413.16
580.308	39513.51
580.506	39032.24
580.704	38348.21
580.901	38960.56
581.099	39007.66
581.297	38364.6
581.495	38729.14
581.692	38581.68
581.89	38387.13
582.088	38786.48
582.285	38225.34
582.483	38491.57
582.681	38006.2
582.878	38084.03
583.076	37912
583.274	37828.03
583.471	37602.75
583.669	37606.85
583.866	37440.96
584.064	37203.4
584.262	37379.53
584.459	37815.74
584.657	37137.87
584.854	37440.96
585.052	36711.89
585.249	36957.64
585.447	36945.36
585.644	36926.92
585.841	36984.27
586.039	37148.11
586.236	36767.18
586.434	36687.31
586.631	36097.5
586.828	36351.45
587.026	36343.25
587.223	35939.8
587.42	36005.34
587.618	36093.4
587.815	35491.3
588.012	35587.55
588.21	35296.74
588.407	35818.97
588.604	35116.52
588.801	34991.59
588.999	35427.81
589.196	35108.33
589.393	35524.07
589.59	35059.18
589.787	34702.83
589.984	34727.41
590.182	34733.55
590.379	34508.27
590.576	34721.26
590.773	34684.4
590.97	34209.27
591.167	34510.32
591.364	33820.16
591.561	34227.7
591.758	34452.98
591.955	34072.06
592.152	34250.23
592.349	33854.97
592.546	33748.48
592.743	33887.74
592.94	33027.59
593.137	33191.43
593.334	33521.15
593.531	32986.63
593.727	33234.44
593.924	33271.3
594.121	32585.23
594.318	32886.28
594.515	32603.66
594.712	32968.2
594.908	32740.88
595.105	32718.35
595.302	32284.18
595.499	32372.24
595.696	32259.6
595.892	31942.17
596.089	32394.77
596.286	32228.88
596.482	31661.6
596.679	31917.59
596.876	31874.59
597.072	31903.26
597.269	31745.56
597.466	31825.43
597.662	31350.31
597.859	31483.42
598.055	31585.82
598.252	31188.52
598.448	31559.2
598.645	30985.77
598.841	30864.94
599.038	31163.94
599.234	31170.08
599.431	30279.22
599.627	30475.82
599.824	30901.8
600.02	30279.22
600.217	30533.17
600.413	30291.51
600.609	30309.94
600.806	30295.6
601.002	30207.54
601.198	29894.2
601.395	29599.29
601.591	29812.28
601.787	29292.1
601.984	29621.82
602.18	29548.09
602.376	29584.96
602.572	29531.71
602.769	29292.1
602.965	29056.58
603.161	29275.71
603.357	29075.01
603.553	28884.55
603.75	29001.29
603.946	28720.71
604.142	29113.92
604.338	28489.29
604.534	28849.74
604.73	28108.37
604.926	28204.63
605.122	28692.04
605.318	28085.84
605.514	28534.35
605.71	28104.28
605.906	27958.87
606.102	28112.47
606.298	28130.9
606.494	28010.07
606.69	27698.78
606.886	28091.99
607.082	27385.44
607.278	27602.52
607.474	27170.4
607.67	27713.11
607.866	27037.28
608.062	27672.15
608.257	27258.46
608.453	27111.01
608.649	27221.6
608.845	27029.09
609.041	27127.39
609.236	27303.52
609.432	27133.54
609.628	27020.9
609.824	26680.94
610.019	26779.24
610.215	26594.92
610.411	26981.99
610.606	26717.8
610.802	26830.44
610.998	26834.53
611.193	26390.13
611.389	26519.15
611.584	26429.04
611.78	26355.31
611.976	26277.49
612.171	26390.13
612.367	26201.71
612.562	26279.53
612.758	25886.33
612.953	25861.75
613.149	26287.73
613.344	26113.65
613.539	26046.07
613.735	25849.46
613.93	26039.92
614.126	25546.36
614.321	25871.99
614.517	25423.48
614.712	25630.33
614.907	25702.01
615.103	25753.21
615.298	25085.57
615.493	25919.09
615.688	25233.02
615.884	25601.66
616.079	25157.25
616.274	25163.39
616.47	25163.39
616.665	25114.24
616.86	25089.67
617.055	24872.58
617.25	24782.47
617.445	24954.5
617.641	24772.23
617.836	24776.33
618.031	24727.17
618.226	25007.75
618.421	24485.51
618.616	24983.17
618.811	24190.61
619.006	24592.01
619.201	23918.23
619.396	24563.34
619.591	24037.01
619.786	24237.71
619.981	23664.28
620.176	23883.41
620.371	23606.94
620.566	23758.49
620.761	23604.89
620.956	23449.24
621.151	23412.38
621.346	23551.64
621.541	22935.2
621.735	23185.05
621.93	22875.81
622.125	22992.55
622.32	22662.82
622.515	22488.74
622.709	22150.83
622.904	22283.95
623.099	22062.77
623.294	22361.77
623.488	21999.28
623.683	21753.52
623.878	21847.73
624.072	21860.02
624.267	21739.19
624.462	21622.45
624.656	21411.51
624.851	21214.91
625.046	21327.55
625.24	21354.17
625.435	20879.04
625.629	20897.47
625.824	21008.06
626.018	20641.48
626.213	20340.43
626.407	20403.91
626.602	20168.4
626.796	19996.37
626.991	20115.15
627.185	19873.49
627.38	19939.02
627.574	19668.69
627.768	19554.01
627.963	19480.28
628.157	19298.01
628.352	19736.27
628.546	19275.48
628.74	19328.73
628.935	19154.65
629.129	18945.76
629.323	18773.73
629.517	18927.33
629.712	18689.76
629.906	18683.62
630.1	18267.88
630.294	18302.7
630.489	18171.63
630.683	18347.75
630.877	17927.92
631.071	17960.69
631.265	17868.53
631.459	17942.25
631.653	17884.91
631.848	17755.89
632.042	17676.02
632.236	17473.27
632.43	17524.47
632.624	17233.66
632.818	17391.35
633.012	17016.57
633.206	16957.18
633.4	16858.88
633.594	16838.4
633.788	16869.12
633.982	16768.77
634.176	16563.97
634.369	16535.3
634.563	16371.46
634.757	16723.71
634.951	16451.33
635.145	16240.39
635.339	16289.54
635.533	16088.84
635.726	16115.47
635.92	15838.99
636.114	15843.09
636.308	15892.24
636.501	15925
636.695	15632.15
636.889	15568.66
637.083	15281.94
637.276	15363.86
637.47	15249.18
637.664	15118.11
637.857	15279.89
638.051	14944.03
638.244	14774.05
638.438	15034.14
638.632	14569.25
638.825	14728.99
639.019	14458.66
639.212	14518.05
639.406	14724.9
639.599	14415.65
639.793	14499.62
639.986	14249.77
640.18	14372.64
640.373	14329.64
640.567	13891.37
640.76	14116.65
640.954	13930.28
641.147	13766.45
641.34	13868.84
641.534	13729.58
641.727	13287.22
641.92	13477.68
642.114	13426.48
642.307	13346.61
642.5	13418.29
642.694	13508.4
642.887	13348.66
643.08	12959.55
643.273	13115.19
643.467	12920.63
643.66	12934.97
643.853	12857.15
644.046	12535.62
644.239	12625.73
644.432	12543.81
644.626	12549.95
644.819	12676.93
645.012	12685.12
645.205	12486.47
645.398	12367.68
645.591	12410.69
645.784	12334.92
645.977	12111.69
646.17	12013.38
646.363	12058.44
646.556	11749.2
646.749	11986.76
646.942	12148.55
647.135	11992.9
647.328	12087.11
647.521	11648.85
647.714	11429.71
647.907	11603.79
648.099	11515.73
648.292	11528.02
648.485	11392.85
648.678	11327.32
648.871	11284.31
649.064	11153.24
649.256	11272.02
649.449	11108.18
649.642	11083.61
649.835	10882.91
650.027	10923.87
650.22	10772.32
650.413	10807.13
650.605	10616.67
650.798	10807.13
650.991	10747.74
651.183	10622.81
651.376	10512.22
651.568	10637.15
651.761	10434.4
651.954	10340.19
652.146	10532.7
652.339	10514.27
652.531	10375.01
652.724	10303.33
652.916	10092.39
653.109	10053.48
653.301	9975.66
653.494	9903.98
653.686	9836.39
653.879	9977.7
654.071	9865.07
654.263	9672.56
654.456	9576.3
654.648	9879.4
654.84	9521.01
655.033	9703.28
655.225	9559.92
655.417	9475.95
655.61	9400.18
655.802	9404.27
655.994	9305.97
656.186	9232.24
656.379	9187.19
656.571	9193.33
656.763	9006.97
656.955	9070.45
657.148	9215.86
657.34	9076.6
657.532	8890.23
657.724	8996.73
657.916	8822.65
658.108	9084.79
658.3	8818.55
658.492	8701.82
658.684	8775.55
658.876	8765.31
659.068	8503.17
659.26	8572.8
659.452	8441.73
659.644	8507.26
659.836	8515.45
660.028	8384.38
660.22	8234.88
660.412	8294.27
660.604	8206.21
660.796	8347.52
660.988	8173.44
661.18	8224.64
661.372	8112
661.563	8028.04
661.755	8056.71
661.947	8011.65
662.139	7856.01
662.331	7671.69
662.522	7823.24
662.714	7909.26
662.906	7856.01
663.097	7737.23
663.289	7528.33
663.481	7716.75
663.673	7663.5
663.864	7530.38
664.056	7511.95
664.247	7520.14
664.439	7198.61
664.631	7550.86
664.822	7577.48
665.014	7301.01
665.205	7303.06
665.397	7290.77
665.588	7098.26
665.78	7126.93
665.971	7135.12
666.163	7217.04
666.354	7073.68
666.546	7180.18
666.737	7012.24
666.929	6967.19
667.12	7020.44
667.311	6969.24
667.503	6897.56
667.694	6942.61
667.885	6868.89
668.077	6729.63
668.268	6778.78
668.459	6915.99
668.651	6651.8
668.842	6782.87
669.033	6692.76
669.224	6862.74
669.416	6778.78
669.607	6879.13
669.798	6594.46
669.989	6653.85
670.18	6459.29
670.371	6619.04
670.563	6539.16
670.754	6256.54
670.945	6242.21
671.136	6430.62
671.327	6334.37
671.518	6340.51
671.709	6100.9
671.9	6317.98
672.091	6424.48
672.282	6215.59
672.473	6197.15
672.664	6127.52
672.855	5963.69
673.046	6139.81
673.237	6277.02
673.428	5906.34
673.619	6098.85
673.809	5980.07
674	5926.82
674.191	6000.55
674.382	5973.92
674.573	5947.3
674.764	5937.06
674.954	5869.48
675.145	5808.04
675.336	5754.79
675.527	5668.78
675.717	5771.18
675.908	5717.93
676.099	5650.35
676.289	5652.39
676.48	5609.39
676.671	5722.02
676.861	5715.88
677.052	5570.48
677.243	5572.52
677.433	5578.67
677.624	5787.56
677.814	5437.36
678.005	5554.09
678.195	5396.4
678.386	5459.88
678.576	5525.42
678.767	5562.28
678.957	5386.16
679.148	5334.96
679.338	5496.75
679.529	5427.12
679.719	5291.95
679.909	5457.84
680.1	5271.47
680.29	5214.13
680.481	5261.23
680.671	5287.86
680.861	5332.91
681.052	5341.1
681.242	5384.11
681.432	5259.18
681.622	5205.94
681.813	5175.22
682.003	5158.83
682.193	5132.21
682.383	5250.99
682.573	5083.06
682.764	5076.91
682.954	5212.08
683.144	5136.31
683.334	5121.97
683.524	5046.2
683.714	4941.75
683.904	4968.37
684.094	5078.96
684.284	4972.47
684.474	4962.23
684.664	4859.83
684.854	4978.61
685.044	4648.89
685.234	4816.82
685.424	4751.29
685.614	4644.79
685.804	4777.91
685.994	4890.55
686.184	5052.34
686.374	4743.1
686.564	4718.52
686.753	4702.14
686.943	4628.41
687.133	4501.44
687.323	4562.87
687.513	4739
687.702	4487.1
687.892	4597.69
688.082	4640.7
688.272	4480.96
688.461	4550.59
688.651	4612.03
688.841	4401.08
689.03	4513.72
689.22	4425.66
689.41	4472.76
689.599	4456.38
689.789	4308.93
689.979	4249.54
690.168	4229.06
690.358	4231.1
690.547	4243.39
690.737	4317.12
690.926	4114.37
691.116	4087.75
691.305	4399.04
691.495	4263.87
691.684	4007.87
691.874	4227.01
692.063	4235.2
692.252	4132.8
692.442	4267.97
692.631	4065.22
692.82	4081.6
693.01	4132.8
693.199	3999.68
693.388	4026.31
693.578	4151.23
693.767	3899.33
693.956	4009.92
694.146	4022.21
694.335	3956.68
694.524	3958.72
694.713	3930.05
694.902	3997.64
695.092	3846.09
695.281	3829.7
695.47	3817.41
695.659	3839.94
695.848	3891.14
696.037	3758.02
696.226	3811.27
696.415	3887.04
696.604	3823.56
696.793	3786.69
696.982	3919.81
697.171	3870.66
697.36	3876.8
697.549	3743.69
697.738	3663.82
697.927	3833.8
698.116	3655.62
698.305	3770.31
698.494	3614.66
698.683	3698.63
698.872	3760.07
699.061	3612.62
699.25	3702.73
699.438	3545.03
699.627	3571.66
699.816	3645.38
700.005	3499.98
700.193	3549.13
700.382	3514.31
700.571	3706.82
700.76	3618.76
700.948	3555.27
701.137	3514.31
701.326	3516.36
701.514	3391.44
701.703	3495.88
701.892	3489.74
702.08	3448.78
702.269	3495.88
702.457	3557.32
702.646	3436.49
702.834	3416.01
703.023	3403.72
703.212	3547.08
703.4	3514.31
703.589	3313.61
703.777	3442.64
703.965	3303.37
704.154	3387.34
704.342	3293.13
704.531	3377.1
704.719	3334.09
704.907	3301.33
705.096	3293.13
705.284	3237.84
705.472	3332.05
705.661	3291.09
705.849	3403.72
706.037	3286.99
706.226	3254.22
706.414	3280.85
706.602	3256.27
706.79	3219.41
706.979	3321.81
707.167	3227.6
707.355	3215.31
707.543	3284.94
707.731	3270.61
707.919	3162.06
708.107	3268.56
708.296	3209.17
708.484	3194.83
708.672	3166.16
708.86	3129.3
709.048	3178.45
709.236	3123.15
709.424	3227.6
709.612	3147.73
709.8	3071.95
709.988	3123.15
710.176	3076.05
710.364	3088.34
710.551	3061.71
710.739	2932.69
710.927	3067.86
711.115	3194.83
711.303	3157.97
711.491	3002.32
711.679	3028.95
711.866	3041.23
712.054	3047.38
712.242	2985.94
712.43	3047.38
712.617	2965.46
712.805	2918.36
712.993	2957.27
713.181	3026.9
713.368	2990.03
713.556	3010.51
713.744	2949.08
713.931	3057.62
714.119	3016.66
714.306	2959.31
714.494	2973.65
714.682	2965.46
714.869	2932.69
715.057	3047.38
715.244	2826.2
715.432	2981.84
715.619	3028.95
715.807	2858.96
715.994	2983.89
716.182	2899.92
716.369	2947.03
716.556	2998.23
716.744	2959.31
716.931	2908.12
717.119	2858.96
717.306	2854.87
717.493	2949.08
717.681	2826.2
717.868	2844.63
718.055	2963.41
718.242	2846.68
718.43	2777.05
718.617	2883.54
718.804	2836.44
718.991	2762.71
719.179	2897.88
719.366	2754.52
719.553	2779.09
719.74	2768.85
719.927	2775
720.114	2865.11
720.301	2826.2
720.488	2715.61
720.676	2752.47
720.863	2826.2
721.05	2787.29
721.237	2877.4
721.424	2721.75
721.611	2719.7
721.798	2815.96
721.985	2680.79
722.172	2650.07
722.358	2697.17
722.545	2691.03
722.732	2705.37
722.919	2752.47
723.106	2637.78
723.293	2695.13
723.48	2719.7
723.667	2568.15
723.853	2672.6
724.04	2779.09
724.227	2621.4
724.414	2629.59
724.6	2672.6
724.787	2740.18
724.974	2703.32
725.161	2598.87
725.347	2670.55
725.534	2623.45
725.72	2582.49
725.907	2637.78
726.094	2564.06
726.28	2643.93
726.467	2613.21
726.653	2533.34
726.84	2645.98
727.027	2629.59
727.213	2473.95
727.4	2562.01
727.586	2580.44
727.773	2541.53
727.959	2639.83
728.145	2537.43
728.332	2441.18
728.518	2496.47
728.705	2670.55
728.891	2674.65
729.077	2494.43
729.264	2494.43
729.45	2402.27
729.636	2594.78
729.823	2531.29
730.009	2449.37
730.195	2490.33
730.382	2514.91
730.568	2580.44
730.754	2598.87
730.94	2521.05
731.126	2447.32
731.313	2596.82
731.499	2598.87
731.685	2592.73
731.871	2488.28
732.057	2424.8
732.243	2357.21
732.429	2502.62
732.615	2410.46
732.801	2428.89
732.987	2490.33
733.173	2492.38
733.359	2484.19
733.545	2392.03
733.731	2312.16
733.917	2555.87
734.103	2392.03
734.289	2375.64
734.475	2213.85
734.661	2564.06
734.847	2424.8
735.033	2369.5
735.219	2482.14
735.404	2451.42
735.59	2359.26
735.776	2314.2
735.962	2469.85
736.148	2379.74
736.333	2404.32
736.519	2353.12
736.705	2373.6
736.89	2400.22
737.076	2445.27
737.262	2338.78
737.447	2277.34
737.633	2344.92
737.819	2303.96
738.004	2353.12
738.19	2308.06
738.375	2232.29
738.561	2244.57
738.747	2326.49
738.932	2195.42
739.118	2269.15
739.303	2281.44
739.489	2324.44
739.674	2267.1
739.859	2199.52
740.045	2269.15
740.23	2211.81
740.416	2199.52
740.601	2267.1
740.786	2146.27
740.972	2179.04
741.157	2234.33
741.342	2144.22
741.528	2234.33
741.713	2220
741.898	2133.98
742.084	2097.12
742.269	2256.86
742.454	2088.93
742.639	2074.59
742.824	2090.98
743.01	2148.32
743.195	2105.31
743.38	2043.87
743.565	2095.07
743.75	2133.98
743.935	2007.01
744.12	2033.63
744.305	2058.21
744.49	2101.22
744.675	1933.28
744.86	2015.2
745.045	2023.39
745.23	2021.35
745.415	2025.44
745.6	2029.54
745.785	1902.56
745.97	1984.48
746.155	1888.23
746.34	1908.71
746.525	1992.67
746.71	1925.09
746.895	1896.42
747.079	1869.8
747.264	1896.42
747.449	1982.43
747.634	1955.81
747.819	1859.56
748.003	1830.88
748.188	1826.79
748.373	1871.84
748.557	1810.4
748.742	1763.3
748.927	1779.68
749.111	1695.72
749.296	1675.24
749.481	1695.72
749.665	1763.3
749.85	1660.9
750.034	1832.93
750.219	1615.85
750.404	1683.43
750.588	1740.77
750.773	1642.47
750.957	1665
751.141	1679.33
751.326	1597.42
751.51	1642.47
751.695	1624.04
751.879	1634.28
752.064	1599.46
752.248	1507.31
752.432	1619.94
752.617	1576.94
752.801	1576.94
752.985	1570.79
753.17	1558.5
753.354	1388.52
753.538	1583.08
753.722	1476.59
753.907	1490.92
754.091	1449.96
754.275	1363.95
754.459	1437.67
754.643	1533.93
754.828	1484.78
755.012	1466.35
755.196	1421.29
755.38	1351.66
755.564	1376.24
755.748	1316.84
755.932	1339.37
756.116	1294.32
756.3	1288.17
756.484	1378.28
756.668	1411.05
756.852	1253.36
757.036	1296.36
757.22	1253.36
757.404	1294.32
757.588	1341.42
757.772	1343.47
757.956	1316.84
758.14	1351.66
758.323	1279.98
758.507	1167.34
758.691	1245.17
758.875	1216.49
759.059	1351.66
759.242	1181.68
759.426	1171.44
759.61	1167.34
759.794	1198.06
759.977	1261.55
760.161	1253.36
760.345	1124.33
760.528	1107.95
760.712	1118.19
760.895	1142.77
761.079	1198.06
761.263	1058.8
761.446	1073.14
761.63	1077.23
761.813	1122.29
761.997	1126.38
762.18	1040.37
762.364	1085.42
762.547	1085.42
762.731	1130.48
762.914	1077.23
763.098	1017.84
763.281	1066.99
763.464	1019.89
763.648	987.12
763.831	1089.52
764.015	1105.9
764.198	1003.5
764.381	1081.33
764.564	1089.52
764.748	1013.74
764.931	1013.74
765.114	942.07
765.297	999.41
765.481	1042.42
765.664	991.22
765.847	964.59
766.03	968.69
766.213	974.83
766.397	927.73
766.58	907.25
766.763	1042.42
766.946	999.41
767.129	978.93
767.312	933.87
767.495	1013.74
767.678	966.64
767.861	978.93
768.044	913.39
768.227	880.63
768.41	884.72
768.593	983.03
768.776	993.26
768.959	901.11
769.142	937.97
769.324	794.61
769.507	937.97
769.69	940.02
769.873	788.47
770.056	888.82
770.239	901.11
770.421	839.67
770.604	919.54
770.787	827.38
770.97	888.82
771.152	860.15
771.335	858.1
771.518	729.08
771.7	845.81
771.883	876.53
772.066	827.38
772.248	894.96
772.431	804.85
772.613	888.82
772.796	886.77
772.978	804.85
773.161	784.37
773.343	763.89
773.526	724.98
773.708	745.46
773.891	782.32
774.073	851.96
774.256	802.8
774.438	790.52
774.621	770.04
774.803	765.94
774.985	722.93
775.168	735.22
775.35	772.08
775.532	733.17
775.715	735.22
775.897	710.65
776.079	679.93
776.261	761.84
776.444	622.58
776.626	753.65
776.808	634.87
776.99	626.68
777.173	729.08
777.355	700.41
777.537	688.12
777.719	649.21
777.901	632.82
778.083	647.16
778.265	688.12
778.447	647.16
778.629	661.49
778.811	722.93
778.993	628.73
779.175	614.39
779.357	663.54
779.539	626.68
779.721	606.2
779.903	616.44
780.085	616.44
780.267	663.54
780.449	647.16
780.631	667.64
780.812	598.01
780.994	630.77
781.176	641.01
781.358	622.58
781.54	483.32
781.721	600.05
781.903	534.52
782.085	569.34
782.267	600.05
782.448	565.24
782.63	552.95
782.812	501.75
782.993	540.66
783.175	460.79
783.357	505.85
783.538	557.05
783.72	552.95
783.901	589.82
784.083	466.94
784.264	505.85
784.446	399.35
784.627	419.83
784.809	499.7
784.99	524.28
785.172	419.83
785.353	452.6
785.535	409.59
785.716	442.36
785.897	409.59
786.079	401.4
786.26	524.28
786.441	444.41
786.623	436.22
786.804	403.45
786.985	458.75
787.167	468.98
787.348	413.69
787.529	471.03
787.71	491.51
787.891	452.6
788.073	376.83
788.254	393.21
788.435	430.07
788.616	368.63
788.797	315.39
788.978	385.02
789.159	378.87
789.34	552.95
789.522	376.83
789.703	385.02
789.884	311.29
790.065	380.92
790.246	473.08
790.427	376.83
790.607	358.39
790.788	425.98
790.969	360.44
791.15	360.44
791.331	360.44
791.512	385.02
791.693	319.48
791.874	389.11
792.054	356.35
792.235	364.54
792.416	358.39
792.597	362.49
792.778	356.35
792.958	339.96
793.139	296.96
793.32	364.54
793.5	315.39
793.681	362.49
793.862	362.49
794.042	325.63
794.223	323.58
794.404	309.24
794.584	364.54
794.765	315.39
794.945	303.1
795.126	323.58
795.306	335.87
795.487	368.63
795.667	286.72
795.848	303.1
796.028	327.68
796.209	337.91
796.389	237.56
796.57	272.38
796.75	342.01
796.93	305.15
797.111	305.15
797.291	348.15
797.471	407.55
797.652	335.87
797.832	331.77
798.012	327.68
798.192	313.34
798.373	229.37
798.553	292.86
798.733	239.61
798.913	253.95
799.093	339.96
799.274	231.42
799.454	272.38
799.634	274.43
799.814	299
799.994	319.48
800.174	335.87
800.354	212.99
800.534	245.76
800.714	264.19
800.894	196.61
801.074	196.61
801.254	256
801.434	278.52
801.614	235.52
801.794	215.04
801.974	778.23
802.154	278.52
802.334	278.52
802.514	245.76
802.693	294.91
802.873	190.46
803.053	305.15
803.233	276.48
803.413	235.52
803.592	243.71
803.772	217.08
803.952	294.91
804.131	212.99
804.311	270.33
804.491	256
804.67	178.17
804.85	225.28
805.03	167.93
805.209	217.08
805.389	208.89
805.568	212.99
805.748	204.8
805.928	212.99
806.107	272.38
806.287	221.18
806.466	266.24
806.646	233.47
806.825	147.45
807.004	129.02
807.184	172.03
807.363	245.76
807.543	135.17
807.722	192.51
807.901	237.56
808.081	208.89
808.26	206.84
808.439	204.8
808.619	200.7
808.798	155.65
808.977	260.09
809.156	172.03
809.336	200.7
809.515	198.65
809.694	124.93
809.873	169.98
810.052	215.04
810.231	237.56
810.411	206.84
810.59	272.38
810.769	161.79
810.948	212.99
811.127	253.95
811.306	258.04
811.485	102.4
811.664	192.51
811.843	180.22
812.022	147.45
812.201	141.31
812.38	178.17
812.559	157.69
812.737	157.69
812.916	75.77
813.095	233.47
813.274	182.27
813.453	118.78
813.632	167.93
813.811	210.94
813.989	116.73
814.168	258.04
814.347	94.21
814.526	178.17
814.704	174.08
814.883	180.22
815.062	145.41
815.24	233.47
815.419	133.12
815.598	182.27
815.776	106.49
815.955	141.31
816.133	157.69
816.312	92.16
816.49	143.36
816.669	118.78
816.847	172.03
817.026	194.56
817.204	124.93
817.383	147.45
817.561	139.26
817.74	176.13
817.918	122.88
818.097	221.18
818.275	122.88
818.453	135.17
818.632	126.97
818.81	163.84
818.988	100.35
819.167	110.59
819.345	92.16
819.523	167.93
819.701	61.44
819.879	167.93
820.058	161.79
820.236	94.21
820.414	116.73
820.592	149.5
820.77	190.46
820.948	57.34
821.127	139.26
821.305	147.45
821.483	131.07
821.661	165.89
821.839	151.55
822.017	94.21
822.195	141.31
822.373	100.35
822.551	131.07
822.729	102.4
822.907	90.11
823.085	174.08
823.262	57.34
823.44	118.78
823.618	110.59
823.796	139.26
823.974	165.89
824.152	118.78
824.329	79.87
824.507	124.93
824.685	131.07
824.863	126.97
825.04	106.49
825.218	135.17
825.396	172.03
825.574	165.89
825.751	137.21
825.929	81.92
826.107	92.16
826.284	92.16
826.462	77.82
826.639	34.82
826.817	102.4
826.994	98.3
827.172	61.44
827.349	126.97
827.527	102.4
827.704	131.07
827.882	122.88
828.059	77.82
828.237	65.54
828.414	190.46
828.591	45.06
828.769	47.1
828.946	147.45
829.124	204.8
829.301	90.11
829.478	63.49
829.655	94.21
829.833	151.55
830.01	75.77
830.187	86.01
830.364	114.69
830.542	45.06
830.719	124.93
830.896	102.4
831.073	65.54
831.25	92.16
831.427	147.45
831.604	147.45
831.782	81.92
831.959	133.12
832.136	122.88
832.313	102.4
832.49	61.44
832.667	88.06
832.844	51.2
833.021	86.01
833.198	43.01
833.374	159.74
833.551	-10.24
833.728	159.74
833.905	77.82
834.082	120.83
834.259	40.96
834.436	139.26
834.612	45.06
834.789	112.64
834.966	139.26
835.143	159.74
835.319	139.26
835.496	139.26
835.673	51.2
835.85	145.41
836.026	40.96
836.203	116.73
836.38	16.38
836.556	143.36
836.733	118.78
836.909	112.64
837.086	114.69
837.262	49.15
837.439	69.63
837.616	143.36
837.792	86.01
837.968	57.34
838.145	73.73
838.321	92.16
838.498	98.3
838.674	98.3
838.851	77.82
839.027	106.49
839.203	81.92
839.38	57.34
839.556	65.54
839.732	106.49
839.909	114.69
840.085	92.16
840.261	90.11
840.437	98.3
840.614	71.68
840.79	149.5
840.966	69.63
841.142	135.17
841.318	79.87
841.494	34.82
841.671	90.11
841.847	24.58
842.023	26.62
842.199	176.13
842.375	118.78
842.551	38.91
842.727	24.58
842.903	98.3
843.079	-53.25
843.255	83.97
843.431	26.62
843.607	147.45
843.783	45.06
843.959	8.19
844.134	53.25
844.31	159.74
844.486	55.3
844.662	65.54
844.838	114.69
845.013	90.11
845.189	92.16
845.365	10.24
845.541	49.15
845.716	61.44
845.892	24.58
846.068	49.15
846.244	-14.34
846.419	43.01
846.595	34.82
846.77	49.15
846.946	32.77
847.122	94.21
847.297	12.29
847.473	108.54
847.648	43.01
847.824	88.06
847.999	55.3
848.175	114.69
848.35	8.19
848.526	40.96
848.701	16.38
848.876	75.77
849.052	73.73
849.227	86.01
849.403	49.15
849.578	36.86
849.753	26.62
849.929	98.3
850.104	16.38
850.279	-14.34
850.454	53.25
850.63	75.77
850.805	40.96
850.98	94.21
851.155	51.2
851.33	114.69
851.505	53.25
851.681	67.58
851.856	43.01
852.031	26.62
852.206	10.24
852.381	16.38
852.556	59.39
852.731	122.88
852.906	81.92
853.081	57.34
853.256	163.84
853.431	24.58
853.606	28.67
853.781	49.15
853.956	20.48
854.131	92.16
854.305	57.34
854.48	40.96
854.655	-12.29
854.83	10.24
855.005	75.77
855.18	34.82
855.354	69.63
855.529	73.73
855.704	38.91
855.879	51.2
856.053	40.96
856.228	169.98
856.403	61.44
856.577	51.2
856.752	-2.05
856.926	73.73
857.101	16.38
857.276	36.86
857.45	106.49
857.625	49.15
857.799	0
857.974	86.01
858.148	-30.72
858.323	40.96
858.497	10.24
858.672	-8.19
858.846	98.3
859.02	83.97
859.195	-32.77
859.369	98.3
859.543	73.73
859.718	98.3
859.892	57.34
860.066	16.38
860.241	18.43
860.415	20.48
860.589	4.1
860.763	43.01
860.938	0
861.112	47.1
861.286	77.82
861.46	45.06
861.634	16.38
861.808	45.06
861.982	-40.96
862.157	22.53
862.331	34.82
862.505	-14.34
862.679	-36.86
862.853	24.58
863.027	59.39
863.201	131.07
863.375	43.01
863.549	98.3
863.722	-88.06
863.896	2.05
864.07	-8.19
864.244	0
864.418	51.2
864.592	26.62
864.766	32.77
864.939	73.73
865.113	-20.48
865.287	40.96
865.461	-28.67
865.634	88.06
865.808	65.54
865.982	12.29
866.156	65.54
866.329	-26.62
866.503	30.72
866.676	135.17
866.85	73.73
867.024	38.91
867.197	73.73
867.371	77.82
867.544	65.54
867.718	59.39
867.891	67.58
868.065	-55.3
868.238	22.53
868.412	69.63
868.585	0
868.759	43.01
868.932	-28.67
869.105	-28.67
869.279	53.25
869.452	61.44
869.625	110.59
869.799	16.38
869.972	-2.05
870.145	65.54
870.319	-24.58
870.492	4.1
870.665	43.01
870.838	75.77
871.011	24.58
871.185	34.82
871.358	-6.14
871.531	51.2
871.704	61.44
871.877	22.53
872.05	16.38
872.223	34.82
872.396	8.19
872.569	36.86
872.742	49.15
872.915	83.97
873.088	30.72
873.261	51.2
873.434	81.92
873.607	-16.38
873.78	79.87
873.953	20.48
874.126	73.73
874.299	2.05
874.471	-14.34
874.644	81.92
874.817	40.96
874.99	67.58
875.163	49.15
875.335	69.63
875.508	73.73
875.681	36.86
875.853	38.91
876.026	77.82
876.199	30.72
876.371	98.3
876.544	61.44
876.717	0
876.889	55.3
877.062	69.63
877.234	8.19
877.407	32.77
877.579	-32.77
877.752	65.54
877.924	102.4
878.097	18.43
878.269	104.45
878.442	49.15
878.614	65.54
878.786	69.63
878.959	-12.29
879.131	57.34
879.303	-28.67
879.476	55.3
879.648	53.25
879.82	-6.14
879.993	36.86
880.165	-22.53
880.337	-6.14
880.509	34.82
880.681	26.62
880.854	75.77
881.026	30.72
881.198	51.2
881.37	79.87
881.542	10.24
881.714	40.96
881.886	-16.38
882.058	4.1
882.23	61.44
882.402	-79.87
882.574	28.67
882.746	90.11
882.918	18.43
883.09	73.73
883.262	4.1
883.434	108.54
883.606	-20.48
883.778	-4.1
883.95	86.01
884.122	32.77
884.293	-16.38
884.465	43.01
884.637	83.97
884.809	55.3
884.98	40.96
885.152	10.24
885.324	0
885.496	22.53
885.667	18.43
885.839	47.1
886.011	18.43
886.182	36.86
886.354	124.93
886.525	65.54
886.697	28.67
886.869	-8.19
887.04	83.97
887.212	65.54
887.383	92.16
887.555	40.96
887.726	14.34
887.897	-8.19
888.069	26.62
888.24	51.2
888.412	10.24
888.583	24.58
888.754	34.82
888.926	-43.01
889.097	24.58
889.268	8.19
889.44	65.54
889.611	-24.58
889.782	-10.24
889.953	24.58
890.125	43.01
890.296	16.38
890.467	32.77
890.638	36.86
890.809	8.19
890.98	-94.21
891.151	77.82
891.323	49.15
891.494	14.34
891.665	49.15
891.836	4.1
892.007	-34.82
892.178	28.67
892.349	4.1
892.52	-36.86
892.691	-6.14
892.862	75.77
893.032	-8.19
893.203	32.77
893.374	34.82
893.545	102.4
893.716	51.2
893.887	112.64
894.057	28.67
894.228	14.34
894.399	28.67
894.57	90.11
894.74	-8.19
894.911	43.01
895.082	-4.1
895.253	28.67
895.423	-32.77
895.594	10.24
895.764	51.2
895.935	0
896.106	2.05
896.276	18.43
896.447	18.43
896.617	57.34
896.788	47.1
896.958	-8.19
897.129	-4.1
897.299	40.96
897.47	49.15
897.64	-16.38
897.81	4.1
897.981	53.25
898.151	-2.05
898.322	49.15
898.492	-14.34
898.662	81.92
898.832	4.1
899.003	8.19
899.173	16.38
899.343	-6.14
899.513	-8.19
