Data from USB4F104151__262__14-22-46-418.txt Node

Date: Thu Mar 13 14:22:46 EDT 2025
User: louis
Spectrometer: USB4F10415
Trigger mode: 4
Integration Time (sec): 2.000000E-2
Scans to average: 1
Electric dark correction enabled: true
Nonlinearity correction enabled: false
Boxcar width: 0
XAxis mode: Wavelengths
Number of Pixels in Spectrum: 3648
>>>>>Begin Spectral Data<<<<<
178.204	-139.77
178.424	-139.77
178.644	-139.77
178.864	-141.82
179.084	-158.21
179.304	-25.09
179.524	-33.28
179.744	-18.94
179.964	22.02
180.184	65.02
180.404	97.79
180.624	-33.28
180.844	22.02
181.064	-35.33
181.283	13.82
181.503	-41.47
181.723	-33.28
181.943	-6.66
182.163	56.83
182.383	26.11
182.602	38.4
182.822	-18.94
183.042	22.02
183.262	-14.85
183.482	40.45
183.701	24.06
183.921	103.93
184.141	-59.9
184.361	46.59
184.58	-0.51
184.8	48.64
185.02	40.45
185.239	62.98
185.459	40.45
185.679	58.88
185.898	-33.28
186.118	7.68
186.338	13.82
186.557	-8.7
186.777	-6.66
186.997	13.82
187.216	38.4
187.436	89.6
187.655	-51.71
187.875	-6.66
188.095	1.54
188.314	9.73
188.534	48.64
188.753	-0.51
188.973	32.26
189.192	38.4
189.412	1.54
189.631	-35.33
189.851	-14.85
190.07	87.55
190.29	-33.28
190.509	-14.85
190.729	13.82
190.948	5.63
191.168	124.41
191.387	85.5
191.607	69.12
191.826	38.4
192.045	-41.47
192.265	71.17
192.484	54.78
192.704	79.36
192.923	54.78
193.142	99.84
193.362	-59.9
193.581	17.92
193.8	9.73
194.02	120.32
194.239	11.78
194.458	15.87
194.678	40.45
194.897	-23.04
195.116	15.87
195.335	62.98
195.555	-31.23
195.774	24.06
195.993	87.55
196.212	15.87
196.432	50.69
196.651	5.63
196.87	50.69
197.089	32.26
197.308	73.21
197.528	58.88
197.747	5.63
197.966	71.17
198.185	65.02
198.404	36.35
198.623	22.02
198.842	13.82
199.062	105.98
199.281	54.78
199.5	19.97
199.719	42.5
199.938	13.82
200.157	-27.14
200.376	13.82
200.595	-55.81
200.814	-49.66
201.033	79.36
201.252	46.59
201.471	54.78
201.69	-2.56
201.909	-2.56
202.128	112.13
202.347	71.17
202.566	3.58
202.785	-35.33
203.004	-2.56
203.223	69.12
203.442	34.3
203.661	-35.33
203.879	42.5
204.098	40.45
204.317	-45.57
204.536	22.02
204.755	46.59
204.974	56.83
205.193	19.97
205.411	71.17
205.63	38.4
205.849	56.83
206.068	-2.56
206.287	28.16
206.505	56.83
206.724	13.82
206.943	-72.19
207.162	-27.14
207.381	-6.66
207.599	48.64
207.818	40.45
208.037	42.5
208.255	46.59
208.474	52.74
208.693	-8.7
208.911	34.3
209.13	26.11
209.349	-2.56
209.567	13.82
209.786	24.06
210.005	46.59
210.223	30.21
210.442	-18.94
210.661	24.06
210.879	58.88
211.098	-2.56
211.316	-6.66
211.535	22.02
211.753	-18.94
211.972	26.11
212.191	5.63
212.409	-18.94
212.628	42.5
212.846	-10.75
213.065	48.64
213.283	-10.75
213.502	32.26
213.72	38.4
213.938	7.68
214.157	44.54
214.375	-0.51
214.594	-6.66
214.812	48.64
215.031	15.87
215.249	-25.09
215.467	65.02
215.686	34.3
215.904	5.63
216.122	40.45
216.341	5.63
216.559	1.54
216.778	38.4
216.996	30.21
217.214	60.93
217.432	-76.29
217.651	13.82
217.869	-27.14
218.087	48.64
218.306	1.54
218.524	40.45
218.742	-35.33
218.96	48.64
219.179	-49.66
219.397	-4.61
219.615	93.69
219.833	13.82
220.051	7.68
220.27	-31.23
220.488	99.84
220.706	24.06
220.924	22.02
221.142	-33.28
221.36	67.07
221.578	52.74
221.796	26.11
222.015	62.98
222.233	-20.99
222.451	17.92
222.669	-31.23
222.887	30.21
223.105	-39.42
223.323	-8.7
223.541	32.26
223.759	-0.51
223.977	-90.62
224.195	99.84
224.413	13.82
224.631	15.87
224.849	7.68
225.067	50.69
225.285	-18.94
225.503	13.82
225.721	34.3
225.939	71.17
226.157	73.21
226.375	108.03
226.592	1.54
226.81	-10.75
227.028	50.69
227.246	71.17
227.464	87.55
227.682	62.98
227.9	54.78
228.117	17.92
228.335	-43.52
228.553	7.68
228.771	50.69
228.989	7.68
229.206	89.6
229.424	44.54
229.642	-10.75
229.86	54.78
230.077	7.68
230.295	22.02
230.513	67.07
230.731	-0.51
230.948	52.74
231.166	79.36
231.384	22.02
231.601	-16.9
231.819	24.06
232.037	7.68
232.254	3.58
232.472	-16.9
232.689	-10.75
232.907	-0.51
233.125	-18.94
233.342	62.98
233.56	-68.09
233.777	-14.85
233.995	-23.04
234.213	22.02
234.43	-14.85
234.648	79.36
234.865	38.4
235.083	48.64
235.3	30.21
235.518	24.06
235.735	126.46
235.953	34.3
236.17	7.68
236.388	19.97
236.605	22.02
236.822	50.69
237.04	71.17
237.257	79.36
237.475	-6.66
237.692	13.82
237.909	19.97
238.127	-6.66
238.344	26.11
238.562	62.98
238.779	-35.33
238.996	11.78
239.214	56.83
239.431	103.93
239.648	-64
239.865	69.12
240.083	87.55
240.3	38.4
240.517	38.4
240.735	46.59
240.952	32.26
241.169	46.59
241.386	-27.14
241.603	-10.75
241.821	40.45
242.038	99.84
242.255	93.69
242.472	50.69
242.689	-10.75
242.907	-68.09
243.124	-2.56
243.341	38.4
243.558	-55.81
243.775	-2.56
243.992	-41.47
244.209	67.07
244.426	79.36
244.643	5.63
244.86	-18.94
245.078	60.93
245.295	9.73
245.512	58.88
245.729	62.98
245.946	38.4
246.163	-27.14
246.38	13.82
246.597	73.21
246.814	-12.8
247.031	-41.47
247.248	95.74
247.464	54.78
247.681	1.54
247.898	50.69
248.115	97.79
248.332	-45.57
248.549	1.54
248.766	30.21
248.983	62.98
249.2	30.21
249.417	40.45
249.633	62.98
249.85	-18.94
250.067	15.87
250.284	7.68
250.501	62.98
250.717	62.98
250.934	-8.7
251.151	38.4
251.368	56.83
251.585	-2.56
251.801	-25.09
252.018	40.45
252.235	83.45
252.451	-43.52
252.668	-6.66
252.885	42.5
253.102	46.59
253.318	30.21
253.535	26.11
253.752	-16.9
253.968	-64
254.185	-6.66
254.401	38.4
254.618	-25.09
254.835	-68.09
255.051	146.94
255.268	79.36
255.484	56.83
255.701	28.16
255.917	48.64
256.134	13.82
256.351	62.98
256.567	-51.71
256.784	62.98
257	-10.75
257.217	38.4
257.433	5.63
257.65	40.45
257.866	52.74
258.082	44.54
258.299	30.21
258.515	-18.94
258.732	22.02
258.948	-12.8
259.165	42.5
259.381	17.92
259.597	79.36
259.814	-41.47
260.03	54.78
260.246	50.69
260.463	62.98
260.679	81.41
260.895	-76.29
261.112	22.02
261.328	-12.8
261.544	-57.86
261.761	56.83
261.977	38.4
262.193	-0.51
262.409	-27.14
262.626	85.5
262.842	-10.75
263.058	9.73
263.274	85.5
263.49	15.87
263.707	-6.66
263.923	-33.28
264.139	30.21
264.355	13.82
264.571	30.21
264.787	-23.04
265.004	73.21
265.22	-10.75
265.436	-20.99
265.652	19.97
265.868	9.73
266.084	22.02
266.3	-14.85
266.516	-35.33
266.732	42.5
266.948	-27.14
267.164	-2.56
267.38	34.3
267.596	-41.47
267.812	46.59
268.028	46.59
268.244	48.64
268.46	48.64
268.676	-6.66
268.892	40.45
269.108	13.82
269.324	1.54
269.54	-2.56
269.756	17.92
269.972	-18.94
270.188	1.54
270.403	5.63
270.619	-35.33
270.835	-12.8
271.051	-68.09
271.267	13.82
271.483	30.21
271.698	28.16
271.914	62.98
272.13	9.73
272.346	67.07
272.562	30.21
272.777	26.11
272.993	-37.38
273.209	-16.9
273.425	58.88
273.64	46.59
273.856	-10.75
274.072	54.78
274.287	30.21
274.503	22.02
274.719	38.4
274.934	30.21
275.15	-31.23
275.366	1.54
275.581	34.3
275.797	13.82
276.012	32.26
276.228	120.32
276.444	7.68
276.659	124.41
276.875	38.4
277.09	38.4
277.306	-41.47
277.521	38.4
277.737	36.35
277.952	-4.61
278.168	28.16
278.383	50.69
278.599	32.26
278.814	24.06
279.03	112.13
279.245	83.45
279.461	-2.56
279.676	-2.56
279.892	-41.47
280.107	-10.75
280.322	42.5
280.538	48.64
280.753	1.54
280.969	19.97
281.184	13.82
281.399	30.21
281.615	7.68
281.83	-14.85
282.045	7.68
282.26	22.02
282.476	28.16
282.691	48.64
282.906	-14.85
283.122	60.93
283.337	-51.71
283.552	24.06
283.767	11.78
283.983	46.59
284.198	-2.56
284.413	112.13
284.628	-64
284.843	42.5
285.058	36.35
285.274	32.26
285.489	22.02
285.704	71.17
285.919	22.02
286.134	56.83
286.349	30.21
286.564	42.5
286.779	28.16
286.995	105.98
287.21	-20.99
287.425	62.98
287.64	13.82
287.855	1.54
288.07	-31.23
288.285	118.27
288.5	105.98
288.715	44.54
288.93	17.92
289.145	1.54
289.36	54.78
289.575	38.4
289.79	17.92
290.004	15.87
290.219	65.02
290.434	-10.75
290.649	-2.56
290.864	13.82
291.079	19.97
291.294	15.87
291.509	38.4
291.724	79.36
291.938	62.98
292.153	48.64
292.368	81.41
292.583	17.92
292.798	32.26
293.012	22.02
293.227	65.02
293.442	28.16
293.657	24.06
293.871	46.59
294.086	67.07
294.301	54.78
294.516	40.45
294.73	-29.18
294.945	62.98
295.16	38.4
295.374	56.83
295.589	77.31
295.804	-10.75
296.018	-18.94
296.233	15.87
296.447	71.17
296.662	-18.94
296.877	40.45
297.091	-8.7
297.306	87.55
297.52	56.83
297.735	-2.56
297.949	30.21
298.164	60.93
298.378	-12.8
298.593	-10.75
298.807	50.69
299.022	62.98
299.236	71.17
299.451	7.68
299.665	62.98
299.88	65.02
300.094	-31.23
300.309	13.82
300.523	22.02
300.737	-16.9
300.952	52.74
301.166	95.74
301.381	-35.33
301.595	-84.48
301.809	30.21
302.024	-57.86
302.238	1.54
302.452	124.41
302.667	-80.38
302.881	42.5
303.095	83.45
303.309	17.92
303.524	-0.51
303.738	9.73
303.952	-33.28
304.166	75.26
304.381	-29.18
304.595	67.07
304.809	11.78
305.023	24.06
305.237	-10.75
305.452	-10.75
305.666	40.45
305.88	38.4
306.094	1.54
306.308	26.11
306.522	-0.51
306.736	17.92
306.95	38.4
307.164	54.78
307.379	1.54
307.593	54.78
307.807	13.82
308.021	22.02
308.235	-27.14
308.449	-27.14
308.663	-0.51
308.877	-14.85
309.091	32.26
309.305	5.63
309.519	-41.47
309.733	87.55
309.947	-27.14
310.161	56.83
310.374	54.78
310.588	95.74
310.802	-37.38
311.016	-20.99
311.23	-0.51
311.444	38.4
311.658	-57.86
311.872	83.45
312.085	13.82
312.299	-16.9
312.513	28.16
312.727	-51.71
312.941	40.45
313.154	48.64
313.368	-10.75
313.582	-18.94
313.796	-27.14
314.009	48.64
314.223	24.06
314.437	22.02
314.651	7.68
314.864	-27.14
315.078	36.35
315.292	7.68
315.505	32.26
315.719	-25.09
315.933	34.3
316.146	11.78
316.36	5.63
316.573	65.02
316.787	65.02
317.001	5.63
317.214	3.58
317.428	7.68
317.641	17.92
317.855	-14.85
318.068	1.54
318.282	-6.66
318.495	89.6
318.709	30.21
318.922	73.21
319.136	46.59
319.349	30.21
319.563	15.87
319.776	-6.66
319.99	13.82
320.203	56.83
320.417	-10.75
320.63	85.5
320.843	38.4
321.057	-2.56
321.27	62.98
321.483	11.78
321.697	22.02
321.91	24.06
322.124	38.4
322.337	-27.14
322.55	-49.66
322.763	-27.14
322.977	11.78
323.19	-8.7
323.403	87.55
323.617	13.82
323.83	62.98
324.043	38.4
324.256	-0.51
324.469	3.58
324.683	38.4
324.896	26.11
325.109	122.37
325.322	-35.33
325.535	5.63
325.748	-18.94
325.962	75.26
326.175	38.4
326.388	50.69
326.601	28.16
326.814	32.26
327.027	46.59
327.24	-18.94
327.453	13.82
327.666	-10.75
327.879	71.17
328.092	71.17
328.305	-0.51
328.518	69.12
328.731	58.88
328.944	17.92
329.157	5.63
329.37	38.4
329.583	83.45
329.796	48.64
330.009	-25.09
330.222	54.78
330.435	40.45
330.648	108.03
330.861	-25.09
331.073	42.5
331.286	54.78
331.499	54.78
331.712	9.73
331.925	-12.8
332.138	-35.33
332.35	93.69
332.563	-51.71
332.776	-2.56
332.989	5.63
333.202	114.17
333.414	7.68
333.627	28.16
333.84	26.11
334.053	52.74
334.265	22.02
334.478	42.5
334.691	95.74
334.903	40.45
335.116	3.58
335.329	36.35
335.541	81.41
335.754	87.55
335.966	38.4
336.179	56.83
336.392	58.88
336.604	54.78
336.817	26.11
337.029	13.82
337.242	5.63
337.454	34.3
337.667	-10.75
337.88	87.55
338.092	22.02
338.305	38.4
338.517	-39.42
338.729	17.92
338.942	87.55
339.154	38.4
339.367	-16.9
339.579	114.17
339.792	-31.23
340.004	26.11
340.217	-18.94
340.429	48.64
340.641	-20.99
340.854	19.97
341.066	5.63
341.278	71.17
341.491	97.79
341.703	30.21
341.915	-14.85
342.128	40.45
342.34	-23.04
342.552	-18.94
342.764	38.4
342.977	-74.24
343.189	22.02
343.401	13.82
343.613	22.02
343.826	3.58
344.038	-41.47
344.25	34.3
344.462	1.54
344.674	-6.66
344.886	13.82
345.099	103.93
345.311	-27.14
345.523	30.21
345.735	44.54
345.947	89.6
346.159	24.06
346.371	17.92
346.583	-8.7
346.795	65.02
347.007	17.92
347.219	30.21
347.431	105.98
347.643	62.98
347.855	-49.66
348.067	24.06
348.279	-31.23
348.491	-10.75
348.703	116.22
348.915	73.21
349.127	48.64
349.339	-23.04
349.551	42.5
349.763	42.5
349.975	46.59
350.187	89.6
350.399	91.65
350.61	7.68
350.822	-2.56
351.034	95.74
351.246	1.54
351.458	48.64
351.669	13.82
351.881	73.21
352.093	56.83
352.305	-16.9
352.517	-10.75
352.728	75.26
352.94	28.16
353.152	17.92
353.363	5.63
353.575	32.26
353.787	97.79
353.999	42.5
354.21	83.45
354.422	103.93
354.633	38.4
354.845	-23.04
355.057	-37.38
355.268	77.31
355.48	26.11
355.692	62.98
355.903	-23.04
356.115	30.21
356.326	-33.28
356.538	15.87
356.749	73.21
356.961	-2.56
357.172	38.4
357.384	7.68
357.595	38.4
357.807	30.21
358.018	30.21
358.23	24.06
358.441	42.5
358.653	46.59
358.864	93.69
359.075	-35.33
359.287	40.45
359.498	32.26
359.709	17.92
359.921	-31.23
360.132	24.06
360.344	17.92
360.555	-25.09
360.766	40.45
360.977	15.87
361.189	46.59
361.4	-12.8
361.611	13.82
361.823	103.93
362.034	5.63
362.245	-33.28
362.456	48.64
362.667	1.54
362.879	-59.9
363.09	-16.9
363.301	71.17
363.512	-12.8
363.723	48.64
363.935	71.17
364.146	15.87
364.357	-0.51
364.568	62.98
364.779	-27.14
364.99	87.55
365.201	-16.9
365.412	54.78
365.623	-0.51
365.834	46.59
366.045	-2.56
366.256	62.98
366.467	24.06
366.678	54.78
366.889	44.54
367.1	40.45
367.311	38.4
367.522	15.87
367.733	50.69
367.944	95.74
368.155	-18.94
368.366	69.12
368.577	71.17
368.788	7.68
368.999	-14.85
369.209	65.02
369.42	62.98
369.631	95.74
369.842	56.83
370.053	24.06
370.264	17.92
370.474	-18.94
370.685	15.87
370.896	-57.86
371.107	54.78
371.317	24.06
371.528	62.98
371.739	32.26
371.95	46.59
372.16	46.59
372.371	-16.9
372.582	22.02
372.792	71.17
373.003	-6.66
373.214	-39.42
373.424	46.59
373.635	54.78
373.846	-12.8
374.056	-78.33
374.267	46.59
374.477	26.11
374.688	54.78
374.898	32.26
375.109	7.68
375.319	38.4
375.53	87.55
375.74	58.88
375.951	32.26
376.161	-35.33
376.372	128.51
376.582	60.93
376.793	24.06
377.003	38.4
377.214	56.83
377.424	75.26
377.635	44.54
377.845	50.69
378.055	65.02
378.266	22.02
378.476	58.88
378.686	65.02
378.897	15.87
379.107	-6.66
379.317	116.22
379.528	22.02
379.738	77.31
379.948	5.63
380.158	-4.61
380.369	24.06
380.579	38.4
380.789	24.06
380.999	48.64
381.21	46.59
381.42	42.5
381.63	60.93
381.84	22.02
382.05	-35.33
382.261	101.89
382.471	22.02
382.681	62.98
382.891	87.55
383.101	22.02
383.311	91.65
383.521	17.92
383.731	-18.94
383.941	87.55
384.151	54.78
384.361	81.41
384.571	52.74
384.781	46.59
384.991	58.88
385.201	44.54
385.411	79.36
385.621	46.59
385.831	42.5
386.041	1.54
386.251	22.02
386.461	13.82
386.671	-72.19
386.881	34.3
387.091	-18.94
387.301	-74.24
387.511	-14.85
387.72	50.69
387.93	9.73
388.14	65.02
388.35	71.17
388.56	13.82
388.769	30.21
388.979	34.3
389.189	56.83
389.399	-4.61
389.609	7.68
389.818	62.98
390.028	15.87
390.238	-18.94
390.447	-12.8
390.657	-20.99
390.867	22.02
391.076	-27.14
391.286	79.36
391.496	56.83
391.705	71.17
391.915	38.4
392.125	83.45
392.334	-6.66
392.544	15.87
392.753	62.98
392.963	-33.28
393.172	58.88
393.382	22.02
393.591	71.17
393.801	24.06
394.01	26.11
394.22	-72.19
394.429	-39.42
394.639	79.36
394.848	71.17
395.058	38.4
395.267	62.98
395.477	-64
395.686	-10.75
395.895	69.12
396.105	48.64
396.314	75.26
396.524	62.98
396.733	34.3
396.942	79.36
397.152	22.02
397.361	110.08
397.57	124.41
397.78	54.78
397.989	116.22
398.198	148.99
398.407	54.78
398.617	95.74
398.826	101.89
399.035	56.83
399.244	85.5
399.453	48.64
399.663	83.45
399.872	58.88
400.081	46.59
400.29	60.93
400.499	77.31
400.708	103.93
400.917	97.79
401.127	24.06
401.336	15.87
401.545	128.51
401.754	42.5
401.963	56.83
402.172	79.36
402.381	40.45
402.59	91.65
402.799	89.6
403.008	62.98
403.217	42.5
403.426	56.83
403.635	87.55
403.844	95.74
404.053	103.93
404.262	159.23
404.471	171.52
404.68	73.21
404.888	97.79
405.097	62.98
405.306	87.55
405.515	122.37
405.724	161.28
405.933	50.69
406.142	99.84
406.35	93.69
406.559	130.56
406.768	97.79
406.977	108.03
407.185	103.93
407.394	75.26
407.603	101.89
407.812	81.41
408.02	171.52
408.229	144.89
408.438	120.32
408.646	83.45
408.855	185.85
409.064	146.94
409.272	87.55
409.481	173.57
409.69	153.09
409.898	138.75
410.107	171.52
410.315	128.51
410.524	138.75
410.733	173.57
410.941	210.43
411.15	218.62
411.358	212.48
411.567	261.63
411.775	232.96
411.984	296.44
412.192	263.68
412.401	257.53
412.609	323.07
412.818	318.97
413.026	230.91
413.234	226.81
413.443	304.64
413.651	255.48
413.86	368.12
414.068	370.17
414.276	374.27
414.485	302.59
414.693	327.16
414.901	493.05
415.11	353.79
415.318	378.36
415.526	429.56
415.734	450.04
415.943	402.94
416.151	443.9
416.359	464.38
416.567	427.51
416.776	472.57
416.984	517.62
417.192	525.82
417.4	562.68
417.608	423.42
417.817	574.97
418.025	626.17
418.233	652.79
418.441	630.26
418.649	607.73
418.857	695.8
419.065	736.76
419.273	667.13
419.481	730.61
419.689	689.65
419.897	777.72
420.105	751.09
420.313	835.06
420.521	804.34
420.729	894.45
420.937	927.22
421.145	900.59
421.353	982.51
421.561	1058.29
421.769	1033.71
421.977	1152.49
422.185	1111.54
422.393	1107.44
422.601	1195.5
422.809	1213.93
423.017	1097.2
423.224	1316.33
423.432	1334.76
423.64	1340.91
423.848	1467.88
424.056	1418.73
424.263	1557.99
424.471	1517.03
424.679	1562.09
424.887	1623.53
425.094	1717.73
425.302	1732.07
425.51	1754.6
425.718	1693.16
425.925	1730.02
426.133	1762.79
426.341	1998.31
426.548	2022.88
426.756	2112.99
426.964	2061.79
427.171	2147.81
427.379	2227.68
427.586	2201.05
427.794	2268.64
428.001	2434.52
428.209	2457.05
428.417	2512.35
428.624	2616.79
428.832	2731.48
429.039	2749.91
429.247	2751.96
429.454	2880.98
429.662	3139.02
429.869	2835.92
430.076	3028.43
430.284	3022.29
430.491	3143.12
430.699	3229.13
430.906	3526.09
431.114	3372.49
431.321	3515.85
431.528	3558.86
431.736	3806.66
431.943	4048.32
432.15	3884.48
432.358	3888.58
432.565	4165.06
432.772	4036.03
432.979	4302.27
433.187	4453.82
433.394	4220.35
433.601	4617.66
433.808	4709.82
434.016	4619.71
434.223	4830.65
434.43	5062.07
434.637	4924.85
434.844	5408.17
435.052	5359.02
435.259	5408.17
435.466	5438.89
435.673	5498.28
435.88	5731.75
436.087	6090.15
436.294	6034.85
436.501	5946.79
436.708	6116.77
436.915	6215.07
437.122	6512.03
437.329	6399.39
437.537	6669.72
437.743	6657.43
437.95	6765.98
438.157	7150.99
438.364	7306.64
438.571	7230.87
438.778	7447.95
438.985	8050.05
439.192	7710.09
439.399	8033.67
439.606	7792.01
439.813	8148.36
440.02	8676.73
440.227	8459.65
440.433	8529.28
440.64	8729.98
440.847	8566.14
441.054	8871.29
441.261	9438.58
441.467	9502.06
441.674	9411.95
441.881	9655.66
442.088	9895.27
442.294	9864.55
442.501	10059.11
442.708	10149.22
442.914	10585.44
443.121	11189.59
443.328	10820.95
443.534	11588.94
443.741	11099.48
443.948	10982.74
444.154	11758.92
444.361	11640.14
444.568	11793.74
444.774	11910.47
444.981	11867.47
445.187	12444.99
445.394	12549.44
445.6	12506.43
445.807	13985.07
446.013	13196.6
446.22	13606.19
446.426	13860.14
446.633	14087.47
446.839	14716.19
447.046	14001.45
447.252	14654.75
447.459	15013.15
447.665	14796.06
447.871	15267.1
448.078	16090.38
448.284	15164.7
448.491	15754.51
448.697	16164.11
448.903	16446.73
449.11	16801.02
449.316	16581.89
449.522	16655.62
449.728	17030.4
449.935	17450.23
450.141	17196.28
450.347	17550.58
450.553	17145.08
450.76	17429.75
450.966	18128.11
451.172	17943.79
451.378	18547.94
451.584	17728.75
451.791	18435.3
451.997	18257.13
452.203	18523.37
452.409	18607.33
452.615	18697.44
452.821	17761.52
453.027	17423.61
453.233	18873.57
453.44	18185.45
453.646	18459.88
453.852	18117.87
454.058	18519.27
454.264	17915.12
454.47	18429.16
454.676	17896.69
454.882	18697.44
455.088	17208.57
455.294	17376.5
455.5	17628.4
455.705	17894.64
455.911	16872.7
456.117	16798.98
456.323	16729.34
456.529	15422.74
456.735	16471.3
456.941	15947.02
457.147	15697.17
457.352	15338.77
457.558	15095.07
457.764	15111.45
457.97	14974.24
458.176	14738.72
458.381	14595.36
458.587	13983.02
458.793	13980.97
458.999	13208.89
459.204	14153
459.41	13765.93
459.616	12750.14
459.821	12999.99
460.027	12580.16
460.233	12602.69
460.438	11986.25
460.644	12207.43
460.85	11629.9
461.055	11427.15
461.261	11335
461.466	10263.91
461.672	10280.29
461.878	11052.38
462.083	10069.35
462.289	9866.6
462.494	9993.58
462.7	9411.95
462.905	9268.59
463.111	9678.19
463.316	9547.12
463.522	9049.46
463.727	9360.75
463.932	9387.38
464.138	9295.22
464.343	9117.04
464.549	8856.95
464.754	9401.71
464.959	9000.31
465.165	9188.72
465.37	8826.23
465.575	8459.65
465.781	8918.39
465.986	9018.74
466.191	8547.71
466.397	8396.16
466.602	8041.86
466.807	8187.27
467.012	8283.52
467.218	8308.1
467.423	8107.4
467.628	8011.14
467.833	8588.67
468.038	8213.89
468.244	8009.09
468.449	8273.28
468.654	7921.03
468.859	8007.05
469.064	7933.32
469.269	7738.76
469.474	7673.23
469.679	7865.74
469.885	7722.38
470.09	7558.54
470.295	7576.97
470.5	7298.45
470.705	7593.36
470.91	7470.48
471.115	7167.38
471.32	7363.98
471.525	7271.83
471.73	7249.3
471.935	7165.33
472.139	6923.67
472.344	6995.35
472.549	6811.03
472.754	6722.97
472.959	6669.72
473.164	6645.15
473.369	6622.62
473.574	6776.22
473.778	6600.09
473.983	6657.43
474.188	6555.04
474.393	6274.46
474.598	6378.91
474.802	6262.18
475.007	6190.5
475.212	6313.38
475.417	5893.54
475.621	6143.39
475.826	5981.6
476.031	5895.59
476.235	5780.9
476.44	5971.36
476.645	5772.71
476.849	5739.94
477.054	5780.9
477.259	5469.61
477.463	5619.11
477.668	5498.28
477.872	5549.48
478.077	5498.28
478.282	5107.12
478.486	5422.51
478.691	5244.34
478.895	5250.48
479.1	5215.66
479.304	5135.79
479.509	4918.71
479.713	5170.61
479.918	5002.68
480.122	4879.8
480.326	4998.58
480.531	4953.52
480.735	5027.25
480.94	4761.02
481.144	5092.79
481.348	4726.2
481.553	4730.3
481.757	4652.47
481.961	4726.2
482.166	4890.04
482.37	4840.89
482.574	4881.85
482.778	4736.44
482.983	4847.03
483.187	4728.25
483.391	4822.45
483.595	4746.68
483.8	4613.56
484.004	4601.27
484.208	4881.85
484.412	4720.06
484.616	4701.62
484.821	4744.63
485.025	4593.08
485.229	4656.57
485.433	4621.75
485.637	4920.76
485.841	4822.45
486.045	4806.07
486.249	4732.34
486.453	4646.33
486.657	4718.01
486.861	4695.48
487.065	4720.06
487.269	4652.47
487.473	4609.47
487.677	4830.65
487.881	4728.25
488.085	4783.54
488.289	4707.77
488.493	4777.4
488.697	4687.29
488.901	4736.44
489.105	4806.07
489.309	4818.36
489.512	4826.55
489.716	4711.86
489.92	4887.99
490.124	4724.15
490.328	4683.19
490.531	4926.9
490.735	4914.61
490.939	5076.4
491.143	4838.84
491.346	4933.04
491.55	4793.78
491.754	4885.94
491.958	5043.64
492.161	4928.95
492.365	5045.68
492.569	4799.93
492.772	5035.44
492.976	4990.39
493.18	5103.03
493.383	5035.44
493.587	5125.55
493.79	5103.03
493.994	5127.6
494.197	5215.66
494.401	5281.2
494.605	5217.71
494.808	5260.72
495.012	5189.04
495.215	5381.55
495.419	5420.46
495.622	5356.97
495.825	5402.03
496.029	5412.27
496.232	5682.6
496.436	5619.11
496.639	5635.5
496.843	5451.18
497.046	5752.23
497.249	5772.71
497.453	5909.93
497.656	5905.83
497.859	5717.42
498.063	6043.04
498.266	6133.15
498.469	6045.09
498.673	6024.61
498.876	6321.57
499.079	6124.96
499.282	6241.7
499.485	6428.06
499.689	6585.76
499.892	6534.56
500.095	6518.17
500.298	6829.46
500.501	6731.16
500.705	6796.7
500.908	6905.24
501.111	6946.2
501.314	7069.08
501.517	7030.16
501.72	7095.7
501.923	7042.45
502.126	7288.21
502.329	7624.08
502.532	7329.17
502.735	7611.79
502.938	7591.31
503.141	7749
503.344	7773.58
503.547	7806.34
503.75	7992.71
503.953	7900.55
504.156	8115.59
504.359	8140.16
504.562	8158.6
504.765	8387.97
504.968	8476.03
505.17	8385.92
505.373	8533.37
505.576	8664.44
505.779	8842.62
505.982	8713.6
506.185	8818.04
506.387	9059.7
506.59	9024.89
506.793	9137.52
506.996	9424.24
507.198	9762.16
507.401	9465.2
507.604	9524.59
507.807	9743.72
508.009	9952.62
508.212	9741.68
508.415	9893.23
508.617	10231.14
508.82	9878.89
509.022	10165.6
509.225	10435.94
509.428	10573.15
509.63	10548.58
509.833	10468.7
510.035	10880.35
510.238	10851.67
510.44	10964.31
510.643	11154.77
510.845	11201.88
511.048	11330.9
511.25	11375.95
511.453	11277.65
511.655	11736.4
511.858	11619.66
512.06	11615.57
512.262	12055.88
512.465	11939.15
512.667	12117.32
512.87	12096.84
513.072	12260.68
513.274	12174.66
513.477	12563.78
513.679	12539.2
513.881	13006.14
514.084	12606.78
514.286	12969.27
514.488	13065.53
514.69	13475.12
514.893	13403.44
515.095	13405.49
515.297	13638.96
515.499	13614.38
515.701	13684.02
515.904	14026.03
516.106	13923.63
516.308	14222.63
516.51	14492.96
516.712	14488.87
516.914	14476.58
517.116	14966.04
517.318	14781.73
517.52	14875.93
517.722	14900.51
517.925	14955.8
518.127	15357.21
518.329	15367.45
518.531	15400.21
518.733	15695.12
518.935	15734.03
519.136	15881.49
519.338	15987.98
519.54	16026.89
519.742	16143.63
519.944	16465.16
520.146	16747.78
520.348	16704.77
520.55	16661.76
520.752	16921.85
520.954	17222.91
521.155	16964.86
521.357	17202.43
521.559	17773.81
521.761	17599.73
521.963	17566.96
522.164	17818.86
522.366	17669.36
522.568	18068.72
522.77	18130.16
522.971	18306.28
523.173	18054.38
523.375	18521.32
523.576	18300.14
523.778	18115.82
523.98	18676.96
524.181	18633.96
524.383	18947.29
524.584	19211.48
524.786	19176.67
524.988	19096.8
525.189	19330.27
525.391	19393.75
525.592	19506.39
525.794	19750.1
525.995	19805.39
526.197	19645.65
526.398	19772.63
526.6	20079.82
526.801	19641.56
527.003	20079.82
527.204	20182.22
527.406	20671.68
527.607	20100.3
527.808	20493.51
528.01	19930.32
528.211	20384.97
528.412	20954.3
528.614	20366.54
528.815	20708.55
529.016	21040.32
529.218	20706.5
529.419	20626.63
529.62	20892.87
529.822	20602.05
530.023	20954.3
530.224	20659.4
530.425	20982.98
530.626	21021.89
530.828	20788.42
531.029	21501.11
531.23	21208.25
531.431	20841.67
531.632	21296.32
531.833	21361.85
532.035	21273.79
532.236	21187.77
532.437	21439.67
532.638	21116.09
532.839	21025.98
533.04	21378.23
533.241	21281.98
533.442	21421.24
533.643	21503.16
533.844	21542.07
534.045	21411
534.246	21034.18
534.447	21437.62
534.648	21333.18
534.849	21529.78
535.05	21019.84
535.251	21136.57
535.451	21466.3
535.652	21267.64
535.853	21279.93
536.054	21501.11
536.255	21337.27
536.456	21474.49
536.657	21460.15
536.857	21521.59
537.058	21191.87
537.259	21441.72
537.46	21365.95
537.66	21462.2
537.861	21478.58
538.062	21333.18
538.263	21490.87
538.463	21447.86
538.664	21359.8
538.865	21535.93
539.065	21322.94
539.266	21175.48
539.466	21501.11
539.667	21200.06
539.868	21656.76
540.068	21519.54
540.269	21367.99
540.469	21542.07
540.67	21310.65
540.87	21269.69
541.071	21062.85
541.271	21490.87
541.472	21099.71
541.672	20882.63
541.873	20964.54
542.073	20772.04
542.274	21632.18
542.474	21232.83
542.675	21288.12
542.875	21400.76
543.075	21292.22
543.276	21097.66
543.476	21152.96
543.676	20911.3
543.877	21216.44
544.077	21380.28
544.277	21234.88
544.478	21073.09
544.678	21177.53
544.878	21267.64
545.078	21120.19
545.279	20958.4
545.479	20995.26
545.679	21097.66
545.879	21202.11
546.079	21066.94
546.28	20905.15
546.48	20882.63
546.68	21286.08
546.88	21175.48
547.08	20812.99
547.28	20946.11
547.48	20776.13
547.68	21427.39
547.88	20944.06
548.081	21132.48
548.281	20825.28
548.481	20978.88
548.681	20917.44
548.881	20905.15
549.081	20950.21
549.28	20741.32
549.48	21193.92
549.68	20925.63
549.88	20982.98
550.08	20755.65
550.28	21009.6
550.48	20866.24
550.68	21112
550.88	20876.48
551.08	20718.79
551.279	21142.72
551.479	20749.51
551.679	21107.9
551.879	20923.58
552.079	20999.36
552.278	20763.84
552.478	20716.74
552.678	20960.45
552.878	20909.25
553.077	20782.27
553.277	20495.56
553.477	20864.19
553.676	20964.54
553.876	20583.62
554.076	20896.96
554.275	20647.11
554.475	20362.44
554.674	20759.75
554.874	20647.11
555.074	20737.22
555.273	20765.89
555.473	20899.01
555.672	20542.66
555.872	20593.86
556.071	20739.27
556.271	20655.3
556.47	20321.48
556.67	20434.12
556.869	20430.02
557.068	20647.11
557.268	20329.67
557.467	20614.34
557.667	20307.15
557.866	20378.83
558.065	20276.43
558.265	20288.71
558.464	20214.99
558.663	20272.33
558.863	19967.18
559.062	20735.17
559.261	20221.13
559.461	20135.12
559.66	19932.37
559.859	20149.45
560.058	20016.33
560.258	20122.83
560.457	20090.06
560.656	20133.07
560.855	19864.78
561.054	20219.08
561.253	19657.94
561.453	19819.73
561.652	19891.41
561.851	19930.32
562.05	19907.79
562.249	19533.01
562.448	20088.01
562.647	19487.96
562.846	19516.63
563.045	19905.74
563.244	19444.95
563.443	19703
563.642	19504.34
563.841	19424.47
564.04	19453.14
564.239	19533.01
564.438	19363.03
564.637	19246.3
564.836	19342.55
565.035	19092.7
565.234	19096.8
565.432	19137.76
565.631	19027.17
565.83	19160.28
566.029	18814.18
566.228	19256.54
566.427	19170.52
566.625	18812.13
566.824	18615.52
567.023	19084.51
567.222	18627.81
567.42	18978.01
567.619	19066.08
567.818	18691.3
568.016	18597.09
568.215	18500.84
568.414	18687.2
568.612	18740.45
568.811	18416.87
569.01	18343.14
569.208	17999.09
569.407	18457.83
569.605	18293.99
569.804	18789.6
570.002	18076.91
570.201	18423.01
570.4	18048.24
570.598	18152.68
570.797	17988.85
570.995	17954.03
571.193	18334.95
571.392	18115.82
571.59	17810.67
571.789	17994.99
571.987	17784.05
572.186	17683.7
572.384	17491.19
572.582	17730.8
572.781	18003.18
572.979	17282.3
573.177	17435.89
573.376	17554.68
573.574	17454.33
573.772	17390.84
573.971	17546.48
574.169	17315.06
574.367	17200.38
574.565	17454.33
574.763	17278.2
574.962	17157.37
575.16	17102.08
575.358	17138.94
575.556	16725.25
575.754	17216.76
575.952	16837.89
576.151	16987.39
576.349	17057.02
576.547	16813.31
576.745	16915.71
576.943	16971.01
577.141	16708.87
577.339	16921.85
577.537	16678.15
577.735	16762.11
577.933	16581.89
578.131	16721.15
578.329	16438.53
578.527	16182.54
578.725	16383.24
578.923	16155.91
579.121	16342.28
579.319	16270.6
579.516	16262.41
579.714	16454.92
579.912	16391.43
580.11	15904.01
580.308	15840.53
580.506	16057.61
580.704	15820.05
580.901	15951.12
581.099	16129.29
581.297	15846.67
581.495	15926.54
581.692	15789.33
581.89	15908.11
582.088	15947.02
582.285	15861.01
582.483	15727.89
582.681	15807.76
582.878	15545.62
583.076	15551.76
583.274	15602.96
583.471	15271.19
583.669	15455.51
583.866	15437.08
584.064	15408.4
584.262	15136.03
584.459	15355.16
584.657	15363.35
584.854	15344.92
585.052	14558.5
585.249	14859.55
585.447	15060.25
585.644	14949.66
585.841	14918.94
586.039	15076.63
586.236	14779.68
586.434	14918.94
586.631	15013.15
586.828	14824.73
587.026	14716.19
587.223	14687.52
587.42	14652.7
587.618	14468.39
587.815	14337.32
588.012	14265.64
588.21	14400.8
588.407	14677.28
588.604	14523.68
588.801	14370.08
588.999	14343.46
589.196	14341.41
589.393	14339.37
589.59	14153
589.787	14150.95
589.984	14181.67
590.182	13968.68
590.379	14146.86
590.576	13851.95
590.773	14040.36
590.97	13845.8
591.167	14013.74
591.364	13604.14
591.561	13784.37
591.758	13497.65
591.955	13749.55
592.152	13614.38
592.349	13446.45
592.546	13692.21
592.743	13532.47
592.94	13352.24
593.137	13344.05
593.334	13327.67
593.531	13139.26
593.727	13643.06
593.924	13483.31
594.121	13448.5
594.318	13147.45
594.515	13370.68
594.712	13208.89
594.908	13294.9
595.105	13065.53
595.302	12838.2
595.499	13018.43
595.696	12860.73
595.892	12975.42
596.089	13065.53
596.286	12838.2
596.482	12825.92
596.679	12963.13
596.876	12954.94
597.072	12836.16
597.269	12897.6
597.466	12803.39
597.662	12571.97
597.859	12430.66
598.055	12649.79
598.252	12350.79
598.448	12649.79
598.645	12520.77
598.841	12582.21
599.038	12244.29
599.234	12268.87
599.431	12336.45
599.627	12211.53
599.824	12141.89
600.02	12080.46
600.217	12258.63
600.413	12010.82
600.609	12045.64
600.806	11857.23
601.002	12066.12
601.198	11881.8
601.395	11908.43
601.591	11801.93
601.787	11900.23
601.984	11824.46
602.18	12105.03
602.376	11928.91
602.572	11679.05
602.769	11621.71
602.965	11445.59
603.161	11705.68
603.357	11523.41
603.553	11705.68
603.75	11638.09
603.946	11414.87
604.142	11386.19
604.338	11449.68
604.534	11402.58
604.73	11246.93
604.926	11330.9
605.122	11445.59
605.318	11238.74
605.514	11314.52
605.71	11001.18
605.906	11048.28
606.102	11203.93
606.298	11148.63
606.494	11115.86
606.69	10982.74
606.886	11187.54
607.082	11040.09
607.278	10970.46
607.474	10876.25
607.67	10960.22
607.866	10739.04
608.062	10898.78
608.257	10607.97
608.453	10700.12
608.649	10745.18
608.845	10632.54
609.041	10816.86
609.236	10786.14
609.432	10818.91
609.628	10618.21
609.824	10693.98
610.019	10691.93
610.215	10575.2
610.411	10685.79
610.606	10601.82
610.802	10394.98
610.998	10671.45
611.193	10569.05
611.389	10493.28
611.584	10552.67
611.78	10397.03
611.976	10327.39
612.171	10507.62
612.367	10366.31
612.562	10298.72
612.758	10372.45
612.953	10356.07
613.149	10427.74
613.344	10147.17
613.539	10354.02
613.735	10366.31
613.93	10175.84
614.126	10134.89
614.321	10380.64
614.517	10100.07
614.712	10237.28
614.907	10116.45
615.103	10181.99
615.298	10108.26
615.493	9909.61
615.688	9934.18
615.884	10235.24
616.079	10003.82
616.274	9905.51
616.47	10106.21
616.665	10085.73
616.86	10007.91
617.055	9780.59
617.25	9966.95
617.445	9854.31
617.641	9641.32
617.836	9729.39
618.031	9586.03
618.226	9692.52
618.421	9803.11
618.616	9786.73
618.811	9579.89
619.006	9770.35
619.201	9532.78
619.396	9524.59
619.591	9461.1
619.786	9723.24
619.981	9360.75
620.176	9475.44
620.371	9348.47
620.566	9430.38
620.761	9330.03
620.956	9327.99
621.151	9164.15
621.346	9108.85
621.541	9133.43
621.735	9076.09
621.93	9106.81
622.125	8983.93
622.32	8994.17
622.515	8750.46
622.709	8748.41
622.904	8762.75
623.099	8695.16
623.294	8709.5
623.488	8484.22
623.683	8744.31
623.878	8449.41
624.072	8525.18
624.267	8494.46
624.462	8557.95
624.656	8357.25
624.851	8297.86
625.046	8359.3
625.24	8256.9
625.435	8183.17
625.629	8088.96
625.824	8310.15
626.018	8043.91
626.213	8011.14
626.407	7998.85
626.602	7867.78
626.796	7933.32
626.991	7783.82
627.185	7865.74
627.38	7904.65
627.574	7759.24
627.768	7773.58
627.963	7701.9
628.157	7509.39
628.352	7597.45
628.546	7472.53
628.74	7566.73
628.935	7368.08
629.129	7470.48
629.323	7464.33
629.517	7458.19
629.712	7533.97
629.906	7255.44
630.1	7191.95
630.294	7292.3
630.489	7122.32
630.683	7110.04
630.877	7048.6
631.071	6929.81
631.265	7280.02
631.459	7075.22
631.653	6993.3
631.848	6993.3
632.042	6997.4
632.236	6794.65
632.43	6722.97
632.624	6960.53
632.818	6845.85
633.012	6677.91
633.206	6626.71
633.4	6772.12
633.594	6593.95
633.788	6501.79
633.982	6509.98
634.176	6657.43
634.369	6387.1
634.563	6303.14
634.757	6378.91
634.951	6280.61
635.145	6292.9
635.339	6462.88
635.533	6176.16
635.726	6366.62
635.92	6135.2
636.114	6155.68
636.308	6143.39
636.501	6194.59
636.695	5997.99
636.889	5944.74
637.083	6002.08
637.276	5879.21
637.47	5979.56
637.664	5948.84
637.857	5864.87
638.051	5914.02
638.244	5875.11
638.438	5948.84
638.632	5715.37
638.825	5723.56
639.019	5569.96
639.212	5617.07
639.406	5717.42
639.599	5658.03
639.793	5590.44
639.986	5533.1
640.18	5647.79
640.373	5567.92
640.567	5320.11
640.76	5406.13
640.954	5389.74
641.147	5369.26
641.34	5381.55
641.534	5410.22
641.727	5359.02
641.92	5234.1
642.114	5248.43
642.307	5191.09
642.5	5277.1
642.694	5111.22
642.887	5174.71
643.08	5215.66
643.273	5225.9
643.467	5098.93
643.66	5084.59
643.853	4971.96
644.046	4947.38
644.239	5084.59
644.432	4961.72
644.626	4752.82
644.819	4785.59
645.012	4834.74
645.205	4863.41
645.398	4818.36
645.591	4715.96
645.784	4738.49
645.977	4691.38
646.17	4621.75
646.363	4505.02
646.556	4707.77
646.749	4709.82
646.942	4582.84
647.135	4576.7
647.328	4580.79
647.521	4615.61
647.714	4543.93
647.907	4572.6
648.099	4482.49
648.292	4621.75
648.485	4478.4
648.678	4386.24
648.871	4480.44
649.064	4339.13
649.256	4367.81
649.449	4341.18
649.642	4332.99
649.835	4298.17
650.027	4292.03
650.22	4201.92
650.413	4228.54
650.605	4193.73
650.798	4134.34
650.991	4015.55
651.183	4109.76
651.376	4124.1
651.568	4027.84
651.761	3995.08
651.954	3980.74
652.146	4062.66
652.339	4070.85
652.531	3831.24
652.724	3874.24
652.916	3814.85
653.109	3900.87
653.301	4036.03
653.494	3968.45
653.686	3786.18
653.879	3671.5
654.071	3923.4
654.263	3751.37
654.456	3829.19
654.648	3814.85
654.84	3747.27
655.033	3769.8
655.225	3573.19
655.417	3573.19
655.61	3671.5
655.802	3614.15
655.994	3630.54
656.186	3526.09
656.379	3661.26
656.571	3583.43
656.763	3519.95
656.955	3478.99
657.148	3534.28
657.34	3503.56
657.532	3474.89
657.724	3345.87
657.916	3468.75
658.108	3335.63
658.3	3317.2
658.492	3446.22
658.684	3425.74
658.876	3450.32
659.068	3364.3
659.26	3341.77
659.452	3309.01
659.644	3198.42
659.836	3352.01
660.028	3378.64
660.22	3235.28
660.412	3282.38
660.604	3071.44
660.796	3274.19
660.988	3225.04
661.18	3175.89
661.372	3157.46
661.563	3276.24
661.755	3130.83
661.947	3012.05
662.139	3122.64
662.331	3012.05
662.522	3124.69
662.714	3134.93
662.906	2938.32
663.097	2934.23
663.289	3057.11
663.481	3032.53
663.673	3048.91
663.864	2919.89
664.056	2827.73
664.247	2977.23
664.439	2860.5
664.631	2907.6
664.822	2981.33
665.014	2807.25
665.205	2872.79
665.397	2774.49
665.588	2739.67
665.78	2860.5
665.971	2751.96
666.163	2799.06
666.354	2653.66
666.546	2770.39
666.737	2719.19
666.929	2848.21
667.12	2784.73
667.311	2672.09
667.503	2733.53
667.694	2764.25
667.885	2741.72
668.077	2635.22
668.268	2629.08
668.459	2655.7
668.651	2579.93
668.842	2512.35
669.033	2616.79
669.224	2543.07
669.416	2620.89
669.607	2618.84
669.798	2602.46
669.989	2711
670.18	2557.4
670.371	2479.58
670.563	2637.27
670.754	2534.87
670.945	2444.76
671.136	2567.64
671.327	2502.11
671.518	2381.28
671.709	2604.5
671.9	2545.11
672.091	2469.34
672.282	2514.39
672.473	2520.54
672.664	2368.99
672.855	2471.39
673.046	2414.04
673.237	2424.28
673.428	2475.48
673.619	2512.35
673.809	2504.15
674	2438.62
674.191	2457.05
674.382	2303.45
674.573	2362.84
674.764	2266.59
674.954	2487.77
675.145	2430.43
675.336	2272.73
675.527	2405.85
675.717	2473.43
675.908	2340.32
676.099	2336.22
676.289	2393.56
676.48	2336.22
676.671	2260.45
676.861	2328.03
677.052	2344.41
677.243	2348.51
677.433	2287.07
677.624	2358.75
677.814	2309.6
678.005	2293.21
678.195	2377.18
678.386	2168.29
678.576	2270.69
678.767	2270.69
678.957	2340.32
679.148	2340.32
679.338	2254.3
679.529	2129.38
679.719	2098.66
679.909	2301.4
680.1	2172.38
680.29	2223.58
680.481	2225.63
680.671	2227.68
680.861	2289.12
681.052	2110.94
681.242	2209.25
681.432	2250.21
681.622	2299.36
681.813	2272.73
682.003	2266.59
682.193	2199.01
682.383	2217.44
682.573	2219.49
682.764	2201.05
682.954	2194.91
683.144	2237.92
683.334	2221.53
683.524	2274.78
683.714	2221.53
683.904	2184.67
684.094	2190.81
684.284	2143.71
684.474	2205.15
684.664	2217.44
684.854	2209.25
685.044	2192.86
685.234	2047.46
685.424	2213.34
685.614	2069.98
685.804	2217.44
685.994	2192.86
686.184	2104.8
686.374	2090.46
686.564	2188.77
686.753	2143.71
686.943	2131.42
687.133	2141.66
687.323	2055.65
687.513	2080.22
687.702	2020.83
687.892	2143.71
688.082	2037.22
688.272	2098.66
688.461	1912.29
688.651	2100.7
688.841	2049.5
689.03	1971.68
689.22	1957.35
689.41	1940.96
689.599	1979.87
689.789	1963.49
689.979	2022.88
690.168	1881.57
690.358	1988.07
690.547	1940.96
690.737	1945.06
690.926	1951.2
691.116	1998.31
691.305	1807.84
691.495	1873.38
691.684	1832.42
691.874	1969.63
692.063	2008.55
692.252	1848.8
692.442	1951.2
692.631	1811.94
692.82	1930.72
693.01	1869.28
693.199	1793.51
693.388	1799.65
693.578	1834.47
693.767	1822.18
693.956	1842.66
694.146	1811.94
694.335	1813.99
694.524	1734.12
694.713	1783.27
694.902	1744.36
695.092	1734.12
695.281	1750.5
695.47	1699.3
695.659	1707.49
695.848	1709.54
696.037	1621.48
696.226	1719.78
696.415	1721.83
696.604	1871.33
696.793	1680.87
696.982	1748.45
697.171	1766.89
697.36	1697.25
697.549	1652.2
697.738	1672.68
697.927	1734.12
698.116	1633.77
698.305	1779.17
698.494	1742.31
698.683	1666.53
698.872	1732.07
699.061	1766.89
699.25	1666.53
699.438	1644.01
699.627	1629.67
699.816	1703.4
700.005	1766.89
700.193	1611.24
700.382	1785.32
700.571	1701.35
700.76	1752.55
700.948	1644.01
701.137	1750.5
701.326	1703.4
701.514	1605.1
701.703	1676.77
701.892	1625.58
702.08	1758.69
702.269	1676.77
702.457	1627.62
702.646	1730.02
702.834	1680.87
703.023	1795.56
703.212	1695.21
703.4	1717.73
703.589	1687.01
703.777	1621.48
703.965	1676.77
704.154	1590.76
704.342	1627.62
704.531	1582.57
704.719	1644.01
704.907	1768.93
705.096	1627.62
705.284	1654.25
705.472	1693.16
705.661	1639.91
705.849	1680.87
706.037	1691.11
706.226	1670.63
706.414	1768.93
706.602	1570.28
706.79	1629.67
706.979	1594.86
707.167	1705.45
707.355	1572.33
707.543	1666.53
707.731	1668.58
707.919	1619.43
708.107	1607.14
708.296	1693.16
708.484	1623.53
708.672	1605.1
708.86	1596.9
709.048	1641.96
709.236	1562.09
709.424	1725.93
709.612	1734.12
709.8	1590.76
709.988	1617.38
710.176	1660.39
710.364	1672.68
710.551	1680.87
710.739	1697.25
710.927	1654.25
711.115	1766.89
711.303	1668.58
711.491	1732.07
711.679	1570.28
711.866	1697.25
712.054	1730.02
712.242	1646.05
712.43	1674.73
712.617	1668.58
712.805	1709.54
712.993	1670.63
713.181	1588.71
713.368	1594.86
713.556	1684.97
713.744	1742.31
713.931	1717.73
714.119	1641.96
714.306	1662.44
714.494	1644.01
714.682	1687.01
714.869	1611.24
715.057	1693.16
715.244	1594.86
715.432	1695.21
715.619	1689.06
715.807	1668.58
715.994	1627.62
716.182	1672.68
716.369	1644.01
716.556	1693.16
716.744	1689.06
716.931	1615.34
717.119	1621.48
717.306	1668.58
717.493	1648.1
717.681	1625.58
717.868	1725.93
718.055	1633.77
718.242	1664.49
718.43	1615.34
718.617	1680.87
718.804	1699.3
718.991	1693.16
719.179	1701.35
719.366	1603.05
719.553	1668.58
719.74	1680.87
719.927	1684.97
720.114	1662.44
720.301	1697.25
720.488	1637.86
720.676	1734.12
720.863	1670.63
721.05	1746.41
721.237	1758.69
721.424	1744.36
721.611	1668.58
721.798	1746.41
721.985	1779.17
722.172	1607.14
722.358	1660.39
722.545	1709.54
722.732	1750.5
722.919	1793.51
723.106	1703.4
723.293	1701.35
723.48	1621.48
723.667	1648.1
723.853	1613.29
724.04	1766.89
724.227	1631.72
724.414	1619.43
724.6	1818.08
724.787	1687.01
724.974	1727.97
725.161	1615.34
725.347	1711.59
725.534	1703.4
725.72	1725.93
725.907	1742.31
726.094	1635.82
726.28	1752.55
726.467	1594.86
726.653	1697.25
726.84	1703.4
727.027	1684.97
727.213	1756.65
727.4	1717.73
727.586	1629.67
727.773	1631.72
727.959	1719.78
728.145	1734.12
728.332	1701.35
728.518	1672.68
728.705	1670.63
728.891	1644.01
729.077	1605.1
729.264	1674.73
729.45	1801.7
729.636	1838.56
729.823	1664.49
730.009	1717.73
730.195	1629.67
730.382	1760.74
730.568	1752.55
730.754	1664.49
730.94	1637.86
731.126	1705.45
731.313	1676.77
731.499	1670.63
731.685	1637.86
731.871	1691.11
732.057	1752.55
732.243	1723.88
732.429	1719.78
732.615	1791.46
732.801	1725.93
732.987	1762.79
733.173	1717.73
733.359	1781.22
733.545	1719.78
733.731	1795.56
733.917	1789.41
734.103	1631.72
734.289	1629.67
734.475	1644.01
734.661	1701.35
734.847	1725.93
735.033	1742.31
735.219	1684.97
735.404	1639.91
735.59	1666.53
735.776	1592.81
735.962	1664.49
736.148	1721.83
736.333	1709.54
736.519	1680.87
736.705	1662.44
736.89	1725.93
737.076	1736.17
737.262	1709.54
737.447	1713.64
737.633	1562.09
737.819	1660.39
738.004	1680.87
738.19	1668.58
738.375	1603.05
738.561	1666.53
738.747	1596.9
738.932	1660.39
739.118	1658.34
739.303	1650.15
739.489	1603.05
739.674	1611.24
739.859	1580.52
740.045	1508.84
740.23	1476.07
740.416	1594.86
740.601	1625.58
740.786	1635.82
740.972	1549.8
741.157	1512.94
741.342	1512.94
741.528	1711.59
741.713	1615.34
741.898	1611.24
742.084	1598.95
742.269	1594.86
742.454	1578.47
742.639	1641.96
742.824	1564.14
743.01	1564.14
743.195	1594.86
743.38	1568.23
743.565	1512.94
743.75	1404.39
743.935	1508.84
744.12	1549.8
744.305	1463.79
744.49	1529.32
744.675	1416.68
744.86	1414.63
745.045	1373.68
745.23	1467.88
745.415	1433.07
745.6	1398.25
745.785	1400.3
745.97	1400.3
746.155	1480.17
746.34	1433.07
746.525	1474.03
746.71	1375.72
746.895	1394.15
747.079	1373.68
747.264	1373.68
747.449	1422.83
747.634	1482.22
747.819	1345
748.003	1230.32
748.188	1416.68
748.373	1324.52
748.557	1316.33
748.742	1349.1
748.927	1340.91
749.111	1322.48
749.296	1222.13
749.481	1371.63
749.665	1228.27
749.85	1193.45
750.034	1328.62
750.219	1263.08
750.404	1271.28
750.588	1201.65
750.773	1263.08
750.957	1242.61
751.141	1146.35
751.326	1209.84
751.51	1211.89
751.695	1164.78
751.879	1193.45
752.064	1222.13
752.248	1158.64
752.432	1129.97
752.617	1193.45
752.801	1209.84
752.985	1140.21
753.17	1189.36
753.354	1127.92
753.538	1211.89
753.722	1091.06
753.907	1074.67
754.091	1015.28
754.275	1072.62
754.459	1062.38
754.643	1054.19
754.828	1050.1
755.012	1056.24
755.196	972.27
755.38	964.08
755.564	976.37
755.748	1019.38
755.932	1033.71
756.116	1062.38
756.3	1009.14
756.484	1041.9
756.668	1002.99
756.852	914.93
757.036	1021.42
757.22	923.12
757.404	906.74
757.588	871.92
757.772	867.83
757.956	947.7
758.14	902.64
758.323	984.56
758.507	923.12
758.691	949.75
758.875	853.49
759.059	927.22
759.242	923.12
759.426	925.17
759.61	839.16
759.794	828.92
759.977	886.26
760.161	884.21
760.345	912.88
760.528	904.69
760.712	869.87
760.895	876.02
761.079	777.72
761.263	800.24
761.446	849.4
761.63	816.63
761.813	837.11
761.997	826.87
762.18	800.24
762.364	853.49
762.547	726.52
762.731	810.48
762.914	822.77
763.098	818.68
763.281	759.28
763.464	802.29
763.648	744.95
763.831	759.28
764.015	738.8
764.198	800.24
764.381	792.05
764.564	736.76
764.748	734.71
764.931	644.6
765.114	720.37
765.297	810.48
765.481	740.85
765.664	769.52
765.847	693.75
766.03	816.63
766.213	728.56
766.397	730.61
766.58	687.61
766.763	769.52
766.946	720.37
767.129	728.56
767.312	583.16
767.495	687.61
767.678	744.95
767.861	701.94
768.044	724.47
768.227	710.13
768.41	701.94
768.593	703.99
768.776	628.21
768.959	652.79
769.142	656.89
769.324	628.21
769.507	595.45
769.69	693.75
769.873	613.88
770.056	660.98
770.239	646.65
770.421	718.33
770.604	615.93
770.787	646.65
770.97	677.37
771.152	527.86
771.335	634.36
771.518	628.21
771.7	599.54
771.883	669.17
772.066	634.36
772.248	531.96
772.431	642.55
772.613	585.21
772.796	607.73
772.978	595.45
773.161	583.16
773.343	521.72
773.526	570.87
773.708	546.3
773.891	558.58
774.073	560.63
774.256	515.58
774.438	554.49
774.621	505.34
774.803	505.34
774.985	572.92
775.168	642.55
775.35	511.48
775.532	527.86
775.715	595.45
775.897	527.86
776.079	509.43
776.261	505.34
776.444	540.15
776.626	531.96
776.808	488.95
776.99	474.62
777.173	447.99
777.355	529.91
777.537	527.86
777.719	447.99
777.901	488.95
778.083	525.82
778.265	413.18
778.447	495.1
778.629	415.23
778.811	431.61
778.993	472.57
779.175	484.86
779.357	378.36
779.539	441.85
779.721	450.04
779.903	466.42
780.085	433.66
780.267	394.75
780.449	450.04
780.631	447.99
780.812	415.23
780.994	454.14
781.176	335.35
781.358	458.23
781.54	343.55
781.721	429.56
781.903	460.28
782.085	294.4
782.267	407.03
782.448	447.99
782.63	372.22
782.812	384.51
782.993	388.6
783.175	400.89
783.357	333.31
783.538	329.21
783.72	374.27
783.901	439.8
784.083	431.61
784.264	376.31
784.446	366.07
784.627	368.12
784.809	349.69
784.99	388.6
785.172	380.41
785.353	286.2
785.535	337.4
785.716	296.44
785.897	284.16
786.079	294.4
786.26	382.46
786.441	329.21
786.623	263.68
786.804	300.54
786.985	316.92
787.167	275.96
787.348	230.91
787.529	357.88
787.71	300.54
787.891	351.74
788.073	335.35
788.254	245.24
788.435	349.69
788.616	349.69
788.797	255.48
788.978	181.76
789.159	308.73
789.34	308.73
789.522	267.77
789.703	316.92
789.884	230.91
790.065	351.74
790.246	235
790.427	216.57
790.607	243.2
790.788	222.72
790.969	196.09
791.15	345.59
791.331	196.09
791.512	243.2
791.693	206.33
791.874	196.09
792.054	228.86
792.235	286.2
792.416	228.86
792.597	161.28
792.778	214.52
792.958	187.9
793.139	192
793.32	249.34
793.5	261.63
793.681	232.96
793.862	247.29
794.042	212.48
794.223	146.94
794.404	194.05
794.584	146.94
794.765	140.8
794.945	185.85
795.126	284.16
795.306	235
795.487	171.52
795.667	196.09
795.848	267.77
796.028	177.66
796.209	239.1
796.389	165.37
796.57	161.28
796.75	183.81
796.93	200.19
797.111	245.24
797.291	204.28
797.471	275.96
797.652	200.19
797.832	155.13
798.012	228.86
798.192	237.05
798.373	124.41
798.553	148.99
798.733	179.71
798.913	214.52
799.093	189.95
799.274	232.96
799.454	161.28
799.634	253.44
799.814	167.42
799.994	183.81
800.174	192
800.354	226.81
800.534	120.32
800.714	235
800.894	159.23
801.074	153.09
801.254	91.65
801.434	198.14
801.614	112.13
801.794	212.48
801.974	742.9
802.154	173.57
802.334	161.28
802.514	181.76
802.693	196.09
802.873	146.94
803.053	243.2
803.233	97.79
803.413	148.99
803.592	112.13
803.772	114.17
803.952	151.04
804.131	212.48
804.311	114.17
804.491	171.52
804.67	144.89
804.85	118.27
805.03	130.56
805.209	175.61
805.389	169.47
805.568	183.81
805.748	89.6
805.928	169.47
806.107	136.7
806.287	179.71
806.466	128.51
806.646	155.13
806.825	120.32
807.004	177.66
807.184	218.62
807.363	144.89
807.543	187.9
807.722	138.75
807.901	124.41
808.081	161.28
808.26	122.37
808.439	79.36
808.619	112.13
808.798	58.88
808.977	32.26
809.156	128.51
809.336	161.28
809.515	128.51
809.694	79.36
809.873	128.51
810.052	185.85
810.231	216.57
810.411	126.46
810.59	192
810.769	134.65
810.948	148.99
811.127	22.02
811.306	44.54
811.485	116.22
811.664	83.45
811.843	128.51
812.022	95.74
812.201	97.79
812.38	148.99
812.559	155.13
812.737	138.75
812.916	99.84
813.095	93.69
813.274	142.85
813.453	114.17
813.632	89.6
813.811	148.99
813.989	130.56
814.168	177.66
814.347	134.65
814.526	103.93
814.704	155.13
814.883	120.32
815.062	46.59
815.24	79.36
815.419	103.93
815.598	108.03
815.776	46.59
815.955	144.89
816.133	79.36
816.312	30.21
816.49	130.56
816.669	71.17
816.847	40.45
817.026	67.07
817.204	136.7
817.383	103.93
817.561	81.41
817.74	134.65
817.918	54.78
818.097	155.13
818.275	30.21
818.453	75.26
818.632	50.69
818.81	95.74
818.988	159.23
819.167	91.65
819.345	99.84
819.523	95.74
819.701	114.17
819.879	95.74
820.058	132.61
820.236	116.22
820.414	19.97
820.592	87.55
820.77	103.93
820.948	5.63
821.127	56.83
821.305	89.6
821.483	69.12
821.661	46.59
821.839	95.74
822.017	34.3
822.195	56.83
822.373	93.69
822.551	54.78
822.729	130.56
822.907	26.11
823.085	105.98
823.262	75.26
823.44	114.17
823.618	60.93
823.796	54.78
823.974	54.78
824.152	15.87
824.329	54.78
824.507	58.88
824.685	120.32
824.863	17.92
825.04	81.41
825.218	122.37
825.396	83.45
825.574	24.06
825.751	69.12
825.929	138.75
826.107	62.98
826.284	144.89
826.462	34.3
826.639	97.79
826.817	44.54
826.994	103.93
827.172	19.97
827.349	62.98
827.527	46.59
827.704	22.02
827.882	93.69
828.059	46.59
828.237	34.3
828.414	54.78
828.591	-14.85
828.769	75.26
828.946	79.36
829.124	128.51
829.301	75.26
829.478	30.21
829.655	58.88
829.833	120.32
830.01	60.93
830.187	83.45
830.364	75.26
830.542	50.69
830.719	89.6
830.896	-14.85
831.073	58.88
831.25	50.69
831.427	58.88
831.604	7.68
831.782	56.83
831.959	91.65
832.136	79.36
832.313	48.64
832.49	26.11
832.667	65.02
832.844	54.78
833.021	26.11
833.198	87.55
833.374	-14.85
833.551	97.79
833.728	103.93
833.905	81.41
834.082	40.45
834.259	15.87
834.436	-14.85
834.612	22.02
834.789	62.98
834.966	56.83
835.143	48.64
835.319	38.4
835.496	28.16
835.673	46.59
835.85	83.45
836.026	26.11
836.203	5.63
836.38	5.63
836.556	67.07
836.733	54.78
836.909	148.99
837.086	62.98
837.262	-10.75
837.439	58.88
837.616	48.64
837.792	46.59
837.968	95.74
838.145	13.82
838.321	73.21
838.498	99.84
838.674	40.45
838.851	58.88
839.027	81.41
839.203	103.93
839.38	62.98
839.556	-76.29
839.732	54.78
839.909	32.26
840.085	-14.85
840.261	26.11
840.437	62.98
840.614	36.35
840.79	58.88
840.966	71.17
841.142	71.17
841.318	105.98
841.494	54.78
841.671	79.36
841.847	-8.7
842.023	34.3
842.199	34.3
842.375	87.55
842.551	-20.99
842.727	46.59
842.903	42.5
843.079	-33.28
843.255	71.17
843.431	44.54
843.607	81.41
843.783	-27.14
843.959	-2.56
844.134	46.59
844.31	65.02
844.486	42.5
844.662	58.88
844.838	40.45
845.013	9.73
845.189	58.88
845.365	52.74
845.541	54.78
845.716	91.65
845.892	30.21
846.068	-18.94
846.244	15.87
846.419	46.59
846.595	22.02
846.77	40.45
846.946	48.64
847.122	40.45
847.297	30.21
847.473	144.89
847.648	44.54
847.824	-8.7
847.999	-33.28
848.175	54.78
848.35	-16.9
848.526	54.78
848.701	32.26
848.876	138.75
849.052	67.07
849.227	1.54
849.403	62.98
849.578	79.36
849.753	40.45
849.929	73.21
850.104	-2.56
850.279	81.41
850.454	69.12
850.63	40.45
850.805	-43.52
850.98	-18.94
851.155	13.82
851.33	46.59
851.505	-39.42
851.681	15.87
851.856	36.35
852.031	5.63
852.206	30.21
852.381	-31.23
852.556	-10.75
852.731	17.92
852.906	34.3
853.081	71.17
853.256	62.98
853.431	67.07
853.606	-18.94
853.781	71.17
853.956	-76.29
854.131	-4.61
854.305	46.59
854.48	-16.9
854.655	38.4
854.83	30.21
855.005	-8.7
855.18	58.88
855.354	38.4
855.529	-20.99
855.704	3.58
855.879	42.5
856.053	13.82
856.228	-14.85
856.403	17.92
856.577	46.59
856.752	30.21
856.926	54.78
857.101	34.3
857.276	42.5
857.45	1.54
857.625	73.21
857.799	75.26
857.974	54.78
858.148	9.73
858.323	62.98
858.497	36.35
858.672	-43.52
858.846	-6.66
859.02	7.68
859.195	7.68
859.369	1.54
859.543	91.65
859.718	13.82
859.892	-18.94
860.066	11.78
860.241	58.88
860.415	1.54
860.589	50.69
860.763	65.02
860.938	-35.33
861.112	-2.56
861.286	-84.48
861.46	50.69
861.634	58.88
861.808	65.02
861.982	13.82
862.157	-31.23
862.331	58.88
862.505	22.02
862.679	9.73
862.853	95.74
863.027	-2.56
863.201	103.93
863.375	-18.94
863.549	13.82
863.722	-20.99
863.896	62.98
864.07	-12.8
864.244	-43.52
864.418	30.21
864.592	15.87
864.766	-18.94
864.939	38.4
865.113	65.02
865.287	32.26
865.461	-41.47
865.634	40.45
865.808	-16.9
865.982	46.59
866.156	-27.14
866.329	-43.52
866.503	1.54
866.676	-4.61
866.85	38.4
867.024	-27.14
867.197	40.45
867.371	15.87
867.544	22.02
867.718	-0.51
867.891	75.26
868.065	-27.14
868.238	13.82
868.412	26.11
868.585	17.92
868.759	24.06
868.932	-12.8
869.105	32.26
869.279	56.83
869.452	1.54
869.625	-49.66
869.799	79.36
869.972	-64
870.145	30.21
870.319	15.87
870.492	-2.56
870.665	-27.14
870.838	38.4
871.011	38.4
871.185	65.02
871.358	-12.8
871.531	32.26
871.704	32.26
871.877	46.59
872.05	-14.85
872.223	-6.66
872.396	87.55
872.569	44.54
872.742	-70.14
872.915	30.21
873.088	7.68
873.261	-8.7
873.434	-35.33
873.607	-18.94
873.78	-41.47
873.953	7.68
874.126	15.87
874.299	-41.47
874.471	-147.97
874.644	-27.14
874.817	87.55
874.99	22.02
875.163	40.45
875.335	-16.9
875.508	73.21
875.681	22.02
875.853	67.07
876.026	-72.19
876.199	34.3
876.371	38.4
876.544	17.92
876.717	15.87
876.889	-10.75
877.062	-41.47
877.234	-51.71
877.407	71.17
877.579	30.21
877.752	22.02
877.924	-51.71
878.097	58.88
878.269	34.3
878.442	-53.76
878.614	67.07
878.786	1.54
878.959	26.11
879.131	17.92
879.303	-100.86
879.476	11.78
879.648	52.74
879.82	62.98
879.993	65.02
880.165	71.17
880.337	-80.38
880.509	46.59
880.681	-37.38
880.854	-27.14
881.026	44.54
881.198	54.78
881.37	-16.9
881.542	-10.75
881.714	52.74
881.886	-66.05
882.058	13.82
882.23	5.63
882.402	-39.42
882.574	-59.9
882.746	-92.67
882.918	-10.75
883.09	-18.94
883.262	62.98
883.434	26.11
883.606	-59.9
883.778	5.63
883.95	50.69
884.122	15.87
884.293	83.45
884.465	30.21
884.637	36.35
884.809	-57.86
884.98	24.06
885.152	32.26
885.324	13.82
885.496	-4.61
885.667	48.64
885.839	-27.14
886.011	38.4
886.182	9.73
886.354	-23.04
886.525	32.26
886.697	3.58
886.869	79.36
887.04	17.92
887.212	11.78
887.383	40.45
887.555	79.36
887.726	-18.94
887.897	13.82
888.069	62.98
888.24	-90.62
888.412	15.87
888.583	-53.76
888.754	87.55
888.926	-43.52
889.097	62.98
889.268	-20.99
889.44	50.69
889.611	-6.66
889.782	-25.09
889.953	1.54
890.125	71.17
890.296	62.98
890.467	-10.75
890.638	-35.33
890.809	-64
890.98	-35.33
891.151	-70.14
891.323	-2.56
891.494	7.68
891.665	-23.04
891.836	32.26
892.007	-43.52
892.178	56.83
892.349	-33.28
892.52	-74.24
892.691	-47.62
892.862	32.26
893.032	-10.75
893.203	1.54
893.374	30.21
893.545	24.06
893.716	-61.95
893.887	-14.85
894.057	-68.09
894.228	13.82
894.399	-18.94
894.57	1.54
894.74	-39.42
894.911	-16.9
895.082	54.78
895.253	-27.14
895.423	22.02
895.594	58.88
895.764	87.55
895.935	13.82
896.106	-10.75
896.276	-0.51
896.447	-131.58
896.617	-12.8
896.788	-16.9
896.958	-51.71
897.129	1.54
897.299	58.88
897.47	19.97
897.64	-27.14
897.81	-27.14
897.981	24.06
898.151	-43.52
898.322	-10.75
898.492	-14.85
898.662	-25.09
898.832	19.97
899.003	-31.23
899.173	5.63
899.343	-41.47
899.513	5.63
