Data from USB4F104151__28__14-16-27-333.txt Node

Date: Thu Mar 13 14:16:27 EDT 2025
User: louis
Spectrometer: USB4F10415
Trigger mode: 4
Integration Time (sec): 2.000000E-2
Scans to average: 1
Electric dark correction enabled: true
Nonlinearity correction enabled: false
Boxcar width: 0
XAxis mode: Wavelengths
Number of Pixels in Spectrum: 3648
>>>>>Begin Spectral Data<<<<<
178.204	-68.44
178.424	-68.44
178.644	-68.44
178.864	-105.3
179.084	-117.59
179.304	-17.24
179.524	13.48
179.744	-27.48
179.964	99.5
180.184	-7
180.404	54.44
180.624	-9.05
180.844	-2.9
181.064	-60.24
181.283	-43.86
181.503	-66.39
181.723	66.73
181.943	-43.86
182.163	48.3
182.383	5.29
182.602	58.54
182.822	11.43
183.042	21.67
183.262	23.72
183.482	70.83
183.701	-15.19
183.921	21.67
184.141	7.34
184.361	-19.29
184.58	64.68
184.8	23.72
185.02	19.63
185.239	60.59
185.459	40.11
185.679	-2.9
185.898	-21.33
186.118	38.06
186.338	29.87
186.557	95.4
186.777	70.83
186.997	17.58
187.216	40.11
187.436	5.29
187.655	64.68
187.875	21.67
188.095	1.19
188.314	56.49
188.534	1.19
188.753	7.34
188.973	74.92
189.192	91.31
189.412	56.49
189.631	38.06
189.851	17.58
190.07	15.53
190.29	-64.34
190.509	-23.38
190.729	-9.05
190.948	-4.95
191.168	64.68
191.387	64.68
191.607	-41.81
191.826	13.48
192.045	103.59
192.265	38.06
192.484	81.07
192.704	5.29
192.923	-0.85
193.142	72.87
193.362	64.68
193.581	38.06
193.8	58.54
194.02	13.48
194.239	54.44
194.458	40.11
194.678	-23.38
194.897	17.58
195.116	29.87
195.335	62.63
195.555	54.44
195.774	-52.05
195.993	9.39
196.212	-19.29
196.432	-11.09
196.651	23.72
196.87	-31.57
197.089	128.17
197.308	62.63
197.528	29.87
197.747	-19.29
197.966	-2.9
198.185	68.78
198.404	5.29
198.623	25.77
198.842	50.35
199.062	115.88
199.281	66.73
199.5	81.07
199.719	50.35
199.938	60.59
200.157	-7
200.376	87.21
200.595	38.06
200.814	42.15
201.033	64.68
201.252	64.68
201.471	17.58
201.69	142.5
201.909	62.63
202.128	85.16
202.347	29.87
202.566	79.02
202.785	36.01
203.004	70.83
203.223	89.26
203.442	-7
203.661	36.01
203.879	11.43
204.098	46.25
204.317	11.43
204.536	-0.85
204.755	-11.09
204.974	46.25
205.193	62.63
205.411	70.83
205.63	17.58
205.849	11.43
206.068	-17.24
206.287	-17.24
206.505	1.19
206.724	5.29
206.943	29.87
207.162	31.91
207.381	56.49
207.599	-62.29
207.818	5.29
208.037	46.25
208.255	48.3
208.474	17.58
208.693	48.3
208.911	101.55
209.13	38.06
209.349	29.87
209.567	60.59
209.786	21.67
210.005	17.58
210.223	5.29
210.442	-11.09
210.661	33.96
210.879	9.39
211.098	66.73
211.316	21.67
211.535	81.07
211.753	9.39
211.972	29.87
212.191	111.78
212.409	-7
212.628	54.44
212.846	-0.85
213.065	-33.62
213.283	87.21
213.502	19.63
213.72	-47.96
213.938	-52.05
214.157	62.63
214.375	54.44
214.594	-25.43
214.812	66.73
215.031	-58.2
215.249	5.29
215.467	-39.76
215.686	38.06
215.904	42.15
216.122	-7
216.341	70.83
216.559	27.82
216.778	-9.05
216.996	21.67
217.214	56.49
217.432	23.72
217.651	52.39
217.869	76.97
218.087	42.15
218.306	-2.9
218.524	40.11
218.742	38.06
218.96	-45.91
219.179	-13.14
219.397	72.87
219.615	95.4
219.833	79.02
220.051	46.25
220.27	134.31
220.488	50.35
220.706	62.63
220.924	-27.48
221.142	62.63
221.36	-7
221.578	111.78
221.796	122.02
222.015	91.31
222.233	-43.86
222.451	95.4
222.669	-25.43
222.887	40.11
223.105	36.01
223.323	38.06
223.541	-54.1
223.759	1.19
223.977	66.73
224.195	107.69
224.413	29.87
224.631	72.87
224.849	79.02
225.067	87.21
225.285	-0.85
225.503	66.73
225.721	-21.33
225.939	21.67
226.157	-52.05
226.375	38.06
226.592	23.72
226.81	115.88
227.028	76.97
227.246	58.54
227.464	58.54
227.682	58.54
227.9	5.29
228.117	-19.29
228.335	95.4
228.553	9.39
228.771	-2.9
228.989	72.87
229.206	62.63
229.424	38.06
229.642	-33.62
229.86	-27.48
230.077	21.67
230.295	38.06
230.513	70.83
230.731	25.77
230.948	89.26
231.166	99.5
231.384	-11.09
231.601	-11.09
231.819	21.67
232.037	1.19
232.254	31.91
232.472	19.63
232.689	-37.72
232.907	54.44
233.125	56.49
233.342	40.11
233.56	-52.05
233.777	31.91
233.995	46.25
234.213	33.96
234.43	54.44
234.648	-7
234.865	48.3
235.083	15.53
235.3	119.98
235.518	3.24
235.735	60.59
235.953	66.73
236.17	-56.15
236.388	7.34
236.605	115.88
236.822	66.73
237.04	79.02
237.257	56.49
237.475	-56.15
237.692	66.73
237.909	19.63
238.127	-7
238.344	-11.09
238.562	17.58
238.779	1.19
238.996	-9.05
239.214	1.19
239.431	54.44
239.648	81.07
239.865	83.11
240.083	15.53
240.3	46.25
240.517	85.16
240.735	38.06
240.952	-2.9
241.169	15.53
241.386	42.15
241.603	15.53
241.821	-39.76
242.038	48.3
242.255	33.96
242.472	7.34
242.689	103.59
242.907	72.87
243.124	66.73
243.341	70.83
243.558	-11.09
243.775	21.67
243.992	50.35
244.209	38.06
244.426	89.26
244.643	46.25
244.86	19.63
245.078	19.63
245.295	36.01
245.512	70.83
245.729	1.19
245.946	87.21
246.163	62.63
246.38	46.25
246.597	46.25
246.814	33.96
247.031	5.29
247.248	-9.05
247.464	-2.9
247.681	87.21
247.898	62.63
248.115	46.25
248.332	-41.81
248.549	81.07
248.766	40.11
248.983	136.36
249.2	38.06
249.417	52.39
249.633	31.91
249.85	64.68
250.067	15.53
250.284	76.97
250.501	15.53
250.717	25.77
250.934	-0.85
251.151	46.25
251.368	66.73
251.585	54.44
251.801	13.48
252.018	17.58
252.235	130.22
252.451	-25.43
252.668	-31.57
252.885	95.4
253.102	46.25
253.318	29.87
253.535	25.77
253.752	50.35
253.968	83.11
254.185	66.73
254.401	56.49
254.618	33.96
254.835	42.15
255.051	21.67
255.268	21.67
255.484	40.11
255.701	-21.33
255.917	81.07
256.134	-4.95
256.351	58.54
256.567	29.87
256.784	64.68
257	-27.48
257.217	17.58
257.433	19.63
257.65	-52.05
257.866	23.72
258.082	-19.29
258.299	21.67
258.515	-25.43
258.732	38.06
258.948	54.44
259.165	-31.57
259.381	-45.91
259.597	29.87
259.814	38.06
260.03	-0.85
260.246	-17.24
260.463	56.49
260.679	29.87
260.895	-35.67
261.112	21.67
261.328	13.48
261.544	13.48
261.761	79.02
261.977	17.58
262.193	31.91
262.409	-27.48
262.626	33.96
262.842	7.34
263.058	-9.05
263.274	56.49
263.49	-33.62
263.707	5.29
263.923	42.15
264.139	3.24
264.355	17.58
264.571	50.35
264.787	99.5
265.004	23.72
265.22	40.11
265.436	76.97
265.652	21.67
265.868	7.34
266.084	-43.86
266.3	21.67
266.516	-74.58
266.732	21.67
266.948	-39.76
267.164	21.67
267.38	5.29
267.596	21.67
267.812	27.82
268.028	70.83
268.244	21.67
268.46	54.44
268.676	40.11
268.892	48.3
269.108	-13.14
269.324	42.15
269.54	46.25
269.756	38.06
269.972	124.07
270.188	-33.62
270.403	-66.39
270.619	72.87
270.835	40.11
271.051	7.34
271.267	48.3
271.483	23.72
271.698	29.87
271.914	11.43
272.13	23.72
272.346	68.78
272.562	7.34
272.777	70.83
272.993	33.96
273.209	-13.14
273.425	-2.9
273.64	46.25
273.856	89.26
274.072	-15.19
274.287	56.49
274.503	38.06
274.719	58.54
274.934	50.35
275.15	-27.48
275.366	46.25
275.581	-43.86
275.797	64.68
276.012	72.87
276.228	119.98
276.444	95.4
276.659	83.11
276.875	13.48
277.09	42.15
277.306	-0.85
277.521	15.53
277.737	-23.38
277.952	33.96
278.168	33.96
278.383	-11.09
278.599	13.48
278.814	23.72
279.03	25.77
279.245	93.35
279.461	-19.29
279.676	13.48
279.892	-4.95
280.107	54.44
280.322	-52.05
280.538	60.59
280.753	52.39
280.969	56.49
281.184	33.96
281.399	132.26
281.615	13.48
281.83	95.4
282.045	21.67
282.26	52.39
282.476	91.31
282.691	5.29
282.906	13.48
283.122	103.59
283.337	13.48
283.552	21.67
283.767	40.11
283.983	97.45
284.198	-19.29
284.413	27.82
284.628	11.43
284.843	38.06
285.058	58.54
285.274	66.73
285.489	62.63
285.704	21.67
285.919	-9.05
286.134	54.44
286.349	48.3
286.564	36.01
286.779	93.35
286.995	29.87
287.21	-15.19
287.425	119.98
287.64	-15.19
287.855	29.87
288.07	15.53
288.285	74.92
288.5	40.11
288.715	31.91
288.93	23.72
289.145	54.44
289.36	44.2
289.575	62.63
289.79	54.44
290.004	29.87
290.219	107.69
290.434	9.39
290.649	-11.09
290.864	52.39
291.079	9.39
291.294	46.25
291.509	7.34
291.724	79.02
291.938	38.06
292.153	13.48
292.368	-0.85
292.583	-11.09
292.798	48.3
293.012	17.58
293.227	7.34
293.442	50.35
293.657	56.49
293.871	66.73
294.086	27.82
294.301	70.83
294.516	33.96
294.73	38.06
294.945	68.78
295.16	13.48
295.374	85.16
295.589	62.63
295.804	44.2
296.018	62.63
296.233	95.4
296.447	144.55
296.662	-27.48
296.877	52.39
297.091	85.16
297.306	33.96
297.52	-19.29
297.735	113.83
297.949	46.25
298.164	95.4
298.378	58.54
298.593	33.96
298.807	87.21
299.022	-9.05
299.236	5.29
299.451	44.2
299.665	23.72
299.88	56.49
300.094	13.48
300.309	83.11
300.523	25.77
300.737	-11.09
300.952	72.87
301.166	87.21
301.381	21.67
301.595	54.44
301.809	15.53
302.024	58.54
302.238	-25.43
302.452	79.02
302.667	9.39
302.881	74.92
303.095	70.83
303.309	15.53
303.524	46.25
303.738	46.25
303.952	27.82
304.166	-4.95
304.381	52.39
304.595	5.29
304.809	46.25
305.023	40.11
305.237	-27.48
305.452	-27.48
305.666	31.91
305.88	-7
306.094	99.5
306.308	-31.57
306.522	70.83
306.736	7.34
306.95	58.54
307.164	-11.09
307.379	79.02
307.593	17.58
307.807	56.49
308.021	5.29
308.235	99.5
308.449	-37.72
308.663	-9.05
308.877	111.78
309.091	38.06
309.305	46.25
309.519	38.06
309.733	115.88
309.947	3.24
310.161	70.83
310.374	33.96
310.588	95.4
310.802	70.83
311.016	-7
311.23	66.73
311.444	-23.38
311.658	31.91
311.872	103.59
312.085	40.11
312.299	44.2
312.513	56.49
312.727	72.87
312.941	15.53
313.154	21.67
313.368	48.3
313.582	31.91
313.796	15.53
314.009	21.67
314.223	-7
314.437	58.54
314.651	52.39
314.864	21.67
315.078	54.44
315.292	-21.33
315.505	-4.95
315.719	58.54
315.933	60.59
316.146	1.19
316.36	-21.33
316.573	91.31
316.787	5.29
317.001	25.77
317.214	48.3
317.428	31.91
317.641	-19.29
317.855	-33.62
318.068	70.83
318.282	23.72
318.495	81.07
318.709	-17.24
318.922	38.06
319.136	52.39
319.349	103.59
319.563	36.01
319.776	-9.05
319.99	70.83
320.203	48.3
320.417	54.44
320.63	23.72
320.843	99.5
321.057	72.87
321.27	79.02
321.483	-13.14
321.697	38.06
321.91	38.06
322.124	-0.85
322.337	46.25
322.55	9.39
322.763	33.96
322.977	44.2
323.19	-13.14
323.403	87.21
323.617	-9.05
323.83	72.87
324.043	72.87
324.256	25.77
324.469	-33.62
324.683	31.91
324.896	21.67
325.109	15.53
325.322	31.91
325.535	-17.24
325.748	79.02
325.962	5.29
326.175	29.87
326.388	31.91
326.601	27.82
326.814	31.91
327.027	44.2
327.24	54.44
327.453	11.43
327.666	60.59
327.879	83.11
328.092	31.91
328.305	1.19
328.518	17.58
328.731	42.15
328.944	46.25
329.157	1.19
329.37	23.72
329.583	42.15
329.796	31.91
330.009	17.58
330.222	46.25
330.435	36.01
330.648	46.25
330.861	95.4
331.073	95.4
331.286	54.44
331.499	23.72
331.712	29.87
331.925	79.02
332.138	-15.19
332.35	40.11
332.563	107.69
332.776	62.63
332.989	62.63
333.202	56.49
333.414	-17.24
333.627	54.44
333.84	29.87
334.053	25.77
334.265	46.25
334.478	83.11
334.691	5.29
334.903	62.63
335.116	15.53
335.329	44.2
335.541	38.06
335.754	87.21
335.966	38.06
336.179	31.91
336.392	19.63
336.604	15.53
336.817	46.25
337.029	72.87
337.242	58.54
337.454	76.97
337.667	9.39
337.88	46.25
338.092	70.83
338.305	83.11
338.517	-31.57
338.729	81.07
338.942	48.3
339.154	56.49
339.367	29.87
339.579	50.35
339.792	68.78
340.004	54.44
340.217	3.24
340.429	81.07
340.641	46.25
340.854	64.68
341.066	17.58
341.278	89.26
341.491	130.22
341.703	-0.85
341.915	-35.67
342.128	46.25
342.34	7.34
342.552	21.67
342.764	-4.95
342.977	5.29
343.189	79.02
343.401	87.21
343.613	-39.76
343.826	64.68
344.038	-35.67
344.25	74.92
344.462	-9.05
344.674	29.87
344.886	25.77
345.099	91.31
345.311	97.45
345.523	-7
345.735	-50
345.947	128.17
346.159	107.69
346.371	72.87
346.583	97.45
346.795	44.2
347.007	52.39
347.219	7.34
347.431	74.92
347.643	56.49
347.855	-4.95
348.067	56.49
348.279	-15.19
348.491	72.87
348.703	46.25
348.915	-2.9
349.127	-0.85
349.339	62.63
349.551	115.88
349.763	70.83
349.975	5.29
350.187	40.11
350.399	87.21
350.61	87.21
350.822	19.63
351.034	48.3
351.246	-25.43
351.458	42.15
351.669	27.82
351.881	70.83
352.093	111.78
352.305	31.91
352.517	79.02
352.728	40.11
352.94	-19.29
353.152	54.44
353.363	72.87
353.575	54.44
353.787	87.21
353.999	83.11
354.21	15.53
354.422	5.29
354.633	38.06
354.845	68.78
355.057	-27.48
355.268	31.91
355.48	38.06
355.692	-2.9
355.903	70.83
356.115	42.15
356.326	9.39
356.538	29.87
356.749	17.58
356.961	99.5
357.172	-0.85
357.384	50.35
357.595	74.92
357.807	64.68
358.018	-74.58
358.23	29.87
358.441	66.73
358.653	40.11
358.864	48.3
359.075	40.11
359.287	13.48
359.498	74.92
359.709	9.39
359.921	95.4
360.132	54.44
360.344	56.49
360.555	36.01
360.766	46.25
360.977	95.4
361.189	-0.85
361.4	13.48
361.611	111.78
361.823	3.24
362.034	66.73
362.245	-27.48
362.456	50.35
362.667	89.26
362.879	44.2
363.09	29.87
363.301	33.96
363.512	33.96
363.723	105.64
363.935	54.44
364.146	54.44
364.357	-31.57
364.568	122.02
364.779	23.72
364.99	124.07
365.201	33.96
365.412	50.35
365.623	-0.85
365.834	79.02
366.045	29.87
366.256	27.82
366.467	132.26
366.678	11.43
366.889	21.67
367.1	62.63
367.311	91.31
367.522	5.29
367.733	138.41
367.944	46.25
368.155	-11.09
368.366	48.3
368.577	91.31
368.788	7.34
368.999	66.73
369.209	13.48
369.42	66.73
369.631	48.3
369.842	15.53
370.053	56.49
370.264	74.92
370.474	42.15
370.685	62.63
370.896	64.68
371.107	79.02
371.317	128.17
371.528	7.34
371.739	97.45
371.95	85.16
372.16	17.58
372.371	46.25
372.582	56.49
372.792	11.43
373.003	91.31
373.214	93.35
373.424	17.58
373.635	46.25
373.846	101.55
374.056	74.92
374.267	81.07
374.477	66.73
374.688	40.11
374.898	56.49
375.109	48.3
375.319	79.02
375.53	81.07
375.74	70.83
375.951	52.39
376.161	15.53
376.372	91.31
376.582	38.06
376.793	42.15
377.003	-15.19
377.214	79.02
377.424	7.34
377.635	13.48
377.845	66.73
378.055	58.54
378.266	15.53
378.476	-19.29
378.686	21.67
378.897	40.11
379.107	29.87
379.317	72.87
379.528	62.63
379.738	21.67
379.948	40.11
380.158	95.4
380.369	91.31
380.579	70.83
380.789	83.11
380.999	113.83
381.21	46.25
381.42	89.26
381.63	99.5
381.84	119.98
382.05	54.44
382.261	17.58
382.471	29.87
382.681	72.87
382.891	74.92
383.101	70.83
383.311	-7
383.521	97.45
383.731	109.74
383.941	50.35
384.151	89.26
384.361	56.49
384.571	40.11
384.781	17.58
384.991	128.17
385.201	134.31
385.411	72.87
385.621	95.4
385.831	50.35
386.041	42.15
386.251	95.4
386.461	40.11
386.671	66.73
386.881	54.44
387.091	15.53
387.301	97.45
387.511	72.87
387.72	-0.85
387.93	87.21
388.14	50.35
388.35	-4.95
388.56	54.44
388.769	109.74
388.979	48.3
389.189	62.63
389.399	83.11
389.609	76.97
389.818	-35.67
390.028	74.92
390.238	132.26
390.447	62.63
390.657	70.83
390.867	5.29
391.076	5.29
391.286	103.59
391.496	58.54
391.705	64.68
391.915	195.75
392.125	48.3
392.334	33.96
392.544	87.21
392.753	29.87
392.963	25.77
393.172	46.25
393.382	-9.05
393.591	33.96
393.801	56.49
394.01	76.97
394.22	56.49
394.429	119.98
394.639	42.15
394.848	87.21
395.058	79.02
395.267	87.21
395.477	54.44
395.686	93.35
395.895	81.07
396.105	167.08
396.314	109.74
396.524	89.26
396.733	46.25
396.942	144.55
397.152	107.69
397.361	128.17
397.57	99.5
397.78	62.63
397.989	107.69
398.198	185.51
398.407	79.02
398.617	76.97
398.826	97.45
399.035	117.93
399.244	115.88
399.453	152.74
399.663	124.07
399.872	148.65
400.081	93.35
400.29	64.68
400.499	46.25
400.708	130.22
400.917	140.46
401.127	148.65
401.336	79.02
401.545	130.22
401.754	160.94
401.963	130.22
402.172	58.54
402.381	103.59
402.59	132.26
402.799	136.36
403.008	158.89
403.217	93.35
403.426	136.36
403.635	72.87
403.844	103.59
404.053	70.83
404.262	171.18
404.471	105.64
404.68	105.64
404.888	165.03
405.097	132.26
405.306	177.32
405.515	197.8
405.724	134.31
405.933	195.75
406.142	103.59
406.35	152.74
406.559	152.74
406.768	160.94
406.977	218.28
407.185	214.18
407.394	187.56
407.603	195.75
407.812	255.14
408.02	261.29
408.229	230.57
408.438	279.72
408.646	226.47
408.855	283.81
409.064	259.24
409.272	261.29
409.481	287.91
409.69	283.81
409.898	220.33
410.107	289.96
410.315	255.14
410.524	351.4
410.733	277.67
410.941	341.16
411.15	296.1
411.358	369.83
411.567	402.6
411.775	361.64
411.984	341.16
412.192	425.12
412.401	388.26
412.609	496.8
412.818	410.79
413.026	464.04
413.234	482.47
413.443	507.04
413.651	498.85
413.86	570.53
414.068	656.54
414.276	548
414.485	631.97
414.693	654.5
414.901	629.92
415.11	644.26
415.318	711.84
415.526	717.98
415.734	777.37
415.943	775.33
416.151	783.52
416.359	742.56
416.567	851.1
416.776	789.66
416.984	918.68
417.192	971.93
417.4	918.68
417.608	855.2
417.817	1014.94
418.025	1012.89
418.233	1096.86
418.441	1047.71
418.649	1062.04
418.857	1176.73
419.065	1238.17
419.273	1203.35
419.481	1402.01
419.689	1381.53
419.897	1434.77
420.105	1365.14
420.313	1514.64
420.521	1555.6
420.729	1561.75
420.937	1637.52
421.145	1713.3
421.353	1658
421.561	1866.89
421.769	1995.92
421.977	2012.3
422.185	1920.14
422.393	2036.88
422.601	2268.3
422.809	2227.34
423.017	2190.47
423.224	2280.58
423.432	2462.85
423.64	2378.89
423.848	2667.65
424.056	2552.96
424.263	2667.65
424.471	2679.94
424.679	2849.92
424.887	2987.13
425.094	3040.38
425.302	3093.63
425.51	3077.24
425.718	3359.86
425.925	3267.7
426.133	3232.89
426.341	3568.76
426.548	3777.65
426.756	3746.93
426.964	3839.09
427.171	3941.49
427.379	4101.23
427.586	4193.39
427.794	4275.31
428.001	4539.49
428.209	4772.96
428.417	4570.21
428.624	4996.19
428.832	4918.37
429.039	5055.58
429.247	4916.32
429.454	5391.45
429.662	5768.27
429.869	5289.05
430.076	5829.71
430.284	5483.61
430.491	5889.1
430.699	6143.05
430.906	6005.84
431.114	6388.81
431.321	6534.21
431.528	6722.63
431.736	7124.03
431.943	7316.54
432.15	7058.49
432.358	7173.18
432.565	7593.01
432.772	7459.9
432.979	7961.65
433.187	8074.29
433.394	8014.9
433.601	8610.86
433.808	8887.33
434.016	8766.5
434.223	8942.63
434.43	9456.67
434.637	9405.47
434.844	9868.31
435.052	10128.4
435.259	10083.34
435.466	10105.87
435.673	9856.02
435.88	10458.12
436.087	11189.25
436.294	11260.93
436.501	10910.72
436.708	11271.17
436.915	11637.75
437.122	12035.06
437.329	12012.53
437.537	12325.87
437.743	12585.96
437.95	12538.86
438.157	13224.93
438.364	13822.94
438.571	13769.69
438.778	13671.39
438.985	14949.32
439.192	14408.65
439.399	14941.13
439.606	14482.38
439.813	15424.45
440.02	16159.67
440.227	15850.42
440.433	15713.21
440.64	16274.35
440.847	16284.59
441.054	16817.07
441.261	17533.86
441.467	17636.25
441.674	17826.71
441.881	18559.89
442.088	18758.54
442.294	18402.19
442.501	18629.52
442.708	19022.73
442.914	19780.48
443.121	20712.3
443.328	20081.53
443.534	21429.09
443.741	20726.64
443.948	20667.25
444.154	22180.7
444.361	22008.67
444.568	22313.81
444.774	22336.34
444.981	22426.45
445.187	23212.87
445.394	24070.97
445.6	23751.49
445.807	25869.09
446.013	24763.18
446.22	25144.11
446.426	26536.73
446.633	26544.92
446.839	27613.96
447.046	26174.24
447.252	27691.78
447.459	27327.24
447.665	27792.13
447.871	28920.56
448.078	30024.42
448.284	28660.47
448.491	29410.03
448.697	30466.78
448.903	31027.92
449.11	31242.96
449.316	30825.17
449.522	31265.49
449.728	32094.91
449.935	32383.68
450.141	32459.45
450.347	32715.45
450.553	31883.97
450.76	32187.07
450.966	33174.19
451.172	33067.7
451.378	34185.89
451.584	33170.1
451.791	34482.84
451.997	33852.07
452.203	34587.29
452.409	34538.14
452.615	34155.17
452.821	32967.35
453.027	32688.82
453.233	34464.41
453.44	33319.6
453.646	33485.48
453.852	33604.27
454.058	34259.62
454.264	32813.75
454.47	33903.27
454.676	32948.92
454.882	33938.08
455.088	31148.75
455.294	31507.15
455.5	32410.3
455.705	32287.42
455.911	31245.01
456.117	30790.36
456.323	30251.74
456.529	28713.72
456.735	29551.34
456.941	29059.82
457.147	28625.65
457.352	27919.1
457.558	27464.46
457.764	28041.98
457.97	26888.98
458.176	26235.67
458.381	26626.84
458.587	25436.97
458.793	25029.42
458.999	23878.46
459.204	25492.26
459.41	24752.94
459.616	23374.66
459.821	23432.01
460.027	23202.63
460.233	22526.8
460.438	21724
460.644	21992.28
460.85	20994.92
461.055	20415.35
461.261	20421.49
461.466	18969.48
461.672	18647.95
461.878	19620.74
462.083	18563.98
462.289	18207.64
462.494	17730.46
462.7	17226.66
462.905	16581.55
463.111	17038.25
463.316	17175.46
463.522	16788.39
463.727	16931.75
463.932	16962.47
464.138	16597.93
464.343	16878.51
464.549	16393.14
464.754	16939.94
464.959	16686
465.165	16706.48
465.37	15729.59
465.575	15590.33
465.781	15924.15
465.986	16270.26
466.191	15561.66
466.397	15578.04
466.602	14447.57
466.807	15178.69
467.012	15156.16
467.218	14939.08
467.423	14943.17
467.628	14912.46
467.833	15352.77
468.038	15023.05
468.244	14717.9
468.449	15188.93
468.654	14769.1
468.859	14463.95
469.064	14592.97
469.269	14029.78
469.474	13939.67
469.679	14191.57
469.885	13667.29
470.09	14050.26
470.295	13999.06
470.5	13317.09
470.705	13810.65
470.91	13521.88
471.115	13390.81
471.32	13859.8
471.525	13655
471.73	12921.83
471.935	13153.25
472.139	12403.69
472.344	12712.94
472.549	12463.08
472.754	12356.59
472.959	12229.62
473.164	12202.99
473.369	11672.57
473.574	12170.22
473.778	12198.9
473.983	12008.44
474.188	11985.91
474.393	11551.74
474.598	11449.34
474.802	11320.32
475.007	11172.86
475.212	11334.65
475.417	10865.67
475.621	10890.24
475.826	10896.39
476.031	10785.8
476.235	10376.2
476.44	10716.17
476.645	10560.52
476.849	10517.51
477.054	10255.37
477.259	10054.67
477.463	10335.24
477.668	9958.42
477.872	10140.69
478.077	9790.49
478.282	9782.29
478.486	9614.36
478.691	9608.22
478.895	9624.6
479.1	9475.1
479.304	9417.75
479.509	9202.72
479.713	9425.95
479.918	9038.88
480.122	9028.64
480.326	9434.14
480.531	9188.38
480.735	9061.41
480.94	8952.87
481.144	9239.58
481.348	9112.61
481.553	8858.66
481.757	8746.02
481.961	9012.26
482.166	9155.61
482.37	8844.32
482.574	8713.25
482.778	8680.49
482.983	8926.24
483.187	8950.82
483.391	8848.42
483.595	8834.08
483.8	8692.77
484.004	8756.26
484.208	9065.5
484.412	8922.15
484.616	9073.7
484.821	8901.67
485.025	8786.98
485.229	8875.04
485.433	8653.86
485.637	8991.78
485.841	8619.05
486.045	8680.49
486.249	8834.08
486.453	8614.95
486.657	8664.1
486.861	8637.48
487.065	8643.62
487.269	8811.56
487.473	8741.93
487.677	8997.92
487.881	8977.44
488.085	8573.99
488.289	8883.24
488.493	8799.27
488.697	8846.37
488.901	8700.97
489.105	8758.31
489.309	8848.42
489.512	8883.24
489.716	8959.01
489.92	8866.85
490.124	8846.37
490.328	9008.16
490.531	8942.63
490.735	9098.27
490.939	9073.7
491.143	9178.14
491.346	9276.45
491.55	9241.63
491.754	9227.29
491.958	9200.67
492.161	9378.84
492.365	9131.04
492.569	9108.51
492.772	9337.88
492.976	9579.54
493.18	9712.66
493.383	9718.81
493.587	9544.73
493.79	9632.79
493.994	9600.02
494.197	9829.4
494.401	9974.8
494.605	9813.01
494.808	9919.51
495.012	9991.19
495.215	10071.06
495.419	10314.77
495.622	10159.12
495.825	10296.33
496.029	10406.92
496.232	10427.4
496.436	10597.38
496.639	10849.29
496.843	10675.21
497.046	10730.5
497.249	10910.72
497.453	11115.52
497.656	10892.29
497.859	11273.21
498.063	11369.47
498.266	11475.96
498.469	11604.99
498.673	11600.89
498.876	11785.21
499.079	11901.94
499.282	11817.97
499.485	12139.51
499.689	11967.48
499.892	12127.22
500.095	12598.25
500.298	12657.64
500.501	12688.36
500.705	13079.52
500.908	13106.15
501.111	13192.16
501.314	13380.57
501.517	13345.76
501.72	13640.67
501.923	13562.84
502.126	13755.35
502.329	14117.84
502.532	14101.46
502.735	14169.04
502.938	14433.23
503.141	14484.43
503.344	14611.4
503.547	14867.4
503.75	15199.17
503.953	15213.51
504.156	15156.16
504.359	15584.19
504.562	15659.96
504.765	15891.38
504.968	16176.05
505.17	16030.65
505.373	16348.08
505.576	16663.47
505.779	16753.58
505.982	16743.34
506.185	17341.35
506.387	17130.41
506.59	17466.27
506.793	17779.61
506.996	17705.88
507.198	18011.03
507.401	18224.02
507.604	18301.84
507.807	18684.81
508.009	18719.63
508.212	18934.67
508.415	19067.78
508.617	19606.4
508.82	19469.19
509.022	19424.13
509.225	19911.55
509.428	20126.58
509.63	20245.37
509.833	20204.41
510.035	20880.24
510.238	20933.48
510.44	20939.63
510.643	21384.04
510.845	21633.89
511.048	21302.12
511.25	21662.56
511.453	21873.5
511.655	22696.78
511.858	22371.16
512.06	22688.59
512.262	23274.31
512.465	22915.92
512.667	23499.59
512.87	23151.43
513.072	23448.39
513.274	24025.92
513.477	24165.18
513.679	24296.25
513.881	24750.9
514.084	24924.97
514.286	24820.53
514.488	25199.4
514.69	25776.93
514.893	25574.18
515.095	25762.59
515.297	26157.85
515.499	26321.69
515.701	26682.13
515.904	26964.75
516.106	27007.76
516.308	27147.02
516.51	27425.54
516.712	27704.07
516.914	28572.41
517.116	28416.76
517.318	28496.63
517.52	28451.58
517.722	29082.35
517.925	29170.41
518.127	29768.42
518.329	29833.96
518.531	29772.52
518.733	30440.15
518.935	30491.35
519.136	30364.38
519.338	30722.77
519.54	31083.22
519.742	31351.5
519.944	31423.18
520.146	32082.63
520.348	32438.97
520.55	32443.07
520.752	32436.92
520.954	32875.19
521.155	32805.56
521.357	33252.02
521.559	33311.41
521.761	33960.61
521.963	33985.19
522.164	34556.57
522.366	34179.75
522.568	34757.27
522.77	34937.49
522.971	35297.94
523.173	35125.91
523.375	35746.44
523.576	35412.62
523.778	35367.57
523.98	36108.93
524.181	36350.59
524.383	36430.46
524.584	36727.42
524.786	36694.65
524.988	36661.88
525.189	36930.17
525.391	37560.94
525.592	37718.64
525.794	37440.11
525.995	38042.21
526.197	37683.82
526.398	37808.75
526.6	38290.02
526.801	38257.25
527.003	38443.62
527.204	38468.19
527.406	39006.81
527.607	38646.36
527.808	39271
528.01	38668.89
528.211	38879.83
528.412	39594.57
528.614	39823.95
528.815	39275.09
529.016	39785.04
529.218	39330.39
529.419	39469.65
529.62	39860.81
529.822	39895.63
530.023	40028.74
530.224	39834.19
530.425	39656.01
530.626	39651.92
530.828	39912.01
531.029	40577.6
531.23	40143.43
531.431	40165.96
531.632	40110.66
531.833	40847.93
532.035	39883.34
532.236	40237.64
532.437	40817.21
532.638	40460.87
532.839	40647.23
533.04	40864.32
533.241	40358.47
533.442	40852.03
533.643	40763.96
533.844	40835.64
534.045	40872.51
534.246	40483.39
534.447	40757.82
534.648	40763.96
534.849	40698.43
535.05	40677.95
535.251	40538.69
535.451	40651.33
535.652	40983.1
535.853	40761.92
536.054	40682.05
536.255	40935.99
536.456	40626.75
536.657	41460.27
536.857	40968.76
537.058	40645.18
537.259	41134.65
537.46	40557.12
537.66	40858.17
537.861	40913.47
538.062	40579.65
538.263	41050.68
538.463	40763.96
538.664	41007.67
538.865	40997.43
539.065	41001.53
539.266	40684.09
539.466	40935.99
539.667	40196.68
539.868	40919.61
540.068	40550.98
540.269	40766.01
540.469	40864.32
540.67	40923.71
540.87	40911.42
541.071	40798.78
541.271	40643.13
541.472	40493.63
541.672	40489.54
541.873	40477.25
542.073	40294.98
542.274	40884.79
542.474	40639.04
542.675	39885.39
542.875	40641.09
543.075	40362.56
543.276	40163.91
543.476	40856.12
543.676	40589.89
543.877	40370.75
544.077	40749.63
544.277	40450.63
544.478	40313.41
544.678	40714.81
544.878	40424
545.078	40241.73
545.279	40352.32
545.479	39963.21
545.679	40421.95
545.879	40370.75
546.079	39922.25
546.28	39838.28
546.48	40174.15
546.68	40022.6
546.88	39973.45
547.08	40358.47
547.28	40174.15
547.48	39889.48
547.68	40282.69
547.88	39942.73
548.081	40297.03
548.281	40350.27
548.481	39891.53
548.681	40395.33
548.881	40258.12
549.081	39998.02
549.28	40116.81
549.48	40546.88
549.68	39842.38
549.88	40606.27
550.08	39952.97
550.28	40325.7
550.48	39944.78
550.68	40045.13
550.88	39832.14
551.08	39819.85
551.279	40237.64
551.479	39688.78
551.679	40141.38
551.879	39774.8
552.079	40483.39
552.278	39838.28
552.478	40159.81
552.678	39936.59
552.878	39971.4
553.077	40153.67
553.277	39342.67
553.477	39903.82
553.676	39754.32
553.876	40004.17
554.076	39369.3
554.275	39383.63
554.475	39275.09
554.674	39729.74
554.874	39852.62
555.074	39551.57
555.273	39758.41
555.473	39793.23
555.672	39336.53
555.872	39334.48
556.071	39782.99
556.271	39823.95
556.47	39129.69
556.67	39133.78
556.869	39211.6
557.068	39486.03
557.268	39211.6
557.467	38834.78
557.667	39111.25
557.866	39305.81
558.065	38994.52
558.265	38963.8
558.464	38789.72
558.663	39238.23
558.863	38613.6
559.062	39195.22
559.261	38787.67
559.461	38990.42
559.66	38474.34
559.859	38599.26
560.058	38470.24
560.258	39074.39
560.457	38212.2
560.656	38644.32
560.855	38713.95
561.054	38824.54
561.253	38292.07
561.453	38472.29
561.652	38302.31
561.851	38402.66
562.05	38097.51
562.249	38111.85
562.448	38103.65
562.647	37972.58
562.846	37630.57
563.045	38117.99
563.244	37642.86
563.443	38099.56
563.642	37485.17
563.841	37702.25
564.04	37333.62
564.239	37982.82
564.438	37685.87
564.637	37528.17
564.836	37339.76
565.035	36979.32
565.234	37413.49
565.432	37096.05
565.631	37370.48
565.83	37020.28
566.029	37259.89
566.228	37110.39
566.427	36784.76
566.625	36553.34
566.824	36493.95
567.023	36733.56
567.222	35908.23
567.42	36639.36
567.619	36940.41
567.818	36137.6
568.016	36348.54
568.215	36502.14
568.414	36448.89
568.612	36758.14
568.811	36205.19
569.01	36377.22
569.208	35349.14
569.407	36422.27
569.605	35830.41
569.804	35750.54
570.002	35404.43
570.201	35629.71
570.4	35099.28
570.598	35121.81
570.797	35023.51
570.995	35527.31
571.193	35048.08
571.392	35365.52
571.59	34833.05
571.789	35152.53
571.987	34837.14
572.186	34482.84
572.384	34249.38
572.582	34411.17
572.781	35142.29
572.979	34136.74
573.177	34415.26
573.376	34607.77
573.574	34654.87
573.772	34325.15
573.971	34022.05
574.169	33911.46
574.367	33950.37
574.565	34097.83
574.763	33737.38
574.962	33815.21
575.16	33594.03
575.358	33866.41
575.556	33237.68
575.754	34054.82
575.952	33082.03
576.151	33743.53
576.349	32860.85
576.547	32867
576.745	32916.15
576.943	32916.15
577.141	33120.95
577.339	33125.04
577.537	32797.37
577.735	32744.12
577.933	32524.99
578.131	32508.6
578.329	32275.13
578.527	32463.55
578.725	32170.69
578.923	32221.89
579.121	32217.79
579.319	31976.13
579.516	31984.32
579.714	31810.25
579.912	31859.4
580.11	31595.21
580.308	31527.63
580.506	31640.26
580.704	31025.87
580.901	31830.72
581.099	31867.59
581.297	30589.66
581.495	31165.14
581.692	31277.77
581.89	30673.62
582.088	30878.42
582.285	30726.87
582.483	30943.95
582.681	30780.12
582.878	30487.26
583.076	30483.16
583.274	30589.66
583.471	30259.93
583.669	30630.62
583.866	30030.56
584.064	30517.98
584.262	29743.84
584.459	30239.45
584.657	29795.04
584.854	30200.54
585.052	29575.91
585.249	29567.72
585.447	29975.27
585.644	29063.92
585.841	29281
586.039	29733.6
586.236	29340.39
586.434	29127.41
586.631	29238
586.828	29317.87
587.026	28924.66
587.223	28918.51
587.42	29192.94
587.618	28639.99
587.815	28605.17
588.012	28711.67
588.21	28594.93
588.407	28607.22
588.604	28572.41
588.801	28379.9
588.999	28328.7
589.196	28394.23
589.393	28443.38
589.59	27876.1
589.787	28146.43
589.984	27773.7
590.182	27609.86
590.379	27767.55
590.576	27415.3
590.773	27568.9
590.97	27390.73
591.167	27345.67
591.364	27224.84
591.561	27620.1
591.758	27144.97
591.955	27196.17
592.152	27441.93
592.349	26907.41
592.546	26987.28
592.743	26868.5
592.94	26727.19
593.137	26585.88
593.334	26776.34
593.531	26157.85
593.727	26583.83
593.924	26512.15
594.121	26325.78
594.318	26376.98
594.515	25686.82
594.712	26526.49
594.908	25977.63
595.105	26059.55
595.302	25611.04
595.499	26024.73
595.696	25680.67
595.892	25439.01
596.089	26004.25
596.286	25670.43
596.482	25578.28
596.679	25563.94
596.876	25400.1
597.072	25166.63
597.269	25066.28
597.466	25103.15
597.662	25195.31
597.859	25258.79
598.055	25408.29
598.252	24750.9
598.448	24888.11
598.645	24621.87
598.841	24517.43
599.038	24781.62
599.234	24888.11
599.431	24126.27
599.627	24316.73
599.824	24550.2
600.02	24132.41
600.217	24404.79
600.413	23978.81
600.609	23950.14
600.806	23853.89
601.002	24247.1
601.198	23610.18
601.395	23442.24
601.591	23495.49
601.787	23767.87
601.984	23352.13
602.18	23700.29
602.376	23419.72
602.572	23065.42
602.769	23251.78
602.965	22995.79
603.161	23212.87
603.357	22985.55
603.553	22936.4
603.75	22725.46
603.946	22897.49
604.142	23345.99
604.338	22578
604.534	22725.46
604.73	22473.56
604.926	22453.08
605.122	22528.85
605.318	22307.67
605.514	22068.06
605.71	22176.6
605.906	22291.29
606.102	22049.63
606.298	21971.8
606.494	21578.59
606.69	21750.62
606.886	22125.4
607.082	21709.66
607.278	21934.94
607.474	21625.7
607.67	21826.4
607.866	21601.12
608.062	21924.7
608.257	21511.01
608.453	21564.26
608.649	21545.83
608.845	21050.22
609.041	21425
609.236	21293.93
609.432	21341.03
609.628	21400.42
609.824	21132.14
610.019	21214.05
610.215	20949.87
610.411	20992.87
610.606	20939.63
610.802	20910.96
610.998	21080.94
611.193	21119.85
611.389	20902.76
611.584	20747.12
611.78	20738.93
611.976	20503.41
612.171	20978.54
612.367	20761.45
612.562	20747.12
612.758	20241.27
612.953	20640.62
613.149	20396.92
613.344	20509.55
613.539	20677.49
613.735	20446.07
613.93	20407.16
614.126	20122.49
614.321	20454.26
614.517	20001.66
614.712	20091.77
614.907	20079.48
615.103	20114.3
615.298	20171.64
615.493	20566.9
615.688	19805.05
615.884	20282.23
616.079	19452.8
616.274	20013.95
616.47	20026.23
616.665	19663.74
616.86	19688.32
617.055	19870.59
617.25	19786.62
617.445	19694.46
617.641	19454.85
617.836	19465.09
618.031	19135.37
618.226	19542.91
618.421	19176.33
618.616	19264.39
618.811	19092.36
619.006	19409.79
619.201	18822.03
619.396	19028.87
619.591	18711.44
619.786	18934.67
619.981	18387.86
620.176	18670.48
620.371	18465.68
620.566	18463.63
620.761	18391.95
620.956	18430.87
621.151	18402.19
621.346	18379.67
621.541	17908.63
621.735	18125.72
621.93	18084.76
622.125	17757.08
622.32	17699.74
622.515	17740.7
622.709	17658.78
622.904	17638.3
623.099	17408.93
623.294	17628.06
623.488	17077.16
623.683	17501.09
623.878	16954.28
624.072	17013.67
624.267	17105.83
624.462	16972.71
624.656	16583.6
624.851	16667.56
625.046	16704.43
625.24	16331.7
625.435	16389.04
625.629	16221.11
625.824	16366.51
626.018	16268.21
626.213	15897.53
626.407	15879.1
626.602	15647.68
626.796	15969.21
626.991	15768.51
627.185	15717.31
627.38	15625.15
627.574	15453.12
627.768	15389.63
627.963	15356.86
628.157	15309.76
628.352	15406.02
628.546	14867.4
628.74	14918.6
628.935	14871.5
629.129	14980.04
629.323	14851.02
629.517	14881.74
629.712	14738.38
629.906	14341.07
630.1	14156.75
630.294	14375.89
630.489	14334.93
630.683	14304.21
630.877	14093.27
631.071	14191.57
631.265	13970.39
631.459	13956.05
631.653	13847.51
631.848	14015.44
632.042	13841.37
632.236	13935.57
632.43	13595.61
632.624	13480.92
632.818	13794.26
633.012	13317.09
633.206	13558.75
633.4	13476.83
633.594	13188.07
633.788	13104.1
633.982	13276.13
634.176	13077.48
634.369	13054.95
634.563	12950.5
634.757	12993.51
634.951	13093.86
635.145	12770.28
635.339	12749.8
635.533	12506.09
635.726	12567.53
635.92	12303.34
636.114	12491.76
636.308	12495.85
636.501	12260.34
636.695	12381.17
636.889	12055.54
637.083	12145.65
637.276	11893.75
637.47	12073.97
637.664	11916.28
637.857	11715.58
638.051	11865.08
638.244	11826.17
638.438	11555.83
638.632	11627.51
638.825	11279.36
639.019	11459.58
639.212	11580.41
639.406	11490.3
639.599	11377.66
639.793	11404.28
639.986	11183.1
640.18	11203.58
640.373	11086.85
640.567	10863.62
640.76	11187.2
640.954	10728.45
641.147	10687.5
641.34	10724.36
641.534	10789.89
641.727	10660.87
641.92	10765.32
642.114	10607.62
642.307	10699.78
642.5	10505.23
642.694	10224.65
642.887	10376.2
643.08	10228.75
643.273	10148.88
643.467	9896.98
643.66	10167.31
643.853	9876.5
644.046	9778.2
644.239	9937.94
644.432	9817.11
644.626	9868.31
644.819	9827.35
645.012	9909.27
645.205	9577.5
645.398	9659.42
645.591	9577.5
645.784	9509.91
645.977	9294.88
646.17	9450.52
646.363	9278.49
646.556	9202.72
646.749	9221.15
646.942	9438.23
647.135	9253.92
647.328	9288.73
647.521	9038.88
647.714	8999.97
647.907	9053.22
648.099	8786.98
648.292	9169.95
648.485	8803.36
648.678	8561.7
648.871	8840.23
649.064	8680.49
649.256	8703.01
649.449	8649.77
649.642	8522.79
649.835	8463.4
650.027	8481.83
650.22	8594.47
650.413	8401.96
650.605	8358.96
650.798	8205.36
650.991	8197.17
651.183	8297.52
651.376	8258.6
651.568	8188.97
651.761	8094.77
651.954	8074.29
652.146	8098.86
652.339	8027.18
652.531	8074.29
652.724	7980.08
652.916	7754.8
653.109	7851.06
653.301	8004.66
653.494	7869.49
653.686	7629.88
653.879	7849.01
654.071	7644.21
654.263	7560.25
654.456	7681.08
654.648	7681.08
654.84	7543.86
655.033	7459.9
655.225	7545.91
655.417	7281.72
655.61	7355.45
655.802	7224.38
655.994	7234.62
656.186	7199.8
656.379	7105.6
656.571	7181.37
656.763	7066.69
656.955	7085.12
657.148	7064.64
657.34	7070.78
657.532	6888.51
657.724	7038.02
657.916	6904.9
658.108	6784.07
658.3	6702.15
658.492	6751.3
658.684	6878.27
658.876	6730.82
659.068	6706.24
659.26	6673.48
659.452	6634.57
659.644	6675.52
659.836	6605.89
660.028	6575.17
660.22	6407.24
660.412	6566.98
660.604	6431.82
660.796	6259.79
660.988	6470.73
661.18	6235.21
661.372	6394.95
661.563	6405.19
661.755	6136.91
661.947	6073.42
662.139	6079.57
662.331	6141
662.522	6050.89
662.714	6224.97
662.906	5891.15
663.097	5940.3
663.289	5809.23
663.481	5864.53
663.673	5923.92
663.864	5854.29
664.056	5710.93
664.247	5645.4
664.439	5780.56
664.631	5915.73
664.822	5784.66
665.014	5782.61
665.205	5739.6
665.397	5676.12
665.588	5608.53
665.78	5479.51
665.971	5430.36
666.163	5723.22
666.354	5645.4
666.546	5338.2
666.737	5383.26
666.929	5264.47
667.12	5452.89
667.311	5454.94
667.503	5166.17
667.694	5243.99
667.885	5407.83
668.077	5440.6
668.268	5295.19
668.459	5330.01
668.651	5160.03
668.842	5235.8
669.033	5223.51
669.224	5207.13
669.416	5313.63
669.607	5231.71
669.798	5252.19
669.989	5067.87
670.18	5076.06
670.371	5145.69
670.563	5071.97
670.754	5063.77
670.945	4838.5
671.136	4975.71
671.327	4912.22
671.518	4961.37
671.709	4846.69
671.9	4971.61
672.091	4926.56
672.282	4871.26
672.473	4711.52
672.664	4797.54
672.855	4934.75
673.046	4785.25
673.237	4871.26
673.428	4789.35
673.619	4869.22
673.809	4723.81
674	4674.66
674.191	4725.86
674.382	4617.32
674.573	4684.9
674.764	4725.86
674.954	4559.97
675.145	4627.56
675.336	4678.76
675.527	4523.11
675.717	4467.81
675.908	4613.22
676.099	4482.15
676.289	4539.49
676.48	4547.69
676.671	4514.92
676.861	4523.11
677.052	4355.18
677.243	4412.52
677.433	4361.32
677.624	4435.05
677.814	4430.95
678.005	4482.15
678.195	4414.57
678.386	4232.3
678.576	4306.02
678.767	4353.13
678.957	4357.22
679.148	4371.56
679.338	4306.02
679.529	4293.74
679.719	4269.16
679.909	4346.98
680.1	4410.47
680.29	4308.07
680.481	4291.69
680.671	4183.15
680.861	4109.42
681.052	4330.6
681.242	4181.1
681.432	4308.07
681.622	4232.3
681.813	4310.12
682.003	4119.66
682.193	4189.29
682.383	4246.63
682.573	4142.19
682.764	4082.8
682.954	4045.93
683.144	4121.71
683.334	4179.05
683.524	4060.27
683.714	4101.23
683.904	4215.91
684.094	4017.26
684.284	4164.72
684.474	3959.92
684.664	4062.32
684.854	4029.55
685.044	4027.5
685.234	3869.81
685.424	3923.05
685.614	3855.47
685.804	3959.92
685.994	3970.16
686.184	3898.48
686.374	3775.6
686.564	3900.53
686.753	3849.33
686.943	3759.22
687.133	3978.35
687.323	3898.48
687.513	3761.27
687.702	3886.19
687.892	3865.71
688.082	3832.94
688.272	3789.94
688.461	3785.84
688.651	3685.49
688.841	3863.66
689.03	3781.74
689.22	3744.88
689.41	3671.15
689.599	3554.42
689.789	3624.05
689.979	3718.26
690.168	3535.99
690.358	3554.42
690.547	3757.17
690.737	3679.35
690.926	3595.38
691.116	3458.17
691.305	3748.98
691.495	3554.42
691.684	3470.45
691.874	3587.19
692.063	3439.73
692.252	3476.6
692.442	3529.84
692.631	3478.65
692.82	3425.4
693.01	3540.08
693.199	3435.64
693.388	3449.97
693.578	3406.97
693.767	3388.53
693.956	3341.43
694.146	3310.71
694.335	3236.99
694.524	3234.94
694.713	3343.48
694.902	3368.06
695.092	3378.3
695.281	3290.23
695.47	3249.27
695.659	3200.12
695.848	3257.46
696.037	3347.58
696.226	3191.93
696.415	3277.94
696.604	3259.51
696.793	3208.31
696.982	3204.22
697.171	3245.18
697.36	3208.31
697.549	3298.42
697.738	3165.31
697.927	3294.33
698.116	3232.89
698.305	3234.94
698.494	3169.4
698.683	3128.44
698.872	3083.39
699.061	3163.26
699.25	3009.66
699.438	3052.67
699.627	2876.54
699.816	3226.75
700.005	3128.44
700.193	3105.92
700.382	3024
700.571	3005.56
700.76	3042.43
700.948	3077.24
701.137	3015.8
701.326	3191.93
701.514	3067
701.703	2976.89
701.892	2911.36
702.08	3085.44
702.269	3077.24
702.457	3011.71
702.646	2980.99
702.834	2849.92
703.023	3007.61
703.212	3030.14
703.4	3011.71
703.589	2989.18
703.777	3019.9
703.965	3001.47
704.154	3064.96
704.342	3118.2
704.531	3011.71
704.719	2937.98
704.907	2995.32
705.096	3011.71
705.284	3001.47
705.472	2980.99
705.661	3069.05
705.849	2921.6
706.037	2907.26
706.226	2880.64
706.414	2958.46
706.602	2868.35
706.79	3021.95
706.979	2921.6
707.167	2942.08
707.355	2862.21
707.543	2911.36
707.731	2935.93
707.919	2884.73
708.107	2808.96
708.296	2800.77
708.484	2886.78
708.672	2913.41
708.86	2923.65
709.048	2806.91
709.236	2831.49
709.424	2913.41
709.612	2749.57
709.8	2794.62
709.988	2907.26
710.176	2954.37
710.364	2890.88
710.551	2872.45
710.739	2825.34
710.927	2808.96
711.115	2808.96
711.303	2694.27
711.491	2919.55
711.679	2761.86
711.866	2759.81
712.054	2907.26
712.242	2753.66
712.43	2749.57
712.617	2829.44
712.805	2790.53
712.993	2808.96
713.181	2569.35
713.368	2792.58
713.556	2757.76
713.744	2872.45
713.931	2770.05
714.119	2755.71
714.306	2786.43
714.494	2819.2
714.682	2718.85
714.869	2645.12
715.057	2790.53
715.244	2657.41
715.432	2706.56
715.619	2704.51
715.807	2743.42
715.994	2745.47
716.182	2825.34
716.369	2647.17
716.556	2694.27
716.744	2724.99
716.931	2552.96
717.119	2694.27
717.306	2649.22
717.493	2716.8
717.681	2671.75
717.868	2663.55
718.055	2595.97
718.242	2718.85
718.43	2593.92
718.617	2634.88
718.804	2694.27
718.991	2645.12
719.179	2765.95
719.366	2585.73
719.553	2600.07
719.74	2555.01
719.927	2561.16
720.114	2520.2
720.301	2530.44
720.488	2522.24
720.676	2643.07
720.863	2473.09
721.05	2540.68
721.237	2634.88
721.424	2589.83
721.611	2608.26
721.798	2598.02
721.985	2536.58
722.172	2495.62
722.358	2557.06
722.545	2487.43
722.732	2423.94
722.919	2667.65
723.106	2512
723.293	2440.33
723.48	2495.62
723.667	2454.66
723.853	2469
724.04	2581.64
724.227	2471.04
724.414	2456.71
724.6	2501.76
724.787	2520.2
724.974	2559.11
725.161	2448.52
725.347	2469
725.534	2532.48
725.72	2462.85
725.907	2489.48
726.094	2448.52
726.28	2475.14
726.467	2382.98
726.653	2450.57
726.84	2491.52
727.027	2462.85
727.213	2425.99
727.4	2491.52
727.586	2389.13
727.773	2309.26
727.959	2372.74
728.145	2411.65
728.332	2436.23
728.518	2339.97
728.705	2380.93
728.891	2454.66
729.077	2360.45
729.264	2327.69
729.45	2333.83
729.636	2372.74
729.823	2407.56
730.009	2387.08
730.195	2382.98
730.382	2393.22
730.568	2401.41
730.754	2423.94
730.94	2454.66
731.126	2364.55
731.313	2378.89
731.499	2339.97
731.685	2288.78
731.871	2382.98
732.057	2368.65
732.243	2237.58
732.429	2380.93
732.615	2382.98
732.801	2264.2
732.987	2290.82
733.173	2270.34
733.359	2344.07
733.545	2335.88
733.731	2307.21
733.917	2430.09
734.103	2370.69
734.289	2303.11
734.475	2327.69
734.661	2323.59
734.847	2303.11
735.033	2145.42
735.219	2247.82
735.404	2178.19
735.59	2253.96
735.776	2339.97
735.962	2288.78
736.148	2329.74
736.333	2284.68
736.519	2299.02
736.705	2282.63
736.89	2331.78
737.076	2229.38
737.262	2194.57
737.447	2213
737.633	2129.03
737.819	2200.71
738.004	2114.7
738.19	2178.19
738.375	2202.76
738.561	2192.52
738.747	2202.76
738.932	2133.13
739.118	2180.23
739.303	2161.8
739.489	2243.72
739.674	2071.69
739.859	2102.41
740.045	2208.9
740.23	2145.42
740.416	2122.89
740.601	2088.07
740.786	2053.26
740.972	2086.03
741.157	2126.99
741.342	2069.64
741.528	2028.68
741.713	2055.31
741.898	2122.89
742.084	2088.07
742.269	1979.53
742.454	2053.26
742.639	2098.31
742.824	2045.07
743.01	2028.68
743.195	1971.34
743.38	1989.77
743.565	2061.45
743.75	1989.77
743.935	2004.11
744.12	1938.57
744.305	1864.85
744.49	2038.92
744.675	1924.24
744.86	1905.81
745.045	1897.61
745.23	1946.76
745.415	2028.68
745.6	1850.51
745.785	1946.76
745.97	1827.98
746.155	1850.51
746.34	1805.46
746.525	1782.93
746.71	1852.56
746.895	1766.54
747.079	1881.23
747.264	1834.13
747.449	1795.22
747.634	1701.01
747.819	1696.91
748.003	1778.83
748.188	1803.41
748.373	1782.93
748.557	1752.21
748.742	1768.59
748.927	1668.24
749.111	1721.49
749.296	1614.99
749.481	1692.82
749.665	1666.19
749.85	1623.19
750.034	1668.24
750.219	1594.51
750.404	1643.67
750.588	1512.6
750.773	1545.36
750.957	1629.33
751.141	1496.21
751.326	1580.18
751.51	1551.51
751.695	1522.84
751.879	1557.65
752.064	1557.65
752.248	1582.23
752.432	1514.64
752.617	1508.5
752.801	1537.17
752.985	1488.02
753.17	1561.75
753.354	1373.33
753.538	1414.29
753.722	1336.47
753.907	1428.63
754.091	1402.01
754.275	1352.85
754.459	1516.69
754.643	1299.61
754.828	1369.24
755.012	1266.84
755.196	1299.61
755.38	1299.61
755.564	1315.99
755.748	1197.21
755.932	1275.03
756.116	1254.55
756.3	1283.22
756.484	1326.23
756.668	1295.51
756.852	1229.98
757.036	1207.45
757.22	1268.89
757.404	1176.73
757.588	1184.92
757.772	1221.78
757.956	1193.11
758.14	1193.11
758.323	1156.25
758.507	1154.2
758.691	1115.29
758.875	1180.82
759.059	1195.16
759.242	1113.24
759.426	1184.92
759.61	1127.58
759.794	1168.54
759.977	1131.67
760.161	1199.26
760.345	1125.53
760.528	1113.24
760.712	1152.15
760.895	1103
761.079	1117.34
761.263	1021.08
761.446	1084.57
761.63	1016.99
761.813	1111.19
761.997	1053.85
762.18	939.16
762.364	1051.8
762.547	1070.23
762.731	1045.66
762.914	1014.94
763.098	961.69
763.281	996.51
763.464	1012.89
763.648	898.2
763.831	947.36
764.015	959.64
764.198	996.51
764.381	957.6
764.564	996.51
764.748	918.68
764.931	1096.86
765.114	951.45
765.297	973.98
765.481	892.06
765.664	988.32
765.847	971.93
766.03	951.45
766.213	943.26
766.397	875.68
766.58	980.12
766.763	982.17
766.946	863.39
767.129	849.05
767.312	881.82
767.495	892.06
767.678	883.87
767.861	822.43
768.044	857.25
768.227	885.92
768.41	818.33
768.593	877.73
768.776	832.67
768.959	885.92
769.142	908.44
769.324	894.11
769.507	863.39
769.69	849.05
769.873	828.57
770.056	873.63
770.239	849.05
770.421	836.77
770.604	873.63
770.787	740.51
770.97	824.48
771.152	806.05
771.335	867.49
771.518	730.27
771.7	758.94
771.883	810.14
772.066	783.52
772.248	781.47
772.431	822.43
772.613	789.66
772.796	763.04
772.978	808.09
773.161	795.81
773.343	627.87
773.526	777.37
773.708	685.22
773.891	754.85
774.073	767.13
774.256	742.56
774.438	734.37
774.621	715.94
774.803	824.48
774.985	689.31
775.168	728.22
775.35	638.11
775.532	724.13
775.715	715.94
775.897	656.54
776.079	672.93
776.261	722.08
776.444	717.98
776.626	726.18
776.808	605.35
776.99	730.27
777.173	582.82
777.355	654.5
777.537	638.11
777.719	593.06
777.901	580.77
778.083	564.39
778.265	646.3
778.447	619.68
778.629	679.07
778.811	646.3
778.993	570.53
779.175	578.72
779.357	552.1
779.539	578.72
779.721	564.39
779.903	558.24
780.085	525.47
780.267	611.49
780.449	582.82
780.631	619.68
780.812	586.91
780.994	523.43
781.176	574.63
781.358	492.71
781.54	572.58
781.721	574.63
781.903	576.67
782.085	527.52
782.267	515.23
782.448	447.65
782.63	474.28
782.812	550.05
782.993	560.29
783.175	515.23
783.357	556.19
783.538	507.04
783.72	498.85
783.901	443.56
784.083	433.32
784.264	578.72
784.446	429.22
784.627	394.4
784.809	468.13
784.99	418.98
785.172	439.46
785.353	357.54
785.535	480.42
785.716	388.26
785.897	449.7
786.079	414.88
786.26	429.22
786.441	398.5
786.623	373.92
786.804	400.55
786.985	369.83
787.167	375.97
787.348	408.74
787.529	396.45
787.71	435.36
787.891	474.28
788.073	390.31
788.254	394.4
788.435	402.6
788.616	390.31
788.797	386.21
788.978	388.26
789.159	308.39
789.34	453.8
789.522	279.72
789.703	408.74
789.884	277.67
790.065	398.5
790.246	418.98
790.427	328.87
790.607	390.31
790.788	283.81
790.969	312.49
791.15	341.16
791.331	343.21
791.512	271.53
791.693	308.39
791.874	324.77
792.054	380.07
792.235	283.81
792.416	240.81
792.597	365.73
792.778	335.01
792.958	375.97
793.139	363.69
793.32	318.63
793.5	226.47
793.681	324.77
793.862	308.39
794.042	275.62
794.223	269.48
794.404	269.48
794.584	171.18
794.765	310.44
794.945	332.97
795.126	416.93
795.306	267.43
795.487	335.01
795.667	205.99
795.848	271.53
796.028	269.48
796.209	283.81
796.389	244.9
796.57	279.72
796.75	263.33
796.93	285.86
797.111	261.29
797.291	205.99
797.471	304.29
797.652	279.72
797.832	318.63
798.012	259.24
798.192	271.53
798.373	224.42
798.553	234.66
798.733	267.43
798.913	267.43
799.093	275.62
799.274	226.47
799.454	253.09
799.634	263.33
799.814	246.95
799.994	234.66
800.174	214.18
800.354	208.04
800.534	195.75
800.714	251.05
800.894	226.47
801.074	214.18
801.254	181.42
801.434	251.05
801.614	277.67
801.794	185.51
801.974	730.27
802.154	220.33
802.334	263.33
802.514	144.55
802.693	244.9
802.873	269.48
803.053	236.71
803.233	232.62
803.413	212.14
803.592	160.94
803.772	144.55
803.952	107.69
804.131	201.9
804.311	253.09
804.491	242.85
804.67	115.88
804.85	138.41
805.03	169.13
805.209	152.74
805.389	179.37
805.568	128.17
805.748	193.7
805.928	201.9
806.107	181.42
806.287	169.13
806.466	165.03
806.646	177.32
806.825	203.94
807.004	236.71
807.184	144.55
807.363	183.46
807.543	173.22
807.722	220.33
807.901	205.99
808.081	267.43
808.26	138.41
808.439	189.61
808.619	226.47
808.798	169.13
808.977	144.55
809.156	212.14
809.336	148.65
809.515	193.7
809.694	226.47
809.873	130.22
810.052	201.9
810.231	308.39
810.411	134.31
810.59	173.22
810.769	210.09
810.948	205.99
811.127	142.5
811.306	205.99
811.485	181.42
811.664	179.37
811.843	152.74
812.022	160.94
812.201	240.81
812.38	179.37
812.559	197.8
812.737	156.84
812.916	99.5
813.095	158.89
813.274	134.31
813.453	138.41
813.632	152.74
813.811	95.4
813.989	177.32
814.168	160.94
814.347	154.79
814.526	111.78
814.704	195.75
814.883	191.66
815.062	97.45
815.24	138.41
815.419	103.59
815.598	87.21
815.776	107.69
815.955	156.84
816.133	107.69
816.312	126.12
816.49	38.06
816.669	177.32
816.847	128.17
817.026	154.79
817.204	117.93
817.383	111.78
817.561	62.63
817.74	81.07
817.918	154.79
818.097	62.63
818.275	124.07
818.453	122.02
818.632	148.65
818.81	128.17
818.988	132.26
819.167	111.78
819.345	50.35
819.523	101.55
819.701	89.26
819.879	119.98
820.058	195.75
820.236	152.74
820.414	128.17
820.592	136.36
820.77	50.35
820.948	113.83
821.127	152.74
821.305	109.74
821.483	40.11
821.661	195.75
821.839	79.02
822.017	119.98
822.195	144.55
822.373	119.98
822.551	89.26
822.729	72.87
822.907	119.98
823.085	89.26
823.262	148.65
823.44	62.63
823.618	148.65
823.796	87.21
823.974	97.45
824.152	25.77
824.329	87.21
824.507	126.12
824.685	122.02
824.863	101.55
825.04	152.74
825.218	87.21
825.396	109.74
825.574	83.11
825.751	95.4
825.929	95.4
826.107	117.93
826.284	29.87
826.462	99.5
826.639	58.54
826.817	62.63
826.994	58.54
827.172	146.6
827.349	128.17
827.527	103.59
827.704	87.21
827.882	56.49
828.059	122.02
828.237	81.07
828.414	128.17
828.591	31.91
828.769	54.44
828.946	79.02
829.124	117.93
829.301	128.17
829.478	72.87
829.655	138.41
829.833	62.63
830.01	50.35
830.187	83.11
830.364	42.15
830.542	111.78
830.719	142.5
830.896	169.13
831.073	95.4
831.25	158.89
831.427	72.87
831.604	87.21
831.782	162.98
831.959	97.45
832.136	17.58
832.313	160.94
832.49	89.26
832.667	87.21
832.844	70.83
833.021	56.49
833.198	138.41
833.374	99.5
833.551	111.78
833.728	70.83
833.905	50.35
834.082	44.2
834.259	15.53
834.436	144.55
834.612	58.54
834.789	81.07
834.966	122.02
835.143	46.25
835.319	5.29
835.496	72.87
835.673	81.07
835.85	117.93
836.026	107.69
836.203	93.35
836.38	-0.85
836.556	7.34
836.733	15.53
836.909	138.41
837.086	89.26
837.262	-9.05
837.439	146.6
837.616	-19.29
837.792	15.53
837.968	87.21
838.145	-2.9
838.321	146.6
838.498	62.63
838.674	119.98
838.851	-25.43
839.027	107.69
839.203	115.88
839.38	46.25
839.556	83.11
839.732	46.25
839.909	87.21
840.085	103.59
840.261	9.39
840.437	70.83
840.614	54.44
840.79	66.73
840.966	99.5
841.142	29.87
841.318	93.35
841.494	62.63
841.671	79.02
841.847	128.17
842.023	52.39
842.199	56.49
842.375	109.74
842.551	62.63
842.727	83.11
842.903	29.87
843.079	48.3
843.255	74.92
843.431	66.73
843.607	58.54
843.783	-19.29
843.959	66.73
844.134	-25.43
844.31	111.78
844.486	62.63
844.662	15.53
844.838	64.68
845.013	60.59
845.189	46.25
845.365	31.91
845.541	21.67
845.716	5.29
845.892	31.91
846.068	33.96
846.244	-35.67
846.419	40.11
846.595	-11.09
846.77	23.72
846.946	76.97
847.122	13.48
847.297	38.06
847.473	83.11
847.648	48.3
847.824	38.06
847.999	79.02
848.175	27.82
848.35	103.59
848.526	31.91
848.701	48.3
848.876	5.29
849.052	31.91
849.227	36.01
849.403	70.83
849.578	62.63
849.753	119.98
849.929	-7
850.104	-58.2
850.279	79.02
850.454	7.34
850.63	58.54
850.805	-11.09
850.98	31.91
851.155	97.45
851.33	72.87
851.505	-25.43
851.681	9.39
851.856	13.48
852.031	70.83
852.206	109.74
852.381	-2.9
852.556	31.91
852.731	38.06
852.906	-2.9
853.081	58.54
853.256	66.73
853.431	40.11
853.606	27.82
853.781	5.29
853.956	-45.91
854.131	62.63
854.305	9.39
854.48	-2.9
854.655	44.2
854.83	29.87
855.005	130.22
855.18	54.44
855.354	46.25
855.529	7.34
855.704	38.06
855.879	-9.05
856.053	87.21
856.228	111.78
856.403	58.54
856.577	97.45
856.752	15.53
856.926	66.73
857.101	72.87
857.276	68.78
857.45	48.3
857.625	87.21
857.799	-0.85
857.974	31.91
858.148	-29.52
858.323	-7
858.497	-11.09
858.672	29.87
858.846	81.07
859.02	54.44
859.195	60.59
859.369	36.01
859.543	50.35
859.718	58.54
859.892	27.82
860.066	5.29
860.241	33.96
860.415	79.02
860.589	70.83
860.763	-9.05
860.938	27.82
861.112	56.49
861.286	-15.19
861.46	-25.43
861.634	25.77
861.808	91.31
861.982	-25.43
862.157	25.77
862.331	36.01
862.505	-2.9
862.679	31.91
862.853	38.06
863.027	-37.72
863.201	70.83
863.375	50.35
863.549	36.01
863.722	52.39
863.896	95.4
864.07	-27.48
864.244	29.87
864.418	27.82
864.592	54.44
864.766	21.67
864.939	81.07
865.113	-9.05
865.287	-11.09
865.461	46.25
865.634	-74.58
865.808	38.06
865.982	52.39
866.156	-31.57
866.329	-11.09
866.503	21.67
866.676	74.92
866.85	23.72
867.024	58.54
867.197	58.54
867.371	31.91
867.544	5.29
867.718	-21.33
867.891	70.83
868.065	-60.24
868.238	44.2
868.412	72.87
868.585	29.87
868.759	1.19
868.932	-9.05
869.105	9.39
869.279	-7
869.452	9.39
869.625	7.34
869.799	-17.24
869.972	-31.57
870.145	-7
870.319	56.49
870.492	97.45
870.665	83.11
870.838	36.01
871.011	33.96
871.185	-35.67
871.358	54.44
871.531	58.54
871.704	-4.95
871.877	31.91
872.05	-35.67
872.223	-17.24
872.396	66.73
872.569	-39.76
872.742	17.58
872.915	-41.81
873.088	-9.05
873.261	46.25
873.434	15.53
873.607	21.67
873.78	21.67
873.953	-41.81
874.126	-4.95
874.299	50.35
874.471	-7
874.644	11.43
874.817	46.25
874.99	56.49
875.163	31.91
875.335	15.53
875.508	-11.09
875.681	38.06
875.853	29.87
876.026	33.96
876.199	23.72
876.371	31.91
876.544	21.67
876.717	46.25
876.889	-25.43
877.062	29.87
877.234	-15.19
877.407	36.01
877.579	54.44
877.752	27.82
877.924	23.72
878.097	-9.05
878.269	21.67
878.442	9.39
878.614	-15.19
878.786	9.39
878.959	-7
879.131	70.83
879.303	-31.57
879.476	62.63
879.648	79.02
879.82	46.25
879.993	-2.9
880.165	-39.76
880.337	3.24
880.509	1.19
880.681	-37.72
880.854	5.29
881.026	31.91
881.198	40.11
881.37	25.77
881.542	40.11
881.714	-58.2
881.886	-25.43
882.058	-7
882.23	72.87
882.402	-15.19
882.574	79.02
882.746	70.83
882.918	13.48
883.09	-19.29
883.262	44.2
883.434	25.77
883.606	-31.57
883.778	21.67
883.95	-2.9
884.122	40.11
884.293	64.68
884.465	-35.67
884.637	85.16
884.809	29.87
884.98	7.34
885.152	36.01
885.324	13.48
885.496	9.39
885.667	66.73
885.839	-52.05
886.011	89.26
886.182	-0.85
886.354	115.88
886.525	15.53
886.697	-7
886.869	-43.86
887.04	-15.19
887.212	46.25
887.383	56.49
887.555	46.25
887.726	-33.62
887.897	33.96
888.069	-23.38
888.24	3.24
888.412	17.58
888.583	-2.9
888.754	40.11
888.926	-29.52
889.097	9.39
889.268	-39.76
889.44	-7
889.611	25.77
889.782	-31.57
889.953	23.72
890.125	33.96
890.296	56.49
890.467	-62.29
890.638	79.02
890.809	9.39
890.98	46.25
891.151	5.29
891.323	-15.19
891.494	54.44
891.665	13.48
891.836	-21.33
892.007	-35.67
892.178	21.67
892.349	31.91
892.52	-52.05
892.691	-0.85
892.862	9.39
893.032	-31.57
893.203	23.72
893.374	56.49
893.545	56.49
893.716	29.87
893.887	-2.9
894.057	33.96
894.228	19.63
894.399	3.24
894.57	74.92
894.74	-25.43
894.911	21.67
895.082	23.72
895.253	-9.05
895.423	83.11
895.594	-23.38
895.764	48.3
895.935	-17.24
896.106	-2.9
896.276	13.48
896.447	-4.95
896.617	-37.72
896.788	-50
896.958	9.39
897.129	-13.14
897.299	-7
897.47	38.06
897.64	42.15
897.81	15.53
897.981	74.92
898.151	-35.67
898.322	23.72
898.492	-35.67
898.662	54.44
898.832	-33.62
899.003	-2.9
899.173	23.72
899.343	-17.24
899.513	70.83
