Data from USB4F104151__97__14-18-01-300.txt Node

Date: Thu Mar 13 14:18:01 EDT 2025
User: louis
Spectrometer: USB4F10415
Trigger mode: 4
Integration Time (sec): 2.000000E-2
Scans to average: 1
Electric dark correction enabled: true
Nonlinearity correction enabled: false
Boxcar width: 0
XAxis mode: Wavelengths
Number of Pixels in Spectrum: 3648
>>>>>Begin Spectral Data<<<<<
178.204	-135.17
178.424	-135.17
178.644	-135.17
178.864	-65.54
179.084	-161.79
179.304	-12.29
179.524	10.24
179.744	-79.87
179.964	71.68
180.184	-6.14
180.404	-14.34
180.624	18.43
180.844	38.91
181.064	-53.25
181.283	26.62
181.503	-22.53
181.723	22.53
181.943	-8.19
182.163	94.21
182.383	51.2
182.602	69.63
182.822	2.05
183.042	51.2
183.262	24.58
183.482	71.68
183.701	-36.86
183.921	10.24
184.141	65.53
184.361	-30.72
184.58	26.62
184.8	73.73
185.02	-14.34
185.239	83.97
185.459	30.72
185.679	-47.1
185.898	-14.34
186.118	75.77
186.338	10.24
186.557	18.43
186.777	-28.67
186.997	-14.34
187.216	-45.06
187.436	98.3
187.655	10.24
187.875	14.34
188.095	2.05
188.314	-22.53
188.534	-22.53
188.753	8.19
188.973	6.14
189.192	14.34
189.412	79.87
189.631	28.67
189.851	-26.62
190.07	26.62
190.29	-2.05
190.509	2.05
190.729	-10.24
190.948	26.62
191.168	108.54
191.387	-22.53
191.607	10.24
191.826	-18.43
192.045	26.62
192.265	45.06
192.484	12.29
192.704	-61.44
192.923	40.96
193.142	51.2
193.362	30.72
193.581	59.39
193.8	100.35
194.02	-2.05
194.239	73.73
194.458	-8.19
194.678	67.58
194.897	-6.14
195.116	12.29
195.335	43.01
195.555	45.06
195.774	-12.29
195.993	55.3
196.212	-20.48
196.432	-4.1
196.651	38.91
196.87	-36.86
197.089	67.58
197.308	20.48
197.528	59.39
197.747	-14.34
197.966	-22.53
198.185	51.2
198.404	67.58
198.623	18.43
198.842	67.58
199.062	34.82
199.281	4.1
199.5	22.53
199.719	4.1
199.938	-43.01
200.157	75.77
200.376	-6.14
200.595	43.01
200.814	47.1
201.033	45.06
201.252	26.62
201.471	57.34
201.69	102.4
201.909	30.72
202.128	28.67
202.347	26.62
202.566	-51.2
202.785	-30.72
203.004	-10.24
203.223	92.16
203.442	20.48
203.661	-32.77
203.879	69.63
204.098	49.15
204.317	61.44
204.536	75.77
204.755	-34.82
204.974	83.97
205.193	77.82
205.411	59.39
205.63	55.3
205.849	-4.1
206.068	-24.58
206.287	36.86
206.505	75.77
206.724	51.2
206.943	-38.91
207.162	43.01
207.381	40.96
207.599	-6.14
207.818	61.44
208.037	-36.86
208.255	6.14
208.474	20.48
208.693	28.67
208.911	4.1
209.13	10.24
209.349	-14.34
209.567	55.3
209.786	-0
210.005	-47.1
210.223	114.69
210.442	-45.06
210.661	12.29
210.879	45.06
211.098	-2.05
211.316	36.86
211.535	45.06
211.753	20.48
211.972	49.15
212.191	-38.91
212.409	4.1
212.628	77.82
212.846	36.86
213.065	28.67
213.283	77.82
213.502	63.49
213.72	26.62
213.938	63.49
214.157	38.91
214.375	24.58
214.594	-0
214.812	67.58
215.031	38.91
215.249	43.01
215.467	38.91
215.686	-10.24
215.904	26.62
216.122	10.24
216.341	145.41
216.559	-6.14
216.778	34.82
216.996	57.34
217.214	20.48
217.432	30.72
217.651	-0
217.869	30.72
218.087	36.86
218.306	2.05
218.524	14.34
218.742	-4.1
218.96	18.43
219.179	51.2
219.397	4.1
219.615	133.12
219.833	32.77
220.051	10.24
220.27	47.1
220.488	59.39
220.706	43.01
220.924	-6.14
221.142	-38.91
221.36	67.58
221.578	59.39
221.796	10.24
222.015	-53.25
222.233	20.48
222.451	124.93
222.669	34.82
222.887	83.97
223.105	2.05
223.323	-40.96
223.541	12.29
223.759	-20.48
223.977	-6.14
224.195	-6.14
224.413	43.01
224.631	20.48
224.849	-8.19
225.067	112.64
225.285	26.62
225.503	18.43
225.721	-18.43
225.939	-12.29
226.157	69.63
226.375	161.79
226.592	-40.96
226.81	38.91
227.028	63.49
227.246	22.53
227.464	-2.05
227.682	-30.72
227.9	51.2
228.117	38.91
228.335	75.77
228.553	30.72
228.771	40.96
228.989	-14.34
229.206	32.77
229.424	36.86
229.642	49.15
229.86	53.25
230.077	83.97
230.295	43.01
230.513	36.86
230.731	67.58
230.948	53.25
231.166	34.82
231.384	75.77
231.601	116.73
231.819	75.77
232.037	34.82
232.254	10.24
232.472	10.24
232.689	43.01
232.907	102.4
233.125	22.53
233.342	-2.05
233.56	75.77
233.777	75.77
233.995	26.62
234.213	90.11
234.43	-16.38
234.648	-2.05
234.865	-16.38
235.083	34.82
235.3	-0
235.518	71.68
235.735	96.25
235.953	34.82
236.17	-2.05
236.388	-20.48
236.605	110.59
236.822	4.1
237.04	92.16
237.257	2.05
237.475	-0
237.692	104.45
237.909	47.1
238.127	6.14
238.344	2.05
238.562	-0
238.779	-20.48
238.996	18.43
239.214	22.53
239.431	36.86
239.648	-55.3
239.865	20.48
240.083	28.67
240.3	22.53
240.517	10.24
240.735	-40.96
240.952	118.78
241.169	100.35
241.386	-12.29
241.603	10.24
241.821	-4.1
242.038	45.06
242.255	71.68
242.472	-38.91
242.689	4.1
242.907	133.12
243.124	26.62
243.341	2.05
243.558	34.82
243.775	-20.48
243.992	-55.3
244.209	22.53
244.426	96.25
244.643	69.63
244.86	36.86
245.078	40.96
245.295	-10.24
245.512	28.67
245.729	32.77
245.946	14.34
246.163	-57.34
246.38	10.24
246.597	-6.14
246.814	-24.58
247.031	22.53
247.248	51.2
247.464	75.77
247.681	61.44
247.898	28.67
248.115	-22.53
248.332	2.05
248.549	34.82
248.766	30.72
248.983	79.87
249.2	-12.29
249.417	12.29
249.633	-43.01
249.85	20.48
250.067	4.1
250.284	-10.24
250.501	10.24
250.717	53.25
250.934	18.43
251.151	26.62
251.368	-6.14
251.585	79.87
251.801	43.01
252.018	-22.53
252.235	26.62
252.451	-24.58
252.668	24.58
252.885	149.5
253.102	53.25
253.318	12.29
253.535	-10.24
253.752	55.3
253.968	2.05
254.185	28.67
254.401	71.68
254.618	94.21
254.835	-32.77
255.051	67.58
255.268	-22.53
255.484	69.63
255.701	102.4
255.917	18.43
256.134	92.16
256.351	10.24
256.567	45.06
256.784	53.25
257	22.53
257.217	-4.1
257.433	110.59
257.65	86.01
257.866	110.59
258.082	-14.34
258.299	-14.34
258.515	-40.96
258.732	-38.91
258.948	-14.34
259.165	30.72
259.381	-12.29
259.597	86.01
259.814	63.49
260.03	-30.72
260.246	-45.06
260.463	4.1
260.679	43.01
260.895	-20.48
261.112	61.44
261.328	18.43
261.544	-14.34
261.761	75.77
261.977	38.91
262.193	-47.1
262.409	55.3
262.626	55.3
262.842	43.01
263.058	-28.67
263.274	30.72
263.49	81.92
263.707	20.48
263.923	12.29
264.139	-14.34
264.355	59.39
264.571	59.39
264.787	53.25
265.004	28.67
265.22	12.29
265.436	36.86
265.652	34.82
265.868	30.72
266.084	10.24
266.3	24.58
266.516	-26.62
266.732	-32.77
266.948	-14.34
267.164	36.86
267.38	24.58
267.596	34.82
267.812	38.91
268.028	26.62
268.244	55.3
268.46	38.91
268.676	34.82
268.892	30.72
269.108	-12.29
269.324	16.38
269.54	22.53
269.756	55.3
269.972	-45.06
270.188	2.05
270.403	30.72
270.619	36.86
270.835	-14.34
271.051	38.91
271.267	6.14
271.483	26.62
271.698	14.34
271.914	-32.77
272.13	69.63
272.346	51.2
272.562	-30.72
272.777	2.05
272.993	67.58
273.209	-51.2
273.425	83.97
273.64	2.05
273.856	12.29
274.072	57.34
274.287	-18.43
274.503	49.15
274.719	10.24
274.934	51.2
275.15	2.05
275.366	61.44
275.581	47.1
275.797	14.34
276.012	2.05
276.228	-0
276.444	55.3
276.659	-0
276.875	45.06
277.09	69.63
277.306	47.1
277.521	90.11
277.737	-4.1
277.952	-43.01
278.168	77.82
278.383	26.62
278.599	12.29
278.814	59.39
279.03	61.44
279.245	30.72
279.461	-2.05
279.676	126.97
279.892	30.72
280.107	-43.01
280.322	59.39
280.538	38.91
280.753	-38.91
280.969	-14.34
281.184	63.49
281.399	12.29
281.615	10.24
281.83	-55.3
282.045	-92.16
282.26	10.24
282.476	-14.34
282.691	51.2
282.906	-4.1
283.122	67.58
283.337	-20.48
283.552	124.93
283.767	110.59
283.983	67.58
284.198	-36.86
284.413	2.05
284.628	-61.44
284.843	12.29
285.058	-8.19
285.274	61.44
285.489	67.58
285.704	79.87
285.919	12.29
286.134	77.82
286.349	108.54
286.564	-10.24
286.779	2.05
286.995	18.43
287.21	22.53
287.425	73.73
287.64	36.86
287.855	86.01
288.07	-20.48
288.285	20.48
288.5	2.05
288.715	96.25
288.93	79.87
289.145	-6.14
289.36	83.97
289.575	26.62
289.79	6.14
290.004	20.48
290.219	108.54
290.434	22.53
290.649	57.34
290.864	71.68
291.079	10.24
291.294	14.34
291.509	55.3
291.724	38.91
291.938	-34.82
292.153	10.24
292.368	28.67
292.583	30.72
292.798	90.11
293.012	18.43
293.227	75.77
293.442	2.05
293.657	34.82
293.871	104.45
294.086	59.39
294.301	28.67
294.516	22.53
294.73	-12.29
294.945	14.34
295.16	53.25
295.374	59.39
295.589	61.44
295.804	18.43
296.018	36.86
296.233	18.43
296.447	77.82
296.662	-71.68
296.877	43.01
297.091	-47.1
297.306	45.06
297.52	-22.53
297.735	6.14
297.949	26.62
298.164	22.53
298.378	18.43
298.593	-24.58
298.807	-18.43
299.022	26.62
299.236	38.91
299.451	-79.87
299.665	2.05
299.88	53.25
300.094	59.39
300.309	-18.43
300.523	4.1
300.737	75.77
300.952	47.1
301.166	38.91
301.381	24.58
301.595	92.16
301.809	8.19
302.024	32.77
302.238	10.24
302.452	83.97
302.667	4.1
302.881	81.92
303.095	57.34
303.309	26.62
303.524	-2.05
303.738	12.29
303.952	79.87
304.166	47.1
304.381	-26.62
304.595	4.1
304.809	55.3
305.023	65.53
305.237	26.62
305.452	-47.1
305.666	26.62
305.88	45.06
306.094	55.3
306.308	63.49
306.522	77.82
306.736	18.43
306.95	61.44
307.164	-6.14
307.379	24.58
307.593	47.1
307.807	22.53
308.021	-14.34
308.235	14.34
308.449	-36.86
308.663	51.2
308.877	116.73
309.091	-18.43
309.305	18.43
309.519	36.86
309.733	18.43
309.947	36.86
310.161	24.58
310.374	-6.14
310.588	55.3
310.802	4.1
311.016	49.15
311.23	-18.43
311.444	2.05
311.658	59.39
311.872	73.73
312.085	53.25
312.299	83.97
312.513	30.72
312.727	26.62
312.941	24.58
313.154	63.49
313.368	79.87
313.582	-18.43
313.796	45.06
314.009	30.72
314.223	75.77
314.437	83.97
314.651	10.24
314.864	12.29
315.078	55.3
315.292	34.82
315.505	36.86
315.719	83.97
315.933	32.77
316.146	26.62
316.36	4.1
316.573	-0
316.787	28.67
317.001	43.01
317.214	-38.91
317.428	73.73
317.641	38.91
317.855	40.96
318.068	10.24
318.282	32.77
318.495	2.05
318.709	28.67
318.922	6.14
319.136	34.82
319.349	45.06
319.563	51.2
319.776	2.05
319.99	-12.29
320.203	10.24
320.417	38.91
320.63	34.82
320.843	100.35
321.057	-0
321.27	38.91
321.483	81.92
321.697	90.11
321.91	49.15
322.124	59.39
322.337	92.16
322.55	45.06
322.763	43.01
322.977	-4.1
323.19	-55.3
323.403	26.62
323.617	49.15
323.83	88.06
324.043	61.44
324.256	30.72
324.469	4.1
324.683	77.82
324.896	4.1
325.109	-0
325.322	6.14
325.535	92.16
325.748	98.3
325.962	10.24
326.175	12.29
326.388	51.2
326.601	-18.43
326.814	61.44
327.027	102.4
327.24	116.73
327.453	-28.67
327.666	55.3
327.879	-24.58
328.092	55.3
328.305	-14.34
328.518	26.62
328.731	10.24
328.944	10.24
329.157	12.29
329.37	18.43
329.583	96.25
329.796	59.39
330.009	10.24
330.222	75.77
330.435	51.2
330.648	71.68
330.861	79.87
331.073	45.06
331.286	22.53
331.499	55.3
331.712	26.62
331.925	67.58
332.138	8.19
332.35	51.2
332.563	-10.24
332.776	94.21
332.989	2.05
333.202	-71.68
333.414	-4.1
333.627	-67.58
333.84	49.15
334.053	4.1
334.265	40.96
334.478	83.97
334.691	-4.1
334.903	55.3
335.116	-12.29
335.329	34.82
335.541	102.4
335.754	36.86
335.966	24.58
336.179	38.91
336.392	92.16
336.604	-45.06
336.817	83.97
337.029	157.69
337.242	34.82
337.454	18.43
337.667	36.86
337.88	110.59
338.092	110.59
338.305	55.3
338.517	55.3
338.729	94.21
338.942	38.91
339.154	10.24
339.367	36.86
339.579	6.14
339.792	24.58
340.004	-14.34
340.217	-0
340.429	75.77
340.641	-4.1
340.854	61.44
341.066	26.62
341.278	94.21
341.491	135.17
341.703	100.35
341.915	43.01
342.128	92.16
342.34	53.25
342.552	-6.14
342.764	26.62
342.977	18.43
343.189	38.91
343.401	61.44
343.613	6.14
343.826	-10.24
344.038	118.78
344.25	12.29
344.462	-2.05
344.674	57.34
344.886	63.49
345.099	45.06
345.311	96.25
345.523	102.4
345.735	18.43
345.947	59.39
346.159	-16.38
346.371	26.62
346.583	34.82
346.795	116.73
347.007	43.01
347.219	59.39
347.431	67.58
347.643	53.25
347.855	45.06
348.067	86.01
348.279	22.53
348.491	28.67
348.703	28.67
348.915	43.01
349.127	73.73
349.339	10.24
349.551	-2.05
349.763	-2.05
349.975	61.44
350.187	8.19
350.399	47.1
350.61	57.34
350.822	18.43
351.034	67.58
351.246	77.82
351.458	88.06
351.669	22.53
351.881	81.92
352.093	30.72
352.305	65.53
352.517	102.4
352.728	12.29
352.94	51.2
353.152	59.39
353.363	18.43
353.575	22.53
353.787	45.06
353.999	14.34
354.21	75.77
354.422	36.86
354.633	92.16
354.845	100.35
355.057	14.34
355.268	26.62
355.48	47.1
355.692	30.72
355.903	2.05
356.115	61.44
356.326	26.62
356.538	34.82
356.749	43.01
356.961	34.82
357.172	96.25
357.384	40.96
357.595	26.62
357.807	-71.68
358.018	10.24
358.23	32.77
358.441	51.2
358.653	71.68
358.864	53.25
359.075	43.01
359.287	22.53
359.498	75.77
359.709	59.39
359.921	96.25
360.132	28.67
360.344	10.24
360.555	26.62
360.766	108.54
360.977	-53.25
361.189	43.01
361.4	96.25
361.611	20.48
361.823	63.49
362.034	131.07
362.245	10.24
362.456	47.1
362.667	112.64
362.879	86.01
363.09	43.01
363.301	61.44
363.512	38.91
363.723	83.97
363.935	108.54
364.146	40.96
364.357	34.82
364.568	133.12
364.779	-6.14
364.99	92.16
365.201	61.44
365.412	108.54
365.623	6.14
365.834	4.1
366.045	4.1
366.256	108.54
366.467	18.43
366.678	65.53
366.889	-8.19
367.1	14.34
367.311	47.1
367.522	59.39
367.733	12.29
367.944	59.39
368.155	43.01
368.366	55.3
368.577	83.97
368.788	104.45
368.999	59.39
369.209	51.2
369.42	10.24
369.631	47.1
369.842	22.53
370.053	98.3
370.264	75.77
370.474	26.62
370.685	51.2
370.896	30.72
371.107	83.97
371.317	40.96
371.528	-43.01
371.739	124.93
371.95	63.49
372.16	90.11
372.371	22.53
372.582	30.72
372.792	34.82
373.003	116.73
373.214	120.83
373.424	124.93
373.635	10.24
373.846	83.97
374.056	34.82
374.267	102.4
374.477	55.3
374.688	-14.34
374.898	20.48
375.109	75.77
375.319	-12.29
375.53	53.25
375.74	94.21
375.951	59.39
376.161	-20.48
376.372	69.63
376.582	100.35
376.793	45.06
377.003	-10.24
377.214	38.91
377.424	18.43
377.635	-59.39
377.845	20.48
378.055	67.58
378.266	16.38
378.476	69.63
378.686	43.01
378.897	104.45
379.107	63.49
379.317	-16.38
379.528	12.29
379.738	83.97
379.948	55.3
380.158	53.25
380.369	38.91
380.579	47.1
380.789	43.01
380.999	10.24
381.21	67.58
381.42	94.21
381.63	83.97
381.84	51.2
382.05	61.44
382.261	75.77
382.471	49.15
382.681	79.87
382.891	106.49
383.101	83.97
383.311	-14.34
383.521	-20.48
383.731	75.77
383.941	53.25
384.151	67.58
384.361	18.43
384.571	100.35
384.781	92.16
384.991	149.5
385.201	38.91
385.411	53.25
385.621	98.3
385.831	53.25
386.041	92.16
386.251	96.25
386.461	79.87
386.671	30.72
386.881	100.35
387.091	67.58
387.301	51.2
387.511	69.63
387.72	73.73
387.93	116.73
388.14	98.3
388.35	4.1
388.56	43.01
388.769	120.83
388.979	22.53
389.189	67.58
389.399	38.91
389.609	116.73
389.818	88.06
390.028	108.54
390.238	86.01
390.447	92.16
390.657	118.78
390.867	2.05
391.076	18.43
391.286	49.15
391.496	108.54
391.705	81.92
391.915	83.97
392.125	10.24
392.334	110.59
392.544	36.86
392.753	100.35
392.963	-2.05
393.172	61.44
393.382	67.58
393.591	124.93
393.801	34.82
394.01	43.01
394.22	149.5
394.429	71.68
394.639	26.62
394.848	30.72
395.058	71.68
395.267	71.68
395.477	100.35
395.686	53.25
395.895	159.74
396.105	190.46
396.314	143.36
396.524	67.58
396.733	-20.48
396.942	135.17
397.152	83.97
397.361	215.04
397.57	55.3
397.78	120.83
397.989	81.92
398.198	147.45
398.407	59.39
398.617	129.02
398.826	124.93
399.035	63.49
399.244	108.54
399.453	106.49
399.663	102.4
399.872	231.42
400.081	112.64
400.29	77.82
400.499	75.77
400.708	124.93
400.917	69.63
401.127	118.78
401.336	186.37
401.545	206.84
401.754	131.07
401.963	157.69
402.172	83.97
402.381	71.68
402.59	124.93
402.799	126.97
403.008	188.41
403.217	133.12
403.426	102.4
403.635	133.12
403.844	53.25
404.053	161.79
404.262	69.63
404.471	159.74
404.68	153.6
404.888	208.89
405.097	153.6
405.306	143.36
405.515	223.23
405.724	112.64
405.933	210.94
406.142	159.74
406.35	241.66
406.559	247.8
406.768	288.76
406.977	288.76
407.185	124.93
407.394	260.09
407.603	200.7
407.812	227.32
408.02	266.24
408.229	225.28
408.438	174.08
408.646	235.52
408.855	247.8
409.064	305.15
409.272	313.34
409.481	403.45
409.69	309.24
409.898	337.91
410.107	288.76
410.315	385.02
410.524	448.51
410.733	440.31
410.941	415.74
411.15	491.51
411.358	389.11
411.567	505.85
411.775	448.51
411.984	522.23
412.192	573.43
412.401	483.32
412.609	548.86
412.818	520.18
413.026	608.25
413.234	616.44
413.443	598.01
413.651	673.78
413.86	692.21
414.068	788.47
414.276	735.22
414.485	763.89
414.693	751.6
414.901	706.55
415.11	915.44
415.318	821.24
415.526	854
415.734	964.59
415.943	903.15
416.151	903.15
416.359	999.41
416.567	919.54
416.776	1099.76
416.984	1146.86
417.192	1136.62
417.4	1107.95
417.608	1103.86
417.817	1153.01
418.025	1263.6
418.233	1296.36
418.441	1361.9
418.649	1441.77
418.857	1466.35
419.065	1564.65
419.273	1476.59
419.481	1615.85
419.689	1687.53
419.897	1869.8
420.105	1832.93
420.313	1865.7
420.521	1896.42
420.729	1861.6
420.937	2123.74
421.145	2205.66
421.353	2164.7
421.561	2162.65
421.769	2295.77
421.977	2480.09
422.185	2394.08
422.393	2650.07
422.601	2697.17
422.809	2631.64
423.017	2764.76
423.224	2832.34
423.432	2881.49
423.64	2979.79
423.848	3215.31
424.056	3123.15
424.263	3360.72
424.471	3465.16
424.679	3387.34
424.887	3631.05
425.094	3700.68
425.302	3606.47
425.51	3876.8
425.718	4024.26
425.925	3872.71
426.133	4237.25
426.341	4306.88
426.548	4681.66
426.756	4650.94
426.964	4718.52
427.171	4980.66
427.379	5095.35
427.586	5066.67
427.794	5287.86
428.001	5607.34
428.209	5896.1
428.417	5719.98
428.624	6156.19
428.832	6145.95
429.039	6170.53
429.247	6137.76
429.454	6657.95
429.662	7006.1
429.869	6498.2
430.076	7165.84
430.284	7071.64
430.491	7165.84
430.699	7495.57
430.906	7761.8
431.114	7661.45
431.321	7956.36
431.528	8120.2
431.736	8736.63
431.943	9095.03
432.15	9029.49
432.358	8808.31
432.565	9578.35
432.772	9289.59
432.979	9779.05
433.187	10008.42
433.394	9934.7
433.601	10827.61
433.808	10874.71
434.016	10803.04
434.223	11163.48
434.43	11732.81
434.637	11601.74
434.844	12224.33
435.052	12441.41
435.259	12390.21
435.466	12533.57
435.673	12382.02
435.88	12957.5
436.087	13913.9
436.294	13854.51
436.501	13555.51
436.708	13612.85
436.915	14296.87
437.122	14976.8
437.329	14806.81
437.537	15167.26
437.743	15648.53
437.95	15501.08
438.157	16385.8
438.364	16932.61
438.571	16746.24
438.778	16746.24
438.985	18439.91
439.192	17817.33
439.399	18261.74
439.606	18030.32
439.813	19011.29
440.02	20123.34
440.227	19734.23
440.433	19549.91
440.64	20391.62
440.847	20139.72
441.054	20700.87
441.261	21843.63
441.467	21448.38
441.674	22120.11
441.881	22720.17
442.088	22601.38
442.294	22433.45
442.501	23140
442.708	23486.11
442.914	24403.6
443.121	25362.04
443.328	24614.54
443.534	26289.77
443.741	25659
443.948	25181.82
444.154	27055.72
444.361	26938.98
444.568	27280.99
444.774	27338.33
444.981	27690.59
445.187	28214.87
445.394	29562.43
445.6	29105.73
445.807	31630.88
446.013	30586.41
446.22	30858.79
446.426	32054.81
446.633	32845.32
446.839	33709.57
447.046	32601.61
447.252	34162.17
447.459	34160.12
447.665	33840.64
447.871	35132.9
448.078	36847.05
448.284	35257.83
448.491	35958.24
448.697	37459.4
448.903	38079.93
449.11	38102.46
449.316	37979.58
449.522	38184.38
449.728	39421.35
449.935	39353.77
450.141	39251.37
450.347	40238.49
450.553	38892.97
450.76	39957.92
450.966	40656.28
451.172	40418.71
451.378	41770.37
451.584	40672.66
451.791	41801.09
451.997	41497.99
452.203	42255.74
452.409	42343.8
452.615	41987.46
452.821	40275.35
453.027	40078.75
453.233	42055.04
453.44	40883.6
453.646	41108.88
453.852	41100.68
454.058	41835.91
454.264	40328.6
454.47	41835.91
454.676	40144.28
454.882	41733.51
455.088	38084.03
455.294	38858.16
455.5	39613.86
455.705	39464.36
455.911	38059.45
456.117	37592.51
456.323	36875.73
456.529	35198.44
456.735	36662.74
456.941	35732.96
457.147	34983.4
457.352	33945.08
457.558	33517.06
457.764	33830.4
457.97	33230.34
458.176	32544.27
458.381	32574.99
458.587	30682.67
458.793	31153.7
458.999	29363.78
459.204	31260.19
459.41	30924.33
459.616	28606.03
459.821	28587.6
460.027	28218.96
460.233	28001.88
460.438	26803.81
460.644	26922.6
460.85	25802.36
461.055	25249.41
461.261	25056.9
461.466	23529.11
461.672	22664.87
461.878	24403.6
462.083	22521.51
462.289	22068.91
462.494	21907.12
462.7	21257.92
462.905	20485.83
463.111	21137.09
463.316	21319.35
463.522	20567.75
463.727	20911.81
463.932	20807.36
464.138	20709.06
464.343	20494.02
464.549	20117.2
464.754	20911.81
464.959	20371.15
465.165	20367.05
465.37	19496.66
465.575	18956
465.781	19990.22
465.986	19904.21
466.191	18947.81
466.397	18863.84
466.602	17944.3
466.807	18642.66
467.012	18941.66
467.218	18452.2
467.423	18212.59
467.628	18269.93
467.833	19252.95
468.038	18456.29
468.244	18149.1
468.449	18802.4
468.654	18007.79
468.859	17846
469.064	17796.85
469.269	17067.77
469.474	17258.23
469.679	17696.5
469.885	17200.89
470.09	17129.21
470.295	17401.59
470.5	16699.14
470.705	17188.6
470.91	16396.04
471.115	16387.85
471.32	16680.71
471.525	16578.31
471.73	16084.75
471.935	16142.09
472.139	15697.68
472.344	15779.6
472.549	15664.91
472.754	15372.05
472.959	14917.4
473.164	14935.84
473.369	14456.61
473.574	15075.1
473.778	14911.26
473.983	14653.22
474.188	14886.68
474.393	14077.74
474.598	14079.79
474.802	14126.89
475.007	13752.11
475.212	13999.91
475.417	13444.91
475.621	13539.12
475.826	13338.42
476.031	13137.72
476.235	12859.2
476.44	13227.83
476.645	13147.96
476.849	13012.79
477.054	12826.43
477.259	12808
477.463	12654.4
477.668	12535.62
477.872	12486.47
478.077	12109.64
478.282	11978.57
478.486	11865.93
478.691	11716.43
478.895	11718.48
479.1	11771.72
479.304	11956.04
479.509	11372.37
479.713	11568.98
479.918	11323.22
480.122	11112.28
480.326	11210.58
480.531	11315.03
480.735	11122.52
480.94	11122.52
481.144	11319.12
481.348	10909.53
481.553	11069.27
481.757	10848.09
481.961	10923.87
482.166	10950.49
482.37	11038.55
482.574	10602.33
482.778	10932.06
482.983	10991.45
483.187	10833.75
483.391	10860.38
483.595	10733.4
483.8	10792.8
484.004	10786.65
484.208	10899.29
484.412	10782.56
484.616	10864.47
484.821	11063.13
485.025	10526.56
485.229	10911.58
485.433	10766.17
485.637	11009.88
485.841	10669.92
486.045	10977.11
486.249	10913.63
486.453	10682.2
486.657	10719.07
486.861	10907.48
487.065	10647.39
487.269	10848.09
487.473	10667.87
487.677	10872.67
487.881	10905.43
488.085	10733.4
488.289	10786.65
488.493	10774.36
488.697	10868.57
488.901	10727.26
489.105	10815.32
489.309	10962.78
489.512	11083.61
489.716	10989.4
489.92	10991.45
490.124	11003.74
490.328	11229.01
490.531	10921.82
490.735	11181.91
490.939	11358.03
491.143	11118.42
491.346	11220.82
491.55	11128.66
491.754	10925.91
491.958	11237.2
492.161	11308.88
492.365	11435.86
492.569	11304.79
492.772	11286.36
492.976	11646.8
493.18	11587.41
493.383	11802.44
493.587	11595.6
493.79	11636.56
493.994	11650.89
494.197	11775.82
494.401	12037.96
494.605	11913.03
494.808	12285.76
495.012	12306.24
495.215	12150.6
495.419	12220.23
495.622	12265.28
495.825	12527.42
496.029	12588.86
496.232	12996.41
496.436	12601.15
496.639	13100.86
496.843	12945.21
497.046	13014.84
497.249	13336.37
497.453	13381.43
497.656	13596.46
497.859	13432.63
498.063	13647.66
498.266	14001.96
498.469	13938.48
498.673	14139.18
498.876	14538.53
499.079	14606.11
499.282	14446.37
499.485	14614.3
499.689	14970.65
499.892	14884.64
500.095	14993.18
500.298	15513.36
500.501	15439.64
500.705	15826.7
500.908	16162.57
501.111	15992.59
501.314	16406.28
501.517	16428.81
501.72	16525.06
501.923	16402.18
502.126	16969.47
502.329	16895.74
502.532	17168.12
502.735	17356.54
502.938	17557.24
503.141	17704.69
503.344	18269.93
503.547	17983.21
503.75	18247.4
503.953	18478.82
504.156	18900.7
504.359	18908.9
504.562	18906.85
504.765	19291.87
504.968	19570.39
505.17	19629.78
505.373	19812.05
505.576	20354.76
505.779	20500.17
505.982	20793.03
506.185	20967.1
506.387	20987.58
506.59	20932.29
506.793	21431.99
506.996	21407.42
507.198	22034.1
507.401	21780.15
507.604	22550.18
507.807	22398.63
508.009	22787.75
508.212	22918.82
508.415	23133.85
508.617	23326.36
508.82	23619.22
509.022	23205.53
509.225	24305.29
509.428	23905.94
509.63	24587.91
509.833	24495.75
510.035	25067.14
510.238	25022.08
510.44	24983.17
510.643	25632.38
510.845	25867.89
511.048	25687.67
511.25	26261.1
511.453	26437.23
511.655	27123.3
511.858	26873.45
512.06	27473.5
512.262	27844.18
512.465	27367.01
512.667	28048.98
512.87	28315.22
513.072	28048.98
513.274	28689.99
513.477	29556.28
513.679	29529.66
513.881	29695.55
514.084	29926.97
514.286	29963.83
514.488	30277.17
514.69	31067.69
514.893	30955.05
515.095	31458.85
515.297	31249.96
515.499	31299.11
515.701	31825.43
515.904	32097.81
516.106	32431.63
516.308	33023.5
516.51	33029.64
516.712	33121.8
516.914	33830.4
517.116	34096.63
517.318	34055.67
517.52	34510.32
517.722	34289.14
517.925	35010.03
518.127	35145.19
518.329	35249.64
518.531	35053.03
518.733	36177.37
518.935	36683.22
519.136	36330.97
519.338	36945.36
519.54	37111.24
519.742	37375.43
519.944	37340.61
520.146	38088.12
520.348	38346.17
520.55	38411.7
520.752	38395.32
520.954	39067.05
521.155	38862.25
521.357	39613.86
521.559	39886.24
521.761	40422.81
521.963	40045.98
522.164	40080.8
522.366	40510.87
522.568	40859.02
522.77	41022.86
522.971	41565.57
523.173	41696.64
523.375	41541
523.576	42085.76
523.778	41993.6
523.98	42614.13
524.181	42743.16
524.383	42794.35
524.584	43425.13
524.786	43285.87
524.988	43308.4
525.189	43859.3
525.391	44172.64
525.592	44062.05
525.794	44223.84
525.995	44631.38
526.197	44430.68
526.398	44342.62
526.6	45000.02
526.801	45178.19
527.003	45221.2
527.204	45286.73
527.406	45618.5
527.607	45659.46
527.808	45585.74
528.01	45126.99
528.211	45626.7
528.412	46691.64
528.614	46009.67
528.815	46308.67
529.016	46814.52
529.218	46193.98
529.419	46423.36
529.62	46773.56
529.822	46914.87
530.023	46830.9
530.224	46888.24
530.425	46755.13
530.626	46431.55
530.828	46447.93
531.029	47590.7
531.23	46929.2
531.431	46912.82
531.632	47336.75
531.833	47625.51
532.035	47047.99
532.236	47359.28
532.437	47504.68
532.638	47588.65
532.839	47664.42
533.04	47887.65
533.241	47209.78
533.442	47725.86
533.643	47338.8
533.844	47615.27
534.045	47707.43
534.246	47631.66
534.447	48244
534.648	47689
534.849	47799.59
535.05	47549.74
535.251	48084.26
535.451	47531.31
535.652	48137.51
535.853	48133.41
536.054	48221.47
536.255	47938.85
536.456	47756.58
536.657	48026.92
536.857	47928.61
537.058	47797.54
537.259	48233.76
537.46	48055.59
537.66	47611.18
537.861	47899.94
538.062	48033.06
538.263	47756.58
538.463	47920.42
538.664	48108.83
538.865	48100.64
539.065	48352.54
539.266	47359.28
539.466	47858.98
539.667	47269.17
539.868	48119.07
540.068	47645.99
540.269	47476.01
540.469	47940.9
540.67	47430.96
540.87	47500.59
541.071	47709.48
541.271	48121.12
541.472	47715.62
541.672	47211.82
541.873	47119.67
542.073	47111.47
542.274	47922.47
542.474	47643.94
542.675	47170.86
542.875	47813.93
543.075	47650.09
543.276	47162.67
543.476	47791.4
543.676	47406.38
543.877	47473.96
544.077	47922.47
544.277	47414.57
544.478	47508.78
544.678	47398.19
544.878	47465.77
545.078	47523.11
545.279	47172.91
545.479	47052.08
545.679	47652.14
545.879	47533.35
546.079	47506.73
546.28	47027.51
546.48	46998.83
546.68	47461.68
546.88	47299.89
547.08	47277.36
547.28	47043.89
547.48	46941.49
547.68	46968.12
547.88	46841.14
548.081	47390
548.281	47682.86
548.481	47263.02
548.681	47191.34
548.881	47392.04
549.081	47191.34
549.28	47103.28
549.48	47250.74
549.68	46755.13
549.88	47670.57
550.08	46906.68
550.28	47004.98
550.48	47029.55
550.68	47226.16
550.88	47111.47
551.08	46955.83
551.279	47455.53
551.479	47064.37
551.679	47041.84
551.879	46697.78
552.079	47070.51
552.278	46925.11
552.478	46927.16
552.678	46767.41
552.878	47516.97
553.077	46853.43
553.277	46409.02
553.477	47306.03
553.676	46476.6
553.876	46615.86
554.076	46529.85
554.275	46376.25
554.475	46097.73
554.674	46636.34
554.874	46800.18
555.074	46384.44
555.273	46544.19
555.473	46849.33
555.672	46036.29
555.872	46290.24
556.071	46435.64
556.271	46519.61
556.47	46236.99
556.67	46181.7
556.869	46052.67
557.068	46490.94
557.268	46142.78
557.467	45768.01
557.667	45878.6
557.866	46241.09
558.065	45882.69
558.265	45706.57
558.464	45962.56
558.663	46042.43
558.863	45344.08
559.062	46011.71
559.261	45600.07
559.461	46003.52
559.66	45147.47
559.859	45555.02
560.058	45376.84
560.258	45413.71
560.457	45618.5
560.656	45696.33
560.855	45208.91
561.054	45464.91
561.253	45229.39
561.453	45290.83
561.652	45360.46
561.851	45253.97
562.05	44907.86
562.249	44447.07
562.448	45098.32
562.647	44504.41
562.846	44997.97
563.045	45053.26
563.244	44862.8
563.443	45094.22
563.642	44438.87
563.841	44440.92
564.04	44016.99
564.239	44774.74
564.438	43685.22
564.637	44277.08
564.836	44088.67
565.035	43855.2
565.234	44205.41
565.432	43574.63
565.631	43865.44
565.83	43801.96
566.029	43898.21
566.228	43283.82
566.427	43523.43
566.625	43869.54
566.824	43124.08
567.023	43742.56
567.222	42884.47
567.42	43259.24
567.619	42950
567.818	42538.36
568.016	43097.45
568.215	42847.6
568.414	42970.48
568.612	43228.52
568.811	42689.91
569.01	42945.9
569.208	42007.93
569.407	42581.37
569.605	41663.88
569.804	42696.05
570.002	42239.36
570.201	42102.14
570.4	42065.28
570.598	41672.07
570.797	41663.88
570.995	42100.09
571.193	41401.74
571.392	41708.93
571.59	41663.88
571.789	41373.06
571.987	41235.85
572.186	41321.87
572.384	40775.06
572.582	41270.67
572.781	41153.93
572.979	40756.63
573.177	40721.81
573.376	40799.63
573.574	40697.24
573.772	40547.73
573.971	40244.63
574.169	40148.38
574.367	39945.63
574.565	40734.1
574.763	39951.77
574.962	40019.36
575.16	39482.79
575.358	40385.94
575.556	39280.04
575.754	40062.36
575.952	38927.79
576.151	40101.28
576.349	39118.25
576.547	39452.07
576.745	39380.39
576.943	39185.83
577.141	39157.16
577.339	39239.08
577.537	39015.85
577.735	39292.33
577.933	38774.19
578.131	38944.17
578.329	38618.55
578.527	38303.16
578.725	38180.28
578.923	38604.21
579.121	38311.35
579.319	38217.14
579.516	38127.03
579.714	38124.99
579.912	37952.96
580.11	37555.65
580.308	37993.92
580.506	37823.93
580.704	37242.31
580.901	37324.23
581.099	37602.75
581.297	37236.17
581.495	36881.87
581.692	37498.31
581.89	37135.82
582.088	37275.08
582.285	36863.44
582.483	37146.06
582.681	36820.43
582.878	36629.97
583.076	36187.61
583.274	36773.33
583.471	35849.69
583.669	36199.9
583.866	36070.87
584.064	36513.23
584.262	35775.97
584.459	35775.97
584.657	35855.84
584.854	35962.33
585.052	35034.6
585.249	35802.59
585.447	35642.85
585.644	35370.47
585.841	35388.9
586.039	35444.2
586.236	35288.55
586.434	34838
586.631	34786.8
586.828	34950.63
587.026	34557.42
587.223	34614.77
587.42	34557.42
587.618	34508.27
587.815	34248.18
588.012	34409.97
588.21	34172.41
588.407	34493.94
588.604	33754.62
588.801	33814.01
588.999	33584.64
589.196	33875.45
589.393	33469.95
589.59	33326.6
589.787	33488.39
589.984	33648.13
590.182	33125.89
590.379	33263.11
590.576	33039.88
590.773	32900.62
590.97	32808.46
591.167	32976.39
591.364	32480.78
591.561	32884.23
591.758	32579.09
591.955	32523.79
592.152	32521.74
592.349	32302.61
592.546	32067.09
592.743	32482.83
592.94	31942.17
593.137	32036.38
593.334	31850.01
593.531	31254.05
593.727	31766.04
593.924	31589.92
594.121	31168.04
594.318	31610.4
594.515	31342.11
594.712	31149.6
594.908	31399.46
595.105	31020.58
595.302	30813.74
595.499	30932.52
595.696	30819.88
595.892	30596.65
596.089	30957.1
596.286	30680.62
596.482	30588.46
596.679	30428.72
596.876	30400.05
597.072	30029.37
597.269	30273.07
597.466	29976.12
597.662	29955.64
597.859	30137.91
598.055	29892.15
598.252	29652.54
598.448	29881.91
598.645	29531.71
598.841	29384.26
599.038	29617.72
599.234	29521.47
599.431	29013.57
599.627	28960.33
599.824	29085.25
600.02	29032
600.217	28896.84
600.413	28628.56
600.609	28683.85
600.806	28718.67
601.002	28733
601.198	28477.01
601.395	28296.78
601.591	28307.02
601.787	28298.83
601.984	28378.7
602.18	28227.15
602.376	28204.63
602.572	27770.46
602.769	28175.95
602.965	27745.88
603.161	28075.6
603.357	27539.04
603.553	27565.66
603.75	27469.4
603.946	27102.82
604.142	27367.01
604.338	26863.21
604.534	26834.53
604.73	26963.56
604.926	27047.52
605.122	27213.41
605.318	26703.46
605.514	26654.31
605.71	26474.09
605.906	26482.28
606.102	26494.57
606.298	26324.59
606.494	26633.83
606.69	26041.97
606.886	26523.24
607.082	26216.05
607.278	26343.02
607.474	25439.87
607.67	26334.83
607.866	25757.3
608.062	26295.92
608.257	25550.46
608.453	25917.04
608.649	25804.41
608.845	25503.35
609.041	25284.22
609.236	25618.04
609.432	25286.27
609.628	25622.14
609.824	25501.31
610.019	25323.13
610.215	25263.74
610.411	25687.67
610.606	25147.01
610.802	25312.89
610.998	25200.26
611.193	25235.07
611.389	25239.17
611.584	25005.7
611.78	24753.8
611.976	24655.5
612.171	24970.88
612.367	24886.92
612.562	24532.62
612.758	24327.82
612.953	24516.23
613.149	24573.58
613.344	24432.27
613.539	24639.11
613.735	24481.42
613.93	24372.88
614.126	24379.02
614.321	24610.44
614.517	24399.5
614.712	24520.33
614.907	23971.47
615.103	24424.08
615.298	23834.26
615.493	24282.77
615.688	23809.68
615.884	24350.35
616.079	23778.97
616.274	23965.33
616.47	23985.81
616.665	23867.03
616.86	23479.96
617.055	23537.3
617.25	23424.67
617.445	23838.36
617.641	23621.27
617.836	23695
618.031	23031.46
618.226	23342.75
618.421	23348.89
618.616	23203.49
618.811	22722.21
619.006	23262.88
619.201	22761.12
619.396	23049.89
619.591	22617.77
619.786	22630.05
619.981	22306.48
620.176	22668.97
620.371	22412.97
620.566	22507.18
620.761	22103.73
620.956	21915.31
621.151	21667.51
621.346	22073.01
621.541	21667.51
621.735	22036.14
621.93	21313.21
622.125	21307.07
622.32	21329.59
622.515	21388.99
622.709	21292.73
622.904	21173.95
623.099	20819.65
623.294	20965.06
623.488	20829.89
623.683	20823.75
623.878	20551.37
624.072	20328.14
624.267	20244.17
624.462	20186.83
624.656	20313.8
624.851	20203.21
625.046	19799.76
625.24	19687.12
625.435	19695.32
625.629	19582.68
625.824	19492.57
626.018	19539.67
626.213	19148.51
626.407	19420.89
626.602	18876.13
626.796	18861.79
626.991	19033.82
627.185	18923.23
627.38	18753.25
627.574	18433.77
627.768	18872.03
627.963	18431.72
628.157	18294.5
628.352	18613.99
628.546	17929.97
628.74	18134.76
628.935	18003.69
629.129	18247.4
629.323	17977.07
629.517	17747.7
629.712	17475.32
629.906	17729.27
630.1	17061.63
630.294	17389.3
630.489	17229.56
630.683	17276.66
630.877	16774.91
631.071	16871.17
631.265	17168.12
631.459	16680.71
631.653	16613.12
631.848	16822.02
632.042	16492.29
632.236	16508.68
632.43	16375.56
632.624	16506.63
632.818	15894.29
633.012	16101.13
633.206	16078.6
633.4	16017.16
633.594	15763.22
633.788	15976.2
633.982	15707.92
634.176	15640.34
634.369	15548.18
634.563	15265.56
634.757	15349.53
634.951	15470.36
635.145	15310.61
635.339	15150.87
635.533	15193.88
635.726	15189.78
635.92	14796.57
636.114	14876.44
636.308	14581.54
636.501	14997.28
636.695	14815.01
636.889	14419.75
637.083	14534.43
637.276	14536.48
637.47	14364.45
637.664	14620.45
637.857	14419.75
638.051	14145.32
638.244	14192.42
638.438	14249.77
638.632	14096.17
638.825	13809.45
639.019	13596.46
639.212	13555.51
639.406	13885.23
639.599	13698.86
639.793	13674.29
639.986	13330.23
640.18	13201.21
640.373	13301.56
640.567	13193.01
640.76	13207.35
640.954	13211.45
641.147	13027.13
641.34	13035.32
641.534	12775.23
641.727	12988.22
641.92	12627.78
642.114	12668.73
642.307	12748.61
642.5	12543.81
642.694	12330.82
642.887	12134.21
643.08	12390.21
643.273	12312.39
643.467	12330.82
643.66	12126.02
643.853	12300.1
644.046	11796.3
644.239	12162.89
644.432	11919.18
644.626	11896.65
644.819	11769.68
645.012	11630.41
645.205	11773.77
645.398	11648.85
645.591	11521.87
645.784	11530.06
645.977	11347.79
646.17	11323.22
646.363	11386.71
646.556	11259.73
646.749	11294.55
646.942	11233.11
647.135	11179.86
647.328	10905.43
647.521	10970.97
647.714	10811.23
647.907	10751.84
648.099	10930.01
648.292	10774.36
648.485	10667.87
648.678	10598.24
648.871	10487.65
649.064	10405.73
649.256	10491.74
649.449	10409.83
649.642	10278.76
649.835	10147.69
650.027	10280.8
650.22	10082.15
650.413	10182.5
650.605	9873.26
650.798	9875.31
650.991	9824.11
651.183	9887.59
651.376	9824.11
651.568	9959.27
651.761	9834.35
651.954	9799.53
652.146	9580.4
652.339	9740.14
652.531	9658.22
652.724	9523.05
652.916	9324.4
653.109	9357.17
653.301	9508.72
653.494	9482.1
653.686	9205.62
653.879	9371.5
654.071	9150.32
654.263	9135.99
654.456	9168.76
654.648	9244.53
654.84	8908.66
655.033	8943.48
655.225	8802.17
655.417	8941.43
655.61	8892.28
655.802	8939.38
655.994	8613.76
656.186	8650.62
656.379	8624
656.571	8705.92
656.763	8583.04
656.955	8415.1
657.148	8562.56
657.34	8540.03
657.532	8187.78
657.724	8284.03
657.916	8347.52
658.108	8281.99
658.3	8228.74
658.492	8204.16
658.684	8001.41
658.876	8097.67
659.068	8179.59
659.26	7964.55
659.452	8046.47
659.644	8152.96
659.836	7892.87
660.028	7974.79
660.22	7825.29
660.412	7810.95
660.604	7544.72
660.796	7640.97
660.988	7735.18
661.18	7468.94
661.372	7577.48
661.563	7485.33
661.755	7524.24
661.947	7450.51
662.139	7485.33
662.331	7278.48
662.522	7432.08
662.714	7473.04
662.906	7059.35
663.097	7206.8
663.289	7047.06
663.481	7192.47
663.673	7145.36
663.864	6973.33
664.056	7051.16
664.247	7133.08
664.439	7016.34
664.631	7051.16
664.822	6987.67
665.014	6911.89
665.205	6813.59
665.397	6784.92
665.588	6932.37
665.78	6662.04
665.971	6590.36
666.163	6651.8
666.354	6670.23
666.546	6756.25
666.737	6604.7
666.929	6371.23
667.12	6461.34
667.311	6537.12
667.503	6412.19
667.694	6500.25
667.885	6303.65
668.077	6328.22
668.268	6252.45
668.459	6418.33
668.651	6250.4
668.842	6231.97
669.033	6072.23
669.224	6072.23
669.416	6156.19
669.607	6172.58
669.798	5959.59
669.989	6168.48
670.18	5998.5
670.371	6039.46
670.563	6014.88
670.754	6037.41
670.945	5828.52
671.136	5900.2
671.327	5877.67
671.518	5828.52
671.709	5867.43
671.9	5914.53
672.091	6031.27
672.282	5844.9
672.473	5801.9
672.664	5869.48
672.855	5711.78
673.046	5658.54
673.237	5662.63
673.428	5638.06
673.619	5613.48
673.809	5717.93
674	5705.64
674.191	5662.63
674.382	5658.54
674.573	5509.04
674.764	5535.66
674.954	5402.54
675.145	5490.6
675.336	5337.01
675.527	5334.96
675.717	5398.45
675.908	5601.19
676.099	5353.39
676.289	5418.93
676.48	5402.54
676.671	5400.49
676.861	5238.7
677.052	5179.31
677.243	5298.1
677.433	5339.05
677.624	5273.52
677.814	5156.79
678.005	5033.91
678.195	5183.41
678.386	5081.01
678.576	5050.29
678.767	5115.83
678.957	5197.74
679.148	5158.83
679.338	4984.76
679.529	5105.59
679.719	5009.33
679.909	5027.76
680.1	4919.22
680.29	5042.1
680.481	4888.5
680.671	4931.51
680.861	5005.24
681.052	4888.5
681.242	4911.03
681.432	4945.84
681.622	4724.66
681.813	4894.65
682.003	4923.32
682.193	4896.69
682.383	4908.98
682.573	4691.9
682.764	4818.87
682.954	4798.39
683.144	4695.99
683.334	4812.73
683.524	4773.82
683.714	4769.72
683.904	4650.94
684.094	4739
684.284	4802.49
684.474	4657.08
684.664	4659.13
684.854	4552.63
685.044	4597.69
685.234	4691.9
685.424	4667.32
685.614	4542.39
685.804	4646.84
685.994	4673.46
686.184	4589.5
686.374	4460.48
686.564	4444.09
686.753	4513.72
686.943	4417.47
687.133	4503.48
687.323	4489.15
687.513	4487.1
687.702	4376.51
687.892	4280.25
688.082	4364.22
688.272	4425.66
688.461	4360.13
688.651	4327.36
688.841	4251.58
689.03	4372.41
689.22	4140.99
689.41	4278.21
689.599	4239.3
689.789	4157.38
689.979	4147.14
690.168	4147.14
690.358	4163.52
690.547	4114.37
690.737	4087.75
690.926	4116.42
691.116	4102.08
691.305	4184
691.495	4050.88
691.684	3985.35
691.874	4079.55
692.063	4001.73
692.252	3901.38
692.442	3895.24
692.631	3987.4
692.82	3954.63
693.01	3860.42
693.199	3827.65
693.388	3768.26
693.578	3909.57
693.767	3794.89
693.956	3925.96
694.146	3774.41
694.335	3745.73
694.524	3866.56
694.713	3796.93
694.902	3733.45
695.092	3841.99
695.281	3715.02
695.47	3807.17
695.659	3684.3
695.848	3774.41
696.037	3536.84
696.226	3585.99
696.415	3655.62
696.604	3780.55
696.793	3751.88
696.982	3590.09
697.171	3577.8
697.36	3608.52
697.549	3717.06
697.738	3532.75
697.927	3604.42
698.116	3551.18
698.305	3569.61
698.494	3549.13
698.683	3583.95
698.872	3622.86
699.061	3489.74
699.25	3667.91
699.438	3592.14
699.627	3518.41
699.816	3655.62
700.005	3487.69
700.193	3504.07
700.382	3588.04
700.571	3452.88
700.76	3461.07
700.948	3491.79
701.137	3608.52
701.326	3663.82
701.514	3362.76
701.703	3483.59
701.892	3430.35
702.08	3481.55
702.269	3434.44
702.457	3426.25
702.646	3528.65
702.834	3235.79
703.023	3411.92
703.212	3409.87
703.4	3282.89
703.589	3432.4
703.777	3459.02
703.965	3393.48
704.154	3477.45
704.342	3360.72
704.531	3403.72
704.719	3305.42
704.907	3434.44
705.096	3241.93
705.284	3184.59
705.472	3418.06
705.661	3190.74
705.849	3286.99
706.037	3284.94
706.226	3166.16
706.414	3272.65
706.602	3203.02
706.79	3123.15
706.979	3086.29
707.167	3174.35
707.355	3196.88
707.543	3295.18
707.731	3342.28
707.919	3200.98
708.107	3190.74
708.296	3188.69
708.484	3033.04
708.672	3141.58
708.86	3100.62
709.048	3135.44
709.236	3139.54
709.424	3141.58
709.612	3043.28
709.8	3192.78
709.988	3125.2
710.176	3155.92
710.364	3018.71
710.551	3037.14
710.739	3049.43
710.927	3090.38
711.115	3217.36
711.303	3131.34
711.491	3139.54
711.679	3041.23
711.866	3141.58
712.054	3110.86
712.242	3065.81
712.43	3065.81
712.617	3176.4
712.805	3192.78
712.993	3055.57
713.181	3051.47
713.368	3006.42
713.556	3006.42
713.744	2875.35
713.931	3057.62
714.119	2979.79
714.306	2983.89
714.494	2959.31
714.682	2910.16
714.869	2951.12
715.057	3037.14
715.244	2992.08
715.432	3026.9
715.619	2797.53
715.807	2887.64
715.994	2895.83
716.182	2918.36
716.369	2953.17
716.556	3024.85
716.744	2836.44
716.931	2975.7
717.119	2926.55
717.306	2961.36
717.493	2908.12
717.681	2877.4
717.868	2934.74
718.055	2987.99
718.242	2840.53
718.43	2885.59
718.617	2785.24
718.804	2934.74
718.991	2809.81
719.179	2906.07
719.366	2930.64
719.553	2879.44
719.74	2861.01
719.927	2904.02
720.114	2908.12
720.301	2797.53
720.488	2873.3
720.676	2725.85
720.863	2672.6
721.05	2848.72
721.237	2811.86
721.424	2885.59
721.611	2852.82
721.798	2684.89
721.985	2770.9
722.172	2858.96
722.358	2795.48
722.545	2813.91
722.732	2824.15
722.919	2783.19
723.106	2754.52
723.293	2779.09
723.48	2711.51
723.667	2701.27
723.853	2797.53
724.04	2633.69
724.227	2729.94
724.414	2815.96
724.6	2672.6
724.787	2815.96
724.974	2734.04
725.161	2631.64
725.347	2762.71
725.534	2697.17
725.72	2820.05
725.907	2736.09
726.094	2693.08
726.28	2654.17
726.467	2623.45
726.653	2680.79
726.84	2828.24
727.027	2684.89
727.213	2535.39
727.4	2605.02
727.586	2766.81
727.773	2590.68
727.959	2635.74
728.145	2693.08
728.332	2625.5
728.518	2664.41
728.705	2674.65
728.891	2594.78
729.077	2707.41
729.264	2693.08
729.45	2623.45
729.636	2648.02
729.823	2607.06
730.009	2588.63
730.195	2605.02
730.382	2705.37
730.568	2523.1
730.754	2787.29
730.94	2508.76
731.126	2486.23
731.313	2668.5
731.499	2590.68
731.685	2533.34
731.871	2578.39
732.057	2688.98
732.243	2600.92
732.429	2582.49
732.615	2576.34
732.801	2633.69
732.987	2533.34
733.173	2525.15
733.359	2525.15
733.545	2500.57
733.731	2607.06
733.917	2588.63
734.103	2484.19
734.289	2516.95
734.475	2445.27
734.661	2627.54
734.847	2516.95
735.033	2533.34
735.219	2533.34
735.404	2559.96
735.59	2361.31
735.776	2437.08
735.962	2559.96
736.148	2519
736.333	2451.42
736.519	2445.27
736.705	2527.19
736.89	2340.83
737.076	2519
737.262	2426.84
737.447	2410.46
737.633	2459.61
737.819	2357.21
738.004	2453.47
738.19	2371.55
738.375	2279.39
738.561	2371.55
738.747	2437.08
738.932	2349.02
739.118	2392.03
739.303	2437.08
739.489	2414.56
739.674	2363.36
739.859	2408.41
740.045	2437.08
740.23	2369.5
740.416	2242.53
740.601	2306.01
740.786	2346.97
740.972	2250.72
741.157	2353.12
741.342	2197.47
741.528	2359.26
741.713	2207.71
741.898	2254.81
742.084	2334.68
742.269	2260.96
742.454	2336.73
742.639	2273.25
742.824	2064.35
743.01	2373.6
743.195	2295.77
743.38	2117.6
743.565	2168.8
743.75	2187.23
743.935	2158.56
744.12	2174.94
744.305	2193.37
744.49	2043.87
744.675	2041.82
744.86	2041.82
745.045	2242.53
745.23	2062.3
745.415	2140.13
745.6	2170.85
745.785	1964
745.97	2095.07
746.155	2068.45
746.34	1925.09
746.525	2047.97
746.71	2093.02
746.895	1955.81
747.079	1927.14
747.264	1904.61
747.449	1980.39
747.634	1943.52
747.819	1970.15
748.003	1951.71
748.188	1863.65
748.373	1877.99
748.557	1896.42
748.742	1839.08
748.927	1859.56
749.111	1845.22
749.296	1863.65
749.481	1984.48
749.665	1804.26
749.85	1892.32
750.034	1732.58
750.219	1683.43
750.404	1796.07
750.588	1744.87
750.773	1728.49
750.957	1738.73
751.141	1732.58
751.326	1728.49
751.51	1646.57
751.695	1773.54
751.879	1691.62
752.064	1640.42
752.248	1587.18
752.432	1695.72
752.617	1626.09
752.801	1546.22
752.985	1533.93
753.17	1613.8
753.354	1714.15
753.538	1576.94
753.722	1617.9
753.907	1554.41
754.091	1499.11
754.275	1542.12
754.459	1544.17
754.643	1427.43
754.828	1486.83
755.012	1550.31
755.196	1443.82
755.38	1574.89
755.564	1390.57
755.748	1419.24
755.932	1535.98
756.116	1476.59
756.3	1366
756.484	1421.29
756.668	1437.67
756.852	1249.26
757.036	1421.29
757.22	1388.52
757.404	1279.98
757.588	1337.32
757.772	1419.24
757.956	1263.6
758.14	1427.43
758.323	1247.21
758.507	1243.12
758.691	1243.12
758.875	1249.26
759.059	1337.32
759.242	1288.17
759.426	1249.26
759.61	1308.65
759.794	1214.45
759.977	1304.56
760.161	1366
760.345	1214.45
760.528	1267.69
760.712	1157.1
760.895	1265.64
761.079	1208.3
761.263	1062.9
761.446	1122.29
761.63	1218.54
761.813	1118.19
761.997	1210.35
762.18	1140.72
762.364	1087.47
762.547	1077.23
762.731	1050.61
762.914	1128.43
763.098	1124.33
763.281	1142.77
763.464	1136.62
763.648	1066.99
763.831	1083.38
764.015	1056.75
764.198	1105.9
764.381	1015.79
764.564	1030.13
764.748	1112.05
764.931	1066.99
765.114	1118.19
765.297	1189.87
765.481	1032.18
765.664	1062.9
765.847	1034.22
766.03	1140.72
766.213	1085.42
766.397	997.36
766.58	1021.94
766.763	1003.5
766.946	985.07
767.129	1013.74
767.312	995.31
767.495	962.55
767.678	911.35
767.861	993.26
768.044	864.24
768.227	874.48
768.41	899.06
768.593	1052.66
768.776	968.69
768.959	919.54
769.142	1093.62
769.324	1015.79
769.507	890.87
769.69	970.74
769.873	839.67
770.056	962.55
770.239	868.34
770.421	1034.22
770.604	929.78
770.787	946.16
770.97	894.96
771.152	929.78
771.335	892.91
771.518	743.41
771.7	937.97
771.883	894.96
772.066	903.15
772.248	872.43
772.431	864.24
772.613	866.29
772.796	788.47
772.978	753.65
773.161	888.82
773.343	722.93
773.526	776.18
773.708	780.28
773.891	823.28
774.073	784.37
774.256	804.85
774.438	894.96
774.621	720.88
774.803	813.04
774.985	790.52
775.168	790.52
775.35	796.66
775.532	727.03
775.715	831.48
775.897	837.62
776.079	776.18
776.261	731.12
776.444	788.47
776.626	720.88
776.808	757.75
776.99	749.56
777.173	692.21
777.355	684.02
777.537	772.08
777.719	706.55
777.901	679.93
778.083	649.21
778.265	606.2
778.447	729.08
778.629	636.92
778.811	653.3
778.993	620.53
779.175	673.78
779.357	593.91
779.539	540.66
779.721	522.23
779.903	616.44
780.085	624.63
780.267	571.38
780.449	620.53
780.631	780.28
780.812	624.63
780.994	610.29
781.176	618.49
781.358	575.48
781.54	624.63
781.721	616.44
781.903	622.58
782.085	479.22
782.267	555
782.448	534.52
782.63	509.94
782.812	567.29
782.993	528.38
783.175	557.05
783.357	583.67
783.538	503.8
783.72	518.14
783.901	516.09
784.083	561.14
784.264	544.76
784.446	583.67
784.627	460.79
784.809	444.41
784.99	456.7
785.172	542.71
785.353	514.04
785.535	503.8
785.716	479.22
785.897	538.62
786.079	477.18
786.26	503.8
786.441	444.41
786.623	419.83
786.804	372.73
786.985	432.12
787.167	471.03
787.348	372.73
787.529	360.44
787.71	425.98
787.891	450.55
788.073	391.16
788.254	327.67
788.435	520.18
788.616	403.45
788.797	387.07
788.978	444.41
789.159	380.92
789.34	387.07
789.522	337.91
789.703	329.72
789.884	391.16
790.065	364.54
790.246	407.55
790.427	444.41
790.607	339.96
790.788	460.79
790.969	313.34
791.15	356.35
791.331	266.24
791.512	333.82
791.693	292.86
791.874	342.01
792.054	415.74
792.235	415.74
792.416	428.03
792.597	391.16
792.778	362.49
792.958	325.63
793.139	370.68
793.32	389.11
793.5	333.82
793.681	339.96
793.862	321.53
794.042	352.25
794.223	296.96
794.404	337.91
794.584	282.62
794.765	331.77
794.945	364.54
795.126	282.62
795.306	337.91
795.487	296.96
795.667	299
795.848	305.15
796.028	284.67
796.209	307.2
796.389	315.39
796.57	321.53
796.75	245.76
796.93	356.35
797.111	241.66
797.291	284.67
797.471	282.62
797.652	286.72
797.832	299
798.012	264.19
798.192	268.28
798.373	272.38
798.553	292.86
798.733	309.24
798.913	260.09
799.093	272.38
799.274	274.43
799.454	239.61
799.634	292.86
799.814	221.18
799.994	239.61
800.174	202.75
800.354	217.08
800.534	190.46
800.714	272.38
800.894	176.13
801.074	223.23
801.254	192.51
801.434	305.15
801.614	241.66
801.794	231.42
801.974	755.7
802.154	256
802.334	272.38
802.514	159.74
802.693	233.47
802.873	135.17
803.053	215.04
803.233	239.61
803.413	256
803.592	249.85
803.772	219.13
803.952	280.57
804.131	178.17
804.311	186.37
804.491	194.56
804.67	256
804.85	241.66
805.03	208.89
805.209	247.8
805.389	131.07
805.568	249.85
805.748	131.07
805.928	225.28
806.107	245.76
806.287	180.22
806.466	253.95
806.646	219.13
806.825	219.13
807.004	188.41
807.184	192.51
807.363	251.9
807.543	249.85
807.722	206.84
807.901	210.94
808.081	266.24
808.26	151.55
808.439	180.22
808.619	241.66
808.798	126.97
808.977	221.18
809.156	256
809.336	217.08
809.515	249.85
809.694	141.31
809.873	188.41
810.052	241.66
810.231	133.12
810.411	153.6
810.59	219.13
810.769	206.84
810.948	159.74
811.127	178.17
811.306	225.28
811.485	174.08
811.664	221.18
811.843	159.74
812.022	141.31
812.201	157.69
812.38	141.31
812.559	165.89
812.737	198.65
812.916	151.55
813.095	143.36
813.274	200.7
813.453	165.89
813.632	208.89
813.811	198.65
813.989	159.74
814.168	190.46
814.347	135.17
814.526	165.89
814.704	172.03
814.883	94.21
815.062	102.4
815.24	145.41
815.419	94.21
815.598	159.74
815.776	92.16
815.955	100.35
816.133	135.17
816.312	161.79
816.49	149.5
816.669	153.6
816.847	116.73
817.026	174.08
817.204	145.41
817.383	147.45
817.561	79.87
817.74	165.89
817.918	149.5
818.097	176.13
818.275	145.41
818.453	159.74
818.632	112.64
818.81	151.55
818.988	118.78
819.167	86.01
819.345	120.83
819.523	104.45
819.701	100.35
819.879	184.32
820.058	126.97
820.236	61.44
820.414	88.06
820.592	100.35
820.77	108.54
820.948	126.97
821.127	165.89
821.305	79.87
821.483	88.06
821.661	169.98
821.839	100.35
822.017	94.21
822.195	83.97
822.373	120.83
822.551	104.45
822.729	147.45
822.907	69.63
823.085	92.16
823.262	83.97
823.44	108.54
823.618	51.2
823.796	124.93
823.974	86.01
824.152	92.16
824.329	141.31
824.507	124.93
824.685	141.31
824.863	155.65
825.04	143.36
825.218	102.4
825.396	43.01
825.574	135.17
825.751	100.35
825.929	59.39
826.107	32.77
826.284	100.35
826.462	106.49
826.639	159.74
826.817	73.73
826.994	83.97
827.172	157.69
827.349	120.83
827.527	153.6
827.704	75.77
827.882	200.7
828.059	122.88
828.237	137.21
828.414	61.44
828.591	4.1
828.769	92.16
828.946	69.63
829.124	186.37
829.301	92.16
829.478	133.12
829.655	4.1
829.833	96.25
830.01	26.62
830.187	161.79
830.364	112.64
830.542	36.86
830.719	100.35
830.896	133.12
831.073	71.68
831.25	129.02
831.427	120.83
831.604	83.97
831.782	14.34
831.959	86.01
832.136	100.35
832.313	53.25
832.49	102.4
832.667	26.62
832.844	73.73
833.021	116.73
833.198	133.12
833.374	92.16
833.551	28.67
833.728	71.68
833.905	96.25
834.082	92.16
834.259	10.24
834.436	59.39
834.612	88.06
834.789	16.38
834.966	45.06
835.143	8.19
835.319	-6.14
835.496	126.97
835.673	86.01
835.85	108.54
836.026	18.43
836.203	10.24
836.38	28.67
836.556	55.3
836.733	71.68
836.909	69.63
837.086	59.39
837.262	53.25
837.439	92.16
837.616	34.82
837.792	116.73
837.968	67.58
838.145	34.82
838.321	75.77
838.498	124.93
838.674	-12.29
838.851	69.63
839.027	6.14
839.203	-36.86
839.38	135.17
839.556	10.24
839.732	49.15
839.909	38.91
840.085	81.92
840.261	26.62
840.437	73.73
840.614	51.2
840.79	63.49
840.966	77.82
841.142	75.77
841.318	18.43
841.494	4.1
841.671	57.34
841.847	47.1
842.023	71.68
842.199	-14.34
842.375	55.3
842.551	77.82
842.727	36.86
842.903	40.96
843.079	-6.14
843.255	108.54
843.431	102.4
843.607	53.25
843.783	12.29
843.959	81.92
844.134	-16.38
844.31	114.69
844.486	34.82
844.662	2.05
844.838	53.25
845.013	92.16
845.189	73.73
845.365	79.87
845.541	75.77
845.716	51.2
845.892	71.68
846.068	43.01
846.244	24.58
846.419	71.68
846.595	34.82
846.77	55.3
846.946	26.62
847.122	57.34
847.297	10.24
847.473	51.2
847.648	-6.14
847.824	110.59
847.999	-8.19
848.175	83.97
848.35	-6.14
848.526	118.78
848.701	14.34
848.876	59.39
849.052	104.45
849.227	2.05
849.403	83.97
849.578	45.06
849.753	22.53
849.929	6.14
850.104	-14.34
850.279	-18.43
850.454	59.39
850.63	104.45
850.805	34.82
850.98	51.2
851.155	18.43
851.33	45.06
851.505	-20.48
851.681	51.2
851.856	38.91
852.031	45.06
852.206	18.43
852.381	-14.34
852.556	2.05
852.731	61.44
852.906	34.82
853.081	22.53
853.256	14.34
853.431	45.06
853.606	-16.38
853.781	36.86
853.956	38.91
854.131	77.82
854.305	-86.01
854.48	2.05
854.655	10.24
854.83	22.53
855.005	65.53
855.18	100.35
855.354	24.58
855.529	43.01
855.704	-18.43
855.879	18.43
856.053	6.14
856.228	75.77
856.403	18.43
856.577	12.29
856.752	-45.06
856.926	26.62
857.101	34.82
857.276	10.24
857.45	2.05
857.625	73.73
857.799	67.58
857.974	79.87
858.148	47.1
858.323	2.05
858.497	24.58
858.672	28.67
858.846	-24.58
859.02	28.67
859.195	-16.38
859.369	14.34
859.543	69.63
859.718	28.67
859.892	-38.91
860.066	14.34
860.241	20.48
860.415	75.77
860.589	-18.43
860.763	18.43
860.938	4.1
861.112	-30.72
861.286	-10.24
861.46	-6.14
861.634	-22.53
861.808	59.39
861.982	14.34
862.157	34.82
862.331	22.53
862.505	-12.29
862.679	24.58
862.853	30.72
863.027	-20.48
863.201	65.53
863.375	59.39
863.549	47.1
863.722	12.29
863.896	77.82
864.07	-69.63
864.244	-22.53
864.418	-8.19
864.592	-6.14
864.766	-51.2
864.939	30.72
865.113	-30.72
865.287	116.73
865.461	18.43
865.634	38.91
865.808	-14.34
865.982	18.43
866.156	-34.82
866.329	20.48
866.503	38.91
866.676	59.39
866.85	18.43
867.024	61.44
867.197	71.68
867.371	2.05
867.544	-34.82
867.718	18.43
867.891	-8.19
868.065	10.24
868.238	10.24
868.412	45.06
868.585	-30.72
868.759	10.24
868.932	20.48
869.105	-26.62
869.279	28.67
869.452	94.21
869.625	30.72
869.799	51.2
869.972	-18.43
870.145	-16.38
870.319	55.3
870.492	30.72
870.665	36.86
870.838	30.72
871.011	-14.34
871.185	2.05
871.358	-14.34
871.531	-20.48
871.704	43.01
871.877	100.35
872.05	-22.53
872.223	-18.43
872.396	-6.14
872.569	8.19
872.742	57.34
872.915	-22.53
873.088	12.29
873.261	28.67
873.434	18.43
873.607	2.05
873.78	-53.25
873.953	-28.67
874.126	10.24
874.299	-6.14
874.471	30.72
874.644	-2.05
874.817	40.96
874.99	34.82
875.163	-10.24
875.335	43.01
875.508	55.3
875.681	22.53
875.853	-2.05
876.026	2.05
876.199	12.29
876.371	38.91
876.544	10.24
876.717	-14.34
876.889	-22.53
877.062	32.77
877.234	26.62
877.407	47.1
877.579	26.62
877.752	57.34
877.924	90.11
878.097	90.11
878.269	-51.2
878.442	-14.34
878.614	28.67
878.786	20.48
878.959	-28.67
879.131	-14.34
879.303	6.14
879.476	-34.82
879.648	61.44
879.82	67.58
879.993	-8.19
880.165	-16.38
880.337	-59.39
880.509	14.34
880.681	-69.63
880.854	-38.91
881.026	8.19
881.198	51.2
881.37	10.24
881.542	-20.48
881.714	-6.14
881.886	-38.91
882.058	36.86
882.23	24.58
882.402	-34.82
882.574	100.35
882.746	104.45
882.918	36.86
883.09	73.73
883.262	10.24
883.434	36.86
883.606	-14.34
883.778	16.38
883.95	49.15
884.122	-51.2
884.293	38.91
884.465	-12.29
884.637	79.87
884.809	10.24
884.98	63.49
885.152	-10.24
885.324	20.48
885.496	-6.14
885.667	18.43
885.839	-28.67
886.011	10.24
886.182	-4.1
886.354	120.83
886.525	-20.48
886.697	100.35
886.869	2.05
887.04	8.19
887.212	28.67
887.383	98.3
887.555	20.48
887.726	14.34
887.897	-55.3
888.069	2.05
888.24	-20.48
888.412	73.73
888.583	67.58
888.754	-4.1
888.926	-32.77
889.097	45.06
889.268	-43.01
889.44	120.83
889.611	-47.1
889.782	-63.49
889.953	-24.58
890.125	38.91
890.296	18.43
890.467	-0
890.638	-63.49
890.809	14.34
890.98	-12.29
891.151	83.97
891.323	2.05
891.494	-71.68
891.665	-4.1
891.836	10.24
892.007	-34.82
892.178	126.97
892.349	4.1
892.52	28.67
892.691	43.01
892.862	30.72
893.032	-36.86
893.203	-118.78
893.374	4.1
893.545	26.62
893.716	-79.87
893.887	18.43
894.057	-10.24
894.228	-22.53
894.399	-40.96
894.57	4.1
894.74	38.91
894.911	55.3
895.082	20.48
895.253	-63.49
895.423	-61.44
895.594	-10.24
895.764	2.05
895.935	2.05
896.106	22.53
896.276	20.48
896.447	-32.77
896.617	-6.14
896.788	2.05
896.958	-34.82
897.129	-104.45
897.299	2.05
897.47	51.2
897.64	-36.86
897.81	26.62
897.981	34.82
898.151	2.05
898.322	-12.29
898.492	69.63
898.662	-53.25
898.832	-10.24
899.003	12.29
899.173	16.38
899.343	8.19
899.513	-16.38
