Data from USB4F104151__191__14-20-20-870.txt Node

Date: Thu Mar 13 14:20:20 EDT 2025
User: louis
Spectrometer: USB4F10415
Trigger mode: 4
Integration Time (sec): 2.000000E-2
Scans to average: 1
Electric dark correction enabled: true
Nonlinearity correction enabled: false
Boxcar width: 0
XAxis mode: Wavelengths
Number of Pixels in Spectrum: 3648
>>>>>Begin Spectral Data<<<<<
178.204	-127.66
178.424	-127.66
178.644	-127.66
178.864	-178.86
179.084	-101.03
179.304	36.18
179.524	-25.26
179.744	34.13
179.964	79.19
180.184	27.99
180.404	34.13
180.624	-88.75
180.844	-15.02
181.064	-78.51
181.283	1.37
181.503	9.56
181.723	-15.02
181.943	-15.02
182.163	93.52
182.383	-8.87
182.602	66.9
182.822	30.04
183.042	1.37
183.262	27.99
183.482	91.48
183.701	15.7
183.921	83.28
184.141	9.56
184.361	34.13
184.58	27.99
184.8	1.37
185.02	91.48
185.239	87.38
185.459	17.75
185.679	97.62
185.898	-31.4
186.118	60.76
186.338	71
186.557	46.42
186.777	40.28
186.997	-4.78
187.216	-21.16
187.436	66.9
187.655	19.8
187.875	25.94
188.095	40.28
188.314	105.81
188.534	58.71
188.753	44.37
188.973	73.04
189.192	17.75
189.412	38.23
189.631	60.76
189.851	34.13
190.07	36.18
190.29	54.61
190.509	17.75
190.729	9.56
190.948	50.52
191.168	99.67
191.387	66.9
191.607	73.04
191.826	66.9
192.045	30.04
192.265	97.62
192.484	50.52
192.704	50.52
192.923	19.8
193.142	71
193.362	83.28
193.581	68.95
193.8	-19.11
194.02	73.04
194.239	126.29
194.458	71
194.678	58.71
194.897	83.28
195.116	50.52
195.335	89.43
195.555	124.24
195.774	30.04
195.993	11.61
196.212	50.52
196.432	1.37
196.651	-6.83
196.87	-62.12
197.089	83.28
197.308	77.14
197.528	62.8
197.747	38.23
197.966	81.24
198.185	77.14
198.404	36.18
198.623	13.65
198.842	81.24
199.062	99.67
199.281	42.32
199.5	1.37
199.719	83.28
199.938	83.28
200.157	46.42
200.376	122.2
200.595	32.08
200.814	91.48
201.033	11.61
201.252	116.05
201.471	50.52
201.69	54.61
201.909	66.9
202.128	71
202.347	68.95
202.566	58.71
202.785	1.37
203.004	19.8
203.223	95.57
203.442	107.86
203.661	42.32
203.879	-21.16
204.098	87.38
204.317	83.28
204.536	83.28
204.755	32.08
204.974	3.41
205.193	50.52
205.411	79.19
205.63	77.14
205.849	30.04
206.068	13.65
206.287	66.9
206.505	58.71
206.724	54.61
206.943	34.13
207.162	21.85
207.381	50.52
207.599	-4.78
207.818	58.71
208.037	30.04
208.255	-21.16
208.474	120.15
208.693	-4.78
208.911	50.52
209.13	40.28
209.349	87.38
209.567	9.56
209.786	-10.92
210.005	34.13
210.223	5.46
210.442	17.75
210.661	107.86
210.879	15.7
211.098	81.24
211.316	34.13
211.535	34.13
211.753	91.48
211.972	64.85
212.191	27.99
212.409	75.09
212.628	50.52
212.846	36.18
213.065	-15.02
213.283	93.52
213.502	9.56
213.72	50.52
213.938	89.43
214.157	83.28
214.375	46.42
214.594	38.23
214.812	44.37
215.031	66.9
215.249	87.38
215.467	-31.4
215.686	27.99
215.904	66.9
216.122	-15.02
216.341	21.85
216.559	3.41
216.778	23.89
216.996	89.43
217.214	75.09
217.432	85.33
217.651	42.32
217.869	25.94
218.087	60.76
218.306	44.37
218.524	91.48
218.742	-84.65
218.96	25.94
219.179	-49.83
219.397	25.94
219.615	116.05
219.833	87.38
220.051	50.52
220.27	54.61
220.488	27.99
220.706	60.76
220.924	54.61
221.142	58.71
221.36	17.75
221.578	83.28
221.796	19.8
222.015	66.9
222.233	32.08
222.451	68.95
222.669	-10.92
222.887	42.32
223.105	-15.02
223.323	140.63
223.541	-4.78
223.759	58.71
223.977	83.28
224.195	44.37
224.413	15.7
224.631	50.52
224.849	25.94
225.067	50.52
225.285	17.75
225.503	87.38
225.721	-15.02
225.939	62.8
226.157	15.7
226.375	142.68
226.592	75.09
226.81	19.8
227.028	19.8
227.246	167.25
227.464	64.85
227.682	36.18
227.9	103.76
228.117	3.41
228.335	42.32
228.553	50.52
228.771	60.76
228.989	95.57
229.206	-15.02
229.424	56.66
229.642	68.95
229.86	-17.07
230.077	48.47
230.295	-53.93
230.513	83.28
230.731	146.77
230.948	44.37
231.166	124.24
231.384	17.75
231.601	30.04
231.819	42.32
232.037	40.28
232.254	42.32
232.472	68.95
232.689	17.75
232.907	58.71
233.125	34.13
233.342	34.13
233.56	17.75
233.777	13.65
233.995	9.56
234.213	93.52
234.43	54.61
234.648	161.11
234.865	38.23
235.083	62.8
235.3	79.19
235.518	48.47
235.735	103.76
235.953	118.1
236.17	-21.16
236.388	50.52
236.605	30.04
236.822	107.86
237.04	120.15
237.257	44.37
237.475	75.09
237.692	83.28
237.909	62.8
238.127	5.46
238.344	62.8
238.562	103.76
238.779	50.52
238.996	1.37
239.214	36.18
239.431	81.24
239.648	-31.4
239.865	99.67
240.083	60.76
240.3	62.8
240.517	-68.27
240.735	-10.92
240.952	68.95
241.169	77.14
241.386	85.33
241.603	77.14
241.821	-2.73
242.038	148.82
242.255	11.61
242.472	93.52
242.689	36.18
242.907	-12.97
243.124	38.23
243.341	58.71
243.558	66.9
243.775	50.52
243.992	11.61
244.209	58.71
244.426	48.47
244.643	66.9
244.86	48.47
245.078	27.99
245.295	-23.21
245.512	42.32
245.729	75.09
245.946	42.32
246.163	68.95
246.38	62.8
246.597	58.71
246.814	54.61
247.031	71
247.248	71
247.464	75.09
247.681	25.94
247.898	-19.11
248.115	44.37
248.332	-35.5
248.549	46.42
248.766	173.39
248.983	36.18
249.2	99.67
249.417	66.9
249.633	-2.73
249.85	87.38
250.067	-15.02
250.284	99.67
250.501	44.37
250.717	38.23
250.934	34.13
251.151	83.28
251.368	34.13
251.585	101.72
251.801	60.76
252.018	52.56
252.235	109.91
252.451	44.37
252.668	38.23
252.885	40.28
253.102	34.13
253.318	91.48
253.535	11.61
253.752	23.89
253.968	-45.74
254.185	-39.59
254.401	-6.83
254.618	1.37
254.835	30.04
255.051	66.9
255.268	44.37
255.484	32.08
255.701	60.76
255.917	27.99
256.134	5.46
256.351	56.66
256.567	-23.21
256.784	-45.74
257	34.13
257.217	9.56
257.433	71
257.65	116.05
257.866	9.56
258.082	83.28
258.299	-23.21
258.515	17.75
258.732	83.28
258.948	52.56
259.165	19.8
259.381	85.33
259.597	91.48
259.814	36.18
260.03	-15.02
260.246	54.61
260.463	99.67
260.679	36.18
260.895	-6.83
261.112	-4.78
261.328	56.66
261.544	1.37
261.761	163.15
261.977	99.67
262.193	17.75
262.409	95.57
262.626	58.71
262.842	103.76
263.058	9.56
263.274	101.72
263.49	107.86
263.707	13.65
263.923	114
264.139	48.47
264.355	91.48
264.571	54.61
264.787	-6.83
265.004	116.05
265.22	46.42
265.436	3.41
265.652	25.94
265.868	79.19
266.084	50.52
266.3	-2.73
266.516	32.08
266.732	58.71
266.948	9.56
267.164	62.8
267.38	77.14
267.596	42.32
267.812	81.24
268.028	17.75
268.244	1.37
268.46	107.86
268.676	5.46
268.892	19.8
269.108	34.13
269.324	19.8
269.54	-17.07
269.756	99.67
269.972	17.75
270.188	34.13
270.403	46.42
270.619	36.18
270.835	34.13
271.051	62.8
271.267	-39.59
271.483	17.75
271.698	179.54
271.914	126.29
272.13	50.52
272.346	38.23
272.562	-10.92
272.777	122.2
272.993	19.8
273.209	1.37
273.425	50.52
273.64	54.61
273.856	87.38
274.072	-15.02
274.287	62.8
274.503	44.37
274.719	107.86
274.934	89.43
275.15	-10.92
275.366	25.94
275.581	75.09
275.797	44.37
276.012	44.37
276.228	-15.02
276.444	66.9
276.659	89.43
276.875	32.08
277.09	30.04
277.306	95.57
277.521	34.13
277.737	91.48
277.952	77.14
278.168	48.47
278.383	116.05
278.599	30.04
278.814	128.34
279.03	38.23
279.245	126.29
279.461	36.18
279.676	30.04
279.892	25.94
280.107	25.94
280.322	25.94
280.538	73.04
280.753	5.46
280.969	1.37
281.184	11.61
281.399	79.19
281.615	99.67
281.83	50.52
282.045	-23.21
282.26	-37.55
282.476	5.46
282.691	64.85
282.906	-10.92
283.122	83.28
283.337	40.28
283.552	38.23
283.767	5.46
283.983	42.32
284.198	60.76
284.413	30.04
284.628	25.94
284.843	38.23
285.058	50.52
285.274	25.94
285.489	48.47
285.704	52.56
285.919	42.32
286.134	21.85
286.349	58.71
286.564	-10.92
286.779	79.19
286.995	-23.21
287.21	25.94
287.425	66.9
287.64	34.13
287.855	99.67
288.07	50.52
288.285	66.9
288.5	103.76
288.715	42.32
288.93	60.76
289.145	38.23
289.36	34.13
289.575	75.09
289.79	25.94
290.004	-4.78
290.219	46.42
290.434	101.72
290.649	21.85
290.864	44.37
291.079	-29.35
291.294	9.56
291.509	132.44
291.724	87.38
291.938	1.37
292.153	73.04
292.368	66.9
292.583	95.57
292.798	13.65
293.012	56.66
293.227	36.18
293.442	19.8
293.657	66.9
293.871	75.09
294.086	99.67
294.301	66.9
294.516	3.41
294.73	1.37
294.945	32.08
295.16	66.9
295.374	30.04
295.589	87.38
295.804	17.75
296.018	19.8
296.233	97.62
296.447	30.04
296.662	38.23
296.877	60.76
297.091	9.56
297.306	124.24
297.52	44.37
297.735	52.56
297.949	87.38
298.164	50.52
298.378	44.37
298.593	1.37
298.807	-8.87
299.022	9.56
299.236	38.23
299.451	66.9
299.665	25.94
299.88	93.52
300.094	-2.73
300.309	30.04
300.523	32.08
300.737	21.85
300.952	87.38
301.166	52.56
301.381	27.99
301.595	42.32
301.809	71
302.024	17.75
302.238	-12.97
302.452	101.72
302.667	81.24
302.881	116.05
303.095	50.52
303.309	38.23
303.524	126.29
303.738	38.23
303.952	50.52
304.166	19.8
304.381	-21.16
304.595	99.67
304.809	32.08
305.023	36.18
305.237	-31.4
305.452	66.9
305.666	93.52
305.88	25.94
306.094	54.61
306.308	66.9
306.522	81.24
306.736	71
306.95	62.8
307.164	21.85
307.379	-4.78
307.593	60.76
307.807	85.33
308.021	95.57
308.235	95.57
308.449	93.52
308.663	34.13
308.877	83.28
309.091	56.66
309.305	52.56
309.519	-29.35
309.733	103.76
309.947	25.94
310.161	5.46
310.374	42.32
310.588	34.13
310.802	52.56
311.016	60.76
311.23	101.72
311.444	54.61
311.658	42.32
311.872	101.72
312.085	77.14
312.299	93.52
312.513	120.15
312.727	120.15
312.941	-31.4
313.154	118.1
313.368	48.47
313.582	66.9
313.796	9.56
314.009	60.76
314.223	56.66
314.437	48.47
314.651	-27.31
314.864	34.13
315.078	-8.87
315.292	21.85
315.505	52.56
315.719	36.18
315.933	138.58
316.146	93.52
316.36	-37.55
316.573	93.52
316.787	58.71
317.001	91.48
317.214	83.28
317.428	116.05
317.641	60.76
317.855	134.48
318.068	66.9
318.282	68.95
318.495	118.1
318.709	54.61
318.922	54.61
319.136	79.19
319.349	30.04
319.563	58.71
319.776	27.99
319.99	-27.31
320.203	-6.83
320.417	116.05
320.63	111.96
320.843	34.13
321.057	34.13
321.27	42.32
321.483	58.71
321.697	77.14
321.91	60.76
322.124	101.72
322.337	99.67
322.55	99.67
322.763	3.41
322.977	46.42
323.19	46.42
323.403	99.67
323.617	77.14
323.83	118.1
324.043	25.94
324.256	83.28
324.469	7.51
324.683	36.18
324.896	38.23
325.109	-6.83
325.322	52.56
325.535	130.39
325.748	71
325.962	64.85
326.175	58.71
326.388	34.13
326.601	89.43
326.814	75.09
327.027	13.65
327.24	62.8
327.453	19.8
327.666	75.09
327.879	46.42
328.092	128.34
328.305	58.71
328.518	-0.68
328.731	25.94
328.944	7.51
329.157	-0.68
329.37	77.14
329.583	124.24
329.796	128.34
330.009	-23.21
330.222	48.47
330.435	34.13
330.648	114
330.861	50.52
331.073	68.95
331.286	60.76
331.499	120.15
331.712	-15.02
331.925	116.05
332.138	1.37
332.35	27.99
332.563	9.56
332.776	30.04
332.989	17.75
333.202	-10.92
333.414	58.71
333.627	42.32
333.84	79.19
334.053	60.76
334.265	-25.26
334.478	66.9
334.691	17.75
334.903	91.48
335.116	30.04
335.329	38.23
335.541	91.48
335.754	107.86
335.966	-23.21
336.179	5.46
336.392	13.65
336.604	19.8
336.817	3.41
337.029	73.04
337.242	36.18
337.454	202.07
337.667	52.56
337.88	116.05
338.092	75.09
338.305	11.61
338.517	7.51
338.729	95.57
338.942	19.8
339.154	66.9
339.367	13.65
339.579	9.56
339.792	91.48
340.004	79.19
340.217	48.47
340.429	66.9
340.641	13.65
340.854	64.85
341.066	34.13
341.278	132.44
341.491	42.32
341.703	73.04
341.915	-15.02
342.128	64.85
342.34	50.52
342.552	89.43
342.764	36.18
342.977	-10.92
343.189	42.32
343.401	-6.83
343.613	62.8
343.826	68.95
344.038	11.61
344.25	148.82
344.462	46.42
344.674	64.85
344.886	48.47
345.099	75.09
345.311	-17.07
345.523	64.85
345.735	111.96
345.947	93.52
346.159	42.32
346.371	68.95
346.583	30.04
346.795	85.33
347.007	66.9
347.219	124.24
347.431	44.37
347.643	58.71
347.855	-6.83
348.067	95.57
348.279	52.56
348.491	77.14
348.703	116.05
348.915	140.63
349.127	44.37
349.339	30.04
349.551	97.62
349.763	60.76
349.975	62.8
350.187	58.71
350.399	165.2
350.61	68.95
350.822	-15.02
351.034	58.71
351.246	21.85
351.458	89.43
351.669	46.42
351.881	89.43
352.093	42.32
352.305	13.65
352.517	93.52
352.728	107.86
352.94	122.2
353.152	81.24
353.363	17.75
353.575	71
353.787	91.48
353.999	68.95
354.21	68.95
354.422	50.52
354.633	97.62
354.845	75.09
355.057	62.8
355.268	-17.07
355.48	71
355.692	-45.74
355.903	50.52
356.115	32.08
356.326	17.75
356.538	146.77
356.749	68.95
356.961	79.19
357.172	52.56
357.384	77.14
357.595	71
357.807	44.37
358.018	27.99
358.23	71
358.441	75.09
358.653	118.1
358.864	120.15
359.075	54.61
359.287	36.18
359.498	107.86
359.709	101.72
359.921	75.09
360.132	95.57
360.344	5.46
360.555	25.94
360.766	116.05
360.977	5.46
361.189	83.28
361.4	-21.16
361.611	157.01
361.823	140.63
362.034	30.04
362.245	7.51
362.456	83.28
362.667	15.7
362.879	68.95
363.09	60.76
363.301	140.63
363.512	52.56
363.723	30.04
363.935	71
364.146	85.33
364.357	5.46
364.568	189.78
364.779	77.14
364.99	58.71
365.201	89.43
365.412	136.53
365.623	17.75
365.834	109.91
366.045	77.14
366.256	77.14
366.467	30.04
366.678	107.86
366.889	52.56
367.1	66.9
367.311	58.71
367.522	-27.31
367.733	58.71
367.944	40.28
368.155	62.8
368.366	46.42
368.577	-10.92
368.788	79.19
368.999	13.65
369.209	9.56
369.42	71
369.631	7.51
369.842	34.13
370.053	5.46
370.264	91.48
370.474	19.8
370.685	103.76
370.896	27.99
371.107	83.28
371.317	118.1
371.528	91.48
371.739	109.91
371.95	77.14
372.16	50.52
372.371	17.75
372.582	91.48
372.792	99.67
373.003	101.72
373.214	3.41
373.424	-10.92
373.635	42.32
373.846	87.38
374.056	91.48
374.267	38.23
374.477	11.61
374.688	50.52
374.898	48.47
375.109	103.76
375.319	58.71
375.53	99.67
375.74	50.52
375.951	101.72
376.161	62.8
376.372	148.82
376.582	5.46
376.793	157.01
377.003	-10.92
377.214	23.89
377.424	13.65
377.635	34.13
377.845	15.7
378.055	91.48
378.266	79.19
378.476	118.1
378.686	68.95
378.897	52.56
379.107	77.14
379.317	34.13
379.528	66.9
379.738	93.52
379.948	58.71
380.158	42.32
380.369	62.8
380.579	93.52
380.789	21.85
380.999	91.48
381.21	83.28
381.42	105.81
381.63	25.94
381.84	118.1
382.05	132.44
382.261	66.9
382.471	116.05
382.681	116.05
382.891	21.85
383.101	85.33
383.311	25.94
383.521	93.52
383.731	107.86
383.941	73.04
384.151	85.33
384.361	75.09
384.571	109.91
384.781	107.86
384.991	99.67
385.201	122.2
385.411	52.56
385.621	-23.21
385.831	19.8
386.041	99.67
386.251	91.48
386.461	173.39
386.671	52.56
386.881	89.43
387.091	1.37
387.301	36.18
387.511	21.85
387.72	60.76
387.93	93.52
388.14	60.76
388.35	62.8
388.56	60.76
388.769	89.43
388.979	107.86
389.189	50.52
389.399	101.72
389.609	116.05
389.818	157.01
390.028	-10.92
390.238	116.05
390.447	23.89
390.657	118.1
390.867	71
391.076	66.9
391.286	42.32
391.496	150.87
391.705	68.95
391.915	103.76
392.125	157.01
392.334	79.19
392.544	144.72
392.753	27.99
392.963	19.8
393.172	66.9
393.382	85.33
393.591	165.2
393.801	68.95
394.01	44.37
394.22	44.37
394.429	150.87
394.639	132.44
394.848	-4.78
395.058	132.44
395.267	124.24
395.477	52.56
395.686	68.95
395.895	200.02
396.105	142.68
396.314	132.44
396.524	132.44
396.733	75.09
396.942	165.2
397.152	130.39
397.361	120.15
397.57	116.05
397.78	116.05
397.989	144.72
398.198	179.54
398.407	124.24
398.617	226.64
398.826	142.68
399.035	68.95
399.244	136.53
399.453	157.01
399.663	157.01
399.872	175.44
400.081	107.86
400.29	169.3
400.499	77.14
400.708	116.05
400.917	140.63
401.127	154.96
401.336	99.67
401.545	165.2
401.754	116.05
401.963	111.96
402.172	187.73
402.381	128.34
402.59	107.86
402.799	126.29
403.008	200.02
403.217	75.09
403.426	111.96
403.635	99.67
403.844	140.63
404.053	208.21
404.262	238.93
404.471	173.39
404.68	175.44
404.888	200.02
405.097	163.15
405.306	226.64
405.515	220.5
405.724	261.46
405.933	189.78
406.142	277.84
406.35	165.2
406.559	304.46
406.768	208.21
406.977	226.64
407.185	341.33
407.394	214.35
407.603	206.16
407.812	279.89
408.02	243.03
408.229	240.98
408.438	306.51
408.646	230.74
408.855	308.56
409.064	263.51
409.272	345.42
409.481	355.66
409.69	296.27
409.898	306.51
410.107	310.61
410.315	361.81
410.524	298.32
410.733	353.62
410.941	372.05
411.15	419.15
411.358	439.63
411.567	443.73
411.775	453.97
411.984	501.07
412.192	525.65
412.401	560.46
412.609	548.17
412.818	568.65
413.026	554.32
413.234	548.17
413.443	585.04
413.651	533.84
413.86	617.8
414.068	623.95
414.276	718.15
414.485	681.29
414.693	738.63
414.901	787.79
415.11	779.59
415.318	730.44
415.526	802.12
415.734	787.79
415.943	904.52
416.151	808.27
416.359	879.94
416.567	935.24
416.776	1002.82
416.984	1082.69
417.192	1025.35
417.4	1035.59
417.608	1123.65
417.817	1203.52
418.025	1049.93
418.233	1213.76
418.441	1254.72
418.649	1254.72
418.857	1344.83
419.065	1426.75
419.273	1406.27
419.481	1418.56
419.689	1451.33
419.897	1549.63
420.105	1602.88
420.313	1649.98
420.521	1647.93
420.729	1705.28
420.937	1754.43
421.145	1848.63
421.353	2000.18
421.561	2106.68
421.769	2106.68
421.977	2188.6
422.185	2078.01
422.393	2209.08
422.601	2344.24
422.809	2409.78
423.017	2506.03
423.224	2491.7
423.432	2708.78
423.64	2610.48
423.848	2911.53
424.056	2833.71
424.263	2946.34
424.471	3089.7
424.679	3255.59
424.887	3282.21
425.094	3247.4
425.302	3300.64
425.51	3523.87
425.718	3542.3
425.925	3599.65
426.133	3716.38
426.341	3972.38
426.548	4072.73
426.756	4091.16
426.964	4277.52
427.171	4359.44
427.379	4435.22
427.586	4605.2
427.794	4697.36
428.001	4883.72
428.209	5385.48
428.417	5123.34
428.624	5506.31
428.832	5463.3
429.039	5354.76
429.247	5319.94
429.454	5936.38
429.662	6309.11
429.869	5907.71
430.076	6391.03
430.284	5963
430.491	6456.56
430.699	6774
430.906	6837.48
431.114	6939.88
431.321	7169.26
431.528	7193.83
431.736	7781.6
431.943	8000.73
432.15	7939.29
432.358	7884
432.565	8621.27
432.772	8205.53
432.979	8672.47
433.187	8936.65
433.394	9090.25
433.601	9768.13
433.808	9528.52
434.016	9577.67
434.223	9934.01
434.43	10622.13
434.637	10249.4
434.844	11160.75
435.052	11134.12
435.259	11099.31
435.466	11089.07
435.673	11060.4
435.88	11707.55
436.087	12422.3
436.294	12457.11
436.501	11986.08
436.708	12348.57
436.915	12872.85
437.122	13257.87
437.329	13173.9
437.537	13626.5
437.743	13892.74
437.95	13986.94
438.157	14488.7
438.364	14875.76
438.571	14984.3
438.778	14935.15
438.985	16329.82
439.192	15721.57
439.399	16501.85
439.606	15895.65
439.813	16747.61
440.02	17990.72
440.227	17587.27
440.433	17325.13
440.64	17974.34
440.847	17818.69
441.054	18211.9
441.261	19612.71
441.467	19387.44
441.674	19455.02
441.881	20397.09
442.088	19903.53
442.294	20194.34
442.501	20538.4
442.708	21122.07
442.914	22043.65
443.121	22858.74
443.328	22330.37
443.534	23722.99
443.741	23020.53
443.948	22797.31
444.154	24622.05
444.361	23905.26
444.568	24331.23
444.774	24198.12
444.981	24411.1
445.187	25187.28
445.394	26309.57
445.6	26096.58
445.807	28343.2
446.013	27440.05
446.22	27524.02
446.426	28996.51
446.633	29137.82
446.839	30161.8
447.046	28500.9
447.252	30618.5
447.459	30368.65
447.665	30051.21
447.871	31314.81
448.078	32891.74
448.284	31409.01
448.491	32232.3
448.697	33200.99
448.903	34452.3
449.11	34095.95
449.316	33829.71
449.522	34532.17
449.728	35322.68
449.935	35267.39
450.141	35195.71
450.347	36129.58
450.553	35038.01
450.76	35609.4
450.966	36504.36
451.172	36170.54
451.378	37364.51
451.584	36467.5
451.791	37409.56
451.997	37374.75
452.203	37661.46
452.409	37567.26
452.615	37524.25
452.821	35978.03
453.027	35564.34
453.233	38011.67
453.44	36535.08
453.646	36967.2
453.852	36725.54
454.058	37597.98
454.264	36051.76
454.47	37204.77
454.676	36293.42
454.882	37444.38
455.088	33991.5
455.294	34773.83
455.5	35074.88
455.705	35531.58
455.911	34243.4
456.117	33321.82
456.323	33088.35
456.529	31458.17
456.735	32504.68
456.941	32064.36
457.147	31540.08
457.352	30395.27
457.558	30239.62
457.764	29832.08
457.97	29680.53
458.176	29055.9
458.381	29139.86
458.587	27483.06
458.793	27620.27
458.999	26411.97
459.204	28332.96
459.41	27227.06
459.616	25433.04
459.821	25566.16
460.027	25482.19
460.233	24957.91
460.438	23788.52
460.644	24108.01
460.85	22975.48
461.055	22567.93
461.261	22750.2
461.466	20855.83
461.672	19829.8
461.878	21677.07
462.083	20296.74
462.289	19905.57
462.494	19473.45
462.7	18799.67
462.905	18244.67
463.111	19010.61
463.316	18658.36
463.522	18504.76
463.727	18617.4
463.932	18658.36
464.138	18531.39
464.343	18132.03
464.549	17814.6
464.754	18402.36
464.959	18498.62
465.165	18093.12
465.37	17454.15
465.575	17042.51
465.781	17501.26
465.986	17650.76
466.191	17108.05
466.397	16909.4
466.602	16161.89
466.807	16657.5
467.012	16520.28
467.218	16401.5
467.423	16161.89
467.628	16421.98
467.833	17095.76
468.038	16659.54
468.244	15969.38
468.449	16704.6
468.654	16086.11
468.859	16376.92
469.064	15772.77
469.269	15260.78
469.474	15316.08
469.679	15387.75
469.885	14926.96
470.09	15426.67
470.295	15543.4
470.5	15090.8
470.705	15058.03
470.91	14605.43
471.115	14500.98
471.32	14832.75
471.525	14785.65
471.73	14390.39
471.935	14214.27
472.139	13657.22
472.344	14099.58
472.549	13855.87
472.754	13634.69
472.959	13634.69
473.164	13182.09
473.369	13001.87
473.574	13628.55
473.778	13284.49
473.983	13214.86
474.188	13118.61
474.393	12453.02
474.598	12827.79
474.802	12635.28
475.007	12342.42
475.212	12371.1
475.417	12188.83
475.621	12088.48
475.826	12207.26
476.031	11768.99
476.235	11486.37
476.44	11865.25
476.645	11621.54
476.849	11582.63
477.054	11553.96
477.259	11199.66
477.463	11121.84
477.668	11025.58
477.872	11093.16
478.077	10966.19
478.282	10806.45
478.486	10806.45
478.691	10478.77
478.895	10505.4
479.1	10429.62
479.304	10552.5
479.509	10265.78
479.713	10421.43
479.918	10130.62
480.122	9909.44
480.326	10151.1
480.531	10017.98
480.735	9970.88
480.94	9841.86
481.144	10249.4
481.348	9643.2
481.553	9905.34
481.757	9575.62
481.961	9950.4
482.166	9815.23
482.37	9866.43
482.574	9694.4
482.778	9532.61
482.983	9907.39
483.187	9680.07
483.391	9897.15
483.595	9483.46
483.8	9581.76
484.004	9780.42
484.208	9874.62
484.412	9534.66
484.616	9780.42
484.821	9798.85
485.025	9438.41
485.229	9962.69
485.433	9770.18
485.637	9639.11
485.841	9430.21
486.045	9471.17
486.249	9585.86
486.453	9639.11
486.657	9630.91
486.861	9757.89
487.065	9422.02
487.269	9585.86
487.473	9372.87
487.677	9585.86
487.881	9737.41
488.085	9397.45
488.289	9569.48
488.493	9827.52
488.697	9749.7
488.901	9624.77
489.105	9774.27
489.309	9739.46
489.512	9780.42
489.716	9551.04
489.92	9733.31
490.124	9571.52
490.328	9874.62
490.531	9761.98
490.735	9823.42
490.939	9893.05
491.143	9862.33
491.346	9987.26
491.55	10065.08
491.754	9972.93
491.958	10071.23
492.161	10087.61
492.365	10161.34
492.569	9893.05
492.772	10300.6
492.976	10243.26
493.18	10265.78
493.383	10349.75
493.587	10421.43
493.79	10499.25
493.994	10157.24
494.197	10601.65
494.401	10679.47
494.605	10577.08
494.808	10914.99
495.012	11068.59
495.215	10892.46
495.419	10949.81
495.622	10849.46
495.825	11148.46
496.029	11132.08
496.232	11414.7
496.436	11324.58
496.639	11572.39
496.843	11453.61
497.046	11666.6
497.249	11842.72
497.453	11914.4
497.656	12084.38
497.859	12154.01
498.063	12151.96
498.266	12395.67
498.469	12391.58
498.673	12444.82
498.876	12788.88
499.079	12907.66
499.282	12897.42
499.485	13268.11
499.689	13157.52
499.892	13505.67
500.095	13403.27
500.298	13710.47
500.501	13513.86
500.705	13927.55
500.908	14275.71
501.111	14355.58
501.314	14318.71
501.517	14673.01
501.72	14599.29
501.923	14875.76
502.126	15107.18
502.329	15475.82
502.532	15668.33
502.735	15551.59
502.938	16026.72
503.141	15844.45
503.344	16137.31
503.547	15950.95
503.75	15918.18
503.953	16704.6
504.156	16864.34
504.359	16837.72
504.562	16823.38
504.765	17415.24
504.968	17509.45
505.17	17597.51
505.373	17595.46
505.576	17792.07
505.779	18142.27
505.982	18256.96
506.185	18551.87
506.387	18693.18
506.59	18957.36
506.793	19026.99
506.996	19178.54
507.198	19631.15
507.401	19450.92
507.604	19631.15
507.807	20270.11
508.009	20194.34
508.212	20304.93
508.415	20751.38
508.617	20573.21
508.82	20921.37
509.022	20655.13
509.225	21400.59
509.428	21400.59
509.63	21838.86
509.833	21867.53
510.035	22199.3
510.238	22285.31
510.44	22733.82
510.643	22803.45
510.845	23245.81
511.048	22895.61
511.25	23493.61
511.453	23362.54
511.655	24101.86
511.858	23895.02
512.06	23956.46
512.262	24695.77
512.465	24484.83
512.667	24955.86
512.87	25045.98
513.072	24953.82
513.274	25572.3
513.477	25801.68
513.679	25990.09
513.881	26203.08
514.084	26522.56
514.286	26260.42
514.488	26612.67
514.69	27515.83
514.893	27378.61
515.095	27638.7
515.297	27958.19
515.499	28140.46
515.701	28375.97
515.904	28574.63
516.106	28769.18
516.308	29141.91
516.51	29387.67
516.712	29297.56
516.914	29508.5
517.116	30251.91
517.318	30434.18
517.52	30378.89
517.722	30528.39
517.925	30972.8
518.127	31382.39
518.329	31552.37
518.531	31738.74
518.733	31816.56
518.935	32428.9
519.136	32121.71
519.338	32846.69
519.54	32805.73
519.742	33016.67
519.944	33225.56
520.146	34016.08
520.348	33794.9
520.55	33811.28
520.752	34143.05
520.954	34689.86
521.155	34534.21
521.357	35199.8
521.559	35234.62
521.761	35689.27
521.963	35107.65
522.164	35801.91
522.366	35818.29
522.568	36141.87
522.77	36772.64
522.971	37116.7
523.173	36684.58
523.375	36766.5
523.576	37110.56
523.778	36746.02
523.98	37933.84
524.181	37808.92
524.383	38032.15
524.584	38535.95
524.786	38429.45
524.988	38206.22
525.189	38894.34
525.391	39041.79
525.592	38824.71
525.794	39291.65
525.995	39330.56
526.197	38955.78
526.398	39584.51
526.6	39676.66
526.801	39981.81
527.003	39996.15
527.204	40155.89
527.406	39885.56
527.607	40321.77
527.808	40966.88
528.01	39633.66
528.211	40545
528.412	41327.33
528.614	40702.7
528.815	41081.57
529.016	41114.34
529.218	40862.44
529.419	41317.09
529.62	41188.06
529.822	41253.6
530.023	41196.26
530.224	41091.81
530.425	41167.59
530.626	40825.57
530.828	40704.74
531.029	42132.18
531.23	41419.49
531.431	41679.58
531.632	41495.26
531.833	41841.37
532.035	41896.66
532.236	41655
532.437	41974.48
532.638	41870.04
532.839	42013.4
533.04	42259.15
533.241	41401.05
533.442	42392.27
533.643	41820.89
533.844	41835.22
534.045	41622.23
534.246	41624.28
534.447	42453.71
534.648	41857.75
534.849	42056.4
535.05	41679.58
535.251	41818.84
535.451	41939.67
535.652	42410.7
535.853	41865.94
536.054	42494.67
536.255	42277.58
536.456	41839.32
536.657	42805.96
536.857	41747.16
537.058	41609.95
537.259	41960.15
537.46	42453.71
537.66	41667.29
537.861	42019.54
538.062	42578.64
538.263	41806.55
538.463	42005.2
538.664	42015.44
538.865	42332.88
539.065	42310.35
539.266	41638.62
539.466	42529.48
539.667	41220.83
539.868	42029.78
540.068	41571.04
540.269	41937.62
540.469	42210
540.67	41366.24
540.87	41503.45
541.071	41603.8
541.271	41925.33
541.472	41632.47
541.672	41523.93
541.873	41599.71
542.073	41192.16
542.274	42134.23
542.474	41646.81
542.675	41603.8
542.875	42083.03
543.075	41411.29
543.276	40831.72
543.476	41575.13
543.676	41626.33
543.877	41898.71
544.077	41806.55
544.277	41530.08
544.478	41630.43
544.678	41784.02
544.878	41390.81
545.078	41564.89
545.279	41382.62
545.479	41368.29
545.679	41546.46
545.879	41769.69
546.079	41446.11
546.28	41667.29
546.48	41083.62
546.68	41269.98
546.88	41442.01
547.08	41597.66
547.28	41001.7
547.48	41196.26
547.68	41249.5
547.88	41239.26
548.081	41343.71
548.281	41415.39
548.481	41298.66
548.681	41812.7
548.881	41157.35
549.081	40887.01
549.28	41065.19
549.48	41204.45
549.68	41200.35
549.88	41794.26
550.08	41278.18
550.28	41401.05
550.48	41329.37
550.68	41546.46
550.88	40825.57
551.08	40817.38
551.279	41192.16
551.479	41104.1
551.679	41159.39
551.879	40884.97
552.079	41175.78
552.278	41059.04
552.478	40923.88
552.678	41050.85
552.878	41384.67
553.077	41317.09
553.277	40598.25
553.477	41485.02
553.676	40864.49
553.876	41073.38
554.076	40966.88
554.275	40833.77
554.475	40622.83
554.674	40964.84
554.874	40850.15
555.074	40418.03
555.273	41032.42
555.473	40907.49
555.672	40430.32
555.872	40792.81
556.071	41020.13
556.271	40696.55
556.47	40477.42
556.67	40432.36
556.869	40411.88
557.068	40739.56
557.268	40368.88
557.467	40542.95
557.667	40663.78
557.866	40325.87
558.065	40235.76
558.265	40209.14
558.464	39910.13
558.663	40256.24
558.863	39981.81
559.062	40631.02
559.261	40030.96
559.461	40145.65
559.66	39453.44
559.859	40090.35
560.058	39533.31
560.258	40270.57
560.457	39555.83
560.656	40041.2
560.855	39533.31
561.054	40024.82
561.253	39564.03
561.453	39781.11
561.652	39584.51
561.851	39488.25
562.05	39236.35
562.249	39226.11
562.448	39441.15
562.647	39383.8
562.846	39125.76
563.045	39473.92
563.244	39115.52
563.443	39658.23
563.642	38910.72
563.841	39090.94
564.04	38959.87
564.239	38796.04
564.438	38781.7
564.637	38748.93
564.836	38912.77
565.035	38701.83
565.234	38912.77
565.432	38533.9
565.631	38234.89
565.83	38888.2
566.029	38400.78
566.228	37921.55
566.427	38284.05
566.625	37823.25
566.824	37798.68
567.023	38259.47
567.222	37608.22
567.42	38124.3
567.619	38152.98
567.818	37939.99
568.016	37919.51
568.215	38097.68
568.414	38015.76
568.612	37888.79
568.811	37182.24
569.01	37778.2
569.208	37063.46
569.407	37640.98
569.605	37126.94
569.804	37427.99
570.002	36987.68
570.201	37542.68
570.4	37147.42
570.598	36715.3
570.797	36834.08
570.995	37165.85
571.193	36236.08
571.392	36907.81
571.59	36340.52
571.789	36584.23
571.987	36285.23
572.186	36365.1
572.384	36485.93
572.582	36508.46
572.781	36303.66
572.979	35806
573.177	36033.33
573.376	36029.23
573.574	35515.19
573.772	35795.76
573.971	35982.13
574.169	35648.31
574.367	35425.08
574.565	35699.51
574.763	35394.36
574.962	35357.5
575.16	34923.33
575.358	35156.8
575.556	34376.52
575.754	35158.84
575.952	34523.97
576.151	35283.77
576.349	34499.4
576.547	34632.52
576.745	34505.54
576.943	34673.48
577.141	34403.14
577.339	34609.99
577.537	34046.8
577.735	33971.02
577.933	34259.79
578.131	34462.54
578.329	34042.7
578.527	33887.06
578.725	34284.36
578.923	34177.87
579.121	33946.45
579.319	33663.83
579.516	33645.4
579.714	33739.6
579.912	33739.6
580.11	33678.16
580.308	33182.56
580.506	33518.42
580.704	33026.91
580.901	33028.96
581.099	33330.01
581.297	32713.57
581.495	32867.17
581.692	33256.28
581.89	32654.18
582.088	32867.17
582.285	32699.23
582.483	32854.88
582.681	32641.89
582.878	32299.88
583.076	32009.07
583.274	32494.44
583.471	32004.97
583.669	32242.54
583.866	31929.2
584.064	31748.98
584.262	31675.25
584.459	31734.64
584.657	31751.02
584.854	31851.38
585.052	31019.9
585.249	31615.86
585.447	31466.36
585.644	30946.17
585.841	31173.5
586.039	31267.7
586.236	30829.44
586.434	31009.66
586.631	30550.92
586.828	30612.35
587.026	30706.56
587.223	30495.62
587.42	30495.62
587.618	30679.94
587.815	30198.66
588.012	29909.9
588.21	29795.21
588.407	30804.86
588.604	29971.34
588.801	30098.31
588.999	29924.24
589.196	29932.43
589.393	29637.52
589.59	29594.51
589.787	29442.96
589.984	29684.62
590.182	29512.59
590.379	29305.75
590.576	29098.91
590.773	29109.15
590.97	29023.13
591.167	29199.26
591.364	29019.03
591.561	28777.37
591.758	28599.2
591.955	28873.63
592.152	28855.2
592.349	28263.33
592.546	28928.92
592.743	28187.56
592.94	28255.14
593.137	28750.75
593.334	28748.7
593.531	27767.73
593.727	28332.96
593.924	28093.35
594.121	27720.62
594.318	28210.09
594.515	27601.84
594.712	28060.59
594.908	27497.39
595.105	27851.69
595.302	27315.12
595.499	27323.32
595.696	27120.57
595.892	27012.03
596.089	27403.19
596.286	27110.33
596.482	27145.14
596.679	27098.04
596.876	26788.8
597.072	26835.9
597.269	26723.26
597.466	26485.7
597.662	26661.82
597.859	26420.16
598.055	26618.82
598.252	26217.41
598.448	26377.15
598.645	26211.27
598.841	26016.71
599.038	26006.47
599.234	25981.9
599.431	25443.28
599.627	25742.28
599.824	25973.7
600.02	25658.32
600.217	25672.65
600.413	25504.72
600.609	25365.46
600.806	25484.24
601.002	25662.41
601.198	25207.76
601.395	24943.58
601.591	24982.49
601.787	24943.58
601.984	24902.62
602.18	24931.29
602.376	24902.62
602.572	24615.9
602.769	24732.64
602.965	24744.92
603.161	24386.53
603.357	24200.16
603.553	24335.33
603.75	24394.72
603.946	24194.02
604.142	24421.34
604.338	23895.02
604.534	24286.18
604.73	24019.94
604.926	23731.18
605.122	24108.01
605.318	23804.91
605.514	23692.27
605.71	23684.08
605.906	23510
606.102	23679.98
606.298	23763.95
606.494	23841.77
606.69	23518.19
606.886	23335.92
607.082	23227.38
607.278	23557.1
607.474	22717.43
607.67	23272.43
607.866	22791.16
608.062	23395.31
608.257	23086.07
608.453	22547.45
608.649	23006.2
608.845	22696.95
609.041	22764.54
609.236	22572.03
609.432	22326.27
609.628	22590.46
609.824	22633.47
610.019	22389.76
610.215	22428.67
610.411	22561.79
610.606	22465.53
610.802	22344.7
610.998	22455.29
611.193	22371.33
611.389	22291.46
611.584	22111.24
611.78	21957.64
611.976	22354.94
612.171	22404.1
612.367	22187.01
612.562	21840.9
612.758	21703.69
612.953	21543.95
613.149	21677.07
613.344	21517.32
613.539	22012.93
613.735	21640.2
613.93	21783.56
614.126	21564.43
614.321	21890.06
614.517	21683.21
614.712	21701.64
614.907	21474.32
615.103	21715.98
615.298	21613.58
615.493	21414.93
615.688	21435.41
615.884	21724.17
616.079	21263.38
616.274	21507.09
616.47	21171.22
616.665	21435.41
616.86	21292.05
617.055	21165.07
617.25	21074.96
617.445	20968.47
617.641	20775.96
617.836	21257.23
618.031	20573.21
618.226	20821.02
618.421	20708.38
618.616	20716.57
618.811	20493.34
619.006	20839.45
619.201	20284.45
619.396	20497.44
619.591	20182.05
619.786	20255.78
619.981	19989.54
620.176	20149.28
620.371	19856.42
620.566	20071.46
620.761	19491.88
620.956	19889.19
621.151	19571.75
621.346	19776.55
621.541	19493.93
621.735	19393.58
621.93	19055.67
622.125	19455.02
622.32	18924.6
622.515	19170.35
622.709	18992.18
622.904	18928.69
623.099	18773.05
623.294	18848.82
623.488	18650.17
623.683	18539.58
623.878	18232.38
624.072	18291.77
624.267	17962.05
624.462	18332.73
624.656	18009.15
624.851	18005.06
625.046	17912.9
625.24	17783.88
625.435	17704.01
625.629	17454.15
625.824	17165.39
626.018	17372.24
626.213	17396.81
626.407	17024.08
626.602	17042.51
626.796	16839.76
626.991	17030.23
627.185	16903.25
627.38	16544.86
627.574	16370.78
627.768	16546.9
627.963	16356.44
628.157	16354.4
628.352	16403.55
628.546	16180.32
628.74	16319.58
628.935	15873.12
629.129	16071.78
629.323	15778.92
629.517	15854.69
629.712	15592.55
629.906	15936.61
630.1	15533.16
630.294	15514.73
630.489	15367.27
630.683	15443.05
630.877	15338.6
631.071	15172.72
631.265	15221.87
631.459	14951.54
631.653	14918.77
631.848	14931.06
632.042	14718.07
632.236	14847.09
632.43	14632.05
632.624	14519.42
632.818	14320.76
633.012	14468.22
633.206	14326.91
633.4	14216.32
633.594	14177.4
633.788	14251.13
633.982	14240.89
634.176	14361.72
634.369	13859.97
634.563	13765.76
634.757	13808.77
634.951	13601.93
635.145	13733
635.339	13745.28
635.533	13534.34
635.726	13644.93
635.92	13493.38
636.114	13282.44
636.308	13231.24
636.501	13280.39
636.695	13241.48
636.889	13079.69
637.083	12909.71
637.276	12899.47
637.47	12768.4
637.664	12711.06
637.857	12633.24
638.051	12698.77
638.244	12600.47
638.438	12504.21
638.632	12430.49
638.825	12293.27
639.019	12178.59
639.212	12375.19
639.406	12272.79
639.599	12117.15
639.793	12082.33
639.986	11928.74
640.18	12051.61
640.373	11953.31
640.567	11760.8
640.76	11791.52
640.954	11611.3
641.147	11732.13
641.34	11488.42
641.534	11644.07
641.727	11318.44
641.92	11496.61
642.114	11412.65
642.307	11451.56
642.5	11187.37
642.694	11160.75
642.887	11076.78
643.08	11068.59
643.273	11107.5
643.467	11054.25
643.66	10880.18
643.853	10749.11
644.046	10775.73
644.239	10798.26
644.432	10468.53
644.626	10486.97
644.819	10519.73
645.012	10513.59
645.205	10476.73
645.398	10515.64
645.591	10282.17
645.784	10241.21
645.977	10126.52
646.17	10151.1
646.363	10237.11
646.556	9962.69
646.749	9954.49
646.942	10163.39
647.135	10005.69
647.328	9766.08
647.521	9979.07
647.714	9561.28
647.907	9534.66
648.099	9657.54
648.292	9528.52
648.485	9606.34
648.678	9579.72
648.871	9465.03
649.064	9274.57
649.256	9422.02
649.449	9368.77
649.642	9200.84
649.835	9084.11
650.027	9184.46
650.22	9069.77
650.413	9063.63
650.605	9129.16
650.798	8950.99
650.991	8983.76
651.183	8799.44
651.376	8873.17
651.568	8781.01
651.761	8654.03
651.954	8707.28
652.146	8742.1
652.339	8559.83
652.531	8594.64
652.724	8545.49
652.916	8455.38
653.109	8439
653.301	8355.03
653.494	8301.78
653.686	8152.28
653.879	8285.4
654.071	8238.3
654.263	8101.08
654.456	8103.13
654.648	8041.69
654.84	8029.4
655.033	7984.35
655.225	8064.22
655.417	7990.49
655.61	7830.75
655.802	7884
655.994	7781.6
656.186	7759.07
656.379	7787.74
656.571	7761.12
656.763	7611.62
656.955	7640.29
657.148	7601.38
657.34	7560.42
657.532	7447.78
657.724	7515.36
657.916	7376.1
658.108	7257.32
658.3	7343.33
658.492	7349.48
658.684	7177.45
658.876	7161.06
659.068	7222.5
659.26	7087.34
659.452	7154.92
659.644	7181.54
659.836	7163.11
660.028	7134.44
660.22	6880.49
660.412	6950.12
660.604	6853.87
660.796	6876.4
660.988	6927.6
661.18	6751.47
661.372	6714.61
661.563	6810.86
661.755	6644.98
661.947	6753.52
662.139	6554.87
662.331	6671.6
662.522	6655.22
662.714	6657.26
662.906	6431.99
663.097	6421.75
663.289	6352.12
663.481	6429.94
663.673	6358.26
663.864	6348.02
664.056	6214.9
664.247	6399.22
664.439	6225.14
664.631	6137.08
664.822	6278.39
665.014	6051.06
665.205	6139.13
665.397	5917.95
665.588	6051.06
665.78	6094.07
665.971	6147.32
666.163	6108.41
666.354	5930.23
666.546	5911.8
666.737	5842.17
666.929	5940.47
667.12	5901.56
667.311	5881.08
667.503	5670.14
667.694	5801.21
667.885	5698.81
668.077	5604.61
668.268	5631.23
668.459	5741.82
668.651	5532.93
668.842	5549.31
669.033	5354.76
669.224	5399.81
669.416	5518.59
669.607	5475.59
669.798	5436.67
669.989	5547.26
670.18	5438.72
670.371	5559.55
670.563	5391.62
670.754	5338.37
670.945	5268.74
671.136	5203.21
671.327	5293.32
671.518	5141.77
671.709	5451.01
671.9	5221.64
672.091	5287.17
672.282	5362.95
672.473	5199.11
672.664	5113.1
672.855	5162.25
673.046	5131.53
673.237	4961.55
673.428	5170.44
673.619	4982.03
673.809	5049.61
674	5039.37
674.191	5068.04
674.382	4924.68
674.573	4975.88
674.764	4930.83
674.954	5158.15
675.145	4904.2
675.336	4926.73
675.527	4744.46
675.717	4879.63
675.908	4810
676.099	4865.29
676.289	4842.76
676.48	4699.41
676.671	4850.96
676.861	4818.19
677.052	4859.15
677.243	4496.66
677.433	4762.89
677.624	4719.89
677.814	4523.28
678.005	4648.21
678.195	4711.69
678.386	4660.49
678.576	4558.1
678.767	4621.58
678.957	4523.28
679.148	4588.82
679.338	4564.24
679.529	4652.3
679.719	4527.38
679.909	4623.63
680.1	4719.89
680.29	4527.38
680.481	4551.95
680.671	4451.6
680.861	4494.61
681.052	4484.37
681.242	4506.9
681.432	4433.17
681.622	4234.52
681.813	4443.41
682.003	4355.35
682.193	4371.73
682.383	4492.56
682.573	4318.48
682.764	4351.25
682.954	4265.24
683.144	4279.57
683.334	4281.62
683.524	4336.92
683.714	4394.26
683.904	4269.33
684.094	4173.08
684.284	4420.88
684.474	4252.95
684.664	4220.18
684.854	4279.57
685.044	4252.95
685.234	4283.67
685.424	4230.42
685.614	4152.6
685.804	4117.78
685.994	4187.41
686.184	4220.18
686.374	4011.29
686.564	4072.73
686.753	3949.85
686.943	3984.66
687.133	4152.6
687.323	4115.73
687.513	4009.24
687.702	3843.35
687.892	3919.13
688.082	3900.7
688.272	3894.55
688.461	3863.83
688.651	3806.49
688.841	3859.74
689.03	3800.35
689.22	3908.89
689.41	3826.97
689.599	3892.51
689.789	3796.25
689.979	3755.29
690.168	3749.15
690.358	3687.71
690.547	3724.57
690.737	3523.87
690.926	3683.61
691.116	3636.51
691.305	3650.85
691.495	3581.21
691.684	3562.78
691.874	3613.98
692.063	3552.54
692.252	3564.83
692.442	3605.79
692.631	3560.73
692.82	3493.15
693.01	3599.65
693.199	3468.58
693.388	3462.43
693.578	3433.76
693.767	3577.12
693.956	3380.51
694.146	3454.24
694.335	3280.16
694.524	3351.84
694.713	3411.23
694.902	3298.59
695.092	3372.32
695.281	3304.74
695.47	3337.51
695.659	3331.36
695.848	3421.47
696.037	3335.46
696.226	3304.74
696.415	3165.48
696.604	3233.06
696.793	3296.55
696.982	3288.36
697.171	3101.99
697.36	3163.43
697.549	3228.96
697.738	3079.46
697.927	3245.35
698.116	3165.48
698.305	3161.38
698.494	3077.41
698.683	3167.52
698.872	3190.05
699.061	3147.05
699.25	3030.31
699.438	3063.08
699.627	3087.65
699.816	3169.57
700.005	3190.05
700.193	3155.24
700.382	3220.77
700.571	3036.45
700.76	3130.66
700.948	3087.65
701.137	3054.89
701.326	2979.11
701.514	3106.09
701.703	3048.74
701.892	3015.98
702.08	3081.51
702.269	3001.64
702.457	2848.04
702.646	3040.55
702.834	2876.71
703.023	3001.64
703.212	3046.69
703.4	2950.44
703.589	2911.53
703.777	2909.48
703.965	2966.82
704.154	2927.91
704.342	2927.91
704.531	2942.25
704.719	2944.3
704.907	2923.82
705.096	2909.48
705.284	2917.67
705.472	2911.53
705.661	2966.82
705.849	2952.49
706.037	2852.14
706.226	3108.13
706.414	3007.78
706.602	2843.95
706.79	2950.44
706.979	3015.98
707.167	2831.66
707.355	2766.12
707.543	2893.1
707.731	2768.17
707.919	2788.65
708.107	2737.45
708.296	2749.74
708.484	2696.49
708.672	2850.09
708.86	2753.84
709.048	2815.27
709.236	2819.37
709.424	2811.18
709.612	2753.84
709.8	2749.74
709.988	2755.88
710.176	2893.1
710.364	2782.51
710.551	2739.5
710.739	2807.08
710.927	2706.73
711.115	2733.36
711.303	2778.41
711.491	2821.42
711.679	2780.46
711.866	2772.27
712.054	2663.72
712.242	2735.4
712.43	2868.52
712.617	2852.14
712.805	2729.26
712.993	2704.68
713.181	2676.01
713.368	2823.47
713.556	2684.2
713.744	2553.13
713.931	2723.12
714.119	2727.21
714.306	2590
714.494	2673.96
714.682	2739.5
714.869	2700.59
715.057	2723.12
715.244	2729.26
715.432	2616.62
715.619	2641.2
715.807	2581.81
715.994	2749.74
716.182	2594.09
716.369	2643.24
716.556	2673.96
716.744	2565.42
716.931	2657.58
717.119	2592.05
717.306	2684.2
717.493	2530.61
717.681	2741.55
717.868	2587.95
718.055	2532.65
718.242	2721.07
718.43	2536.75
718.617	2493.74
718.804	2663.72
718.991	2587.95
719.179	2575.66
719.366	2665.77
719.553	2616.62
719.74	2516.27
719.927	2544.94
720.114	2610.48
720.301	2647.34
720.488	2620.72
720.676	2483.5
720.863	2534.7
721.05	2581.81
721.237	2489.65
721.424	2544.94
721.611	2596.14
721.798	2446.64
721.985	2630.96
722.172	2573.61
722.358	2573.61
722.545	2444.59
722.732	2415.92
722.919	2573.61
723.106	2489.65
723.293	2415.92
723.48	2655.53
723.667	2430.26
723.853	2544.94
724.04	2557.23
724.227	2520.37
724.414	2491.7
724.6	2549.04
724.787	2618.67
724.974	2549.04
725.161	2344.24
725.347	2463.02
725.534	2399.54
725.72	2417.97
725.907	2491.7
726.094	2524.46
726.28	2383.15
726.467	2516.27
726.653	2434.35
726.84	2483.5
727.027	2530.61
727.213	2514.22
727.4	2379.06
727.586	2454.83
727.773	2483.5
727.959	2346.29
728.145	2340.15
728.332	2352.43
728.518	2413.87
728.705	2460.98
728.891	2477.36
729.077	2336.05
729.264	2549.04
729.45	2409.78
729.636	2463.02
729.823	2438.45
730.009	2379.06
730.195	2360.63
730.382	2417.97
730.568	2426.16
730.754	2463.02
730.94	2381.1
731.126	2422.06
731.313	2460.98
731.499	2243.89
731.685	2458.93
731.871	2368.82
732.057	2348.34
732.243	2420.02
732.429	2397.49
732.615	2401.58
732.801	2274.61
732.987	2426.16
733.173	2440.5
733.359	2397.49
733.545	2254.13
733.731	2313.52
733.917	2342.19
734.103	2280.75
734.289	2360.63
734.475	2393.39
734.661	2282.8
734.847	2422.06
735.033	2391.34
735.219	2364.72
735.404	2274.61
735.59	2395.44
735.776	2426.16
735.962	2237.75
736.148	2411.82
736.333	2370.87
736.519	2360.63
736.705	2303.28
736.89	2362.67
737.076	2295.09
737.262	2164.02
737.447	2272.56
737.633	2188.6
737.819	2313.52
738.004	2290.99
738.19	2313.52
738.375	2270.51
738.561	2256.18
738.747	2239.8
738.932	2186.55
739.118	2274.61
739.303	2327.86
739.489	2221.36
739.674	2178.36
739.859	2168.12
740.045	2309.43
740.23	2239.8
740.416	2127.16
740.601	2155.83
740.786	2184.5
740.972	2127.16
741.157	2295.09
741.342	2104.63
741.528	2198.84
741.713	2247.99
741.898	2131.25
742.084	2041.14
742.269	1955.13
742.454	1996.09
742.639	2065.72
742.824	2024.76
743.01	2084.15
743.195	2147.64
743.38	2024.76
743.565	2082.1
743.75	2094.39
743.935	2026.81
744.12	2127.16
744.305	2139.44
744.49	1991.99
744.675	1908.02
744.86	1942.84
745.045	2041.14
745.23	1942.84
745.415	1975.61
745.6	2073.91
745.785	1920.31
745.97	1793.34
746.155	1987.89
746.34	1987.89
746.525	1959.22
746.71	1885.5
746.895	1953.08
747.079	1875.26
747.264	1848.63
747.449	1811.77
747.634	1770.81
747.819	1836.35
748.003	2010.42
748.188	1819.96
748.373	1803.58
748.557	1830.2
748.742	1740.09
748.927	1764.67
749.111	1754.43
749.296	1727.8
749.481	1705.28
749.665	1756.47
749.85	1676.6
750.034	1631.55
750.219	1664.32
750.404	1688.89
750.588	1709.37
750.773	1678.65
750.957	1664.32
751.141	1637.69
751.326	1594.68
751.51	1602.88
751.695	1617.21
751.879	1627.45
752.064	1531.2
752.248	1563.97
752.432	1617.21
752.617	1606.97
752.801	1652.03
752.985	1525.05
753.17	1488.19
753.354	1477.95
753.538	1590.59
753.722	1467.71
753.907	1516.86
754.091	1387.84
754.275	1381.7
754.459	1430.85
754.643	1480
754.828	1422.66
755.012	1428.8
755.196	1467.71
755.38	1350.98
755.564	1387.84
755.748	1322.31
755.932	1344.83
756.116	1393.98
756.3	1301.83
756.484	1250.63
756.668	1369.41
756.852	1361.22
757.036	1269.06
757.22	1332.54
757.404	1271.11
757.588	1183.04
757.772	1297.73
757.956	1373.5
758.14	1318.21
758.323	1275.2
758.507	1221.95
758.691	1232.19
758.875	1267.01
759.059	1230.15
759.242	1310.02
759.426	1281.35
759.61	1176.9
759.794	1107.27
759.977	1207.62
760.161	1174.85
760.345	1236.29
760.528	1191.24
760.712	1181
760.895	1119.56
761.079	1103.17
761.263	1019.21
761.446	1066.31
761.63	1148.23
761.813	1054.02
761.997	1084.74
762.18	1129.8
762.364	1172.8
762.547	1078.6
762.731	1064.26
762.914	1107.27
763.098	1051.97
763.281	1076.55
763.464	1062.21
763.648	1086.79
763.831	1092.93
764.015	1041.73
764.198	1066.31
764.381	1058.12
764.564	1039.69
764.748	890.18
764.931	1080.64
765.114	1008.97
765.297	1099.08
765.481	906.57
765.664	955.72
765.847	959.81
766.03	1025.35
766.213	1041.73
766.397	976.2
766.58	1008.97
766.763	974.15
766.946	988.49
767.129	978.25
767.312	931.14
767.495	910.66
767.678	886.09
767.861	994.63
768.044	894.28
768.227	943.43
768.41	902.47
768.593	922.95
768.776	984.39
768.959	968.01
769.142	888.14
769.324	925
769.507	845.13
769.69	922.95
769.873	920.9
770.056	873.8
770.239	918.86
770.421	976.2
770.604	918.86
770.787	836.94
770.97	820.55
771.152	761.16
771.335	757.07
771.518	828.74
771.7	841.03
771.883	898.38
772.066	892.23
772.248	879.94
772.431	849.22
772.613	814.41
772.796	755.02
772.978	814.41
773.161	869.7
773.343	830.79
773.526	834.89
773.708	648.52
773.891	869.7
774.073	755.02
774.256	755.02
774.438	828.74
774.621	855.37
774.803	763.21
774.985	732.49
775.168	795.98
775.35	687.43
775.532	691.53
775.715	795.98
775.897	652.62
776.079	707.91
776.261	691.53
776.444	787.79
776.626	638.28
776.808	677.19
776.99	650.57
777.173	550.22
777.355	726.35
777.537	619.85
777.719	664.91
777.901	632.14
778.083	693.58
778.265	601.42
778.447	691.53
778.629	613.71
778.811	722.25
778.993	675.15
779.175	603.47
779.357	681.29
779.539	632.14
779.721	648.52
779.903	677.19
780.085	544.08
780.267	599.37
780.449	552.27
780.631	566.6
780.812	501.07
780.994	607.56
781.176	603.47
781.358	562.51
781.54	546.12
781.721	496.97
781.903	535.89
782.085	525.65
782.267	533.84
782.448	501.07
782.63	517.45
782.812	509.26
782.993	521.55
783.175	570.7
783.357	552.27
783.538	443.73
783.72	413.01
783.901	533.84
784.083	494.93
784.264	494.93
784.446	578.89
784.627	468.3
784.809	451.92
784.99	472.4
785.172	482.64
785.353	486.73
785.535	509.26
785.716	453.97
785.897	419.15
786.079	476.49
786.26	443.73
786.441	439.63
786.623	347.47
786.804	462.16
786.985	423.25
787.167	537.93
787.348	372.05
787.529	417.1
787.71	578.89
787.891	464.21
788.073	396.62
788.254	382.29
788.435	437.58
788.616	488.78
788.797	378.19
788.978	521.55
789.159	288.08
789.34	314.7
789.522	382.29
789.703	343.38
789.884	345.42
790.065	382.29
790.246	349.52
790.427	370
790.607	419.15
790.788	415.06
790.969	384.34
791.15	363.86
791.331	337.23
791.512	372.05
791.693	306.51
791.874	378.19
792.054	417.1
792.235	361.81
792.416	279.89
792.597	359.76
792.778	396.62
792.958	353.62
793.139	372.05
793.32	410.96
793.5	349.52
793.681	378.19
793.862	374.1
794.042	353.62
794.223	308.56
794.404	296.27
794.584	286.03
794.765	263.51
794.945	326.99
795.126	322.9
795.306	314.7
795.487	308.56
795.667	335.18
795.848	372.05
796.028	322.9
796.209	302.42
796.389	267.6
796.57	355.66
796.75	281.94
796.93	367.95
797.111	273.75
797.291	288.08
797.471	386.38
797.652	240.98
797.832	275.79
798.012	273.75
798.192	251.22
798.373	304.46
798.553	269.65
798.733	247.12
798.913	310.61
799.093	214.35
799.274	191.83
799.454	249.17
799.634	222.55
799.814	261.46
799.994	243.03
800.174	337.23
800.354	283.98
800.534	257.36
800.714	288.08
800.894	169.3
801.074	189.78
801.254	281.94
801.434	224.59
801.614	206.16
801.794	144.72
801.974	748.87
802.154	230.74
802.334	267.6
802.514	261.46
802.693	296.27
802.873	197.97
803.053	255.31
803.233	261.46
803.413	228.69
803.592	197.97
803.772	247.12
803.952	210.26
804.131	193.87
804.311	271.7
804.491	218.45
804.67	191.83
804.85	183.63
805.03	222.55
805.209	185.68
805.389	202.07
805.568	240.98
805.748	204.11
805.928	181.59
806.107	212.31
806.287	234.83
806.466	189.78
806.646	191.83
806.825	148.82
807.004	243.03
807.184	189.78
807.363	224.59
807.543	251.22
807.722	103.76
807.901	255.31
808.081	157.01
808.26	116.05
808.439	304.46
808.619	247.12
808.798	157.01
808.977	226.64
809.156	238.93
809.336	189.78
809.515	175.44
809.694	179.54
809.873	148.82
810.052	197.97
810.231	255.31
810.411	224.59
810.59	226.64
810.769	173.39
810.948	169.3
811.127	99.67
811.306	148.82
811.485	167.25
811.664	138.58
811.843	152.91
812.022	152.91
812.201	128.34
812.38	189.78
812.559	159.06
812.737	150.87
812.916	93.52
813.095	120.15
813.274	195.92
813.453	148.82
813.632	87.38
813.811	152.91
813.989	144.72
814.168	251.22
814.347	197.97
814.526	146.77
814.704	157.01
814.883	177.49
815.062	101.72
815.24	140.63
815.419	148.82
815.598	208.21
815.776	144.72
815.955	169.3
816.133	99.67
816.312	181.59
816.49	118.1
816.669	62.8
816.847	107.86
817.026	124.24
817.204	128.34
817.383	138.58
817.561	124.24
817.74	132.44
817.918	148.82
818.097	116.05
818.275	101.72
818.453	126.29
818.632	148.82
818.81	157.01
818.988	210.26
819.167	136.53
819.345	132.44
819.523	163.15
819.701	144.72
819.879	177.49
820.058	136.53
820.236	109.91
820.414	148.82
820.592	136.53
820.77	138.58
820.948	116.05
821.127	132.44
821.305	148.82
821.483	130.39
821.661	75.09
821.839	128.34
822.017	116.05
822.195	132.44
822.373	116.05
822.551	124.24
822.729	120.15
822.907	126.29
823.085	144.72
823.262	142.68
823.44	197.97
823.618	91.48
823.796	165.2
823.974	140.63
824.152	85.33
824.329	91.48
824.507	150.87
824.685	91.48
824.863	103.76
825.04	148.82
825.218	134.48
825.396	68.95
825.574	1.37
825.751	140.63
825.929	71
826.107	52.56
826.284	101.72
826.462	111.96
826.639	17.75
826.817	95.57
826.994	130.39
827.172	79.19
827.349	208.21
827.527	103.76
827.704	54.61
827.882	101.72
828.059	150.87
828.237	99.67
828.414	148.82
828.591	60.76
828.769	97.62
828.946	66.9
829.124	116.05
829.301	99.67
829.478	71
829.655	109.91
829.833	132.44
830.01	79.19
830.187	23.89
830.364	109.91
830.542	120.15
830.719	91.48
830.896	124.24
831.073	91.48
831.25	54.61
831.427	21.85
831.604	138.58
831.782	134.48
831.959	83.28
832.136	42.32
832.313	124.24
832.49	175.44
832.667	107.86
832.844	36.18
833.021	85.33
833.198	99.67
833.374	157.01
833.551	71
833.728	85.33
833.905	77.14
834.082	27.99
834.259	42.32
834.436	83.28
834.612	91.48
834.789	91.48
834.966	79.19
835.143	136.53
835.319	126.29
835.496	111.96
835.673	185.68
835.85	126.29
836.026	60.76
836.203	42.32
836.38	25.94
836.556	105.81
836.733	42.32
836.909	136.53
837.086	34.13
837.262	25.94
837.439	52.56
837.616	107.86
837.792	93.52
837.968	124.24
838.145	58.71
838.321	107.86
838.498	140.63
838.674	93.52
838.851	200.02
839.027	58.71
839.203	60.76
839.38	-15.02
839.556	68.95
839.732	126.29
839.909	34.13
840.085	107.86
840.261	52.56
840.437	77.14
840.614	58.71
840.79	44.37
840.966	103.76
841.142	85.33
841.318	93.52
841.494	50.52
841.671	62.8
841.847	27.99
842.023	3.41
842.199	25.94
842.375	169.3
842.551	-60.07
842.727	38.23
842.903	124.24
843.079	56.66
843.255	19.8
843.431	66.9
843.607	64.85
843.783	58.71
843.959	93.52
844.134	-31.4
844.31	5.46
844.486	11.61
844.662	85.33
844.838	-4.78
845.013	120.15
845.189	58.71
845.365	42.32
845.541	44.37
845.716	75.09
845.892	144.72
846.068	77.14
846.244	-6.83
846.419	87.38
846.595	38.23
846.77	81.24
846.946	140.63
847.122	58.71
847.297	107.86
847.473	79.19
847.648	36.18
847.824	34.13
847.999	73.04
848.175	7.51
848.35	95.57
848.526	38.23
848.701	50.52
848.876	58.71
849.052	62.8
849.227	87.38
849.403	159.06
849.578	40.28
849.753	32.08
849.929	-27.31
850.104	-31.4
850.279	81.24
850.454	83.28
850.63	71
850.805	77.14
850.98	9.56
851.155	85.33
851.33	101.72
851.505	52.56
851.681	75.09
851.856	122.2
852.031	-19.11
852.206	73.04
852.381	19.8
852.556	44.37
852.731	42.32
852.906	50.52
853.081	11.61
853.256	56.66
853.431	36.18
853.606	-23.21
853.781	46.42
853.956	50.52
854.131	91.48
854.305	34.13
854.48	30.04
854.655	116.05
854.83	73.04
855.005	-19.11
855.18	126.29
855.354	-0.68
855.529	52.56
855.704	25.94
855.879	118.1
856.053	50.52
856.228	34.13
856.403	-2.73
856.577	85.33
856.752	52.56
856.926	71
857.101	32.08
857.276	-6.83
857.45	68.95
857.625	62.8
857.799	68.95
857.974	5.46
858.148	19.8
858.323	68.95
858.497	-2.73
858.672	44.37
858.846	19.8
859.02	25.94
859.195	25.94
859.369	42.32
859.543	87.38
859.718	34.13
859.892	105.81
860.066	46.42
860.241	75.09
860.415	1.37
860.589	3.41
860.763	7.51
860.938	19.8
861.112	38.23
861.286	71
861.46	68.95
861.634	21.85
861.808	62.8
861.982	77.14
862.157	9.56
862.331	36.18
862.505	38.23
862.679	17.75
862.853	50.52
863.027	73.04
863.201	25.94
863.375	17.75
863.549	21.85
863.722	34.13
863.896	60.76
864.07	-64.17
864.244	60.76
864.418	27.99
864.592	50.52
864.766	-8.87
864.939	60.76
865.113	21.85
865.287	111.96
865.461	-15.02
865.634	46.42
865.808	19.8
865.982	58.71
866.156	36.18
866.329	-15.02
866.503	34.13
866.676	58.71
866.85	44.37
867.024	19.8
867.197	132.44
867.371	25.94
867.544	54.61
867.718	21.85
867.891	17.75
868.065	42.32
868.238	58.71
868.412	19.8
868.585	15.7
868.759	66.9
868.932	-31.4
869.105	36.18
869.279	34.13
869.452	25.94
869.625	32.08
869.799	66.9
869.972	42.32
870.145	50.52
870.319	13.65
870.492	11.61
870.665	62.8
870.838	38.23
871.011	21.85
871.185	25.94
871.358	95.57
871.531	-37.55
871.704	36.18
871.877	40.28
872.05	9.56
872.223	-27.31
872.396	36.18
872.569	46.42
872.742	-23.21
872.915	99.67
873.088	-72.36
873.261	56.66
873.434	17.75
873.607	17.75
873.78	38.23
873.953	19.8
874.126	-31.4
874.299	73.04
874.471	77.14
874.644	50.52
874.817	114
874.99	75.09
875.163	27.99
875.335	66.9
875.508	81.24
875.681	116.05
875.853	36.18
876.026	11.61
876.199	27.99
876.371	25.94
876.544	58.71
876.717	25.94
876.889	-6.83
877.062	42.32
877.234	36.18
877.407	44.37
877.579	34.13
877.752	87.38
877.924	25.94
878.097	-8.87
878.269	75.09
878.442	23.89
878.614	23.89
878.786	44.37
878.959	32.08
879.131	93.52
879.303	-4.78
879.476	50.52
879.648	58.71
879.82	11.61
879.993	-45.74
880.165	1.37
880.337	42.32
880.509	-2.73
880.681	-39.59
880.854	60.76
881.026	68.95
881.198	44.37
881.37	-6.83
881.542	3.41
881.714	52.56
881.886	42.32
882.058	21.85
882.23	-12.97
882.402	107.86
882.574	17.75
882.746	40.28
882.918	54.61
883.09	3.41
883.262	25.94
883.434	-21.16
883.606	-12.97
883.778	58.71
883.95	46.42
884.122	-0.68
884.293	91.48
884.465	71
884.637	66.9
884.809	7.51
884.98	77.14
885.152	101.72
885.324	36.18
885.496	7.51
885.667	85.33
885.839	1.37
886.011	95.57
886.182	19.8
886.354	32.08
886.525	44.37
886.697	50.52
886.869	42.32
887.04	107.86
887.212	11.61
887.383	25.94
887.555	-58.03
887.726	5.46
887.897	36.18
888.069	-10.92
888.24	-6.83
888.412	21.85
888.583	5.46
888.754	66.9
888.926	34.13
889.097	30.04
889.268	-39.59
889.44	21.85
889.611	-6.83
889.782	54.61
889.953	79.19
890.125	46.42
890.296	-17.07
890.467	1.37
890.638	-31.4
890.809	-17.07
890.98	-4.78
891.151	-47.79
891.323	77.14
891.494	46.42
891.665	46.42
891.836	38.23
892.007	27.99
892.178	122.2
892.349	9.56
892.52	13.65
892.691	-8.87
892.862	50.52
893.032	23.89
893.203	-23.21
893.374	13.65
893.545	-15.02
893.716	-23.21
893.887	17.75
894.057	50.52
894.228	34.13
894.399	46.42
894.57	38.23
894.74	9.56
894.911	32.08
895.082	-35.5
895.253	34.13
895.423	25.94
895.594	1.37
895.764	19.8
895.935	1.37
896.106	107.86
896.276	19.8
896.447	-21.16
896.617	-4.78
896.788	-29.35
896.958	-10.92
897.129	27.99
897.299	17.75
897.47	66.9
897.64	23.89
897.81	-10.92
897.981	30.04
898.151	-10.92
898.322	3.41
898.492	58.71
898.662	34.13
898.832	30.04
899.003	11.61
899.173	52.56
899.343	-29.35
899.513	-39.59
