Data from USB4F104151__37__14-16-40-289.txt Node

Date: Thu Mar 13 14:16:40 EDT 2025
User: louis
Spectrometer: USB4F10415
Trigger mode: 4
Integration Time (sec): 2.000000E-2
Scans to average: 1
Electric dark correction enabled: true
Nonlinearity correction enabled: false
Boxcar width: 0
XAxis mode: Wavelengths
Number of Pixels in Spectrum: 3648
>>>>>Begin Spectral Data<<<<<
178.204	-95.06
178.424	-95.06
178.644	-95.06
178.864	-119.64
179.084	-72.53
179.304	-25.43
179.524	-27.48
179.744	-29.52
179.964	50.35
180.184	-17.24
180.404	21.67
180.624	15.53
180.844	-9.05
181.064	-13.14
181.283	-9.05
181.503	-4.95
181.723	48.3
181.943	31.91
182.163	87.21
182.383	13.48
182.602	36.01
182.822	27.82
183.042	13.48
183.262	-21.33
183.482	60.59
183.701	-52.05
183.921	36.01
184.141	21.67
184.361	64.68
184.58	-39.76
184.8	54.44
185.02	-21.33
185.239	52.39
185.459	29.87
185.679	11.43
185.898	-66.39
186.118	76.97
186.338	-23.38
186.557	13.48
186.777	19.63
186.997	109.74
187.216	85.16
187.436	46.25
187.655	17.58
187.875	111.78
188.095	85.16
188.314	74.92
188.534	19.63
188.753	89.26
188.973	11.43
189.192	101.55
189.412	54.44
189.631	17.58
189.851	42.15
190.07	111.78
190.29	-9.05
190.509	21.67
190.729	7.34
190.948	27.82
191.168	144.55
191.387	48.3
191.607	-39.76
191.826	44.2
192.045	48.3
192.265	93.35
192.484	36.01
192.704	64.68
192.923	23.72
193.142	76.97
193.362	40.11
193.581	95.4
193.8	60.59
194.02	74.92
194.239	85.16
194.458	21.67
194.678	-9.05
194.897	3.24
195.116	93.35
195.335	33.96
195.555	64.68
195.774	-37.72
195.993	27.82
196.212	25.77
196.432	19.63
196.651	7.34
196.87	33.96
197.089	152.74
197.308	46.25
197.528	25.77
197.747	-19.29
197.966	99.5
198.185	9.39
198.404	25.77
198.623	-21.33
198.842	40.11
199.062	66.73
199.281	79.02
199.5	19.63
199.719	36.01
199.938	9.39
200.157	48.3
200.376	-19.29
200.595	81.07
200.814	76.97
201.033	29.87
201.252	72.87
201.471	76.97
201.69	72.87
201.909	87.21
202.128	101.55
202.347	68.78
202.566	27.82
202.785	68.78
203.004	-86.87
203.223	68.78
203.442	21.67
203.661	64.68
203.879	19.63
204.098	54.44
204.317	21.67
204.536	68.78
204.755	27.82
204.974	21.67
205.193	101.55
205.411	126.12
205.63	7.34
205.849	93.35
206.068	-7
206.287	-23.38
206.505	64.68
206.724	-19.29
206.943	79.02
207.162	105.64
207.381	36.01
207.599	5.29
207.818	105.64
208.037	76.97
208.255	-39.76
208.474	21.67
208.693	72.87
208.911	62.63
209.13	7.34
209.349	97.45
209.567	-52.05
209.786	70.83
210.005	115.88
210.223	-4.95
210.442	-39.76
210.661	-15.19
210.879	36.01
211.098	21.67
211.316	13.48
211.535	38.06
211.753	52.39
211.972	60.59
212.191	27.82
212.409	-17.24
212.628	60.59
212.846	-7
213.065	62.63
213.283	44.2
213.502	58.54
213.72	150.7
213.938	-13.14
214.157	44.2
214.375	79.02
214.594	27.82
214.812	64.68
215.031	138.41
215.249	101.55
215.467	29.87
215.686	60.59
215.904	64.68
216.122	38.06
216.341	44.2
216.559	-0.85
216.778	85.16
216.996	44.2
217.214	60.59
217.432	-62.29
217.651	-0.85
217.869	62.63
218.087	122.02
218.306	46.25
218.524	21.67
218.742	36.01
218.96	109.74
219.179	36.01
219.397	15.53
219.615	46.25
219.833	52.39
220.051	99.5
220.27	140.46
220.488	38.06
220.706	81.07
220.924	68.78
221.142	11.43
221.36	48.3
221.578	79.02
221.796	97.45
222.015	23.72
222.233	42.15
222.451	70.83
222.669	-29.52
222.887	21.67
223.105	23.72
223.323	-4.95
223.541	-17.24
223.759	44.2
223.977	-0.85
224.195	27.82
224.413	72.87
224.631	79.02
224.849	109.74
225.067	50.35
225.285	25.77
225.503	64.68
225.721	-45.91
225.939	64.68
226.157	3.24
226.375	64.68
226.592	-9.05
226.81	48.3
227.028	46.25
227.246	85.16
227.464	19.63
227.682	76.97
227.9	60.59
228.117	89.26
228.335	183.46
228.553	33.96
228.771	68.78
228.989	29.87
229.206	27.82
229.424	-13.14
229.642	44.2
229.86	-11.09
230.077	95.4
230.295	27.82
230.513	44.2
230.731	70.83
230.948	113.83
231.166	21.67
231.384	48.3
231.601	-17.24
231.819	105.64
232.037	31.91
232.254	-17.24
232.472	40.11
232.689	52.39
232.907	40.11
233.125	3.24
233.342	64.68
233.56	48.3
233.777	15.53
233.995	21.67
234.213	38.06
234.43	46.25
234.648	81.07
234.865	52.39
235.083	89.26
235.3	21.67
235.518	5.29
235.735	70.83
235.953	169.13
236.17	11.43
236.388	50.35
236.605	46.25
236.822	122.02
237.04	13.48
237.257	48.3
237.475	40.11
237.692	-19.29
237.909	3.24
238.127	44.2
238.344	44.2
238.562	72.87
238.779	21.67
238.996	3.24
239.214	60.59
239.431	87.21
239.648	70.83
239.865	74.92
240.083	38.06
240.3	70.83
240.517	13.48
240.735	68.78
240.952	109.74
241.169	171.18
241.386	79.02
241.603	44.2
241.821	1.19
242.038	54.44
242.255	93.35
242.472	27.82
242.689	23.72
242.907	7.34
243.124	29.87
243.341	38.06
243.558	21.67
243.775	46.25
243.992	-52.05
244.209	70.83
244.426	162.98
244.643	31.91
244.86	44.2
245.078	-68.44
245.295	3.24
245.512	113.83
245.729	-15.19
245.946	60.59
246.163	72.87
246.38	46.25
246.597	68.78
246.814	15.53
247.031	11.43
247.248	134.31
247.464	3.24
247.681	25.77
247.898	19.63
248.115	93.35
248.332	-29.52
248.549	50.35
248.766	95.4
248.983	54.44
249.2	17.58
249.417	52.39
249.633	46.25
249.85	38.06
250.067	52.39
250.284	48.3
250.501	-7
250.717	9.39
250.934	11.43
251.151	72.87
251.368	60.59
251.585	11.43
251.801	44.2
252.018	56.49
252.235	23.72
252.451	-9.05
252.668	40.11
252.885	46.25
253.102	36.01
253.318	44.2
253.535	85.16
253.752	-13.14
253.968	13.48
254.185	11.43
254.401	111.78
254.618	87.21
254.835	13.48
255.051	134.31
255.268	56.49
255.484	54.44
255.701	21.67
255.917	87.21
256.134	-43.86
256.351	19.63
256.567	17.58
256.784	62.63
257	5.29
257.217	66.73
257.433	101.55
257.65	68.78
257.866	46.25
258.082	-4.95
258.299	68.78
258.515	-25.43
258.732	29.87
258.948	17.58
259.165	122.02
259.381	126.12
259.597	19.63
259.814	42.15
260.03	103.59
260.246	36.01
260.463	152.74
260.679	105.64
260.895	7.34
261.112	33.96
261.328	72.87
261.544	36.01
261.761	144.55
261.977	19.63
262.193	111.78
262.409	48.3
262.626	36.01
262.842	95.4
263.058	1.19
263.274	48.3
263.49	-37.72
263.707	54.44
263.923	48.3
264.139	50.35
264.355	99.5
264.571	68.78
264.787	44.2
265.004	-2.9
265.22	33.96
265.436	40.11
265.652	52.39
265.868	87.21
266.084	-2.9
266.3	50.35
266.516	5.29
266.732	36.01
266.948	33.96
267.164	31.91
267.38	11.43
267.596	-19.29
267.812	99.5
268.028	31.91
268.244	23.72
268.46	60.59
268.676	42.15
268.892	97.45
269.108	40.11
269.324	7.34
269.54	23.72
269.756	74.92
269.972	-21.33
270.188	-21.33
270.403	3.24
270.619	60.59
270.835	23.72
271.051	46.25
271.267	36.01
271.483	99.5
271.698	42.15
271.914	19.63
272.13	46.25
272.346	29.87
272.562	68.78
272.777	85.16
272.993	111.78
273.209	-17.24
273.425	85.16
273.64	44.2
273.856	27.82
274.072	52.39
274.287	-4.95
274.503	81.07
274.719	60.59
274.934	56.49
275.15	1.19
275.366	44.2
275.581	-9.05
275.797	-27.48
276.012	52.39
276.228	-33.62
276.444	76.97
276.659	72.87
276.875	-19.29
277.09	46.25
277.306	46.25
277.521	103.59
277.737	79.02
277.952	50.35
278.168	11.43
278.383	56.49
278.599	93.35
278.814	11.43
279.03	-37.72
279.245	48.3
279.461	83.11
279.676	62.63
279.892	13.48
280.107	7.34
280.322	3.24
280.538	-9.05
280.753	150.7
280.969	111.78
281.184	52.39
281.399	158.89
281.615	58.54
281.83	27.82
282.045	27.82
282.26	3.24
282.476	-7
282.691	101.55
282.906	158.89
283.122	1.19
283.337	13.48
283.552	31.91
283.767	29.87
283.983	150.7
284.198	38.06
284.413	42.15
284.628	103.59
284.843	31.91
285.058	72.87
285.274	52.39
285.489	-4.95
285.704	13.48
285.919	36.01
286.134	70.83
286.349	68.78
286.564	54.44
286.779	46.25
286.995	81.07
287.21	29.87
287.425	44.2
287.64	-2.9
287.855	56.49
288.07	64.68
288.285	62.63
288.5	48.3
288.715	38.06
288.93	27.82
289.145	-11.09
289.36	85.16
289.575	60.59
289.79	93.35
290.004	68.78
290.219	44.2
290.434	-21.33
290.649	-25.43
290.864	60.59
291.079	-11.09
291.294	27.82
291.509	11.43
291.724	-7
291.938	46.25
292.153	64.68
292.368	36.01
292.583	3.24
292.798	68.78
293.012	50.35
293.227	11.43
293.442	-4.95
293.657	21.67
293.871	134.31
294.086	142.5
294.301	68.78
294.516	111.78
294.73	60.59
294.945	66.73
295.16	85.16
295.374	60.59
295.589	50.35
295.804	11.43
296.018	15.53
296.233	62.63
296.447	58.54
296.662	-27.48
296.877	52.39
297.091	56.49
297.306	31.91
297.52	-4.95
297.735	68.78
297.949	38.06
298.164	93.35
298.378	27.82
298.593	-21.33
298.807	-62.29
299.022	101.55
299.236	54.44
299.451	9.39
299.665	72.87
299.88	60.59
300.094	29.87
300.309	11.43
300.523	79.02
300.737	44.2
300.952	31.91
301.166	95.4
301.381	44.2
301.595	40.11
301.809	54.44
302.024	56.49
302.238	27.82
302.452	56.49
302.667	99.5
302.881	99.5
303.095	48.3
303.309	126.12
303.524	36.01
303.738	40.11
303.952	-2.9
304.166	33.96
304.381	3.24
304.595	105.64
304.809	40.11
305.023	64.68
305.237	79.02
305.452	33.96
305.666	-4.95
305.88	-0.85
306.094	54.44
306.308	50.35
306.522	158.89
306.736	27.82
306.95	60.59
307.164	27.82
307.379	-31.57
307.593	70.83
307.807	97.45
308.021	38.06
308.235	62.63
308.449	-13.14
308.663	60.59
308.877	52.39
309.091	54.44
309.305	38.06
309.519	9.39
309.733	31.91
309.947	44.2
310.161	58.54
310.374	48.3
310.588	76.97
310.802	33.96
311.016	-17.24
311.23	3.24
311.444	109.74
311.658	64.68
311.872	-27.48
312.085	60.59
312.299	25.77
312.513	31.91
312.727	101.55
312.941	74.92
313.154	109.74
313.368	52.39
313.582	124.07
313.796	87.21
314.009	105.64
314.223	109.74
314.437	62.63
314.651	81.07
314.864	-27.48
315.078	56.49
315.292	5.29
315.505	40.11
315.719	87.21
315.933	27.82
316.146	111.78
316.36	9.39
316.573	60.59
316.787	40.11
317.001	62.63
317.214	44.2
317.428	44.2
317.641	7.34
317.855	52.39
318.068	89.26
318.282	1.19
318.495	85.16
318.709	46.25
318.922	85.16
319.136	128.17
319.349	36.01
319.563	70.83
319.776	50.35
319.99	15.53
320.203	54.44
320.417	105.64
320.63	56.49
320.843	138.41
321.057	62.63
321.27	56.49
321.483	42.15
321.697	68.78
321.91	44.2
322.124	36.01
322.337	68.78
322.55	99.5
322.763	76.97
322.977	48.3
323.19	-7
323.403	122.02
323.617	68.78
323.83	76.97
324.043	50.35
324.256	85.16
324.469	19.63
324.683	36.01
324.896	52.39
325.109	-0.85
325.322	36.01
325.535	103.59
325.748	109.74
325.962	52.39
326.175	119.98
326.388	52.39
326.601	-29.52
326.814	13.48
327.027	36.01
327.24	117.93
327.453	109.74
327.666	70.83
327.879	68.78
328.092	93.35
328.305	11.43
328.518	21.67
328.731	95.4
328.944	56.49
329.157	93.35
329.37	38.06
329.583	-9.05
329.796	93.35
330.009	36.01
330.222	36.01
330.435	119.98
330.648	44.2
330.861	85.16
331.073	27.82
331.286	72.87
331.499	62.63
331.712	31.91
331.925	31.91
332.138	93.35
332.35	91.31
332.563	11.43
332.776	89.26
332.989	7.34
333.202	76.97
333.414	134.31
333.627	-13.14
333.84	93.35
334.053	52.39
334.265	46.25
334.478	13.48
334.691	-4.95
334.903	76.97
335.116	-45.91
335.329	81.07
335.541	38.06
335.754	62.63
335.966	76.97
336.179	87.21
336.392	3.24
336.604	48.3
336.817	101.55
337.029	103.59
337.242	13.48
337.454	54.44
337.667	70.83
337.88	167.08
338.092	101.55
338.305	76.97
338.517	36.01
338.729	48.3
338.942	76.97
339.154	-11.09
339.367	52.39
339.579	70.83
339.792	70.83
340.004	87.21
340.217	58.54
340.429	-2.9
340.641	85.16
340.854	36.01
341.066	60.59
341.278	128.17
341.491	46.25
341.703	107.69
341.915	-54.1
342.128	111.78
342.34	-7
342.552	-19.29
342.764	-19.29
342.977	33.96
343.189	85.16
343.401	46.25
343.613	-31.57
343.826	60.59
344.038	56.49
344.25	119.98
344.462	31.91
344.674	93.35
344.886	138.41
345.099	76.97
345.311	99.5
345.523	79.02
345.735	11.43
345.947	60.59
346.159	36.01
346.371	21.67
346.583	-11.09
346.795	169.13
347.007	31.91
347.219	113.83
347.431	52.39
347.643	212.14
347.855	33.96
348.067	72.87
348.279	21.67
348.491	60.59
348.703	31.91
348.915	-13.14
349.127	-19.29
349.339	126.12
349.551	19.63
349.763	27.82
349.975	76.97
350.187	60.59
350.399	19.63
350.61	93.35
350.822	81.07
351.034	85.16
351.246	85.16
351.458	79.02
351.669	66.73
351.881	56.49
352.093	13.48
352.305	72.87
352.517	83.11
352.728	85.16
352.94	101.55
353.152	29.87
353.363	-4.95
353.575	62.63
353.787	128.17
353.999	130.22
354.21	83.11
354.422	56.49
354.633	-13.14
354.845	5.29
355.057	76.97
355.268	109.74
355.48	44.2
355.692	21.67
355.903	54.44
356.115	36.01
356.326	-15.19
356.538	70.83
356.749	95.4
356.961	93.35
357.172	72.87
357.384	44.2
357.595	111.78
357.807	52.39
358.018	83.11
358.23	122.02
358.441	105.64
358.653	152.74
358.864	46.25
359.075	93.35
359.287	7.34
359.498	70.83
359.709	68.78
359.921	70.83
360.132	38.06
360.344	113.83
360.555	-2.9
360.766	138.41
360.977	76.97
361.189	5.29
361.4	111.78
361.611	79.02
361.823	105.64
362.034	29.87
362.245	62.63
362.456	52.39
362.667	60.59
362.879	29.87
363.09	48.3
363.301	148.65
363.512	124.07
363.723	27.82
363.935	33.96
364.146	56.49
364.357	11.43
364.568	46.25
364.779	-11.09
364.99	76.97
365.201	11.43
365.412	68.78
365.623	46.25
365.834	97.45
366.045	15.53
366.256	40.11
366.467	46.25
366.678	79.02
366.889	48.3
367.1	44.2
367.311	101.55
367.522	89.26
367.733	38.06
367.944	52.39
368.155	33.96
368.366	81.07
368.577	83.11
368.788	50.35
368.999	99.5
369.209	97.45
369.42	146.6
369.631	119.98
369.842	17.58
370.053	-2.9
370.264	79.02
370.474	38.06
370.685	33.96
370.896	107.69
371.107	54.44
371.317	54.44
371.528	52.39
371.739	54.44
371.95	31.91
372.16	52.39
372.371	29.87
372.582	5.29
372.792	89.26
373.003	29.87
373.214	109.74
373.424	54.44
373.635	105.64
373.846	60.59
374.056	85.16
374.267	52.39
374.477	142.5
374.688	85.16
374.898	134.31
375.109	81.07
375.319	126.12
375.53	160.94
375.74	66.73
375.951	105.64
376.161	136.36
376.372	138.41
376.582	89.26
376.793	97.45
377.003	-21.33
377.214	72.87
377.424	58.54
377.635	7.34
377.845	101.55
378.055	103.59
378.266	54.44
378.476	138.41
378.686	81.07
378.897	162.98
379.107	74.92
379.317	48.3
379.528	38.06
379.738	36.01
379.948	19.63
380.158	142.5
380.369	117.93
380.579	44.2
380.789	33.96
380.999	126.12
381.21	74.92
381.42	62.63
381.63	44.2
381.84	89.26
382.05	17.58
382.261	183.46
382.471	154.79
382.681	29.87
382.891	115.88
383.101	79.02
383.311	101.55
383.521	7.34
383.731	58.54
383.941	117.93
384.151	101.55
384.361	81.07
384.571	126.12
384.781	132.26
384.991	93.35
385.201	99.5
385.411	132.26
385.621	126.12
385.831	36.01
386.041	142.5
386.251	64.68
386.461	128.17
386.671	44.2
386.881	97.45
387.091	156.84
387.301	87.21
387.511	62.63
387.72	142.5
387.93	95.4
388.14	56.49
388.35	60.59
388.56	142.5
388.769	64.68
388.979	144.55
389.189	60.59
389.399	44.2
389.609	72.87
389.818	109.74
390.028	111.78
390.238	101.55
390.447	38.06
390.657	70.83
390.867	93.35
391.076	38.06
391.286	111.78
391.496	56.49
391.705	15.53
391.915	109.74
392.125	85.16
392.334	138.41
392.544	101.55
392.753	36.01
392.963	36.01
393.172	89.26
393.382	126.12
393.591	109.74
393.801	76.97
394.01	152.74
394.22	42.15
394.429	154.79
394.639	85.16
394.848	134.31
395.058	126.12
395.267	130.22
395.477	128.17
395.686	201.9
395.895	89.26
396.105	259.24
396.314	95.4
396.524	126.12
396.733	93.35
396.942	85.16
397.152	122.02
397.361	150.7
397.57	103.59
397.78	134.31
397.989	85.16
398.198	183.46
398.407	119.98
398.617	81.07
398.826	134.31
399.035	193.7
399.244	173.22
399.453	93.35
399.663	126.12
399.872	191.66
400.081	113.83
400.29	242.85
400.499	150.7
400.708	173.22
400.917	136.36
401.127	148.65
401.336	154.79
401.545	175.27
401.754	193.7
401.963	173.22
402.172	109.74
402.381	93.35
402.59	183.46
402.799	138.41
403.008	183.46
403.217	222.38
403.426	119.98
403.635	76.97
403.844	183.46
404.053	265.38
404.262	124.07
404.471	271.53
404.68	177.32
404.888	205.99
405.097	175.27
405.306	232.62
405.515	203.94
405.724	199.85
405.933	232.62
406.142	220.33
406.35	238.76
406.559	218.28
406.768	117.93
406.977	289.96
407.185	277.67
407.394	242.85
407.603	269.48
407.812	283.81
408.02	281.77
408.229	298.15
408.438	371.88
408.646	316.58
408.855	343.21
409.064	363.69
409.272	314.53
409.481	341.16
409.69	398.5
409.898	339.11
410.107	451.75
410.315	410.79
410.524	445.6
410.733	429.22
410.941	494.76
411.15	455.84
411.358	478.37
411.567	545.95
411.775	502.95
411.984	621.73
412.192	494.76
412.401	519.33
412.609	627.87
412.818	683.17
413.026	564.39
413.234	644.26
413.443	691.36
413.651	691.36
413.86	734.37
414.068	752.8
414.276	797.85
414.485	840.86
414.693	861.34
414.901	898.2
415.11	887.97
415.318	847.01
415.526	881.82
415.734	980.12
415.943	935.07
416.151	986.27
416.359	1088.67
416.567	1109.15
416.776	1070.23
416.984	1299.61
417.192	1221.78
417.4	1275.03
417.608	1299.61
417.817	1342.61
418.025	1379.48
418.233	1469.59
418.441	1420.44
418.649	1617.04
418.857	1600.66
419.065	1608.85
419.273	1682.58
419.481	1754.26
419.689	1727.63
419.897	1887.37
420.105	1883.28
420.313	2012.3
420.521	2088.07
420.729	2077.83
420.937	2075.79
421.145	2335.88
421.353	2290.82
421.561	2378.89
421.769	2391.17
421.977	2645.12
422.185	2520.2
422.393	2804.86
422.601	2878.59
422.809	2919.55
423.017	2989.18
423.224	3050.62
423.432	3058.81
423.64	3017.85
423.848	3411.06
424.056	3337.34
424.263	3603.57
424.471	3640.44
424.679	3689.59
424.887	3947.63
425.094	3935.34
425.302	3929.2
425.51	4158.57
425.718	4295.79
425.925	4451.43
426.133	4600.93
426.341	4770.91
426.548	4924.51
426.756	4906.08
426.964	5065.82
427.171	5354.58
427.379	5321.82
427.586	5516.37
427.794	5846.1
428.001	5872.72
428.209	6163.53
428.417	5975.12
428.624	6472.78
428.832	6536.26
429.039	6425.67
429.247	6640.71
429.454	7068.73
429.662	7420.99
429.869	7126.08
430.076	7466.04
430.284	7330.87
430.491	7828.53
430.699	8121.39
430.906	8055.86
431.114	8471.59
431.321	8584.23
431.528	8662.05
431.736	9368.6
431.943	9737.24
432.15	9301.02
432.358	9600.02
432.565	9845.78
432.772	10144.78
432.979	10439.69
433.187	10638.34
433.394	10689.54
433.601	11226.11
433.808	11566.07
434.016	11340.8
434.223	11811.83
434.43	12436.46
434.637	12401.65
434.844	12991.46
435.052	13409.25
435.259	13327.33
435.466	13521.88
435.673	13063.14
435.88	14187.47
436.087	14898.12
436.294	14816.2
436.501	14390.22
436.708	14889.93
436.915	15363.01
437.122	15815.61
437.329	15907.77
437.537	16464.82
437.743	17079.21
437.95	16714.67
438.157	17540
438.364	18076.57
438.571	17988.5
438.778	18168.73
438.985	19684.22
439.192	18987.91
439.399	19692.41
439.606	19155.85
439.813	19977.08
440.02	21726.05
440.227	20849.52
440.433	20925.29
440.64	21418.85
440.847	21504.87
441.054	21994.33
441.261	22952.78
441.467	22877.01
441.674	23366.47
441.881	24144.7
442.088	24335.16
442.294	23831.36
442.501	24509.24
442.708	25236.27
442.914	26278.68
443.121	27665.16
443.328	26868.5
443.534	28418.81
443.741	27400.97
443.948	27206.41
444.154	29457.13
444.361	29096.69
444.568	29192.94
444.774	29215.47
444.981	29369.07
445.187	30608.09
445.394	31763.14
445.6	31007.44
445.807	34196.13
446.013	32719.54
446.22	33688.23
446.426	34732.7
446.633	35021.46
446.839	36362.88
447.046	34146.98
447.252	36223.62
447.459	36711.03
447.665	36403.84
447.871	38015.59
448.078	39664.21
448.284	37536.37
448.491	38654.56
448.697	40557.12
448.903	41073.21
449.11	41359.92
449.316	40139.33
449.522	41224.76
449.728	42295.85
449.935	42625.57
450.141	41912.88
450.347	43166.23
450.553	42263.08
450.76	42912.28
450.966	43860.49
451.172	43926.03
451.378	45005.31
451.584	43831.82
451.791	44331.53
451.997	44675.58
452.203	45423.09
452.409	45435.38
452.615	44950.01
452.821	43409.94
453.027	43348.5
453.233	45357.56
453.44	43328.02
453.646	43858.45
453.852	43923.98
454.058	45126.14
454.264	43639.31
454.47	44368.39
454.676	43371.03
454.882	44913.15
455.088	41079.35
455.294	41597.49
455.5	42459.68
455.705	42631.71
455.911	40708.67
456.117	40401.47
456.323	40006.22
456.529	37505.65
456.735	39617.1
456.941	38623.84
457.147	37739.11
457.352	36430.46
457.558	36117.12
457.764	35961.48
457.97	35857.03
458.176	35052.18
458.381	35050.13
458.587	33141.42
458.793	33174.19
458.999	31453.9
459.204	33850.02
459.41	32488.12
459.616	30710.49
459.821	30786.26
460.027	30540.5
460.233	29924.07
460.438	28510.97
460.644	28945.14
460.85	27550.47
461.055	27257.61
461.261	27441.93
461.466	24791.86
461.672	24415.03
461.878	25877.28
462.083	24568.63
462.289	24054.59
462.494	23472.96
462.7	22666.06
462.905	21900.12
463.111	22326.1
463.316	22899.53
463.522	22397.78
463.727	22336.34
463.932	22391.64
464.138	22131.54
464.343	22244.18
464.549	21728.1
464.754	22309.72
464.959	22164.31
465.165	21744.48
465.37	21136.23
465.575	20560.75
465.781	21361.51
465.986	21367.65
466.191	20777.84
466.397	20169.59
466.602	19524.48
466.807	20210.55
467.012	19968.89
467.218	19907.45
467.423	19438.47
467.628	19587.97
467.833	20321.14
468.038	19745.66
468.244	19354.5
468.449	19995.51
468.654	19252.1
468.859	19168.13
469.064	19012.49
469.269	18439.06
469.474	18549.65
469.679	18955.15
469.885	18168.73
470.09	18496.4
470.295	18494.35
470.5	17820.57
470.705	18299.8
470.91	17550.24
471.115	17613.73
471.32	17953.69
471.525	17892.25
471.73	17195.94
471.935	17169.32
472.139	16855.98
472.344	16980.9
472.549	16608.17
472.754	16384.94
472.959	16038.84
473.164	15856.57
473.369	15662.01
473.574	16313.27
473.778	15983.54
473.983	15903.67
474.188	15911.86
474.393	15213.51
474.598	15209.41
474.802	15180.74
475.007	15051.72
475.212	15096.77
475.417	14398.41
475.621	14545.87
475.826	14635.98
476.031	14375.89
476.235	13994.97
476.44	14535.63
476.645	13884.37
476.849	14080.98
477.054	13980.63
477.259	13431.77
477.463	13587.42
477.668	13153.25
477.872	13237.22
478.077	13194.21
478.282	12923.88
478.486	12708.84
478.691	12680.17
478.895	12899.3
479.1	12653.55
479.304	12512.24
479.509	12129.27
479.713	12407.79
479.918	12258.29
480.122	12061.68
480.326	12043.25
480.531	12192.75
480.735	12090.35
480.94	11793.4
481.144	12004.34
481.348	11701.24
481.553	11774.97
481.757	11807.73
481.961	11910.13
482.166	11951.09
482.37	11514.87
482.574	11623.42
482.778	11760.63
482.983	11844.6
483.187	11580.41
483.391	11662.33
483.595	11533.31
483.8	11332.61
484.004	11746.3
484.208	11746.3
484.412	11580.41
484.616	11611.13
484.821	11838.45
485.025	11353.09
485.229	11756.54
485.433	11590.65
485.637	11662.33
485.841	11455.48
486.045	11418.62
486.249	11723.77
486.453	11582.46
486.657	11617.27
486.861	11564.03
487.065	11447.29
487.269	11604.99
487.473	11164.67
487.677	11736.06
487.881	11998.2
488.085	11557.88
488.289	11838.45
488.493	11527.16
488.697	11914.23
488.901	11994.1
489.105	11750.39
489.309	11994.1
489.512	11963.38
489.716	11844.6
489.92	11815.93
490.124	11770.87
490.328	12006.39
490.531	11963.38
490.735	11987.96
490.939	12233.71
491.143	12067.83
491.346	11893.75
491.55	12225.52
491.754	12262.38
491.958	12110.83
492.161	12229.62
492.365	12307.44
492.569	12202.99
492.772	12499.95
492.976	12268.53
493.18	12274.67
493.383	12757.99
493.587	12651.5
493.79	12866.53
493.994	12448.75
494.197	12743.66
494.401	12774.38
494.605	13048.8
494.808	12997.6
495.012	13278.18
495.215	13431.77
495.419	13315.04
495.622	13521.88
495.825	13581.28
496.029	13708.25
496.232	13806.55
496.436	13552.6
496.639	14068.69
496.843	14037.97
497.046	14261.2
497.249	14484.43
497.453	14472.14
497.656	14466
497.859	14437.33
498.063	14984.13
498.266	15072.2
498.469	15066.05
498.673	15100.87
498.876	15227.84
499.079	15584.19
499.282	15602.62
499.485	15891.38
499.689	16087.99
499.892	16315.31
500.095	16307.12
500.298	16913.32
500.501	16757.67
500.705	16880.55
500.908	17007.53
501.111	17402.79
501.314	17607.58
501.517	17570.72
501.72	17662.88
501.923	17628.06
502.126	18437.01
502.329	18566.03
502.532	18987.91
502.735	18693.01
502.938	19207.05
503.141	19217.29
503.344	19663.74
503.547	19614.59
503.75	19831.68
503.953	20132.73
504.156	20464.5
504.359	20317.04
504.562	20454.26
504.765	21332.84
504.968	21269.35
505.17	21488.48
505.373	21470.05
505.576	21936.99
505.779	21904.22
505.982	22346.58
506.185	22649.68
506.387	22928.2
506.59	23116.62
506.793	23397.19
506.996	23415.62
507.198	24046.4
507.401	23796.54
507.604	23860.03
507.807	24486.71
508.009	24718.13
508.212	24982.32
508.415	25316.14
508.617	25537.32
508.82	25498.41
509.022	25436.97
509.225	26135.32
509.428	26442.52
509.63	26467.09
509.833	26589.97
510.035	27357.96
510.238	27509.51
510.44	27579.14
510.643	28068.61
510.845	28234.49
511.048	28297.98
511.25	28496.63
511.453	28977.9
511.655	29932.26
511.858	29590.25
512.06	29749.99
512.262	30202.59
512.465	30216.93
512.667	30724.82
512.87	30915.28
513.072	30816.98
513.274	31699.65
513.477	31818.44
513.679	32012.99
513.881	32277.18
514.084	32676.54
514.286	32615.1
514.488	32897.72
514.69	34067.11
514.893	34030.24
515.095	34009.76
515.297	34366.11
515.499	34241.18
515.701	35029.65
515.904	35267.22
516.106	35347.09
516.308	36059.78
516.51	36143.75
516.712	36600.44
516.914	36856.44
517.116	37300.85
517.318	37298.8
517.52	37401.2
517.722	37937.77
517.925	38163.04
518.127	38740.57
518.329	38994.52
518.531	38808.15
518.733	39588.43
518.935	39733.84
519.136	40096.33
519.338	39969.35
519.54	40424
519.742	41243.19
519.944	40909.37
520.146	41769.52
520.348	41620.02
520.55	41699.89
520.752	42109.48
520.954	42828.32
521.155	42652.19
521.357	43102.74
521.559	43514.39
521.761	44091.91
521.963	43975.18
522.164	44057.1
522.366	44728.83
522.568	45040.12
522.77	45130.23
522.971	45670.9
523.173	45404.66
523.375	45990.38
523.576	45711.86
523.778	45881.84
523.98	46281.19
524.181	46854.62
524.383	46676.45
524.584	47079.9
524.786	47301.08
524.988	47122.91
525.189	47909.33
525.391	48144.84
525.592	47987.15
525.794	48415.18
525.995	48675.27
526.197	48660.93
526.398	48576.97
526.6	49177.02
526.801	49086.91
527.003	49297.85
527.204	49652.15
527.406	49676.72
527.607	49766.84
527.808	50518.44
528.01	49494.46
528.211	49930.67
528.412	50508.2
528.614	50405.8
528.815	50239.92
529.016	50880.93
529.218	50485.67
529.419	50545.06
529.62	51145.12
529.822	50936.23
530.023	51251.61
530.224	50815.4
530.425	50940.32
530.626	50741.67
530.828	50733.48
531.029	51683.73
531.23	51265.95
531.431	51210.65
531.632	51523.99
531.833	51894.67
532.035	51290.52
532.236	51562.9
532.437	51650.97
532.638	51626.39
532.839	51593.62
533.04	51509.66
533.241	51317.15
533.442	52378
533.643	51876.24
533.844	51579.29
534.045	51755.41
534.246	51526.04
534.447	52085.14
534.648	51949.97
534.849	51685.78
535.05	51376.54
535.251	51861.91
535.451	51962.26
535.652	51841.43
535.853	52025.74
536.054	52011.41
536.255	52414.86
536.456	51823
536.657	52517.26
536.857	51906.96
537.058	51603.86
537.259	52361.61
537.46	51849.62
537.66	51820.95
537.861	51997.07
538.062	51788.18
538.263	52191.63
538.463	51648.92
538.664	51900.82
538.865	52103.57
539.065	52138.38
539.266	51433.88
539.466	51982.74
539.667	51530.14
539.868	52091.28
540.068	51747.22
540.269	51616.15
540.469	52019.6
540.67	51530.14
540.87	51130.78
541.071	51753.36
541.271	52044.18
541.472	51610.01
541.672	51440.03
541.873	51423.64
542.073	51204.51
542.274	51909.01
542.474	51390.87
542.675	51206.56
542.875	51718.55
543.075	51319.2
543.276	50706.85
543.476	51696.02
543.676	51546.52
543.877	51313.05
544.077	51765.65
544.277	51177.89
544.478	51650.97
544.678	51198.37
544.878	51386.78
545.078	51548.57
545.279	50964.9
545.479	50934.18
545.679	51589.53
545.879	51511.7
546.079	51298.72
546.28	51315.1
546.48	50993.57
546.68	51241.37
546.88	51429.79
547.08	51122.59
547.28	51089.82
547.48	50866.59
547.68	51073.44
547.88	50528.68
548.081	51526.04
548.281	51143.07
548.481	50817.44
548.681	51126.69
548.881	51163.55
549.081	51050.91
549.28	50962.85
549.48	51394.97
549.68	50643.37
549.88	51935.63
550.08	50823.59
550.28	50735.52
550.48	50968.99
550.68	51351.96
550.88	50739.62
551.08	50719.14
551.279	51184.03
551.479	50973.09
551.679	50858.4
551.879	50708.9
552.079	51380.63
552.278	50520.49
552.478	50925.99
552.678	51050.91
552.878	51458.46
553.077	50567.59
553.277	50112.94
553.477	51224.99
553.676	50700.71
553.876	50764.2
554.076	50645.41
554.275	50508.2
554.475	50106.8
554.674	50598.31
554.874	50514.34
555.074	50706.85
555.273	50889.12
555.473	51134.88
555.672	50319.79
555.872	50510.25
556.071	50274.73
556.271	50946.47
556.47	50418.09
556.67	49889.71
556.869	50065.84
557.068	50053.55
557.268	49863.09
557.467	50160.05
557.667	49971.63
557.866	50192.81
558.065	49551.8
558.265	49842.61
558.464	49979.82
558.663	50299.31
558.863	49521.08
559.062	50295.21
559.261	49516.98
559.461	50489.77
559.66	49562.04
559.859	49955.25
560.058	49697.2
560.258	49709.49
560.457	49320.38
560.656	50102.7
560.855	48994.75
561.054	49502.65
561.253	48931.26
561.453	49635.77
561.652	49443.26
561.851	49404.34
562.05	49127.87
562.249	48914.88
562.448	49336.76
562.647	48904.64
562.846	48953.79
563.045	48824.77
563.244	48591.3
563.443	49021.37
563.642	47821.26
563.841	48536.01
564.04	48353.74
564.239	48310.73
564.438	47993.29
564.637	48562.63
564.836	48474.57
565.035	47872.46
565.234	48130.51
565.432	48009.68
565.631	47841.74
565.83	48103.88
566.029	48181.71
566.228	47978.96
566.427	47575.51
566.625	47272.41
566.824	47301.08
567.023	47679.96
567.222	46985.69
567.42	47477.21
567.619	47145.44
567.818	47145.44
568.016	47358.42
568.215	47325.66
568.414	46983.65
568.612	47098.33
568.811	46776.8
569.01	46946.78
569.208	46346.73
569.407	46584.29
569.605	46156.27
569.804	46881.25
570.002	46447.08
570.201	46244.33
570.4	46217.71
570.598	46064.11
570.797	45480.44
570.995	46238.19
571.193	45320.7
571.392	46268.9
571.59	45056.51
571.789	45523.44
571.987	45240.82
572.186	45552.12
572.384	45228.54
572.582	45586.93
572.781	44849.66
572.979	45330.93
573.177	44796.42
573.376	44763.65
573.574	44634.63
573.772	44771.84
573.971	44083.72
574.169	44104.2
574.367	44366.34
574.565	44620.29
574.763	44050.95
574.962	43969.04
575.16	43536.91
575.358	43940.36
575.556	43555.35
575.754	44288.52
575.952	43670.03
576.151	43600.4
576.349	43190.81
576.547	43090.46
576.745	43622.93
576.943	42947.1
577.141	43057.69
577.339	43072.03
577.537	42721.82
577.735	42517.03
577.933	42320.42
578.131	42682.91
578.329	42293.8
578.527	42277.41
578.725	42295.85
578.923	42220.07
579.121	42394.15
579.319	41753.13
579.516	42256.93
579.714	42076.71
579.912	41755.18
580.11	41443.89
580.308	41572.91
580.506	41597.49
580.704	41161.27
580.901	41540.14
581.099	41404.98
581.297	41175.61
581.495	40854.08
581.692	40825.4
581.89	40542.78
582.088	41191.99
582.285	40366.66
582.483	40600.13
582.681	40344.13
582.878	40276.55
583.076	40213.06
583.274	40561.22
583.471	40168.01
583.669	39985.74
583.866	39508.56
584.064	39846.47
584.262	39117.4
584.459	39625.29
584.657	39146.07
584.854	39934.54
585.052	39217.75
585.249	39195.22
585.447	39295.57
585.644	38541.92
585.841	39119.45
586.039	39285.33
586.236	38783.58
586.434	38558.3
586.631	38748.76
586.828	38468.19
587.026	38746.72
587.223	38300.26
587.42	38464.1
587.618	37956.2
587.815	37700.2
588.012	37665.39
588.21	37964.39
588.407	37970.54
588.604	37704.3
588.801	37083.76
588.999	37403.25
589.196	37186.16
589.393	37110.39
589.59	37159.54
589.787	36987.51
589.984	36878.97
590.182	36541.05
590.379	36702.84
590.576	36870.78
590.773	36459.13
590.97	36369.02
591.167	36491.9
591.364	36039.3
591.561	36199.04
591.758	35840.65
591.955	35857.03
592.152	35871.37
592.349	35793.54
592.546	35828.36
592.743	35869.32
592.94	35455.63
593.137	35537.55
593.334	35166.87
593.531	34615.96
593.727	35304.08
593.924	35191.44
594.121	35105.43
594.318	34880.15
594.515	34374.3
594.712	34904.73
594.908	34630.3
595.105	34734.74
595.302	34232.99
595.499	34261.66
595.696	33821.35
595.892	33983.14
596.089	33866.41
596.286	34134.69
596.482	33772.2
596.679	33784.49
596.876	33389.23
597.072	33301.17
597.269	34020
597.466	33329.84
597.662	33323.69
597.859	33151.66
598.055	33335.98
598.252	32613.05
598.448	32731.83
598.645	32592.57
598.841	32322.24
599.038	32727.74
599.234	32748.21
599.431	32131.78
599.627	32019.14
599.824	32527.03
600.02	32076.48
600.217	32316.09
600.413	31668.94
600.609	31830.72
600.806	31845.06
601.002	31963.84
601.198	31863.49
601.395	31537.87
601.591	31410.89
601.787	31414.99
601.984	31191.76
602.18	31505.1
602.376	30743.25
602.572	31025.87
602.769	30960.34
602.965	30667.48
603.161	30827.22
603.357	30708.44
603.553	30718.68
603.75	30771.93
603.946	30147.29
604.142	30343.9
604.338	30302.94
604.534	30225.12
604.73	29864.67
604.926	30057.18
605.122	29956.83
605.318	29899.49
605.514	29440.75
605.71	29721.32
605.906	29692.65
606.102	29321.96
606.298	29543.14
606.494	29041.39
606.69	29461.23
606.886	29260.52
607.082	28947.18
607.278	29289.2
607.474	28908.27
607.67	28877.55
607.866	28553.97
608.062	29123.31
608.257	28769.01
608.453	28656.37
608.649	28629.75
608.845	28594.93
609.041	28472.06
609.236	28195.58
609.432	28220.16
609.628	28388.09
609.824	28584.69
610.019	28054.27
610.215	28357.37
610.411	28336.89
610.606	28007.17
610.802	28158.72
610.998	27511.56
611.193	28250.88
611.389	27527.94
611.584	27761.41
611.78	27398.92
611.976	27628.29
612.171	27525.89
612.367	27808.51
612.562	27785.99
612.758	27093.77
612.953	27372.3
613.149	27642.63
613.344	27437.83
613.539	27697.92
613.735	27134.73
613.93	27030.29
614.126	26925.84
614.321	27450.12
614.517	26954.51
614.712	27050.77
614.907	26956.56
615.103	26952.46
615.298	27046.67
615.493	26735.38
615.688	26354.46
615.884	27122.44
616.079	26508.05
616.274	26762
616.47	26665.75
616.665	26315.55
616.86	26571.54
617.055	26092.32
617.25	26417.94
617.445	26047.26
617.641	26092.32
617.836	26196.76
618.031	25721.63
618.226	25682.72
618.421	25772.83
618.616	25973.53
618.811	25512.74
619.006	25744.16
619.201	25158.44
619.396	25361.19
619.591	24873.78
619.786	25467.69
619.981	24920.88
620.176	25178.92
620.371	24802.1
620.566	24998.7
620.761	24675.12
620.956	24527.67
621.151	24533.81
621.346	24449.85
621.541	23821.12
621.735	24384.31
621.93	23810.88
622.125	24046.4
622.32	23663.43
622.515	23853.89
622.709	23745.34
622.904	23681.86
623.099	23126.86
623.294	23212.87
623.488	23362.37
623.683	23466.82
623.878	22790.99
624.072	22704.98
624.267	22610.77
624.462	22768.46
624.656	22324.05
624.851	22698.83
625.046	22336.34
625.24	22207.32
625.435	21916.51
625.629	21887.84
625.824	21652.32
626.018	21709.66
626.213	21285.73
626.407	21435.24
626.602	20829.04
626.796	21099.37
626.991	21494.63
627.185	20999.02
627.38	20632.43
627.574	20763.5
627.768	20687.73
627.963	20468.59
628.157	20568.94
628.352	20450.16
628.546	19944.31
628.74	20345.72
628.935	20382.58
629.129	20147.06
629.323	19598.21
629.517	19596.16
629.712	19749.76
629.906	19622.78
630.1	19032.97
630.294	19086.22
630.489	19463.04
630.683	19358.6
630.877	18799.5
631.071	18776.97
631.265	18860.94
631.459	18748.3
631.653	18787.21
631.848	18508.69
632.042	18301.84
632.236	18543.5
632.43	18318.23
632.624	18209.68
632.818	18199.44
633.012	18033.56
633.206	18099.09
633.4	17816.47
633.594	17699.74
633.788	17660.83
633.982	17595.29
634.176	17230.76
634.369	17279.91
634.563	17165.22
634.757	17294.24
634.951	17372.07
635.145	17009.58
635.339	17056.68
635.533	16675.76
635.726	16782.25
635.92	16423.86
636.114	16724.91
636.308	16430
636.501	16688.04
636.695	16583.6
636.889	16135.09
637.083	16167.86
637.276	16085.94
637.47	16122.8
637.664	15977.4
637.857	15885.24
638.051	15952.82
638.244	15616.96
638.438	15711.16
638.632	15358.91
638.825	15397.82
639.019	15373.25
639.212	15264.71
639.406	15188.93
639.599	15334.34
639.793	15059.91
639.986	14846.92
640.18	14904.26
640.373	14814.15
640.567	14595.02
640.76	14601.16
640.954	14461.9
641.147	14513.1
641.34	14576.59
641.534	14181.33
641.727	14244.82
641.92	14283.73
642.114	14101.46
642.307	13947.86
642.5	13958.1
642.694	13681.63
642.887	13949.91
643.08	13898.71
643.273	13784.02
643.467	13593.56
643.66	13433.82
643.853	13360.09
644.046	13013.99
644.239	13173.73
644.432	13143.01
644.626	13079.52
644.819	13087.71
645.012	13120.48
645.205	13110.24
645.398	12995.56
645.591	12747.75
645.784	12680.17
645.977	12688.36
646.17	12545
646.363	12499.95
646.556	12391.41
646.749	12299.25
646.942	12268.53
647.135	12176.37
647.328	12192.75
647.521	12125.17
647.714	12016.63
647.907	11942.9
648.099	12172.27
648.292	11852.79
648.485	11938.8
648.678	11660.28
648.871	11701.24
649.064	11590.65
649.256	11529.21
649.449	11592.7
649.642	11521.02
649.835	11455.48
650.027	11119.62
650.22	11357.18
650.413	11355.13
650.605	10929.16
650.798	11115.52
650.991	11027.46
651.183	11017.22
651.376	10777.61
651.568	10920.96
651.761	10621.96
651.954	10677.26
652.146	10753.03
652.339	10740.74
652.531	10669.06
652.724	10327.05
652.916	10386.44
653.109	10429.45
653.301	10509.32
653.494	10468.36
653.686	10187.79
653.879	10447.88
654.071	10177.55
654.263	10134.54
654.456	10136.59
654.648	10218.51
654.84	9931.8
655.033	9774.1
655.225	9989.14
655.417	9837.59
655.61	9743.38
655.802	9737.24
655.994	9718.81
656.186	9640.98
656.379	9653.27
656.571	9460.76
656.763	9352.22
656.955	9399.32
657.148	9389.08
657.34	9479.19
657.532	9128.99
657.724	9258.01
657.916	9145.38
658.108	8942.63
658.3	8920.1
658.492	8997.92
658.684	8803.36
658.876	8868.9
659.068	9006.11
659.26	8746.02
659.452	8834.08
659.644	8823.84
659.836	8723.49
660.028	8721.45
660.22	8647.72
660.412	8619.05
660.604	8465.45
660.796	8490.03
660.988	8447.02
661.18	8348.72
661.372	8053.81
661.563	8207.41
661.755	8236.08
661.947	8346.67
662.139	8154.16
662.331	8068.14
662.522	8102.96
662.714	8096.82
662.906	8008.75
663.097	7975.98
663.289	7867.44
663.481	7826.48
663.673	7806
663.864	7748.66
664.056	7693.37
664.247	7713.84
664.439	7756.85
664.631	7613.49
664.822	7658.55
665.014	7693.37
665.205	7400.51
665.397	7539.77
665.588	7472.18
665.78	7504.95
665.971	7640.12
666.163	7322.68
666.354	7271.48
666.546	7367.74
666.737	7140.41
666.929	7164.99
667.12	7171.13
667.311	7193.66
667.503	7134.27
667.694	7115.84
667.885	7025.73
668.077	7177.28
668.268	6878.27
668.459	7060.54
668.651	6599.75
668.842	6849.6
669.033	6822.98
669.224	6851.65
669.416	6949.95
669.607	6831.17
669.798	6872.13
669.989	6730.82
670.18	6794.31
670.371	6513.74
670.563	6657.09
670.754	6624.33
670.945	6462.54
671.136	6485.06
671.327	6442.06
671.518	6491.21
671.709	6440.01
671.9	6464.58
672.091	6421.58
672.282	6286.41
672.473	6335.56
672.664	6194.25
672.855	6159.44
673.046	6229.07
673.237	6331.47
673.428	6214.73
673.619	6245.45
673.809	6075.47
674	6091.85
674.191	6233.16
674.382	6057.04
674.573	5983.31
674.764	5942.35
674.954	5895.25
675.145	5903.44
675.336	5928.02
675.527	5997.65
675.717	6065.23
675.908	5782.61
676.099	5905.49
676.289	5811.28
676.48	5706.84
676.671	5755.99
676.861	5682.26
677.052	5762.13
677.243	5688.4
677.433	5766.23
677.624	5727.32
677.814	5598.29
678.005	5622.87
678.195	5608.53
678.386	5680.21
678.576	5430.36
678.767	5534.81
678.957	5397.59
679.148	5651.54
679.338	5508.18
679.529	5528.66
679.719	5289.05
679.909	5442.65
680.1	5438.55
680.29	5518.42
680.481	5301.34
680.671	5364.82
680.861	5409.88
681.052	5311.58
681.242	5354.58
681.432	5522.52
681.622	5287
681.813	5178.46
682.003	5323.87
682.193	5037.15
682.383	5168.22
682.573	5239.9
682.764	5205.08
682.954	5131.36
683.144	5229.66
683.334	5033.05
683.524	5067.87
683.714	5057.63
683.904	4951.14
684.094	5098.59
684.284	5198.94
684.474	4969.57
684.664	4994.14
684.854	5088.35
685.044	5168.22
685.234	4766.82
685.424	5004.38
685.614	4834.4
685.804	4906.08
685.994	4955.23
686.184	4922.46
686.374	4893.79
686.564	4715.62
686.753	4742.24
686.943	4590.69
687.133	4717.67
687.323	4754.53
687.513	4770.91
687.702	4783.2
687.892	4672.61
688.082	4600.93
688.272	4643.94
688.461	4607.08
688.651	4637.8
688.841	4617.32
689.03	4705.38
689.22	4459.62
689.41	4414.57
689.599	4469.86
689.789	4394.09
689.979	4476.01
690.168	4496.49
690.358	4490.34
690.547	4385.9
690.737	4271.21
690.926	4357.22
691.116	4363.37
691.305	4398.18
691.495	4361.32
691.684	4232.3
691.874	4295.79
692.063	4326.5
692.252	4344.94
692.442	4246.63
692.631	4183.15
692.82	4160.62
693.01	4172.91
693.199	4271.21
693.388	4054.12
693.578	4187.24
693.767	4037.74
693.956	4027.5
694.146	3951.73
694.335	4025.45
694.524	4193.39
694.713	4066.41
694.902	3992.69
695.092	4080.75
695.281	4140.14
695.47	4029.55
695.659	4078.7
695.848	3851.38
696.037	4131.95
696.226	3968.11
696.415	3966.06
696.604	3902.58
696.793	4002.93
696.982	3974.25
697.171	3912.81
697.36	3886.19
697.549	3755.12
697.738	3843.18
697.927	3808.37
698.116	3826.8
698.305	3910.77
698.494	3847.28
698.683	3808.37
698.872	3884.14
699.061	3744.88
699.25	3640.44
699.438	3746.93
699.627	3771.51
699.816	3718.26
700.005	3806.32
700.193	3812.46
700.382	3767.41
700.571	3601.52
700.76	3701.87
700.948	3755.12
701.137	3804.27
701.326	3757.17
701.514	3652.72
701.703	3685.49
701.892	3751.03
702.08	3734.64
702.269	3593.33
702.457	3583.09
702.646	3607.67
702.834	3525.75
703.023	3533.94
703.212	3492.98
703.4	3583.09
703.589	3587.19
703.777	3521.65
703.965	3415.16
704.154	3574.9
704.342	3591.28
704.531	3517.56
704.719	3370.1
704.907	3574.9
705.096	3443.83
705.284	3464.31
705.472	3433.59
705.661	3458.17
705.849	3501.17
706.037	3517.56
706.226	3361.91
706.414	3431.54
706.602	3402.87
706.79	3413.11
706.979	3462.26
707.167	3411.06
707.355	3302.52
707.543	3529.84
707.731	3359.86
707.919	3284.09
708.107	3316.86
708.296	3376.25
708.484	3239.03
708.672	3345.53
708.86	3239.03
709.048	3298.42
709.236	3304.57
709.424	3247.23
709.612	3253.37
709.8	3208.31
709.988	3249.27
710.176	3329.14
710.364	3314.81
710.551	3323
710.739	3183.74
710.927	3163.26
711.115	3245.18
711.303	3140.73
711.491	3122.3
711.679	3122.3
711.866	3044.48
712.054	3157.11
712.242	3067
712.43	3046.52
712.617	3046.52
712.805	3161.21
712.993	3075.2
713.181	3013.76
713.368	3013.76
713.556	3255.42
713.744	3124.35
713.931	3054.72
714.119	3028.09
714.306	3017.85
714.494	2897.02
714.682	3091.58
714.869	2976.89
715.057	3032.19
715.244	2927.74
715.432	3007.61
715.619	2870.4
715.807	2980.99
715.994	3064.96
716.182	2974.85
716.369	2935.93
716.556	2823.3
716.744	3116.16
716.931	2935.93
717.119	2894.97
717.306	3026.04
717.493	2817.15
717.681	2944.13
717.868	2966.65
718.055	2817.15
718.242	2856.06
718.43	2845.82
718.617	2886.78
718.804	2724.99
718.991	2796.67
719.179	2837.63
719.366	2751.62
719.553	2704.51
719.74	2796.67
719.927	2962.56
720.114	2755.71
720.301	2751.62
720.488	2747.52
720.676	2755.71
720.863	2905.21
721.05	2813.06
721.237	2751.62
721.424	2665.6
721.611	2669.7
721.798	2579.59
721.985	2552.96
722.172	2716.8
722.358	2653.31
722.545	2751.62
722.732	2757.76
722.919	2675.84
723.106	2657.41
723.293	2585.73
723.48	2493.57
723.667	2636.93
723.853	2651.27
724.04	2681.99
724.227	2632.83
724.414	2651.27
724.6	2632.83
724.787	2483.33
724.974	2546.82
725.161	2675.84
725.347	2512
725.534	2430.09
725.72	2509.96
725.907	2620.55
726.094	2585.73
726.28	2540.68
726.467	2479.24
726.653	2514.05
726.84	2544.77
727.027	2643.07
727.213	2430.09
727.4	2512
727.586	2602.11
727.773	2454.66
727.959	2440.33
728.145	2438.28
728.332	2430.09
728.518	2376.84
728.705	2534.53
728.891	2391.17
729.077	2462.85
729.264	2288.78
729.45	2378.89
729.636	2458.76
729.823	2415.75
730.009	2434.18
730.195	2466.95
730.382	2509.96
730.568	2387.08
730.754	2385.03
730.94	2348.17
731.126	2395.27
731.313	2495.62
731.499	2446.47
731.685	2366.6
731.871	2438.28
732.057	2280.58
732.243	2434.18
732.429	2307.21
732.615	2395.27
732.801	2372.74
732.987	2337.93
733.173	2215.05
733.359	2278.54
733.545	2253.96
733.731	2290.82
733.917	2251.91
734.103	2315.4
734.289	2276.49
734.475	2286.73
734.661	2380.93
734.847	2290.82
735.033	2256.01
735.219	2256.01
735.404	2239.62
735.59	2288.78
735.776	2245.77
735.962	2272.39
736.148	2249.86
736.333	2124.94
736.519	2213
736.705	2256.01
736.89	2237.58
737.076	2200.71
737.262	2141.32
737.447	2083.98
737.633	2169.99
737.819	2202.76
738.004	2182.28
738.19	2221.19
738.375	2151.56
738.561	2272.39
738.747	2133.13
738.932	2079.88
739.118	2135.18
739.303	2108.55
739.489	2149.51
739.674	2069.64
739.859	1959.05
740.045	2000.01
740.23	2137.23
740.416	2040.97
740.601	2094.22
740.786	2038.92
740.972	1981.58
741.157	1973.39
741.342	1924.24
741.528	2002.06
741.713	2010.25
741.898	2077.83
742.084	2045.07
742.269	1971.34
742.454	1879.18
742.639	1866.89
742.824	1973.39
743.01	1805.46
743.195	1997.96
743.38	1936.53
743.565	1965.2
743.75	1866.89
743.935	1895.57
744.12	1899.66
744.305	1899.66
744.49	1985.68
744.675	1805.46
744.86	1809.55
745.045	1858.7
745.23	1932.43
745.415	1707.15
745.6	1821.84
745.785	1678.48
745.97	1756.3
746.155	1698.96
746.34	1772.69
746.525	1746.06
746.71	1735.82
746.895	1715.34
747.079	1686.67
747.264	1838.22
747.449	1782.93
747.634	1768.59
747.819	1725.58
748.003	1698.96
748.188	1733.78
748.373	1672.34
748.557	1711.25
748.742	1567.89
748.927	1729.68
749.111	1627.28
749.296	1600.66
749.481	1608.85
749.665	1633.43
749.85	1498.26
750.034	1543.32
750.219	1588.37
750.404	1537.17
750.588	1514.64
750.773	1561.75
750.957	1574.03
751.141	1436.82
751.326	1473.68
751.51	1533.08
751.695	1453.2
751.879	1363.09
752.064	1453.2
752.248	1416.34
752.432	1428.63
752.617	1399.96
752.801	1428.63
752.985	1315.99
753.17	1291.41
753.354	1332.37
753.538	1404.05
753.722	1315.99
753.907	1279.13
754.091	1326.23
754.275	1256.6
754.459	1385.62
754.643	1254.55
754.828	1367.19
755.012	1205.4
755.196	1356.95
755.38	1299.61
755.564	1295.51
755.748	1207.45
755.932	1186.97
756.116	1289.37
756.3	1258.65
756.484	1213.59
756.668	1244.31
756.852	1297.56
757.036	1162.39
757.22	1174.68
757.404	1111.19
757.588	1160.34
757.772	1172.63
757.956	1160.34
758.14	1209.5
758.323	1045.66
758.507	1092.76
758.691	1146.01
758.875	1189.02
759.059	1111.19
759.242	1064.09
759.426	1086.62
759.61	1086.62
759.794	1055.9
759.977	1051.8
760.161	1021.08
760.345	971.93
760.528	1010.84
760.712	1100.95
760.895	1029.27
761.079	1068.19
761.263	982.17
761.446	1043.61
761.63	1078.43
761.813	1039.51
761.997	1002.65
762.18	976.03
762.364	1062.04
762.547	937.12
762.731	1037.47
762.914	1059.99
763.098	947.36
763.281	978.08
763.464	967.84
763.648	900.25
763.831	937.12
764.015	877.73
764.198	904.35
764.381	865.44
764.564	933.02
764.748	849.05
764.931	941.21
765.114	904.35
765.297	863.39
765.481	898.2
765.664	887.97
765.847	865.44
766.03	908.44
766.213	865.44
766.397	947.36
766.58	906.4
766.763	840.86
766.946	847.01
767.129	873.63
767.312	941.21
767.495	849.05
767.678	824.48
767.861	953.5
768.044	883.87
768.227	875.68
768.41	781.47
768.593	912.54
768.776	814.24
768.959	773.28
769.142	890.01
769.324	783.52
769.507	838.81
769.69	871.58
769.873	785.57
770.056	918.68
770.239	748.7
770.421	857.25
770.604	773.28
770.787	904.35
770.97	818.33
771.152	756.9
771.335	855.2
771.518	767.13
771.7	840.86
771.883	775.33
772.066	740.51
772.248	791.71
772.431	744.61
772.613	789.66
772.796	715.94
772.978	756.9
773.161	711.84
773.343	648.35
773.526	730.27
773.708	693.41
773.891	621.73
774.073	724.13
774.256	765.09
774.438	695.46
774.621	697.5
774.803	642.21
774.985	711.84
775.168	765.09
775.35	681.12
775.532	808.09
775.715	658.59
775.897	627.87
776.079	662.69
776.261	711.84
776.444	584.87
776.626	631.97
776.808	683.17
776.99	668.83
777.173	634.02
777.355	578.72
777.537	644.26
777.719	634.02
777.901	545.95
778.083	615.59
778.265	607.39
778.447	556.19
778.629	662.69
778.811	650.4
778.993	568.48
779.175	568.48
779.357	605.35
779.539	634.02
779.721	646.3
779.903	562.34
780.085	560.29
780.267	537.76
780.449	609.44
780.631	548
780.812	593.06
780.994	548
781.176	525.47
781.358	531.62
781.54	513.19
781.721	568.48
781.903	548
782.085	517.28
782.267	552.1
782.448	488.61
782.63	478.37
782.812	502.95
782.993	507.04
783.175	429.22
783.357	486.56
783.538	488.61
783.72	412.84
783.901	492.71
784.083	519.33
784.264	423.08
784.446	513.19
784.627	494.76
784.809	457.89
784.99	478.37
785.172	464.04
785.353	482.47
785.535	470.18
785.716	390.31
785.897	369.83
786.079	398.5
786.26	427.17
786.441	408.74
786.623	392.36
786.804	371.88
786.985	375.97
787.167	425.12
787.348	453.8
787.529	472.23
787.71	441.51
787.891	423.08
788.073	347.3
788.254	361.64
788.435	414.88
788.616	361.64
788.797	322.73
788.978	396.45
789.159	371.88
789.34	386.21
789.522	373.92
789.703	318.63
789.884	402.6
790.065	367.78
790.246	402.6
790.427	433.32
790.607	408.74
790.788	296.1
790.969	310.44
791.15	414.88
791.331	312.49
791.512	316.58
791.693	373.92
791.874	312.49
792.054	437.41
792.235	398.5
792.416	259.24
792.597	314.53
792.778	347.3
792.958	322.73
793.139	341.16
793.32	361.64
793.5	302.25
793.681	332.97
793.862	330.92
794.042	326.82
794.223	267.43
794.404	253.09
794.584	249
794.765	249
794.945	292.01
795.126	339.11
795.306	341.16
795.487	314.53
795.667	244.9
795.848	261.29
796.028	306.34
796.209	240.81
796.389	203.94
796.57	238.76
796.75	275.62
796.93	257.19
797.111	349.35
797.291	275.62
797.471	371.88
797.652	234.66
797.832	208.04
798.012	289.96
798.192	222.38
798.373	289.96
798.553	218.28
798.733	306.34
798.913	265.38
799.093	249
799.274	292.01
799.454	271.53
799.634	224.42
799.814	339.11
799.994	328.87
800.174	304.29
800.354	167.08
800.534	232.62
800.714	199.85
800.894	244.9
801.074	224.42
801.254	208.04
801.434	226.47
801.614	234.66
801.794	261.29
801.974	713.89
802.154	232.62
802.334	269.48
802.514	169.13
802.693	210.09
802.873	300.2
803.053	292.01
803.233	238.76
803.413	255.14
803.592	232.62
803.772	169.13
803.952	224.42
804.131	191.66
804.311	142.5
804.491	210.09
804.67	224.42
804.85	195.75
805.03	171.18
805.209	257.19
805.389	193.7
805.568	212.14
805.748	234.66
805.928	251.05
806.107	175.27
806.287	281.77
806.466	201.9
806.646	232.62
806.825	150.7
807.004	193.7
807.184	183.46
807.363	199.85
807.543	214.18
807.722	171.18
807.901	216.23
808.081	232.62
808.26	140.46
808.439	232.62
808.619	150.7
808.798	167.08
808.977	212.14
809.156	240.81
809.336	156.84
809.515	222.38
809.694	216.23
809.873	226.47
810.052	140.46
810.231	156.84
810.411	130.22
810.59	257.19
810.769	134.31
810.948	134.31
811.127	175.27
811.306	142.5
811.485	154.79
811.664	267.43
811.843	109.74
812.022	167.08
812.201	181.42
812.38	171.18
812.559	158.89
812.737	142.5
812.916	140.46
813.095	156.84
813.274	160.94
813.453	160.94
813.632	195.75
813.811	136.36
813.989	19.63
814.168	187.56
814.347	142.5
814.526	109.74
814.704	130.22
814.883	128.17
815.062	109.74
815.24	175.27
815.419	101.55
815.598	113.83
815.776	105.64
815.955	105.64
816.133	85.16
816.312	109.74
816.49	68.78
816.669	72.87
816.847	169.13
817.026	195.75
817.204	128.17
817.383	136.36
817.561	89.26
817.74	111.78
817.918	185.51
818.097	119.98
818.275	68.78
818.453	33.96
818.632	199.85
818.81	70.83
818.988	154.79
819.167	105.64
819.345	126.12
819.523	91.31
819.701	109.74
819.879	140.46
820.058	95.4
820.236	111.78
820.414	191.66
820.592	144.55
820.77	146.6
820.948	134.31
821.127	199.85
821.305	175.27
821.483	68.78
821.661	162.98
821.839	62.63
822.017	64.68
822.195	87.21
822.373	154.79
822.551	74.92
822.729	183.46
822.907	44.2
823.085	152.74
823.262	117.93
823.44	169.13
823.618	81.07
823.796	199.85
823.974	54.44
824.152	79.02
824.329	54.44
824.507	54.44
824.685	199.85
824.863	52.39
825.04	122.02
825.218	115.88
825.396	160.94
825.574	89.26
825.751	91.31
825.929	119.98
826.107	111.78
826.284	128.17
826.462	117.93
826.639	76.97
826.817	89.26
826.994	23.72
827.172	3.24
827.349	117.93
827.527	101.55
827.704	76.97
827.882	95.4
828.059	85.16
828.237	42.15
828.414	124.07
828.591	87.21
828.769	175.27
828.946	126.12
829.124	191.66
829.301	111.78
829.478	183.46
829.655	150.7
829.833	152.74
830.01	29.87
830.187	109.74
830.364	187.56
830.542	146.6
830.719	156.84
830.896	167.08
831.073	93.35
831.25	-2.9
831.427	83.11
831.604	36.01
831.782	44.2
831.959	103.59
832.136	93.35
832.313	95.4
832.49	113.83
832.667	115.88
832.844	79.02
833.021	134.31
833.198	85.16
833.374	136.36
833.551	103.59
833.728	158.89
833.905	23.72
834.082	46.25
834.259	87.21
834.436	23.72
834.612	13.48
834.789	23.72
834.966	29.87
835.143	152.74
835.319	95.4
835.496	101.55
835.673	134.31
835.85	136.36
836.026	130.22
836.203	60.59
836.38	103.59
836.556	109.74
836.733	-19.29
836.909	134.31
837.086	105.64
837.262	-11.09
837.439	126.12
837.616	11.43
837.792	42.15
837.968	52.39
838.145	13.48
838.321	79.02
838.498	21.67
838.674	68.78
838.851	105.64
839.027	89.26
839.203	134.31
839.38	60.59
839.556	97.45
839.732	93.35
839.909	62.63
840.085	142.5
840.261	60.59
840.437	134.31
840.614	31.91
840.79	36.01
840.966	79.02
841.142	-2.9
841.318	103.59
841.494	117.93
841.671	91.31
841.847	83.11
842.023	-0.85
842.199	105.64
842.375	105.64
842.551	-68.44
842.727	25.77
842.903	119.98
843.079	56.49
843.255	50.35
843.431	52.39
843.607	17.58
843.783	-37.72
843.959	93.35
844.134	17.58
844.31	91.31
844.486	58.54
844.662	93.35
844.838	40.11
845.013	27.82
845.189	64.68
845.365	167.08
845.541	79.02
845.716	68.78
845.892	128.17
846.068	44.2
846.244	31.91
846.419	48.3
846.595	62.63
846.77	68.78
846.946	140.46
847.122	138.41
847.297	13.48
847.473	79.02
847.648	85.16
847.824	68.78
847.999	3.24
848.175	76.97
848.35	56.49
848.526	62.63
848.701	27.82
848.876	142.5
849.052	56.49
849.227	38.06
849.403	85.16
849.578	-0.85
849.753	-4.95
849.929	119.98
850.104	7.34
850.279	101.55
850.454	76.97
850.63	3.24
850.805	76.97
850.98	44.2
851.155	3.24
851.33	11.43
851.505	44.2
851.681	85.16
851.856	21.67
852.031	52.39
852.206	52.39
852.381	62.63
852.556	40.11
852.731	36.01
852.906	50.35
853.081	48.3
853.256	74.92
853.431	-41.81
853.606	93.35
853.781	76.97
853.956	38.06
854.131	93.35
854.305	-21.33
854.48	-29.52
854.655	3.24
854.83	101.55
855.005	62.63
855.18	36.01
855.354	74.92
855.529	56.49
855.704	44.2
855.879	83.11
856.053	-39.76
856.228	64.68
856.403	-56.15
856.577	40.11
856.752	56.49
856.926	36.01
857.101	52.39
857.276	68.78
857.45	68.78
857.625	122.02
857.799	13.48
857.974	52.39
858.148	-19.29
858.323	132.26
858.497	27.82
858.672	5.29
858.846	27.82
859.02	109.74
859.195	-2.9
859.369	58.54
859.543	46.25
859.718	-4.95
859.892	-27.48
860.066	3.24
860.241	56.49
860.415	13.48
860.589	101.55
860.763	79.02
860.938	60.59
861.112	17.58
861.286	-29.52
861.46	93.35
861.634	-37.72
861.808	48.3
861.982	-9.05
862.157	36.01
862.331	36.01
862.505	36.01
862.679	-27.48
862.853	11.43
863.027	3.24
863.201	156.84
863.375	36.01
863.549	76.97
863.722	-13.14
863.896	13.48
864.07	-19.29
864.244	-0.85
864.418	38.06
864.592	40.11
864.766	7.34
864.939	93.35
865.113	7.34
865.287	56.49
865.461	29.87
865.634	109.74
865.808	64.68
865.982	19.63
866.156	-29.52
866.329	11.43
866.503	-23.38
866.676	-2.9
866.85	56.49
867.024	-4.95
867.197	3.24
867.371	-2.9
867.544	87.21
867.718	-25.43
867.891	87.21
868.065	-23.38
868.238	15.53
868.412	-15.19
868.585	119.98
868.759	29.87
868.932	11.43
869.105	5.29
869.279	103.59
869.452	42.15
869.625	52.39
869.799	60.59
869.972	-19.29
870.145	-21.33
870.319	76.97
870.492	68.78
870.665	52.39
870.838	-9.05
871.011	-43.86
871.185	-54.1
871.358	56.49
871.531	13.48
871.704	-60.24
871.877	60.59
872.05	-11.09
872.223	7.34
872.396	-7
872.569	31.91
872.742	-33.62
872.915	38.06
873.088	-45.91
873.261	56.49
873.434	-74.58
873.607	54.44
873.78	9.39
873.953	27.82
874.126	38.06
874.299	46.25
874.471	-7
874.644	-11.09
874.817	83.11
874.99	95.4
875.163	7.34
875.335	23.72
875.508	56.49
875.681	76.97
875.853	27.82
876.026	-9.05
876.199	76.97
876.371	-31.57
876.544	5.29
876.717	-27.48
876.889	21.67
877.062	-4.95
877.234	7.34
877.407	3.24
877.579	29.87
877.752	44.2
877.924	33.96
878.097	3.24
878.269	17.58
878.442	-25.43
878.614	44.2
878.786	76.97
878.959	-37.72
879.131	44.2
879.303	17.58
879.476	46.25
879.648	42.15
879.82	11.43
879.993	19.63
880.165	-0.85
880.337	7.34
880.509	13.48
880.681	15.53
880.854	23.72
881.026	-25.43
881.198	44.2
881.37	-13.14
881.542	15.53
881.714	-9.05
881.886	15.53
882.058	-4.95
882.23	36.01
882.402	13.48
882.574	128.17
882.746	7.34
882.918	128.17
883.09	27.82
883.262	21.67
883.434	85.16
883.606	19.63
883.778	29.87
883.95	99.5
884.122	-25.43
884.293	36.01
884.465	48.3
884.637	-33.62
884.809	-62.29
884.98	-23.38
885.152	48.3
885.324	27.82
885.496	3.24
885.667	-2.9
885.839	-4.95
886.011	76.97
886.182	79.02
886.354	40.11
886.525	27.82
886.697	48.3
886.869	-43.86
887.04	54.44
887.212	76.97
887.383	13.48
887.555	60.59
887.726	-52.05
887.897	-4.95
888.069	-52.05
888.24	105.64
888.412	-33.62
888.583	-68.44
888.754	38.06
888.926	-13.14
889.097	36.01
889.268	11.43
889.44	52.39
889.611	-4.95
889.782	7.34
889.953	-23.38
890.125	52.39
890.296	-25.43
890.467	-0.85
890.638	9.39
890.809	85.16
890.98	-41.81
891.151	-9.05
891.323	85.16
891.494	44.2
891.665	-7
891.836	3.24
892.007	15.53
892.178	-43.86
892.349	-4.95
892.52	-29.52
892.691	-4.95
892.862	38.06
893.032	-33.62
893.203	62.63
893.374	5.29
893.545	-11.09
893.716	66.73
893.887	60.59
894.057	-13.14
894.228	38.06
894.399	36.01
894.57	70.83
894.74	-56.15
894.911	50.35
895.082	1.19
895.253	-33.62
895.423	11.43
895.594	-4.95
895.764	-4.95
895.935	-9.05
896.106	-11.09
896.276	-0.85
896.447	-29.52
896.617	36.01
896.788	3.24
896.958	101.55
897.129	-11.09
897.299	3.24
897.47	33.96
897.64	19.63
897.81	-23.38
897.981	27.82
898.151	-45.91
898.322	-56.15
898.492	79.02
898.662	-27.48
898.832	-29.52
899.003	60.59
899.173	60.59
899.343	-13.14
899.513	-9.05
