Data from USB4F104151__291__14-23-47-336.txt Node

Date: Thu Mar 13 14:23:47 EDT 2025
User: louis
Spectrometer: USB4F10415
Trigger mode: 4
Integration Time (sec): 2.000000E-2
Scans to average: 1
Electric dark correction enabled: true
Nonlinearity correction enabled: false
Boxcar width: 0
XAxis mode: Wavelengths
Number of Pixels in Spectrum: 3648
>>>>>Begin Spectral Data<<<<<
178.204	-13.48
178.424	-13.48
178.644	-13.48
178.864	-115.88
179.084	-97.45
179.304	-23.72
179.524	7
179.744	-7.34
179.964	109.4
180.184	-38.06
180.404	80.72
180.624	-9.39
180.844	11.09
181.064	-70.83
181.283	-23.72
181.503	-56.49
181.723	21.33
181.943	47.96
182.163	72.53
182.383	54.1
182.602	58.2
182.822	19.29
183.042	23.38
183.262	29.52
183.482	39.76
183.701	41.81
183.921	64.34
184.141	19.29
184.361	56.15
184.58	17.24
184.8	50
185.02	-9.39
185.239	9.05
185.459	7
185.679	56.15
185.898	-72.87
186.118	70.48
186.338	-17.58
186.557	29.52
186.777	-13.48
186.997	82.77
187.216	39.76
187.436	97.11
187.655	31.57
187.875	7
188.095	-42.15
188.314	93.01
188.534	39.76
188.753	54.1
188.973	62.29
189.192	15.19
189.412	99.16
189.631	80.72
189.851	68.44
190.07	-1.19
190.29	27.48
190.509	70.48
190.729	109.4
190.948	19.29
191.168	203.6
191.387	7
191.607	39.76
191.826	-21.67
192.045	33.62
192.265	7
192.484	50
192.704	64.34
192.923	-7.34
193.142	131.92
193.362	-33.96
193.581	174.93
193.8	39.76
194.02	88.92
194.239	-23.72
194.458	90.96
194.678	-44.2
194.897	-40.11
195.116	27.48
195.335	-1.19
195.555	86.87
195.774	107.35
195.993	80.72
196.212	-54.44
196.432	17.24
196.651	19.29
196.87	41.81
197.089	58.2
197.308	37.72
197.528	70.48
197.747	4.95
197.966	146.26
198.185	72.53
198.404	-25.77
198.623	17.24
198.842	23.38
199.062	58.2
199.281	97.11
199.5	-25.77
199.719	90.96
199.938	90.96
200.157	84.82
200.376	74.58
200.595	-1.19
200.814	27.48
201.033	88.92
201.252	27.48
201.471	99.16
201.69	56.15
201.909	66.39
202.128	68.44
202.347	74.58
202.566	66.39
202.785	-1.19
203.004	-17.58
203.223	74.58
203.442	39.76
203.661	80.72
203.879	-7.34
204.098	66.39
204.317	-17.58
204.536	97.11
204.755	56.15
204.974	60.24
205.193	11.09
205.411	47.96
205.63	72.53
205.849	31.57
206.068	90.96
206.287	62.29
206.505	80.72
206.724	23.38
206.943	-17.58
207.162	31.57
207.381	66.39
207.599	0.85
207.818	-38.06
208.037	76.63
208.255	33.62
208.474	56.15
208.693	7
208.911	15.19
209.13	39.76
209.349	70.48
209.567	140.12
209.786	56.15
210.005	31.57
210.223	-25.77
210.442	-9.39
210.661	82.77
210.879	72.53
211.098	33.62
211.316	-9.39
211.535	21.33
211.753	21.33
211.972	2.9
212.191	56.15
212.409	52.05
212.628	50
212.846	60.24
213.065	27.48
213.283	56.15
213.502	37.72
213.72	-5.29
213.938	39.76
214.157	43.86
214.375	74.58
214.594	-31.91
214.812	41.81
215.031	27.48
215.249	-15.53
215.467	64.34
215.686	95.06
215.904	50
216.122	0.85
216.341	103.25
216.559	54.1
216.778	74.58
216.996	37.72
217.214	78.68
217.432	33.62
217.651	31.57
217.869	52.05
218.087	9.05
218.306	33.62
218.524	109.4
218.742	17.24
218.96	33.62
219.179	60.24
219.397	21.33
219.615	52.05
219.833	-13.48
220.051	43.86
220.27	72.53
220.488	115.54
220.706	37.72
220.924	-17.58
221.142	58.2
221.36	9.05
221.578	50
221.796	21.33
222.015	58.2
222.233	107.35
222.451	90.96
222.669	-42.15
222.887	58.2
223.105	56.15
223.323	52.05
223.541	43.86
223.759	41.81
223.977	-48.3
224.195	84.82
224.413	25.43
224.631	25.43
224.849	37.72
225.067	156.5
225.285	31.57
225.503	0.85
225.721	-9.39
225.939	47.96
226.157	7
226.375	121.68
226.592	50
226.81	19.29
227.028	33.62
227.246	58.2
227.464	31.57
227.682	-5.29
227.9	15.19
228.117	82.77
228.335	60.24
228.553	-15.53
228.771	62.29
228.989	105.3
229.206	-25.77
229.424	58.2
229.642	0.85
229.86	31.57
230.077	74.58
230.295	17.24
230.513	56.15
230.731	64.34
230.948	39.76
231.166	76.63
231.384	33.62
231.601	47.96
231.819	47.96
232.037	43.86
232.254	27.48
232.472	56.15
232.689	39.76
232.907	58.2
233.125	74.58
233.342	39.76
233.56	50
233.777	56.15
233.995	27.48
234.213	170.83
234.43	9.05
234.648	-19.63
234.865	-33.96
235.083	97.11
235.3	74.58
235.518	39.76
235.735	121.68
235.953	19.29
236.17	21.33
236.388	58.2
236.605	70.48
236.822	88.92
237.04	129.88
237.257	27.48
237.475	-62.63
237.692	47.96
237.909	41.81
238.127	45.91
238.344	82.77
238.562	78.68
238.779	39.76
238.996	-3.24
239.214	15.19
239.431	56.15
239.648	-29.87
239.865	111.44
240.083	23.38
240.3	27.48
240.517	52.05
240.735	19.29
240.952	72.53
241.169	-5.29
241.386	9.05
241.603	31.57
241.821	9.05
242.038	82.77
242.255	56.15
242.472	37.72
242.689	-25.77
242.907	64.34
243.124	-15.53
243.341	-36.01
243.558	27.48
243.775	7
243.992	64.34
244.209	43.86
244.426	47.96
244.643	70.48
244.86	66.39
245.078	80.72
245.295	60.24
245.512	33.62
245.729	31.57
245.946	52.05
246.163	52.05
246.38	-7.34
246.597	109.4
246.814	23.38
247.031	33.62
247.248	47.96
247.464	39.76
247.681	41.81
247.898	-3.24
248.115	21.33
248.332	66.39
248.549	107.35
248.766	68.44
248.983	33.62
249.2	31.57
249.417	56.15
249.633	2.9
249.85	25.43
250.067	60.24
250.284	54.1
250.501	50
250.717	66.39
250.934	50
251.151	43.86
251.368	-3.24
251.585	129.88
251.801	107.35
252.018	99.16
252.235	11.09
252.451	13.14
252.668	56.15
252.885	56.15
253.102	97.11
253.318	23.38
253.535	-56.49
253.752	-17.58
253.968	70.48
254.185	25.43
254.401	82.77
254.618	-33.96
254.835	23.38
255.051	88.92
255.268	-5.29
255.484	52.05
255.701	39.76
255.917	2.9
256.134	47.96
256.351	58.2
256.567	72.53
256.784	-25.77
257	37.72
257.217	68.44
257.433	37.72
257.65	64.34
257.866	80.72
258.082	-9.39
258.299	-11.43
258.515	58.2
258.732	58.2
258.948	35.67
259.165	72.53
259.381	7
259.597	39.76
259.814	43.86
260.03	-7.34
260.246	88.92
260.463	58.2
260.679	-7.34
260.895	56.15
261.112	19.29
261.328	35.67
261.544	-17.58
261.761	93.01
261.977	97.11
262.193	-36.01
262.409	23.38
262.626	72.53
262.842	105.3
263.058	21.33
263.274	62.29
263.49	50
263.707	88.92
263.923	82.77
264.139	-3.24
264.355	111.44
264.571	133.97
264.787	52.05
265.004	23.38
265.22	-29.87
265.436	41.81
265.652	19.29
265.868	115.54
266.084	-99.5
266.3	19.29
266.516	60.24
266.732	15.19
266.948	23.38
267.164	47.96
267.38	58.2
267.596	103.25
267.812	88.92
268.028	52.05
268.244	13.14
268.46	2.9
268.676	19.29
268.892	56.15
269.108	39.76
269.324	-50.35
269.54	68.44
269.756	47.96
269.972	-5.29
270.188	47.96
270.403	35.67
270.619	47.96
270.835	33.62
271.051	97.11
271.267	66.39
271.483	60.24
271.698	43.86
271.914	82.77
272.13	74.58
272.346	66.39
272.562	43.86
272.777	66.39
272.993	80.72
273.209	17.24
273.425	99.16
273.64	-5.29
273.856	76.63
274.072	47.96
274.287	84.82
274.503	56.15
274.719	101.2
274.934	74.58
275.15	27.48
275.366	-3.24
275.581	17.24
275.797	29.52
276.012	52.05
276.228	33.62
276.444	103.25
276.659	15.19
276.875	80.72
277.09	-1.19
277.306	2.9
277.521	2.9
277.737	76.63
277.952	80.72
278.168	68.44
278.383	58.2
278.599	41.81
278.814	23.38
279.03	72.53
279.245	29.52
279.461	-40.11
279.676	97.11
279.892	58.2
280.107	-11.43
280.322	-31.91
280.538	41.81
280.753	-9.39
280.969	105.3
281.184	-33.96
281.399	9.05
281.615	23.38
281.83	25.43
282.045	43.86
282.26	-15.53
282.476	-5.29
282.691	33.62
282.906	101.2
283.122	19.29
283.337	45.91
283.552	84.82
283.767	107.35
283.983	97.11
284.198	58.2
284.413	9.05
284.628	74.58
284.843	-1.19
285.058	125.78
285.274	60.24
285.489	45.91
285.704	93.01
285.919	-15.53
286.134	-1.19
286.349	25.43
286.564	33.62
286.779	72.53
286.995	7
287.21	15.19
287.425	58.2
287.64	15.19
287.855	17.24
288.07	68.44
288.285	113.49
288.5	80.72
288.715	84.82
288.93	47.96
289.145	39.76
289.36	148.31
289.575	64.34
289.79	74.58
290.004	66.39
290.219	82.77
290.434	21.33
290.649	70.48
290.864	52.05
291.079	52.05
291.294	-5.29
291.509	93.01
291.724	47.96
291.938	23.38
292.153	88.92
292.368	23.38
292.583	76.63
292.798	64.34
293.012	-17.58
293.227	86.87
293.442	27.48
293.657	90.96
293.871	117.59
294.086	2.9
294.301	74.58
294.516	54.1
294.73	23.38
294.945	-9.39
295.16	33.62
295.374	129.88
295.589	117.59
295.804	-15.53
296.018	39.76
296.233	166.74
296.447	9.05
296.662	47.96
296.877	82.77
297.091	39.76
297.306	33.62
297.52	2.9
297.735	105.3
297.949	58.2
298.164	66.39
298.378	9.05
298.593	-31.91
298.807	82.77
299.022	-15.53
299.236	70.48
299.451	47.96
299.665	56.15
299.88	27.48
300.094	93.01
300.309	82.77
300.523	115.54
300.737	50
300.952	58.2
301.166	88.92
301.381	62.29
301.595	39.76
301.809	86.87
302.024	29.52
302.238	52.05
302.452	138.07
302.667	54.1
302.881	58.2
303.095	11.09
303.309	-5.29
303.524	56.15
303.738	47.96
303.952	50
304.166	74.58
304.381	0.85
304.595	105.3
304.809	58.2
305.023	39.76
305.237	58.2
305.452	11.09
305.666	97.11
305.88	72.53
306.094	72.53
306.308	80.72
306.522	70.48
306.736	66.39
306.95	58.2
307.164	50
307.379	-13.48
307.593	82.77
307.807	60.24
308.021	50
308.235	37.72
308.449	-54.44
308.663	111.44
308.877	60.24
309.091	117.59
309.305	88.92
309.519	31.57
309.733	56.15
309.947	-19.63
310.161	142.16
310.374	35.67
310.588	111.44
310.802	-1.19
311.016	138.07
311.23	54.1
311.444	97.11
311.658	56.15
311.872	88.92
312.085	113.49
312.299	64.34
312.513	64.34
312.727	37.72
312.941	-25.77
313.154	0.85
313.368	-15.53
313.582	121.68
313.796	-1.19
314.009	0.85
314.223	109.4
314.437	43.86
314.651	93.01
314.864	15.19
315.078	43.86
315.292	23.38
315.505	45.91
315.719	86.87
315.933	45.91
316.146	7
316.36	-1.19
316.573	66.39
316.787	82.77
317.001	72.53
317.214	7
317.428	17.24
317.641	7
317.855	29.52
318.068	47.96
318.282	105.3
318.495	84.82
318.709	-9.39
318.922	74.58
319.136	25.43
319.349	41.81
319.563	68.44
319.776	103.25
319.99	11.09
320.203	101.2
320.417	19.29
320.63	47.96
320.843	109.4
321.057	17.24
321.27	23.38
321.483	78.68
321.697	-1.19
321.91	76.63
322.124	50
322.337	56.15
322.55	31.57
322.763	43.86
322.977	15.19
323.19	105.3
323.403	66.39
323.617	56.15
323.83	90.96
324.043	76.63
324.256	68.44
324.469	25.43
324.683	113.49
324.896	23.38
325.109	82.77
325.322	31.57
325.535	88.92
325.748	29.52
325.962	2.9
326.175	86.87
326.388	37.72
326.601	84.82
326.814	80.72
327.027	56.15
327.24	97.11
327.453	-7.34
327.666	33.62
327.879	7
328.092	33.62
328.305	56.15
328.518	35.67
328.731	15.19
328.944	80.72
329.157	103.25
329.37	-21.67
329.583	113.49
329.796	97.11
330.009	-64.68
330.222	72.53
330.435	115.54
330.648	152.4
330.861	58.2
331.073	47.96
331.286	56.15
331.499	35.67
331.712	-9.39
331.925	52.05
332.138	90.96
332.35	123.73
332.563	29.52
332.776	109.4
332.989	7
333.202	58.2
333.414	-9.39
333.627	50
333.84	2.9
334.053	90.96
334.265	60.24
334.478	82.77
334.691	31.57
334.903	117.59
335.116	68.44
335.329	25.43
335.541	60.24
335.754	123.73
335.966	25.43
336.179	0.85
336.392	39.76
336.604	74.58
336.817	105.3
337.029	56.15
337.242	19.29
337.454	72.53
337.667	74.58
337.88	113.49
338.092	76.63
338.305	76.63
338.517	109.4
338.729	84.82
338.942	52.05
339.154	11.09
339.367	72.53
339.579	60.24
339.792	-15.53
340.004	15.19
340.217	107.35
340.429	146.26
340.641	66.39
340.854	9.05
341.066	33.62
341.278	109.4
341.491	93.01
341.703	-5.29
341.915	7
342.128	72.53
342.34	84.82
342.552	88.92
342.764	41.81
342.977	35.67
343.189	47.96
343.401	15.19
343.613	25.43
343.826	33.62
344.038	72.53
344.25	47.96
344.462	11.09
344.674	17.24
344.886	72.53
345.099	54.1
345.311	41.81
345.523	86.87
345.735	82.77
345.947	93.01
346.159	7
346.371	64.34
346.583	56.15
346.795	54.1
347.007	19.29
347.219	64.34
347.431	37.72
347.643	76.63
347.855	-5.29
348.067	117.59
348.279	58.2
348.491	97.11
348.703	19.29
348.915	50
349.127	17.24
349.339	50
349.551	93.01
349.763	58.2
349.975	37.72
350.187	127.83
350.399	27.48
350.61	31.57
350.822	47.96
351.034	84.82
351.246	35.67
351.458	115.54
351.669	99.16
351.881	29.52
352.093	101.2
352.305	78.68
352.517	47.96
352.728	146.26
352.94	76.63
353.152	29.52
353.363	64.34
353.575	54.1
353.787	115.54
353.999	25.43
354.21	113.49
354.422	9.05
354.633	17.24
354.845	74.58
355.057	82.77
355.268	50
355.48	58.2
355.692	4.95
355.903	-27.82
356.115	105.3
356.326	7
356.538	115.54
356.749	66.39
356.961	113.49
357.172	56.15
357.384	80.72
357.595	84.82
357.807	76.63
358.018	33.62
358.23	74.58
358.441	107.35
358.653	60.24
358.864	58.2
359.075	2.9
359.287	119.64
359.498	80.72
359.709	99.16
359.921	93.01
360.132	113.49
360.344	-17.58
360.555	7
360.766	95.06
360.977	39.76
361.189	131.92
361.4	39.76
361.611	187.22
361.823	113.49
362.034	15.19
362.245	-1.19
362.456	86.87
362.667	76.63
362.879	39.76
363.09	31.57
363.301	97.11
363.512	74.58
363.723	31.57
363.935	31.57
364.146	90.96
364.357	31.57
364.568	113.49
364.779	99.16
364.99	125.78
365.201	52.05
365.412	113.49
365.623	66.39
365.834	72.53
366.045	150.36
366.256	90.96
366.467	97.11
366.678	54.1
366.889	68.44
367.1	7
367.311	93.01
367.522	154.45
367.733	15.19
367.944	7
368.155	74.58
368.366	56.15
368.577	113.49
368.788	113.49
368.999	41.81
369.209	23.38
369.42	99.16
369.631	162.64
369.842	7
370.053	84.82
370.264	64.34
370.474	144.21
370.685	105.3
370.896	56.15
371.107	97.11
371.317	72.53
371.528	60.24
371.739	72.53
371.95	101.2
372.16	60.24
372.371	33.62
372.582	23.38
372.792	86.87
373.003	72.53
373.214	82.77
373.424	131.92
373.635	-48.3
373.846	123.73
374.056	-15.53
374.267	95.06
374.477	84.82
374.688	72.53
374.898	31.57
375.109	2.9
375.319	72.53
375.53	31.57
375.74	27.48
375.951	60.24
376.161	39.76
376.372	82.77
376.582	66.39
376.793	82.77
377.003	39.76
377.214	56.15
377.424	37.72
377.635	27.48
377.845	60.24
378.055	107.35
378.266	19.29
378.476	82.77
378.686	60.24
378.897	64.34
379.107	88.92
379.317	25.43
379.528	31.57
379.738	101.2
379.948	56.15
380.158	109.4
380.369	15.19
380.579	76.63
380.789	45.91
380.999	43.86
381.21	60.24
381.42	86.87
381.63	45.91
381.84	105.3
382.05	78.68
382.261	80.72
382.471	170.83
382.681	121.68
382.891	103.25
383.101	64.34
383.311	60.24
383.521	52.05
383.731	125.78
383.941	107.35
384.151	7
384.361	74.58
384.571	80.72
384.781	60.24
384.991	125.78
385.201	105.3
385.411	109.4
385.621	99.16
385.831	113.49
386.041	39.76
386.251	107.35
386.461	80.72
386.671	64.34
386.881	39.76
387.091	90.96
387.301	99.16
387.511	27.48
387.72	109.4
387.93	136.02
388.14	60.24
388.35	97.11
388.56	109.4
388.769	84.82
388.979	35.67
389.189	56.15
389.399	56.15
389.609	99.16
389.818	47.96
390.028	115.54
390.238	97.11
390.447	47.96
390.657	152.4
390.867	47.96
391.076	105.3
391.286	105.3
391.496	64.34
391.705	78.68
391.915	66.39
392.125	39.76
392.334	72.53
392.544	78.68
392.753	101.2
392.963	80.72
393.172	35.67
393.382	33.62
393.591	136.02
393.801	105.3
394.01	115.54
394.22	131.92
394.429	125.78
394.639	111.44
394.848	113.49
395.058	117.59
395.267	70.48
395.477	60.24
395.686	140.12
395.895	219.99
396.105	179.03
396.314	121.68
396.524	35.67
396.733	97.11
396.942	93.01
397.152	115.54
397.361	191.31
397.57	74.58
397.78	88.92
397.989	129.88
398.198	146.26
398.407	138.07
398.617	97.11
398.826	187.22
399.035	187.22
399.244	154.45
399.453	88.92
399.663	164.69
399.872	148.31
400.081	191.31
400.29	74.58
400.499	109.4
400.708	144.21
400.917	76.63
401.127	86.87
401.336	64.34
401.545	113.49
401.754	203.6
401.963	125.78
402.172	72.53
402.381	138.07
402.59	176.98
402.799	146.26
403.008	193.36
403.217	211.79
403.426	162.64
403.635	41.81
403.844	138.07
404.053	170.83
404.262	156.5
404.471	219.99
404.68	164.69
404.888	103.25
405.097	152.4
405.306	113.49
405.515	240.47
405.724	179.03
405.933	152.4
406.142	217.94
406.35	234.32
406.559	172.88
406.768	187.22
406.977	258.9
407.185	254.8
407.394	254.8
407.603	271.19
407.812	209.75
408.02	318.29
408.229	222.03
408.438	240.47
408.646	260.95
408.855	265.04
409.064	222.03
409.272	287.57
409.481	328.53
409.69	301.9
409.898	314.19
410.107	394.06
410.315	369.49
410.524	293.71
410.733	377.68
410.941	355.15
411.15	441.17
411.358	367.44
411.567	527.18
411.775	410.45
411.984	445.26
412.192	453.45
412.401	426.83
412.609	498.51
412.818	500.56
413.026	459.6
413.234	576.33
413.443	598.86
413.651	545.61
413.86	605
414.068	664.4
414.276	678.73
414.485	619.34
414.693	623.44
414.901	713.55
415.11	738.12
415.318	680.78
415.526	789.32
415.734	777.03
415.943	799.56
416.151	830.28
416.359	785.23
416.567	850.76
416.776	938.82
416.984	1026.89
417.192	981.83
417.4	1053.51
417.608	1004.36
417.817	1008.45
418.025	1170.24
418.233	1229.63
418.441	1153.86
418.649	1207.11
418.857	1360.7
419.065	1393.47
419.273	1297.22
419.481	1438.53
419.689	1499.97
419.897	1524.54
420.105	1628.99
420.313	1633.08
420.521	1672
420.729	1700.67
420.937	1731.39
421.145	1772.35
421.353	1940.28
421.561	1887.03
421.769	2022.2
421.977	2186.04
422.185	2057.01
422.393	2390.83
422.601	2411.31
422.809	2333.49
423.017	2331.44
423.224	2431.79
423.432	2556.72
423.64	2554.67
423.848	2841.39
424.056	2845.48
424.263	2890.54
424.471	2939.69
424.679	2917.16
424.887	3160.87
425.094	3197.73
425.302	3236.64
425.51	3359.52
425.718	3425.06
425.925	3660.57
426.133	3521.31
426.341	3842.84
426.548	3904.28
426.756	3859.23
426.964	4090.65
427.171	4209.43
427.379	4305.68
427.586	4363.03
427.794	4524.82
428.001	4690.7
428.209	4958.99
428.417	4858.64
428.624	5221.13
428.832	5176.07
429.039	5221.13
429.247	5270.28
429.454	5673.73
429.662	5997.31
429.869	5692.16
430.076	6077.18
430.284	6044.41
430.491	6126.33
430.699	6464.24
430.906	6478.58
431.114	6716.14
431.321	6757.1
431.528	6976.23
431.736	7523.04
431.943	7817.95
432.15	7512.8
432.358	7623.39
432.565	8051.42
432.772	7979.74
432.979	8415.96
433.187	8577.75
433.394	8469.2
433.601	9278.15
433.808	9267.91
434.016	9079.5
434.223	9552.58
434.43	10072.76
434.637	10074.81
434.844	10386.1
435.052	10754.74
435.259	10623.67
435.466	10939.05
435.673	10558.13
435.88	11475.62
436.087	11889.31
436.294	11893.41
436.501	11412.14
436.708	11862.69
436.915	12354.2
437.122	13009.55
437.329	12978.83
437.537	13355.66
437.743	13449.86
437.95	13390.47
438.157	14035.58
438.364	14377.59
438.571	14328.44
438.778	14482.04
438.985	15719.01
439.192	15336.04
439.399	15768.16
439.606	15231.6
439.813	16374.36
440.02	17175.12
440.227	16861.78
440.433	16583.26
440.64	17281.61
440.847	17379.92
441.054	17691.21
441.261	18694.71
441.467	18620.99
441.674	18780.73
441.881	19655.21
442.088	19593.77
442.294	19200.56
442.501	20032.04
442.708	20068.9
442.914	21180.95
443.121	21963.27
443.328	21434.89
443.534	22856.18
443.741	22104.58
443.948	21717.51
444.154	23372.27
444.361	23421.42
444.568	23636.46
444.774	23677.42
444.981	23939.56
445.187	24490.46
445.394	25668.05
445.6	25117.14
445.807	27922.86
446.013	26429.89
446.22	27120.06
446.426	28037.55
446.633	28332.45
446.839	29051.29
447.046	27990.44
447.252	29266.33
447.459	29565.33
447.665	29348.25
447.871	30753.15
448.078	31779.18
448.284	30136.71
448.491	31095.16
448.697	32538.98
448.903	33134.94
449.11	33319.26
449.316	32530.79
449.522	32954.72
449.728	34150.73
449.935	34246.99
450.141	33984.85
450.347	35277.12
450.553	34103.63
450.76	34410.82
450.966	35666.23
451.172	35023.17
451.378	36028.72
451.584	35088.7
451.791	36356.39
451.997	36280.62
452.203	36706.6
452.409	36679.97
452.615	36702.5
452.821	35148.09
453.027	34959.68
453.233	36733.22
453.44	35408.19
453.646	35664.18
453.852	36096.3
454.058	36159.79
454.264	35324.22
454.47	36270.38
454.676	35344.7
454.882	36329.77
455.088	33358.17
455.294	33909.07
455.5	34502.98
455.705	35072.32
455.911	33479
456.117	32899.42
456.323	32299.37
456.529	30656.9
456.735	32211.31
456.941	31080.83
457.147	30626.18
457.352	30069.13
457.558	29649.3
457.764	29796.75
457.97	29016.47
458.176	28686.75
458.381	28770.72
458.587	26939.83
458.793	27328.95
458.999	25921.99
459.204	27974.06
459.41	26765.76
459.616	25369.04
459.821	25727.44
460.027	25182.68
460.233	24465.89
460.438	23460.34
460.644	24017.38
460.85	22475.26
461.055	22090.24
461.261	22356.48
461.466	20920.85
461.672	19919.4
461.878	21144.08
462.083	20056.61
462.289	19653.16
462.494	19356.21
462.7	18680.38
462.905	18168.38
463.111	18766.39
463.316	18653.75
463.522	18117.18
463.727	18793.01
463.932	18342.46
464.138	18145.86
464.343	18139.71
464.549	17633.86
464.754	18139.71
464.959	18154.05
465.165	18029.12
465.37	17140.3
465.575	16831.06
465.781	17369.68
465.986	17666.63
466.191	16923.22
466.397	16214.62
466.602	15749.73
466.807	16439.9
467.012	16431.71
467.218	16335.45
467.423	16071.26
467.628	16212.57
467.833	16730.71
468.038	16261.73
468.244	15839.84
468.449	16509.53
468.654	15950.43
468.859	15884.9
469.064	15592.04
469.269	14953.07
469.474	15450.73
469.679	15383.15
469.885	14875.25
470.09	15276.65
470.295	15282.8
470.5	14838.39
470.705	14905.97
470.91	14527.1
471.115	14359.16
471.32	14932.59
471.525	14508.66
471.73	14269.05
471.935	14207.61
472.139	13687.43
472.344	13740.68
472.549	13974.14
472.754	13593.22
472.959	13433.48
473.164	13114
473.369	12911.25
473.574	13533.83
473.778	13107.85
473.983	12833.43
474.188	13081.23
474.393	12440.22
474.598	12663.44
474.802	12409.5
475.007	12405.4
475.212	12253.85
475.417	11870.88
475.621	11877.02
475.826	11838.11
476.031	11838.11
476.235	11737.76
476.44	11704.99
476.645	11551.4
476.849	11633.32
477.054	11176.62
477.259	11190.95
477.463	11025.07
477.668	10842.8
477.872	11156.14
478.077	11027.12
478.282	10693.3
478.486	10496.69
478.691	10252.98
478.895	10525.36
479.1	10281.66
479.304	10332.86
479.509	9984.7
479.713	10259.13
479.918	10025.66
480.122	9847.49
480.326	9953.98
480.531	9870.01
480.735	9867.97
480.94	9714.37
481.144	10093.24
481.348	9650.88
481.553	9798.34
481.757	9441.99
481.961	9691.84
482.166	9886.4
482.37	9753.28
482.574	9501.38
482.778	9540.29
482.983	9550.53
483.187	9546.44
483.391	9538.24
483.595	9689.79
483.8	9386.69
484.004	9534.15
484.208	9624.26
484.412	9499.33
484.616	9743.04
484.821	9550.53
485.025	9454.28
485.229	9456.33
485.433	9386.69
485.637	9429.7
485.841	9495.24
486.045	9517.76
486.249	9734.85
486.453	9626.31
486.657	9638.59
486.861	9566.92
487.065	9353.93
487.269	9386.69
487.473	9181.9
487.677	9853.63
487.881	9814.72
488.085	9540.29
488.289	9677.51
488.493	9579.2
488.697	9593.54
488.901	9853.63
489.105	9759.42
489.309	9722.56
489.512	9700.03
489.716	9751.23
489.92	9648.83
490.124	9493.19
490.328	9863.87
490.531	10003.13
490.735	9472.71
490.939	9859.77
491.143	9677.51
491.346	9896.64
491.55	9870.01
491.754	9929.41
491.958	9923.26
492.161	9874.11
492.365	9964.22
492.569	10019.52
492.772	9994.94
492.976	9870.01
493.18	10140.35
493.383	10293.94
493.587	10355.38
493.79	10394.29
493.994	10478.26
494.197	10404.53
494.401	10685.11
494.605	10554.04
494.808	10793.65
495.012	10615.48
495.215	10992.3
495.419	10922.67
495.622	10734.26
495.825	11027.12
496.029	11135.66
496.232	11362.98
496.436	11156.14
496.639	11463.33
496.843	11418.28
497.046	11764.39
497.249	11881.12
497.453	11801.25
497.656	12020.38
497.859	11985.57
498.063	12024.48
498.266	12409.5
498.469	12403.35
498.673	12378.78
498.876	12819.09
499.079	12741.27
499.282	12808.85
499.485	13091.47
499.689	13013.65
499.892	13267.59
500.095	13298.31
500.298	13523.59
500.501	13380.23
500.705	13793.92
500.908	14097.02
501.111	14121.6
501.314	14285.44
501.517	14322.3
501.72	14733.94
501.923	14672.5
502.126	15004.27
502.329	15254.12
502.532	15147.63
502.735	15215.21
502.938	15364.71
503.141	15587.94
503.344	15948.39
503.547	15671.91
503.75	16005.73
503.953	16470.62
504.156	16370.27
504.359	16595.54
504.562	16972.37
504.765	16992.85
504.968	17234.51
505.17	17381.96
505.373	17445.45
505.576	17648.2
505.779	18016.83
505.982	18039.36
506.185	18364.99
506.387	18571.83
506.59	18694.71
506.793	18860.6
506.996	18889.27
507.198	19425.84
507.401	19327.53
507.604	19499.56
507.807	19974.69
508.009	20224.54
508.212	20412.96
508.415	20285.98
508.617	20736.54
508.82	20785.69
509.022	20531.74
509.225	21062.16
509.428	21082.64
509.63	21471.76
509.833	21697.03
510.035	22235.65
510.238	22272.51
510.44	22440.45
510.643	22446.59
510.845	22684.16
511.048	22768.12
511.25	23435.76
511.453	23339.51
511.655	24439.26
511.858	23927.27
512.06	23888.36
512.262	24324.58
512.465	24080.87
512.667	24855
512.87	25037.27
513.072	24799.71
513.274	25739.72
513.477	25864.65
513.679	25956.81
513.881	26233.29
514.084	26540.48
514.286	26667.45
514.488	26599.87
514.69	27339.19
514.893	27552.18
515.095	27253.17
515.297	28166.57
515.499	27728.3
515.701	28647.84
515.904	28371.36
516.106	28725.66
516.308	29338.01
516.51	29700.5
516.712	29157.78
516.914	30093.71
517.116	30042.51
517.318	30357.89
517.52	30620.03
517.722	30785.92
517.925	31080.83
518.127	31369.59
518.329	31711.6
518.531	31519.09
518.733	32199.02
518.935	32659.81
519.136	32485.73
519.338	33044.83
519.54	33063.26
519.742	33001.82
519.944	33100.12
520.146	33943.89
520.348	33982.8
520.55	34173.26
520.752	34212.17
520.954	34699.59
521.155	34646.34
521.357	35742
521.559	35615.03
521.761	35938.61
521.963	36102.45
522.164	36423.98
522.366	36342.06
522.568	36632.87
522.77	36602.15
522.971	37232.93
523.173	36917.54
523.375	37787.92
523.576	37404.95
523.778	37597.46
523.98	38097.17
524.181	37810.45
524.383	38400.27
524.584	38777.09
524.786	38975.75
524.988	38623.5
525.189	38945.03
525.391	39540.99
525.592	39491.83
525.794	39389.44
525.995	39837.94
526.197	40065.27
526.398	39987.44
526.6	40390.89
526.801	40349.93
527.003	40118.51
527.204	40390.89
527.406	40573.16
527.607	41208.03
527.808	40896.74
528.01	40431.85
528.211	40673.51
528.412	41881.81
528.614	41375.97
528.815	41242.85
529.016	41646.3
529.218	41283.81
529.419	41734.36
529.62	41834.71
529.822	41627.87
530.023	42074.32
530.224	41924.82
530.425	41943.25
530.626	41494.75
530.828	41177.31
531.029	42563.79
531.23	41529.56
531.431	41775.32
531.632	42397.9
531.833	42324.18
532.035	42076.37
532.236	42328.27
532.437	42526.92
532.638	42420.43
532.839	42469.58
533.04	42430.67
533.241	42150.1
533.442	43053.25
533.643	42381.52
533.844	42629.32
534.045	42551.5
534.246	41898.2
534.447	42639.56
534.648	41734.36
534.849	42580.17
535.05	42166.48
535.251	42383.57
535.451	42488.01
535.652	42500.3
535.853	42592.46
536.054	42379.47
536.255	42354.9
536.456	41939.16
536.657	42901.7
536.857	42428.62
537.058	42320.08
537.259	42512.59
537.46	42451.15
537.66	42461.39
537.861	42619.08
538.062	42125.52
538.263	42422.48
538.463	42207.44
538.664	42395.85
538.865	42324.18
539.065	42750.15
539.266	41892.05
539.466	42688.71
539.667	41986.26
539.868	43034.82
540.068	42250.45
540.269	41994.45
540.469	42641.61
540.67	41906.39
540.87	42043.6
541.071	42139.86
541.271	42207.44
541.472	42391.76
541.672	42170.58
541.873	41797.85
542.073	41769.18
542.274	42150.1
542.474	41851.09
542.675	41726.17
542.875	42426.57
543.075	42270.93
543.276	41705.69
543.476	42303.7
543.676	41648.35
543.877	42143.95
544.077	41930.97
544.277	41742.55
544.478	41701.59
544.678	41937.11
544.878	41586.91
545.078	42148.05
545.279	41877.72
545.479	41582.81
545.679	41806.04
545.879	41521.37
546.079	41660.63
546.28	41855.19
546.48	41404.64
546.68	41613.53
546.88	42172.63
547.08	41691.35
547.28	41623.77
547.48	41251.04
547.68	41674.97
547.88	41623.77
548.081	41832.66
548.281	41765.08
548.481	41638.11
548.681	41730.26
548.881	41648.35
549.081	41416.93
549.28	41726.17
549.48	41937.11
549.68	41353.44
549.88	42248.4
550.08	41416.93
550.28	41507.04
550.48	42002.64
550.68	41801.94
550.88	41156.83
551.08	41048.29
551.279	41992.4
551.479	40886.5
551.679	41961.69
551.879	41439.45
552.079	41822.42
552.278	41310.43
552.478	41732.31
552.678	41683.16
552.878	41736.41
553.077	41240.8
553.277	40974.56
553.477	41580.76
553.676	41369.82
553.876	41246.94
554.076	40804.58
554.275	41636.06
554.475	40653.03
554.674	41318.62
554.874	41310.43
555.074	41040.1
555.273	41421.02
555.473	41664.73
555.672	41240.8
555.872	41261.28
556.071	41609.43
556.271	41183.46
556.47	41369.82
556.67	40700.14
556.869	40882.41
557.068	40997.09
557.268	41079.01
557.467	40968.42
557.667	41070.82
557.866	41107.68
558.065	40562.92
558.265	40818.92
558.464	40603.88
558.663	41033.96
558.863	40421.61
559.062	40896.74
559.261	40206.58
559.461	41242.85
559.66	40251.63
559.859	40685.8
560.058	40413.42
560.258	40528.11
560.457	40374.51
560.656	40452.33
560.855	40366.32
561.054	40519.92
561.253	40065.27
561.453	40286.45
561.652	40194.29
561.851	40218.86
562.05	40317.17
562.249	39514.36
562.448	40300.78
562.647	40055.03
562.846	39682.3
563.045	39915.76
563.244	39518.46
563.443	40014.07
563.642	39358.72
563.841	39592.19
564.04	39158.02
564.239	39659.77
564.438	39328
564.637	39182.59
564.836	39616.76
565.035	38994.18
565.234	39559.42
565.432	38813.96
565.631	39198.98
565.83	39125.25
566.029	39227.65
566.228	38633.74
566.427	38502.67
566.625	38471.95
566.824	38314.25
567.023	38703.37
567.222	38152.46
567.42	38521.1
567.619	38422.8
567.818	38629.64
568.016	37927.19
568.215	38181.13
568.414	38252.81
568.612	38209.81
568.811	37783.83
569.01	37839.12
569.208	37579.03
569.407	37845.27
569.605	37142.81
569.804	37828.88
570.002	37579.03
570.201	37499.16
570.4	37425.43
570.598	37380.38
570.797	37138.72
570.995	37087.52
571.193	36741.41
571.392	37005.6
571.59	36596.01
571.789	36675.88
571.987	36751.65
572.186	36503.85
572.384	36464.94
572.582	36507.94
572.781	36559.14
572.979	35844.4
573.177	36454.7
573.376	36143.41
573.574	35615.03
573.772	36000.05
573.971	35705.14
574.169	35576.12
574.367	35494.2
574.565	35813.68
574.763	35324.22
574.962	35197.24
575.16	35033.41
575.358	35133.76
575.556	34969.92
575.754	35242.3
575.952	34994.5
576.151	35291.45
576.349	35150.14
576.547	34476.36
576.745	34916.67
576.943	34699.59
577.141	34687.3
577.339	34638.15
577.537	34502.98
577.735	34277.71
577.933	33861.97
578.131	34224.46
578.329	33968.46
578.527	33845.58
578.725	33601.88
578.923	34416.97
579.121	33638.74
579.319	33616.21
579.516	33782.1
579.714	33646.93
579.912	33571.16
580.11	33425.75
580.308	32993.63
580.506	32850.27
580.704	33216.86
580.901	33026.4
581.099	33306.97
581.297	32844.13
581.495	32452.97
581.692	33028.45
581.89	32530.79
582.088	32758.11
582.285	32491.88
582.483	32700.77
582.681	32479.59
582.878	32336.23
583.076	31887.73
583.274	32321.9
583.471	31697.27
583.669	31875.44
583.866	31953.26
584.064	31963.5
584.262	31170.94
584.459	32151.91
584.657	31576.44
584.854	31906.16
585.052	31064.44
585.249	31373.69
585.447	31390.07
585.644	30855.55
585.841	30925.18
586.039	31127.93
586.236	30513.54
586.434	30908.8
586.631	30556.55
586.828	31048.06
587.026	30914.94
587.223	30560.64
587.42	30271.88
587.618	30474.63
587.815	30206.34
588.012	29522.32
588.21	29786.51
588.407	30445.96
588.604	29899.15
588.801	29802.89
588.999	29583.76
589.196	29657.49
589.393	29424.02
589.59	29729.17
589.787	29297.05
589.984	29254.04
590.182	28993.95
590.379	29346.2
590.576	28979.61
590.773	28998.04
590.97	28844.45
591.167	28963.23
591.364	28623.26
591.561	28787.1
591.758	28332.45
591.955	28590.5
592.152	28897.69
592.349	28522.91
592.546	28490.15
592.743	28172.71
592.94	28002.73
593.137	27748.78
593.334	28443.04
593.531	27701.68
593.727	27646.38
593.924	27834.8
594.121	27912.62
594.318	27759.02
594.515	27115.96
594.712	27601.33
594.908	27343.28
595.105	27253.17
595.302	27302.32
595.499	27173.3
595.696	27287.99
595.892	26950.07
596.089	27066.81
596.286	26788.28
596.482	27019.71
596.679	26821.05
596.876	26810.81
597.072	26673.6
597.269	26640.83
597.466	26515.9
597.662	26368.45
597.859	26483.14
598.055	26327.49
598.252	26546.62
598.448	26026.44
598.645	25792.97
598.841	25909.71
599.038	26112.45
599.234	25967.05
599.431	25866.7
599.627	25637.33
599.824	25739.72
600.02	25383.38
600.217	25485.78
600.413	25397.71
600.609	25250.26
600.806	25498.06
601.002	25246.16
601.198	25217.49
601.395	25080.28
601.591	24926.68
601.787	24998.36
601.984	24695.26
602.18	25444.82
602.376	24625.63
602.572	24500.7
602.769	24938.97
602.965	24304.1
603.161	24388.07
603.357	24220.13
603.553	24388.07
603.75	24326.63
603.946	23847.4
604.142	24183.27
604.338	23687.66
604.534	23740.91
604.73	23642.6
604.926	23884.26
605.122	23841.26
605.318	23714.28
605.514	23472.62
605.71	23515.63
605.906	23452.14
606.102	23742.96
606.298	23667.18
606.494	23226.87
606.69	23103.99
606.886	23314.93
607.082	22862.33
607.278	23286.26
607.474	22919.67
607.67	23116.28
607.866	22723.07
608.062	23122.42
608.257	22888.95
608.453	22954.49
608.649	22981.11
608.845	22682.11
609.041	22628.86
609.236	22931.96
609.432	22684.16
609.628	22635
609.824	22592
610.019	22458.88
610.215	22659.58
610.411	22419.97
610.606	22493.69
610.802	22503.93
610.998	22123.01
611.193	22309.38
611.389	21953.03
611.584	22172.16
611.78	22012.42
611.976	22204.93
612.171	22311.42
612.367	22145.54
612.562	22096.39
612.758	21858.82
612.953	21690.89
613.149	21803.53
613.344	21737.99
613.539	22108.68
613.735	22014.47
613.93	21602.83
614.126	21484.05
614.321	21985.8
614.517	21729.8
614.712	21559.82
614.907	21494.29
615.103	21672.46
615.298	21414.41
615.493	21445.13
615.688	21266.96
615.884	21451.28
616.079	21096.98
616.274	21371.41
616.47	21037.59
616.665	21285.39
616.86	21029.4
617.055	21209.62
617.25	21058.07
617.445	21070.36
617.641	20929.05
617.836	21107.22
618.031	20816.41
618.226	20736.54
618.421	20744.73
618.616	20955.67
618.811	20693.53
619.006	20820.5
619.201	20326.94
619.396	20546.08
619.591	20281.89
619.786	20503.07
619.981	19903.01
620.176	20027.94
620.371	19866.15
620.566	20034.08
620.761	19751.46
620.956	19958.31
621.151	19528.24
621.346	19884.58
621.541	19444.27
621.735	19628.59
621.93	19243.57
622.125	19372.59
622.32	18686.52
622.515	19049.01
622.709	18858.55
622.904	18772.53
623.099	18762.3
623.294	18784.82
623.488	18448.96
623.683	18432.57
623.878	18381.37
624.072	18143.81
624.267	18217.54
624.462	18391.61
624.656	18123.33
624.851	18033.22
625.046	17809.99
625.24	17603.14
625.435	17637.96
625.629	17541.71
625.824	17467.98
626.018	17494.6
626.213	16800.34
626.407	17279.57
626.602	17087.06
626.796	16958.03
626.991	16902.74
627.185	16953.94
627.38	16671.32
627.574	16534.11
627.768	16587.35
627.963	16314.97
628.157	16321.12
628.352	16573.02
628.546	16065.12
628.74	16329.31
628.935	16030.3
629.129	16042.59
629.323	15899.23
629.517	15915.62
629.712	15575.66
629.906	15708.77
630.1	15434.35
630.294	15487.59
630.489	15176.3
630.683	15532.65
630.877	15235.69
631.071	15020.66
631.265	14926.45
631.459	14748.28
631.653	14842.48
631.848	14789.24
632.042	14850.67
632.236	14826.1
632.43	14338.68
632.624	14529.14
632.818	14367.35
633.012	14318.2
633.206	14244.48
633.4	14135.93
633.594	13904.51
633.788	14103.17
633.982	14203.52
634.176	13822.59
634.369	13771.4
634.563	13916.8
634.757	13816.45
634.951	13871.75
635.145	13703.81
635.339	13875.84
635.533	13404.81
635.726	13281.93
635.92	13197.96
636.114	13173.39
636.308	13150.86
636.501	13177.48
636.695	13279.88
636.889	12972.69
637.083	12706.45
637.276	12456.6
637.47	12851.86
637.664	12681.88
637.857	12657.3
638.051	12608.15
638.244	12440.22
638.438	12497.56
638.632	12460.7
638.825	12343.96
639.019	12135.07
639.212	12092.06
639.406	11885.22
639.599	12085.92
639.793	11971.23
639.986	11780.77
640.18	11690.66
640.373	11811.49
640.567	11502.25
640.76	11567.78
640.954	11709.09
641.147	11332.26
641.34	11535.01
641.534	11330.22
641.727	11446.95
641.92	11553.45
642.114	10992.3
642.307	11225.77
642.5	10918.57
642.694	10838.7
642.887	11123.37
643.08	10885.81
643.273	10984.11
643.467	11006.64
643.66	10541.75
643.853	10558.13
644.046	10398.39
644.239	10545.84
644.432	10494.65
644.626	10468.02
644.819	10506.93
645.012	10330.81
645.205	10394.29
645.398	10394.29
645.591	10142.39
645.784	10083
645.977	9910.97
646.17	10099.39
646.363	9837.25
646.556	9861.82
646.749	9792.19
646.942	9730.75
647.135	9720.51
647.328	9380.55
647.521	9558.72
647.714	9509.57
647.907	9745.09
648.099	9415.37
648.292	9394.89
648.485	9329.35
648.678	9222.86
648.871	9026.25
649.064	9028.3
649.256	9294.54
649.449	9208.52
649.642	9192.14
649.835	8960.72
650.027	8907.47
650.22	8837.84
650.413	8645.33
650.605	8923.85
650.798	8674
650.991	8596.18
651.183	8567.51
651.376	8628.95
651.568	8645.33
651.761	8489.68
651.954	8448.72
652.146	8430.29
652.339	8403.67
652.531	8295.13
652.724	8278.74
652.916	8223.45
653.109	8180.44
653.301	8155.86
653.494	8162.01
653.686	8157.91
653.879	8239.83
654.071	8248.02
654.263	7883.49
654.456	7791.33
654.648	7817.95
654.84	7869.15
655.033	7633.63
655.225	7645.92
655.417	7574.24
655.61	7703.26
655.802	7666.4
655.994	7588.58
656.186	7670.5
656.379	7379.68
656.571	7469.8
656.763	7643.87
656.955	7295.72
657.148	7416.55
657.34	7322.34
657.532	7207.66
657.724	7254.76
657.916	7088.87
658.108	7127.78
658.3	7148.26
658.492	7289.57
658.684	6966
658.876	6867.69
659.068	7033.58
659.26	6802.16
659.452	6935.28
659.644	6875.88
659.836	6699.76
660.028	6765.29
660.22	6650.61
660.412	6689.52
660.604	6621.94
660.796	6765.29
660.988	6550.26
661.18	6548.21
661.372	6511.35
661.563	6527.73
661.755	6404.85
661.947	6253.3
662.139	6429.43
662.331	6382.32
662.522	6308.6
662.714	6322.93
662.906	6267.64
663.097	6161.14
663.289	6030.07
663.481	6165.24
663.673	6136.57
663.864	5888.76
664.056	6032.12
664.247	5907.2
664.439	5991.16
664.631	5876.48
664.822	5925.63
665.014	5946.11
665.205	5882.62
665.397	5874.43
665.588	5798.65
665.78	5722.88
665.971	5614.34
666.163	5776.13
666.354	5798.65
666.546	5657.34
666.737	5647.1
666.929	5683.97
667.12	5538.56
667.311	5563.14
667.503	5366.53
667.694	5503.75
667.885	5481.22
668.077	5370.63
668.268	5419.78
668.459	5430.02
668.651	5298.95
668.842	5303.04
669.033	5257.99
669.224	5184.26
669.416	5182.21
669.607	5266.18
669.798	5151.49
669.989	5100.3
670.18	5063.43
670.371	5012.23
670.563	4973.32
670.754	5049.1
670.945	4952.84
671.136	5014.28
671.327	4860.68
671.518	5034.76
671.709	4975.37
671.9	4872.97
672.091	4989.71
672.282	4889.35
672.473	4834.06
672.664	4756.24
672.855	4651.79
673.046	4717.33
673.237	4623.12
673.428	4840.2
673.619	4832.01
673.809	4684.56
674	4723.47
674.191	4832.01
674.382	4602.64
674.573	4637.45
674.764	4727.57
674.954	4537.1
675.145	4596.5
675.336	4520.72
675.527	4387.6
675.717	4512.53
675.908	4403.99
676.099	4457.23
676.289	4422.42
676.48	4307.73
676.671	4342.55
676.861	4381.46
677.052	4279.06
677.243	4334.36
677.433	4315.92
677.624	4219.67
677.814	4340.5
678.005	4178.71
678.195	4291.35
678.386	4121.37
678.576	4203.29
678.767	4260.63
678.957	4260.63
679.148	4061.98
679.338	4125.46
679.529	4145.94
679.719	3994.39
679.909	4066.07
680.1	4055.83
680.29	3992.34
680.481	4234
680.671	4166.42
680.861	4039.45
681.052	3984.15
681.242	3959.58
681.432	4080.41
681.622	3922.71
681.813	3984.15
682.003	3988.25
682.193	3918.62
682.383	3906.33
682.573	3914.52
682.764	3861.27
682.954	3857.18
683.144	3965.72
683.334	3846.94
683.524	3889.95
683.714	3906.33
683.904	3791.64
684.094	3902.23
684.284	3767.07
684.474	3848.99
684.664	3734.3
684.854	3726.11
685.044	3689.25
685.234	3758.88
685.424	3713.82
685.614	3685.15
685.804	3572.51
685.994	3730.2
686.184	3625.76
686.374	3447.58
686.564	3631.9
686.753	3767.07
686.943	3631.9
687.133	3447.58
687.323	3527.46
687.513	3611.42
687.702	3549.98
687.892	3472.16
688.082	3494.69
688.272	3504.93
688.461	3476.26
688.651	3425.06
688.841	3537.7
689.03	3349.28
689.22	3455.78
689.41	3343.14
689.599	3259.17
689.789	3431.2
689.979	3291.94
690.168	3435.3
690.358	3314.47
690.547	3341.09
690.737	3427.11
690.926	3289.89
691.116	3343.14
691.305	3322.66
691.495	3228.45
691.684	3394.34
691.874	3291.94
692.063	3119.91
692.252	3228.45
692.442	3279.65
692.631	3169.06
692.82	3228.45
693.01	3185.44
693.199	3169.06
693.388	3177.25
693.578	3242.79
693.767	3177.25
693.956	3187.49
694.146	3023.66
694.335	3087.14
694.524	2990.89
694.713	3203.88
694.902	3130.15
695.092	3081
695.281	3107.62
695.47	3007.27
695.659	2966.31
695.848	2874.15
696.037	2997.03
696.226	3040.04
696.415	3007.27
696.604	3064.61
696.793	3095.33
696.982	2964.26
697.171	3072.81
697.36	2966.31
697.549	3056.42
697.738	2968.36
697.927	3015.46
698.116	3093.29
698.305	2861.87
698.494	3037.99
698.683	2784.04
698.872	3099.43
699.061	3017.51
699.25	2956.07
699.438	2966.31
699.627	2992.94
699.816	2972.46
700.005	2863.91
700.193	2976.55
700.382	3115.81
700.571	2865.96
700.76	2990.89
700.948	3115.81
701.137	2925.35
701.326	2818.86
701.514	2902.83
701.703	3013.42
701.892	2868.01
702.08	2958.12
702.269	3005.22
702.457	2890.54
702.646	2804.52
702.834	2755.37
703.023	2816.81
703.212	2947.88
703.4	2802.47
703.589	2726.7
703.777	2927.4
703.965	2767.66
704.154	2876.2
704.342	2761.52
704.531	2810.67
704.719	2706.22
704.907	2863.91
705.096	2827.05
705.284	2630.45
705.472	2784.04
705.661	2808.62
705.849	2794.28
706.037	2810.67
706.226	2835.24
706.414	2677.55
706.602	2751.28
706.79	2786.09
706.979	2695.98
707.167	2689.84
707.355	2706.22
707.543	2784.04
707.731	2626.35
707.919	2667.31
708.107	2710.32
708.296	2755.37
708.484	2702.12
708.672	2763.56
708.86	2818.86
709.048	2726.7
709.236	2571.05
709.424	2718.51
709.612	2755.37
709.8	2632.49
709.988	2689.84
710.176	2638.64
710.364	2638.64
710.551	2603.82
710.739	2732.84
710.927	2548.53
711.115	2638.64
711.303	2626.35
711.491	2698.03
711.679	2589.49
711.866	2667.31
712.054	2614.06
712.242	2620.21
712.43	2569.01
712.617	2517.81
712.805	2622.25
712.993	2554.67
713.181	2571.05
713.368	2587.44
713.556	2571.05
713.744	2470.7
713.931	2550.57
714.119	2474.8
714.306	2546.48
714.494	2546.48
714.682	2435.89
714.869	2407.22
715.057	2583.34
715.244	2388.78
715.432	2431.79
715.619	2523.95
715.807	2499.38
715.994	2478.9
716.182	2345.78
716.369	2532.14
716.556	2478.9
716.744	2491.18
716.931	2349.87
717.119	2464.56
717.306	2415.41
717.493	2302.77
717.681	2442.03
717.868	2489.14
718.055	2409.26
718.242	2433.84
718.43	2435.89
718.617	2411.31
718.804	2310.96
718.991	2468.66
719.179	2286.39
719.366	2362.16
719.553	2366.26
719.74	2403.12
719.927	2257.71
720.114	2247.48
720.301	2323.25
720.488	2290.48
720.676	2222.9
720.863	2302.77
721.05	2179.89
721.237	2417.46
721.424	2280.24
721.611	2390.83
721.798	2165.56
721.985	2198.32
722.172	2261.81
722.358	2292.53
722.545	2267.95
722.732	2245.43
722.919	2206.52
723.106	2229.04
723.293	2308.91
723.48	2294.58
723.667	2237.24
723.853	2177.84
724.04	2167.6
724.227	2194.23
724.414	2165.56
724.6	2161.46
724.787	2237.24
724.974	2210.61
725.161	2202.42
725.347	2110.26
725.534	2155.32
725.72	2181.94
725.907	2071.35
726.094	2114.36
726.28	2097.97
726.467	2040.63
726.653	2065.21
726.84	2128.69
727.027	2095.93
727.213	1987.38
727.4	2143.03
727.586	2114.36
727.773	2112.31
727.959	2071.35
728.145	2024.25
728.332	2061.11
728.518	2147.12
728.705	2034.49
728.891	2091.83
729.077	1952.57
729.264	2014.01
729.45	2071.35
729.636	2026.29
729.823	1977.14
730.009	2009.91
730.195	1932.09
730.382	2077.49
730.568	1893.18
730.754	1987.38
730.94	1915.7
731.126	2026.29
731.313	1905.46
731.499	1981.24
731.685	1979.19
731.871	1925.94
732.057	2063.16
732.243	1938.23
732.429	1950.52
732.615	1985.34
732.801	1915.7
732.987	1827.64
733.173	2054.97
733.359	1846.07
733.545	1891.13
733.731	1932.09
733.917	1891.13
734.103	1948.47
734.289	1940.28
734.475	1809.21
734.661	1950.52
734.847	1927.99
735.033	1944.38
735.219	1971
735.404	1880.89
735.59	1817.4
735.776	1819.45
735.962	1788.73
736.148	1891.13
736.333	1882.94
736.519	1796.92
736.705	1923.9
736.89	1846.07
737.076	1770.3
737.262	1796.92
737.447	1848.12
737.633	1708.86
737.819	1827.64
738.004	1678.14
738.19	1686.33
738.375	1796.92
738.561	1809.21
738.747	1735.48
738.932	1669.95
739.118	1739.58
739.303	1676.09
739.489	1669.95
739.674	1639.23
739.859	1645.37
740.045	1729.34
740.23	1844.03
740.416	1663.8
740.601	1672
740.786	1729.34
740.972	1641.28
741.157	1694.52
741.342	1690.43
741.528	1573.69
741.713	1608.51
741.898	1581.89
742.084	1620.8
742.269	1686.33
742.454	1702.72
742.639	1620.8
742.824	1704.76
743.01	1606.46
743.195	1559.36
743.38	1606.46
743.565	1563.45
743.75	1633.08
743.935	1639.23
744.12	1571.65
744.305	1563.45
744.49	1540.93
744.675	1491.77
744.86	1497.92
745.045	1538.88
745.23	1514.3
745.415	1530.69
745.6	1469.25
745.785	1483.58
745.97	1463.1
746.155	1481.53
746.34	1456.96
746.525	1495.87
746.71	1444.67
746.895	1409.86
747.079	1428.29
747.264	1368.9
747.449	1461.06
747.634	1452.86
747.819	1393.47
748.003	1475.39
748.188	1432.38
748.373	1325.89
748.557	1336.13
748.742	1360.7
748.927	1370.94
749.111	1213.25
749.296	1387.33
749.481	1342.27
749.665	1319.75
749.85	1227.59
750.034	1268.55
750.219	1256.26
750.404	1270.59
750.588	1291.07
750.773	1295.17
750.957	1227.59
751.141	1235.78
751.326	1246.02
751.51	1188.68
751.695	1229.63
751.879	1289.03
752.064	1321.79
752.248	1114.95
752.432	1231.68
752.617	1256.26
752.801	1162.05
752.985	1141.57
753.17	1059.65
753.354	1174.34
753.538	1137.48
753.722	1155.91
753.907	1108.8
754.091	1045.32
754.275	1076.04
754.459	1092.42
754.643	1037.13
754.828	1137.48
755.012	1078.08
755.196	1080.13
755.38	1114.95
755.564	1082.18
755.748	1049.41
755.932	1117
756.116	1008.45
756.3	1014.6
756.484	957.25
756.668	1006.41
756.852	973.64
757.036	975.69
757.22	1057.61
757.404	963.4
757.588	926.54
757.772	1086.28
757.956	959.3
758.14	926.54
758.323	983.88
758.507	928.58
758.691	998.21
758.875	957.25
759.059	942.92
759.242	1006.41
759.426	985.93
759.61	944.97
759.794	873.29
759.977	949.06
760.161	1022.79
760.345	969.54
760.528	885.58
760.712	817.99
760.895	830.28
761.079	840.52
761.263	801.61
761.446	848.71
761.63	932.68
761.813	844.62
761.997	957.25
762.18	840.52
762.364	875.34
762.547	867.14
762.731	817.99
762.914	897.86
763.098	791.37
763.281	764.75
763.464	854.86
763.648	729.93
763.831	858.95
764.015	801.61
764.198	834.38
764.381	817.99
764.564	801.61
764.748	785.23
764.931	861
765.114	731.98
765.297	770.89
765.481	770.89
765.664	740.17
765.847	764.75
766.03	752.46
766.213	729.93
766.397	748.36
766.58	734.03
766.763	719.69
766.946	699.21
767.129	740.17
767.312	754.51
767.495	668.49
767.678	695.11
767.861	789.32
768.044	731.98
768.227	748.36
768.41	723.79
768.593	736.07
768.776	639.82
768.959	736.07
769.142	762.7
769.324	723.79
769.507	785.23
769.69	643.92
769.873	697.16
770.056	795.47
770.239	701.26
770.421	754.51
770.604	662.35
770.787	715.59
770.97	721.74
771.152	754.51
771.335	631.63
771.518	691.02
771.7	756.55
771.883	682.83
772.066	670.54
772.248	674.64
772.431	713.55
772.613	643.92
772.796	678.73
772.978	639.82
773.161	652.11
773.343	654.16
773.526	613.2
773.708	588.62
773.891	578.38
774.073	664.4
774.256	537.42
774.438	709.45
774.621	588.62
774.803	670.54
774.985	617.29
775.168	607.05
775.35	559.95
775.532	637.77
775.715	555.85
775.897	645.96
776.079	607.05
776.261	547.66
776.444	572.24
776.626	564.04
776.808	514.89
776.99	584.52
777.173	570.19
777.355	516.94
777.537	547.66
777.719	516.94
777.901	512.85
778.083	566.09
778.265	478.03
778.447	518.99
778.629	510.8
778.811	582.48
778.993	426.83
779.175	572.24
779.357	514.89
779.539	465.74
779.721	510.8
779.903	613.2
780.085	432.97
780.267	435.02
780.449	449.36
780.631	457.55
780.812	525.13
780.994	473.93
781.176	416.59
781.358	469.84
781.54	441.17
781.721	437.07
781.903	539.47
782.085	426.83
782.267	424.78
782.448	416.59
782.63	437.07
782.812	478.03
782.993	449.36
783.175	426.83
783.357	494.41
783.538	385.87
783.72	375.63
783.901	398.16
784.083	396.11
784.264	367.44
784.446	260.95
784.627	398.16
784.809	400.21
784.99	465.74
785.172	392.02
785.353	410.45
785.535	344.91
785.716	383.82
785.897	392.02
786.079	367.44
786.26	349.01
786.441	359.25
786.623	426.83
786.804	367.44
786.985	355.15
787.167	326.48
787.348	324.43
787.529	334.67
787.71	410.45
787.891	394.06
788.073	326.48
788.254	293.71
788.435	361.3
788.616	361.3
788.797	258.9
788.978	377.68
789.159	310.1
789.34	334.67
789.522	293.71
789.703	306
789.884	240.47
790.065	291.66
790.246	320.34
790.427	310.1
790.607	381.78
790.788	332.62
790.969	312.14
791.15	260.95
791.331	346.96
791.512	254.8
791.693	314.19
791.874	342.86
792.054	353.1
792.235	281.43
792.416	279.38
792.597	228.18
792.778	338.77
792.958	334.67
793.139	219.99
793.32	289.62
793.5	232.27
793.681	381.78
793.862	326.48
794.042	242.51
794.223	293.71
794.404	269.14
794.584	262.99
794.765	271.19
794.945	267.09
795.126	256.85
795.306	291.66
795.487	269.14
795.667	236.37
795.848	269.14
796.028	234.32
796.209	207.7
796.389	295.76
796.57	228.18
796.75	260.95
796.93	252.75
797.111	211.79
797.291	213.84
797.471	297.81
797.652	179.03
797.832	154.45
798.012	219.99
798.192	211.79
798.373	176.98
798.553	191.31
798.733	260.95
798.913	226.13
799.093	293.71
799.274	219.99
799.454	232.27
799.634	244.56
799.814	277.33
799.994	244.56
800.174	238.42
800.354	203.6
800.534	244.56
800.714	222.03
800.894	219.99
801.074	140.12
801.254	174.93
801.434	219.99
801.614	181.07
801.794	166.74
801.974	752.46
802.154	197.46
802.334	232.27
802.514	162.64
802.693	248.66
802.873	166.74
803.053	269.14
803.233	187.22
803.413	244.56
803.592	224.08
803.772	269.14
803.952	236.37
804.131	213.84
804.311	211.79
804.491	168.79
804.67	181.07
804.85	101.2
805.03	195.41
805.209	260.95
805.389	246.61
805.568	197.46
805.748	142.16
805.928	170.83
806.107	162.64
806.287	140.12
806.466	199.51
806.646	244.56
806.825	170.83
807.004	123.73
807.184	156.5
807.363	154.45
807.543	209.75
807.722	138.07
807.901	199.51
808.081	158.55
808.26	219.99
808.439	131.92
808.619	146.26
808.798	187.22
808.977	113.49
809.156	219.99
809.336	129.88
809.515	187.22
809.694	113.49
809.873	156.5
810.052	199.51
810.231	219.99
810.411	136.02
810.59	179.03
810.769	138.07
810.948	95.06
811.127	205.65
811.306	109.4
811.485	99.16
811.664	179.03
811.843	166.74
812.022	211.79
812.201	140.12
812.38	109.4
812.559	150.36
812.737	185.17
812.916	127.83
813.095	105.3
813.274	195.41
813.453	113.49
813.632	133.97
813.811	138.07
813.989	66.39
814.168	172.88
814.347	99.16
814.526	103.25
814.704	170.83
814.883	189.27
815.062	109.4
815.24	148.31
815.419	146.26
815.598	125.78
815.776	125.78
815.955	138.07
816.133	64.34
816.312	88.92
816.49	105.3
816.669	115.54
816.847	142.16
817.026	88.92
817.204	105.3
817.383	121.68
817.561	52.05
817.74	146.26
817.918	97.11
818.097	97.11
818.275	109.4
818.453	133.97
818.632	58.2
818.81	39.76
818.988	109.4
819.167	52.05
819.345	60.24
819.523	101.2
819.701	97.11
819.879	72.53
820.058	125.78
820.236	150.36
820.414	101.2
820.592	113.49
820.77	72.53
820.948	82.77
821.127	33.62
821.305	131.92
821.483	52.05
821.661	82.77
821.839	142.16
822.017	101.2
822.195	80.72
822.373	146.26
822.551	123.73
822.729	50
822.907	39.76
823.085	68.44
823.262	88.92
823.44	54.1
823.618	74.58
823.796	152.4
823.974	39.76
824.152	37.72
824.329	154.45
824.507	105.3
824.685	93.01
824.863	133.97
825.04	45.91
825.218	109.4
825.396	50
825.574	80.72
825.751	93.01
825.929	11.09
826.107	43.86
826.284	80.72
826.462	80.72
826.639	131.92
826.817	37.72
826.994	152.4
827.172	60.24
827.349	121.68
827.527	160.59
827.704	90.96
827.882	144.21
828.059	97.11
828.237	80.72
828.414	154.45
828.591	62.29
828.769	25.43
828.946	60.24
829.124	74.58
829.301	129.88
829.478	-23.72
829.655	146.26
829.833	97.11
830.01	2.9
830.187	56.15
830.364	15.19
830.542	72.53
830.719	39.76
830.896	43.86
831.073	66.39
831.25	117.59
831.427	50
831.604	99.16
831.782	88.92
831.959	39.76
832.136	103.25
832.313	64.34
832.49	84.82
832.667	142.16
832.844	9.05
833.021	109.4
833.198	80.72
833.374	9.05
833.551	99.16
833.728	90.96
833.905	164.69
834.082	62.29
834.259	50
834.436	117.59
834.612	76.63
834.789	88.92
834.966	72.53
835.143	90.96
835.319	56.15
835.496	39.76
835.673	11.09
835.85	121.68
836.026	84.82
836.203	88.92
836.38	45.91
836.556	0.85
836.733	-7.34
836.909	125.78
837.086	70.48
837.262	-46.25
837.439	62.29
837.616	88.92
837.792	56.15
837.968	105.3
838.145	27.48
838.321	52.05
838.498	52.05
838.674	17.24
838.851	76.63
839.027	82.77
839.203	117.59
839.38	64.34
839.556	99.16
839.732	29.52
839.909	88.92
840.085	99.16
840.261	72.53
840.437	90.96
840.614	64.34
840.79	50
840.966	72.53
841.142	-1.19
841.318	47.96
841.494	166.74
841.671	47.96
841.847	82.77
842.023	-17.58
842.199	93.01
842.375	27.48
842.551	-5.29
842.727	2.9
842.903	105.3
843.079	88.92
843.255	95.06
843.431	15.19
843.607	97.11
843.783	74.58
843.959	131.92
844.134	66.39
844.31	133.97
844.486	-21.67
844.662	54.1
844.838	113.49
845.013	62.29
845.189	39.76
845.365	0.85
845.541	60.24
845.716	41.81
845.892	74.58
846.068	115.54
846.244	101.2
846.419	66.39
846.595	-1.19
846.77	80.72
846.946	76.63
847.122	17.24
847.297	11.09
847.473	-9.39
847.648	80.72
847.824	54.1
847.999	-1.19
848.175	13.14
848.35	15.19
848.526	58.2
848.701	105.3
848.876	76.63
849.052	105.3
849.227	13.14
849.403	72.53
849.578	11.09
849.753	56.15
849.929	45.91
850.104	25.43
850.279	74.58
850.454	17.24
850.63	125.78
850.805	84.82
850.98	62.29
851.155	29.52
851.33	56.15
851.505	4.95
851.681	88.92
851.856	15.19
852.031	47.96
852.206	47.96
852.381	86.87
852.556	76.63
852.731	13.14
852.906	31.57
853.081	56.15
853.256	125.78
853.431	-9.39
853.606	-5.29
853.781	84.82
853.956	-29.87
854.131	29.52
854.305	64.34
854.48	-5.29
854.655	45.91
854.83	9.05
855.005	35.67
855.18	31.57
855.354	-38.06
855.529	50
855.704	33.62
855.879	21.33
856.053	56.15
856.228	107.35
856.403	-23.72
856.577	82.77
856.752	9.05
856.926	29.52
857.101	64.34
857.276	-19.63
857.45	25.43
857.625	117.59
857.799	15.19
857.974	-17.58
858.148	31.57
858.323	140.12
858.497	45.91
858.672	11.09
858.846	11.09
859.02	105.3
859.195	-15.53
859.369	15.19
859.543	7
859.718	58.2
859.892	47.96
860.066	41.81
860.241	-5.29
860.415	50
860.589	-17.58
860.763	54.1
860.938	-5.29
861.112	-1.19
861.286	-9.39
861.46	31.57
861.634	2.9
861.808	29.52
861.982	-56.49
862.157	9.05
862.331	11.09
862.505	-93.35
862.679	-17.58
862.853	-13.48
863.027	27.48
863.201	2.9
863.375	35.67
863.549	66.39
863.722	27.48
863.896	80.72
864.07	-25.77
864.244	72.53
864.418	25.43
864.592	29.52
864.766	11.09
864.939	72.53
865.113	-3.24
865.287	68.44
865.461	-64.68
865.634	17.24
865.808	-38.06
865.982	43.86
866.156	64.34
866.329	19.29
866.503	33.62
866.676	-31.91
866.85	35.67
867.024	39.76
867.197	23.38
867.371	47.96
867.544	82.77
867.718	66.39
867.891	93.01
868.065	50
868.238	-15.53
868.412	56.15
868.585	-21.67
868.759	23.38
868.932	23.38
869.105	58.2
869.279	41.81
869.452	-13.48
869.625	25.43
869.799	88.92
869.972	-17.58
870.145	84.82
870.319	21.33
870.492	-1.19
870.665	11.09
870.838	60.24
871.011	-3.24
871.185	23.38
871.358	72.53
871.531	23.38
871.704	-7.34
871.877	72.53
872.05	31.57
872.223	64.34
872.396	70.48
872.569	64.34
872.742	15.19
872.915	140.12
873.088	31.57
873.261	74.58
873.434	9.05
873.607	31.57
873.78	70.48
873.953	66.39
874.126	33.62
874.299	41.81
874.471	35.67
874.644	23.38
874.817	72.53
874.99	80.72
875.163	15.19
875.335	-27.82
875.508	43.86
875.681	62.29
875.853	138.07
876.026	7
876.199	68.44
876.371	2.9
876.544	9.05
876.717	50
876.889	72.53
877.062	64.34
877.234	-56.49
877.407	97.11
877.579	19.29
877.752	-42.15
877.924	37.72
878.097	80.72
878.269	11.09
878.442	-9.39
878.614	-1.19
878.786	-25.77
878.959	56.15
879.131	31.57
879.303	-1.19
879.476	47.96
879.648	0.85
879.82	68.44
879.993	52.05
880.165	-17.58
880.337	-40.11
880.509	7
880.681	-66.73
880.854	-23.72
881.026	-3.24
881.198	90.96
881.37	15.19
881.542	-7.34
881.714	60.24
881.886	-9.39
882.058	-9.39
882.23	54.1
882.402	7
882.574	15.19
882.746	-19.63
882.918	39.76
883.09	4.95
883.262	-36.01
883.434	25.43
883.606	-1.19
883.778	9.05
883.95	123.73
884.122	23.38
884.293	47.96
884.465	-21.67
884.637	93.01
884.809	0.85
884.98	43.86
885.152	4.95
885.324	-5.29
885.496	-7.34
885.667	-64.68
885.839	27.48
886.011	64.34
886.182	-9.39
886.354	39.76
886.525	60.24
886.697	56.15
886.869	-25.77
887.04	78.68
887.212	64.34
887.383	66.39
887.555	-33.96
887.726	-7.34
887.897	-1.19
888.069	-44.2
888.24	74.58
888.412	50
888.583	78.68
888.754	-42.15
888.926	68.44
889.097	-9.39
889.268	35.67
889.44	2.9
889.611	62.29
889.782	-13.48
889.953	-62.63
890.125	60.24
890.296	74.58
890.467	-58.54
890.638	-31.91
890.809	41.81
890.98	23.38
891.151	68.44
891.323	41.81
891.494	11.09
891.665	27.48
891.836	-17.58
892.007	52.05
892.178	-9.39
892.349	-1.19
892.52	11.09
892.691	-31.91
892.862	56.15
893.032	-58.54
893.203	45.91
893.374	43.86
893.545	-9.39
893.716	-9.39
893.887	15.19
894.057	7
894.228	41.81
894.399	31.57
894.57	4.95
894.74	23.38
894.911	31.57
895.082	-33.96
895.253	9.05
895.423	-31.91
895.594	80.72
895.764	19.29
895.935	-7.34
896.106	-29.87
896.276	0.85
896.447	-1.19
896.617	-9.39
896.788	7
896.958	58.2
897.129	29.52
897.299	27.48
897.47	-3.24
897.64	50
897.81	-23.72
897.981	41.81
898.151	23.38
898.322	60.24
898.492	58.2
898.662	-13.48
898.832	35.67
899.003	39.76
899.173	33.62
899.343	15.19
899.513	-25.77
