Data from USB4F104151__38__14-16-40-768.txt Node

Date: Thu Mar 13 14:16:40 EDT 2025
User: louis
Spectrometer: USB4F10415
Trigger mode: 4
Integration Time (sec): 2.000000E-2
Scans to average: 1
Electric dark correction enabled: true
Nonlinearity correction enabled: false
Boxcar width: 0
XAxis mode: Wavelengths
Number of Pixels in Spectrum: 3648
>>>>>Begin Spectral Data<<<<<
178.204	-91.48
178.424	-91.48
178.644	-91.48
178.864	-103.76
179.084	-107.86
179.304	-5.46
179.524	-50.52
179.744	-50.52
179.964	84.65
180.184	15.02
180.404	27.31
180.624	51.88
180.844	-40.28
181.064	-32.08
181.283	-13.65
181.503	-58.71
181.723	72.36
181.943	10.92
182.163	47.79
182.383	12.97
182.602	51.88
182.822	39.59
183.042	29.35
183.262	33.45
183.482	2.73
183.701	-3.41
183.921	64.17
184.141	-56.66
184.361	-19.8
184.58	45.74
184.8	-38.23
185.02	-40.28
185.239	39.59
185.459	55.98
185.679	31.4
185.898	25.26
186.118	-32.08
186.338	23.21
186.557	64.17
186.777	27.31
186.997	66.22
187.216	23.21
187.436	35.5
187.655	-23.89
187.875	55.98
188.095	-5.46
188.314	45.74
188.534	27.31
188.753	58.03
188.973	15.02
189.192	62.12
189.412	98.99
189.631	84.65
189.851	60.07
190.07	39.59
190.29	-25.94
190.509	10.92
190.729	-19.8
190.948	-13.65
191.168	101.03
191.387	121.51
191.607	-42.32
191.826	19.11
192.045	6.83
192.265	6.83
192.484	74.41
192.704	39.59
192.923	-5.46
193.142	72.36
193.362	27.31
193.581	25.26
193.8	15.02
194.02	21.16
194.239	43.69
194.458	39.59
194.678	19.11
194.897	-5.46
195.116	-54.61
195.335	-9.56
195.555	-13.65
195.774	72.36
195.993	27.31
196.212	-34.13
196.432	-1.37
196.651	39.59
196.87	51.88
197.089	103.08
197.308	39.59
197.528	105.13
197.747	-30.04
197.966	-5.46
198.185	64.17
198.404	-34.13
198.623	47.79
198.842	80.55
199.062	90.79
199.281	0.68
199.5	-17.75
199.719	86.7
199.938	121.51
200.157	49.83
200.376	25.26
200.595	35.5
200.814	64.17
201.033	64.17
201.252	103.08
201.471	-34.13
201.69	115.37
201.909	47.79
202.128	-30.04
202.347	15.02
202.566	21.16
202.785	-13.65
203.004	23.21
203.223	49.83
203.442	51.88
203.661	12.97
203.879	19.11
204.098	45.74
204.317	23.21
204.536	74.41
204.755	47.79
204.974	58.03
205.193	23.21
205.411	72.36
205.63	53.93
205.849	96.94
206.068	-83.28
206.287	-58.71
206.505	55.98
206.724	51.88
206.943	6.83
207.162	90.79
207.381	45.74
207.599	17.07
207.818	47.79
208.037	43.69
208.255	23.21
208.474	12.97
208.693	70.31
208.911	17.07
209.13	-9.56
209.349	6.83
209.567	17.07
209.786	74.41
210.005	27.31
210.223	39.59
210.442	0.68
210.661	41.64
210.879	33.45
211.098	-32.08
211.316	49.83
211.535	55.98
211.753	105.13
211.972	6.83
212.191	-3.41
212.409	68.27
212.628	6.83
212.846	-42.32
213.065	-64.85
213.283	111.27
213.502	55.98
213.72	39.59
213.938	-19.8
214.157	4.78
214.375	94.89
214.594	39.59
214.812	-11.61
215.031	25.26
215.249	12.97
215.467	47.79
215.686	-17.75
215.904	74.41
216.122	78.51
216.341	51.88
216.559	76.46
216.778	-1.37
216.996	80.55
217.214	23.21
217.432	6.83
217.651	-9.56
217.869	23.21
218.087	35.5
218.306	-21.84
218.524	88.75
218.742	15.02
218.96	10.92
219.179	8.87
219.397	-13.65
219.615	82.6
219.833	25.26
220.051	-5.46
220.27	55.98
220.488	23.21
220.706	10.92
220.924	-5.46
221.142	-9.56
221.36	94.89
221.578	8.87
221.796	80.55
222.015	-30.04
222.233	23.21
222.451	98.99
222.669	-105.81
222.887	41.64
223.105	6.83
223.323	31.4
223.541	29.35
223.759	43.69
223.977	47.79
224.195	88.75
224.413	72.36
224.631	2.73
224.849	6.83
225.067	0.68
225.285	84.65
225.503	47.79
225.721	-1.37
225.939	-7.51
226.157	58.03
226.375	31.4
226.592	35.5
226.81	53.93
227.028	78.51
227.246	23.21
227.464	-9.56
227.682	64.17
227.9	76.46
228.117	0.68
228.335	19.11
228.553	2.73
228.771	15.02
228.989	37.55
229.206	119.46
229.424	-21.84
229.642	0.68
229.86	-56.66
230.077	49.83
230.295	55.98
230.513	25.26
230.731	68.27
230.948	125.61
231.166	47.79
231.384	51.88
231.601	-34.13
231.819	88.75
232.037	-15.7
232.254	39.59
232.472	31.4
232.689	58.03
232.907	39.59
233.125	25.26
233.342	43.69
233.56	-13.65
233.777	-9.56
233.995	47.79
234.213	47.79
234.43	37.55
234.648	21.16
234.865	-21.84
235.083	47.79
235.3	23.21
235.518	72.36
235.735	47.79
235.953	98.99
236.17	-34.13
236.388	-30.04
236.605	-15.7
236.822	62.12
237.04	-13.65
237.257	23.21
237.475	55.98
237.692	37.55
237.909	-17.75
238.127	35.5
238.344	41.64
238.562	51.88
238.779	-15.7
238.996	21.16
239.214	-42.32
239.431	2.73
239.648	35.5
239.865	25.26
240.083	-1.37
240.3	10.92
240.517	15.02
240.735	33.45
240.952	-13.65
241.169	37.55
241.386	35.5
241.603	68.27
241.821	-54.61
242.038	51.88
242.255	-15.7
242.472	2.73
242.689	-1.37
242.907	45.74
243.124	-48.47
243.341	49.83
243.558	113.32
243.775	-15.7
243.992	33.45
244.209	74.41
244.426	39.59
244.643	101.03
244.86	25.26
245.078	80.55
245.295	23.21
245.512	35.5
245.729	-21.84
245.946	12.97
246.163	74.41
246.38	45.74
246.597	62.12
246.814	-34.13
247.031	-40.28
247.248	55.98
247.464	47.79
247.681	64.17
247.898	82.6
248.115	33.45
248.332	-1.37
248.549	51.88
248.766	37.55
248.983	15.02
249.2	105.13
249.417	62.12
249.633	19.11
249.85	27.31
250.067	33.45
250.284	-11.61
250.501	51.88
250.717	23.21
250.934	-1.37
251.151	45.74
251.368	31.4
251.585	0.68
251.801	-36.18
252.018	-15.7
252.235	-25.94
252.451	-23.89
252.668	23.21
252.885	29.35
253.102	15.02
253.318	23.21
253.535	19.11
253.752	35.5
253.968	-23.89
254.185	49.83
254.401	31.4
254.618	-25.94
254.835	0.68
255.051	60.07
255.268	19.11
255.484	51.88
255.701	45.74
255.917	62.12
256.134	-17.75
256.351	58.03
256.567	39.59
256.784	58.03
257	0.68
257.217	88.75
257.433	4.78
257.65	12.97
257.866	-15.7
258.082	-7.51
258.299	113.32
258.515	60.07
258.732	17.07
258.948	-21.84
259.165	-66.9
259.381	68.27
259.597	43.69
259.814	6.83
260.03	21.16
260.246	-40.28
260.463	74.41
260.679	47.79
260.895	-13.65
261.112	37.55
261.328	-38.23
261.544	27.31
261.761	43.69
261.977	6.83
262.193	4.78
262.409	53.93
262.626	43.69
262.842	58.03
263.058	51.88
263.274	74.41
263.49	-30.04
263.707	58.03
263.923	131.75
264.139	-34.13
264.355	-13.65
264.571	55.98
264.787	-19.8
265.004	58.03
265.22	88.75
265.436	-54.61
265.652	6.83
265.868	49.83
266.084	-32.08
266.3	8.87
266.516	49.83
266.732	-7.51
266.948	-17.75
267.164	-56.66
267.38	15.02
267.596	-32.08
267.812	66.22
268.028	96.94
268.244	-25.94
268.46	-25.94
268.676	41.64
268.892	76.46
269.108	15.02
269.324	6.83
269.54	82.6
269.756	90.79
269.972	21.16
270.188	35.5
270.403	-5.46
270.619	6.83
270.835	-54.61
271.051	-15.7
271.267	17.07
271.483	-13.65
271.698	82.6
271.914	10.92
272.13	80.55
272.346	35.5
272.562	-40.28
272.777	-5.46
272.993	33.45
273.209	29.35
273.425	76.46
273.64	41.64
273.856	29.35
274.072	37.55
274.287	31.4
274.503	105.13
274.719	68.27
274.934	-7.51
275.15	6.83
275.366	58.03
275.581	-21.84
275.797	-34.13
276.012	39.59
276.228	15.02
276.444	25.26
276.659	39.59
276.875	8.87
277.09	-5.46
277.306	-34.13
277.521	121.51
277.737	-3.41
277.952	31.4
278.168	47.79
278.383	64.17
278.599	55.98
278.814	47.79
279.03	96.94
279.245	76.46
279.461	101.03
279.676	68.27
279.892	-1.37
280.107	-56.66
280.322	-58.71
280.538	19.11
280.753	-42.32
280.969	35.5
281.184	101.03
281.399	66.22
281.615	-58.71
281.83	8.87
282.045	-9.56
282.26	-1.37
282.476	58.03
282.691	31.4
282.906	10.92
283.122	-34.13
283.337	-38.23
283.552	60.07
283.767	-15.7
283.983	51.88
284.198	-5.46
284.413	90.79
284.628	-30.04
284.843	47.79
285.058	45.74
285.274	31.4
285.489	15.02
285.704	37.55
285.919	-30.04
286.134	8.87
286.349	27.31
286.564	6.83
286.779	66.22
286.995	47.79
287.21	64.17
287.425	88.75
287.64	-46.42
287.855	21.16
288.07	-58.71
288.285	23.21
288.5	0.68
288.715	64.17
288.93	0.68
289.145	64.17
289.36	105.13
289.575	8.87
289.79	-34.13
290.004	88.75
290.219	88.75
290.434	-7.51
290.649	10.92
290.864	-34.13
291.079	109.23
291.294	23.21
291.509	0.68
291.724	31.4
291.938	96.94
292.153	107.18
292.368	35.5
292.583	70.31
292.798	-1.37
293.012	-3.41
293.227	-9.56
293.442	-34.13
293.657	2.73
293.871	53.93
294.086	-1.37
294.301	-1.37
294.516	-17.75
294.73	35.5
294.945	-7.51
295.16	47.79
295.374	121.51
295.589	76.46
295.804	-46.42
296.018	47.79
296.233	39.59
296.447	43.69
296.662	31.4
296.877	6.83
297.091	84.65
297.306	66.22
297.52	2.73
297.735	17.07
297.949	-9.56
298.164	58.03
298.378	37.55
298.593	21.16
298.807	-58.71
299.022	4.78
299.236	29.35
299.451	25.26
299.665	10.92
299.88	19.11
300.094	8.87
300.309	-30.04
300.523	92.84
300.737	51.88
300.952	35.5
301.166	43.69
301.381	35.5
301.595	25.26
301.809	19.11
302.024	84.65
302.238	23.21
302.452	64.17
302.667	31.4
302.881	31.4
303.095	41.64
303.309	8.87
303.524	60.07
303.738	-21.84
303.952	-44.37
304.166	51.88
304.381	19.11
304.595	60.07
304.809	53.93
305.023	90.79
305.237	6.83
305.452	121.51
305.666	139.94
305.88	47.79
306.094	86.7
306.308	47.79
306.522	-30.04
306.736	41.64
306.95	64.17
307.164	68.27
307.379	37.55
307.593	113.32
307.807	103.08
308.021	55.98
308.235	94.89
308.449	80.55
308.663	-1.37
308.877	68.27
309.091	31.4
309.305	129.7
309.519	-46.42
309.733	80.55
309.947	-1.37
310.161	49.83
310.374	19.11
310.588	33.45
310.802	-9.56
311.016	64.17
311.23	80.55
311.444	-17.75
311.658	27.31
311.872	10.92
312.085	33.45
312.299	29.35
312.513	62.12
312.727	27.31
312.941	-11.61
313.154	49.83
313.368	80.55
313.582	23.21
313.796	39.59
314.009	41.64
314.223	27.31
314.437	55.98
314.651	21.16
314.864	-32.08
315.078	35.5
315.292	-1.37
315.505	84.65
315.719	29.35
315.933	60.07
316.146	64.17
316.36	8.87
316.573	-11.61
316.787	60.07
317.001	58.03
317.214	23.21
317.428	39.59
317.641	-21.84
317.855	8.87
318.068	72.36
318.282	47.79
318.495	23.21
318.709	37.55
318.922	88.75
319.136	51.88
319.349	62.12
319.563	55.98
319.776	-52.56
319.99	29.35
320.203	33.45
320.417	35.5
320.63	39.59
320.843	55.98
321.057	60.07
321.27	66.22
321.483	76.46
321.697	55.98
321.91	84.65
322.124	33.45
322.337	41.64
322.55	58.03
322.763	113.32
322.977	88.75
323.19	27.31
323.403	47.79
323.617	-54.61
323.83	25.26
324.043	60.07
324.256	64.17
324.469	62.12
324.683	111.27
324.896	82.6
325.109	70.31
325.322	76.46
325.535	39.59
325.748	8.87
325.962	47.79
326.175	-21.84
326.388	35.5
326.601	19.11
326.814	90.79
327.027	2.73
327.24	66.22
327.453	-38.23
327.666	39.59
327.879	84.65
328.092	25.26
328.305	10.92
328.518	12.97
328.731	27.31
328.944	31.4
329.157	58.03
329.37	-73.04
329.583	64.17
329.796	70.31
330.009	-54.61
330.222	-11.61
330.435	74.41
330.648	41.64
330.861	94.89
331.073	43.69
331.286	96.94
331.499	33.45
331.712	27.31
331.925	-7.51
332.138	70.31
332.35	23.21
332.563	35.5
332.776	96.94
332.989	6.83
333.202	105.13
333.414	49.83
333.627	47.79
333.84	33.45
334.053	55.98
334.265	17.07
334.478	0.68
334.691	-7.51
334.903	55.98
335.116	-36.18
335.329	72.36
335.541	2.73
335.754	86.7
335.966	19.11
336.179	113.32
336.392	64.17
336.604	66.22
336.817	8.87
337.029	78.51
337.242	55.98
337.454	84.65
337.667	53.93
337.88	-3.41
338.092	105.13
338.305	66.22
338.517	-27.99
338.729	121.51
338.942	64.17
339.154	17.07
339.367	58.03
339.579	19.11
339.792	80.55
340.004	90.79
340.217	80.55
340.429	84.65
340.641	27.31
340.854	41.64
341.066	-3.41
341.278	17.07
341.491	70.31
341.703	96.94
341.915	115.37
342.128	25.26
342.34	82.6
342.552	129.7
342.764	47.79
342.977	80.55
343.189	55.98
343.401	98.99
343.613	15.02
343.826	66.22
344.038	17.07
344.25	8.87
344.462	-40.28
344.674	60.07
344.886	64.17
345.099	6.83
345.311	23.21
345.523	55.98
345.735	-5.46
345.947	-7.51
346.159	31.4
346.371	6.83
346.583	23.21
346.795	45.74
347.007	29.35
347.219	96.94
347.431	12.97
347.643	66.22
347.855	72.36
348.067	64.17
348.279	-11.61
348.491	55.98
348.703	66.22
348.915	31.4
349.127	60.07
349.339	156.33
349.551	-64.85
349.763	4.78
349.975	66.22
350.187	96.94
350.399	31.4
350.61	17.07
350.822	27.31
351.034	84.65
351.246	74.41
351.458	84.65
351.669	72.36
351.881	39.59
352.093	66.22
352.305	31.4
352.517	84.65
352.728	55.98
352.94	43.69
353.152	15.02
353.363	105.13
353.575	17.07
353.787	78.51
353.999	-7.51
354.21	33.45
354.422	41.64
354.633	51.88
354.845	0.68
355.057	121.51
355.268	-13.65
355.48	119.46
355.692	43.69
355.903	84.65
356.115	58.03
356.326	33.45
356.538	139.94
356.749	15.02
356.961	39.59
357.172	47.79
357.384	78.51
357.595	72.36
357.807	43.69
358.018	33.45
358.23	35.5
358.441	109.23
358.653	39.59
358.864	70.31
359.075	6.83
359.287	129.7
359.498	139.94
359.709	64.17
359.921	66.22
360.132	51.88
360.344	178.86
360.555	49.83
360.766	17.07
360.977	-17.75
361.189	76.46
361.4	105.13
361.611	129.7
361.823	60.07
362.034	31.4
362.245	17.07
362.456	96.94
362.667	15.02
362.879	49.83
363.09	88.75
363.301	55.98
363.512	35.5
363.723	53.93
363.935	72.36
364.146	8.87
364.357	6.83
364.568	72.36
364.779	19.11
364.99	45.74
365.201	19.11
365.412	148.14
365.623	-1.37
365.834	51.88
366.045	0.68
366.256	27.31
366.467	90.79
366.678	-7.51
366.889	33.45
367.1	8.87
367.311	64.17
367.522	-5.46
367.733	68.27
367.944	92.84
368.155	25.26
368.366	72.36
368.577	33.45
368.788	45.74
368.999	2.73
369.209	70.31
369.42	125.61
369.631	107.18
369.842	64.17
370.053	17.07
370.264	27.31
370.474	27.31
370.685	90.79
370.896	35.5
371.107	84.65
371.317	98.99
371.528	-23.89
371.739	125.61
371.95	64.17
372.16	121.51
372.371	60.07
372.582	86.7
372.792	49.83
373.003	146.09
373.214	60.07
373.424	103.08
373.635	43.69
373.846	51.88
374.056	6.83
374.267	84.65
374.477	6.83
374.688	-1.37
374.898	121.51
375.109	47.79
375.319	15.02
375.53	66.22
375.74	19.11
375.951	25.26
376.161	60.07
376.372	82.6
376.582	33.45
376.793	27.31
377.003	66.22
377.214	25.26
377.424	96.94
377.635	23.21
377.845	23.21
378.055	90.79
378.266	-25.94
378.476	78.51
378.686	131.75
378.897	74.41
379.107	88.75
379.317	74.41
379.528	88.75
379.738	96.94
379.948	8.87
380.158	96.94
380.369	-7.51
380.579	62.12
380.789	47.79
380.999	119.46
381.21	15.02
381.42	107.18
381.63	58.03
381.84	0.68
382.05	105.13
382.261	101.03
382.471	55.98
382.681	92.84
382.891	76.46
383.101	80.55
383.311	64.17
383.521	47.79
383.731	37.55
383.941	47.79
384.151	80.55
384.361	43.69
384.571	23.21
384.781	70.31
384.991	80.55
385.201	82.6
385.411	49.83
385.621	70.31
385.831	60.07
386.041	47.79
386.251	23.21
386.461	58.03
386.671	15.02
386.881	107.18
387.091	43.69
387.301	88.75
387.511	60.07
387.72	51.88
387.93	60.07
388.14	47.79
388.35	6.83
388.56	60.07
388.769	66.22
388.979	170.66
389.189	6.83
389.399	92.84
389.609	60.07
389.818	78.51
390.028	60.07
390.238	92.84
390.447	43.69
390.657	125.61
390.867	43.69
391.076	23.21
391.286	72.36
391.496	47.79
391.705	80.55
391.915	25.26
392.125	137.9
392.334	-19.8
392.544	144.04
392.753	51.88
392.963	33.45
393.172	64.17
393.382	23.21
393.591	109.23
393.801	88.75
394.01	148.14
394.22	113.32
394.429	47.79
394.639	15.02
394.848	72.36
395.058	25.26
395.267	133.8
395.477	84.65
395.686	105.13
395.895	107.18
396.105	76.46
396.314	154.28
396.524	156.33
396.733	94.89
396.942	180.9
397.152	113.32
397.361	94.89
397.57	105.13
397.78	148.14
397.989	90.79
398.198	109.23
398.407	187.05
398.617	156.33
398.826	88.75
399.035	113.32
399.244	129.7
399.453	123.56
399.663	137.9
399.872	133.8
400.081	170.66
400.29	154.28
400.499	43.69
400.708	215.72
400.917	64.17
401.127	115.37
401.336	117.42
401.545	174.76
401.754	174.76
401.963	187.05
402.172	180.9
402.381	158.38
402.59	180.9
402.799	185
403.008	191.14
403.217	154.28
403.426	211.62
403.635	133.8
403.844	107.18
404.053	170.66
404.262	197.29
404.471	162.47
404.68	144.04
404.888	238.25
405.097	260.77
405.306	232.1
405.515	203.43
405.724	305.83
405.933	207.53
406.142	211.62
406.35	285.35
406.559	172.71
406.768	240.3
406.977	217.77
407.185	252.58
407.394	277.16
407.603	248.49
407.812	309.93
408.02	350.89
408.229	162.47
408.438	305.83
408.646	262.82
408.855	285.35
409.064	318.12
409.272	350.89
409.481	391.84
409.69	326.31
409.898	359.08
410.107	447.14
410.315	410.28
410.524	406.18
410.733	455.33
410.941	369.32
411.15	492.2
411.358	447.14
411.567	580.26
411.775	412.32
411.984	494.24
412.192	567.97
412.401	506.53
412.609	629.41
412.818	678.56
413.026	662.18
413.234	588.45
413.443	570.02
413.651	676.51
413.86	662.18
414.068	723.62
414.276	787.1
414.485	735.9
414.693	844.45
414.901	850.59
415.11	918.17
415.318	993.95
415.526	1014.43
415.734	891.55
415.943	1036.95
416.151	1049.24
416.359	1065.63
416.567	981.66
416.776	1055.39
416.984	1241.75
417.192	1317.53
417.4	1196.7
417.608	1235.61
417.817	1372.82
418.025	1424.02
418.233	1575.57
418.441	1403.54
418.649	1516.18
418.857	1604.24
419.065	1583.76
419.273	1571.47
419.481	1645.2
419.689	1796.75
419.897	1858.19
420.105	1882.77
420.313	1964.68
420.521	2073.23
420.729	1940.11
420.937	2105.99
421.145	2286.22
421.353	2402.95
421.561	2398.85
421.769	2366.09
421.977	2550.4
422.185	2562.69
422.393	2724.48
422.601	2878.08
422.809	2835.07
423.017	2933.37
423.224	2988.67
423.432	3095.16
423.64	3193.47
423.848	3390.07
424.056	3373.69
424.263	3476.09
424.471	3541.62
424.679	3684.98
424.887	3803.76
425.094	3928.69
425.302	3926.64
425.51	4233.83
425.718	4274.79
425.925	4303.47
426.133	4280.94
426.341	4799.07
426.548	4911.71
426.756	4932.19
426.964	5044.83
427.171	5218.91
427.379	5438.04
427.586	5542.49
427.794	5610.07
428.001	5761.62
428.209	6169.16
428.417	6120.01
428.624	6390.35
428.832	6521.42
429.039	6517.32
429.247	6517.32
429.454	7094.85
429.662	7502.39
429.869	7094.85
430.076	7600.69
430.284	7305.79
430.491	7676.47
430.699	8059.44
430.906	8034.86
431.114	8155.69
431.321	8512.04
431.528	8692.26
431.736	9234.97
431.943	9675.29
432.15	9470.49
432.358	9462.3
432.565	9892.37
432.772	9896.47
432.979	10443.28
433.187	10590.73
433.394	10674.7
433.601	11391.48
433.808	11557.37
434.016	11409.92
434.223	11852.28
434.43	12534.25
434.637	12302.83
434.844	12796.39
435.052	13244.9
435.259	13128.16
435.466	13216.22
435.673	13007.33
435.88	14107.09
436.087	14737.87
436.294	14836.17
436.501	14670.28
436.708	14823.88
436.915	15208.9
437.122	15948.22
437.329	15854.01
437.537	16564.65
437.743	16566.7
437.95	16581.04
438.157	17480.1
438.364	17865.11
438.571	18004.38
438.778	18061.72
438.985	19650.94
439.192	18672.01
439.399	19587.46
439.606	19026.31
439.813	20412.79
440.02	21436.77
440.227	20810.09
440.433	21148.01
440.64	21508.45
440.847	21461.35
441.054	21766.49
441.261	23433.54
441.467	22829.39
441.674	23359.81
441.881	24226.1
442.088	24396.09
442.294	24394.04
442.501	24576.31
442.708	24973.61
442.914	25876.77
443.121	27283.72
443.328	26730.77
443.534	28279.04
443.741	27482.38
443.948	27087.12
444.154	29352.17
444.361	28856.56
444.568	29436.14
444.774	28956.91
444.981	29427.95
445.187	30331.1
445.394	31594.7
445.6	31238.35
445.807	34035.88
446.013	32594.11
446.22	33376.43
446.426	34388.13
446.633	34859.16
446.839	35666.06
447.046	34298.02
447.252	36401.28
447.459	36518.01
447.665	36530.3
447.871	37771.37
448.078	39067.73
448.284	37785.71
448.491	38422.62
448.697	40122.44
448.903	40845.37
449.11	40773.69
449.316	39911.5
449.522	40568.9
449.728	42008.62
449.935	42246.18
450.141	42006.57
450.347	43005.98
450.553	42127.4
450.76	42885.15
450.966	43425.81
451.172	43280.41
451.378	44462.08
451.584	43640.85
451.791	44623.87
451.997	44075.02
452.203	45150.2
452.409	45139.96
452.615	44695.55
452.821	43304.98
453.027	42493.99
453.233	44699.65
453.44	42901.53
453.646	43776.01
453.852	43810.83
454.058	44728.32
454.264	43184.15
454.47	44582.91
454.676	42997.79
454.882	44883.97
455.088	41062.46
455.294	40898.62
455.5	42012.71
455.705	42504.23
455.911	40804.41
456.117	39815.24
456.323	39512.14
456.529	37400.69
456.735	39825.48
456.941	37804.14
457.147	37814.38
457.352	36501.63
457.558	35897.48
457.764	35907.72
457.97	35795.08
458.176	34504.86
458.381	34853.01
458.587	33124.53
458.793	32811.19
458.999	31568.07
459.204	33753.26
459.41	32960.69
459.616	30519.51
459.821	30683.35
460.027	30757.08
460.233	29841.64
460.438	28895.47
460.644	28645.62
460.85	27119.88
461.055	26800.4
461.261	26765.59
461.466	25114.92
461.672	24439.09
461.878	26112.28
462.083	24461.62
462.289	23601.47
462.494	23363.91
462.7	22440.28
462.905	22051.16
463.111	22790.48
463.316	22692.18
463.522	22288.73
463.727	22530.39
463.932	22534.48
464.138	22036.83
464.343	21860.7
464.549	21338.47
464.754	22296.92
464.959	21930.33
465.165	21809.5
465.37	20867.44
465.575	20324.72
465.781	20914.54
465.986	21442.92
466.191	20513.14
466.397	20142.46
466.602	19071.37
466.807	20007.29
467.012	19941.75
467.218	19786.11
467.423	19497.35
467.628	19798.4
467.833	20451.7
468.038	19868.03
468.244	19194.25
468.449	19966.33
468.654	19032.46
468.859	18995.59
469.064	18829.71
469.269	18305.43
469.474	18385.3
469.679	18631.05
469.885	18160.02
470.09	18352.53
470.295	18254.23
470.5	17854.87
470.705	17928.6
470.91	17590.69
471.115	17490.34
471.32	18035.1
471.525	17480.1
471.73	16972.2
471.935	17142.18
472.139	16562.61
472.344	16832.94
472.549	16454.06
472.754	16529.84
472.959	16282.03
473.164	15634.88
473.369	15624.64
473.574	16267.7
473.778	16038.33
473.983	15899.06
474.188	15745.47
474.393	15071.68
474.598	15329.73
474.802	14989.77
475.007	15043.01
475.212	14981.57
475.417	14690.76
475.621	14498.25
475.826	14764.49
476.031	14016.98
476.235	13842.9
476.44	13937.11
476.645	13668.83
476.849	13785.56
477.054	13726.17
477.259	13609.43
477.463	13341.15
477.668	13119.97
477.872	13576.67
478.077	13146.59
478.282	12704.23
478.486	12677.61
478.691	12581.35
478.895	12581.35
479.1	12599.79
479.304	12663.27
479.509	12214.77
479.713	12360.17
479.918	12161.52
480.122	11764.22
480.326	12114.42
480.531	12179.95
480.735	11942.39
480.94	11907.57
481.144	12227.06
481.348	11704.82
481.553	11723.26
481.757	11756.02
481.961	11590.14
482.166	11788.79
482.37	11518.46
482.574	11473.4
482.778	11528.7
482.983	11583.99
483.187	11766.26
483.391	11733.5
483.595	11706.87
483.8	11450.88
484.004	11627
484.208	11803.13
484.412	11565.56
484.616	11661.82
484.821	11672.06
485.025	11430.4
485.229	11702.78
485.433	11573.75
485.637	11672.06
485.841	11344.38
486.045	11571.71
486.249	11616.76
486.453	11516.41
486.657	11551.23
486.861	11627
487.065	11211.26
487.269	11784.69
487.473	11416.06
487.677	11602.43
487.881	11837.94
488.085	11450.88
488.289	11639.29
488.493	11616.76
488.697	11622.91
488.901	11678.2
489.105	11672.06
489.309	11704.82
489.512	11749.88
489.716	11575.8
489.92	11680.25
490.124	11694.58
490.328	11942.39
490.531	11948.53
490.735	11876.85
490.939	12124.66
491.143	11936.24
491.346	12048.88
491.55	12173.81
491.754	11944.44
491.958	11962.87
492.161	12075.51
492.365	12237.3
492.569	12159.47
492.772	12122.61
492.976	12145.14
493.18	12339.69
493.383	12573.16
493.587	12585.45
493.79	12573.16
493.994	12372.46
494.197	12417.52
494.401	12802.54
494.605	12827.11
494.808	12941.8
495.012	13036
495.215	13210.08
495.419	13244.9
495.622	13173.22
495.825	13496.8
496.029	13253.09
496.232	13795.8
496.436	13615.58
496.639	14365.14
496.843	14072.28
497.046	14260.69
497.249	14315.98
497.453	14475.73
497.656	14647.76
497.859	14567.88
498.063	14528.97
498.266	14957
498.469	15006.15
498.673	15194.56
498.876	15475.13
499.079	15468.99
499.282	15512
499.485	16122.29
499.689	16148.92
499.892	16140.72
500.095	16140.72
500.298	16759.21
500.501	16505.26
500.705	16961.96
500.908	17033.64
501.111	17002.92
501.314	17283.49
501.517	17744.28
501.72	17965.46
501.923	17478.05
502.126	17901.98
502.329	18254.23
502.532	18641.29
502.735	18710.93
502.938	19005.83
503.141	19184.01
503.344	19399.04
503.547	19480.96
503.75	19548.54
503.953	20068.73
504.156	20210.04
504.359	20504.95
504.562	20543.86
504.765	21076.33
504.968	21229.93
505.17	21293.41
505.373	21397.86
505.576	21774.69
505.779	22137.18
505.982	22065.5
506.185	22339.93
506.387	22356.31
506.59	23081.29
506.793	23228.74
506.996	23144.78
507.198	23947.58
507.401	23728.45
507.604	24011.07
507.807	24185.15
508.009	24578.36
508.212	24820.02
508.415	25182.51
508.617	25590.05
508.82	25411.88
509.022	25545
509.225	26003.74
509.428	26231.07
509.63	26761.49
509.833	26880.27
510.035	27490.57
510.238	27150.6
510.44	27492.62
510.643	28162.3
510.845	28375.29
511.048	27863.3
511.25	28471.54
511.453	28592.37
511.655	29927.65
511.858	29405.42
512.06	29618.41
512.262	29853.92
512.465	30017.76
512.667	30804.18
512.87	30974.16
513.072	30841.04
513.274	31662.28
513.477	31592.65
513.679	31789.25
513.881	32264.38
514.084	32723.13
514.286	32522.43
514.488	32692.41
514.69	33763.5
514.893	33607.85
515.095	33876.13
515.297	34533.53
515.499	34363.55
515.701	34801.82
515.904	34969.75
516.106	35082.39
516.308	35623.05
516.51	36089.99
516.712	36247.68
516.914	36544.64
517.116	36999.29
517.318	37220.47
517.52	37679.21
517.722	37640.3
517.925	38320.23
518.127	38580.32
518.329	38396
518.531	38240.36
518.733	39379.03
518.935	39921.74
519.136	39776.33
519.338	40439.87
519.54	40513.6
519.742	40955.96
519.944	41068.6
520.146	41674.8
520.348	41519.15
520.55	41619.5
520.752	42276.9
520.954	42850.33
521.155	42455.07
521.357	43225.11
521.559	43347.99
521.761	43431.96
521.963	43677.71
522.164	43847.69
522.366	44126.22
522.568	44494.85
522.77	45033.47
522.971	45502.45
523.173	45164.54
523.375	45166.59
523.576	45629.43
523.778	46028.78
523.98	46516.2
524.181	46950.37
524.383	46475.24
524.584	47056.86
524.786	47232.99
524.988	46995.42
525.189	47273.95
525.391	47845.33
525.592	47886.29
525.794	48277.45
525.995	48244.68
526.197	48308.17
526.398	48523.21
526.6	48662.47
526.801	49104.83
527.003	49072.06
527.204	49452.98
527.406	49715.12
527.607	49221.56
527.808	49668.02
528.01	49266.62
528.211	49629.11
528.412	50775.97
528.614	50511.78
528.815	49964.98
529.016	50644.9
529.218	50274.22
529.419	51077.02
529.62	50497.45
529.822	50780.07
530.023	50655.14
530.224	51021.73
530.425	51015.58
530.626	50536.36
530.828	50397.1
531.029	51574.68
531.23	50904.99
531.431	50745.25
531.632	51210.14
531.833	51851.16
532.035	51261.34
532.236	51306.4
532.437	51498.9
532.638	51220.38
532.839	51695.51
533.04	51617.69
533.241	51199.9
533.442	52088.72
533.643	51572.63
533.844	51431.32
534.045	51996.56
534.246	51023.78
534.447	51376.03
534.648	51789.72
534.849	51931.03
535.05	51414.94
535.251	51953.55
535.451	51648.41
535.652	52123.54
535.853	51498.9
536.054	51705.75
536.255	51840.92
536.456	51367.83
536.657	52533.13
536.857	51437.47
537.058	51298.2
537.259	52035.47
537.46	52127.63
537.66	51498.9
537.861	51961.75
538.062	51296.16
538.263	51711.89
538.463	51232.67
538.664	51681.17
538.865	51699.61
539.065	51941.27
539.266	51394.46
539.466	51720.09
539.667	51169.18
539.868	52080.53
540.068	51636.12
540.269	51298.2
540.469	52088.72
540.67	51326.88
540.87	51363.74
541.071	51292.06
541.271	51548.06
541.472	51591.06
541.672	51230.62
541.873	50722.72
542.073	50462.63
542.274	51701.65
542.474	51382.17
542.675	51025.82
542.875	51824.53
543.075	51840.92
543.276	50714.53
543.476	51595.16
543.676	50986.91
543.877	51251.1
544.077	51392.41
544.277	51056.54
544.478	51236.76
544.678	51394.46
544.878	51148.7
545.078	50976.67
545.279	51027.87
545.479	51191.71
545.679	51095.46
545.879	51062.69
546.079	51058.59
546.28	51193.76
546.48	50726.82
546.68	51204
546.88	51447.71
547.08	51425.18
547.28	51443.61
547.48	50909.09
547.68	51077.02
547.88	50540.46
548.081	51138.46
548.281	51210.14
548.481	51005.34
548.681	51105.69
548.881	50872.23
549.081	51177.37
549.28	50720.68
549.48	51302.3
549.68	50814.88
549.88	51234.72
550.08	50702.25
550.28	51160.99
550.48	50800.55
550.68	51294.11
550.88	50403.24
551.08	50552.74
551.279	51177.37
551.479	50581.41
551.679	50821.03
551.879	50571.18
552.079	51226.53
552.278	50636.71
552.478	50550.7
552.678	51099.55
552.878	50753.44
553.077	50866.08
553.277	50481.06
553.477	51593.11
553.676	50509.74
553.876	50616.23
554.076	49917.87
554.275	50618.28
554.475	50204.59
554.674	50718.63
554.874	50810.79
555.074	50237.36
555.273	50526.12
555.473	50696.1
555.672	49881.01
555.872	50038.7
556.071	50046.89
556.271	50778.02
556.47	50106.29
556.67	50048.94
556.869	49964.98
557.068	50243.5
557.268	49872.82
557.467	50118.57
557.667	49721.27
557.866	50100.14
558.065	49616.82
558.265	50022.32
558.464	49313.72
558.663	50186.16
558.863	49303.48
559.062	50020.27
559.261	49276.86
559.461	50495.4
559.66	49135.55
559.859	49346.49
560.058	49057.73
560.258	49477.56
560.457	49350.59
560.656	49696.69
560.855	49108.93
561.054	49287.1
561.253	49391.54
561.453	48822.21
561.652	49092.54
561.851	49328.06
562.05	48394.18
562.249	48908.22
562.448	49121.21
562.647	48836.55
562.846	48619.46
563.045	49090.49
563.244	48203.72
563.443	49088.45
563.642	48070.61
563.841	48338.89
564.04	48046.03
564.239	48775.11
564.438	47845.33
564.637	48267.21
564.836	48246.73
565.035	47488.98
565.234	47923.15
565.432	47812.56
565.631	47624.15
565.83	48011.21
566.029	47824.85
566.228	47708.11
566.427	47439.83
566.625	47472.6
566.824	46827.49
567.023	47519.7
567.222	46757.86
567.42	47636.44
567.619	47351.77
567.818	46878.69
568.016	46958.56
568.215	47370.2
568.414	46526.44
568.612	47093.72
568.811	46761.95
569.01	46903.26
569.208	46145.51
569.407	46804.96
569.605	46202.86
569.804	46610.4
570.002	45625.33
570.201	46180.33
570.4	45821.94
570.598	45799.41
570.797	45535.22
570.995	45852.65
571.193	45125.63
571.392	46026.73
571.59	45559.8
571.789	45135.87
571.987	45565.94
572.186	45152.25
572.384	45332.47
572.582	45125.63
572.781	44701.7
572.979	44331.01
573.177	45213.69
573.376	44972.03
573.574	44191.75
573.772	44875.77
573.971	43855.89
574.169	44181.51
574.367	44158.98
574.565	44242.95
574.763	43771.92
574.962	43878.41
575.16	43337.75
575.358	43638.8
575.556	43409.43
575.754	43710.48
575.952	43124.76
576.151	43819.02
576.349	42981.4
576.547	42977.31
576.745	43294.74
576.943	43323.41
577.141	43196.44
577.339	42848.28
577.537	42797.09
577.735	42643.49
577.933	42182.69
578.131	42766.37
578.329	42231.85
578.527	41740.33
578.725	42250.28
578.923	41943.08
579.121	41812.01
579.319	41818.16
579.516	42160.17
579.714	41812.01
579.912	41766.96
580.11	41437.23
580.308	41474.1
580.506	41285.68
580.704	40673.34
580.901	41109.56
581.099	41510.96
581.297	40808.51
581.495	40773.69
581.692	40646.72
581.89	40669.25
582.088	41357.36
582.285	40396.87
582.483	40652.86
582.681	40220.74
582.878	40409.15
583.076	39800.91
583.274	39940.17
583.471	39489.62
583.669	39786.57
583.866	39299.15
584.064	39577.68
584.262	39247.96
584.459	39465.04
584.657	38963.29
584.854	39460.94
585.052	38981.72
585.249	39049.3
585.447	39135.32
585.644	38500.45
585.841	39041.11
586.039	39051.35
586.236	38309.99
586.434	38373.47
586.631	38565.98
586.828	38346.85
587.026	38406.24
587.223	38123.62
587.42	38119.53
587.618	37853.29
587.815	37525.61
588.012	37601.39
588.21	37574.77
588.407	37830.76
588.604	37646.44
588.801	37324.91
588.999	36866.17
589.196	37224.56
589.393	37261.43
589.59	37038.2
589.787	36771.96
589.984	36812.92
590.182	36178.05
590.379	36857.98
590.576	35864.71
590.773	36362.37
590.97	35836.04
591.167	36386.94
591.364	35776.65
591.561	36198.53
591.758	35354.77
591.955	35909.77
592.152	35711.11
592.349	35123.35
592.546	35551.37
592.743	35678.35
592.94	34699.42
593.137	35481.74
593.334	35379.34
593.531	34979.99
593.727	35231.89
593.924	34748.57
594.121	34293.92
594.318	34867.35
594.515	34410.65
594.712	34279.58
594.908	34523.29
595.105	34271.39
595.302	34234.53
595.499	34175.14
595.696	34103.46
595.892	33544.36
596.089	34035.88
596.286	34005.16
596.482	33859.75
596.679	33206.45
596.876	33720.49
597.072	33276.08
597.269	33599.66
597.466	33284.27
597.662	33386.67
597.859	33071.28
598.055	33042.61
598.252	32839.86
598.448	32682.17
598.645	32628.92
598.841	32503.99
599.038	32508.09
599.234	32477.37
599.431	32147.65
599.627	31924.42
599.824	32393.4
600.02	32096.45
600.217	32307.39
600.413	31756.49
600.609	31756.49
600.806	31697.09
601.002	31942.85
601.198	31594.7
601.395	31193.29
601.591	31527.11
601.787	31236.3
601.984	31031.51
602.18	31258.83
602.376	30806.23
602.572	31027.41
602.769	30789.84
602.965	30380.25
603.161	30888.15
603.357	30478.55
603.553	30558.42
603.75	30345.44
603.946	30150.88
604.142	30460.12
604.338	29806.82
604.534	30185.69
604.73	29870.31
604.926	29724.9
605.122	29935.84
605.318	29548.78
605.514	29593.83
605.71	29262.06
605.906	29757.67
606.102	29438.19
606.298	29749.48
606.494	29286.64
606.69	29184.24
606.886	29206.76
607.082	28621.05
607.278	29223.15
607.474	28762.36
607.67	29012.21
607.866	28324.09
608.062	28858.61
608.257	28565.75
608.453	28659.96
608.649	28696.82
608.845	28500.22
609.041	28367.1
609.236	28410.11
609.432	27965.7
609.628	28307.71
609.824	28213.5
610.019	28098.81
610.215	28027.13
610.411	28010.75
610.606	27898.11
610.802	28033.28
610.998	27898.11
611.193	27857.15
611.389	27844.87
611.584	27517.19
611.78	27947.26
611.976	27488.52
612.171	27775.23
612.367	27513.09
612.562	27515.14
612.758	26693.91
612.953	26968.34
613.149	27566.34
613.344	26956.05
613.539	27453.7
613.735	26874.13
613.93	27121.93
614.126	26853.65
614.321	27345.16
614.517	27009.29
614.712	26642.71
614.907	26548.5
615.103	26759.44
615.298	26382.62
615.493	27156.75
615.688	26372.38
615.884	26857.74
616.079	26069.28
616.274	26339.61
616.47	26239.26
616.665	26222.87
616.86	26083.61
617.055	26192.15
617.25	26077.47
617.445	26603.8
617.641	25708.83
617.836	26179.87
618.031	25528.61
618.226	26044.7
618.421	25319.72
618.616	26143
618.811	25286.95
619.006	25602.34
619.201	25135.4
619.396	25280.81
619.591	24406.33
619.786	25477.41
619.981	24740.15
620.176	25024.81
620.371	24441.14
620.566	24256.82
620.761	24580.4
620.956	24766.77
621.151	24412.47
621.346	24459.57
621.541	23646.53
621.735	24035.64
621.93	23914.81
622.125	23988.54
622.32	23550.28
622.515	23818.56
622.709	23585.09
622.904	23271.75
623.099	23177.54
623.294	23312.71
623.488	23105.87
623.683	23157.07
623.878	22567.25
624.072	22628.69
624.267	22624.59
624.462	22303.06
624.656	22341.97
624.851	22108.51
625.046	22223.19
625.24	22094.17
625.435	21805.41
625.629	21782.88
625.824	21283.17
626.018	21530.98
626.213	21221.73
626.407	21322.09
626.602	21438.82
626.796	21313.89
626.991	20982.12
627.185	20799.85
627.38	20595.06
627.574	20576.62
627.768	20261.24
627.963	20294
628.157	20095.35
628.352	20330.87
628.546	19954.04
628.74	20197.75
628.935	19863.93
629.129	19648.89
629.323	19556.74
629.517	19652.99
629.712	19454.34
629.906	19589.5
630.1	19097.99
630.294	19110.28
630.489	19331.46
630.683	19343.75
630.877	18913.67
631.071	18796.94
631.265	18751.88
631.459	18596.24
631.653	18594.19
631.848	18602.38
632.042	18258.32
632.236	18364.82
632.43	18061.72
632.624	18241.94
632.818	17797.53
633.012	17975.7
633.206	17742.24
633.4	17746.33
633.594	17682.84
633.788	17346.98
633.982	17582.49
634.176	17496.48
634.369	17203.62
634.563	17131.94
634.757	17154.47
634.951	17281.44
635.145	17041.83
635.339	16828.84
635.533	16673.2
635.726	16716.2
635.92	16327.09
636.114	16333.23
636.308	16288.18
636.501	16361.9
636.695	16314.8
636.889	16198.07
637.083	16120.24
637.276	15919.54
637.47	15890.87
637.664	15903.16
637.857	15800.76
638.051	15667.64
638.244	15464.89
638.438	15385.02
638.632	15716.79
638.825	15387.07
639.019	15212.99
639.212	15206.85
639.406	15342.02
639.599	15112.64
639.793	14967.24
639.986	15008.2
640.18	14981.57
640.373	14690.76
640.567	14574.03
640.76	14852.55
640.954	14690.76
641.147	14262.74
641.34	14205.39
641.534	14352.85
641.727	13871.58
641.92	14189.01
642.114	14082.52
642.307	14074.32
642.5	13877.72
642.694	13640.15
642.887	13828.57
643.08	14080.47
643.273	13734.36
643.467	13654.49
643.66	13582.81
643.853	13433.31
644.046	13017.57
644.239	13242.85
644.432	13189.6
644.626	12956.13
644.819	12665.32
645.012	13013.48
645.205	12847.59
645.398	12863.97
645.591	12564.97
645.784	12702.18
645.977	12595.69
646.17	12671.47
646.363	12591.59
646.556	12384.75
646.749	12356.08
646.942	12327.41
647.135	12098.03
647.328	12229.1
647.521	12124.66
647.714	11880.95
647.907	11958.77
648.099	11915.76
648.292	11987.44
648.485	11639.29
648.678	11500.03
648.871	11737.59
649.064	11596.28
649.256	11508.22
649.449	11487.74
649.642	11289.09
649.835	11389.44
650.027	11143.68
650.22	11221.5
650.413	11016.71
650.605	11026.95
650.798	10988.03
650.991	11055.62
651.183	11106.82
651.376	10920.45
651.568	10914.31
651.761	10725.9
651.954	10766.85
652.146	10541.58
652.339	10713.61
652.531	10654.22
652.724	10494.47
652.916	10320.4
653.109	10308.11
653.301	10416.65
653.494	10318.35
653.686	10197.52
653.879	10377.74
654.071	10199.57
654.263	10084.88
654.456	10064.4
654.648	10099.22
654.84	9871.89
655.033	9855.51
655.225	9974.29
655.417	9699.86
655.61	9607.7
655.802	9746.97
655.994	9845.27
656.186	9568.79
656.379	9628.18
656.571	9576.98
656.763	9253.41
656.955	9349.66
657.148	9480.73
657.34	9267.74
657.532	9189.92
657.724	9230.88
657.916	9234.97
658.108	9042.46
658.3	9032.22
658.492	9103.9
658.684	9054.75
658.876	8753.7
659.068	8841.76
659.26	8733.22
659.452	8677.93
659.644	8714.79
659.836	8739.37
660.028	8466.99
660.22	8360.49
660.412	8487.47
660.604	8385.07
660.796	8354.35
660.988	8237.61
661.18	8380.97
661.372	8127.02
661.563	8378.92
661.755	8159.79
661.947	8010.29
662.139	8067.63
662.331	8108.59
662.522	8045.1
662.714	8051.25
662.906	7983.66
663.097	7918.13
663.289	7871.03
663.481	7701.05
663.673	7643.7
663.864	7678.52
664.056	7631.41
664.247	7694.9
664.439	7641.65
664.631	7629.37
664.822	7785.01
665.014	7623.22
665.205	7520.82
665.397	7537.21
665.588	7406.14
665.78	7385.66
665.971	7449.14
666.163	7432.76
666.354	7201.34
666.546	7254.59
666.737	7146.05
666.929	7162.43
667.12	7092.8
667.311	7076.41
667.503	6992.45
667.694	7043.65
667.885	6916.67
668.077	6896.19
668.268	6869.57
668.459	6728.26
668.651	6804.03
668.842	6761.03
669.033	6883.91
669.224	6670.92
669.416	6750.79
669.607	6619.72
669.798	6646.34
669.989	6765.12
670.18	6584.9
670.371	6658.63
670.563	6470.22
670.754	6416.97
670.945	6398.54
671.136	6275.66
671.327	6437.45
671.518	6281.8
671.709	6396.49
671.9	6519.37
672.091	6335.05
672.282	6275.66
672.473	6191.69
672.664	6175.31
672.855	6363.72
673.046	6163.02
673.237	6208.08
673.428	6212.17
673.619	6134.35
673.809	6019.66
674	5919.31
674.191	6120.01
674.382	6081.1
674.573	6046.29
674.764	6079.05
674.954	5952.08
675.145	5833.3
675.336	5896.78
675.527	5851.73
675.717	5847.63
675.908	5634.64
676.099	5900.88
676.289	5782.1
676.48	5798.48
676.671	5659.22
676.861	5749.33
677.052	5593.69
677.243	5538.39
677.433	5718.61
677.624	5556.82
677.814	5536.34
678.005	5585.49
678.195	5700.18
678.386	5634.64
678.576	5556.82
678.767	5495.38
678.957	5579.35
679.148	5415.51
679.338	5544.53
679.529	5444.18
679.719	5696.08
679.909	5503.57
680.1	5413.46
680.29	5397.08
680.481	5435.99
680.671	5454.42
680.861	5401.18
681.052	5325.4
681.242	5102.17
681.432	5327.45
681.622	5022.3
681.813	5157.47
682.003	5163.61
682.193	5110.36
682.383	5130.84
682.573	5161.56
682.764	5126.75
682.954	5171.8
683.144	5184.09
683.334	5085.79
683.524	4952.67
683.714	4919.9
683.904	5081.69
684.094	4930.14
684.284	5016.16
684.474	5061.21
684.664	5118.56
684.854	4897.38
685.044	4817.51
685.234	4905.57
685.424	5087.84
685.614	4739.68
685.804	4954.72
685.994	4901.47
686.184	4860.51
686.374	4743.78
686.564	4749.92
686.753	4749.92
686.943	4790.88
687.133	4856.42
687.323	4663.91
687.513	4579.94
687.702	4827.74
687.892	4743.78
688.082	4768.35
688.272	4801.12
688.461	4618.85
688.651	4491.88
688.841	4627.04
689.03	4473.45
689.22	4577.89
689.41	4565.6
689.599	4430.44
689.789	4469.35
689.979	4459.11
690.168	4481.64
690.358	4344.42
690.547	4471.4
690.737	4440.68
690.926	4471.4
691.116	4182.63
691.305	4242.03
691.495	4254.31
691.684	4276.84
691.874	4201.07
692.063	4235.88
692.252	4123.24
692.442	4219.5
692.631	4299.37
692.82	4188.78
693.01	4063.85
693.199	4139.63
693.388	4078.19
693.578	4123.24
693.767	4022.89
693.956	4151.92
694.146	4119.15
694.335	4047.47
694.524	4059.76
694.713	3943.02
694.902	4121.2
695.092	4196.97
695.281	3883.63
695.47	4004.46
695.659	3961.45
695.848	3916.4
696.037	3938.93
696.226	3988.08
696.415	3926.64
696.604	3990.13
696.793	3836.53
696.982	3816.05
697.171	3957.36
697.36	3814
697.549	3840.62
697.738	3709.55
697.927	3701.36
698.116	3785.33
698.305	3811.95
698.494	3777.14
698.683	3670.64
698.872	3807.86
699.061	3852.91
699.25	3758.71
699.438	3664.5
699.627	3625.59
699.816	3863.15
700.005	3785.33
700.193	3711.6
700.382	3963.5
700.571	3693.17
700.76	3639.92
700.948	3723.89
701.137	3699.31
701.326	3764.85
701.514	3625.59
701.703	3623.54
701.892	3562.1
702.08	3701.36
702.269	3664.5
702.457	3547.76
702.646	3529.33
702.834	3627.64
703.023	3539.57
703.212	3570.29
703.4	3547.76
703.589	3474.04
703.777	3590.77
703.965	3400.31
704.154	3504.76
704.342	3447.41
704.531	3498.61
704.719	3349.11
704.907	3496.57
705.096	3414.65
705.284	3371.64
705.472	3349.11
705.661	3357.3
705.849	3441.27
706.037	3519.09
706.226	3392.12
706.414	3285.62
706.602	3320.44
706.79	3328.63
706.979	3367.54
707.167	3277.43
707.355	3287.67
707.543	3259
707.731	3293.82
707.919	3396.21
708.107	3342.97
708.296	3197.56
708.484	3162.75
708.672	3474.04
708.86	3218.04
709.048	3265.14
709.236	3263.1
709.424	3250.81
709.612	3254.9
709.8	3183.23
709.988	3111.55
710.176	3144.31
710.364	3299.96
710.551	3228.28
710.739	3154.55
710.927	3242.62
711.115	3111.55
711.303	3189.37
711.491	3138.17
711.679	3177.08
711.866	3048.06
712.054	3031.68
712.242	3080.83
712.43	3054.2
712.617	3148.41
712.805	3072.64
712.993	3187.32
713.181	3015.29
713.368	3046.01
713.556	3037.82
713.744	2925.18
713.931	3195.51
714.119	3029.63
714.306	3062.4
714.494	3111.55
714.682	3086.97
714.869	2982.53
715.057	2976.38
715.244	2931.33
715.432	3009.15
715.619	2873.98
715.807	3031.68
715.994	2996.86
716.182	2878.08
716.369	2960
716.556	2941.57
716.744	2884.22
716.931	2853.5
717.119	3046.01
717.306	2937.47
717.493	2892.41
717.681	2888.32
717.868	2792.06
718.055	2837.12
718.242	2857.6
718.43	2744.96
718.617	2914.94
718.804	2798.21
718.991	2783.87
719.179	2849.41
719.366	2763.39
719.553	2783.87
719.74	2820.74
719.927	2744.96
720.114	2624.13
720.301	2679.43
720.488	2693.76
720.676	2720.39
720.863	2751.1
721.05	2804.35
721.237	2726.53
721.424	2747.01
721.611	2759.3
721.798	2679.43
721.985	2638.47
722.172	2671.23
722.358	2693.76
722.545	2728.58
722.732	2738.82
722.919	2654.85
723.106	2667.14
723.293	2570.88
723.48	2673.28
723.667	2583.17
723.853	2644.61
724.04	2566.79
724.227	2603.65
724.414	2658.95
724.6	2593.41
724.787	2585.22
724.974	2677.38
725.161	2505.35
725.347	2560.64
725.534	2587.27
725.72	2493.06
725.907	2488.96
726.094	2677.38
726.28	2523.78
726.467	2417.29
726.653	2421.38
726.84	2460.29
727.027	2574.98
727.213	2431.62
727.4	2572.93
727.586	2554.5
727.773	2407.05
727.959	2452.1
728.145	2448.01
728.332	2433.67
728.518	2509.44
728.705	2407.05
728.891	2351.75
729.077	2394.76
729.264	2421.38
729.45	2448.01
729.636	2409.09
729.823	2415.24
730.009	2470.53
730.195	2415.24
730.382	2357.89
730.568	2345.61
730.754	2235.02
730.94	2300.55
731.126	2345.61
731.313	2275.98
731.499	2259.59
731.685	2298.5
731.871	2384.52
732.057	2208.39
732.243	2288.26
732.429	2308.74
732.615	2308.74
732.801	2302.6
732.987	2298.5
733.173	2343.56
733.359	2218.63
733.545	2275.98
733.731	2230.92
733.917	2196.11
734.103	2300.55
734.289	2194.06
734.475	2181.77
734.661	2278.02
734.847	2302.6
735.033	2202.25
735.219	2210.44
735.404	2329.22
735.59	2189.96
735.776	2202.25
735.962	2169.48
736.148	2243.21
736.333	2206.34
736.519	2097.8
736.705	2108.04
736.89	2218.63
737.076	2157.19
737.262	2169.48
737.447	2275.98
737.633	2079.37
737.819	2140.81
738.004	2050.7
738.19	2181.77
738.375	2128.52
738.561	2185.87
738.747	2040.46
738.932	2087.56
739.118	2126.47
739.303	2128.52
739.489	2112.14
739.674	2001.55
739.859	2040.46
740.045	2103.95
740.23	2054.8
740.416	2005.64
740.601	1952.4
740.786	2022.03
740.972	1915.53
741.157	1999.5
741.342	2013.84
741.528	1960.59
741.713	1911.44
741.898	1972.88
742.084	1925.77
742.269	2024.08
742.454	1948.3
742.639	1907.34
742.824	1800.85
743.01	1907.34
743.195	2022.03
743.38	1868.43
743.565	1948.3
743.75	1878.67
743.935	1931.92
744.12	1858.19
744.305	1702.54
744.49	1788.56
744.675	1858.19
744.86	1868.43
745.045	1815.18
745.23	1839.76
745.415	1817.23
745.6	1729.17
745.785	1743.5
745.97	1778.32
746.155	1696.4
746.34	1800.85
746.525	1616.53
746.71	1737.36
746.895	1692.3
747.079	1704.59
747.264	1714.83
747.449	1727.12
747.634	1645.2
747.819	1704.59
748.003	1665.68
748.188	1714.83
748.373	1637.01
748.557	1571.47
748.742	1690.26
748.927	1532.56
749.111	1682.07
749.296	1596.05
749.481	1630.87
749.665	1536.66
749.85	1514.13
750.034	1464.98
750.219	1520.28
750.404	1542.8
750.588	1471.12
750.773	1415.83
750.957	1399.45
751.141	1522.32
751.326	1469.08
751.51	1505.94
751.695	1409.69
751.879	1383.06
752.064	1493.65
752.248	1387.16
752.432	1415.83
752.617	1358.49
752.801	1426.07
752.985	1368.73
753.17	1424.02
753.354	1350.29
753.538	1301.14
753.722	1276.57
753.907	1383.06
754.091	1268.38
754.275	1313.43
754.459	1309.33
754.643	1284.76
754.828	1309.33
755.012	1229.46
755.196	1280.66
755.38	1251.99
755.564	1274.52
755.748	1286.81
755.932	1223.32
756.116	1239.7
756.3	1165.98
756.484	1274.52
756.668	1188.5
756.852	1063.58
757.036	1219.22
757.22	1100.44
757.404	1125.02
757.588	1161.88
757.772	1243.8
757.956	1125.02
758.14	1178.26
758.323	1030.81
758.507	1077.91
758.691	1096.35
758.875	1153.69
759.059	1188.5
759.242	1067.67
759.426	1147.55
759.61	983.71
759.794	1002.14
759.977	1006.24
760.161	1026.72
760.345	1049.24
760.528	1067.67
760.712	1039
760.895	1120.92
761.079	1022.62
761.263	940.7
761.446	987.8
761.63	1024.67
761.813	928.41
761.997	1047.19
762.18	979.61
762.364	998.04
762.547	916.12
762.731	981.66
762.914	957.08
763.098	967.32
763.281	963.23
763.464	1024.67
763.648	905.88
763.831	862.88
764.015	926.36
764.198	916.12
764.381	899.74
764.564	924.32
764.748	918.17
764.931	920.22
765.114	826.01
765.297	916.12
765.481	844.45
765.664	842.4
765.847	885.41
766.03	891.55
766.213	866.97
766.397	891.55
766.58	916.12
766.763	850.59
766.946	866.97
767.129	907.93
767.312	961.18
767.495	877.21
767.678	854.69
767.861	866.97
768.044	924.32
768.227	744.1
768.41	805.53
768.593	805.53
768.776	805.53
768.959	852.64
769.142	842.4
769.324	862.88
769.507	852.64
769.69	828.06
769.873	858.78
770.056	772.77
770.239	891.55
770.421	758.43
770.604	826.01
770.787	809.63
770.97	721.57
771.152	840.35
771.335	801.44
771.518	723.62
771.7	838.3
771.883	858.78
772.066	715.42
772.248	823.97
772.431	719.52
772.613	793.25
772.796	688.8
772.978	754.34
773.161	754.34
773.343	682.66
773.526	723.62
773.708	672.42
773.891	735.9
774.073	709.28
774.256	680.61
774.438	727.71
774.621	735.9
774.803	717.47
774.985	670.37
775.168	729.76
775.35	678.56
775.532	686.75
775.715	627.36
775.897	653.98
776.079	686.75
776.261	621.22
776.444	559.78
776.626	629.41
776.808	572.07
776.99	555.68
777.173	645.79
777.355	629.41
777.537	617.12
777.719	578.21
777.901	617.12
778.083	567.97
778.265	592.55
778.447	582.31
778.629	567.97
778.811	641.7
778.993	613.03
779.175	590.5
779.357	535.2
779.539	551.59
779.721	529.06
779.903	514.72
780.085	531.11
780.267	565.92
780.449	588.45
780.631	498.34
780.812	557.73
780.994	539.3
781.176	559.78
781.358	520.87
781.54	441
781.721	445.09
781.903	512.67
782.085	578.21
782.267	561.83
782.448	465.57
782.63	506.53
782.812	506.53
782.993	465.57
783.175	479.91
783.357	402.08
783.538	547.49
783.72	420.52
783.901	432.8
784.083	416.42
784.264	465.57
784.446	430.76
784.627	408.23
784.809	451.24
784.99	404.13
785.172	436.9
785.353	410.28
785.535	424.61
785.716	432.8
785.897	436.9
786.079	424.61
786.26	434.85
786.441	469.67
786.623	281.25
786.804	441
786.985	367.27
787.167	496.29
787.348	449.19
787.529	365.22
787.71	387.75
787.891	318.12
788.073	365.22
788.254	311.97
788.435	473.76
788.616	318.12
788.797	361.13
788.978	361.13
789.159	369.32
789.34	438.95
789.522	395.94
789.703	246.44
789.884	357.03
790.065	332.45
790.246	473.76
790.427	436.9
790.607	326.31
790.788	379.56
790.969	334.5
791.15	305.83
791.331	275.11
791.512	221.86
791.693	303.78
791.874	342.69
792.054	420.52
792.235	322.21
792.416	289.45
792.597	336.55
792.778	377.51
792.958	260.77
793.139	219.82
793.32	271.01
793.5	305.83
793.681	311.97
793.862	320.17
794.042	268.97
794.223	279.21
794.404	289.45
794.584	273.06
794.765	197.29
794.945	287.4
795.126	322.21
795.306	336.55
795.487	342.69
795.667	293.54
795.848	277.16
796.028	311.97
796.209	230.06
796.389	334.5
796.57	225.96
796.75	225.96
796.93	301.73
797.111	289.45
797.291	230.06
797.471	187.05
797.652	293.54
797.832	189.1
798.012	244.39
798.192	273.06
798.373	191.14
798.553	176.81
798.733	256.68
798.913	228.01
799.093	268.97
799.274	201.38
799.454	293.54
799.634	228.01
799.814	203.43
799.994	238.25
800.174	232.1
800.354	182.95
800.534	162.47
800.714	236.2
800.894	211.62
801.074	211.62
801.254	150.18
801.434	293.54
801.614	221.86
801.794	228.01
801.974	752.29
802.154	246.44
802.334	197.29
802.514	197.29
802.693	209.58
802.873	289.45
803.053	207.53
803.233	174.76
803.413	289.45
803.592	219.82
803.772	191.14
803.952	197.29
804.131	268.97
804.311	170.66
804.491	211.62
804.67	273.06
804.85	252.58
805.03	238.25
805.209	252.58
805.389	88.75
805.568	207.53
805.748	174.76
805.928	162.47
806.107	162.47
806.287	193.19
806.466	176.81
806.646	187.05
806.825	158.38
807.004	119.46
807.184	170.66
807.363	144.04
807.543	80.55
807.722	123.56
807.901	213.67
808.081	262.82
808.26	115.37
808.439	219.82
808.619	150.18
808.798	207.53
808.977	133.8
809.156	223.91
809.336	121.51
809.515	191.14
809.694	125.61
809.873	146.09
810.052	191.14
810.231	203.43
810.411	129.7
810.59	174.76
810.769	105.13
810.948	189.1
811.127	88.75
811.306	92.84
811.485	154.28
811.664	172.71
811.843	170.66
812.022	209.58
812.201	135.85
812.38	182.95
812.559	129.7
812.737	254.63
812.916	115.37
813.095	182.95
813.274	164.52
813.453	180.9
813.632	174.76
813.811	141.99
813.989	72.36
814.168	129.7
814.347	121.51
814.526	123.56
814.704	105.13
814.883	162.47
815.062	146.09
815.24	107.18
815.419	117.42
815.598	164.52
815.776	45.74
815.955	133.8
816.133	35.5
816.312	98.99
816.49	66.22
816.669	146.09
816.847	150.18
817.026	180.9
817.204	119.46
817.383	187.05
817.561	164.52
817.74	123.56
817.918	101.03
818.097	96.94
818.275	27.31
818.453	105.13
818.632	43.69
818.81	117.42
818.988	127.66
819.167	94.89
819.345	154.28
819.523	123.56
819.701	195.24
819.879	76.46
820.058	121.51
820.236	141.99
820.414	96.94
820.592	121.51
820.77	193.19
820.948	121.51
821.127	121.51
821.305	170.66
821.483	41.64
821.661	189.1
821.839	115.37
822.017	148.14
822.195	137.9
822.373	131.75
822.551	78.51
822.729	80.55
822.907	131.75
823.085	107.18
823.262	37.55
823.44	123.56
823.618	84.65
823.796	105.13
823.974	86.7
824.152	47.79
824.329	55.98
824.507	49.83
824.685	96.94
824.863	115.37
825.04	119.46
825.218	96.94
825.396	107.18
825.574	70.31
825.751	88.75
825.929	121.51
826.107	189.1
826.284	101.03
826.462	74.41
826.639	92.84
826.817	45.74
826.994	137.9
827.172	105.13
827.349	133.8
827.527	123.56
827.704	101.03
827.882	88.75
828.059	105.13
828.237	101.03
828.414	129.7
828.591	47.79
828.769	105.13
828.946	51.88
829.124	123.56
829.301	109.23
829.478	64.17
829.655	162.47
829.833	33.45
830.01	82.6
830.187	33.45
830.364	154.28
830.542	25.26
830.719	62.12
830.896	125.61
831.073	92.84
831.25	139.94
831.427	60.07
831.604	101.03
831.782	31.4
831.959	82.6
832.136	115.37
832.313	180.9
832.49	58.03
832.667	80.55
832.844	64.17
833.021	133.8
833.198	55.98
833.374	66.22
833.551	31.4
833.728	74.41
833.905	72.36
834.082	15.02
834.259	8.87
834.436	101.03
834.612	64.17
834.789	115.37
834.966	101.03
835.143	49.83
835.319	76.46
835.496	17.07
835.673	113.32
835.85	96.94
836.026	72.36
836.203	103.08
836.38	47.79
836.556	76.46
836.733	-1.37
836.909	78.51
837.086	103.08
837.262	-5.46
837.439	90.79
837.616	58.03
837.792	76.46
837.968	31.4
838.145	0.68
838.321	33.45
838.498	-23.89
838.674	27.31
838.851	74.41
839.027	55.98
839.203	8.87
839.38	23.21
839.556	105.13
839.732	58.03
839.909	41.64
840.085	119.46
840.261	78.51
840.437	33.45
840.614	15.02
840.79	101.03
840.966	43.69
841.142	10.92
841.318	64.17
841.494	96.94
841.671	55.98
841.847	25.26
842.023	17.07
842.199	72.36
842.375	-36.18
842.551	64.17
842.727	-17.75
842.903	-15.7
843.079	62.12
843.255	80.55
843.431	10.92
843.607	74.41
843.783	-48.47
843.959	6.83
844.134	-3.41
844.31	80.55
844.486	4.78
844.662	0.68
844.838	33.45
845.013	-21.84
845.189	55.98
845.365	-7.51
845.541	-1.37
845.716	-5.46
845.892	43.69
846.068	39.59
846.244	68.27
846.419	66.22
846.595	-3.41
846.77	76.46
846.946	39.59
847.122	58.03
847.297	109.23
847.473	60.07
847.648	88.75
847.824	72.36
847.999	12.97
848.175	41.64
848.35	-111.96
848.526	35.5
848.701	17.07
848.876	72.36
849.052	41.64
849.227	15.02
849.403	39.59
849.578	37.55
849.753	39.59
849.929	80.55
850.104	-34.13
850.279	23.21
850.454	84.65
850.63	10.92
850.805	6.83
850.98	78.51
851.155	58.03
851.33	-15.7
851.505	-34.13
851.681	88.75
851.856	-7.51
852.031	101.03
852.206	31.4
852.381	58.03
852.556	-3.41
852.731	66.22
852.906	-5.46
853.081	55.98
853.256	19.11
853.431	62.12
853.606	53.93
853.781	62.12
853.956	6.83
854.131	31.4
854.305	43.69
854.48	39.59
854.655	4.78
854.83	-7.51
855.005	0.68
855.18	41.64
855.354	43.69
855.529	109.23
855.704	35.5
855.879	-25.94
856.053	31.4
856.228	41.64
856.403	47.79
856.577	43.69
856.752	-1.37
856.926	76.46
857.101	35.5
857.276	-44.37
857.45	33.45
857.625	64.17
857.799	-50.52
857.974	92.84
858.148	-36.18
858.323	6.83
858.497	-7.51
858.672	19.11
858.846	51.88
859.02	43.69
859.195	-66.9
859.369	-19.8
859.543	-21.84
859.718	39.59
859.892	72.36
860.066	47.79
860.241	-73.04
860.415	64.17
860.589	78.51
860.763	25.26
860.938	43.69
861.112	23.21
861.286	72.36
861.46	21.16
861.634	31.4
861.808	92.84
861.982	43.69
862.157	-9.56
862.331	43.69
862.505	-17.75
862.679	25.26
862.853	29.35
863.027	49.83
863.201	76.46
863.375	-15.7
863.549	74.41
863.722	-17.75
863.896	-5.46
864.07	62.12
864.244	-21.84
864.418	10.92
864.592	-9.56
864.766	107.18
864.939	47.79
865.113	35.5
865.287	0.68
865.461	-25.94
865.634	-38.23
865.808	-58.71
865.982	39.59
866.156	6.83
866.329	-1.37
866.503	-9.56
866.676	19.11
866.85	2.73
867.024	72.36
867.197	39.59
867.371	25.26
867.544	-30.04
867.718	-42.32
867.891	-1.37
868.065	4.78
868.238	15.02
868.412	49.83
868.585	17.07
868.759	60.07
868.932	47.79
869.105	98.99
869.279	33.45
869.452	-9.56
869.625	-25.94
869.799	-75.09
869.972	-64.85
870.145	31.4
870.319	-5.46
870.492	-13.65
870.665	15.02
870.838	-34.13
871.011	-7.51
871.185	-38.23
871.358	-19.8
871.531	23.21
871.704	-40.28
871.877	137.9
872.05	-13.65
872.223	25.26
872.396	-42.32
872.569	-5.46
872.742	92.84
872.915	-75.09
873.088	-36.18
873.261	-11.61
873.434	23.21
873.607	-13.65
873.78	-9.56
873.953	-17.75
874.126	6.83
874.299	68.27
874.471	10.92
874.644	51.88
874.817	17.07
874.99	101.03
875.163	-27.99
875.335	-1.37
875.508	86.7
875.681	39.59
875.853	-15.7
876.026	39.59
876.199	23.21
876.371	-17.75
876.544	47.79
876.717	6.83
876.889	25.26
877.062	109.23
877.234	-30.04
877.407	-25.94
877.579	-46.42
877.752	17.07
877.924	-13.65
878.097	-5.46
878.269	12.97
878.442	-58.71
878.614	-3.41
878.786	10.92
878.959	-1.37
879.131	39.59
879.303	23.21
879.476	-3.41
879.648	76.46
879.82	8.87
879.993	-11.61
880.165	23.21
880.337	-13.65
880.509	-38.23
880.681	-60.76
880.854	-81.24
881.026	-11.61
881.198	96.94
881.37	-66.9
881.542	19.11
881.714	-44.37
881.886	-7.51
882.058	29.35
882.23	-9.56
882.402	-17.75
882.574	-25.94
882.746	25.26
882.918	6.83
883.09	8.87
883.262	82.6
883.434	0.68
883.606	23.21
883.778	19.11
883.95	15.02
884.122	17.07
884.293	-17.75
884.465	10.92
884.637	109.23
884.809	-71
884.98	66.22
885.152	49.83
885.324	-1.37
885.496	-62.8
885.667	55.98
885.839	76.46
886.011	64.17
886.182	55.98
886.354	-9.56
886.525	-13.65
886.697	-15.7
886.869	-91.48
887.04	-11.61
887.212	27.31
887.383	33.45
887.555	-54.61
887.726	-7.51
887.897	-1.37
888.069	6.83
888.24	39.59
888.412	47.79
888.583	-3.41
888.754	-19.8
888.926	10.92
889.097	-21.84
889.268	-3.41
889.44	-30.04
889.611	-32.08
889.782	39.59
889.953	-25.94
890.125	60.07
890.296	-34.13
890.467	-32.08
890.638	39.59
890.809	31.4
890.98	2.73
891.151	0.68
891.323	-54.61
891.494	17.07
891.665	49.83
891.836	-5.46
892.007	21.16
892.178	15.02
892.349	6.83
892.52	2.73
892.691	-1.37
892.862	88.75
893.032	-5.46
893.203	-64.85
893.374	-9.56
893.545	-32.08
893.716	17.07
893.887	43.69
894.057	-23.89
894.228	-9.56
894.399	-1.37
894.57	-38.23
894.74	31.4
894.911	33.45
895.082	80.55
895.253	31.4
895.423	-9.56
895.594	19.11
895.764	39.59
895.935	23.21
896.106	23.21
896.276	-1.37
896.447	-79.19
896.617	-3.41
896.788	-3.41
896.958	-27.99
897.129	88.75
897.299	-40.28
897.47	-13.65
897.64	-9.56
897.81	-58.71
897.981	-11.61
898.151	-1.37
898.322	-1.37
898.492	0.68
898.662	-58.71
898.832	17.07
899.003	39.59
899.173	-23.89
899.343	-42.32
899.513	-50.52
