Data from USB4F104151__44__14-16-46-086.txt Node

Date: Thu Mar 13 14:16:46 EDT 2025
User: louis
Spectrometer: USB4F10415
Trigger mode: 4
Integration Time (sec): 2.000000E-2
Scans to average: 1
Electric dark correction enabled: true
Nonlinearity correction enabled: false
Boxcar width: 0
XAxis mode: Wavelengths
Number of Pixels in Spectrum: 3648
>>>>>Begin Spectral Data<<<<<
178.204	-126.63
178.424	-126.63
178.644	-126.63
178.864	-136.87
179.084	-136.87
179.304	-63.15
179.524	-20.14
179.744	-1.71
179.964	29.01
180.184	-13.99
180.404	41.3
180.624	10.58
180.844	2.39
181.064	-5.8
181.283	-28.33
181.503	53.59
181.723	-3.75
181.943	-32.43
182.163	47.44
182.383	76.12
182.602	41.3
182.822	-57
183.042	59.73
183.262	-54.95
183.482	-11.95
183.701	26.96
183.921	33.11
184.141	-26.28
184.361	53.59
184.58	-30.38
184.8	-13.99
185.02	53.59
185.239	8.53
185.459	69.97
185.679	92.5
185.898	35.16
186.118	14.68
186.338	69.97
186.557	39.25
186.777	-5.8
186.997	119.12
187.216	29.01
187.436	45.4
187.655	147.8
187.875	65.88
188.095	45.4
188.314	65.88
188.534	69.97
188.753	45.4
188.973	37.2
189.192	96.6
189.412	-3.75
189.631	26.96
189.851	63.83
190.07	59.73
190.29	10.58
190.509	24.92
190.729	41.3
190.948	67.92
191.168	133.46
191.387	82.26
191.607	20.82
191.826	8.53
192.045	-16.04
192.265	31.06
192.484	43.35
192.704	8.53
192.923	33.11
193.142	57.68
193.362	18.77
193.581	76.12
193.8	63.83
194.02	37.2
194.239	-7.85
194.458	63.83
194.678	6.49
194.897	37.2
195.116	-16.04
195.335	43.35
195.555	-30.38
195.774	-1.71
195.993	53.59
196.212	-5.8
196.432	18.77
196.651	-7.85
196.87	98.64
197.089	61.78
197.308	65.88
197.528	26.96
197.747	-13.99
197.966	-28.33
198.185	115.03
198.404	86.36
198.623	49.49
198.842	53.59
199.062	53.59
199.281	24.92
199.5	0.34
199.719	100.69
199.938	10.58
200.157	-1.71
200.376	-28.33
200.595	57.68
200.814	-16.04
201.033	96.6
201.252	84.31
201.471	37.2
201.69	29.01
201.909	82.26
202.128	12.63
202.347	53.59
202.566	57.68
202.785	4.44
203.004	-36.52
203.223	29.01
203.442	82.26
203.661	2.39
203.879	90.45
204.098	74.07
204.317	16.73
204.536	90.45
204.755	6.49
204.974	37.2
205.193	10.58
205.411	82.26
205.63	-11.95
205.849	14.68
206.068	65.88
206.287	76.12
206.505	86.36
206.724	80.21
206.943	49.49
207.162	-22.19
207.381	80.21
207.599	43.35
207.818	69.97
208.037	-1.71
208.255	-20.14
208.474	131.41
208.693	41.3
208.911	-36.52
209.13	-3.75
209.349	43.35
209.567	-36.52
209.786	33.11
210.005	-7.85
210.223	26.96
210.442	41.3
210.661	39.25
210.879	-3.75
211.098	24.92
211.316	16.73
211.535	49.49
211.753	43.35
211.972	8.53
212.191	98.64
212.409	72.02
212.628	16.73
212.846	24.92
213.065	-1.71
213.283	18.77
213.502	24.92
213.72	78.16
213.938	57.68
214.157	33.11
214.375	39.25
214.594	-13.99
214.812	43.35
215.031	20.82
215.249	53.59
215.467	92.5
215.686	43.35
215.904	37.2
216.122	20.82
216.341	108.88
216.559	16.73
216.778	57.68
216.996	20.82
217.214	49.49
217.432	47.44
217.651	26.96
217.869	53.59
218.087	49.49
218.306	-46.76
218.524	45.4
218.742	-32.43
218.96	76.12
219.179	74.07
219.397	49.49
219.615	92.5
219.833	153.94
220.051	2.39
220.27	33.11
220.488	69.97
220.706	12.63
220.924	57.68
221.142	0.34
221.36	61.78
221.578	2.39
221.796	115.03
222.015	-34.47
222.233	65.88
222.451	74.07
222.669	-20.14
222.887	6.49
223.105	-5.8
223.323	24.92
223.541	12.63
223.759	65.88
223.977	33.11
224.195	57.68
224.413	24.92
224.631	-7.85
224.849	49.49
225.067	61.78
225.285	-32.43
225.503	47.44
225.721	-7.85
225.939	88.4
226.157	-71.34
226.375	10.58
226.592	-9.9
226.81	24.92
227.028	61.78
227.246	147.8
227.464	41.3
227.682	92.5
227.9	104.79
228.117	57.68
228.335	76.12
228.553	90.45
228.771	45.4
228.989	49.49
229.206	18.77
229.424	-18.09
229.642	-81.58
229.86	-22.19
230.077	-20.14
230.295	59.73
230.513	84.31
230.731	57.68
230.948	125.27
231.166	24.92
231.384	61.78
231.601	43.35
231.819	117.08
232.037	-13.99
232.254	-26.28
232.472	41.3
232.689	-30.38
232.907	67.92
233.125	41.3
233.342	24.92
233.56	8.53
233.777	18.77
233.995	57.68
234.213	18.77
234.43	96.6
234.648	18.77
234.865	65.88
235.083	51.54
235.3	12.63
235.518	76.12
235.735	49.49
235.953	82.26
236.17	-9.9
236.388	59.73
236.605	96.6
236.822	65.88
237.04	49.49
237.257	16.73
237.475	-22.19
237.692	18.77
237.909	29.01
238.127	4.44
238.344	16.73
238.562	18.77
238.779	96.6
238.996	90.45
239.214	41.3
239.431	33.11
239.648	24.92
239.865	96.6
240.083	82.26
240.3	43.35
240.517	14.68
240.735	57.68
240.952	92.5
241.169	41.3
241.386	53.59
241.603	8.53
241.821	-5.8
242.038	131.41
242.255	65.88
242.472	59.73
242.689	8.53
242.907	63.83
243.124	76.12
243.341	96.6
243.558	22.87
243.775	-16.04
243.992	-24.23
244.209	80.21
244.426	49.49
244.643	53.59
244.86	-16.04
245.078	20.82
245.295	53.59
245.512	39.25
245.729	10.58
245.946	98.64
246.163	29.01
246.38	102.74
246.597	49.49
246.814	8.53
247.031	10.58
247.248	151.89
247.464	98.64
247.681	10.58
247.898	45.4
248.115	29.01
248.332	16.73
248.549	43.35
248.766	51.54
248.983	26.96
249.2	20.82
249.417	-1.71
249.633	45.4
249.85	-24.23
250.067	65.88
250.284	0.34
250.501	82.26
250.717	-13.99
250.934	41.3
251.151	82.26
251.368	88.4
251.585	31.06
251.801	18.77
252.018	-30.38
252.235	67.92
252.451	61.78
252.668	86.36
252.885	-63.15
253.102	-7.85
253.318	33.11
253.535	37.2
253.752	61.78
253.968	20.82
254.185	-16.04
254.401	47.44
254.618	35.16
254.835	51.54
255.051	82.26
255.268	33.11
255.484	18.77
255.701	16.73
255.917	0.34
256.134	45.4
256.351	-16.04
256.567	-7.85
256.784	35.16
257	-46.76
257.217	106.84
257.433	90.45
257.65	-20.14
257.866	53.59
258.082	18.77
258.299	-16.04
258.515	67.92
258.732	82.26
258.948	24.92
259.165	8.53
259.381	33.11
259.597	63.83
259.814	41.3
260.03	57.68
260.246	18.77
260.463	16.73
260.679	98.64
260.895	-1.71
261.112	106.84
261.328	4.44
261.544	49.49
261.761	125.27
261.977	33.11
262.193	-28.33
262.409	69.97
262.626	18.77
262.842	106.84
263.058	-32.43
263.274	16.73
263.49	-5.8
263.707	133.46
263.923	67.92
264.139	35.16
264.355	16.73
264.571	65.88
264.787	41.3
265.004	125.27
265.22	74.07
265.436	16.73
265.652	6.49
265.868	20.82
266.084	41.3
266.3	84.31
266.516	41.3
266.732	139.6
266.948	53.59
267.164	41.3
267.38	26.96
267.596	108.88
267.812	98.64
268.028	12.63
268.244	26.96
268.46	0.34
268.676	98.64
268.892	57.68
269.108	106.84
269.324	49.49
269.54	-40.62
269.756	82.26
269.972	41.3
270.188	22.87
270.403	18.77
270.619	123.22
270.835	51.54
271.051	57.68
271.267	39.25
271.483	-28.33
271.698	35.16
271.914	98.64
272.13	24.92
272.346	43.35
272.562	8.53
272.777	65.88
272.993	63.83
273.209	26.96
273.425	72.02
273.64	10.58
273.856	110.93
274.072	-20.14
274.287	16.73
274.503	-1.71
274.719	61.78
274.934	20.82
275.15	12.63
275.366	-30.38
275.581	29.01
275.797	74.07
276.012	59.73
276.228	-3.75
276.444	72.02
276.659	59.73
276.875	-26.28
277.09	-1.71
277.306	61.78
277.521	67.92
277.737	4.44
277.952	69.97
278.168	82.26
278.383	63.83
278.599	16.73
278.814	51.54
279.03	65.88
279.245	26.96
279.461	127.32
279.676	123.22
279.892	16.73
280.107	-30.38
280.322	-65.19
280.538	53.59
280.753	92.5
280.969	65.88
281.184	49.49
281.399	33.11
281.615	-42.67
281.83	12.63
282.045	76.12
282.26	24.92
282.476	65.88
282.691	84.31
282.906	72.02
283.122	57.68
283.337	-57
283.552	18.77
283.767	10.58
283.983	65.88
284.198	-7.85
284.413	86.36
284.628	20.82
284.843	-18.09
285.058	61.78
285.274	24.92
285.489	2.39
285.704	53.59
285.919	53.59
286.134	72.02
286.349	45.4
286.564	131.41
286.779	18.77
286.995	41.3
287.21	26.96
287.425	26.96
287.64	-40.62
287.855	104.79
288.07	2.39
288.285	90.45
288.5	65.88
288.715	0.34
288.93	43.35
289.145	51.54
289.36	12.63
289.575	43.35
289.79	67.92
290.004	57.68
290.219	59.73
290.434	-1.71
290.649	4.44
290.864	65.88
291.079	53.59
291.294	57.68
291.509	8.53
291.724	-7.85
291.938	74.07
292.153	108.88
292.368	33.11
292.583	41.3
292.798	8.53
293.012	78.16
293.227	2.39
293.442	131.41
293.657	76.12
293.871	172.37
294.086	47.44
294.301	82.26
294.516	100.69
294.73	43.35
294.945	-24.23
295.16	106.84
295.374	24.92
295.589	115.03
295.804	57.68
296.018	33.11
296.233	168.27
296.447	31.06
296.662	-1.71
296.877	65.88
297.091	76.12
297.306	172.37
297.52	-7.85
297.735	139.6
297.949	100.69
298.164	55.64
298.378	80.21
298.593	0.34
298.807	-28.33
299.022	69.97
299.236	74.07
299.451	24.92
299.665	-7.85
299.88	31.06
300.094	127.32
300.309	43.35
300.523	65.88
300.737	33.11
300.952	57.68
301.166	59.73
301.381	45.4
301.595	55.64
301.809	69.97
302.024	115.03
302.238	53.59
302.452	45.4
302.667	59.73
302.881	53.59
303.095	53.59
303.309	65.88
303.524	2.39
303.738	80.21
303.952	49.49
304.166	96.6
304.381	-36.52
304.595	41.3
304.809	-7.85
305.023	78.16
305.237	-11.95
305.452	29.01
305.666	59.73
305.88	90.45
306.094	33.11
306.308	65.88
306.522	59.73
306.736	24.92
306.95	74.07
307.164	90.45
307.379	22.87
307.593	67.92
307.807	59.73
308.021	2.39
308.235	-11.95
308.449	24.92
308.663	51.54
308.877	125.27
309.091	33.11
309.305	115.03
309.519	49.49
309.733	149.84
309.947	29.01
310.161	86.36
310.374	72.02
310.588	39.25
310.802	16.73
311.016	47.44
311.23	59.73
311.444	51.54
311.658	-42.67
311.872	82.26
312.085	59.73
312.299	92.5
312.513	164.18
312.727	41.3
312.941	6.49
313.154	76.12
313.368	92.5
313.582	104.79
313.796	90.45
314.009	102.74
314.223	6.49
314.437	31.06
314.651	49.49
314.864	53.59
315.078	41.3
315.292	-22.19
315.505	35.16
315.719	-28.33
315.933	26.96
316.146	12.63
316.36	47.44
316.573	41.3
316.787	57.68
317.001	33.11
317.214	33.11
317.428	98.64
317.641	82.26
317.855	102.74
318.068	63.83
318.282	33.11
318.495	158.03
318.709	4.44
318.922	135.51
319.136	2.39
319.349	133.46
319.563	6.49
319.776	51.54
319.99	12.63
320.203	31.06
320.417	53.59
320.63	16.73
320.843	-32.43
321.057	74.07
321.27	41.3
321.483	57.68
321.697	4.44
321.91	6.49
322.124	106.84
322.337	2.39
322.55	-16.04
322.763	90.45
322.977	22.87
323.19	110.93
323.403	24.92
323.617	88.4
323.83	108.88
324.043	123.22
324.256	33.11
324.469	0.34
324.683	26.96
324.896	8.53
325.109	24.92
325.322	37.2
325.535	74.07
325.748	100.69
325.962	110.93
326.175	53.59
326.388	104.79
326.601	-20.14
326.814	10.58
327.027	14.68
327.24	133.46
327.453	65.88
327.666	35.16
327.879	53.59
328.092	90.45
328.305	74.07
328.518	-40.62
328.731	37.2
328.944	57.68
329.157	86.36
329.37	82.26
329.583	45.4
329.796	110.93
330.009	69.97
330.222	74.07
330.435	45.4
330.648	74.07
330.861	20.82
331.073	16.73
331.286	67.92
331.499	-1.71
331.712	92.5
331.925	92.5
332.138	-77.48
332.35	82.26
332.563	33.11
332.776	43.35
332.989	57.68
333.202	33.11
333.414	158.03
333.627	57.68
333.84	115.03
334.053	96.6
334.265	59.73
334.478	57.68
334.691	72.02
334.903	67.92
335.116	18.77
335.329	84.31
335.541	24.92
335.754	92.5
335.966	35.16
336.179	35.16
336.392	-57
336.604	39.25
336.817	-18.09
337.029	57.68
337.242	90.45
337.454	76.12
337.667	65.88
337.88	102.74
338.092	-24.23
338.305	8.53
338.517	41.3
338.729	92.5
338.942	53.59
339.154	0.34
339.367	6.49
339.579	24.92
339.792	14.68
340.004	92.5
340.217	51.54
340.429	16.73
340.641	-7.85
340.854	86.36
341.066	18.77
341.278	43.35
341.491	127.32
341.703	84.31
341.915	49.49
342.128	100.69
342.34	76.12
342.552	61.78
342.764	53.59
342.977	8.53
343.189	-40.62
343.401	-24.23
343.613	12.63
343.826	65.88
344.038	96.6
344.25	69.97
344.462	12.63
344.674	18.77
344.886	61.78
345.099	-5.8
345.311	2.39
345.523	-24.23
345.735	14.68
345.947	24.92
346.159	29.01
346.371	-3.75
346.583	82.26
346.795	141.65
347.007	51.54
347.219	78.16
347.431	53.59
347.643	115.03
347.855	8.53
348.067	139.6
348.279	98.64
348.491	106.84
348.703	108.88
348.915	67.92
349.127	57.68
349.339	86.36
349.551	67.92
349.763	98.64
349.975	0.34
350.187	123.22
350.399	131.41
350.61	67.92
350.822	82.26
351.034	84.31
351.246	49.49
351.458	78.16
351.669	104.79
351.881	94.55
352.093	41.3
352.305	57.68
352.517	51.54
352.728	100.69
352.94	51.54
353.152	139.6
353.363	-48.81
353.575	74.07
353.787	24.92
353.999	24.92
354.21	98.64
354.422	90.45
354.633	82.26
354.845	72.02
355.057	-9.9
355.268	43.35
355.48	100.69
355.692	-11.95
355.903	41.3
356.115	78.16
356.326	33.11
356.538	41.3
356.749	16.73
356.961	51.54
357.172	53.59
357.384	-3.75
357.595	82.26
357.807	82.26
358.018	-16.04
358.23	33.11
358.441	106.84
358.653	-28.33
358.864	117.08
359.075	98.64
359.287	16.73
359.498	57.68
359.709	119.12
359.921	84.31
360.132	51.54
360.344	35.16
360.555	-11.95
360.766	63.83
360.977	26.96
361.189	123.22
361.4	26.96
361.611	106.84
361.823	57.68
362.034	90.45
362.245	72.02
362.456	88.4
362.667	106.84
362.879	24.92
363.09	37.2
363.301	47.44
363.512	57.68
363.723	49.49
363.935	24.92
364.146	14.68
364.357	-7.85
364.568	57.68
364.779	43.35
364.99	59.73
365.201	78.16
365.412	24.92
365.623	37.2
365.834	74.07
366.045	20.82
366.256	59.73
366.467	49.49
366.678	51.54
366.889	57.68
367.1	-11.95
367.311	57.68
367.522	6.49
367.733	41.3
367.944	-13.99
368.155	-57
368.366	69.97
368.577	123.22
368.788	86.36
368.999	12.63
369.209	61.78
369.42	82.26
369.631	82.26
369.842	20.82
370.053	14.68
370.264	33.11
370.474	121.17
370.685	47.44
370.896	63.83
371.107	74.07
371.317	108.88
371.528	121.17
371.739	90.45
371.95	65.88
372.16	80.21
372.371	-79.53
372.582	53.59
372.792	90.45
373.003	41.3
373.214	65.88
373.424	110.93
373.635	4.44
373.846	106.84
374.056	37.2
374.267	-7.85
374.477	49.49
374.688	-24.23
374.898	110.93
375.109	-5.8
375.319	61.78
375.53	131.41
375.74	61.78
375.951	86.36
376.161	35.16
376.372	84.31
376.582	61.78
376.793	65.88
377.003	26.96
377.214	35.16
377.424	69.97
377.635	57.68
377.845	-3.75
378.055	24.92
378.266	41.3
378.476	121.17
378.686	69.97
378.897	67.92
379.107	63.83
379.317	67.92
379.528	76.12
379.738	74.07
379.948	94.55
380.158	69.97
380.369	108.88
380.579	102.74
380.789	26.96
380.999	110.93
381.21	72.02
381.42	131.41
381.63	61.78
381.84	74.07
382.05	61.78
382.261	65.88
382.471	131.41
382.681	84.31
382.891	49.49
383.101	72.02
383.311	49.49
383.521	67.92
383.731	65.88
383.941	158.03
384.151	74.07
384.361	29.01
384.571	65.88
384.781	45.4
384.991	106.84
385.201	143.7
385.411	49.49
385.621	135.51
385.831	86.36
386.041	47.44
386.251	145.75
386.461	123.22
386.671	74.07
386.881	43.35
387.091	98.64
387.301	53.59
387.511	135.51
387.72	110.93
387.93	106.84
388.14	49.49
388.35	98.64
388.56	61.78
388.769	22.87
388.979	53.59
389.189	115.03
389.399	24.92
389.609	125.27
389.818	115.03
390.028	33.11
390.238	108.88
390.447	84.31
390.657	82.26
390.867	106.84
391.076	69.97
391.286	61.78
391.496	92.5
391.705	51.54
391.915	158.03
392.125	57.68
392.334	74.07
392.544	131.41
392.753	104.79
392.963	51.54
393.172	162.13
393.382	51.54
393.591	172.37
393.801	84.31
394.01	184.66
394.22	59.73
394.429	110.93
394.639	69.97
394.848	127.32
395.058	74.07
395.267	86.36
395.477	74.07
395.686	69.97
395.895	184.66
396.105	131.41
396.314	59.73
396.524	123.22
396.733	90.45
396.942	33.11
397.152	135.51
397.361	53.59
397.57	82.26
397.78	125.27
397.989	86.36
398.198	158.03
398.407	112.98
398.617	115.03
398.826	115.03
399.035	92.5
399.244	219.47
399.453	141.65
399.663	188.75
399.872	147.8
400.081	141.65
400.29	172.37
400.499	106.84
400.708	147.8
400.917	110.93
401.127	117.08
401.336	166.23
401.545	147.8
401.754	153.94
401.963	135.51
402.172	227.67
402.381	98.64
402.59	117.08
402.799	125.27
403.008	133.46
403.217	139.6
403.426	139.6
403.635	131.41
403.844	198.99
404.053	174.42
404.262	209.23
404.471	205.14
404.68	176.47
404.888	172.37
405.097	176.47
405.306	164.18
405.515	196.95
405.724	239.95
405.933	221.52
406.142	155.99
406.35	186.71
406.559	229.71
406.768	246.1
406.977	272.72
407.185	246.1
407.394	235.86
407.603	272.72
407.812	237.91
408.02	264.53
408.229	237.91
408.438	289.1
408.646	244.05
408.855	289.1
409.064	321.87
409.272	301.39
409.481	237.91
409.69	307.54
409.898	411.98
410.107	340.3
410.315	409.94
410.524	409.94
410.733	383.31
410.941	403.79
411.15	426.32
411.358	463.18
411.567	459.09
411.775	471.37
411.984	487.76
412.192	510.29
412.401	475.47
412.609	543.05
412.818	590.16
413.026	633.16
413.234	598.35
413.443	565.58
413.651	655.69
413.86	606.54
414.068	696.65
414.276	719.18
414.485	715.08
414.693	770.38
414.901	850.25
415.11	753.99
415.318	766.28
415.526	764.23
415.734	954.69
415.943	926.02
416.151	950.6
416.359	1083.72
416.567	1065.29
416.776	1216.83
416.984	1157.44
417.192	1007.94
417.4	1192.26
417.608	1239.36
417.817	1214.79
418.025	1255.75
418.233	1358.14
418.441	1319.23
418.649	1405.25
418.857	1446.21
419.065	1534.27
419.273	1458.5
419.481	1458.5
419.689	1757.5
419.897	1681.72
420.105	1661.24
420.313	1728.83
420.521	1786.17
420.729	1876.28
420.937	1917.24
421.145	1954.1
421.353	2109.75
421.561	2246.96
421.769	2269.49
421.977	2326.83
422.185	2310.45
422.393	2468.14
422.601	2726.19
422.809	2584.88
423.017	2609.45
423.224	2752.81
423.432	2902.31
423.64	2855.21
423.848	3203.36
424.056	3023.14
424.263	3203.36
424.471	3273
424.679	3305.76
424.887	3498.27
425.094	3631.39
425.302	3623.2
425.51	3887.39
425.718	3830.04
425.925	3774.75
426.133	4081.94
426.341	4192.53
426.548	4598.03
426.756	4419.86
426.964	4606.22
427.171	4821.26
427.379	4788.49
427.586	4907.27
427.794	5193.99
428.001	5237
428.209	5665.02
428.417	5292.29
428.624	6023.42
428.832	5873.92
429.039	5828.86
429.247	5890.3
429.454	6340.85
429.662	6805.74
429.869	6289.65
430.076	6875.37
430.284	6570.23
430.491	7004.39
430.699	7291.11
430.906	7442.66
431.114	7244.01
431.321	7680.22
431.528	7786.72
431.736	8294.61
431.943	8741.07
432.15	8480.98
432.358	8626.39
432.565	9072.84
432.772	8933.58
432.979	9382.09
433.187	9683.14
433.394	9674.95
433.601	10258.62
433.808	10354.87
434.016	10250.42
434.223	10635.44
434.43	11319.46
434.637	11069.61
434.844	11757.73
435.052	11894.94
435.259	11980.96
435.466	12114.08
435.673	11993.25
435.88	12875.92
436.087	13445.26
436.294	13193.36
436.501	13213.84
436.708	13271.18
436.915	13680.77
437.122	14440.57
437.329	14180.48
437.537	14835.83
437.743	15114.35
437.95	14917.75
438.157	15757.41
438.364	16388.19
438.571	16126.05
438.778	16306.27
438.985	17641.54
439.192	17025.11
439.399	17680.46
439.606	17094.74
439.813	18155.58
440.02	19327.02
440.227	18858.04
440.433	18493.5
440.64	19447.85
440.847	19263.54
441.054	19904.55
441.261	21000.21
441.467	20764.7
441.674	20979.73
441.881	22020.1
442.088	21858.31
442.294	21524.49
442.501	22233.09
442.708	22673.4
442.914	23265.27
443.121	24627.17
443.328	24010.73
443.534	25458.64
443.741	25053.14
443.948	24346.59
444.154	26517.44
444.361	25913.29
444.568	26251.2
444.774	26310.6
444.981	26326.98
445.187	27350.96
445.394	28733.34
445.6	28250.02
445.807	30971.77
446.013	29310.87
446.22	29665.17
446.426	31274.87
446.633	31520.63
446.839	32743.27
447.046	31031.16
447.252	32921.44
447.459	32995.17
447.665	32800.61
447.871	34176.84
448.078	35753.78
448.284	33947.47
448.491	35030.85
448.697	36192.05
448.903	36910.88
449.11	36917.03
449.316	36601.64
449.522	37152.54
449.728	38426.38
449.935	38612.74
450.141	38172.43
450.347	38952.71
450.553	38186.77
450.76	38557.45
450.966	39614.2
451.172	39507.71
451.378	40337.13
451.584	39433.98
451.791	40263.41
451.997	40472.3
452.203	41092.83
452.409	41047.78
452.615	40623.85
452.821	39186.18
453.027	38694.66
453.233	40742.63
453.44	39495.42
453.646	39841.53
453.852	39857.91
454.058	40812.26
454.264	39352.06
454.47	40040.18
454.676	39145.22
454.882	40599.27
455.088	36806.44
455.294	37723.93
455.5	38162.19
455.705	38551.31
455.911	36986.66
456.117	36628.26
456.323	35794.74
456.529	34146.12
456.735	35651.38
456.941	34461.51
457.147	33965.9
457.352	33058.65
457.558	32581.48
457.764	32757.6
457.97	32300.9
458.176	31745.9
458.381	31801.2
458.587	30107.53
458.793	29740.94
458.999	28258.21
459.204	30648.19
459.41	29605.78
459.616	27770.8
459.821	27639.73
460.027	27672.5
460.233	27287.48
460.438	25853.9
460.644	26128.33
460.85	24905.69
461.055	24248.29
461.261	24547.29
461.466	22300.67
461.672	21667.85
461.878	23834.6
462.083	22102.02
462.289	21551.12
462.494	21424.14
462.7	20602.91
462.905	19843.11
463.111	20822.04
463.316	20459.55
463.522	20260.9
463.727	19943.46
463.932	20174.88
464.138	19767.34
464.343	19818.53
464.549	19482.67
464.754	20058.15
464.959	19738.66
465.165	19691.56
465.37	19001.4
465.575	18309.18
465.781	19144.75
465.986	19339.31
466.191	18669.62
466.397	18229.31
466.602	17135.7
466.807	18100.29
467.012	17883.2
467.218	17711.18
467.423	17539.15
467.628	17625.16
467.833	18579.51
468.038	17647.69
468.244	17246.29
468.449	17899.59
468.654	17156.18
468.859	16988.24
469.064	17107.02
469.269	16650.33
469.474	16416.86
469.679	16982.1
469.885	16312.41
470.09	16650.33
470.295	16576.6
470.5	16021.6
470.705	16396.38
470.91	15962.21
471.115	15868
471.32	16140.38
471.525	15851.62
471.73	15405.16
471.935	15605.86
472.139	14848.11
472.344	15132.78
472.549	15018.1
472.754	14837.87
472.959	14573.69
473.164	14254.2
473.369	14270.59
473.574	14643.32
473.778	14452.86
473.983	14127.23
474.188	14448.76
474.393	13652.1
474.598	13705.35
474.802	13613.19
475.007	13344.91
475.212	13357.19
475.417	12906.64
475.621	13158.54
475.826	12918.93
476.031	12744.85
476.235	12806.29
476.44	12806.29
476.645	12474.52
476.849	12390.55
477.054	12400.79
477.259	12140.7
477.463	12112.03
477.668	11813.03
477.872	12265.63
478.077	11708.58
478.282	11542.69
478.486	11538.6
478.691	11276.46
478.895	11460.77
479.1	11241.64
479.304	11264.17
479.509	10973.36
479.713	11075.76
479.918	10973.36
480.122	10592.44
480.326	10918.06
480.531	10870.96
480.735	10571.96
480.94	10694.83
481.144	10956.97
481.348	10483.89
481.553	10535.09
481.757	10285.24
481.961	10528.95
482.166	10694.83
482.37	10688.69
482.574	10141.88
482.778	10217.66
482.983	10733.75
483.187	10365.11
483.391	10586.29
483.595	10459.32
483.8	10381.49
484.004	10565.81
484.208	10760.37
484.412	10326.2
484.616	10506.42
484.821	10670.26
485.025	10266.81
485.229	10485.94
485.433	10541.24
485.637	10320.06
485.841	10307.77
486.045	10363.06
486.249	10502.33
486.453	10285.24
486.657	10387.64
486.861	10356.92
487.065	10268.86
487.269	10477.75
487.473	10240.19
487.677	10418.36
487.881	10365.11
488.085	10338.49
488.289	10569.91
488.493	10432.69
488.697	10676.4
488.901	10393.78
489.105	10447.03
489.309	10510.52
489.512	10459.32
489.716	10678.45
489.92	10479.8
490.124	10485.94
490.328	10813.62
490.531	10600.63
490.735	10778.8
490.939	10864.82
491.143	10410.17
491.346	10668.21
491.55	10836.14
491.754	10897.58
491.958	10889.39
492.161	10973.36
492.365	11002.03
492.569	11034.8
492.772	11038.89
492.976	11061.42
493.18	11108.52
493.383	11178.15
493.587	11483.3
493.79	11686.05
493.994	11253.93
494.197	11569.32
494.401	11643.04
494.605	11528.36
494.808	11628.71
495.012	11581.6
495.215	11896.99
495.419	11788.45
495.622	11874.46
495.825	12146.84
496.029	12052.64
496.232	12273.82
496.436	12105.88
496.639	12529.81
496.843	12402.84
497.046	12755.09
497.249	12724.37
497.453	13123.73
497.656	13283.47
497.859	12937.36
498.063	13250.7
498.266	13396.1
498.469	13484.17
498.673	13623.43
498.876	13955.2
499.079	14078.08
499.282	13918.34
499.485	14348.41
499.689	14428.28
499.892	14559.35
500.095	14475.38
500.298	14970.99
500.501	15147.12
500.705	15415.4
500.908	15351.92
501.111	15333.48
501.314	15517.8
501.517	15958.11
501.72	16144.48
501.923	15779.94
502.126	16353.37
502.329	16803.92
502.532	16803.92
502.735	16719.96
502.938	17016.91
503.141	17256.53
503.344	17506.38
503.547	17414.22
503.75	17600.58
503.953	17829.96
504.156	18169.92
504.359	18223.17
504.562	18241.6
504.765	18909.24
504.968	19189.81
505.17	19017.78
505.373	19109.94
505.576	19632.17
505.779	19640.36
505.982	19509.29
506.185	20193.31
506.387	20404.25
506.59	20326.43
506.793	20936.73
506.996	20840.47
507.198	21307.41
507.401	21544.97
507.604	21577.74
507.807	21966.85
508.009	21901.32
508.212	22333.44
508.415	22362.11
508.617	22894.58
508.82	22962.17
509.022	22706.17
509.225	23177.2
509.428	23638
509.63	23916.52
509.833	24133.61
510.035	24371.17
510.238	24276.96
510.44	24608.73
510.643	25049.05
510.845	25120.73
511.048	25157.59
511.25	25692.11
511.453	25700.3
511.655	26593.22
511.858	26068.94
512.06	26474.43
512.262	26695.61
512.465	26859.45
512.667	27017.15
512.87	27731.89
513.072	27533.23
513.274	28329.89
513.477	28389.28
513.679	28893.08
513.881	29175.7
514.084	29190.04
514.286	29132.7
514.488	29392.79
514.69	30504.84
514.893	30080.91
515.095	30599.04
515.297	30644.1
515.499	30697.34
515.701	31229.82
515.904	31858.54
516.106	31448.95
516.308	31915.89
516.51	32362.34
516.712	32458.6
516.914	32784.23
517.116	33136.48
517.318	33392.47
517.52	33638.23
517.722	33814.35
517.925	34209.61
518.127	34541.38
518.329	34590.53
518.531	34600.77
518.733	35471.16
518.935	35802.93
519.136	35731.25
519.338	36222.76
519.54	36503.34
519.742	36693.8
519.944	37064.48
520.146	37424.92
520.348	37549.85
520.55	37267.23
520.752	37703.45
520.954	38575.88
521.155	38176.53
521.357	38772.49
521.559	38901.51
521.761	39200.51
521.963	39452.41
522.164	39624.44
522.366	39974.64
522.568	40296.17
522.77	40543.98
522.971	41215.71
523.173	40935.14
523.375	40937.19
523.576	41330.4
523.778	41457.37
523.98	41443.04
524.181	41905.88
524.383	42323.66
524.584	42399.44
524.786	42804.94
524.988	42538.7
525.189	43028.16
525.391	43361.98
525.592	43574.97
525.794	43656.89
525.995	43660.99
526.197	43703.99
526.398	43544.25
526.6	44242.61
526.801	44318.39
527.003	44365.49
527.204	44318.39
527.406	44840.62
527.607	44791.47
527.808	45317.79
528.01	44541.61
528.211	44963.5
528.412	45731.48
528.614	45616.8
528.815	45479.58
529.016	46472.85
529.218	45741.72
529.419	45551.26
529.62	45983.38
529.822	45618.85
530.023	46038.68
530.224	46204.56
530.425	45719.2
530.626	45921.94
530.828	45874.84
531.029	46749.32
531.23	46478.99
531.431	46454.42
531.632	46440.08
531.833	46405.27
532.035	46290.58
532.236	46898.83
532.437	47050.38
532.638	46233.24
532.839	46919.31
533.04	46970.5
533.241	46259.86
533.442	47124.1
533.643	46626.45
533.844	46579.34
534.045	46522
534.246	46339.73
534.447	46743.18
534.648	46909.07
534.849	46907.02
535.05	46800.52
535.251	46413.46
535.451	46583.44
535.652	46937.74
535.853	46489.23
536.054	47230.6
536.255	46878.35
536.456	46691.98
536.657	47259.27
536.857	46698.12
537.058	46487.18
537.259	46960.26
537.46	47099.53
537.66	46632.59
537.861	47132.29
538.062	46548.62
538.263	47007.37
538.463	46567.05
538.664	46392.98
538.865	47058.57
539.065	46558.86
539.266	46542.48
539.466	46718.6
539.667	46132.89
539.868	47019.66
540.068	46831.24
540.269	46485.14
540.469	46859.91
540.67	45799.07
540.87	46395.03
541.071	46427.79
541.271	46720.65
541.472	46446.22
541.672	46284.44
541.873	46452.37
542.073	46196.37
542.274	46761.61
542.474	46034.58
542.675	45608.61
542.875	46663.31
543.075	46454.42
543.276	45516.45
543.476	46560.91
543.676	45893.27
543.877	46339.73
544.077	46229.14
544.277	45905.56
544.478	46216.85
544.678	46495.38
544.878	46116.5
545.078	46388.88
545.279	46196.37
545.479	45954.71
545.679	46233.24
545.879	45938.33
546.079	45782.68
546.28	46063.25
546.48	45659.8
546.68	46220.95
546.88	46157.46
547.08	46182.04
547.28	46089.88
547.48	45780.63
547.68	46225.04
547.88	45960.86
548.081	46165.65
548.281	46001.82
548.481	46196.37
548.681	46114.45
548.881	46116.5
549.081	45969.05
549.28	45528.73
549.48	46165.65
549.68	45842.07
549.88	46442.13
550.08	45629.09
550.28	45858.46
550.48	45760.16
550.68	46499.47
550.88	45661.85
551.08	45809.31
551.279	45964.95
551.479	45297.31
551.679	45741.72
551.879	45711
552.079	45987.48
552.278	45657.76
552.478	45256.35
552.678	45823.64
552.878	46001.82
553.077	46128.79
553.277	45012.65
553.477	46016.15
553.676	45426.34
553.876	45862.55
554.076	45127.33
554.275	45465.25
554.475	44988.07
554.674	45528.73
554.874	45645.47
555.074	45469.34
555.273	45516.45
555.473	45618.85
555.672	44947.11
555.872	45323.94
556.071	45340.32
556.271	45549.21
556.47	45119.14
556.67	44701.36
556.869	44979.88
557.068	45612.7
557.268	44994.21
557.467	45295.27
557.667	44945.06
557.866	45160.1
558.065	45385.38
558.265	44703.4
558.464	44748.46
558.663	44900.01
558.863	44463.79
559.062	45137.57
559.261	44471.98
559.461	45145.76
559.66	44375.73
559.859	44570.29
560.058	44551.85
560.258	44658.35
560.457	44328.62
560.656	44609.2
560.855	44007.09
561.054	44330.67
561.253	44117.68
561.453	44375.73
561.652	44267.19
561.851	43933.37
562.05	44064.44
562.249	43925.18
562.448	44160.69
562.647	43747
562.846	43751.1
563.045	43871.93
563.244	43511.49
563.443	43851.45
563.642	43108.04
563.841	43648.7
564.04	43511.49
564.239	43683.51
564.438	43093.7
564.637	43701.95
564.836	43679.42
565.035	43132.61
565.234	43310.78
565.432	43112.13
565.631	42919.62
565.83	43327.17
566.029	43155.14
566.228	42698.44
566.427	42829.51
566.625	42626.76
566.824	42329.81
567.023	42524.36
567.222	41854.68
567.42	42919.62
567.619	42174.16
567.818	42510.03
568.016	41916.12
568.215	42469.07
568.414	42155.73
568.612	42602.19
568.811	41729.75
569.01	41907.93
569.208	41144.03
569.407	42145.49
569.605	41361.12
569.804	41494.24
570.002	41674.46
570.201	41535.2
570.4	41328.35
570.598	41002.72
570.797	41129.7
570.995	41035.49
571.193	40754.92
571.392	41195.23
571.59	40765.16
571.789	40810.21
571.987	40654.57
572.186	40302.32
572.384	40845.03
572.582	40548.07
572.781	40826.6
572.979	39728.89
573.177	40072.95
573.376	40193.78
573.574	39974.64
573.772	40320.75
573.971	39552.76
574.169	39792.37
574.367	39571.19
574.565	39509.75
574.763	39360.25
574.962	39321.34
575.16	38985.47
575.358	39296.77
575.556	38516.49
575.754	39366.4
575.952	38698.76
576.151	39139.07
576.349	38631.18
576.547	38643.46
576.745	38453
576.943	38815.49
577.141	38403.85
577.339	38561.54
577.537	38399.76
577.735	38254.35
577.933	37992.21
578.131	37877.52
578.329	37545.75
578.527	37605.14
578.725	38065.94
578.923	37844.76
579.121	37486.36
579.319	37740.31
579.516	37525.27
579.714	36976.42
579.912	37467.93
580.11	37439.26
580.308	37072.67
580.506	37295.9
580.704	36118.32
580.901	36747.04
581.099	36972.32
581.297	36529.96
581.495	36337.45
581.692	36501.29
581.89	36337.45
582.088	36562.73
582.285	36505.38
582.483	36575.02
582.681	36300.59
582.878	35940.14
583.076	35761.97
583.274	36175.66
583.471	35438.39
583.669	35716.92
583.866	35772.21
584.064	35458.87
584.262	35047.23
584.459	35696.44
584.657	35419.96
584.854	35424.06
585.052	34887.49
585.249	35176.25
585.447	35110.72
585.644	34432.84
585.841	34809.67
586.039	35067.71
586.236	34342.73
586.434	34226
586.631	34363.21
586.828	34574.15
587.026	34266.95
587.223	34060.11
587.42	33711.95
587.618	34049.87
587.815	33877.84
588.012	33761.11
588.21	33658.71
588.407	33847.12
588.604	33394.52
588.801	33451.86
588.999	33242.97
589.196	33113.95
589.393	32991.07
589.59	32841.57
589.787	33111.9
589.984	32812.9
590.182	32915.3
590.379	32823.14
590.576	32597.86
590.773	32614.24
590.97	32141.16
591.167	32870.24
591.364	32065.39
591.561	31989.61
591.758	32032.62
591.955	32053.1
592.152	32100.2
592.349	31627.12
592.546	31760.24
592.743	31684.47
592.94	31395.7
593.137	31774.58
593.334	31274.87
593.531	30959.48
593.727	31223.67
593.924	31217.53
594.121	30875.52
594.318	31039.36
594.515	30631.81
594.712	31250.3
594.908	30734.21
595.105	31178.62
595.302	30519.17
595.499	30283.66
595.696	30549.89
595.892	30457.73
596.089	30193.54
596.286	30287.75
596.482	30375.81
596.679	30097.29
596.876	29869.97
597.072	29822.86
597.269	29941.64
597.466	29620.11
597.662	29542.29
597.859	29636.5
598.055	29595.54
598.252	29368.21
598.448	29413.27
598.645	29038.49
598.841	28813.21
599.038	29515.67
599.234	29185.94
599.431	28714.91
599.627	28798.88
599.824	28913.56
600.02	28473.25
600.217	28749.73
600.413	28747.68
600.609	28602.27
600.806	28161.96
601.002	28440.48
601.198	28168.1
601.395	28020.65
601.591	28047.27
601.787	27813.8
601.984	27944.87
602.18	28215.21
602.376	27381.68
602.572	27553.71
602.769	27807.66
602.965	27400.12
603.161	27475.89
603.357	27099.06
603.553	27219.89
603.75	27051.96
603.946	27174.84
604.142	27039.67
604.338	26695.61
604.534	26871.74
604.73	26496.96
604.926	26709.95
605.122	26566.59
605.318	26361.8
605.514	26417.09
605.71	26142.66
605.906	26154.95
606.102	26025.93
606.298	26181.57
606.494	26193.86
606.69	26058.7
606.886	26138.57
607.082	25624.53
607.278	25728.97
607.474	25509.84
607.67	26083.27
607.866	25573.33
608.062	25698.25
608.257	25552.85
608.453	25434.07
608.649	25479.12
608.845	25065.43
609.041	25434.07
609.236	25493.46
609.432	25300.95
609.628	25346
609.824	25137.11
610.019	25182.17
610.215	24987.61
610.411	25276.37
610.606	25096.15
610.802	25055.19
610.998	24950.74
611.193	24881.11
611.389	24727.52
611.584	24682.46
611.78	24369.12
611.976	24672.22
612.171	24678.36
612.367	24600.54
612.562	24371.17
612.758	24027.11
612.953	24106.98
613.149	24250.34
613.344	23906.28
613.539	24535.01
613.735	24043.49
613.93	24365.03
614.126	24231.91
614.321	24362.98
614.517	23826.41
614.712	23652.33
614.907	23738.35
615.103	23754.73
615.298	23758.83
615.493	24201.19
615.688	23353.33
615.884	23764.97
616.079	23396.34
616.274	23293.94
616.47	23291.89
616.665	23601.13
616.86	23232.5
617.055	23177.2
617.25	23261.17
617.445	23351.28
617.641	23134.2
617.836	23361.52
618.031	23097.33
618.226	23099.38
618.421	22720.51
618.616	22913.02
618.811	22435.84
619.006	22632.44
619.201	22149.12
619.396	22480.89
619.591	22149.12
619.786	22413.31
619.981	22106.12
620.176	22388.74
620.371	21970.95
620.566	21819.4
620.761	21833.74
620.956	21997.57
621.151	21530.64
621.346	21669.9
621.541	21331.98
621.735	21323.79
621.93	20924.44
622.125	21276.69
622.32	21100.56
622.515	21340.18
622.709	20822.04
622.904	20895.77
623.099	20840.47
623.294	20850.71
623.488	20541.47
623.683	20545.56
623.878	20105.25
624.072	20224.03
624.267	19933.22
624.462	19867.69
624.656	19806.25
624.851	19802.15
625.046	19599.4
625.24	19605.55
625.435	19398.7
625.629	19454
625.824	19263.54
626.018	19431.47
626.213	18681.91
626.407	19300.4
626.602	18720.82
626.796	18665.53
626.991	18647.1
627.185	18526.27
627.38	18403.39
627.574	18151.49
627.768	18223.17
627.963	18161.73
628.157	17993.79
628.352	18088
628.546	17664.07
628.74	17950.79
628.935	17856.58
629.129	17737.8
629.323	17680.46
629.517	17262.67
629.712	17354.83
629.906	17356.88
630.1	16990.29
630.294	17129.55
630.489	17037.39
630.683	16949.33
630.877	16629.85
631.071	16560.22
631.265	16724.05
631.459	16758.87
631.653	16635.99
631.848	16461.91
632.042	16265.31
632.236	16420.95
632.43	16191.58
632.624	16253.02
632.818	16027.74
633.012	15773.8
633.206	15923.3
633.4	15659.11
633.594	15482.99
633.788	15880.29
633.982	15691.88
634.176	15624.29
634.369	15491.18
634.563	15194.22
634.757	15202.41
634.951	15265.9
635.145	15102.06
635.339	15032.43
635.533	14925.94
635.726	15130.73
635.92	14901.36
636.114	14737.52
636.308	14499.96
636.501	14674.04
636.695	14571.64
636.889	14315.64
637.083	14157.95
637.276	14219.39
637.47	14348.41
637.664	14143.61
637.857	14305.4
638.051	13992.06
638.244	13854.85
638.438	13738.12
638.632	13764.74
638.825	13815.94
639.019	13584.52
639.212	13475.98
639.406	13625.48
639.599	13375.63
639.793	13541.51
639.986	13236.36
640.18	13330.57
640.373	13033.61
640.567	13107.34
640.76	13095.05
640.954	12920.98
641.147	12515.48
641.34	12607.64
641.534	12503.19
641.727	12664.98
641.92	12650.64
642.114	12331.16
642.307	12456.09
642.5	12316.83
642.694	12183.71
642.887	12273.82
643.08	12337.31
643.273	12198.04
643.467	12320.92
643.66	11786.4
643.853	11851.94
644.046	11657.38
644.239	11913.38
644.432	12089.5
644.626	11614.37
644.819	11661.48
645.012	11536.55
645.205	11610.28
645.398	11464.87
645.591	11163.82
645.784	11307.18
645.977	11165.87
646.17	11274.41
646.363	11247.79
646.556	10907.82
646.749	10969.26
646.942	10805.42
647.135	10823.86
647.328	10846.38
647.521	10588.34
647.714	10721.46
647.907	10547.38
648.099	10604.72
648.292	10647.73
648.485	10561.72
648.678	10361.02
648.871	10612.92
649.064	10453.17
649.256	10477.75
649.449	10125.5
649.642	10055.87
649.835	10041.53
650.027	10188.99
650.22	10043.58
650.413	9865.41
650.605	9937.09
650.798	9814.21
650.991	9724.1
651.183	9648.32
651.376	9558.21
651.568	9699.52
651.761	9437.38
651.954	9566.4
652.146	9560.26
652.339	9478.34
652.531	9330.89
652.724	9453.77
652.916	9216.2
653.109	9322.7
653.301	9298.12
653.494	9205.96
653.686	9142.47
653.879	9146.57
654.071	9236.68
654.263	9033.93
654.456	9119.95
654.648	8870.09
654.84	8624.34
655.033	8822.99
655.225	8671.44
655.417	8720.59
655.61	8736.98
655.802	8734.93
655.994	8536.28
656.186	8653.01
656.379	8474.84
656.571	8372.44
656.763	8317.14
656.955	8388.82
657.148	8448.21
657.34	8184.02
657.532	8100.06
657.724	8012
657.916	8175.83
658.108	8169.69
658.3	8120.54
658.492	7921.88
658.684	8014.04
658.876	7911.64
659.068	7876.83
659.26	7733.47
659.452	7792.86
659.644	7667.94
659.836	7649.5
660.028	7692.51
660.22	7538.91
660.412	7512.29
660.604	7514.34
660.796	7524.58
660.988	7620.83
661.18	7362.79
661.372	7325.93
661.563	7364.84
661.755	7164.14
661.947	7166.18
662.139	7397.6
662.331	7119.08
662.522	7176.42
662.714	7065.83
662.906	7121.13
663.097	6951.15
663.289	7153.9
663.481	6801.65
663.673	6992.11
663.864	6996.2
664.056	6926.57
664.247	6766.83
664.439	6689.01
664.631	6668.53
664.822	6828.27
665.014	6668.53
665.205	6586.61
665.397	6858.99
665.588	6646
665.78	6562.03
665.971	6709.49
666.163	6351.09
666.354	6584.56
666.546	6414.58
666.737	6381.81
666.929	6410.48
667.12	6488.31
667.311	6332.66
667.503	6340.85
667.694	6301.94
667.885	6308.09
668.077	6105.34
668.268	6127.86
668.459	6201.59
668.651	6117.62
668.842	6177.02
669.033	6209.78
669.224	6179.06
669.416	6056.18
669.607	5863.68
669.798	5984.51
669.989	6002.94
670.18	5939.45
670.371	5855.48
670.563	5755.13
670.754	5744.89
670.945	5759.23
671.136	5898.49
671.327	5585.15
671.518	5699.84
671.709	5787.9
671.9	5767.42
672.091	5638.4
672.282	5632.26
672.473	5579.01
672.664	5560.58
672.855	5490.95
673.046	5505.28
673.237	5611.78
673.428	5546.24
673.619	5472.51
673.809	5433.6
674	5540.1
674.191	5445.89
674.382	5341.44
674.573	5456.13
674.764	5337.35
674.954	5327.11
675.145	5267.72
675.336	5312.77
675.527	5153.03
675.717	5384.45
675.908	5144.84
676.099	5202.18
676.289	5335.3
676.48	5060.87
676.671	4972.81
676.861	5237
677.052	5161.22
677.243	4974.86
677.433	5064.97
677.624	5153.03
677.814	5032.2
678.005	5112.07
678.195	5097.74
678.386	5048.58
678.576	4833.55
678.767	4919.56
678.957	4866.32
679.148	4999.43
679.338	4890.89
679.529	4860.17
679.719	4761.87
679.909	4907.27
680.1	4817.16
680.29	4954.38
680.481	4768.01
680.671	4755.72
680.861	4849.93
681.052	4751.63
681.242	4696.33
681.432	4825.36
681.622	4763.92
681.813	4747.53
682.003	4604.18
682.193	4546.83
682.383	4714.77
682.573	4630.8
682.764	4575.5
682.954	4759.82
683.144	4587.79
683.334	4653.33
683.524	4663.57
683.714	4628.75
683.904	4499.73
684.094	4665.61
684.284	4706.57
684.474	4663.57
684.664	4630.8
684.854	4501.78
685.044	4606.22
685.234	4516.11
685.424	4407.57
685.614	4491.54
685.804	4270.36
685.994	4389.14
686.184	4409.62
686.374	4405.52
686.564	4217.11
686.753	4448.53
686.943	4346.13
687.133	4260.12
687.323	4270.36
687.513	4471.06
687.702	4256.02
687.892	4260.12
688.082	4067.61
688.272	4272.4
688.461	4256.02
688.651	4215.06
688.841	4129.05
689.03	4178.2
689.22	4032.79
689.41	4096.28
689.599	4104.47
689.789	4049.18
689.979	4014.36
690.168	4077.85
690.358	4071.7
690.547	4045.08
690.737	3987.74
690.926	3942.68
691.116	3840.28
691.305	3981.59
691.495	3950.87
691.684	3621.15
691.874	4047.13
692.063	3932.44
692.252	3961.11
692.442	3748.12
692.631	3686.69
692.82	3729.69
693.01	3711.26
693.199	3715.36
693.388	3698.97
693.578	3670.3
693.767	3744.03
693.956	3778.84
694.146	3696.92
694.335	3629.34
694.524	3746.08
694.713	3731.74
694.902	3569.95
695.092	3670.3
695.281	3748.12
695.47	3543.33
695.659	3682.59
695.848	3539.23
696.037	3574.05
696.226	3670.3
696.415	3512.61
696.604	3563.81
696.793	3559.71
696.982	3582.24
697.171	3547.42
697.36	3477.79
697.549	3531.04
697.738	3555.62
697.927	3506.46
698.116	3545.38
698.305	3500.32
698.494	3598.62
698.683	3379.49
698.872	3578.14
699.061	3410.21
699.25	3430.69
699.438	3516.7
699.627	3465.5
699.816	3473.7
700.005	3397.92
700.193	3473.7
700.382	3516.7
700.571	3397.92
700.76	3440.93
700.948	3440.93
701.137	3440.93
701.326	3449.12
701.514	3328.29
701.703	3483.94
701.892	3367.2
702.08	3395.87
702.269	3332.39
702.457	3285.28
702.646	3399.97
702.834	3287.33
703.023	3289.38
703.212	3268.9
703.4	3205.41
703.589	3184.93
703.777	3338.53
703.965	3363.11
704.154	3416.35
704.342	3096.87
704.531	3189.03
704.719	3172.64
704.907	3223.84
705.096	3133.73
705.284	3213.6
705.472	3131.69
705.661	3135.78
705.849	3227.94
706.037	3287.33
706.226	3168.55
706.414	3219.75
706.602	2973.99
706.79	3121.45
706.979	3242.28
707.167	3137.83
707.355	3135.78
707.543	3062.05
707.731	3195.17
707.919	3055.91
708.107	3090.73
708.296	3148.07
708.484	3008.81
708.672	3039.53
708.86	2990.38
709.048	2990.38
709.236	3017
709.424	3025.19
709.612	3107.11
709.8	2887.98
709.988	2992.42
710.176	3041.57
710.364	2984.23
710.551	2943.27
710.739	2941.22
710.927	2990.38
711.115	3076.39
711.303	3055.91
711.491	2941.22
711.679	2881.83
711.866	2910.5
712.054	3017
712.242	2914.6
712.43	2986.28
712.617	2971.94
712.805	2924.84
712.993	2826.54
713.181	2900.27
713.368	2877.74
713.556	2892.07
713.744	2756.91
713.931	2935.08
714.119	2838.83
714.306	2730.28
714.494	2935.08
714.682	2752.81
714.869	2834.73
715.057	2906.41
715.244	2752.81
715.432	2816.3
715.619	2703.66
715.807	2763.05
715.994	2806.06
716.182	2711.85
716.369	2656.56
716.556	2699.56
716.744	2679.08
716.931	2785.58
717.119	2664.75
717.306	2705.71
717.493	2695.47
717.681	2601.26
717.868	2687.28
718.055	2646.32
718.242	2742.57
718.43	2697.52
718.617	2687.28
718.804	2621.74
718.991	2640.17
719.179	2691.37
719.366	2623.79
719.553	2681.13
719.74	2742.57
719.927	2672.94
720.114	2582.83
720.301	2623.79
720.488	2640.17
720.676	2613.55
720.863	2566.45
721.05	2543.92
721.237	2543.92
721.424	2382.13
721.611	2658.6
721.798	2468.14
721.985	2433.33
722.172	2539.82
722.358	2402.61
722.545	2480.43
722.732	2474.29
722.919	2527.53
723.106	2480.43
723.293	2482.48
723.48	2509.1
723.667	2523.44
723.853	2548.01
724.04	2492.72
724.227	2365.75
724.414	2439.47
724.6	2437.42
724.787	2445.62
724.974	2386.22
725.161	2408.75
725.347	2322.74
725.534	2427.18
725.72	2400.56
725.907	2367.79
726.094	2357.55
726.28	2285.87
726.467	2355.51
726.653	2339.12
726.84	2287.92
727.027	2402.61
727.213	2408.75
727.4	2392.37
727.586	2296.11
727.773	2253.11
727.959	2265.39
728.145	2353.46
728.332	2294.07
728.518	2294.07
728.705	2353.46
728.891	2259.25
729.077	2335.03
729.264	2292.02
729.45	2292.02
729.636	2341.17
729.823	2189.62
730.009	2378.03
730.195	2189.62
730.382	2242.87
730.568	2351.41
730.754	2220.34
730.94	2316.59
731.126	2298.16
731.313	2236.72
731.499	2150.71
731.685	2216.24
731.871	2181.43
732.057	2191.67
732.243	2199.86
732.429	2292.02
732.615	2355.51
732.801	2191.67
732.987	2218.29
733.173	2195.76
733.359	2089.27
733.545	2195.76
733.731	2208.05
733.917	2085.17
734.103	2165.04
734.289	2201.91
734.475	2154.8
734.661	2134.32
734.847	2142.52
735.033	2156.85
735.219	2109.75
735.404	2185.52
735.59	2212.15
735.776	2048.31
735.962	2103.61
736.148	2025.78
736.333	2107.7
736.519	2097.46
736.705	2074.93
736.89	2027.83
737.076	2066.74
737.262	2031.93
737.447	2017.59
737.633	2036.02
737.819	2015.54
738.004	2099.51
738.19	2066.74
738.375	2056.5
738.561	2072.89
738.747	1954.1
738.932	1995.06
739.118	1999.16
739.303	1915.19
739.489	1999.16
739.674	1980.73
739.859	1945.91
740.045	1947.96
740.23	1974.58
740.416	1939.77
740.601	1958.2
740.786	1843.51
740.972	1888.57
741.157	1823.03
741.342	1976.63
741.528	1933.62
741.713	1868.09
741.898	1884.47
742.084	1839.42
742.269	1876.28
742.454	1892.66
742.639	1782.07
742.824	1841.47
743.01	1794.36
743.195	1894.71
743.38	1818.94
743.565	1755.45
743.75	1790.27
743.935	1833.27
744.12	1872.18
744.305	1820.99
744.49	1618.24
744.675	1728.83
744.86	1759.55
745.045	1884.47
745.23	1786.17
745.415	1696.06
745.6	1814.84
745.785	1696.06
745.97	1687.87
746.155	1687.87
746.34	1683.77
746.525	1579.33
746.71	1675.58
746.895	1608
747.079	1546.56
747.264	1622.33
747.449	1552.7
747.634	1564.99
747.819	1632.57
748.003	1595.71
748.188	1573.18
748.373	1593.66
748.557	1552.7
748.742	1618.24
748.927	1515.84
749.111	1528.13
749.296	1470.78
749.481	1495.36
749.665	1448.26
749.85	1497.41
750.034	1509.69
750.219	1401.15
750.404	1507.65
750.588	1493.31
750.773	1413.44
750.957	1442.11
751.141	1368.38
751.326	1403.2
751.51	1374.53
751.695	1401.15
751.879	1323.33
752.064	1517.89
752.248	1311.04
752.432	1403.2
752.617	1395.01
752.801	1468.73
752.985	1321.28
753.17	1333.57
753.354	1282.37
753.538	1212.74
753.722	1239.36
753.907	1204.55
754.091	1198.4
754.275	1214.79
754.459	1157.44
754.643	1132.87
754.828	1302.85
755.012	1222.98
755.196	1233.22
755.38	1169.73
755.564	1200.45
755.748	1155.4
755.932	1212.74
756.116	1198.4
756.3	1167.68
756.484	1214.79
756.668	1198.4
756.852	1061.19
757.036	1089.86
757.22	1114.44
757.404	1077.57
757.588	1042.76
757.772	1067.33
757.956	1075.52
758.14	1237.31
758.323	1126.72
758.507	1073.48
758.691	1032.52
758.875	1075.52
759.059	1059.14
759.242	1028.42
759.426	1075.52
759.61	1069.38
759.794	942.41
759.977	1024.33
760.161	995.65
760.345	1026.37
760.528	1003.85
760.712	960.84
760.895	944.45
761.079	919.88
761.263	969.03
761.446	1053
761.63	932.17
761.813	862.54
761.997	921.93
762.18	905.54
762.364	1007.94
762.547	870.73
762.731	909.64
762.914	983.37
763.098	876.87
763.281	934.22
763.464	966.98
763.648	956.74
763.831	964.93
764.015	917.83
764.198	862.54
764.381	835.91
764.564	911.69
764.748	893.26
764.931	827.72
765.114	919.88
765.297	909.64
765.481	901.45
765.664	880.97
765.847	803.15
766.03	823.62
766.213	844.1
766.397	803.15
766.58	909.64
766.763	821.58
766.946	844.1
767.129	846.15
767.312	782.67
767.495	823.62
767.678	878.92
767.861	803.15
768.044	801.1
768.227	837.96
768.41	725.32
768.593	811.34
768.776	737.61
768.959	846.15
769.142	774.47
769.324	862.54
769.507	840.01
769.69	807.24
769.873	731.47
770.056	784.71
770.239	756.04
770.421	753.99
770.604	813.38
770.787	870.73
770.97	723.27
771.152	782.67
771.335	688.46
771.518	770.38
771.7	762.19
771.883	870.73
772.066	776.52
772.248	758.09
772.431	715.08
772.613	676.17
772.796	637.26
772.978	731.47
773.161	805.19
773.343	657.74
773.526	700.75
773.708	710.99
773.891	743.75
774.073	647.5
774.256	706.89
774.438	741.71
774.621	667.98
774.803	710.99
774.985	672.08
775.168	698.7
775.35	667.98
775.532	663.88
775.715	622.92
775.897	618.83
776.079	665.93
776.261	610.64
776.444	610.64
776.626	624.97
776.808	606.54
776.99	528.72
777.173	624.97
777.355	590.16
777.537	602.44
777.719	649.55
777.901	530.77
778.083	532.81
778.265	627.02
778.447	622.92
778.629	565.58
778.811	594.25
778.993	600.4
779.175	565.58
779.357	567.63
779.539	495.95
779.721	534.86
779.903	538.96
780.085	450.89
780.267	450.89
780.449	588.11
780.631	510.29
780.812	469.33
780.994	461.13
781.176	518.48
781.358	473.42
781.54	454.99
781.721	549.2
781.903	541.01
782.085	485.71
782.267	500.05
782.448	459.09
782.63	493.9
782.812	459.09
782.993	434.51
783.175	446.8
783.357	434.51
783.538	442.7
783.72	473.42
783.901	426.32
784.083	459.09
784.264	418.13
784.446	471.37
784.627	381.26
784.809	430.41
784.99	440.65
785.172	422.22
785.353	411.98
785.535	422.22
785.716	377.17
785.897	354.64
786.079	346.45
786.26	475.47
786.441	395.6
786.623	332.11
786.804	360.78
786.985	434.51
787.167	411.98
787.348	360.78
787.529	385.36
787.71	321.87
787.891	321.87
788.073	371.02
788.254	368.98
788.435	328.02
788.616	397.65
788.797	366.93
788.978	346.45
789.159	328.02
789.34	352.59
789.522	287.06
789.703	319.82
789.884	371.02
790.065	368.98
790.246	387.41
790.427	319.82
790.607	389.46
790.788	360.78
790.969	354.64
791.15	303.44
791.331	313.68
791.512	379.22
791.693	317.78
791.874	328.02
792.054	356.69
792.235	395.6
792.416	287.06
792.597	328.02
792.778	332.11
792.958	344.4
793.139	344.4
793.32	250.19
793.5	325.97
793.681	256.34
793.862	211.28
794.042	262.48
794.223	270.67
794.404	289.1
794.584	221.52
794.765	207.19
794.945	235.86
795.126	328.02
795.306	293.2
795.487	313.68
795.667	266.58
795.848	282.96
796.028	217.43
796.209	328.02
796.389	291.15
796.57	289.1
796.75	213.33
796.93	262.48
797.111	203.09
797.291	213.33
797.471	262.48
797.652	225.62
797.832	221.52
798.012	239.95
798.192	297.3
798.373	139.6
798.553	223.57
798.733	303.44
798.913	207.19
799.093	209.23
799.274	321.87
799.454	250.19
799.634	315.73
799.814	203.09
799.994	205.14
800.174	256.34
800.354	305.49
800.534	221.52
800.714	266.58
800.894	221.52
801.074	180.56
801.254	192.85
801.434	188.75
801.614	258.39
801.794	147.8
801.974	758.09
802.154	217.43
802.334	278.87
802.514	155.99
802.693	239.95
802.873	190.8
803.053	178.51
803.233	233.81
803.413	201.04
803.592	266.58
803.772	190.8
803.952	215.38
804.131	155.99
804.311	211.28
804.491	272.72
804.67	170.32
804.85	205.14
805.03	211.28
805.209	149.84
805.389	211.28
805.568	147.8
805.748	221.52
805.928	188.75
806.107	213.33
806.287	264.53
806.466	164.18
806.646	184.66
806.825	246.1
807.004	188.75
807.184	178.51
807.363	166.23
807.543	151.89
807.722	110.93
807.901	155.99
808.081	203.09
808.26	172.37
808.439	143.7
808.619	158.03
808.798	164.18
808.977	188.75
809.156	98.64
809.336	184.66
809.515	155.99
809.694	164.18
809.873	147.8
810.052	168.27
810.231	180.56
810.411	201.04
810.59	225.62
810.769	143.7
810.948	254.29
811.127	188.75
811.306	215.38
811.485	69.97
811.664	201.04
811.843	172.37
812.022	145.75
812.201	102.74
812.38	94.55
812.559	188.75
812.737	164.18
812.916	110.93
813.095	131.41
813.274	184.66
813.453	86.36
813.632	160.08
813.811	231.76
813.989	123.22
814.168	90.45
814.347	139.6
814.526	100.69
814.704	188.75
814.883	151.89
815.062	162.13
815.24	201.04
815.419	166.23
815.598	186.71
815.776	51.54
815.955	137.56
816.133	63.83
816.312	143.7
816.49	135.51
816.669	117.08
816.847	160.08
817.026	198.99
817.204	78.16
817.383	172.37
817.561	147.8
817.74	115.03
817.918	131.41
818.097	176.47
818.275	51.54
818.453	198.99
818.632	190.8
818.81	59.73
818.988	65.88
819.167	108.88
819.345	0.34
819.523	172.37
819.701	125.27
819.879	102.74
820.058	135.51
820.236	143.7
820.414	102.74
820.592	33.11
820.77	74.07
820.948	96.6
821.127	117.08
821.305	133.46
821.483	106.84
821.661	139.6
821.839	119.12
822.017	49.49
822.195	98.64
822.373	174.42
822.551	65.88
822.729	125.27
822.907	84.31
823.085	55.64
823.262	67.92
823.44	147.8
823.618	92.5
823.796	98.64
823.974	33.11
824.152	147.8
824.329	129.36
824.507	82.26
824.685	92.5
824.863	147.8
825.04	90.45
825.218	59.73
825.396	117.08
825.574	119.12
825.751	100.69
825.929	174.42
826.107	18.77
826.284	129.36
826.462	76.12
826.639	22.87
826.817	115.03
826.994	86.36
827.172	51.54
827.349	155.99
827.527	35.16
827.704	53.59
827.882	90.45
828.059	164.18
828.237	78.16
828.414	100.69
828.591	53.59
828.769	137.56
828.946	49.49
829.124	57.68
829.301	123.22
829.478	147.8
829.655	102.74
829.833	108.88
830.01	41.3
830.187	78.16
830.364	86.36
830.542	82.26
830.719	94.55
830.896	131.41
831.073	69.97
831.25	22.87
831.427	147.8
831.604	57.68
831.782	84.31
831.959	61.78
832.136	10.58
832.313	57.68
832.49	61.78
832.667	76.12
832.844	112.98
833.021	16.73
833.198	43.35
833.374	98.64
833.551	51.54
833.728	57.68
833.905	151.89
834.082	82.26
834.259	82.26
834.436	55.64
834.612	78.16
834.789	104.79
834.966	119.12
835.143	131.41
835.319	12.63
835.496	10.58
835.673	117.08
835.85	61.78
836.026	-3.75
836.203	49.49
836.38	74.07
836.556	0.34
836.733	22.87
836.909	123.22
837.086	65.88
837.262	53.59
837.439	10.58
837.616	41.3
837.792	139.6
837.968	57.68
838.145	-30.38
838.321	-30.38
838.498	65.88
838.674	65.88
838.851	4.44
839.027	26.96
839.203	108.88
839.38	92.5
839.556	57.68
839.732	57.68
839.909	10.58
840.085	61.78
840.261	102.74
840.437	67.92
840.614	33.11
840.79	143.7
840.966	74.07
841.142	57.68
841.318	78.16
841.494	147.8
841.671	57.68
841.847	74.07
842.023	-3.75
842.199	100.69
842.375	84.31
842.551	-20.14
842.727	41.3
842.903	43.35
843.079	90.45
843.255	47.44
843.431	0.34
843.607	90.45
843.783	-3.75
843.959	-9.9
844.134	22.87
844.31	108.88
844.486	6.49
844.662	67.92
844.838	35.16
845.013	110.93
845.189	61.78
845.365	88.4
845.541	67.92
845.716	51.54
845.892	76.12
846.068	74.07
846.244	12.63
846.419	100.69
846.595	-46.76
846.77	-5.8
846.946	47.44
847.122	51.54
847.297	0.34
847.473	131.41
847.648	-7.85
847.824	41.3
847.999	24.92
848.175	59.73
848.35	63.83
848.526	74.07
848.701	20.82
848.876	39.25
849.052	49.49
849.227	41.3
849.403	65.88
849.578	10.58
849.753	20.82
849.929	74.07
850.104	-44.71
850.279	22.87
850.454	35.16
850.63	84.31
850.805	-1.71
850.98	35.16
851.155	49.49
851.33	-9.9
851.505	-20.14
851.681	-24.23
851.856	51.54
852.031	65.88
852.206	41.3
852.381	26.96
852.556	57.68
852.731	45.4
852.906	43.35
853.081	26.96
853.256	53.59
853.431	82.26
853.606	4.44
853.781	22.87
853.956	41.3
854.131	51.54
854.305	49.49
854.48	49.49
854.655	-13.99
854.83	35.16
855.005	-40.62
855.18	59.73
855.354	57.68
855.529	26.96
855.704	-26.28
855.879	67.92
856.053	88.4
856.228	123.22
856.403	24.92
856.577	86.36
856.752	16.73
856.926	41.3
857.101	67.92
857.276	20.82
857.45	57.68
857.625	33.11
857.799	-13.99
857.974	43.35
858.148	53.59
858.323	123.22
858.497	84.31
858.672	26.96
858.846	45.4
859.02	6.49
859.195	57.68
859.369	45.4
859.543	20.82
859.718	51.54
859.892	35.16
860.066	90.45
860.241	74.07
860.415	55.64
860.589	31.06
860.763	59.73
860.938	-30.38
861.112	49.49
861.286	0.34
861.46	78.16
861.634	61.78
861.808	16.73
861.982	8.53
862.157	31.06
862.331	12.63
862.505	39.25
862.679	41.3
862.853	2.39
863.027	-40.62
863.201	82.26
863.375	18.77
863.549	-36.52
863.722	4.44
863.896	90.45
864.07	-18.09
864.244	49.49
864.418	-13.99
864.592	-13.99
864.766	51.54
864.939	39.25
865.113	-22.19
865.287	24.92
865.461	24.92
865.634	39.25
865.808	8.53
865.982	53.59
866.156	31.06
866.329	106.84
866.503	12.63
866.676	41.3
866.85	33.11
867.024	-7.85
867.197	-50.86
867.371	0.34
867.544	41.3
867.718	37.2
867.891	47.44
868.065	-67.24
868.238	49.49
868.412	24.92
868.585	65.88
868.759	12.63
868.932	43.35
869.105	29.01
869.279	47.44
869.452	59.73
869.625	39.25
869.799	-22.19
869.972	16.73
870.145	2.39
870.319	-5.8
870.492	-36.52
870.665	37.2
870.838	-7.85
871.011	65.88
871.185	37.2
871.358	37.2
871.531	80.21
871.704	6.49
871.877	123.22
872.05	-24.23
872.223	-7.85
872.396	53.59
872.569	4.44
872.742	53.59
872.915	41.3
873.088	12.63
873.261	24.92
873.434	43.35
873.607	-71.34
873.78	80.21
873.953	43.35
874.126	41.3
874.299	57.68
874.471	-13.99
874.644	-5.8
874.817	78.16
874.99	82.26
875.163	0.34
875.335	82.26
875.508	12.63
875.681	33.11
875.853	18.77
876.026	0.34
876.199	-54.95
876.371	41.3
876.544	24.92
876.717	67.92
876.889	16.73
877.062	0.34
877.234	-30.38
877.407	26.96
877.579	-5.8
877.752	18.77
877.924	69.97
878.097	53.59
878.269	-22.19
878.442	4.44
878.614	39.25
878.786	-7.85
878.959	-61.1
879.131	-52.91
879.303	-1.71
879.476	45.4
879.648	106.84
879.82	-28.33
879.993	22.87
880.165	59.73
880.337	6.49
880.509	14.68
880.681	-52.91
880.854	24.92
881.026	57.68
881.198	31.06
881.37	29.01
881.542	76.12
881.714	53.59
881.886	-20.14
882.058	-30.38
882.23	45.4
882.402	-24.23
882.574	-3.75
882.746	-38.57
882.918	-18.09
883.09	33.11
883.262	4.44
883.434	24.92
883.606	41.3
883.778	-13.99
883.95	115.03
884.122	-11.95
884.293	37.2
884.465	-7.85
884.637	65.88
884.809	39.25
884.98	100.69
885.152	18.77
885.324	-16.04
885.496	-22.19
885.667	10.58
885.839	35.16
886.011	76.12
886.182	33.11
886.354	-5.8
886.525	-7.85
886.697	-30.38
886.869	29.01
887.04	18.77
887.212	-40.62
887.383	4.44
887.555	24.92
887.726	-26.28
887.897	-16.04
888.069	57.68
888.24	16.73
888.412	24.92
888.583	-9.9
888.754	78.16
888.926	-20.14
889.097	-1.71
889.268	51.54
889.44	20.82
889.611	-32.43
889.782	10.58
889.953	47.44
890.125	37.2
890.296	2.39
890.467	-11.95
890.638	8.53
890.809	76.12
890.98	-30.38
891.151	-13.99
891.323	90.45
891.494	51.54
891.665	-16.04
891.836	49.49
892.007	65.88
892.178	98.64
892.349	-32.43
892.52	0.34
892.691	61.78
892.862	-24.23
893.032	-16.04
893.203	16.73
893.374	61.78
893.545	-5.8
893.716	8.53
893.887	8.53
894.057	-54.95
894.228	33.11
894.399	45.4
894.57	31.06
894.74	59.73
894.911	4.44
895.082	-26.28
895.253	69.97
895.423	-32.43
895.594	45.4
895.764	-32.43
895.935	-22.19
896.106	61.78
896.276	22.87
896.447	-3.75
896.617	-30.38
896.788	-32.43
896.958	-52.91
897.129	-30.38
897.299	29.01
897.47	35.16
897.64	39.25
897.81	33.11
897.981	12.63
898.151	-7.85
898.322	76.12
898.492	-57
898.662	29.01
898.832	65.88
899.003	-32.43
899.173	37.2
899.343	-44.71
899.513	-42.67
