Data from USB4F104151__214__14-21-12-831.txt Node

Date: Thu Mar 13 14:21:12 EDT 2025
User: louis
Spectrometer: USB4F10415
Trigger mode: 4
Integration Time (sec): 2.000000E-2
Scans to average: 1
Electric dark correction enabled: true
Nonlinearity correction enabled: false
Boxcar width: 0
XAxis mode: Wavelengths
Number of Pixels in Spectrum: 3648
>>>>>Begin Spectral Data<<<<<
178.204	-97.11
178.424	-97.11
178.644	-97.11
178.864	-90.96
179.084	-107.35
179.304	-52.05
179.524	-45.91
179.744	9.39
179.964	21.67
180.184	42.15
180.404	52.39
180.624	25.77
180.844	17.58
181.064	-33.62
181.283	1.19
181.503	-47.96
181.723	9.39
181.943	-76.63
182.163	138.41
182.383	93.35
182.602	50.35
182.822	50.35
183.042	13.48
183.262	13.48
183.482	-15.19
183.701	33.96
183.921	25.77
184.141	-19.29
184.361	5.29
184.58	-13.14
184.8	-19.29
185.02	-25.43
185.239	79.02
185.459	50.35
185.679	95.4
185.898	-64.34
186.118	9.39
186.338	74.92
186.557	46.25
186.777	58.54
186.997	17.58
187.216	25.77
187.436	83.11
187.655	46.25
187.875	72.87
188.095	89.26
188.314	81.07
188.534	-52.05
188.753	66.73
188.973	58.54
189.192	9.39
189.412	-33.62
189.631	-33.62
189.851	29.87
190.07	11.43
190.29	-47.96
190.509	3.24
190.729	60.59
190.948	83.11
191.168	148.65
191.387	56.49
191.607	3.24
191.826	-31.57
192.045	-4.95
192.265	19.63
192.484	-13.14
192.704	38.06
192.923	31.91
193.142	91.31
193.362	-4.95
193.581	50.35
193.8	-17.24
194.02	9.39
194.239	-21.33
194.458	33.96
194.678	15.53
194.897	33.96
195.116	48.3
195.335	9.39
195.555	66.73
195.774	33.96
195.993	29.87
196.212	-7
196.432	111.78
196.651	25.77
196.87	56.49
197.089	23.72
197.308	50.35
197.528	76.97
197.747	3.24
197.966	50.35
198.185	44.2
198.404	-72.53
198.623	1.19
198.842	-11.09
199.062	95.4
199.281	83.11
199.5	-13.14
199.719	81.07
199.938	74.92
200.157	58.54
200.376	5.29
200.595	64.68
200.814	60.59
201.033	119.98
201.252	62.63
201.471	46.25
201.69	103.59
201.909	-7
202.128	42.15
202.347	15.53
202.566	33.96
202.785	-37.72
203.004	-21.33
203.223	54.44
203.442	109.74
203.661	25.77
203.879	-27.48
204.098	89.26
204.317	9.39
204.536	126.12
204.755	-23.38
204.974	1.19
205.193	56.49
205.411	79.02
205.63	-56.15
205.849	-11.09
206.068	13.48
206.287	42.15
206.505	54.44
206.724	38.06
206.943	38.06
207.162	-11.09
207.381	17.58
207.599	66.73
207.818	-2.9
208.037	33.96
208.255	1.19
208.474	-21.33
208.693	1.19
208.911	33.96
209.13	87.21
209.349	-4.95
209.567	13.48
209.786	64.68
210.005	25.77
210.223	38.06
210.442	-21.33
210.661	74.92
210.879	25.77
211.098	-11.09
211.316	-7
211.535	76.97
211.753	70.83
211.972	-47.96
212.191	-0.85
212.409	33.96
212.628	50.35
212.846	17.58
213.065	17.58
213.283	13.48
213.502	36.01
213.72	-13.14
213.938	31.91
214.157	89.26
214.375	115.88
214.594	9.39
214.812	40.11
215.031	-25.43
215.249	38.06
215.467	3.24
215.686	33.96
215.904	83.11
216.122	50.35
216.341	85.16
216.559	66.73
216.778	70.83
216.996	50.35
217.214	3.24
217.432	81.07
217.651	76.97
217.869	50.35
218.087	74.92
218.306	21.67
218.524	38.06
218.742	-2.9
218.96	66.73
219.179	79.02
219.397	38.06
219.615	44.2
219.833	-31.57
220.051	-25.43
220.27	1.19
220.488	89.26
220.706	29.87
220.924	36.01
221.142	66.73
221.36	38.06
221.578	74.92
221.796	42.15
222.015	17.58
222.233	9.39
222.451	46.25
222.669	97.45
222.887	56.49
223.105	-21.33
223.323	83.11
223.541	9.39
223.759	62.63
223.977	11.43
224.195	83.11
224.413	50.35
224.631	50.35
224.849	7.34
225.067	99.5
225.285	-2.9
225.503	91.31
225.721	40.11
225.939	-13.14
226.157	36.01
226.375	109.74
226.592	-25.43
226.81	-15.19
227.028	115.88
227.246	128.17
227.464	66.73
227.682	83.11
227.9	44.2
228.117	95.4
228.335	9.39
228.553	36.01
228.771	128.17
228.989	11.43
229.206	21.67
229.424	-25.43
229.642	66.73
229.86	21.67
230.077	-13.14
230.295	1.19
230.513	79.02
230.731	93.35
230.948	95.4
231.166	134.31
231.384	44.2
231.601	-7
231.819	66.73
232.037	36.01
232.254	5.29
232.472	-11.09
232.689	17.58
232.907	103.59
233.125	74.92
233.342	83.11
233.56	-23.38
233.777	87.21
233.995	62.63
234.213	25.77
234.43	-9.05
234.648	17.58
234.865	72.87
235.083	74.92
235.3	40.11
235.518	31.91
235.735	-21.33
235.953	83.11
236.17	50.35
236.388	70.83
236.605	52.39
236.822	42.15
237.04	56.49
237.257	25.77
237.475	66.73
237.692	1.19
237.909	17.58
238.127	46.25
238.344	15.53
238.562	56.49
238.779	-11.09
238.996	-50
239.214	52.39
239.431	107.69
239.648	74.92
239.865	68.78
240.083	54.44
240.3	25.77
240.517	11.43
240.735	58.54
240.952	105.64
241.169	81.07
241.386	81.07
241.603	38.06
241.821	-31.57
242.038	25.77
242.255	58.54
242.472	25.77
242.689	107.69
242.907	68.78
243.124	50.35
243.341	3.24
243.558	44.2
243.775	-54.1
243.992	-37.72
244.209	27.82
244.426	76.97
244.643	33.96
244.86	48.3
245.078	11.43
245.295	33.96
245.512	11.43
245.729	-76.63
245.946	25.77
246.163	-17.24
246.38	52.39
246.597	11.43
246.814	21.67
247.031	-37.72
247.248	56.49
247.464	38.06
247.681	58.54
247.898	58.54
248.115	-2.9
248.332	15.53
248.549	91.31
248.766	29.87
248.983	99.5
249.2	-35.67
249.417	38.06
249.633	21.67
249.85	33.96
250.067	83.11
250.284	79.02
250.501	56.49
250.717	33.96
250.934	-23.38
251.151	27.82
251.368	-70.48
251.585	13.48
251.801	31.91
252.018	46.25
252.235	101.55
252.451	29.87
252.668	-4.95
252.885	36.01
253.102	-39.76
253.318	-19.29
253.535	25.77
253.752	36.01
253.968	-2.9
254.185	-27.48
254.401	9.39
254.618	-29.52
254.835	132.26
255.051	119.98
255.268	46.25
255.484	29.87
255.701	62.63
255.917	-29.52
256.134	9.39
256.351	52.39
256.567	52.39
256.784	25.77
257	62.63
257.217	66.73
257.433	85.16
257.65	64.68
257.866	33.96
258.082	21.67
258.299	5.29
258.515	52.39
258.732	85.16
258.948	29.87
259.165	27.82
259.381	15.53
259.597	76.97
259.814	44.2
260.03	97.45
260.246	33.96
260.463	-21.33
260.679	38.06
260.895	23.72
261.112	38.06
261.328	9.39
261.544	36.01
261.761	83.11
261.977	21.67
262.193	25.77
262.409	33.96
262.626	68.78
262.842	9.39
263.058	13.48
263.274	38.06
263.49	87.21
263.707	60.59
263.923	56.49
264.139	-21.33
264.355	13.48
264.571	74.92
264.787	87.21
265.004	23.72
265.22	64.68
265.436	-7
265.652	46.25
265.868	36.01
266.084	33.96
266.3	11.43
266.516	-47.96
266.732	-39.76
266.948	42.15
267.164	1.19
267.38	11.43
267.596	-4.95
267.812	93.35
268.028	50.35
268.244	-15.19
268.46	42.15
268.676	33.96
268.892	54.44
269.108	3.24
269.324	25.77
269.54	-11.09
269.756	46.25
269.972	40.11
270.188	13.48
270.403	-4.95
270.619	-29.52
270.835	66.73
271.051	64.68
271.267	-31.57
271.483	70.83
271.698	-35.67
271.914	33.96
272.13	-2.9
272.346	50.35
272.562	-2.9
272.777	76.97
272.993	142.5
273.209	-4.95
273.425	128.17
273.64	36.01
273.856	52.39
274.072	-64.34
274.287	-19.29
274.503	74.92
274.719	74.92
274.934	68.78
275.15	-21.33
275.366	-15.19
275.581	-17.24
275.797	58.54
276.012	31.91
276.228	38.06
276.444	9.39
276.659	46.25
276.875	-9.05
277.09	74.92
277.306	9.39
277.521	115.88
277.737	-2.9
277.952	38.06
278.168	38.06
278.383	68.78
278.599	79.02
278.814	52.39
279.03	-31.57
279.245	87.21
279.461	46.25
279.676	50.35
279.892	-15.19
280.107	-31.57
280.322	25.77
280.538	101.55
280.753	-21.33
280.969	9.39
281.184	-2.9
281.399	132.26
281.615	25.77
281.83	-15.19
282.045	46.25
282.26	36.01
282.476	52.39
282.691	50.35
282.906	-29.52
283.122	-2.9
283.337	-4.95
283.552	11.43
283.767	-2.9
283.983	60.59
284.198	1.19
284.413	46.25
284.628	7.34
284.843	15.53
285.058	11.43
285.274	11.43
285.489	-23.38
285.704	44.2
285.919	38.06
286.134	42.15
286.349	83.11
286.564	124.07
286.779	105.64
286.995	44.2
287.21	91.31
287.425	83.11
287.64	46.25
287.855	29.87
288.07	42.15
288.285	15.53
288.5	31.91
288.715	111.78
288.93	23.72
289.145	83.11
289.36	81.07
289.575	72.87
289.79	23.72
290.004	117.93
290.219	42.15
290.434	17.58
290.649	-11.09
290.864	11.43
291.079	66.73
291.294	107.69
291.509	50.35
291.724	-7
291.938	50.35
292.153	152.74
292.368	-19.29
292.583	62.63
292.798	36.01
293.012	17.58
293.227	58.54
293.442	11.43
293.657	50.35
293.871	36.01
294.086	48.3
294.301	83.11
294.516	68.78
294.73	99.5
294.945	50.35
295.16	62.63
295.374	68.78
295.589	70.83
295.804	58.54
296.018	-4.95
296.233	44.2
296.447	-43.86
296.662	50.35
296.877	140.46
297.091	21.67
297.306	97.45
297.52	79.02
297.735	-21.33
297.949	66.73
298.164	50.35
298.378	36.01
298.593	9.39
298.807	76.97
299.022	74.92
299.236	27.82
299.451	-39.76
299.665	-7
299.88	-0.85
300.094	-37.72
300.309	46.25
300.523	54.44
300.737	17.58
300.952	-31.57
301.166	40.11
301.381	-4.95
301.595	9.39
301.809	115.88
302.024	3.24
302.238	60.59
302.452	66.73
302.667	17.58
302.881	70.83
303.095	9.39
303.309	38.06
303.524	9.39
303.738	56.49
303.952	-11.09
304.166	76.97
304.381	-13.14
304.595	83.11
304.809	-27.48
305.023	-23.38
305.237	52.39
305.452	-21.33
305.666	54.44
305.88	128.17
306.094	66.73
306.308	58.54
306.522	70.83
306.736	46.25
306.95	42.15
307.164	103.59
307.379	33.96
307.593	33.96
307.807	-15.19
308.021	85.16
308.235	99.5
308.449	-9.05
308.663	54.44
308.877	150.7
309.091	-7
309.305	95.4
309.519	-39.76
309.733	89.26
309.947	-27.48
310.161	66.73
310.374	-11.09
310.588	54.44
310.802	56.49
311.016	74.92
311.23	-15.19
311.444	-23.38
311.658	-19.29
311.872	138.41
312.085	93.35
312.299	101.55
312.513	111.78
312.727	33.96
312.941	1.19
313.154	33.96
313.368	93.35
313.582	-13.14
313.796	5.29
314.009	13.48
314.223	-4.95
314.437	58.54
314.651	3.24
314.864	-7
315.078	-15.19
315.292	50.35
315.505	-25.43
315.719	52.39
315.933	33.96
316.146	81.07
316.36	31.91
316.573	68.78
316.787	5.29
317.001	119.98
317.214	42.15
317.428	93.35
317.641	-19.29
317.855	42.15
318.068	19.63
318.282	31.91
318.495	85.16
318.709	19.63
318.922	95.4
319.136	99.5
319.349	11.43
319.563	58.54
319.776	50.35
319.99	23.72
320.203	15.53
320.417	33.96
320.63	-78.68
320.843	3.24
321.057	-2.9
321.27	11.43
321.483	-13.14
321.697	101.55
321.91	1.19
322.124	5.29
322.337	33.96
322.55	-27.48
322.763	25.77
322.977	62.63
323.19	25.77
323.403	66.73
323.617	68.78
323.83	1.19
324.043	-4.95
324.256	158.89
324.469	105.64
324.683	89.26
324.896	42.15
325.109	17.58
325.322	-25.43
325.535	50.35
325.748	11.43
325.962	-4.95
326.175	17.58
326.388	60.59
326.601	99.5
326.814	33.96
327.027	42.15
327.24	25.77
327.453	72.87
327.666	-7
327.879	-13.14
328.092	62.63
328.305	-4.95
328.518	54.44
328.731	-21.33
328.944	42.15
329.157	64.68
329.37	-0.85
329.583	76.97
329.796	36.01
330.009	25.77
330.222	68.78
330.435	58.54
330.648	3.24
330.861	29.87
331.073	97.45
331.286	72.87
331.499	23.72
331.712	54.44
331.925	21.67
332.138	48.3
332.35	13.48
332.563	-19.29
332.776	-31.57
332.989	1.19
333.202	27.82
333.414	95.4
333.627	70.83
333.84	21.67
334.053	58.54
334.265	50.35
334.478	66.73
334.691	17.58
334.903	74.92
335.116	36.01
335.329	15.53
335.541	5.29
335.754	68.78
335.966	-15.19
336.179	50.35
336.392	-2.9
336.604	3.24
336.817	93.35
337.029	-2.9
337.242	74.92
337.454	42.15
337.667	68.78
337.88	1.19
338.092	3.24
338.305	85.16
338.517	-4.95
338.729	-11.09
338.942	38.06
339.154	-0.85
339.367	-0.85
339.579	60.59
339.792	-0.85
340.004	89.26
340.217	54.44
340.429	68.78
340.641	19.63
340.854	25.77
341.066	27.82
341.278	83.11
341.491	64.68
341.703	83.11
341.915	-7
342.128	148.65
342.34	40.11
342.552	21.67
342.764	48.3
342.977	19.63
343.189	50.35
343.401	1.19
343.613	25.77
343.826	83.11
344.038	21.67
344.25	50.35
344.462	9.39
344.674	42.15
344.886	46.25
345.099	36.01
345.311	144.55
345.523	-2.9
345.735	36.01
345.947	11.43
346.159	52.39
346.371	66.73
346.583	72.87
346.795	70.83
347.007	33.96
347.219	25.77
347.431	38.06
347.643	42.15
347.855	1.19
348.067	107.69
348.279	-15.19
348.491	-0.85
348.703	66.73
348.915	74.92
349.127	42.15
349.339	27.82
349.551	3.24
349.763	81.07
349.975	13.48
350.187	66.73
350.399	93.35
350.61	27.82
350.822	7.34
351.034	-60.24
351.246	-11.09
351.458	66.73
351.669	11.43
351.881	60.59
352.093	60.59
352.305	87.21
352.517	-13.14
352.728	111.78
352.94	33.96
353.152	76.97
353.363	36.01
353.575	74.92
353.787	128.17
353.999	38.06
354.21	27.82
354.422	46.25
354.633	29.87
354.845	54.44
355.057	44.2
355.268	99.5
355.48	33.96
355.692	60.59
355.903	1.19
356.115	66.73
356.326	-7
356.538	68.78
356.749	60.59
356.961	91.31
357.172	72.87
357.384	-9.05
357.595	109.74
357.807	56.49
358.018	79.02
358.23	1.19
358.441	103.59
358.653	17.58
358.864	38.06
359.075	3.24
359.287	42.15
359.498	83.11
359.709	36.01
359.921	74.92
360.132	50.35
360.344	89.26
360.555	74.92
360.766	60.59
360.977	107.69
361.189	50.35
361.4	52.39
361.611	81.07
361.823	124.07
362.034	27.82
362.245	5.29
362.456	87.21
362.667	9.39
362.879	68.78
363.09	33.96
363.301	107.69
363.512	107.69
363.723	68.78
363.935	54.44
364.146	95.4
364.357	17.58
364.568	54.44
364.779	50.35
364.99	21.67
365.201	74.92
365.412	70.83
365.623	29.87
365.834	36.01
366.045	38.06
366.256	58.54
366.467	95.4
366.678	111.78
366.889	29.87
367.1	101.55
367.311	97.45
367.522	48.3
367.733	70.83
367.944	79.02
368.155	97.45
368.366	140.46
368.577	113.83
368.788	132.26
368.999	33.96
369.209	70.83
369.42	115.88
369.631	91.31
369.842	33.96
370.053	66.73
370.264	27.82
370.474	66.73
370.685	23.72
370.896	36.01
371.107	42.15
371.317	107.69
371.528	13.48
371.739	42.15
371.95	5.29
372.16	58.54
372.371	-23.38
372.582	72.87
372.792	103.59
373.003	132.26
373.214	85.16
373.424	91.31
373.635	1.19
373.846	70.83
374.056	50.35
374.267	27.82
374.477	33.96
374.688	50.35
374.898	46.25
375.109	13.48
375.319	36.01
375.53	68.78
375.74	38.06
375.951	-7
376.161	79.02
376.372	132.26
376.582	70.83
376.793	66.73
377.003	33.96
377.214	79.02
377.424	58.54
377.635	48.3
377.845	83.11
378.055	115.88
378.266	134.31
378.476	52.39
378.686	50.35
378.897	66.73
379.107	70.83
379.317	1.19
379.528	58.54
379.738	33.96
379.948	33.96
380.158	119.98
380.369	50.35
380.579	76.97
380.789	19.63
380.999	87.21
381.21	107.69
381.42	142.5
381.63	62.63
381.84	70.83
382.05	29.87
382.261	58.54
382.471	62.63
382.681	58.54
382.891	111.78
383.101	56.49
383.311	66.73
383.521	-17.24
383.731	33.96
383.941	83.11
384.151	38.06
384.361	52.39
384.571	-11.09
384.781	60.59
384.991	81.07
385.201	115.88
385.411	136.36
385.621	136.36
385.831	27.82
386.041	109.74
386.251	91.31
386.461	93.35
386.671	66.73
386.881	74.92
387.091	-29.52
387.301	99.5
387.511	62.63
387.72	72.87
387.93	66.73
388.14	74.92
388.35	58.54
388.56	66.73
388.769	107.69
388.979	113.83
389.189	15.53
389.399	85.16
389.609	95.4
389.818	42.15
390.028	46.25
390.238	107.69
390.447	107.69
390.657	83.11
390.867	29.87
391.076	105.64
391.286	-11.09
391.496	74.92
391.705	23.72
391.915	109.74
392.125	107.69
392.334	76.97
392.544	9.39
392.753	91.31
392.963	11.43
393.172	25.77
393.382	66.73
393.591	162.98
393.801	99.5
394.01	124.07
394.22	140.46
394.429	148.65
394.639	85.16
394.848	132.26
395.058	44.2
395.267	76.97
395.477	-2.9
395.686	156.84
395.895	99.5
396.105	158.89
396.314	144.55
396.524	87.21
396.733	76.97
396.942	158.89
397.152	25.77
397.361	181.42
397.57	144.55
397.78	160.94
397.989	142.5
398.198	173.22
398.407	91.31
398.617	97.45
398.826	111.78
399.035	156.84
399.244	103.59
399.453	33.96
399.663	113.83
399.872	148.65
400.081	93.35
400.29	193.7
400.499	124.07
400.708	119.98
400.917	89.26
401.127	68.78
401.336	167.08
401.545	144.55
401.754	126.12
401.963	111.78
402.172	109.74
402.381	60.59
402.59	181.42
402.799	140.46
403.008	124.07
403.217	191.66
403.426	179.37
403.635	117.93
403.844	130.22
404.053	119.98
404.262	152.74
404.471	230.57
404.68	158.89
404.888	117.93
405.097	218.28
405.306	144.55
405.515	171.18
405.724	132.26
405.933	257.19
406.142	201.9
406.35	205.99
406.559	265.38
406.768	214.18
406.977	224.42
407.185	197.8
407.394	246.95
407.603	214.18
407.812	249
408.02	271.53
408.229	304.29
408.438	189.61
408.646	320.68
408.855	214.18
409.064	304.29
409.272	308.39
409.481	363.69
409.69	304.29
409.898	386.21
410.107	341.16
410.315	361.64
410.524	369.83
410.733	392.36
410.941	332.97
411.15	425.12
411.358	378.02
411.567	447.65
411.775	402.6
411.984	418.98
412.192	513.19
412.401	504.99
412.609	593.06
412.818	584.87
413.026	566.43
413.234	664.74
413.443	607.39
413.651	623.78
413.86	646.3
414.068	668.83
414.276	756.9
414.485	738.46
414.693	763.04
414.901	738.46
415.11	855.2
415.318	838.81
415.526	855.2
415.734	937.12
415.943	918.68
416.151	926.88
416.359	949.4
416.567	1051.8
416.776	1033.37
416.984	1090.71
417.192	1205.4
417.4	1096.86
417.608	1076.38
417.817	1107.1
418.025	1272.98
418.233	1467.54
418.441	1303.7
418.649	1488.02
418.857	1524.88
419.065	1496.21
419.273	1533.08
419.481	1549.46
419.689	1553.55
419.897	1725.58
420.105	1662.1
420.313	1778.83
420.521	1922.19
420.729	1756.3
420.937	1918.09
421.145	2122.89
421.353	2137.23
421.561	2188.43
421.769	2227.34
421.977	2446.47
422.185	2391.17
422.393	2442.37
422.601	2677.89
422.809	2708.61
423.017	2778.24
423.224	2745.47
423.432	2780.29
423.64	2962.56
423.848	3081.34
424.056	3146.87
424.263	3294.33
424.471	3267.7
424.679	3357.82
424.887	3617.91
425.094	3556.47
425.302	3642.48
425.51	3859.57
425.718	3728.5
425.925	4021.36
426.133	4025.45
426.341	4277.35
426.548	4498.53
426.756	4437.09
426.964	4418.66
427.171	4854.88
427.379	4998.24
427.586	4977.76
427.794	5149.79
428.001	5395.54
428.209	5694.55
428.417	5514.33
428.624	5958.74
428.832	5983.31
429.039	5913.68
429.247	5966.93
429.454	6284.36
429.662	6886.47
429.869	6622.28
430.076	6802.5
430.284	6751.3
430.491	7126.08
430.699	7468.09
430.906	7345.21
431.114	7447.61
431.321	7881.78
431.528	7760.95
431.736	8369.19
431.943	8766.5
432.15	8655.91
432.358	8586.28
432.565	9075.74
432.772	9081.89
432.979	9466.91
433.187	9694.23
433.394	9833.49
433.601	10654.73
433.808	10566.67
434.016	10484.75
434.223	10824.71
434.43	11402.24
434.637	11195.39
434.844	11848.69
435.052	12067.83
435.259	11942.9
435.466	12372.97
435.673	12153.84
435.88	13081.57
436.087	13446.11
436.294	13493.21
436.501	13233.12
436.708	13675.48
436.915	14072.79
437.122	14564.3
437.329	14539.72
437.537	14795.72
437.743	15305.67
437.95	15076.29
438.157	15713.21
438.364	16180.15
438.571	16280.5
438.778	16638.89
438.985	17937.3
439.192	17279.91
439.399	17738.65
439.606	17189.8
439.813	18295.7
440.02	19428.23
440.227	19075.98
440.433	18881.42
440.64	19794.81
440.847	19518.34
441.054	20042.62
441.261	21308.26
441.467	21064.55
441.674	21539.68
441.881	22305.62
442.088	21992.28
442.294	21918.56
442.501	22475.6
442.708	22879.05
442.914	23644.99
443.121	24873.78
443.328	23878.46
443.534	26088.22
443.741	25201.45
443.948	24724.27
444.154	26671.89
444.361	26456.85
444.568	26809.11
444.774	26506.01
444.981	27067.15
445.187	27648.77
445.394	28744.44
445.6	28332.79
445.807	31058.64
446.013	29846.24
446.22	30323.42
446.426	31423.18
446.633	31376.08
446.839	32938.68
447.046	31259.34
447.252	33411.76
447.459	33391.28
447.665	33192.62
447.871	34601.63
448.078	35846.79
448.284	34478.75
448.491	35369.61
448.697	36797.05
448.903	37296.75
449.11	37438.06
449.316	36801.15
449.522	37388.91
449.728	38226.53
449.935	38607.45
450.141	38595.17
450.347	39373.39
450.553	38287.97
450.76	39058.01
450.966	40090.18
451.172	39379.54
451.378	40661.57
451.584	39705.16
451.791	40358.47
451.997	40747.58
452.203	41458.23
452.409	41132.6
452.615	40876.6
452.821	39256.66
453.027	39146.07
453.233	41265.72
453.44	39352.91
453.646	39924.3
453.852	40165.96
454.058	40565.31
454.264	39563.85
454.47	40344.13
454.676	39463.5
454.882	40620.61
455.088	37345.9
455.294	37730.92
455.5	38236.77
455.705	38640.22
455.911	37012.09
456.117	36194.95
456.323	35844.74
456.529	34194.08
456.735	35990.15
456.941	34962.07
457.147	34409.12
457.352	33311.41
457.558	32682.68
457.764	32864.95
457.97	32213.7
458.176	31773.38
458.381	31668.94
458.587	30051.04
458.793	30061.28
458.999	28115.71
459.204	30552.79
459.41	29965.03
459.616	27912.96
459.821	27831.04
460.027	27964.16
460.233	26860.3
460.438	25758.5
460.644	26598.16
460.85	25117.48
461.055	24550.2
461.261	24556.34
461.466	22868.81
461.672	22180.7
461.878	23948.09
462.083	21930.84
462.289	21857.12
462.494	21740.38
462.7	20493.17
462.905	20071.29
463.111	20753.26
463.316	20648.82
463.522	20343.67
463.727	20421.49
463.932	20269.94
464.138	20161.4
464.343	20315
464.549	19590.02
464.754	20370.29
464.959	20263.8
465.165	19714.94
465.37	19043.21
465.575	18596.75
465.781	19311.49
465.986	19553.15
466.191	18617.23
466.397	18389.91
466.602	17349.54
466.807	18060.18
467.012	18105.24
467.218	18228.12
467.423	18099.09
467.628	17908.63
467.833	18817.93
468.038	18039.7
468.244	17419.17
468.449	17953.69
468.654	17787.8
468.859	17535.9
469.064	17265.57
469.269	16731.05
469.474	16870.31
469.679	17410.98
469.885	16735.15
470.09	16815.02
470.295	16696.24
470.5	16167.86
470.705	16679.85
470.91	16092.09
471.115	15926.2
471.32	16399.28
471.525	16247.73
471.73	15836.09
471.935	15936.44
472.139	15385.54
472.344	15365.06
472.549	15268.8
472.754	15014.85
472.959	14908.36
473.164	14328.78
473.369	14377.94
473.574	14615.5
473.778	14500.81
473.983	14560.2
474.188	14416.85
474.393	13722.59
474.598	13882.33
474.802	13769.69
475.007	13562.84
475.212	13730.78
475.417	13208.55
475.621	13036.52
475.826	13284.32
476.031	12844.01
476.235	12755.94
476.44	12921.83
476.645	12624.87
476.849	12563.43
477.054	12549.1
477.259	12362.73
477.463	12305.39
477.668	12047.35
477.872	11990
478.077	11969.52
478.282	11727.86
478.486	11815.93
478.691	11723.77
478.895	11633.66
479.1	11428.86
479.304	11652.09
479.509	11133.95
479.713	11377.66
479.918	11207.68
480.122	10832.9
480.326	11142.14
480.531	11176.96
480.735	11082.75
480.94	10789.89
481.144	11097.09
481.348	10710.02
481.553	11035.65
481.757	10630.15
481.961	10646.54
482.166	10785.8
482.37	10804.23
482.574	10578.95
482.778	10349.58
482.983	10900.48
483.187	10568.71
483.391	10808.33
483.595	10406.92
483.8	10542.09
484.004	10550.28
484.208	10693.64
484.412	10642.44
484.616	10581
484.821	10609.67
485.025	10404.88
485.229	10777.61
485.433	10578.95
485.637	10593.29
485.841	10626.06
486.045	10443.79
486.249	10632.2
486.453	10667.02
486.657	10943.49
486.861	10724.36
487.065	10535.95
487.269	10707.98
487.473	10421.26
487.677	10699.78
487.881	10767.37
488.085	10535.95
488.289	10695.69
488.493	10746.89
488.697	10568.71
488.901	11039.75
489.105	10806.28
489.309	10824.71
489.512	10781.7
489.716	10750.98
489.92	10900.48
490.124	10615.82
490.328	10963.97
490.531	10857.48
490.735	11017.22
490.939	11052.03
491.143	10961.92
491.346	11172.86
491.55	11133.95
491.754	10994.69
491.958	11103.23
492.161	11054.08
492.365	11271.17
492.569	11267.07
492.772	11303.93
492.976	11498.49
493.18	11297.79
493.383	11709.43
493.587	11568.12
493.79	11842.55
493.994	11731.96
494.197	11621.37
494.401	11717.62
494.605	12004.34
494.808	12076.02
495.012	12030.96
495.215	12178.42
495.419	12020.72
495.622	12231.66
495.825	12250.1
496.029	12338.16
496.232	12575.72
496.436	12362.73
496.639	12970.98
496.843	12839.91
497.046	13079.52
497.249	13312.99
497.453	13478.88
497.656	13339.62
497.859	13321.18
498.063	13427.68
498.266	13954.01
498.469	13751.26
498.673	13728.73
498.876	14201.81
499.079	14177.23
499.282	14029.78
499.485	14740.43
499.689	14738.38
499.892	14762.95
500.095	14924.74
500.298	15414.21
500.501	15086.53
500.705	15551.42
500.908	15774.65
501.111	15596.48
501.314	15961.02
501.517	15977.4
501.72	16393.14
501.923	16393.14
502.126	16739.24
502.329	17003.43
502.532	17197.99
502.735	17165.22
502.938	17529.76
503.141	17447.84
503.344	17972.12
503.547	17972.12
503.75	18375.57
503.953	18490.26
504.156	18326.42
504.359	18682.77
504.562	18674.57
504.765	19125.13
504.968	19278.72
505.17	19755.9
505.373	19651.45
505.576	19874.68
505.779	20040.57
505.982	20310.9
506.185	20902.76
506.387	20609.9
506.59	20888.43
506.793	21201.77
506.996	21212.01
507.198	21680.99
507.401	21760.86
507.604	22172.5
507.807	22340.44
508.009	22362.97
508.212	22719.31
508.415	22932.3
508.617	23335.75
508.82	23200.58
509.022	23085.9
509.225	23669.57
509.428	24177.47
509.63	24109.88
509.833	24417.08
510.035	25316.14
510.238	24918.83
510.44	25201.45
510.643	25578.28
510.845	25424.68
511.048	25600.8
511.25	26053.41
511.453	25926.43
511.655	27167.5
511.858	26643.22
512.06	26800.91
512.262	27290.38
512.465	27269.9
512.667	27405.06
512.87	28074.75
513.072	27771.65
513.274	28545.78
513.477	28582.65
513.679	29084.4
513.881	29143.79
514.084	29541.1
514.286	29649.64
514.488	29944.55
514.69	30442.2
514.893	30509.79
515.095	30583.51
515.297	30964.43
515.499	31089.36
515.701	31621.83
515.904	31683.27
516.106	31664.84
516.308	32240.32
516.51	32826.04
516.712	32506.55
516.914	33079.99
517.116	33145.52
517.318	33600.17
517.52	33925.8
517.722	33944.23
517.925	34519.71
518.127	34880.15
518.329	35201.68
518.531	34568.86
518.733	35652.23
518.935	35848.84
519.136	35619.47
519.338	36209.28
519.54	36557.44
519.742	36895.35
519.944	36723.32
520.146	37427.82
520.348	37792.36
520.55	37882.47
520.752	38087.27
520.954	38670.94
521.155	38373.99
521.357	39101.01
521.559	39129.69
521.761	39729.74
521.963	39445.07
522.164	39498.32
522.366	40073.8
522.568	40063.56
522.77	40446.53
522.971	40860.22
523.173	40680
523.375	40946.23
523.576	41165.37
523.778	41472.56
523.98	41970.22
524.181	42021.42
524.383	42261.03
524.584	42447.39
524.786	42289.7
524.988	42400.29
525.189	42809.89
525.391	43016.73
525.592	43594.26
525.794	43502.1
525.995	43272.73
526.197	43477.52
526.398	43733.52
526.6	43932.17
526.801	44046.86
527.003	44497.41
527.204	44339.72
527.406	44960.25
527.607	44558.85
527.808	44964.35
528.01	44288.52
528.211	44575.23
528.412	45468.15
528.614	45294.07
528.815	45365.75
529.016	45808.11
529.218	45277.69
529.419	45904.37
529.62	45988.33
529.822	45373.94
530.023	45867.5
530.224	45824.5
530.425	45816.3
530.626	45836.78
530.828	45455.86
531.029	46715.36
531.23	45953.52
531.431	46107.12
531.632	46408.17
531.833	46279.14
532.035	46461.41
532.236	46330.34
532.437	46588.39
532.638	46238.19
532.839	46549.48
533.04	46395.88
533.241	46354.92
533.442	46584.29
533.643	46651.87
533.844	46457.32
534.045	46936.54
534.246	46406.12
534.447	47180.25
534.648	46227.95
534.849	47043.04
535.05	46316.01
535.251	46760.42
535.451	46602.72
535.652	46926.3
535.853	46537.19
536.054	46627.3
536.255	46584.29
536.456	46580.2
536.657	47161.82
536.857	46946.78
537.058	46694.88
537.259	46934.49
537.46	46420.45
537.66	46426.6
537.861	47108.57
538.062	46416.36
538.263	47045.08
538.463	46098.92
538.664	46643.68
538.865	46627.3
539.065	47094.24
539.266	46283.24
539.466	46989.79
539.667	45978.09
539.868	47235.55
540.068	46694.88
540.269	46453.22
540.469	46946.78
540.67	46610.92
540.87	46852.58
541.071	46928.35
541.271	46696.93
541.472	46549.48
541.672	46926.3
541.873	46518.76
542.073	46082.54
542.274	46909.92
542.474	46711.27
542.675	46166.51
542.875	46821.86
543.075	46545.38
543.276	46238.19
543.476	46905.82
543.676	46205.42
543.877	46817.76
544.077	46565.86
544.277	46131.69
544.478	46428.65
544.678	46588.39
544.878	46318.06
545.078	46418.41
545.279	46141.93
545.479	46084.59
545.679	46817.76
545.879	46160.36
546.079	46608.87
546.28	46299.62
546.48	46027.24
546.68	46395.88
546.88	46508.52
547.08	46092.78
547.28	46377.45
547.48	45879.79
547.68	46291.43
547.88	45908.46
548.081	46168.55
548.281	45867.5
548.481	45810.16
548.681	46189.03
548.881	46103.02
549.081	46250.47
549.28	45554.16
549.48	46504.42
549.68	46131.69
549.88	46615.01
550.08	45896.17
550.28	45754.86
550.48	46041.58
550.68	46123.5
550.88	46256.62
551.08	45724.14
551.279	45974
551.479	45808.11
551.679	46000.62
551.879	45523.44
552.079	46086.64
552.278	45902.32
552.478	45953.52
552.678	45996.52
552.878	46129.64
553.077	45629.94
553.277	45322.74
553.477	46266.86
553.676	45562.36
553.876	45709.81
554.076	45353.46
554.275	45365.75
554.475	45396.47
554.674	45978.09
554.874	45769.2
555.074	45517.3
555.273	45943.28
555.473	46068.2
555.672	45236.73
555.872	45206.01
556.071	45414.9
556.271	45718
556.47	45572.6
556.67	45312.5
556.869	45279.74
557.068	45568.5
557.268	44990.97
557.467	45427.19
557.667	45158.91
557.866	45005.31
558.065	45261.3
558.265	44671.49
558.464	44648.96
558.663	45283.83
558.863	44497.41
559.062	45001.21
559.261	44429.83
559.461	45115.9
559.66	44259.85
559.859	44667.39
560.058	44145.16
560.258	44571.14
560.457	44188.17
560.656	44429.83
560.855	44057.1
561.054	44030.47
561.253	43719.18
561.453	44040.71
561.652	44452.36
561.851	44136.97
562.05	43868.69
562.249	43721.23
562.448	44421.64
562.647	43856.4
562.846	43923.98
563.045	43797.01
563.244	43424.28
563.443	43766.29
563.642	43121.18
563.841	43498
564.04	43375.12
564.239	43530.77
564.438	43231.77
564.637	43563.54
564.836	43493.91
565.035	43026.97
565.234	42793.5
565.432	42646.05
565.631	43022.87
565.83	42816.03
566.029	42687.01
566.228	42588.7
566.427	42934.81
566.625	42179.11
566.824	42107.43
567.023	42609.18
567.222	41820.72
567.42	42533.41
567.619	42095.14
567.818	42222.12
568.016	42160.68
568.215	42521.12
568.414	41945.64
568.612	42562.08
568.811	41646.64
569.01	41984.55
569.208	41241.14
569.407	41785.9
569.605	41153.08
569.804	41941.55
570.002	40985.15
570.201	41826.86
570.4	41396.79
570.598	41062.97
570.797	40847.93
570.995	40993.34
571.193	40675.9
571.392	41161.27
571.59	40505.92
571.789	40837.69
571.987	40694.33
572.186	40354.37
572.384	40202.82
572.582	40245.83
572.781	40571.46
572.979	39852.62
573.177	40032.84
573.376	40452.67
573.574	39713.36
573.772	39907.91
573.971	39828.04
574.169	39946.83
574.367	39262.8
574.565	39748.17
574.763	39215.7
574.962	39342.67
575.16	39217.75
575.358	39072.34
575.556	38730.33
575.754	39563.85
575.952	38806.11
576.151	39451.22
576.349	38277.73
576.547	38644.32
576.745	38431.33
576.943	38711.9
577.141	38214.24
577.339	38521.44
577.537	38406.75
577.735	38281.83
577.933	37984.87
578.131	38201.96
578.329	38173.28
578.527	37929.58
578.725	37550.7
578.923	37972.58
579.121	37491.31
579.319	37780.07
579.516	37382.77
579.714	37358.19
579.912	37401.2
580.11	37284.47
580.308	37175.92
580.506	36883.06
580.704	36790.91
580.901	37010.04
581.099	36846.2
581.297	36713.08
581.495	36682.36
581.692	36885.11
581.89	36446.85
582.088	36604.54
582.285	36199.04
582.483	36479.61
582.681	36491.9
582.878	36051.59
583.076	35787.4
583.274	36020.87
583.471	35191.44
583.669	35832.46
583.866	35703.43
584.064	35711.63
584.262	35076.76
584.459	35705.48
584.657	35242.64
584.854	35056.28
585.052	34609.82
585.249	35064.47
585.447	35310.22
585.644	34859.67
585.841	34820.76
586.039	35060.37
586.236	34263.71
586.434	34644.63
586.631	34169.51
586.828	34288.29
587.026	34083.49
587.223	34224.8
587.42	33895.08
587.618	34060.96
587.815	33985.19
588.012	33741.48
588.21	33618.6
588.407	34050.72
588.604	33315.5
588.801	33419.95
588.999	33256.11
589.196	33456.81
589.393	33452.72
589.59	32826.04
589.787	32932.53
589.984	32934.58
590.182	32686.78
590.379	32570.04
590.576	32608.95
590.773	32844.47
590.97	32748.21
591.167	32717.5
591.364	32160.45
591.561	32621.24
591.758	32062.15
591.955	32072.39
592.152	32199.36
592.349	32017.09
592.546	31744.71
592.743	31937.22
592.94	31349.45
593.137	31685.32
593.334	31754.95
593.531	31228.62
593.727	31732.42
593.924	31437.51
594.121	31292.11
594.318	31122.13
594.515	30857.94
594.712	31048.4
594.908	30857.94
595.105	31032.02
595.302	30767.83
595.499	30773.97
595.696	30335.71
595.892	30431.96
596.089	30462.68
596.286	30284.51
596.482	30218.97
596.679	30348
596.876	30075.62
597.072	30270.17
597.269	30147.29
597.466	29766.37
597.662	29659.88
597.859	29461.23
598.055	29919.97
598.252	29399.79
598.448	29559.53
598.645	29414.12
598.841	29266.67
599.038	29135.6
599.234	29074.16
599.431	28777.2
599.627	29035.25
599.824	29037.3
600.02	28697.33
600.217	28619.51
600.413	28513.02
600.609	28390.14
600.806	28201.72
601.002	28089.09
601.198	28125.95
601.395	27792.13
601.591	28066.56
601.787	28132.09
601.984	27767.55
602.18	28113.66
602.376	27988.74
602.572	27650.82
602.769	27681.54
602.965	27374.34
603.161	27769.6
603.357	27214.6
603.553	27237.13
603.75	27343.63
603.946	27036.43
604.142	27292.43
604.338	26825.49
604.534	27169.55
604.73	26925.84
604.926	26712.85
605.122	26624.79
605.318	26297.11
605.514	26667.8
605.71	26256.15
605.906	26389.27
606.102	26352.41
606.298	26305.31
606.494	26311.45
606.69	26051.36
606.886	25910.05
607.082	25908
607.278	25895.71
607.474	25518.89
607.67	26198.81
607.866	25545.51
608.062	25711.39
608.257	25764.64
608.453	25416.49
608.649	25412.39
608.845	25502.5
609.041	25228.07
609.236	25580.32
609.432	25606.95
609.628	25410.34
609.824	25445.16
610.019	25178.92
610.215	25152.3
610.411	25234.22
610.606	25164.59
610.802	25062.19
610.998	25015.08
611.193	25197.35
611.389	24664.88
611.584	24691.51
611.78	24683.31
611.976	24896.3
612.171	24693.55
612.367	24822.58
612.562	24384.31
612.758	24183.61
612.953	24240.95
613.149	24431.41
613.344	24169.27
613.539	24243
613.735	24152.89
613.93	24177.47
614.126	24267.58
614.321	24400.69
614.517	24171.32
614.712	24064.83
614.907	24032.06
615.103	24193.85
615.298	23903.04
615.493	24156.99
615.688	23522.12
615.884	24091.45
616.079	23544.64
616.274	23698.24
616.47	23675.71
616.665	23876.41
616.86	23679.81
617.055	23632.71
617.25	23266.12
617.445	23755.58
617.641	23176.01
617.836	23462.72
618.031	22981.45
618.226	23382.85
618.421	23114.57
618.616	23030.6
618.811	22786.89
619.006	23237.45
619.201	22596.43
619.396	23143.24
619.591	22301.53
619.786	22434.64
619.981	22199.13
620.176	22604.63
620.371	22096.73
620.566	22199.13
620.761	21988.19
620.956	22156.12
621.151	21742.43
621.346	21879.64
621.541	21691.23
621.735	21818.21
621.93	21275.49
622.125	21701.47
622.32	21136.23
622.515	21160.81
622.709	21295.97
622.904	20994.92
623.099	20726.64
623.294	20927.34
623.488	20630.38
623.683	20818.8
623.878	20210.55
624.072	20669.3
624.267	20214.65
624.462	20216.69
624.656	19911.55
624.851	20401.01
625.046	19784.57
625.24	19782.52
625.435	19547.01
625.629	19702.65
625.824	19544.96
626.018	19434.37
626.213	19012.49
626.407	19245.96
626.602	19055.5
626.796	19024.78
626.991	18883.47
627.185	18740.11
627.38	18881.42
627.574	18486.16
627.768	18588.56
627.963	18568.08
628.157	18164.63
628.352	18201.49
628.546	18113.43
628.74	17908.63
628.935	17765.28
629.129	17683.36
629.323	17527.71
629.517	17599.39
629.712	17496.99
629.906	17376.16
630.1	16985
630.294	17163.17
630.489	17175.46
630.683	17290.15
630.877	17001.38
631.071	16702.38
631.265	17040.29
631.459	16774.06
631.653	16389.04
631.848	16700.33
632.042	16671.66
632.236	16372.66
632.43	16131
632.624	16372.66
632.818	16171.96
633.012	15920.06
633.206	15893.43
633.4	15930.3
633.594	15999.93
633.788	15684.54
633.982	15739.83
634.176	15741.88
634.369	15655.87
634.563	15379.39
634.757	15193.03
634.951	15387.58
635.145	15483.84
635.339	15178.69
635.533	14971.85
635.726	14785.48
635.92	14789.58
636.114	14820.3
636.308	14574.54
636.501	14656.46
636.695	14750.67
636.889	14349.26
637.083	14461.9
637.276	14083.03
637.47	14463.95
637.664	14265.3
637.857	14001.11
638.051	14191.57
638.244	13964.25
638.438	13808.6
638.632	13757.4
638.825	13677.53
639.019	13781.98
639.212	13655
639.406	13757.4
639.599	13595.61
639.793	13587.42
639.986	13087.71
640.18	13429.73
640.373	13345.76
640.567	13128.67
640.76	12985.32
640.954	12960.74
641.147	13022.18
641.34	12954.6
641.534	12927.97
641.727	12676.07
641.92	13052.9
642.114	12633.07
642.307	12573.67
642.5	12352.49
642.694	12305.39
642.887	12461.04
643.08	12526.57
643.273	12393.45
643.467	12026.87
643.66	12010.48
643.853	11973.62
644.046	11922.42
644.239	11850.74
644.432	11928.56
644.626	11787.25
644.819	11813.88
645.012	11570.17
645.205	11955.19
645.398	11647.99
645.591	11721.72
645.784	11432.96
645.977	11226.11
646.17	11469.82
646.363	11174.91
646.556	10992.64
646.749	11027.46
646.942	11187.2
647.135	11017.22
647.328	11013.12
647.521	10894.34
647.714	10953.73
647.907	10787.85
648.099	10537.99
648.292	10806.28
648.485	10537.99
648.678	10494.99
648.871	10589.19
649.064	10331.15
649.256	10564.62
649.449	10216.46
649.642	10417.16
649.835	10003.47
650.027	10152.98
650.22	10200.08
650.413	10109.97
650.605	10066.96
650.798	9962.51
650.991	9757.72
651.183	9827.35
651.376	9737.24
651.568	9765.91
651.761	9671.7
651.954	9759.77
652.146	9563.16
652.339	9595.93
652.531	9442.33
652.724	9507.87
652.916	9204.77
653.109	9442.33
653.301	9325.6
653.494	9481.24
653.686	9053.22
653.879	9446.43
654.071	9153.57
654.263	8873
654.456	9110.56
654.648	9225.25
654.84	8985.63
655.033	8885.28
655.225	8977.44
655.417	8725.54
655.61	8987.68
655.802	8905.76
655.994	8598.57
656.186	8905.76
656.379	8639.53
656.571	8473.64
656.763	8492.07
656.955	8416.3
657.148	8490.03
657.34	8520.74
657.532	8451.11
657.724	8315.95
657.916	8051.76
658.108	8231.98
658.3	8051.76
658.492	8234.03
658.684	8090.67
658.876	8186.93
659.068	8242.22
659.26	7971.89
659.452	8049.71
659.644	7806
659.836	7857.2
660.028	7883.83
660.22	7498.81
660.412	7824.44
660.604	7734.32
660.796	7687.22
660.988	7564.34
661.18	7578.68
661.372	7570.49
661.563	7586.87
661.755	7556.15
661.947	7361.59
662.139	7365.69
662.331	7425.08
662.522	7136.32
662.714	7330.87
662.906	7152.7
663.097	7242.81
663.289	7126.08
663.481	6999.1
663.673	7087.17
663.864	7097.41
664.056	6868.03
664.247	7066.69
664.439	6868.03
664.631	7150.65
664.822	6853.7
665.014	6984.77
665.205	6765.64
665.397	6865.99
665.588	6736.96
665.78	6685.76
665.971	6579.27
666.163	6894.66
666.354	6638.66
666.546	6505.54
666.737	6440.01
666.929	6558.79
667.12	6464.58
667.311	6321.23
667.503	6407.24
667.694	6298.7
667.885	6386.76
668.077	6321.23
668.268	6349.9
668.459	6267.98
668.651	6198.35
668.842	6368.33
669.033	6181.96
669.224	6194.25
669.416	6173.77
669.607	6116.43
669.798	5956.69
669.989	5997.65
670.18	6165.58
670.371	6036.56
670.563	5954.64
670.754	6059.09
670.945	5743.7
671.136	5960.78
671.327	5837.91
671.518	5682.26
671.709	5741.65
671.9	5776.47
672.091	5801.04
672.282	5612.63
672.473	5839.95
672.664	5698.64
672.855	5717.08
673.046	5647.44
673.237	5604.44
673.428	5547.09
673.619	5596.25
673.809	5559.38
674	5686.36
674.191	5639.25
674.382	5487.7
674.573	5411.93
674.764	5514.33
674.954	5629.01
675.145	5274.71
675.336	5334.11
675.527	5164.12
675.717	5407.83
675.908	5330.01
676.099	5297.24
676.289	5317.72
676.48	5196.89
676.671	5033.05
676.861	5233.75
677.052	5155.93
677.243	5028.96
677.433	5198.94
677.624	5147.74
677.814	5190.75
678.005	5039.2
678.195	5225.56
678.386	5172.32
678.576	4764.77
678.767	4981.85
678.957	4949.09
679.148	4975.71
679.338	4977.76
679.529	4992.09
679.719	4883.55
679.909	5006.43
680.1	5010.53
680.29	4867.17
680.481	4744.29
680.671	4873.31
680.861	4936.8
681.052	4834.4
681.242	4891.74
681.432	4842.59
681.622	4842.59
681.813	4658.28
682.003	4822.11
682.193	4844.64
682.383	4887.65
682.573	4674.66
682.764	4748.39
682.954	4637.8
683.144	4566.12
683.334	4617.32
683.524	4719.71
683.714	4531.3
683.904	4699.23
684.094	4584.55
684.284	4514.92
684.474	4631.65
684.664	4551.78
684.854	4598.88
685.044	4514.92
685.234	4416.62
685.424	4480.1
685.614	4289.64
685.804	4367.46
685.994	4289.64
686.184	4459.62
686.374	4375.66
686.564	4322.41
686.753	4324.46
686.943	4318.31
687.133	4263.02
687.323	4254.83
687.513	4416.62
687.702	4275.31
687.892	4121.71
688.082	4293.74
688.272	4138.09
688.461	4269.16
688.651	4097.13
688.841	4158.57
689.03	4082.8
689.22	4283.5
689.41	4060.27
689.599	4027.5
689.789	4086.89
689.979	4047.98
690.168	4017.26
690.358	4031.6
690.547	4002.93
690.737	3896.43
690.926	3933.29
691.116	3849.33
691.305	4088.94
691.495	3816.56
691.684	3867.76
691.874	3800.18
692.063	3802.22
692.252	3818.61
692.442	3853.42
692.631	3609.72
692.82	3828.85
693.01	3781.74
693.199	3695.73
693.388	3556.47
693.578	3597.43
693.767	3708.02
693.956	3665.01
694.146	3593.33
694.335	3622
694.524	3654.77
694.713	3515.51
694.902	3460.21
695.092	3425.4
695.281	3556.47
695.47	3540.08
695.659	3460.21
695.848	3425.4
696.037	3486.84
696.226	3499.13
696.415	3482.74
696.604	3593.33
696.793	3445.88
696.982	3396.73
697.171	3554.42
697.36	3310.71
697.549	3474.55
697.738	3402.87
697.927	3337.34
698.116	3417.21
698.305	3357.82
698.494	3269.75
698.683	3304.57
698.872	3402.87
699.061	3351.67
699.25	3404.92
699.438	3343.48
699.627	3243.13
699.816	3302.52
700.005	3187.83
700.193	3198.07
700.382	3421.3
700.571	3345.53
700.76	3292.28
700.948	3261.56
701.137	3146.87
701.326	3277.94
701.514	3298.42
701.703	3034.24
701.892	3308.66
702.08	3212.41
702.269	3124.35
702.457	3161.21
702.646	3171.45
702.834	3114.11
703.023	3138.68
703.212	2950.27
703.4	2978.94
703.589	3171.45
703.777	3044.48
703.965	3036.28
704.154	3036.28
704.342	3187.83
704.531	3056.76
704.719	3060.86
704.907	3081.34
705.096	3040.38
705.284	3114.11
705.472	3034.24
705.661	3144.83
705.849	3101.82
706.037	2985.09
706.226	2909.31
706.414	2962.56
706.602	2995.32
706.79	3024
706.979	3007.61
707.167	3007.61
707.355	3097.72
707.543	2913.41
707.731	2968.7
707.919	2999.42
708.107	2966.65
708.296	3001.47
708.484	2847.87
708.672	2933.89
708.86	2886.78
709.048	2937.98
709.236	2956.41
709.424	2921.6
709.612	2993.28
709.8	2856.06
709.988	2880.64
710.176	2933.89
710.364	2837.63
710.551	2849.92
710.739	2724.99
710.927	2946.17
711.115	2860.16
711.303	2935.93
711.491	2835.58
711.679	2765.95
711.866	2720.9
712.054	2854.02
712.242	2743.42
712.43	2798.72
712.617	2813.06
712.805	2802.82
712.993	2870.4
713.181	2788.48
713.368	2856.06
713.556	2759.81
713.744	2753.66
713.931	2763.9
714.119	2774.14
714.306	2712.71
714.494	2722.95
714.682	2622.59
714.869	2638.98
715.057	2778.24
715.244	2749.57
715.432	2786.43
715.619	2761.86
715.807	2557.06
715.994	2608.26
716.182	2763.9
716.369	2665.6
716.556	2698.37
716.744	2659.46
716.931	2598.02
717.119	2714.75
717.306	2718.85
717.493	2589.83
717.681	2630.79
717.868	2647.17
718.055	2673.79
718.242	2655.36
718.43	2696.32
718.617	2649.22
718.804	2704.51
718.991	2679.94
719.179	2679.94
719.366	2626.69
719.553	2643.07
719.74	2579.59
719.927	2616.45
720.114	2491.52
720.301	2534.53
720.488	2575.49
720.676	2563.2
720.863	2598.02
721.05	2542.72
721.237	2534.53
721.424	2475.14
721.611	2577.54
721.798	2548.87
721.985	2466.95
722.172	2423.94
722.358	2438.28
722.545	2505.86
722.732	2509.96
722.919	2530.44
723.106	2471.04
723.293	2475.14
723.48	2552.96
723.667	2466.95
723.853	2583.68
724.04	2358.41
724.227	2466.95
724.414	2544.77
724.6	2393.22
724.787	2475.14
724.974	2442.37
725.161	2389.13
725.347	2348.17
725.534	2477.19
725.72	2509.96
725.907	2385.03
726.094	2499.72
726.28	2346.12
726.467	2503.81
726.653	2303.11
726.84	2446.47
727.027	2436.23
727.213	2452.61
727.4	2448.52
727.586	2491.52
727.773	2344.07
727.959	2305.16
728.145	2270.34
728.332	2403.46
728.518	2389.13
728.705	2339.97
728.891	2370.69
729.077	2454.66
729.264	2401.41
729.45	2292.87
729.636	2380.93
729.823	2249.86
730.009	2405.51
730.195	2442.37
730.382	2272.39
730.568	2354.31
730.754	2335.88
730.94	2286.73
731.126	2370.69
731.313	2327.69
731.499	2303.11
731.685	2303.11
731.871	2266.25
732.057	2362.5
732.243	2337.93
732.429	2243.72
732.615	2241.67
732.801	2344.07
732.987	2315.4
733.173	2413.7
733.359	2256.01
733.545	2204.81
733.731	2319.5
733.917	2323.59
734.103	2346.12
734.289	2319.5
734.475	2159.75
734.661	2296.97
734.847	2253.96
735.033	2196.62
735.219	2106.51
735.404	2204.81
735.59	2284.68
735.776	2239.62
735.962	2253.96
736.148	2262.15
736.333	2235.53
736.519	2223.24
736.705	2217.1
736.89	2206.86
737.076	2129.03
737.262	2081.93
737.447	2153.61
737.633	2149.51
737.819	2174.09
738.004	2100.36
738.19	2223.24
738.375	2100.36
738.561	2239.62
738.747	2098.31
738.932	2184.33
739.118	2210.95
739.303	2133.13
739.489	2067.6
739.674	2081.93
739.859	2100.36
740.045	2075.79
740.23	2161.8
740.416	2026.64
740.601	2004.11
740.786	2159.75
740.972	2016.4
741.157	2083.98
741.342	2151.56
741.528	2024.59
741.713	1954.96
741.898	1969.29
742.084	2032.78
742.269	1930.38
742.454	1977.48
742.639	2002.06
742.824	1903.76
743.01	1993.87
743.195	1901.71
743.38	2008.2
743.565	1967.24
743.75	1930.38
743.935	1895.57
744.12	1967.24
744.305	1821.84
744.49	1954.96
744.675	1903.76
744.86	1842.32
745.045	1950.86
745.23	1885.33
745.415	1834.13
745.6	1936.53
745.785	1809.55
745.97	1926.29
746.155	1746.06
746.34	1809.55
746.525	1830.03
746.71	1860.75
746.895	1768.59
747.079	1684.62
747.264	1733.78
747.449	1690.77
747.634	1729.68
747.819	1881.23
748.003	1719.44
748.188	1733.78
748.373	1729.68
748.557	1813.65
748.742	1639.57
748.927	1696.91
749.111	1621.14
749.296	1762.45
749.481	1688.72
749.665	1545.36
749.85	1567.89
750.034	1475.73
750.219	1608.85
750.404	1520.79
750.588	1574.03
750.773	1537.17
750.957	1543.32
751.141	1565.84
751.326	1617.04
751.51	1508.5
751.695	1516.69
751.879	1473.68
752.064	1528.98
752.248	1520.79
752.432	1475.73
752.617	1490.07
752.801	1426.58
752.985	1467.54
753.17	1475.73
753.354	1434.77
753.538	1451.16
753.722	1488.02
753.907	1338.52
754.091	1422.48
754.275	1303.7
754.459	1340.57
754.643	1389.72
754.828	1363.09
755.012	1246.36
755.196	1381.53
755.38	1326.23
755.564	1340.57
755.748	1313.94
755.932	1141.91
756.116	1326.23
756.3	1244.31
756.484	1176.73
756.668	1264.79
756.852	1225.88
757.036	1242.26
757.22	1250.46
757.404	1189.02
757.588	1287.32
757.772	1232.02
757.956	1189.02
758.14	1189.02
758.323	1139.87
758.507	1232.02
758.691	1059.99
758.875	1074.33
759.059	1199.26
759.242	1125.53
759.426	1025.18
759.61	1103
759.794	1172.63
759.977	1158.3
760.161	1059.99
760.345	1127.58
760.528	1148.06
760.712	1027.23
760.895	1103
761.079	1012.89
761.263	945.31
761.446	963.74
761.63	1098.91
761.813	1033.37
761.997	1035.42
762.18	1051.8
762.364	976.03
762.547	871.58
762.731	1057.95
762.914	1029.27
763.098	1070.23
763.281	939.16
763.464	1000.6
763.648	1041.56
763.831	930.97
764.015	978.08
764.198	1043.61
764.381	912.54
764.564	949.4
764.748	1000.6
764.931	1004.7
765.114	992.41
765.297	918.68
765.481	910.49
765.664	951.45
765.847	908.44
766.03	885.92
766.213	894.11
766.397	887.97
766.58	920.73
766.763	1033.37
766.946	918.68
767.129	855.2
767.312	953.5
767.495	910.49
767.678	916.64
767.861	894.11
768.044	881.82
768.227	943.26
768.41	869.53
768.593	912.54
768.776	879.77
768.959	890.01
769.142	826.53
769.324	877.73
769.507	865.44
769.69	840.86
769.873	861.34
770.056	902.3
770.239	840.86
770.421	861.34
770.604	783.52
770.787	840.86
770.97	871.58
771.152	781.47
771.335	828.57
771.518	806.05
771.7	767.13
771.883	836.77
772.066	760.99
772.248	812.19
772.431	779.42
772.613	732.32
772.796	771.23
772.978	787.61
773.161	748.7
773.343	715.94
773.526	730.27
773.708	709.79
773.891	668.83
774.073	679.07
774.256	722.08
774.438	760.99
774.621	754.85
774.803	687.26
774.985	701.6
775.168	806.05
775.35	664.74
775.532	666.78
775.715	726.18
775.897	707.74
776.079	644.26
776.261	740.51
776.444	726.18
776.626	691.36
776.808	597.15
776.99	640.16
777.173	574.63
777.355	586.91
777.537	664.74
777.719	502.95
777.901	652.45
778.083	586.91
778.265	599.2
778.447	629.92
778.629	691.36
778.811	705.7
778.993	623.78
779.175	623.78
779.357	550.05
779.539	533.67
779.721	578.72
779.903	574.63
780.085	529.57
780.267	525.47
780.449	554.15
780.631	615.59
780.812	588.96
780.994	582.82
781.176	545.95
781.358	580.77
781.54	535.71
781.721	603.3
781.903	468.13
782.085	480.42
782.267	478.37
782.448	470.18
782.63	545.95
782.812	509.09
782.993	447.65
783.175	541.86
783.357	500.9
783.538	576.67
783.72	466.08
783.901	513.19
784.083	404.64
784.264	461.99
784.446	447.65
784.627	459.94
784.809	484.52
784.99	445.6
785.172	556.19
785.353	445.6
785.535	435.36
785.716	378.02
785.897	390.31
786.079	447.65
786.26	453.8
786.441	474.28
786.623	451.75
786.804	378.02
786.985	388.26
787.167	402.6
787.348	330.92
787.529	427.17
787.71	468.13
787.891	398.5
788.073	390.31
788.254	400.55
788.435	390.31
788.616	443.56
788.797	412.84
788.978	332.97
789.159	361.64
789.34	445.6
789.522	386.21
789.703	355.49
789.884	408.74
790.065	404.64
790.246	431.27
790.427	355.49
790.607	371.88
790.788	404.64
790.969	341.16
791.15	357.54
791.331	347.3
791.512	388.26
791.693	304.29
791.874	263.33
792.054	412.84
792.235	431.27
792.416	287.91
792.597	312.49
792.778	324.77
792.958	369.83
793.139	353.45
793.32	324.77
793.5	292.01
793.681	289.96
793.862	357.54
794.042	287.91
794.223	285.86
794.404	330.92
794.584	267.43
794.765	316.58
794.945	308.39
795.126	263.33
795.306	355.49
795.487	214.18
795.667	230.57
795.848	263.33
796.028	300.2
796.209	195.75
796.389	363.69
796.57	271.53
796.75	292.01
796.93	230.57
797.111	195.75
797.291	332.97
797.471	234.66
797.652	275.62
797.832	285.86
798.012	279.72
798.192	320.68
798.373	169.13
798.553	238.76
798.733	244.9
798.913	275.62
799.093	246.95
799.274	277.67
799.454	300.2
799.634	246.95
799.814	273.57
799.994	265.38
800.174	312.49
800.354	201.9
800.534	191.66
800.714	330.92
800.894	191.66
801.074	267.43
801.254	173.22
801.434	292.01
801.614	308.39
801.794	238.76
801.974	760.99
802.154	199.85
802.334	281.77
802.514	230.57
802.693	242.85
802.873	242.85
803.053	210.09
803.233	208.04
803.413	210.09
803.592	167.08
803.772	216.23
803.952	203.94
804.131	214.18
804.311	189.61
804.491	212.14
804.67	197.8
804.85	148.65
805.03	285.86
805.209	214.18
805.389	232.62
805.568	144.55
805.748	173.22
805.928	199.85
806.107	242.85
806.287	304.29
806.466	205.99
806.646	232.62
806.825	181.42
807.004	140.46
807.184	146.6
807.363	173.22
807.543	197.8
807.722	115.88
807.901	240.81
808.081	140.46
808.26	97.45
808.439	203.94
808.619	199.85
808.798	214.18
808.977	193.7
809.156	150.7
809.336	181.42
809.515	148.65
809.694	119.98
809.873	105.64
810.052	240.81
810.231	205.99
810.411	175.27
810.59	197.8
810.769	193.7
810.948	189.61
811.127	154.79
811.306	205.99
811.485	58.54
811.664	222.38
811.843	156.84
812.022	109.74
812.201	144.55
812.38	109.74
812.559	152.74
812.737	144.55
812.916	111.78
813.095	138.41
813.274	107.69
813.453	111.78
813.632	117.93
813.811	160.94
813.989	60.59
814.168	124.07
814.347	87.21
814.526	99.5
814.704	257.19
814.883	109.74
815.062	99.5
815.24	224.42
815.419	117.93
815.598	138.41
815.776	148.65
815.955	122.02
816.133	105.64
816.312	107.69
816.49	134.31
816.669	195.75
816.847	144.55
817.026	140.46
817.204	146.6
817.383	89.26
817.561	148.65
817.74	152.74
817.918	115.88
818.097	76.97
818.275	136.36
818.453	85.16
818.632	189.61
818.81	111.78
818.988	91.31
819.167	83.11
819.345	99.5
819.523	99.5
819.701	97.45
819.879	124.07
820.058	126.12
820.236	93.35
820.414	38.06
820.592	142.5
820.77	95.4
820.948	109.74
821.127	60.59
821.305	171.18
821.483	60.59
821.661	132.26
821.839	132.26
822.017	29.87
822.195	111.78
822.373	169.13
822.551	109.74
822.729	91.31
822.907	103.59
823.085	107.69
823.262	115.88
823.44	58.54
823.618	89.26
823.796	140.46
823.974	122.02
824.152	42.15
824.329	148.65
824.507	169.13
824.685	136.36
824.863	33.96
825.04	76.97
825.218	74.92
825.396	72.87
825.574	83.11
825.751	128.17
825.929	62.63
826.107	83.11
826.284	115.88
826.462	46.25
826.639	36.01
826.817	99.5
826.994	93.35
827.172	70.83
827.349	214.18
827.527	50.35
827.704	117.93
827.882	111.78
828.059	66.73
828.237	46.25
828.414	134.31
828.591	17.58
828.769	58.54
828.946	46.25
829.124	119.98
829.301	99.5
829.478	56.49
829.655	158.89
829.833	144.55
830.01	50.35
830.187	-35.67
830.364	111.78
830.542	-15.19
830.719	99.5
830.896	111.78
831.073	83.11
831.25	87.21
831.427	101.55
831.604	33.96
831.782	83.11
831.959	27.82
832.136	50.35
832.313	66.73
832.49	60.59
832.667	46.25
832.844	103.59
833.021	107.69
833.198	91.31
833.374	5.29
833.551	50.35
833.728	60.59
833.905	58.54
834.082	93.35
834.259	58.54
834.436	83.11
834.612	15.53
834.789	124.07
834.966	46.25
835.143	97.45
835.319	-0.85
835.496	66.73
835.673	103.59
835.85	83.11
836.026	31.91
836.203	111.78
836.38	91.31
836.556	46.25
836.733	-7
836.909	38.06
837.086	9.39
837.262	33.96
837.439	-50
837.616	42.15
837.792	29.87
837.968	95.4
838.145	132.26
838.321	58.54
838.498	33.96
838.674	111.78
838.851	76.97
839.027	83.11
839.203	64.68
839.38	171.18
839.556	50.35
839.732	44.2
839.909	33.96
840.085	79.02
840.261	54.44
840.437	66.73
840.614	11.43
840.79	46.25
840.966	52.39
841.142	66.73
841.318	-52.05
841.494	93.35
841.671	38.06
841.847	72.87
842.023	33.96
842.199	83.11
842.375	113.83
842.551	40.11
842.727	-15.19
842.903	148.65
843.079	5.29
843.255	54.44
843.431	113.83
843.607	99.5
843.783	13.48
843.959	99.5
844.134	17.58
844.31	58.54
844.486	19.63
844.662	9.39
844.838	124.07
845.013	-2.9
845.189	29.87
845.365	58.54
845.541	19.63
845.716	25.77
845.892	83.11
846.068	19.63
846.244	36.01
846.419	44.2
846.595	-17.24
846.77	52.39
846.946	85.16
847.122	36.01
847.297	38.06
847.473	119.98
847.648	-2.9
847.824	58.54
847.999	-0.85
848.175	-4.95
848.35	29.87
848.526	62.63
848.701	60.59
848.876	50.35
849.052	58.54
849.227	148.65
849.403	-11.09
849.578	52.39
849.753	66.73
849.929	52.39
850.104	19.63
850.279	40.11
850.454	23.72
850.63	79.02
850.805	13.48
850.98	-7
851.155	72.87
851.33	74.92
851.505	-2.9
851.681	42.15
851.856	-37.72
852.031	74.92
852.206	76.97
852.381	85.16
852.556	25.77
852.731	29.87
852.906	17.58
853.081	17.58
853.256	44.2
853.431	74.92
853.606	17.58
853.781	25.77
853.956	-39.76
854.131	21.67
854.305	-2.9
854.48	33.96
854.655	42.15
854.83	62.63
855.005	-31.57
855.18	25.77
855.354	3.24
855.529	54.44
855.704	13.48
855.879	109.74
856.053	-2.9
856.228	38.06
856.403	-21.33
856.577	33.96
856.752	27.82
856.926	17.58
857.101	25.77
857.276	-15.19
857.45	46.25
857.625	97.45
857.799	11.43
857.974	101.55
858.148	13.48
858.323	105.64
858.497	-0.85
858.672	-13.14
858.846	-0.85
859.02	33.96
859.195	27.82
859.369	1.19
859.543	-2.9
859.718	-17.24
859.892	74.92
860.066	5.29
860.241	17.58
860.415	-27.48
860.589	-47.96
860.763	19.63
860.938	74.92
861.112	46.25
861.286	91.31
861.46	54.44
861.634	31.91
861.808	29.87
861.982	38.06
862.157	-15.19
862.331	-7
862.505	-4.95
862.679	17.58
862.853	64.68
863.027	89.26
863.201	66.73
863.375	3.24
863.549	1.19
863.722	99.5
863.896	103.59
864.07	9.39
864.244	58.54
864.418	3.24
864.592	56.49
864.766	36.01
864.939	42.15
865.113	40.11
865.287	-13.14
865.461	-27.48
865.634	-15.19
865.808	-2.9
865.982	19.63
866.156	52.39
866.329	-7
866.503	-17.24
866.676	103.59
866.85	29.87
867.024	-0.85
867.197	91.31
867.371	42.15
867.544	-9.05
867.718	42.15
867.891	23.72
868.065	9.39
868.238	27.82
868.412	15.53
868.585	-17.24
868.759	-2.9
868.932	-2.9
869.105	-29.52
869.279	11.43
869.452	44.2
869.625	-31.57
869.799	17.58
869.972	-25.43
870.145	-15.19
870.319	44.2
870.492	68.78
870.665	68.78
870.838	-41.81
871.011	13.48
871.185	-15.19
871.358	9.39
871.531	66.73
871.704	-4.95
871.877	5.29
872.05	44.2
872.223	-62.29
872.396	11.43
872.569	11.43
872.742	-80.72
872.915	1.19
873.088	40.11
873.261	74.92
873.434	-15.19
873.607	-4.95
873.78	44.2
873.953	-4.95
874.126	11.43
874.299	17.58
874.471	46.25
874.644	42.15
874.817	62.63
874.99	-47.96
875.163	-4.95
875.335	-9.05
875.508	21.67
875.681	48.3
875.853	-7
876.026	-21.33
876.199	13.48
876.371	33.96
876.544	17.58
876.717	87.21
876.889	9.39
877.062	23.72
877.234	11.43
877.407	-9.05
877.579	-56.15
877.752	25.77
877.924	-31.57
878.097	58.54
878.269	5.29
878.442	19.63
878.614	38.06
878.786	101.55
878.959	25.77
879.131	46.25
879.303	-74.58
879.476	19.63
879.648	13.48
879.82	-0.85
879.993	76.97
880.165	25.77
880.337	38.06
880.509	74.92
880.681	-13.14
880.854	-43.86
881.026	1.19
881.198	83.11
881.37	1.19
881.542	-0.85
881.714	56.49
881.886	5.29
882.058	83.11
882.23	46.25
882.402	-41.81
882.574	85.16
882.746	58.54
882.918	46.25
883.09	-41.81
883.262	-29.52
883.434	-31.57
883.606	-21.33
883.778	23.72
883.95	50.35
884.122	-7
884.293	-50
884.465	15.53
884.637	70.83
884.809	-35.67
884.98	83.11
885.152	13.48
885.324	3.24
885.496	-11.09
885.667	60.59
885.839	25.77
886.011	11.43
886.182	-4.95
886.354	1.19
886.525	33.96
886.697	54.44
886.869	25.77
887.04	5.29
887.212	38.06
887.383	23.72
887.555	54.44
887.726	-29.52
887.897	-43.86
888.069	-23.38
888.24	-58.2
888.412	-29.52
888.583	42.15
888.754	58.54
888.926	5.29
889.097	19.63
889.268	9.39
889.44	19.63
889.611	-45.91
889.782	-58.2
889.953	-23.38
890.125	62.63
890.296	-39.76
890.467	46.25
890.638	-54.1
890.809	9.39
890.98	52.39
891.151	58.54
891.323	68.78
891.494	-29.52
891.665	124.07
891.836	9.39
892.007	1.19
892.178	-31.57
892.349	60.59
892.52	-56.15
892.691	-29.52
892.862	-11.09
893.032	-7
893.203	38.06
893.374	-52.05
893.545	66.73
893.716	-39.76
893.887	-37.72
894.057	-9.05
894.228	-15.19
894.399	-50
894.57	11.43
894.74	-29.52
894.911	-76.63
895.082	-62.29
895.253	40.11
895.423	21.67
895.594	17.58
895.764	-23.38
895.935	1.19
896.106	-11.09
896.276	-39.76
896.447	-15.19
896.617	-17.24
896.788	7.34
896.958	62.63
897.129	5.29
897.299	-39.76
897.47	-23.38
897.64	74.92
897.81	9.39
897.981	-7
898.151	-70.48
898.322	11.43
898.492	-66.39
898.662	-64.34
898.832	-21.33
899.003	-11.09
899.173	79.02
899.343	-17.24
899.513	-66.39
