Data from USB4F104151__3__14-15-54-485.txt Node

Date: Thu Mar 13 14:15:54 EDT 2025
User: louis
Spectrometer: USB4F10415
Trigger mode: 4
Integration Time (sec): 2.000000E-2
Scans to average: 1
Electric dark correction enabled: true
Nonlinearity correction enabled: false
Boxcar width: 0
XAxis mode: Wavelengths
Number of Pixels in Spectrum: 3648
>>>>>Begin Spectral Data<<<<<
178.204	-88.06
178.424	-88.06
178.644	-88.06
178.864	-65.53
179.084	-73.73
179.304	-12.29
179.524	-20.48
179.744	12.29
179.964	32.77
180.184	106.49
180.404	16.38
180.624	-32.77
180.844	-16.38
181.064	-34.82
181.283	-30.72
181.503	-28.67
181.723	8.19
181.943	14.34
182.163	22.53
182.383	12.29
182.602	40.96
182.822	47.1
183.042	26.62
183.262	114.69
183.482	45.06
183.701	45.06
183.921	57.34
184.141	-24.58
184.361	63.49
184.58	-16.38
184.8	-22.53
185.02	22.53
185.239	10.24
185.459	6.14
185.679	65.54
185.898	-16.38
186.118	40.96
186.338	36.86
186.557	45.06
186.777	-4.1
186.997	57.34
187.216	49.15
187.436	57.34
187.655	-2.05
187.875	-49.15
188.095	57.34
188.314	79.87
188.534	12.29
188.753	-47.1
188.973	-53.25
189.192	49.15
189.412	-59.39
189.631	38.91
189.851	32.77
190.07	69.63
190.29	-86.01
190.509	51.2
190.729	-65.53
190.948	12.29
191.168	90.11
191.387	36.86
191.607	36.86
191.826	2.05
192.045	-32.77
192.265	-26.62
192.484	18.43
192.704	4.1
192.923	8.19
193.142	100.35
193.362	69.63
193.581	75.77
193.8	-4.1
194.02	77.82
194.239	-14.34
194.458	67.58
194.678	-34.82
194.897	16.38
195.116	59.39
195.335	83.97
195.555	-36.86
195.774	12.29
195.993	-26.62
196.212	34.82
196.432	20.48
196.651	-16.38
196.87	14.34
197.089	51.2
197.308	86.01
197.528	-16.38
197.747	-6.14
197.966	26.62
198.185	69.63
198.404	81.92
198.623	-8.19
198.842	0
199.062	104.45
199.281	98.3
199.5	24.58
199.719	61.44
199.938	53.25
200.157	59.39
200.376	24.58
200.595	8.19
200.814	-32.77
201.033	16.38
201.252	4.1
201.471	-8.19
201.69	8.19
201.909	32.77
202.128	24.58
202.347	34.82
202.566	22.53
202.785	-40.96
203.004	18.43
203.223	40.96
203.442	8.19
203.661	57.34
203.879	32.77
204.098	94.21
204.317	-32.77
204.536	59.39
204.755	-30.72
204.974	22.53
205.193	18.43
205.411	57.34
205.63	-10.24
205.849	57.34
206.068	22.53
206.287	36.86
206.505	49.15
206.724	-65.53
206.943	16.38
207.162	2.05
207.381	8.19
207.599	79.87
207.818	36.86
208.037	20.48
208.255	6.14
208.474	49.15
208.693	38.91
208.911	-63.49
209.13	-8.19
209.349	45.06
209.567	69.63
209.786	34.82
210.005	94.21
210.223	-20.48
210.442	-75.77
210.661	-8.19
210.879	32.77
211.098	49.15
211.316	55.3
211.535	43.01
211.753	2.05
211.972	-24.58
212.191	-4.1
212.409	16.38
212.628	8.19
212.846	57.34
213.065	45.06
213.283	100.35
213.502	-8.19
213.72	14.34
213.938	26.62
214.157	36.86
214.375	-12.29
214.594	-32.77
214.812	24.58
215.031	-26.62
215.249	8.19
215.467	-20.48
215.686	20.48
215.904	24.58
216.122	10.24
216.341	98.3
216.559	51.2
216.778	-20.48
216.996	36.86
217.214	67.58
217.432	32.77
217.651	-40.96
217.869	2.05
218.087	12.29
218.306	-12.29
218.524	59.39
218.742	-14.34
218.96	34.82
219.179	-12.29
219.397	36.86
219.615	59.39
219.833	51.2
220.051	-26.62
220.27	-12.29
220.488	57.34
220.706	49.15
220.924	40.96
221.142	73.73
221.36	-24.58
221.578	32.77
221.796	-4.1
222.015	38.91
222.233	0
222.451	75.77
222.669	2.05
222.887	32.77
223.105	-20.48
223.323	81.92
223.541	40.96
223.759	28.67
223.977	81.92
224.195	104.45
224.413	0
224.631	63.49
224.849	8.19
225.067	65.54
225.285	12.29
225.503	32.77
225.721	-30.72
225.939	-4.1
226.157	81.92
226.375	131.07
226.592	-57.34
226.81	16.38
227.028	110.59
227.246	90.11
227.464	-26.62
227.682	36.86
227.9	43.01
228.117	10.24
228.335	96.25
228.553	92.16
228.771	28.67
228.989	65.54
229.206	34.82
229.424	8.19
229.642	61.44
229.86	43.01
230.077	20.48
230.295	69.63
230.513	51.2
230.731	43.01
230.948	75.77
231.166	94.21
231.384	-32.77
231.601	10.24
231.819	45.06
232.037	34.82
232.254	-6.14
232.472	106.49
232.689	-2.05
232.907	16.38
233.125	0
233.342	16.38
233.56	22.53
233.777	-14.34
233.995	49.15
234.213	59.39
234.43	10.24
234.648	65.54
234.865	-26.62
235.083	92.16
235.3	16.38
235.518	65.54
235.735	43.01
235.953	34.82
236.17	49.15
236.388	36.86
236.605	45.06
236.822	57.34
237.04	10.24
237.257	10.24
237.475	47.1
237.692	12.29
237.909	90.11
238.127	61.44
238.344	16.38
238.562	65.54
238.779	-6.14
238.996	-12.29
239.214	-8.19
239.431	-4.1
239.648	36.86
239.865	-8.19
240.083	2.05
240.3	36.86
240.517	18.43
240.735	-14.34
240.952	59.39
241.169	10.24
241.386	-24.58
241.603	-14.34
241.821	67.58
242.038	71.68
242.255	18.43
242.472	16.38
242.689	16.38
242.907	16.38
243.124	-24.58
243.341	36.86
243.558	43.01
243.775	-73.73
243.992	-24.58
244.209	106.49
244.426	65.54
244.643	81.92
244.86	2.05
245.078	24.58
245.295	53.25
245.512	26.62
245.729	8.19
245.946	-24.58
246.163	47.1
246.38	10.24
246.597	-32.77
246.814	10.24
247.031	81.92
247.248	32.77
247.464	6.14
247.681	26.62
247.898	-2.05
248.115	45.06
248.332	-67.58
248.549	20.48
248.766	116.73
248.983	12.29
249.2	34.82
249.417	2.05
249.633	6.14
249.85	149.5
250.067	14.34
250.284	38.91
250.501	24.58
250.717	0
250.934	-6.14
251.151	-40.96
251.368	110.59
251.585	55.3
251.801	-67.58
252.018	-6.14
252.235	45.06
252.451	53.25
252.668	59.39
252.885	14.34
253.102	0
253.318	-12.29
253.535	26.62
253.752	-30.72
253.968	8.19
254.185	40.96
254.401	47.1
254.618	0
254.835	45.06
255.051	53.25
255.268	-14.34
255.484	43.01
255.701	-57.34
255.917	-14.34
256.134	47.1
256.351	43.01
256.567	26.62
256.784	-22.53
257	63.49
257.217	49.15
257.433	40.96
257.65	90.11
257.866	14.34
258.082	-8.19
258.299	-8.19
258.515	51.2
258.732	4.1
258.948	65.54
259.165	-6.14
259.381	26.62
259.597	28.67
259.814	28.67
260.03	10.24
260.246	77.82
260.463	16.38
260.679	65.54
260.895	-28.67
261.112	81.92
261.328	20.48
261.544	-2.05
261.761	73.73
261.977	22.53
262.193	77.82
262.409	43.01
262.626	47.1
262.842	34.82
263.058	-53.25
263.274	16.38
263.49	36.86
263.707	28.67
263.923	69.63
264.139	-18.43
264.355	57.34
264.571	20.48
264.787	-30.72
265.004	90.11
265.22	67.58
265.436	98.3
265.652	34.82
265.868	53.25
266.084	28.67
266.3	10.24
266.516	-32.77
266.732	24.58
266.948	18.43
267.164	75.77
267.38	-14.34
267.596	61.44
267.812	114.69
268.028	108.54
268.244	59.39
268.46	36.86
268.676	45.06
268.892	51.2
269.108	40.96
269.324	-57.34
269.54	2.05
269.756	90.11
269.972	-12.29
270.188	49.15
270.403	-12.29
270.619	49.15
270.835	14.34
271.051	65.54
271.267	0
271.483	65.54
271.698	49.15
271.914	8.19
272.13	10.24
272.346	0
272.562	61.44
272.777	26.62
272.993	-22.53
273.209	65.54
273.425	79.87
273.64	-36.86
273.856	77.82
274.072	-53.25
274.287	67.58
274.503	-2.05
274.719	75.77
274.934	8.19
275.15	22.53
275.366	-4.1
275.581	10.24
275.797	61.44
276.012	24.58
276.228	59.39
276.444	6.14
276.659	36.86
276.875	-4.1
277.09	24.58
277.306	6.14
277.521	61.44
277.737	-40.96
277.952	65.54
278.168	18.43
278.383	38.91
278.599	-8.19
278.814	36.86
279.03	61.44
279.245	-32.77
279.461	-4.1
279.676	12.29
279.892	55.3
280.107	-22.53
280.322	24.58
280.538	65.54
280.753	57.34
280.969	96.25
281.184	10.24
281.399	57.34
281.615	106.49
281.83	-22.53
282.045	-24.58
282.26	57.34
282.476	-14.34
282.691	10.24
282.906	-8.19
283.122	8.19
283.337	38.91
283.552	40.96
283.767	98.3
283.983	-32.77
284.198	20.48
284.413	59.39
284.628	-40.96
284.843	59.39
285.058	24.58
285.274	-12.29
285.489	-12.29
285.704	51.2
285.919	24.58
286.134	49.15
286.349	24.58
286.564	65.54
286.779	-32.77
286.995	16.38
287.21	-22.53
287.425	51.2
287.64	0
287.855	63.49
288.07	49.15
288.285	51.2
288.5	26.62
288.715	45.06
288.93	-8.19
289.145	-20.48
289.36	94.21
289.575	45.06
289.79	-53.25
290.004	49.15
290.219	51.2
290.434	-40.96
290.649	28.67
290.864	26.62
291.079	2.05
291.294	57.34
291.509	108.54
291.724	-22.53
291.938	-12.29
292.153	18.43
292.368	43.01
292.583	28.67
292.798	43.01
293.012	28.67
293.227	-14.34
293.442	32.77
293.657	30.72
293.871	67.58
294.086	32.77
294.301	45.06
294.516	67.58
294.73	-24.58
294.945	-16.38
295.16	24.58
295.374	16.38
295.589	28.67
295.804	-28.67
296.018	-30.72
296.233	51.2
296.447	96.25
296.662	-4.1
296.877	106.49
297.091	47.1
297.306	8.19
297.52	73.73
297.735	51.2
297.949	53.25
298.164	108.54
298.378	92.16
298.593	24.58
298.807	24.58
299.022	6.14
299.236	40.96
299.451	-47.1
299.665	135.17
299.88	-36.86
300.094	28.67
300.309	20.48
300.523	34.82
300.737	71.68
300.952	71.68
301.166	40.96
301.381	10.24
301.595	-10.24
301.809	0
302.024	49.15
302.238	-8.19
302.452	92.16
302.667	28.67
302.881	36.86
303.095	100.35
303.309	38.91
303.524	-49.15
303.738	65.54
303.952	67.58
304.166	49.15
304.381	0
304.595	79.87
304.809	18.43
305.023	81.92
305.237	51.2
305.452	-6.14
305.666	65.54
305.88	69.63
306.094	90.11
306.308	-24.58
306.522	55.3
306.736	34.82
306.95	-30.72
307.164	57.34
307.379	0
307.593	65.54
307.807	67.58
308.021	81.92
308.235	61.44
308.449	34.82
308.663	-51.2
308.877	106.49
309.091	10.24
309.305	73.73
309.519	-24.58
309.733	22.53
309.947	2.05
310.161	43.01
310.374	73.73
310.588	98.3
310.802	12.29
311.016	49.15
311.23	-18.43
311.444	32.77
311.658	22.53
311.872	4.1
312.085	61.44
312.299	73.73
312.513	53.25
312.727	32.77
312.941	28.67
313.154	22.53
313.368	71.68
313.582	59.39
313.796	67.58
314.009	73.73
314.223	67.58
314.437	79.87
314.651	57.34
314.864	34.82
315.078	67.58
315.292	-36.86
315.505	18.43
315.719	61.44
315.933	4.1
316.146	36.86
316.36	57.34
316.573	51.2
316.787	24.58
317.001	69.63
317.214	12.29
317.428	55.3
317.641	-22.53
317.855	8.19
318.068	43.01
318.282	6.14
318.495	81.92
318.709	2.05
318.922	-2.05
319.136	81.92
319.349	8.19
319.563	81.92
319.776	51.2
319.99	2.05
320.203	-6.14
320.417	34.82
320.63	65.54
320.843	32.77
321.057	57.34
321.27	92.16
321.483	-24.58
321.697	83.97
321.91	65.54
322.124	45.06
322.337	61.44
322.55	-20.48
322.763	-22.53
322.977	49.15
323.19	34.82
323.403	16.38
323.617	-4.1
323.83	67.58
324.043	73.73
324.256	24.58
324.469	-10.24
324.683	53.25
324.896	-2.05
325.109	36.86
325.322	-8.19
325.535	55.3
325.748	-24.58
325.962	40.96
326.175	98.3
326.388	-18.43
326.601	4.1
326.814	-16.38
327.027	81.92
327.24	98.3
327.453	4.1
327.666	100.35
327.879	65.54
328.092	92.16
328.305	61.44
328.518	-22.53
328.731	10.24
328.944	90.11
329.157	12.29
329.37	20.48
329.583	92.16
329.796	116.73
330.009	22.53
330.222	40.96
330.435	83.97
330.648	49.15
330.861	51.2
331.073	-16.38
331.286	18.43
331.499	14.34
331.712	-2.05
331.925	-6.14
332.138	-4.1
332.35	59.39
332.563	2.05
332.776	57.34
332.989	-24.58
333.202	90.11
333.414	75.77
333.627	22.53
333.84	20.48
334.053	49.15
334.265	65.54
334.478	40.96
334.691	2.05
334.903	-8.19
335.116	45.06
335.329	0
335.541	55.3
335.754	75.77
335.966	24.58
336.179	2.05
336.392	43.01
336.604	81.92
336.817	12.29
337.029	-6.14
337.242	32.77
337.454	34.82
337.667	45.06
337.88	24.58
338.092	18.43
338.305	26.62
338.517	73.73
338.729	2.05
338.942	34.82
339.154	8.19
339.367	8.19
339.579	61.44
339.792	-104.45
340.004	53.25
340.217	-16.38
340.429	40.96
340.641	18.43
340.854	40.96
341.066	12.29
341.278	59.39
341.491	53.25
341.703	43.01
341.915	0
342.128	16.38
342.34	51.2
342.552	40.96
342.764	0
342.977	65.54
343.189	18.43
343.401	-14.34
343.613	2.05
343.826	133.12
344.038	-8.19
344.25	77.82
344.462	2.05
344.674	20.48
344.886	81.92
345.099	49.15
345.311	90.11
345.523	40.96
345.735	-51.2
345.947	106.49
346.159	0
346.371	90.11
346.583	34.82
346.795	57.34
347.007	57.34
347.219	0
347.431	59.39
347.643	122.88
347.855	30.72
348.067	59.39
348.279	-16.38
348.491	47.1
348.703	20.48
348.915	92.16
349.127	65.54
349.339	24.58
349.551	10.24
349.763	16.38
349.975	8.19
350.187	18.43
350.399	86.01
350.61	122.88
350.822	53.25
351.034	10.24
351.246	0
351.458	94.21
351.669	90.11
351.881	16.38
352.093	40.96
352.305	73.73
352.517	73.73
352.728	98.3
352.94	49.15
353.152	-24.58
353.363	55.3
353.575	98.3
353.787	53.25
353.999	65.54
354.21	71.68
354.422	57.34
354.633	16.38
354.845	110.59
355.057	0
355.268	65.54
355.48	124.93
355.692	12.29
355.903	16.38
356.115	116.73
356.326	-14.34
356.538	12.29
356.749	137.21
356.961	8.19
357.172	8.19
357.384	28.67
357.595	112.64
357.807	32.77
358.018	51.2
358.23	73.73
358.441	57.34
358.653	24.58
358.864	30.72
359.075	88.06
359.287	-14.34
359.498	69.63
359.709	2.05
359.921	90.11
360.132	-32.77
360.344	43.01
360.555	45.06
360.766	65.54
360.977	53.25
361.189	28.67
361.4	10.24
361.611	59.39
361.823	12.29
362.034	10.24
362.245	2.05
362.456	67.58
362.667	96.25
362.879	65.54
363.09	102.4
363.301	81.92
363.512	2.05
363.723	-20.48
363.935	77.82
364.146	16.38
364.357	-45.06
364.568	81.92
364.779	36.86
364.99	75.77
365.201	75.77
365.412	114.69
365.623	-30.72
365.834	28.67
366.045	-28.67
366.256	57.34
366.467	6.14
366.678	0
366.889	-32.77
367.1	18.43
367.311	133.12
367.522	65.54
367.733	20.48
367.944	57.34
368.155	90.11
368.366	51.2
368.577	98.3
368.788	4.1
368.999	-40.96
369.209	73.73
369.42	69.63
369.631	77.82
369.842	28.67
370.053	24.58
370.264	81.92
370.474	43.01
370.685	10.24
370.896	133.12
371.107	114.69
371.317	32.77
371.528	34.82
371.739	16.38
371.95	-8.19
372.16	-24.58
372.371	43.01
372.582	43.01
372.792	43.01
373.003	102.4
373.214	28.67
373.424	63.49
373.635	73.73
373.846	24.58
374.056	-30.72
374.267	90.11
374.477	90.11
374.688	-18.43
374.898	-6.14
375.109	36.86
375.319	108.54
375.53	122.88
375.74	-22.53
375.951	-34.82
376.161	36.86
376.372	59.39
376.582	-81.92
376.793	4.1
377.003	-24.58
377.214	24.58
377.424	40.96
377.635	98.3
377.845	81.92
378.055	81.92
378.266	-59.39
378.476	49.15
378.686	4.1
378.897	18.43
379.107	100.35
379.317	61.44
379.528	83.97
379.738	40.96
379.948	8.19
380.158	59.39
380.369	38.91
380.579	16.38
380.789	-14.34
380.999	73.73
381.21	28.67
381.42	114.69
381.63	0
381.84	131.07
382.05	24.58
382.261	57.34
382.471	65.54
382.681	-10.24
382.891	73.73
383.101	73.73
383.311	110.59
383.521	-12.29
383.731	73.73
383.941	49.15
384.151	77.82
384.361	98.3
384.571	40.96
384.781	83.97
384.991	71.68
385.201	124.93
385.411	75.77
385.621	10.24
385.831	139.26
386.041	34.82
386.251	65.54
386.461	79.87
386.671	-14.34
386.881	0
387.091	49.15
387.301	165.89
387.511	32.77
387.72	49.15
387.93	12.29
388.14	22.53
388.35	24.58
388.56	49.15
388.769	-24.58
388.979	34.82
389.189	-20.48
389.399	24.58
389.609	94.21
389.818	67.58
390.028	14.34
390.238	106.49
390.447	36.86
390.657	49.15
390.867	51.2
391.076	16.38
391.286	55.3
391.496	30.72
391.705	67.58
391.915	81.92
392.125	65.54
392.334	32.77
392.544	108.54
392.753	98.3
392.963	55.3
393.172	83.97
393.382	61.44
393.591	106.49
393.801	63.49
394.01	147.45
394.22	-4.1
394.429	92.16
394.639	100.35
394.848	116.73
395.058	34.82
395.267	129.02
395.477	94.21
395.686	100.35
395.895	96.25
396.105	88.06
396.314	159.74
396.524	79.87
396.733	32.77
396.942	174.08
397.152	129.02
397.361	157.69
397.57	88.06
397.78	124.93
397.989	163.84
398.198	110.59
398.407	120.83
398.617	34.82
398.826	139.26
399.035	94.21
399.244	147.45
399.453	180.22
399.663	75.77
399.872	133.12
400.081	75.77
400.29	155.65
400.499	100.35
400.708	75.77
400.917	151.55
401.127	61.44
401.336	34.82
401.545	94.21
401.754	212.99
401.963	149.5
402.172	55.3
402.381	149.5
402.59	149.5
402.799	131.07
403.008	186.37
403.217	147.45
403.426	104.45
403.635	167.93
403.844	139.26
404.053	139.26
404.262	155.65
404.471	180.22
404.68	157.69
404.888	141.31
405.097	139.26
405.306	112.64
405.515	135.17
405.724	108.54
405.933	126.97
406.142	165.89
406.35	243.71
406.559	147.45
406.768	194.56
406.977	229.37
407.185	215.04
407.394	159.74
407.603	155.65
407.812	253.95
408.02	247.8
408.229	229.37
408.438	245.76
408.646	272.38
408.855	282.62
409.064	253.95
409.272	294.91
409.481	354.3
409.69	258.04
409.898	274.43
410.107	319.48
410.315	321.53
410.524	325.63
410.733	364.54
410.941	370.68
411.15	393.21
411.358	385.02
411.567	421.88
411.775	471.03
411.984	503.8
412.192	405.5
412.401	401.4
412.609	598.01
412.818	577.53
413.026	409.59
413.234	540.66
413.443	544.76
413.651	552.95
413.86	608.25
414.068	696.31
414.276	655.35
414.485	577.53
414.693	598.01
414.901	702.45
415.11	739.32
415.318	772.08
415.526	786.42
415.734	839.67
415.943	858.1
416.151	909.3
416.359	831.48
416.567	890.87
416.776	1028.08
416.984	1064.94
417.192	999.41
417.4	1064.94
417.608	1046.51
417.817	1077.23
418.025	1107.95
418.233	1202.16
418.441	1150.96
418.649	1234.93
418.857	1306.6
419.065	1368.04
419.273	1300.46
419.481	1503.21
419.689	1535.98
419.897	1640.42
420.105	1550.31
420.313	1671.14
420.521	1722.34
420.729	1734.63
420.937	1855.46
421.145	1685.48
421.353	1886.18
421.561	1982.43
421.769	2129.89
421.977	2082.78
422.185	2064.35
422.393	2203.61
422.601	2490.33
422.809	2453.47
423.017	2400.22
423.224	2449.37
423.432	2645.98
423.64	2682.84
423.848	2805.72
424.056	2811.86
424.263	2926.55
424.471	2981.84
424.679	3014.61
424.887	3272.65
425.094	3334.09
425.302	3368.91
425.51	3524.55
425.718	3532.75
425.925	3540.94
426.133	3657.67
426.341	3866.56
426.548	4089.79
426.756	4128.7
426.964	4243.39
427.171	4407.23
427.379	4521.91
427.586	4622.27
427.794	4614.07
428.001	5029.81
428.209	5193.65
428.417	4964.28
428.624	5384.11
428.832	5463.98
429.039	5502.89
429.247	5320.62
429.454	5955.49
429.662	6279.07
429.869	5771.18
430.076	6299.55
430.284	6193.06
430.491	6414.24
430.699	6711.19
430.906	6580.12
431.114	6815.64
431.321	7350.16
431.528	7270.29
431.736	7669.64
431.943	8030.09
432.15	7954.31
432.358	7991.17
432.565	8314.75
432.772	8372.1
432.979	8701.82
433.187	8806.27
433.394	8908.66
433.601	9531.25
433.808	9543.53
434.016	9580.4
434.223	9852.78
434.43	10332
434.637	10268.52
434.844	10831.71
435.052	11071.32
435.259	11032.41
435.466	11224.92
435.673	11278.16
435.88	11669.33
436.087	12189.51
436.294	12285.76
436.501	12044.1
436.708	11839.31
436.915	12570.43
437.122	13356.85
437.329	13100.86
437.537	13752.11
437.743	13748.01
437.95	13741.87
438.157	14278.44
438.364	14858.01
438.571	14796.57
438.778	14733.09
438.985	16203.53
439.192	15648.53
439.399	16135.95
439.606	15683.34
439.813	16959.23
440.02	17743.6
440.227	17563.38
440.433	17309.43
440.64	17751.79
440.847	17540.85
441.054	18054.89
441.261	19295.96
441.467	19490.52
441.674	19259.1
441.881	20070.09
442.088	20244.17
442.294	20195.02
442.501	20297.42
442.708	20739.78
442.914	21370.55
443.121	22597.29
443.328	21939.89
443.534	23664.28
443.741	22644.39
443.948	22392.49
444.154	24069.78
444.361	24018.58
444.568	24284.81
444.774	24155.79
444.981	24346.25
445.187	24940.16
445.394	26185.33
445.6	25867.89
445.807	28274.26
446.013	27164.26
446.22	27582.04
446.426	28700.23
446.633	28778.06
446.839	29972.02
447.046	28370.51
447.252	30254.64
447.459	30228.02
447.665	29664.83
447.871	31288.87
448.078	32656.91
448.284	31094.31
448.491	32413.2
448.697	33490.43
448.903	33795.58
449.11	33844.73
449.316	33367.55
449.522	34078.2
449.728	34997.74
449.935	35419.62
450.141	34866.67
450.347	35792.35
450.553	34549.23
450.76	35196.39
450.966	36361.69
451.172	36068.83
451.378	37049.8
451.584	36355.54
451.791	36689.36
451.997	36992.46
452.203	37289.42
452.409	37195.21
452.615	37406.15
452.821	35913.18
453.027	35343.84
453.233	37363.14
453.44	35958.24
453.646	36437.46
453.852	36435.41
454.058	37021.13
454.264	35745.25
454.47	36711.89
454.676	35597.79
454.882	36959.69
455.088	33617.41
455.294	33920.51
455.5	34768.37
455.705	34719.21
455.911	33699.33
456.117	32648.72
456.323	32677.39
456.529	30996.01
456.735	32409.11
456.941	31591.97
457.147	30905.9
457.352	30088.76
457.558	29855.29
457.764	29664.83
457.97	28933.7
458.176	28698.19
458.381	28472.91
458.587	27203.17
458.793	27033.19
458.999	25597.56
459.204	27635.29
459.41	26930.79
459.616	25173.63
459.821	25073.28
460.027	24970.88
460.233	24311.44
460.438	23381.66
460.644	23930.51
460.85	22716.07
461.055	22261.42
461.261	22154.93
461.466	20278.99
461.672	19613.4
461.878	21423.8
462.083	19965.65
462.289	19611.35
462.494	19216.09
462.7	18294.5
462.905	18102
463.111	18527.97
463.316	18464.49
463.522	18433.77
463.727	18106.09
463.932	18585.32
464.138	18079.47
464.343	18185.96
464.549	17778.42
464.754	18210.54
464.959	18075.37
465.165	17938.16
465.37	17153.79
465.575	16676.61
465.781	17321.72
465.986	17458.93
466.191	16846.59
466.397	16721.66
466.602	16033.55
466.807	16414.47
467.012	16621.31
467.218	16295.69
467.423	16054.03
467.628	16295.69
467.833	16850.69
468.038	16137.99
468.244	15712.02
468.449	16465.67
468.654	15931.15
468.859	15656.72
469.064	15703.82
469.269	15038.23
469.474	15226.65
469.679	15451.92
469.885	14950.17
470.09	15492.88
470.295	14892.83
470.5	14681.89
470.705	14769.95
470.91	14417.7
471.115	14436.13
471.32	14815.01
471.525	14647.07
471.73	14288.68
471.935	14032.68
472.139	13614.9
472.344	13705.01
472.549	13594.42
472.754	13651.76
472.959	13203.25
473.164	12769.09
473.369	12754.75
473.574	13291.32
473.778	13301.56
473.983	13246.26
474.188	12977.98
474.393	12455.75
474.598	12246.85
474.802	12472.13
475.007	12166.98
475.212	12382.02
475.417	11884.36
475.621	11865.93
475.826	11908.94
476.031	11640.65
476.235	11335.51
476.44	11609.93
476.645	11355.99
476.849	11378.51
477.054	11218.77
477.259	10921.82
477.463	11130.71
477.668	10692.44
477.872	11095.89
478.077	10872.67
478.282	10567.52
478.486	10577.76
478.691	10391.39
478.895	10579.81
479.1	10317.67
479.304	10209.12
479.509	10010.47
479.713	10207.08
479.918	9654.12
480.122	9623.41
480.326	10018.66
480.531	9830.25
480.735	9863.02
480.94	9609.07
481.144	10151.78
481.348	9625.45
481.553	9758.57
481.757	9523.05
481.961	9645.93
482.166	9756.52
482.37	9609.07
482.574	9490.29
482.778	9348.98
482.983	9676.65
483.187	9555.82
483.391	9637.74
483.595	9754.48
483.8	9373.55
484.004	9666.41
484.208	9764.72
484.412	9709.42
484.616	9641.84
484.821	9772.91
485.025	9310.07
485.229	9797.48
485.433	9406.32
485.637	9510.77
485.841	9367.41
486.045	9359.22
486.249	9424.75
486.453	9424.75
486.657	9490.29
486.861	9580.4
487.065	9273.2
487.269	9510.77
487.473	9379.7
487.677	9434.99
487.881	9666.41
488.085	9574.25
488.289	9690.99
488.493	9432.94
488.697	9625.45
488.901	9363.31
489.105	9469.81
489.309	9701.23
489.512	9707.37
489.716	9625.45
489.92	9609.07
490.124	9744.24
490.328	9768.81
490.531	9660.27
490.735	9820.01
490.939	9887.59
491.143	9815.91
491.346	9797.48
491.55	9969.51
491.754	9883.5
491.958	10043.24
492.161	9885.55
492.365	9979.75
492.569	10006.38
492.772	9932.65
492.976	10264.42
493.18	10170.21
493.383	10329.95
493.587	10432.35
493.79	10637.15
493.994	10454.88
494.197	10583.9
494.401	10751.84
494.605	10710.88
494.808	10803.04
495.012	10987.35
495.215	10848.09
495.419	10989.4
495.622	11067.22
495.825	11466.58
496.029	11304.79
496.232	11542.35
496.436	11306.84
496.639	11595.6
496.843	11519.82
497.046	12009.29
497.249	11890.51
497.453	11857.74
497.656	12035.91
497.859	12097.35
498.063	12187.46
498.266	12511.04
498.469	12420.93
498.673	12525.38
498.876	12746.56
499.079	12996.41
499.282	12887.87
499.485	13152.06
499.689	13397.81
499.892	13483.83
500.095	13414.2
500.298	13905.71
500.501	13545.27
500.705	14016.3
500.908	14229.29
501.111	14192.42
501.314	14352.17
501.517	14634.78
501.72	14700.32
501.923	14720.8
502.126	14987.04
502.329	15363.86
502.532	15480.6
502.735	15617.81
502.938	15816.46
503.141	16019.21
503.344	16254.73
503.547	16191.24
503.75	16099.08
503.953	16662.27
504.156	17026.81
504.359	16877.31
504.562	17104.63
504.765	17485.56
504.968	17557.24
505.17	17747.7
505.373	17583.86
505.576	18007.79
505.779	18235.11
505.982	18423.53
506.185	18683.62
506.387	18714.34
506.59	18900.7
506.793	19203.8
506.996	19168.99
507.198	19670.74
507.401	19371.74
507.604	20119.24
507.807	20373.19
508.009	20340.43
508.212	20426.44
508.415	20731.59
508.617	20668.1
508.82	21216.96
509.022	21239.48
509.225	21802.68
509.428	22138.54
509.63	21810.87
509.833	21931.7
510.035	22881.95
510.238	22161.07
510.44	22705.83
510.643	23117.47
510.845	23518.87
511.048	23148.19
511.25	23477.91
511.453	23944.85
511.655	24798.85
511.858	24239.76
512.06	24436.36
512.262	24536.71
512.465	24915.59
512.667	25075.33
512.87	25546.36
513.072	25427.58
513.274	25826.93
513.477	26111.6
513.679	26383.98
513.881	26812.01
514.084	26832.49
514.286	26834.53
514.488	27096.67
514.69	27881.05
514.893	27536.99
515.095	27813.46
515.297	28175.95
515.499	28188.24
515.701	28575.31
515.904	28989
516.106	29347.39
516.308	29517.37
516.51	29750.84
516.712	29859.38
516.914	30137.91
517.116	30381.62
517.318	30719.53
517.52	30936.62
517.722	31024.68
517.925	31260.19
518.127	31477.28
518.329	31895.07
518.531	31530.53
518.733	32259.6
518.935	32380.43
519.136	32452.11
519.338	32728.59
519.54	33383.94
519.742	33598.98
519.944	33431.04
520.146	34233.85
520.348	34174.45
520.55	34205.17
520.752	34723.31
520.954	34973.16
521.155	34588.14
521.357	34909.68
521.559	35427.81
521.761	36226.52
521.963	35771.87
522.164	35874.27
522.366	36257.24
522.568	36310.49
522.77	36830.67
522.971	37164.49
523.173	36683.22
523.375	36982.22
523.576	37348.81
523.778	37430.72
523.98	37912
524.181	38061.5
524.383	38049.21
524.584	38792.62
524.786	38458.81
524.988	38208.95
525.189	38786.48
525.391	38788.53
525.592	39089.58
525.794	39263.66
525.995	39546.28
526.197	39155.11
526.398	39409.06
526.6	39843.23
526.801	39935.39
527.003	39843.23
527.204	39779.75
527.406	40418.71
527.607	40111.52
527.808	40531.35
528.01	39812.51
528.211	40369.56
528.412	40992.14
528.614	41072.01
528.815	40963.47
529.016	41039.25
529.218	40521.11
529.419	40717.71
529.62	40764.82
529.822	40961.42
530.023	40998.29
530.224	41022.86
530.425	40922.51
530.626	40758.67
530.828	40932.75
531.029	42063.23
531.23	41393.54
531.431	41569.67
531.632	41399.69
531.833	41784.71
532.035	41485.7
532.236	41999.74
532.437	41893.25
532.638	41139.6
532.839	41809.28
533.04	42046.85
533.241	41624.96
533.442	41835.91
533.643	41307.53
533.844	41676.16
534.045	41485.7
534.246	41112.97
534.447	42106.24
534.648	41952.64
534.849	41829.76
535.05	41469.32
535.251	42016.13
535.451	41473.42
535.652	41989.5
535.853	41676.16
536.054	41883.01
536.255	42243.45
536.456	41301.39
536.657	42114.43
536.857	41403.78
537.058	41194.89
537.259	41751.94
537.46	41569.67
537.66	41481.61
537.861	41782.66
538.062	41299.34
538.263	41809.28
538.463	41325.96
538.664	41567.62
538.865	41166.22
539.065	41756.03
539.266	41264.52
539.466	41688.45
539.667	40791.44
539.868	42145.15
540.068	41178.51
540.269	41579.91
540.469	41555.33
540.67	41446.79
540.87	41473.42
541.071	41262.47
541.271	41676.16
541.472	41330.06
541.672	41244.04
541.873	41076.11
542.073	40873.36
542.274	41350.54
542.474	41508.23
542.675	41176.46
542.875	41422.22
543.075	41430.41
543.276	40816.02
543.476	41383.3
543.676	40957.33
543.877	41254.28
544.077	41528.71
544.277	41123.21
544.478	41037.2
544.678	41166.22
544.878	41203.08
545.078	41131.4
545.279	40414.62
545.479	40777.11
545.679	41053.58
545.879	41069.97
546.079	41088.4
546.28	40949.14
546.48	40807.83
546.68	41117.07
546.88	40930.7
547.08	41223.56
547.28	40775.06
547.48	40408.47
547.68	41110.92
547.88	40451.48
548.081	41155.98
548.281	40783.25
548.481	40457.62
548.681	41254.28
548.881	40830.35
549.081	40861.07
549.28	40844.69
549.48	40500.63
549.68	41104.78
549.88	41340.3
550.08	40664.47
550.28	40840.59
550.48	40959.38
550.68	40828.31
550.88	40482.2
551.08	40508.82
551.279	40826.26
551.479	40512.92
551.679	40478.1
551.879	40861.07
552.079	40748.43
552.278	40662.42
552.478	40504.73
552.678	40795.54
552.878	40904.08
553.077	40687
553.277	40433.05
553.477	41039.25
553.676	40482.2
553.876	40484.25
554.076	40768.91
554.275	40289.69
554.475	39921.05
554.674	40818.07
554.874	40414.62
555.074	40301.98
555.273	40461.72
555.473	40588.69
555.672	40088.99
555.872	40410.52
556.071	40416.66
556.271	40623.51
556.47	40406.42
556.67	40062.36
556.869	40363.42
557.068	39906.72
557.268	40191.39
557.467	40115.61
557.667	40377.75
557.866	40357.27
558.065	40054.17
558.265	39980.45
558.464	39615.91
558.663	40271.26
558.863	39574.95
559.062	40293.79
559.261	39699.87
559.461	40019.36
559.66	39726.5
559.859	39802.27
560.058	39472.55
560.258	39990.69
560.457	39282.09
560.656	39572.9
560.855	39024.04
561.054	39179.69
561.253	39099.82
561.453	39622.05
561.652	39509.41
561.851	39859.62
562.05	39294.38
562.249	39050.67
562.448	39308.71
562.647	38991.28
562.846	39476.65
563.045	39202.22
563.244	38604.21
563.443	39122.35
563.642	38344.12
563.841	38983.09
564.04	38663.6
564.239	39368.1
564.438	39097.77
564.637	38966.7
564.836	38952.37
565.035	38688.18
565.234	38774.19
565.432	38944.17
565.631	38520.24
565.83	38796.72
566.029	38444.47
566.228	38141.37
566.427	38387.13
566.625	38131.13
566.824	37905.85
567.023	37981.63
567.222	37715.39
567.42	38311.35
567.619	38061.5
567.818	37711.3
568.016	37801.41
568.215	37862.85
568.414	37909.95
568.612	37989.82
568.811	37590.47
569.01	37324.23
569.208	37387.72
569.407	37557.7
569.605	37017.04
569.804	37377.48
570.002	36931.02
570.201	37512.64
570.4	36834.77
570.598	37033.42
570.797	36920.78
570.995	37008.84
571.193	36490.71
571.392	36636.11
571.59	36691.41
571.789	36539.86
571.987	36609.49
572.186	36472.28
572.384	36378.07
572.582	36455.89
572.781	36804.05
572.979	36206.04
573.177	36468.18
573.376	35991
573.574	35511.78
573.772	35943.9
573.971	36105.69
574.169	35870.17
574.367	35442.15
574.565	35683.81
574.763	35595.74
574.962	35601.89
575.16	35298.79
575.358	35456.48
575.556	35059.18
575.754	35409.38
575.952	35245.54
576.151	35333.6
576.349	35073.51
576.547	34872.81
576.745	35018.22
576.943	34647.54
577.141	34641.39
577.339	34596.34
577.537	34661.87
577.735	34481.65
577.933	34217.46
578.131	34362.87
578.329	34432.5
578.527	33805.82
578.725	34074.1
578.923	33897.98
579.121	34031.1
579.319	33562.11
579.516	34090.49
579.714	33809.92
579.912	33848.83
580.11	33562.11
580.308	33684.99
580.506	33541.63
580.704	33242.63
580.901	33275.4
581.099	33281.54
581.297	32878.09
581.495	32888.33
581.692	33281.54
581.89	32650.77
582.088	33064.46
582.285	32775.69
582.483	32759.31
582.681	32421.39
582.878	32425.49
583.076	32163.35
583.274	32368.15
583.471	31944.22
583.669	32767.5
583.866	31872.54
584.064	32112.15
584.262	32144.92
584.459	32167.45
584.657	31768.09
584.854	31944.22
585.052	31338.02
585.249	31739.42
585.447	31647.26
585.644	31292.96
585.841	31149.6
586.039	31286.82
586.236	31194.66
586.434	31319.59
586.631	31073.83
586.828	31333.92
587.026	30998.06
587.223	30766.63
587.42	30735.92
587.618	30572.08
587.815	30434.86
588.012	30479.92
588.21	30606.89
588.407	30600.75
588.604	30228.02
588.801	30008.89
588.999	30469.68
589.196	29818.42
589.393	29814.33
589.59	30008.89
589.787	29732.41
589.984	29953.59
590.182	29619.77
590.379	29898.3
590.576	29662.78
590.773	29503.04
590.97	29111.88
591.167	29544
591.364	29138.5
591.561	29357.63
591.758	29042.24
591.955	28880.46
592.152	29177.41
592.349	28839.5
592.546	29068.87
592.743	29009.48
592.94	28180.05
593.137	28773.96
593.334	28804.68
593.531	28116.56
593.727	28608.08
593.924	28366.42
594.121	27926.1
594.318	28280.4
594.515	27874.9
594.712	28446.29
594.908	27612.76
595.105	28257.87
595.302	27391.58
595.499	27655.77
595.696	27848.28
595.892	27403.87
596.089	27262.56
596.286	27440.73
596.482	27442.78
596.679	27272.8
596.876	27344.48
597.072	26994.28
597.269	27027.04
597.466	26979.94
597.662	26945.12
597.859	26721.9
598.055	26795.62
598.252	26824.29
598.448	26797.67
598.645	26070.64
598.841	26207.86
599.038	26316.4
599.234	26416.75
599.431	26162.8
599.627	25935.48
599.824	26148.47
600.02	25816.69
600.217	26021.49
600.413	26070.64
600.609	25642.62
600.806	25384.57
601.002	25828.98
601.198	25601.66
601.395	25372.28
601.591	25271.93
601.787	25308.8
601.984	25173.63
602.18	25622.14
602.376	25042.56
602.572	24825.48
602.769	25173.63
602.965	24837.76
603.161	25099.9
603.357	24891.01
603.553	24438.41
603.75	24964.74
603.946	24573.58
604.142	24612.49
604.338	24338.06
604.534	24649.35
604.73	24288.91
604.926	24196.75
605.122	24137.36
605.318	24213.13
605.514	23811.73
605.71	24274.57
605.906	23760.53
606.102	23817.88
606.298	23936.66
606.494	23832.21
606.69	23764.63
606.886	23439
607.082	23056.03
607.278	23469.72
607.474	23269.02
607.67	23525.02
607.866	23117.47
608.062	23490.2
608.257	23103.14
608.453	23252.64
608.649	23447.19
608.845	23232.16
609.041	22875.81
609.236	23004.83
609.432	23330.46
609.628	23064.22
609.824	22607.53
610.019	22527.66
610.215	23019.17
610.411	22714.02
610.606	22560.42
610.802	22726.31
610.998	22820.52
611.193	22691.49
611.389	22394.54
611.584	22525.61
611.78	22421.16
611.976	22644.39
612.171	22705.83
612.367	22322.86
612.562	22152.88
612.758	21954.22
612.953	22134.45
613.149	22199.98
613.344	22048.43
613.539	22339.24
613.735	22240.94
613.93	22109.87
614.126	21991.09
614.321	22171.31
614.517	22210.22
614.712	21626.55
614.907	21675.7
615.103	21780.15
615.298	21814.96
615.493	22001.33
615.688	21581.49
615.884	21765.81
616.079	21075.65
616.274	21550.78
616.47	21456.57
616.665	21393.08
616.86	21325.5
617.055	21122.75
617.25	21345.98
617.445	21489.34
617.641	20821.7
617.836	21247.68
618.031	21124.8
618.226	21206.72
618.421	20948.67
618.616	20977.34
618.811	20793.03
619.006	21016.26
619.201	20704.96
619.396	20842.18
619.591	20426.44
619.786	20868.8
619.981	20354.76
620.176	20594.37
620.371	20233.93
620.566	20252.36
620.761	20086.48
620.956	19859.15
621.151	19879.63
621.346	19941.07
621.541	19459.8
621.735	20086.48
621.93	19203.8
622.125	19324.63
622.32	19107.55
622.515	19523.29
622.709	19199.71
622.904	19109.6
623.099	19115.74
623.294	18982.62
623.488	18890.46
623.683	18743.01
623.878	18556.64
624.072	18577.12
624.267	18665.19
624.462	18308.84
624.656	18231.02
624.851	18439.91
625.046	17948.4
625.24	18063.08
625.435	17731.31
625.629	17854.19
625.824	17520.37
626.018	17755.89
626.213	17235.71
626.407	17751.79
626.602	17157.88
626.796	17078.01
626.991	17121.02
627.185	16994.04
627.38	17030.91
627.574	16707.33
627.768	16756.48
627.963	16588.55
628.157	16641.79
628.352	16604.93
628.546	16359.17
628.74	16449.28
628.935	16267.02
629.129	16426.76
629.323	15851.28
629.517	16054.03
629.712	15693.58
629.906	15886.09
630.1	15619.86
630.294	15877.9
630.489	15466.26
630.683	15748.88
630.877	15146.78
631.071	15363.86
631.265	15453.97
631.459	15226.65
631.653	15292.18
631.848	15054.62
632.042	14960.41
632.236	14978.84
632.43	14868.25
632.624	14888.73
632.818	14524.19
633.012	14737.18
633.206	14532.39
633.4	14696.22
633.594	14559.01
633.788	14364.45
633.982	14311.21
634.176	14247.72
634.369	14032.68
634.563	13805.36
634.757	13979.43
634.951	14096.17
635.145	13922.09
635.339	13956.91
635.533	13555.51
635.726	13831.98
635.92	13371.19
636.114	13700.91
636.308	13401.91
636.501	13406
636.695	13412.15
636.889	13158.2
637.083	13270.84
637.276	13014.84
637.47	13023.03
637.664	12894.01
637.857	13035.32
638.051	12922.68
638.244	12742.46
638.438	12777.28
638.632	12554.05
638.825	12379.97
639.019	12566.34
639.212	12138.31
639.406	12214.09
639.599	12363.59
639.793	12255.04
639.986	12005.19
640.18	12128.07
640.373	12066.63
640.567	11896.65
640.76	11882.31
640.954	11622.22
641.147	11878.22
641.34	11577.17
641.534	11568.98
641.727	11741
641.92	11353.94
642.114	11454.29
642.307	11626.32
642.5	11222.87
642.694	11255.64
642.887	11265.88
643.08	11059.03
643.273	10973.02
643.467	10932.06
643.66	11108.18
643.853	10827.61
644.046	10766.17
644.239	10927.96
644.432	10649.44
644.626	10768.22
644.819	10719.07
645.012	10528.61
645.205	10669.92
645.398	10512.22
645.591	10542.94
645.784	10473.31
645.977	10192.74
646.17	10370.91
646.363	10198.88
646.556	10082.15
646.749	10192.74
646.942	10035.05
647.135	9965.42
647.328	9893.74
647.521	9940.84
647.714	9748.33
647.907	9762.67
648.099	9705.32
648.292	9809.77
648.485	9684.84
648.678	9619.31
648.871	9617.26
649.064	9340.79
649.256	9549.68
649.449	9301.87
649.642	9240.44
649.835	9369.46
650.027	9480.05
650.22	9170.8
650.413	9209.72
650.605	9101.17
650.798	9019.25
650.991	8865.66
651.183	9025.4
651.376	8726.39
651.568	8937.34
651.761	8761.21
651.954	8648.57
652.146	8769.4
652.339	8478.59
652.531	8595.32
652.724	8441.73
652.916	8308.61
653.109	8492.93
653.301	8445.82
653.494	8456.06
653.686	8310.66
653.879	8370.05
654.071	8292.23
654.263	8255.36
654.456	8413.06
654.648	7999.37
654.84	8003.46
655.033	8023.94
655.225	8062.85
655.417	8019.85
655.61	8052.61
655.802	7954.31
655.994	7610.25
656.186	7776.14
656.379	7733.13
656.571	7858.06
656.763	7618.44
656.955	7542.67
657.148	7741.32
657.34	7563.15
657.532	7487.37
657.724	7470.99
657.916	7462.8
658.108	7350.16
658.3	7362.45
658.492	7284.62
658.684	7237.52
658.876	7327.63
659.068	7118.74
659.26	7153.55
659.452	7262.1
659.644	7202.71
659.836	6866.84
660.028	7014.29
660.22	6793.11
660.412	6893.46
660.604	6711.19
660.796	6868.89
660.988	6913.94
661.18	6954.9
661.372	6580.12
661.563	6836.12
661.755	6774.68
661.947	6647.71
662.139	6688.67
662.331	6539.16
662.522	6479.77
662.714	6449.05
662.906	6483.87
663.097	6573.98
663.289	6377.37
663.481	6363.04
663.673	6326.18
663.864	6381.47
664.056	6401.95
664.247	6279.07
664.439	6221.73
664.631	6217.63
664.822	6213.54
665.014	6207.39
665.205	6066.08
665.397	6152.1
665.588	6014.88
665.78	6074.28
665.971	5914.53
666.163	5879.72
666.354	5750.7
666.546	5836.71
666.737	5812.14
666.929	5889.96
667.12	5816.23
667.311	5910.44
667.503	5570.47
667.694	5773.22
667.885	5703.59
668.077	5578.67
668.268	5543.85
668.459	5623.72
668.651	5496.75
668.842	5576.62
669.033	5388.21
669.224	5373.87
669.416	5492.65
669.607	5349.29
669.798	5367.73
669.989	5253.04
670.18	5236.66
670.371	5289.9
670.563	5230.51
670.754	5304.24
670.945	5103.54
671.136	5291.95
671.327	5250.99
671.518	5099.44
671.709	5162.93
671.9	5207.98
672.091	5193.65
672.282	5005.24
672.473	4941.75
672.664	5005.24
672.855	4972.47
673.046	4949.94
673.237	5054.39
673.428	4898.74
673.619	4825.01
673.809	4888.5
674	4777.91
674.191	4923.32
674.382	4808.63
674.573	4769.72
674.764	4698.04
674.954	4771.77
675.145	4739
675.336	4685.75
675.527	4480.96
675.717	4534.2
675.908	4659.13
676.099	4644.79
676.289	4472.76
676.48	4589.5
676.671	4519.87
676.861	4642.75
677.052	4476.86
677.243	4415.42
677.433	4366.27
677.624	4491.2
677.814	4327.36
678.005	4366.27
678.195	4413.37
678.386	4356.03
678.576	4325.31
678.767	4343.74
678.957	4153.28
679.148	4202.43
679.338	4286.4
679.529	4310.97
679.719	4227.01
679.909	4267.97
680.1	4222.91
680.29	4149.18
680.481	4247.49
680.671	4018.11
680.861	3979.2
681.052	4071.36
681.242	3979.2
681.432	4011.97
681.622	4091.84
681.813	4087.75
682.003	4026.31
682.193	3932.1
682.383	3971.01
682.573	4065.22
682.764	3854.28
682.954	3813.32
683.144	3919.81
683.334	3934.15
683.524	3862.47
683.714	3921.86
683.904	3690.44
684.094	3854.28
684.284	3841.99
684.474	3764.17
684.664	3762.12
684.854	3774.41
685.044	3710.92
685.234	3715.02
685.424	3844.04
685.614	3782.6
685.804	3700.68
685.994	3708.87
686.184	3770.31
686.374	3688.39
686.564	3735.49
686.753	3608.52
686.943	3616.71
687.133	3672.01
687.323	3547.08
687.513	3549.13
687.702	3653.58
687.892	3485.64
688.082	3598.28
688.272	3573.71
688.461	3585.99
688.651	3395.53
688.841	3459.02
689.03	3377.1
689.22	3373
689.41	3442.64
689.599	3395.53
689.789	3450.83
689.979	3473.35
690.168	3473.35
690.358	3362.76
690.547	3530.7
690.737	3434.44
690.926	3375.05
691.116	3243.98
691.305	3338.19
691.495	3248.08
691.684	3307.47
691.874	3192.78
692.063	3215.31
692.252	3350.48
692.442	3235.79
692.631	3211.22
692.82	3203.02
693.01	3174.35
693.199	3119.06
693.388	3123.15
693.578	3219.41
693.767	3157.97
693.956	3043.28
694.146	3082.19
694.335	3074
694.524	3131.34
694.713	3008.47
694.902	2940.88
695.092	3022.8
695.281	3096.53
695.47	3235.79
695.659	3063.76
695.848	2998.23
696.037	3030.99
696.226	2990.03
696.415	2987.99
696.604	3071.95
696.793	3033.04
696.982	2858.96
697.171	3041.23
697.36	2840.53
697.549	3047.38
697.738	2863.06
697.927	2875.35
698.116	2869.2
698.305	2930.64
698.494	2934.74
698.683	3030.99
698.872	2916.31
699.061	2801.62
699.25	2926.55
699.438	2822.1
699.627	2854.87
699.816	2877.4
700.005	2981.84
700.193	2852.82
700.382	2928.6
700.571	2783.19
700.76	2723.8
700.948	2891.73
701.137	2836.44
701.326	2844.63
701.514	2846.68
701.703	2686.94
701.892	2768.85
702.08	2924.5
702.269	2949.07
702.457	2760.66
702.646	2807.77
702.834	2725.85
703.023	2731.99
703.212	2760.66
703.4	2772.95
703.589	2705.37
703.777	2672.6
703.965	2688.98
704.154	2643.93
704.342	2643.93
704.531	2588.63
704.719	2637.78
704.907	2623.45
705.096	2564.06
705.284	2709.46
705.472	2645.98
705.661	2572.25
705.849	2695.13
706.037	2611.16
706.226	2670.55
706.414	2574.3
706.602	2557.91
706.79	2596.82
706.979	2641.88
707.167	2629.59
707.355	2588.63
707.543	2566.1
707.731	2617.3
707.919	2527.19
708.107	2639.83
708.296	2541.53
708.484	2525.15
708.672	2609.11
708.86	2555.86
709.048	2486.23
709.236	2414.56
709.424	2500.57
709.612	2588.63
709.8	2531.29
709.988	2551.77
710.176	2467.8
710.364	2459.61
710.551	2441.18
710.739	2492.38
710.927	2394.08
711.115	2482.14
711.303	2441.18
711.491	2441.18
711.679	2459.61
711.866	2451.42
712.054	2430.94
712.242	2422.75
712.43	2387.93
712.617	2461.66
712.805	2308.06
712.993	2367.45
713.181	2181.09
713.368	2453.47
713.556	2301.92
713.744	2293.72
713.931	2418.65
714.119	2273.25
714.306	2289.63
714.494	2306.01
714.682	2355.16
714.869	2281.44
715.057	2277.34
715.244	2267.1
715.432	2267.1
715.619	2301.92
715.807	2236.38
715.994	2215.9
716.182	2312.16
716.369	2220
716.556	2330.59
716.744	2353.12
716.931	2117.6
717.119	2220
717.306	2201.57
717.493	2179.04
717.681	2258.91
717.868	2195.42
718.055	2224.09
718.242	2303.96
718.43	2263.01
718.617	2113.5
718.804	2101.22
718.991	2072.54
719.179	2113.5
719.366	2160.61
719.553	2181.09
719.74	2162.66
719.927	2146.27
720.114	2039.78
720.301	2142.18
720.488	2064.35
720.676	2197.47
720.863	2041.82
721.05	2064.35
721.237	2123.74
721.424	2035.68
721.611	2174.94
721.798	2013.15
721.985	2027.49
722.172	1925.09
722.358	1988.58
722.545	2136.03
722.732	1984.48
722.919	2082.78
723.106	2070.5
723.293	2039.78
723.48	2000.87
723.667	1918.95
723.853	1990.63
724.04	2113.5
724.227	1982.43
724.414	1937.38
724.6	1933.28
724.787	1976.29
724.974	2066.4
725.161	2000.87
725.347	1988.58
725.534	1941.47
725.72	2054.11
725.907	1896.42
726.094	2039.78
726.28	1853.41
726.467	1839.08
726.653	1877.99
726.84	1918.95
727.027	1955.81
727.213	1826.79
727.4	1861.6
727.586	2000.87
727.773	1951.71
727.959	1830.88
728.145	1867.75
728.332	1918.95
728.518	1806.31
728.705	1912.8
728.891	1916.9
729.077	1925.09
729.264	1755.11
729.45	1855.46
729.636	1828.84
729.823	1640.42
730.009	1806.31
730.195	1908.71
730.382	1902.56
730.568	1810.4
730.754	1777.64
730.94	1773.54
731.126	1890.28
731.313	1810.4
731.499	1703.91
731.685	1753.06
731.871	1781.73
732.057	1802.21
732.243	1849.32
732.429	1794.02
732.615	1798.12
732.801	1810.4
732.987	1753.06
733.173	1705.96
733.359	1634.28
733.545	1869.8
733.731	1720.29
733.917	1724.39
734.103	1763.3
734.289	1609.7
734.475	1634.28
734.661	1810.4
734.847	1671.14
735.033	1646.57
735.219	1695.72
735.404	1703.91
735.59	1742.82
735.776	1660.9
735.962	1574.89
736.148	1712.1
736.333	1708.01
736.519	1687.53
736.705	1728.49
736.89	1708.01
737.076	1662.95
737.262	1640.42
737.447	1738.73
737.633	1634.28
737.819	1613.8
738.004	1693.67
738.19	1638.38
738.375	1576.94
738.561	1667.05
738.747	1540.07
738.932	1515.5
739.118	1605.61
739.303	1507.31
739.489	1646.57
739.674	1427.43
739.859	1472.49
740.045	1535.98
740.23	1550.31
740.416	1531.88
740.601	1550.31
740.786	1435.63
740.972	1460.2
741.157	1617.9
741.342	1431.53
741.528	1499.11
741.713	1482.73
741.898	1464.3
742.084	1464.3
742.269	1478.63
742.454	1396.71
742.639	1511.4
742.824	1517.54
743.01	1490.92
743.195	1468.39
743.38	1470.44
743.565	1423.34
743.75	1413.1
743.935	1366
744.12	1417.19
744.305	1359.85
744.49	1331.18
744.675	1406.95
744.86	1357.8
745.045	1316.84
745.23	1363.95
745.415	1394.67
745.6	1353.71
745.785	1363.95
745.97	1290.22
746.155	1327.08
746.34	1378.28
746.525	1302.51
746.71	1296.36
746.895	1306.6
747.079	1239.02
747.264	1261.55
747.449	1316.84
747.634	1304.56
747.819	1312.75
748.003	1247.21
748.188	1263.6
748.373	1275.88
748.557	1210.35
748.742	1155.05
748.927	1318.89
749.111	1312.75
749.296	1239.02
749.481	1175.53
749.665	1269.74
749.85	1155.05
750.034	1163.25
750.219	1157.1
750.404	1095.66
750.588	1110
750.773	1040.37
750.957	1142.77
751.141	1040.37
751.326	1179.63
751.51	1120.24
751.695	1001.46
751.879	1089.52
752.064	1136.62
752.248	1148.91
752.432	1079.28
752.617	1101.81
752.801	1091.57
752.985	1015.79
753.17	1064.94
753.354	1015.79
753.538	1095.66
753.722	1050.61
753.907	1064.94
754.091	1052.66
754.275	999.41
754.459	1026.03
754.643	970.74
754.828	958.45
755.012	1009.65
755.196	942.07
755.38	903.15
755.564	839.67
755.748	909.3
755.932	870.39
756.116	950.26
756.3	931.83
756.484	915.44
756.668	991.22
756.852	901.11
757.036	878.58
757.22	862.19
757.404	913.39
757.588	802.8
757.772	909.3
757.956	835.57
758.14	772.08
758.323	813.04
758.507	872.43
758.691	856.05
758.875	886.77
759.059	811
759.242	817.14
759.426	778.23
759.61	798.71
759.794	868.34
759.977	794.61
760.161	868.34
760.345	845.81
760.528	839.67
760.712	745.46
760.895	776.18
761.079	780.28
761.263	821.24
761.446	688.12
761.63	735.22
761.813	753.65
761.997	708.6
762.18	786.42
762.364	776.18
762.547	673.78
762.731	745.46
762.914	747.51
763.098	837.62
763.281	714.74
763.464	722.93
763.648	681.97
763.831	755.7
764.015	626.68
764.198	706.55
764.381	774.13
764.564	712.69
764.748	559.1
764.931	724.98
765.114	655.35
765.297	747.51
765.481	673.78
765.664	706.55
765.847	688.12
766.03	626.68
766.213	598.01
766.397	686.07
766.58	698.36
766.763	745.46
766.946	587.77
767.129	634.87
767.312	645.11
767.495	679.93
767.678	741.36
767.861	638.97
768.044	641.01
768.227	598.01
768.41	675.83
768.593	722.93
768.776	608.25
768.959	583.67
769.142	645.11
769.324	663.54
769.507	602.1
769.69	784.37
769.873	630.77
770.056	669.69
770.239	585.72
770.421	622.58
770.604	589.82
770.787	616.44
770.97	655.35
771.152	667.64
771.335	657.4
771.518	561.14
771.7	638.97
771.883	690.17
772.066	581.62
772.248	569.34
772.431	663.54
772.613	569.34
772.796	606.2
772.978	647.16
773.161	618.49
773.343	577.53
773.526	532.47
773.708	579.58
773.891	583.67
774.073	585.72
774.256	542.71
774.438	593.91
774.621	552.95
774.803	575.48
774.985	501.75
775.168	620.53
775.35	493.56
775.532	540.66
775.715	489.46
775.897	538.62
776.079	534.52
776.261	436.22
776.444	507.9
776.626	518.14
776.808	436.22
776.99	516.09
777.173	446.46
777.355	565.24
777.537	526.33
777.719	471.03
777.901	536.57
778.083	460.79
778.265	425.98
778.447	409.59
778.629	524.28
778.811	436.22
778.993	479.22
779.175	499.7
779.357	411.64
779.539	421.88
779.721	425.98
779.903	428.03
780.085	522.23
780.267	419.83
780.449	462.84
780.631	428.03
780.812	434.17
780.994	382.97
781.176	409.59
781.358	458.75
781.54	401.4
781.721	471.03
781.903	458.75
782.085	362.49
782.267	425.98
782.448	395.26
782.63	430.07
782.812	358.39
782.993	360.44
783.175	327.68
783.357	352.25
783.538	380.92
783.72	372.73
783.901	403.45
784.083	374.78
784.264	321.53
784.446	372.73
784.627	352.25
784.809	337.91
784.99	366.59
785.172	329.72
785.353	360.44
785.535	399.35
785.716	364.54
785.897	364.54
786.079	329.72
786.26	288.76
786.441	253.95
786.623	290.81
786.804	303.1
786.985	327.68
787.167	352.25
787.348	256
787.529	278.52
787.71	356.35
787.891	339.96
788.073	311.29
788.254	296.96
788.435	342.01
788.616	290.81
788.797	299
788.978	321.53
789.159	311.29
789.34	319.48
789.522	282.62
789.703	258.04
789.884	253.95
790.065	315.39
790.246	315.39
790.427	204.8
790.607	294.91
790.788	256
790.969	256
791.15	249.85
791.331	264.19
791.512	253.95
791.693	229.37
791.874	206.84
792.054	249.85
792.235	368.63
792.416	262.14
792.597	212.99
792.778	253.95
792.958	290.81
793.139	227.32
793.32	159.74
793.5	204.8
793.681	262.14
793.862	262.14
794.042	256
794.223	241.66
794.404	262.14
794.584	208.89
794.765	212.99
794.945	274.43
795.126	212.99
795.306	243.71
795.487	251.9
795.667	180.22
795.848	221.18
796.028	176.13
796.209	208.89
796.389	270.33
796.57	219.13
796.75	155.65
796.93	194.56
797.111	116.73
797.291	311.29
797.471	161.79
797.652	192.51
797.832	167.93
798.012	262.14
798.192	155.65
798.373	149.5
798.553	124.93
798.733	270.33
798.913	204.8
799.093	231.42
799.274	270.33
799.454	245.76
799.634	276.48
799.814	229.37
799.994	165.89
800.174	184.32
800.354	139.26
800.534	135.17
800.714	178.17
800.894	155.65
801.074	223.23
801.254	131.07
801.434	188.41
801.614	196.61
801.794	112.64
801.974	624.63
802.154	151.55
802.334	225.28
802.514	108.54
802.693	161.79
802.873	106.49
803.053	202.75
803.233	192.51
803.413	172.03
803.592	100.35
803.772	159.74
803.952	88.06
804.131	118.78
804.311	83.97
804.491	176.13
804.67	135.17
804.85	98.3
805.03	188.41
805.209	184.32
805.389	229.37
805.568	202.75
805.748	122.88
805.928	153.6
806.107	147.45
806.287	122.88
806.466	169.98
806.646	163.84
806.825	149.5
807.004	143.36
807.184	145.41
807.363	172.03
807.543	124.93
807.722	100.35
807.901	139.26
808.081	163.84
808.26	98.3
808.439	90.11
808.619	86.01
808.798	229.37
808.977	139.26
809.156	141.31
809.336	124.93
809.515	122.88
809.694	65.54
809.873	59.39
810.052	118.78
810.231	180.22
810.411	18.43
810.59	141.31
810.769	106.49
810.948	131.07
811.127	147.45
811.306	75.77
811.485	75.77
811.664	114.69
811.843	59.39
812.022	131.07
812.201	92.16
812.38	112.64
812.559	145.41
812.737	143.36
812.916	73.73
813.095	114.69
813.274	184.32
813.453	153.6
813.632	102.4
813.811	38.91
813.989	143.36
814.168	86.01
814.347	122.88
814.526	108.54
814.704	108.54
814.883	98.3
815.062	65.54
815.24	98.3
815.419	106.49
815.598	122.88
815.776	51.2
815.955	94.21
816.133	51.2
816.312	83.97
816.49	196.61
816.669	110.59
816.847	59.39
817.026	81.92
817.204	43.01
817.383	40.96
817.561	83.97
817.74	26.62
817.918	83.97
818.097	100.35
818.275	86.01
818.453	59.39
818.632	167.93
818.81	69.63
818.988	135.17
819.167	49.15
819.345	81.92
819.523	77.82
819.701	79.87
819.879	94.21
820.058	110.59
820.236	47.1
820.414	94.21
820.592	90.11
820.77	116.73
820.948	65.54
821.127	90.11
821.305	47.1
821.483	63.49
821.661	133.12
821.839	65.54
822.017	102.4
822.195	65.54
822.373	110.59
822.551	94.21
822.729	67.58
822.907	63.49
823.085	75.77
823.262	81.92
823.44	92.16
823.618	28.67
823.796	94.21
823.974	57.34
824.152	159.74
824.329	36.86
824.507	49.15
824.685	81.92
824.863	86.01
825.04	65.54
825.218	155.65
825.396	88.06
825.574	112.64
825.751	45.06
825.929	184.32
826.107	57.34
826.284	53.25
826.462	-24.58
826.639	73.73
826.817	18.43
826.994	51.2
827.172	4.1
827.349	145.41
827.527	92.16
827.704	106.49
827.882	67.58
828.059	75.77
828.237	12.29
828.414	122.88
828.591	47.1
828.769	79.87
828.946	38.91
829.124	51.2
829.301	114.69
829.478	26.62
829.655	110.59
829.833	49.15
830.01	94.21
830.187	45.06
830.364	24.58
830.542	61.44
830.719	102.4
830.896	40.96
831.073	94.21
831.25	16.38
831.427	100.35
831.604	4.1
831.782	53.25
831.959	149.5
832.136	-4.1
832.313	77.82
832.49	-14.34
832.667	77.82
832.844	49.15
833.021	57.34
833.198	65.54
833.374	59.39
833.551	90.11
833.728	-24.58
833.905	73.73
834.082	-2.05
834.259	94.21
834.436	20.48
834.612	18.43
834.789	96.25
834.966	-4.1
835.143	94.21
835.319	18.43
835.496	83.97
835.673	12.29
835.85	40.96
836.026	40.96
836.203	4.1
836.38	65.54
836.556	57.34
836.733	129.02
836.909	90.11
837.086	61.44
837.262	26.62
837.439	90.11
837.616	40.96
837.792	-14.34
837.968	96.25
838.145	12.29
838.321	32.77
838.498	-2.05
838.674	34.82
838.851	49.15
839.027	102.4
839.203	36.86
839.38	45.06
839.556	28.67
839.732	14.34
839.909	81.92
840.085	49.15
840.261	43.01
840.437	36.86
840.614	12.29
840.79	100.35
840.966	83.97
841.142	45.06
841.318	10.24
841.494	75.77
841.671	108.54
841.847	20.48
842.023	32.77
842.199	24.58
842.375	32.77
842.551	24.58
842.727	65.54
842.903	86.01
843.079	2.05
843.255	51.2
843.431	18.43
843.607	36.86
843.783	2.05
843.959	45.06
844.134	34.82
844.31	49.15
844.486	26.62
844.662	32.77
844.838	49.15
845.013	0
845.189	98.3
845.365	-40.96
845.541	-10.24
845.716	18.43
845.892	83.97
846.068	73.73
846.244	16.38
846.419	16.38
846.595	10.24
846.77	-18.43
846.946	83.97
847.122	4.1
847.297	36.86
847.473	73.73
847.648	40.96
847.824	-4.1
847.999	26.62
848.175	63.49
848.35	8.19
848.526	106.49
848.701	32.77
848.876	32.77
849.052	-20.48
849.227	26.62
849.403	55.3
849.578	-18.43
849.753	8.19
849.929	-47.1
850.104	106.49
850.279	0
850.454	-34.82
850.63	57.34
850.805	6.14
850.98	77.82
851.155	16.38
851.33	34.82
851.505	32.77
851.681	69.63
851.856	-40.96
852.031	59.39
852.206	61.44
852.381	92.16
852.556	73.73
852.731	90.11
852.906	-8.19
853.081	32.77
853.256	88.06
853.431	8.19
853.606	-12.29
853.781	-22.53
853.956	-6.14
854.131	61.44
854.305	67.58
854.48	20.48
854.655	81.92
854.83	8.19
855.005	53.25
855.18	-14.34
855.354	2.05
855.529	-2.05
855.704	26.62
855.879	20.48
856.053	-30.72
856.228	51.2
856.403	-16.38
856.577	49.15
856.752	-65.53
856.926	-16.38
857.101	-47.1
857.276	24.58
857.45	-4.1
857.625	34.82
857.799	16.38
857.974	-28.67
858.148	-24.58
858.323	-22.53
858.497	12.29
858.672	43.01
858.846	-47.1
859.02	12.29
859.195	-98.3
859.369	-14.34
859.543	-4.1
859.718	36.86
859.892	32.77
860.066	-16.38
860.241	-22.53
860.415	10.24
860.589	8.19
860.763	8.19
860.938	-45.06
861.112	36.86
861.286	-34.82
861.46	57.34
861.634	4.1
861.808	30.72
861.982	-4.1
862.157	55.3
862.331	36.86
862.505	73.73
862.679	-14.34
862.853	24.58
863.027	-14.34
863.201	124.93
863.375	18.43
863.549	73.73
863.722	-73.73
863.896	49.15
864.07	90.11
864.244	49.15
864.418	4.1
864.592	61.44
864.766	0
864.939	-4.1
865.113	-32.77
865.287	-22.53
865.461	-6.14
865.634	28.67
865.808	-40.96
865.982	47.1
866.156	40.96
866.329	10.24
866.503	-63.49
866.676	32.77
866.85	26.62
867.024	57.34
867.197	40.96
867.371	2.05
867.544	26.62
867.718	-28.67
867.891	38.91
868.065	-40.96
868.238	34.82
868.412	65.54
868.585	-16.38
868.759	22.53
868.932	-32.77
869.105	-32.77
869.279	32.77
869.452	-55.3
869.625	40.96
869.799	-18.43
869.972	-49.15
870.145	-2.05
870.319	-38.91
870.492	53.25
870.665	-8.19
870.838	-16.38
871.011	-36.86
871.185	26.62
871.358	34.82
871.531	14.34
871.704	-40.96
871.877	2.05
872.05	-65.53
872.223	-57.34
872.396	73.73
872.569	36.86
872.742	-8.19
872.915	51.2
873.088	-24.58
873.261	12.29
873.434	12.29
873.607	18.43
873.78	49.15
873.953	-36.86
874.126	16.38
874.299	81.92
874.471	6.14
874.644	49.15
874.817	-4.1
874.99	69.63
875.163	-22.53
875.335	18.43
875.508	8.19
875.681	32.77
875.853	-14.34
876.026	16.38
876.199	28.67
876.371	2.05
876.544	-30.72
876.717	28.67
876.889	-24.58
877.062	53.25
877.234	-6.14
877.407	34.82
877.579	24.58
877.752	51.2
877.924	-8.19
878.097	-53.25
878.269	45.06
878.442	-8.19
878.614	-6.14
878.786	18.43
878.959	-26.62
879.131	-22.53
879.303	-71.68
879.476	-53.25
879.648	10.24
879.82	8.19
879.993	-14.34
880.165	32.77
880.337	-8.19
880.509	-22.53
880.681	-65.53
880.854	-47.1
881.026	14.34
881.198	28.67
881.37	24.58
881.542	0
881.714	57.34
881.886	-53.25
882.058	-26.62
882.23	88.06
882.402	-32.77
882.574	-22.53
882.746	8.19
882.918	32.77
883.09	18.43
883.262	81.92
883.434	-16.38
883.606	-63.49
883.778	2.05
883.95	81.92
884.122	8.19
884.293	16.38
884.465	53.25
884.637	40.96
884.809	-61.44
884.98	65.54
885.152	16.38
885.324	34.82
885.496	-43.01
885.667	-28.67
885.839	-45.06
886.011	49.15
886.182	49.15
886.354	24.58
886.525	24.58
886.697	8.19
886.869	-8.19
887.04	24.58
887.212	-22.53
887.383	83.97
887.555	8.19
887.726	30.72
887.897	-43.01
888.069	36.86
888.24	47.1
888.412	-38.91
888.583	-47.1
888.754	14.34
888.926	-16.38
889.097	22.53
889.268	-24.58
889.44	-20.48
889.611	-16.38
889.782	-6.14
889.953	-96.25
890.125	28.67
890.296	-53.25
890.467	-79.87
890.638	30.72
890.809	8.19
890.98	-8.19
891.151	-16.38
891.323	51.2
891.494	32.77
891.665	2.05
891.836	-57.34
892.007	-18.43
892.178	-24.58
892.349	16.38
892.52	-20.48
892.691	57.34
892.862	4.1
893.032	-45.06
893.203	2.05
893.374	22.53
893.545	40.96
893.716	-38.91
893.887	67.58
894.057	-12.29
894.228	20.48
894.399	-90.11
894.57	12.29
894.74	-4.1
894.911	79.87
895.082	-8.19
895.253	20.48
895.423	-32.77
895.594	34.82
895.764	24.58
895.935	-32.77
896.106	-32.77
896.276	-8.19
896.447	59.39
896.617	10.24
896.788	-4.1
896.958	40.96
897.129	-26.62
897.299	-57.34
897.47	16.38
897.64	38.91
897.81	83.97
897.981	-12.29
898.151	-79.87
898.322	18.43
898.492	-40.96
898.662	-6.14
898.832	26.62
899.003	-8.19
899.173	-53.25
899.343	-20.48
899.513	-16.38
