Data from USB4F104151__79__14-17-32-330.txt Node

Date: Thu Mar 13 14:17:32 EDT 2025
User: louis
Spectrometer: USB4F10415
Trigger mode: 4
Integration Time (sec): 2.000000E-2
Scans to average: 1
Electric dark correction enabled: true
Nonlinearity correction enabled: false
Boxcar width: 0
XAxis mode: Wavelengths
Number of Pixels in Spectrum: 3648
>>>>>Begin Spectral Data<<<<<
178.204	-105.3
178.424	-105.3
178.644	-105.3
178.864	-97.11
179.084	-101.2
179.304	-35.67
179.524	-27.48
179.744	52.39
179.964	62.63
180.184	-52.05
180.404	11.43
180.624	21.67
180.844	13.48
181.064	25.77
181.283	-37.72
181.503	-15.19
181.723	-19.29
181.943	-11.09
182.163	23.72
182.383	-31.57
182.602	1.19
182.822	7.34
183.042	-7
183.262	9.39
183.482	70.83
183.701	13.48
183.921	46.25
184.141	-11.09
184.361	52.39
184.58	52.39
184.8	62.63
185.02	46.25
185.239	-60.24
185.459	42.15
185.679	68.78
185.898	-64.34
186.118	31.91
186.338	-43.86
186.557	17.58
186.777	29.87
186.997	-50
187.216	-7
187.436	74.92
187.655	-45.91
187.875	54.44
188.095	-7
188.314	64.68
188.534	107.69
188.753	5.29
188.973	17.58
189.192	15.53
189.412	50.35
189.631	66.73
189.851	40.11
190.07	15.53
190.29	33.96
190.509	38.06
190.729	23.72
190.948	23.72
191.168	103.59
191.387	46.25
191.607	17.58
191.826	42.15
192.045	54.44
192.265	-2.9
192.484	-0.85
192.704	5.29
192.923	-9.05
193.142	85.16
193.362	21.67
193.581	87.21
193.8	-2.9
194.02	46.25
194.239	64.68
194.458	23.72
194.678	-47.96
194.897	29.87
195.116	5.29
195.335	81.07
195.555	21.67
195.774	40.11
195.993	-17.24
196.212	-19.29
196.432	23.72
196.651	23.72
196.87	-39.76
197.089	40.11
197.308	1.19
197.528	79.02
197.747	-33.62
197.966	64.68
198.185	54.44
198.404	27.82
198.623	31.91
198.842	72.87
199.062	9.39
199.281	62.63
199.5	48.3
199.719	-19.29
199.938	9.39
200.157	21.67
200.376	33.96
200.595	31.91
200.814	33.96
201.033	-7
201.252	21.67
201.471	23.72
201.69	74.92
201.909	-2.9
202.128	76.97
202.347	-2.9
202.566	-23.38
202.785	-29.52
203.004	68.78
203.223	109.74
203.442	27.82
203.661	-31.57
203.879	62.63
204.098	33.96
204.317	25.77
204.536	62.63
204.755	31.91
204.974	21.67
205.193	70.83
205.411	38.06
205.63	11.43
205.849	-43.86
206.068	-2.9
206.287	95.4
206.505	23.72
206.724	17.58
206.943	60.59
207.162	99.5
207.381	19.63
207.599	33.96
207.818	27.82
208.037	38.06
208.255	29.87
208.474	91.31
208.693	7.34
208.911	70.83
209.13	-7
209.349	50.35
209.567	89.26
209.786	23.72
210.005	-15.19
210.223	-17.24
210.442	-25.43
210.661	-15.19
210.879	31.91
211.098	17.58
211.316	3.24
211.535	38.06
211.753	23.72
211.972	72.87
212.191	-15.19
212.409	44.2
212.628	9.39
212.846	-35.67
213.065	66.73
213.283	113.83
213.502	9.39
213.72	13.48
213.938	17.58
214.157	7.34
214.375	113.83
214.594	-35.67
214.812	-7
215.031	13.48
215.249	38.06
215.467	-19.29
215.686	62.63
215.904	99.5
216.122	-66.39
216.341	95.4
216.559	17.58
216.778	33.96
216.996	19.63
217.214	-7
217.432	-9.05
217.651	31.91
217.869	25.77
218.087	7.34
218.306	13.48
218.524	-11.09
218.742	-15.19
218.96	99.5
219.179	42.15
219.397	-19.29
219.615	152.74
219.833	46.25
220.051	46.25
220.27	52.39
220.488	70.83
220.706	27.82
220.924	29.87
221.142	46.25
221.36	11.43
221.578	15.53
221.796	-11.09
222.015	33.96
222.233	58.54
222.451	29.87
222.669	-9.05
222.887	-35.67
223.105	36.01
223.323	128.17
223.541	-4.95
223.759	29.87
223.977	-19.29
224.195	111.78
224.413	74.92
224.631	42.15
224.849	-25.43
225.067	103.59
225.285	-23.38
225.503	17.58
225.721	-35.67
225.939	29.87
226.157	46.25
226.375	33.96
226.592	15.53
226.81	27.82
227.028	85.16
227.246	79.02
227.464	-27.48
227.682	-9.05
227.9	-9.05
228.117	101.55
228.335	17.58
228.553	-15.19
228.771	48.3
228.989	25.77
229.206	52.39
229.424	42.15
229.642	1.19
229.86	76.97
230.077	97.45
230.295	13.48
230.513	97.45
230.731	25.77
230.948	23.72
231.166	33.96
231.384	42.15
231.601	-15.19
231.819	60.59
232.037	52.39
232.254	11.43
232.472	-33.62
232.689	48.3
232.907	11.43
233.125	-19.29
233.342	48.3
233.56	1.19
233.777	7.34
233.995	21.67
234.213	70.83
234.43	21.67
234.648	31.91
234.865	-29.52
235.083	-2.9
235.3	-2.9
235.518	111.78
235.735	13.48
235.953	38.06
236.17	15.53
236.388	54.44
236.605	70.83
236.822	-9.05
237.04	38.06
237.257	17.58
237.475	62.63
237.692	5.29
237.909	62.63
238.127	-19.29
238.344	66.73
238.562	72.87
238.779	-33.62
238.996	74.92
239.214	109.74
239.431	62.63
239.648	44.2
239.865	-27.48
240.083	-0.85
240.3	70.83
240.517	5.29
240.735	58.54
240.952	42.15
241.169	-11.09
241.386	76.97
241.603	-31.57
241.821	11.43
242.038	124.07
242.255	21.67
242.472	21.67
242.689	31.91
242.907	54.44
243.124	60.59
243.341	-17.24
243.558	-13.14
243.775	15.53
243.992	-2.9
244.209	46.25
244.426	46.25
244.643	48.3
244.86	13.48
245.078	-23.38
245.295	-0.85
245.512	46.25
245.729	79.02
245.946	54.44
246.163	-23.38
246.38	11.43
246.597	64.68
246.814	72.87
247.031	3.24
247.248	-0.85
247.464	-27.48
247.681	81.07
247.898	64.68
248.115	40.11
248.332	-31.57
248.549	25.77
248.766	42.15
248.983	58.54
249.2	66.73
249.417	74.92
249.633	58.54
249.85	38.06
250.067	48.3
250.284	-19.29
250.501	46.25
250.717	21.67
250.934	7.34
251.151	38.06
251.368	15.53
251.585	124.07
251.801	-9.05
252.018	-39.76
252.235	38.06
252.451	-56.15
252.668	50.35
252.885	-2.9
253.102	-19.29
253.318	-56.15
253.535	56.49
253.752	7.34
253.968	-2.9
254.185	-33.62
254.401	21.67
254.618	46.25
254.835	31.91
255.051	25.77
255.268	15.53
255.484	25.77
255.701	72.87
255.917	58.54
256.134	13.48
256.351	-47.96
256.567	42.15
256.784	-54.1
257	23.72
257.217	-0.85
257.433	52.39
257.65	33.96
257.866	23.72
258.082	31.91
258.299	5.29
258.515	38.06
258.732	-19.29
258.948	40.11
259.165	46.25
259.381	13.48
259.597	-19.29
259.814	97.45
260.03	81.07
260.246	17.58
260.463	101.55
260.679	58.54
260.895	-11.09
261.112	46.25
261.328	-19.29
261.544	5.29
261.761	128.17
261.977	-0.85
262.193	-43.86
262.409	38.06
262.626	38.06
262.842	44.2
263.058	-74.58
263.274	21.67
263.49	79.02
263.707	48.3
263.923	31.91
264.139	50.35
264.355	66.73
264.571	124.07
264.787	38.06
265.004	58.54
265.22	-21.33
265.436	-17.24
265.652	36.01
265.868	-9.05
266.084	5.29
266.3	66.73
266.516	-25.43
266.732	140.46
266.948	-17.24
267.164	-4.95
267.38	91.31
267.596	87.21
267.812	38.06
268.028	-33.62
268.244	-72.53
268.46	122.02
268.676	60.59
268.892	38.06
269.108	38.06
269.324	76.97
269.54	36.01
269.756	-11.09
269.972	-0.85
270.188	31.91
270.403	27.82
270.619	25.77
270.835	62.63
271.051	-7
271.267	76.97
271.483	54.44
271.698	25.77
271.914	1.19
272.13	-2.9
272.346	-82.77
272.562	29.87
272.777	70.83
272.993	-13.14
273.209	58.54
273.425	48.3
273.64	64.68
273.856	91.31
274.072	54.44
274.287	5.29
274.503	-0.85
274.719	99.5
274.934	-35.67
275.15	40.11
275.366	21.67
275.581	15.53
275.797	79.02
276.012	25.77
276.228	3.24
276.444	79.02
276.659	74.92
276.875	-35.67
277.09	1.19
277.306	17.58
277.521	109.74
277.737	9.39
277.952	21.67
278.168	-25.43
278.383	23.72
278.599	40.11
278.814	76.97
279.03	54.44
279.245	11.43
279.461	36.01
279.676	-13.14
279.892	29.87
280.107	-17.24
280.322	62.63
280.538	70.83
280.753	31.91
280.969	21.67
281.184	66.73
281.399	9.39
281.615	40.11
281.83	36.01
282.045	25.77
282.26	7.34
282.476	21.67
282.691	72.87
282.906	56.49
283.122	54.44
283.337	60.59
283.552	70.83
283.767	-43.86
283.983	21.67
284.198	58.54
284.413	93.35
284.628	-2.9
284.843	54.44
285.058	79.02
285.274	-4.95
285.489	-27.48
285.704	81.07
285.919	31.91
286.134	64.68
286.349	-19.29
286.564	-11.09
286.779	89.26
286.995	21.67
287.21	-29.52
287.425	56.49
287.64	-23.38
287.855	-4.95
288.07	46.25
288.285	66.73
288.5	113.83
288.715	62.63
288.93	11.43
289.145	-25.43
289.36	29.87
289.575	-25.43
289.79	109.74
290.004	19.63
290.219	48.3
290.434	79.02
290.649	29.87
290.864	25.77
291.079	54.44
291.294	42.15
291.509	70.83
291.724	13.48
291.938	40.11
292.153	70.83
292.368	52.39
292.583	19.63
292.798	7.34
293.012	83.11
293.227	70.83
293.442	42.15
293.657	62.63
293.871	87.21
294.086	13.48
294.301	122.02
294.516	-9.05
294.73	79.02
294.945	17.58
295.16	-4.95
295.374	-25.43
295.589	15.53
295.804	64.68
296.018	31.91
296.233	70.83
296.447	74.92
296.662	52.39
296.877	81.07
297.091	66.73
297.306	58.54
297.52	3.24
297.735	-23.38
297.949	81.07
298.164	29.87
298.378	70.83
298.593	-19.29
298.807	-47.96
299.022	119.98
299.236	21.67
299.451	74.92
299.665	25.77
299.88	33.96
300.094	46.25
300.309	-0.85
300.523	-0.85
300.737	-21.33
300.952	60.59
301.166	31.91
301.381	5.29
301.595	11.43
301.809	-11.09
302.024	46.25
302.238	-2.9
302.452	128.17
302.667	-68.44
302.881	91.31
303.095	148.65
303.309	3.24
303.524	31.91
303.738	48.3
303.952	-23.38
304.166	25.77
304.381	-0.85
304.595	54.44
304.809	62.63
305.023	-11.09
305.237	-17.24
305.452	119.98
305.666	46.25
305.88	81.07
306.094	21.67
306.308	95.4
306.522	-25.43
306.736	105.64
306.95	21.67
307.164	5.29
307.379	15.53
307.593	11.43
307.807	-33.62
308.021	15.53
308.235	13.48
308.449	-39.76
308.663	40.11
308.877	79.02
309.091	29.87
309.305	103.59
309.519	7.34
309.733	-7
309.947	52.39
310.161	62.63
310.374	5.29
310.588	144.55
310.802	-7
311.016	74.92
311.23	64.68
311.444	3.24
311.658	31.91
311.872	-43.86
312.085	36.01
312.299	23.72
312.513	68.78
312.727	70.83
312.941	54.44
313.154	36.01
313.368	-37.72
313.582	111.78
313.796	38.06
314.009	42.15
314.223	46.25
314.437	31.91
314.651	70.83
314.864	31.91
315.078	-39.76
315.292	3.24
315.505	21.67
315.719	50.35
315.933	95.4
316.146	29.87
316.36	-2.9
316.573	38.06
316.787	42.15
317.001	60.59
317.214	-13.14
317.428	-13.14
317.641	17.58
317.855	46.25
318.068	17.58
318.282	56.49
318.495	119.98
318.709	-0.85
318.922	54.44
319.136	130.22
319.349	-7
319.563	29.87
319.776	-9.05
319.99	9.39
320.203	70.83
320.417	76.97
320.63	169.13
320.843	21.67
321.057	-19.29
321.27	11.43
321.483	21.67
321.697	111.78
321.91	40.11
322.124	40.11
322.337	-21.33
322.55	46.25
322.763	23.72
322.977	64.68
323.19	87.21
323.403	31.91
323.617	23.72
323.83	95.4
324.043	-4.95
324.256	21.67
324.469	23.72
324.683	56.49
324.896	56.49
325.109	40.11
325.322	56.49
325.535	15.53
325.748	76.97
325.962	-2.9
326.175	52.39
326.388	70.83
326.601	27.82
326.814	1.19
327.027	15.53
327.24	52.39
327.453	15.53
327.666	42.15
327.879	103.59
328.092	81.07
328.305	46.25
328.518	70.83
328.731	11.43
328.944	60.59
329.157	66.73
329.37	44.2
329.583	-2.9
329.796	42.15
330.009	85.16
330.222	62.63
330.435	-4.95
330.648	81.07
330.861	44.2
331.073	13.48
331.286	42.15
331.499	154.79
331.712	58.54
331.925	48.3
332.138	62.63
332.35	31.91
332.563	-27.48
332.776	23.72
332.989	15.53
333.202	46.25
333.414	74.92
333.627	56.49
333.84	33.96
334.053	56.49
334.265	-23.38
334.478	-4.95
334.691	101.55
334.903	36.01
335.116	-47.96
335.329	70.83
335.541	-11.09
335.754	128.17
335.966	44.2
336.179	33.96
336.392	31.91
336.604	38.06
336.817	87.21
337.029	-15.19
337.242	-31.57
337.454	95.4
337.667	15.53
337.88	111.78
338.092	54.44
338.305	38.06
338.517	54.44
338.729	15.53
338.942	25.77
339.154	70.83
339.367	46.25
339.579	50.35
339.792	-9.05
340.004	5.29
340.217	46.25
340.429	97.45
340.641	54.44
340.854	31.91
341.066	44.2
341.278	38.06
341.491	66.73
341.703	-25.43
341.915	89.26
342.128	27.82
342.34	60.59
342.552	38.06
342.764	25.77
342.977	-9.05
343.189	23.72
343.401	33.96
343.613	-2.9
343.826	54.44
344.038	-0.85
344.25	79.02
344.462	103.59
344.674	64.68
344.886	97.45
345.099	33.96
345.311	13.48
345.523	15.53
345.735	46.25
345.947	50.35
346.159	113.83
346.371	48.3
346.583	42.15
346.795	130.22
347.007	40.11
347.219	-0.85
347.431	33.96
347.643	128.17
347.855	25.77
348.067	122.02
348.279	-41.81
348.491	89.26
348.703	140.46
348.915	91.31
349.127	50.35
349.339	29.87
349.551	15.53
349.763	62.63
349.975	5.29
350.187	7.34
350.399	54.44
350.61	68.78
350.822	54.44
351.034	56.49
351.246	93.35
351.458	89.26
351.669	70.83
351.881	50.35
352.093	81.07
352.305	99.5
352.517	72.87
352.728	105.64
352.94	62.63
353.152	25.77
353.363	-17.24
353.575	62.63
353.787	38.06
353.999	50.35
354.21	54.44
354.422	-7
354.633	48.3
354.845	111.78
355.057	42.15
355.268	128.17
355.48	48.3
355.692	64.68
355.903	-0.85
356.115	40.11
356.326	48.3
356.538	50.35
356.749	132.26
356.961	62.63
357.172	-4.95
357.384	21.67
357.595	142.5
357.807	-33.62
358.018	23.72
358.23	25.77
358.441	136.36
358.653	21.67
358.864	70.83
359.075	-0.85
359.287	62.63
359.498	19.63
359.709	38.06
359.921	62.63
360.132	58.54
360.344	40.11
360.555	5.29
360.766	119.98
360.977	60.59
361.189	-35.67
361.4	9.39
361.611	79.02
361.823	91.31
362.034	130.22
362.245	48.3
362.456	105.64
362.667	-33.62
362.879	29.87
363.09	46.25
363.301	33.96
363.512	1.19
363.723	101.55
363.935	29.87
364.146	99.5
364.357	95.4
364.568	68.78
364.779	-7
364.99	54.44
365.201	-2.9
365.412	72.87
365.623	-9.05
365.834	115.88
366.045	29.87
366.256	62.63
366.467	54.44
366.678	-33.62
366.889	-7
367.1	15.53
367.311	60.59
367.522	31.91
367.733	33.96
367.944	74.92
368.155	33.96
368.366	97.45
368.577	54.44
368.788	15.53
368.999	60.59
369.209	58.54
369.42	72.87
369.631	42.15
369.842	38.06
370.053	70.83
370.264	48.3
370.474	56.49
370.685	15.53
370.896	48.3
371.107	42.15
371.317	64.68
371.528	29.87
371.739	111.78
371.95	38.06
372.16	87.21
372.371	-4.95
372.582	95.4
372.792	58.54
373.003	79.02
373.214	74.92
373.424	52.39
373.635	1.19
373.846	64.68
374.056	21.67
374.267	48.3
374.477	103.59
374.688	103.59
374.898	76.97
375.109	-41.81
375.319	111.78
375.53	105.64
375.74	40.11
375.951	46.25
376.161	54.44
376.372	42.15
376.582	33.96
376.793	74.92
377.003	7.34
377.214	-21.33
377.424	187.56
377.635	56.49
377.845	79.02
378.055	48.3
378.266	160.94
378.476	7.34
378.686	111.78
378.897	99.5
379.107	93.35
379.317	156.84
379.528	101.55
379.738	148.65
379.948	-19.29
380.158	74.92
380.369	103.59
380.579	62.63
380.789	83.11
380.999	-11.09
381.21	27.82
381.42	103.59
381.63	52.39
381.84	42.15
382.05	70.83
382.261	87.21
382.471	15.53
382.681	21.67
382.891	140.46
383.101	64.68
383.311	-19.29
383.521	54.44
383.731	95.4
383.941	72.87
384.151	21.67
384.361	23.72
384.571	91.31
384.781	70.83
384.991	70.83
385.201	111.78
385.411	148.65
385.621	58.54
385.831	11.43
386.041	87.21
386.251	72.87
386.461	46.25
386.671	11.43
386.881	76.97
387.091	7.34
387.301	95.4
387.511	62.63
387.72	76.97
387.93	72.87
388.14	62.63
388.35	-27.48
388.56	138.41
388.769	97.45
388.979	148.65
389.189	-31.57
389.399	54.44
389.609	249
389.818	142.5
390.028	60.59
390.238	74.92
390.447	27.82
390.657	58.54
390.867	97.45
391.076	81.07
391.286	89.26
391.496	48.3
391.705	81.07
391.915	87.21
392.125	62.63
392.334	25.77
392.544	130.22
392.753	52.39
392.963	29.87
393.172	81.07
393.382	25.77
393.591	93.35
393.801	56.49
394.01	117.93
394.22	-17.24
394.429	111.78
394.639	103.59
394.848	95.4
395.058	93.35
395.267	38.06
395.477	72.87
395.686	132.26
395.895	185.51
396.105	113.83
396.314	83.11
396.524	140.46
396.733	136.36
396.942	101.55
397.152	72.87
397.361	111.78
397.57	146.6
397.78	70.83
397.989	128.17
398.198	185.51
398.407	111.78
398.617	173.22
398.826	134.31
399.035	128.17
399.244	58.54
399.453	144.55
399.663	119.98
399.872	162.98
400.081	38.06
400.29	136.36
400.499	70.83
400.708	79.02
400.917	68.78
401.127	113.83
401.336	105.64
401.545	138.41
401.754	173.22
401.963	117.93
402.172	62.63
402.381	87.21
402.59	144.55
402.799	89.26
403.008	212.14
403.217	111.78
403.426	199.85
403.635	122.02
403.844	97.45
404.053	156.84
404.262	234.66
404.471	152.74
404.68	162.98
404.888	230.57
405.097	181.42
405.306	136.36
405.515	224.42
405.724	138.41
405.933	220.33
406.142	197.8
406.35	222.38
406.559	185.51
406.768	236.71
406.977	296.1
407.185	212.14
407.394	228.52
407.603	177.32
407.812	326.82
408.02	357.54
408.229	275.62
408.438	224.42
408.646	275.62
408.855	296.1
409.064	308.39
409.272	304.29
409.481	265.38
409.69	328.87
409.898	281.77
410.107	386.21
410.315	388.26
410.524	476.32
410.733	482.47
410.941	433.32
411.15	515.23
411.358	527.52
411.567	529.57
411.775	423.08
411.984	472.23
412.192	511.14
412.401	523.43
412.609	537.76
412.818	627.87
413.026	656.54
413.234	552.1
413.443	580.77
413.651	652.45
413.86	717.98
414.068	785.57
414.276	681.12
414.485	738.46
414.693	748.7
414.901	865.44
415.11	832.67
415.318	814.24
415.526	898.2
415.734	939.16
415.943	1043.61
416.151	973.98
416.359	930.97
416.567	963.74
416.776	1080.47
416.984	1217.69
417.192	1229.98
417.4	1244.31
417.608	1229.98
417.817	1303.7
418.025	1334.42
418.233	1369.24
418.441	1397.91
418.649	1514.64
418.857	1588.37
419.065	1535.12
419.273	1594.51
419.481	1621.14
419.689	1744.02
419.897	1768.59
420.105	1799.31
420.313	1873.04
420.521	1842.32
420.729	1926.29
420.937	1959.05
421.145	2184.33
421.353	2210.95
421.561	2319.5
421.769	2282.63
421.977	2489.48
422.185	2376.84
422.393	2630.79
422.601	2636.93
422.809	2643.07
423.017	2747.52
423.224	2755.71
423.432	3028.09
423.64	2864.25
423.848	3103.87
424.056	3200.12
424.263	3363.96
424.471	3495.03
424.679	3472.5
424.887	3560.56
425.094	3789.94
425.302	3857.52
425.51	3798.13
425.718	4101.23
425.925	4070.51
426.133	4248.68
426.341	4420.71
426.548	4539.49
426.756	4762.72
426.964	4734.05
427.171	5006.43
427.379	5067.87
427.586	5362.78
427.794	5370.97
428.001	5590.1
428.209	6018.13
428.417	5764.18
428.624	6179.92
428.832	6306.89
429.039	6118.48
429.247	6186.06
429.454	6814.79
429.662	7011.39
429.869	6689.86
430.076	7142.46
430.284	6804.55
430.491	7294.01
430.699	7697.46
430.906	7842.87
431.114	7824.44
431.321	8082.48
431.528	8158.25
431.736	8715.3
431.943	9108.51
432.15	8901.67
432.358	9110.56
432.565	9485.34
432.772	9337.88
432.979	9796.63
433.187	9896.98
433.394	10155.02
433.601	10943.49
433.808	11006.98
434.016	10804.23
434.223	11215.87
434.43	11922.42
434.637	11809.78
434.844	12518.38
435.052	12573.67
435.259	12311.53
435.466	12760.04
435.673	12465.13
435.88	13253.6
436.087	14074.84
436.294	14072.79
436.501	13849.56
436.708	13851.61
436.915	14527.44
437.122	15168.45
437.329	14902.22
437.537	15356.86
437.743	15852.47
437.95	15694.78
438.157	16364.46
438.364	17040.29
438.571	16923.56
438.778	17195.94
438.985	18715.53
439.192	18011.03
439.399	18373.52
439.606	18029.46
439.813	18977.67
440.02	20202.36
440.227	19747.71
440.433	19757.95
440.64	20206.45
440.847	20265.85
441.054	20857.71
441.261	21810.01
441.467	21609.31
441.674	22098.78
441.881	22606.67
442.088	22846.29
442.294	22661.97
442.501	23229.26
442.708	23542.6
442.914	24544.05
443.121	25738.02
443.328	24951.6
443.534	26587.92
443.741	26069.79
443.948	25316.14
444.154	27448.07
444.361	27114.25
444.568	27646.72
444.774	27376.39
444.981	28123.9
445.187	28306.17
445.394	29838.05
445.6	29362.92
445.807	32383.68
446.013	30827.22
446.22	31257.29
446.426	32459.45
446.633	32719.54
446.839	33768.1
447.046	32432.83
447.252	34650.78
447.459	34230.94
447.665	34069.15
447.871	35637.9
448.078	37067.38
448.284	35342.99
448.491	36323.97
448.697	37984.87
448.903	38629.98
449.11	38593.12
449.316	37581.42
449.522	38349.41
449.728	39408.21
449.935	40170.05
450.141	39785.04
450.347	40458.82
450.553	39692.88
450.76	39834.19
450.966	41384.5
451.172	40774.2
451.378	41503.28
451.584	41087.54
451.791	42390.05
451.997	41861.68
452.203	42334.76
452.409	42756.64
452.615	42078.76
452.821	41052.73
453.027	40143.43
453.233	42799.65
453.44	41087.54
453.646	40921.66
453.852	41484.85
454.058	42220.07
454.264	40667.71
454.47	41478.71
454.676	40710.72
454.882	41867.82
455.088	38388.32
455.294	39131.73
455.5	39858.76
455.705	40006.22
455.911	38414.94
456.117	37997.16
456.323	37220.98
456.529	35259.02
456.735	36715.13
456.941	35811.98
457.147	35302.03
457.352	34437.79
457.558	33655.47
457.764	33960.61
457.97	33569.45
458.176	32881.33
458.381	32785.08
458.587	31195.85
458.793	31050.45
458.999	29328.11
459.204	31701.7
459.41	30745.3
459.616	28801.78
459.821	28898.03
460.027	28824.31
460.233	27912.96
460.438	26854.16
460.644	27079.44
460.85	25592.61
461.055	25471.78
461.261	25520.93
461.466	23470.92
461.672	22965.07
461.878	24302.39
462.083	22983.5
462.289	22254.42
462.494	21840.73
462.7	21064.55
462.905	20450.16
463.111	21670.75
463.316	21361.51
463.522	21148.52
463.727	20964.2
463.932	21150.57
464.138	20618.1
464.343	20913
464.549	20165.49
464.754	20581.23
464.959	20560.75
465.165	20386.68
465.37	19366.79
465.575	19016.58
465.781	19884.92
465.986	19909.5
466.191	19381.12
466.397	18846.6
466.602	17798.04
466.807	18721.68
467.012	18723.72
467.218	18604.94
467.423	18133.91
467.628	18666.38
467.833	19213.19
468.038	18439.06
468.244	18127.77
468.449	18676.62
468.654	18256.79
468.859	18002.84
469.064	17556.38
469.269	17042.34
469.474	17183.65
469.679	17386.4
469.885	17130.41
470.09	17324.96
470.295	17124.26
470.5	16749.48
470.705	16919.46
470.91	16745.39
471.115	16423.86
471.32	16466.86
471.525	16495.53
471.73	16200.63
471.935	16176.05
472.139	15422.4
472.344	15702.97
472.549	15571.9
472.754	15682.49
472.959	15268.8
473.164	14752.71
473.369	14695.37
473.574	15172.55
473.778	15115.2
473.983	14769.1
474.188	14642.12
474.393	14087.12
474.598	14166.99
474.802	14066.64
475.007	13718.49
475.212	13917.14
475.417	13296.61
475.621	13663.19
475.826	13528.03
476.031	13245.41
476.235	13114.34
476.44	13308.9
476.645	12837.86
476.849	13077.48
477.054	12841.96
477.259	12606.44
477.463	12440.56
477.668	12278.77
477.872	12329.97
478.077	12129.27
478.282	12035.06
478.486	11916.28
478.691	11789.3
478.895	11824.12
479.1	11635.71
479.304	11744.25
479.509	11394.04
479.713	11525.11
479.918	11277.31
480.122	11041.79
480.326	11379.71
480.531	11281.41
480.735	11209.73
480.94	11181.06
481.144	11326.46
481.348	10841.09
481.553	10961.92
481.757	10656.78
481.961	11017.22
482.166	10920.96
482.37	11062.27
482.574	10587.15
482.778	10654.73
482.983	11035.65
483.187	10961.92
483.391	10988.55
483.595	10537.99
483.8	10761.22
484.004	10777.61
484.208	10937.35
484.412	11000.83
484.616	10906.63
484.821	10902.53
485.025	10449.93
485.229	10841.09
485.433	10617.86
485.637	10843.14
485.841	10621.96
486.045	10664.97
486.249	10732.55
486.453	10714.12
486.657	10777.61
486.861	10712.07
487.065	10486.79
487.269	10923.01
487.473	10626.06
487.677	10763.27
487.881	10892.29
488.085	10763.27
488.289	10746.89
488.493	10796.04
488.697	10750.98
488.901	10664.97
489.105	10710.02
489.309	10949.64
489.512	11019.27
489.716	11056.13
489.92	11082.75
490.124	10929.16
490.328	11088.9
490.531	10908.68
490.735	11328.51
490.939	11009.03
491.143	11099.14
491.346	10966.02
491.55	11179.01
491.754	11256.83
491.958	11271.17
492.161	11686.9
492.365	11365.37
492.569	11355.13
492.772	11103.23
492.976	11490.3
493.18	11478.01
493.383	12008.44
493.587	11803.64
493.79	11848.69
493.994	11899.89
494.197	11977.72
494.401	11942.9
494.605	11977.72
494.808	12350.45
495.012	12407.79
495.215	12407.79
495.419	12327.92
495.622	12319.73
495.825	12598.25
496.029	12377.07
496.232	12780.52
496.436	12725.22
496.639	13290.46
496.843	13032.42
497.046	13169.63
497.249	13214.69
497.453	13284.32
497.656	13667.29
497.859	13566.94
498.063	13972.44
498.266	14121.94
498.469	14095.32
498.673	14234.58
498.876	14240.72
499.079	14873.54
499.282	14662.6
499.485	14816.2
499.689	14674.89
499.892	15219.65
500.095	15107.01
500.298	15645.63
500.501	15473.6
500.705	15715.26
500.908	16079.8
501.111	16030.65
501.314	15973.3
501.517	16307.12
501.72	16683.95
501.923	16454.58
502.126	17050.53
502.329	17146.79
502.532	17318.82
502.735	17392.55
502.938	17697.69
503.141	17810.33
503.344	17945.5
503.547	18117.53
503.75	18453.39
503.953	18555.79
504.156	18891.66
504.359	18797.45
504.562	19073.93
504.765	19590.02
504.968	19213.19
505.17	19815.29
505.373	19921.79
505.576	20265.85
505.779	20394.87
505.982	20538.23
506.185	20763.5
506.387	20941.68
506.59	21099.37
506.793	21486.43
506.996	21326.69
507.198	22102.87
507.401	21893.98
507.604	22305.62
507.807	22754.13
508.009	22897.49
508.212	23018.32
508.415	23202.63
508.617	23432.01
508.82	23552.84
509.022	23767.87
509.225	24179.51
509.428	24195.9
509.63	24552.24
509.833	24695.6
510.035	25318.18
510.238	25383.72
510.44	25185.07
510.643	25635.62
510.845	26250.01
511.048	25819.94
511.25	26235.67
511.453	26655.51
511.655	27464.46
511.858	27220.75
512.06	27347.72
512.262	27517.7
512.465	27525.89
512.667	28242.68
512.87	28408.57
513.072	28883.7
513.274	29037.3
513.477	29295.34
513.679	29651.69
513.881	29938.4
514.084	29940.45
514.286	29784.8
514.488	30595.8
514.69	31222.48
514.893	31242.96
515.095	31234.77
515.297	31347.4
515.499	31789.77
515.701	32195.26
515.904	32549.56
516.106	32666.3
516.308	32678.58
516.51	33112.75
516.712	33428.14
516.914	33682.09
517.116	34097.83
517.318	34185.89
517.52	34210.46
517.722	34368.16
517.925	34583.19
518.127	35429.01
518.329	35748.49
518.531	35474.06
518.733	36483.71
518.935	36369.02
519.136	36471.42
519.338	37276.27
519.54	37372.53
519.742	37458.54
519.944	38185.57
520.146	38312.55
520.348	38404.7
520.55	38406.75
520.752	38695.52
520.954	39701.07
521.155	39135.83
521.357	40118.85
521.559	39850.57
521.761	40446.53
521.963	40798.78
522.164	40571.46
522.366	40424
522.568	41099.83
522.77	41396.79
522.971	41902.64
523.173	41820.72
523.375	42064.42
523.576	41923.11
523.778	42498.59
523.98	42877.47
524.181	43231.77
524.383	43051.55
524.584	43299.35
524.786	43848.21
524.988	43364.88
525.189	43981.32
525.391	43956.75
525.592	44268.04
525.794	44679.68
525.995	44364.29
526.197	44544.51
526.398	44876.29
526.6	45007.36
526.801	45085.18
527.003	45318.65
527.204	44790.27
527.406	45912.56
527.607	45722.1
527.808	46006.76
528.01	45515.25
528.211	45642.23
528.412	47127
528.614	46291.43
528.815	46475.75
529.016	46621.16
529.218	46557.67
529.419	47096.28
529.62	46852.58
529.822	46922.21
530.023	47036.89
530.224	47350.23
530.425	46731.75
530.626	46901.73
530.828	46490.09
531.029	48093.64
531.23	47350.23
531.431	47538.65
531.632	47428.05
531.833	47888.85
532.035	47778.26
532.236	47698.39
532.437	47606.23
532.638	47679.96
532.839	47786.45
533.04	47829.46
533.241	47876.56
533.442	48302.54
533.643	48126.41
533.844	47759.83
534.045	48267.72
534.246	47583.7
534.447	48253.39
534.648	48194
534.849	48185.8
535.05	47743.44
535.251	48048.59
535.451	47755.73
535.652	48218.57
535.853	47948.24
536.054	48259.53
536.255	48245.19
536.456	47698.39
536.657	48751.04
536.857	48064.97
537.058	47649.24
537.259	48382.41
537.46	48081.36
537.66	48267.72
537.861	48390.6
538.062	48351.69
538.263	48194
538.463	48171.47
538.664	48083.4
538.865	48220.62
539.065	48396.74
539.266	47851.98
539.466	48249.29
539.667	47978.96
539.868	48261.58
540.068	48124.36
540.269	47833.55
540.469	48636.36
540.67	47825.36
540.87	48179.66
541.071	48411.08
541.271	48359.88
541.472	48095.69
541.672	48056.78
541.873	47874.51
542.073	47339.99
542.274	48230.86
542.474	47933.9
542.675	47608.28
542.875	48026.06
543.075	48026.06
543.276	47587.8
543.476	48417.22
543.676	47634.9
543.877	47933.9
544.077	47958.48
544.277	47737.3
544.478	48079.31
544.678	47929.81
544.878	47774.16
545.078	48052.69
545.279	47643.09
545.479	47964.62
545.679	47673.81
545.879	47706.58
546.079	47509.97
546.28	47655.38
546.48	47581.65
546.68	47501.78
546.88	47768.02
547.08	47745.49
547.28	47765.97
547.48	47573.46
547.68	47358.42
547.88	47655.38
548.081	47860.18
548.281	47581.65
548.481	47458.77
548.681	47698.39
548.881	47548.89
549.081	47667.67
549.28	47403.48
549.48	47563.22
549.68	47639
549.88	48155.08
550.08	47319.51
550.28	47655.38
550.48	47395.29
550.68	47792.59
550.88	47577.56
551.08	47274.46
551.279	47833.55
551.479	47137.24
551.679	47081.95
551.879	47276.51
552.079	47606.23
552.278	47092.19
552.478	47669.72
552.678	47630.8
552.878	47733.2
553.077	47270.36
553.277	47012.32
553.477	47481.3
553.676	47352.28
553.876	47047.13
554.076	47253.98
554.275	46844.38
554.475	46762.47
554.674	47094.24
554.874	46690.79
555.074	46973.41
555.273	47114.72
555.473	47260.12
555.672	46375.4
555.872	46617.06
556.071	46770.66
556.271	46903.77
556.47	46469.61
556.67	46186.99
556.869	46322.15
557.068	46615.01
557.268	46668.26
557.467	46309.86
557.667	46713.31
557.866	46047.72
558.065	46596.58
558.265	46160.36
558.464	46197.23
558.663	46473.7
558.863	45679.09
559.062	46434.79
559.261	45746.67
559.461	46447.08
559.66	45935.09
559.859	46229.99
560.058	45554.16
560.258	45799.92
560.457	45550.07
560.656	46113.26
560.855	45834.74
561.054	45859.31
561.253	45181.43
561.453	45656.56
561.652	45894.13
561.851	45672.95
562.05	45627.89
562.249	45154.81
562.448	45509.11
562.647	44917.25
562.846	45191.67
563.045	45517.3
563.244	44456.45
563.443	45533.68
563.642	44802.56
563.841	44771.84
564.04	44933.63
564.239	45025.79
564.438	44386.82
564.637	44708.35
564.836	44708.35
565.035	44509.7
565.234	44595.71
565.432	44392.97
565.631	44288.52
565.83	44468.74
566.029	43983.37
566.228	43942.41
566.427	44126.73
566.625	43876.88
566.824	43614.74
567.023	44151.3
567.222	43276.82
567.42	43698.7
567.619	43756.05
567.818	43608.59
568.016	43354.65
568.215	43362.84
568.414	43209.24
568.612	43338.26
568.811	42805.79
569.01	42877.47
569.208	42600.99
569.407	43248.15
569.605	42574.37
569.804	43055.64
570.002	42564.13
570.201	42807.84
570.4	42330.66
570.598	42023.47
570.797	41933.35
570.995	42236.45
571.193	41818.67
571.392	42066.47
571.59	42129.96
571.789	41617.97
571.987	41599.54
572.186	41503.28
572.384	41703.98
572.582	42089
572.781	41796.14
572.979	40911.42
573.177	41493.04
573.376	41292.34
573.574	40677.95
573.772	41091.64
573.971	40723.01
574.169	40682.05
574.367	40387.14
574.565	40643.13
574.763	40516.16
574.962	40378.95
575.16	40446.53
575.358	40587.84
575.556	39807.56
575.754	40110.66
575.952	39629.39
576.151	40440.39
576.349	39395.92
576.547	39770.7
576.745	39719.5
576.943	39764.56
577.141	39559.76
577.339	39762.51
577.537	39461.46
577.735	39283.28
577.933	38871.64
578.131	39221.84
578.329	38804.06
578.527	38558.3
578.725	38759
578.923	38765.15
579.121	38330.98
579.319	38609.5
579.516	38433.38
579.714	38134.37
579.912	38117.99
580.11	38412.9
580.308	37829.23
580.506	37689.96
580.704	37284.47
580.901	37847.66
581.099	38077.03
581.297	37300.85
581.495	37454.45
581.692	37843.56
581.89	37374.58
582.088	37589.61
582.285	37134.96
582.483	37347.95
582.681	37104.24
582.878	36725.37
583.076	36602.49
583.274	37173.88
583.471	36008.58
583.669	36543.1
583.866	36479.61
584.064	36514.43
584.262	36293.25
584.459	36217.47
584.657	35945.09
584.854	36217.47
585.052	35639.95
585.249	36127.36
585.447	35711.63
585.644	35689.1
585.841	35779.21
586.039	35887.75
586.236	35105.43
586.434	35406.48
586.631	35162.77
586.828	35187.35
587.026	35019.41
587.223	35250.83
587.42	34734.74
587.618	34681.5
587.815	34443.93
588.012	34466.46
588.21	34222.75
588.407	34603.67
588.604	34691.74
588.801	34302.62
588.999	34251.42
589.196	34073.25
589.393	33847.97
589.59	33888.93
589.787	33653.42
589.984	33735.34
590.182	33032.88
590.379	33587.88
590.576	33284.78
590.773	33544.87
590.97	33262.26
591.167	33325.74
591.364	32651.96
591.561	33045.17
591.758	32797.37
591.955	33084.08
592.152	32899.76
592.349	32533.18
592.546	32334.53
592.743	32574.14
592.94	32240.32
593.137	32621.24
593.334	32332.48
593.531	32074.43
593.727	31947.46
593.924	31896.26
594.121	31627.98
594.318	31969.99
594.515	31476.43
594.712	31937.22
594.908	31398.6
595.105	31736.52
595.302	31380.17
595.499	31537.87
595.696	31400.65
595.892	30956.24
596.089	31337.16
596.286	31064.78
596.482	31245.01
596.679	30667.48
596.876	30872.28
597.072	30896.85
597.269	30409.43
597.466	30190.3
597.662	30231.26
597.859	30280.41
598.055	30386.91
598.252	30307.04
598.448	30462.68
598.645	29821.67
598.841	29922.02
599.038	29625.06
599.234	29874.91
599.431	29319.92
599.627	29303.53
599.824	29512.42
600.02	29453.03
600.217	29276.91
600.413	29154.03
600.609	29270.76
600.806	28803.83
601.002	29424.36
601.198	29041.39
601.395	28893.94
601.591	28521.21
601.787	28887.79
601.984	28373.75
602.18	28822.26
602.376	28535.54
602.572	28547.83
602.769	28232.44
602.965	28195.58
603.161	28181.24
603.357	28162.81
603.553	27706.12
603.75	28070.65
603.946	27650.82
604.142	27820.8
604.338	27562.76
604.534	27880.19
604.73	27497.22
604.926	27446.02
605.122	27577.09
605.318	27147.02
605.514	27339.53
605.71	27187.98
605.906	27067.15
606.102	26993.42
606.298	27073.29
606.494	26940.18
606.69	26669.84
606.886	26966.8
607.082	26477.33
607.278	26907.41
607.474	26352.41
607.67	26686.23
607.866	25994.01
608.062	26721.04
608.257	26358.55
608.453	26280.73
608.649	26262.3
608.845	25932.57
609.041	26534.68
609.236	26135.32
609.432	25983.77
609.628	25664.29
609.824	25922.34
610.019	25680.67
610.215	25756.45
610.411	25940.77
610.606	25647.91
610.802	25592.61
610.998	25428.77
611.193	25842.46
611.389	25260.84
611.584	25326.38
611.78	25353
611.976	25178.92
612.171	25463.59
612.367	25099.05
612.562	25176.87
612.758	24787.76
612.953	24931.12
613.149	25289.51
613.344	24691.51
613.539	25115.44
613.735	25144.11
613.93	24812.34
614.126	24554.29
614.321	24978.22
614.517	24804.14
614.712	24748.85
614.907	24617.78
615.103	24769.33
615.298	24470.33
615.493	24861.49
615.688	24462.13
615.884	24724.27
616.079	24171.32
616.274	24419.13
616.47	24218.43
616.665	24339.26
616.86	24060.73
617.055	24073.02
617.25	24089.4
617.445	24079.16
617.641	23528.26
617.836	23960.38
618.031	23550.79
618.226	23788.35
618.421	23739.2
618.616	23823.17
618.811	23300.94
619.006	23581.51
619.201	23001.93
619.396	23599.94
619.591	22797.13
619.786	23489.35
619.981	22868.81
620.176	23272.26
620.371	22764.37
620.566	22928.2
620.761	22547.28
620.956	22756.18
621.151	22491.99
621.346	22676.3
621.541	21893.98
621.735	22338.39
621.93	21871.45
622.125	22119.26
622.32	21783.39
622.515	21670.75
622.709	21664.61
622.904	21846.88
623.099	21246.82
623.294	21484.39
623.488	21087.08
623.683	21132.14
623.878	21011.31
624.072	20978.54
624.267	20804.46
624.462	20605.81
624.656	20376.44
624.851	20740.97
625.046	20478.83
625.24	20312.95
625.435	20192.12
625.629	20364.15
625.824	19805.05
626.018	19694.46
626.213	19153.8
626.407	19821.44
626.602	19626.88
626.796	19553.15
626.991	19424.13
627.185	19536.77
627.38	19024.78
627.574	18727.82
627.768	18953.1
627.963	18817.93
628.157	18666.38
628.352	18967.43
628.546	18250.64
628.74	18613.13
628.935	18140.05
629.129	18381.71
629.323	17990.55
629.517	18420.63
629.712	18051.99
629.906	17826.71
630.1	17666.97
630.294	17763.23
630.489	17757.08
630.683	17953.69
630.877	17161.12
631.071	17230.76
631.265	17427.36
631.459	17120.17
631.653	17281.95
631.848	17122.21
632.042	16700.33
632.236	16972.71
632.43	16665.52
632.624	16751.53
632.818	16587.69
633.012	16378.8
633.206	16374.7
633.4	16679.85
633.594	16067.51
633.788	16212.92
633.982	16112.56
634.176	16186.29
634.369	15889.34
634.563	15893.43
634.757	15770.55
634.951	15707.07
635.145	15604.67
635.339	15668.16
635.533	15453.12
635.726	15494.08
635.92	14955.46
636.114	15133.64
636.308	15240.13
636.501	15045.57
636.695	15037.38
636.889	14930.89
637.083	14894.02
637.276	14678.99
637.47	14662.6
637.664	14611.4
637.857	14410.7
638.051	14521.29
638.244	14236.63
638.438	14126.04
638.632	14103.51
638.825	14121.94
639.019	14113.75
639.212	14015.44
639.406	13915.09
639.599	13702.11
639.793	13849.56
639.986	13624.28
640.18	13933.53
640.373	13624.28
640.567	13544.41
640.76	13579.23
640.954	13382.62
641.147	13243.36
641.34	13130.72
641.534	13243.36
641.727	13089.76
641.92	12964.84
642.114	12962.79
642.307	12788.71
642.5	12792.81
642.694	12731.37
642.887	12637.16
643.08	12751.85
643.273	12379.12
643.467	12547.05
643.66	12194.8
643.853	12264.43
644.046	12053.49
644.239	12246
644.432	12139.51
644.626	12030.96
644.819	11916.28
645.012	11889.65
645.205	11867.13
645.398	11949.04
645.591	11807.73
645.784	11811.83
645.977	11631.61
646.17	11613.18
646.363	11410.43
646.556	11363.33
646.749	11277.31
646.942	11459.58
647.135	11445.24
647.328	11363.33
647.521	11088.9
647.714	11074.56
647.907	11148.29
648.099	10884.1
648.292	10855.43
648.485	10834.95
648.678	10523.66
648.871	10581
649.064	10513.42
649.256	10630.15
649.449	10599.43
649.642	10408.97
649.835	10347.53
650.027	10458.12
650.22	10314.77
650.413	10359.82
650.605	10372.11
650.798	10222.61
650.991	10122.26
651.183	10146.83
651.376	10261.52
651.568	10001.43
651.761	9794.58
651.954	9761.81
652.146	9739.29
652.339	9747.48
652.531	9706.52
652.724	9708.57
652.916	9491.48
653.109	9505.82
653.301	9460.76
653.494	9569.3
653.686	9147.42
653.879	9397.28
654.071	9354.27
654.263	9014.31
654.456	9102.37
654.648	9296.92
654.84	9053.22
655.033	8879.14
655.225	8916
655.417	9112.61
655.61	8870.95
655.802	8860.71
655.994	8913.95
656.186	8784.93
656.379	8860.71
656.571	8680.49
656.763	8561.7
656.955	8508.46
657.148	8649.77
657.34	8530.98
657.532	8541.22
657.724	8461.35
657.916	8330.28
658.108	8399.91
658.3	8223.79
658.492	8225.84
658.684	8248.36
658.876	8156.21
659.068	8256.56
659.26	8010.8
659.452	8025.14
659.644	8031.28
659.836	7836.72
660.028	7998.51
660.22	7701.56
660.412	7953.46
660.604	7642.17
660.796	7812.15
660.988	7871.54
661.18	7478.33
661.372	7576.63
661.563	7795.76
661.755	7556.15
661.947	7648.31
662.139	7427.13
662.331	7404.6
662.522	7416.89
662.714	7447.61
662.906	7304.25
663.097	7441.47
663.289	7369.79
663.481	7136.32
663.673	7337.02
663.864	7238.72
664.056	7167.04
664.247	7115.84
664.439	6945.86
664.631	7011.39
664.822	6964.29
665.014	6945.86
665.205	6857.79
665.397	6919.23
665.588	6900.8
665.78	6804.55
665.971	6812.74
666.163	6814.79
666.354	6698.05
666.546	6716.48
666.737	6591.56
666.929	6571.08
667.12	6677.57
667.311	6538.31
667.503	6427.72
667.694	6517.83
667.885	6329.42
668.077	6530.12
668.268	6345.8
668.459	6329.42
668.651	6425.67
668.842	6378.57
669.033	6153.29
669.224	6200.4
669.416	6341.71
669.607	6247.5
669.798	6095.95
669.989	6098
670.18	6075.47
670.371	5993.55
670.563	5985.36
670.754	6020.17
670.945	5960.78
671.136	5831.76
671.327	5895.25
671.518	5837.91
671.709	5829.71
671.9	5880.91
672.091	5911.63
672.282	5579.86
672.473	5588.05
672.664	5758.03
672.855	5755.99
673.046	5698.64
673.237	5788.75
673.428	5708.88
673.619	5629.01
673.809	5618.77
674	5536.85
674.191	5600.34
674.382	5600.34
674.573	5336.15
674.764	5569.62
674.954	5387.35
675.145	5530.71
675.336	5399.64
675.527	5454.94
675.717	5350.49
675.908	5260.38
676.099	5307.48
676.289	5370.97
676.48	5469.27
676.671	5153.88
676.861	5287
677.052	5207.13
677.243	5250.14
677.433	5145.69
677.624	5463.13
677.814	5223.51
678.005	5276.76
678.195	5233.75
678.386	5221.47
678.576	5092.44
678.767	5037.15
678.957	5207.13
679.148	5166.17
679.338	5037.15
679.529	5006.43
679.719	4963.42
679.909	4891.74
680.1	4994.14
680.29	5063.77
680.481	4844.64
680.671	4985.95
680.861	4858.98
681.052	4893.79
681.242	4879.46
681.432	4883.55
681.622	4680.8
681.813	4820.07
682.003	4988
682.193	4949.09
682.383	4867.17
682.573	4709.47
682.764	4891.74
682.954	4764.77
683.144	4734.05
683.334	4678.76
683.524	4713.57
683.714	4658.28
683.904	4674.66
684.094	4699.23
684.284	4658.28
684.474	4668.52
684.664	4502.63
684.854	4572.26
685.044	4557.93
685.234	4451.43
685.424	4523.11
685.614	4537.45
685.804	4529.25
685.994	4486.25
686.184	4361.32
686.374	4473.96
686.564	4461.67
686.753	4463.72
686.943	4283.5
687.133	4496.49
687.323	4289.64
687.513	4389.99
687.702	4369.51
687.892	4271.21
688.082	4187.24
688.272	4320.36
688.461	4211.82
688.651	4367.46
688.841	4134
689.03	4109.42
689.22	4117.61
689.41	4207.72
689.599	4199.53
689.789	4099.18
689.979	4263.02
690.168	4134
690.358	4043.88
690.547	4150.38
690.737	3964.01
690.926	4047.98
691.116	3941.49
691.305	4023.41
691.495	3955.82
691.684	3959.92
691.874	3867.76
692.063	3863.66
692.252	3832.94
692.442	3945.58
692.631	3906.67
692.82	3859.57
693.01	4027.5
693.199	3826.8
693.388	3783.79
693.578	3824.75
693.767	3757.17
693.956	3781.74
694.146	3740.79
694.335	3712.11
694.524	3658.87
694.713	3638.39
694.902	3665.01
695.092	3650.67
695.281	3632.24
695.47	3624.05
695.659	3732.59
695.848	3712.11
696.037	3609.72
696.226	3669.11
696.415	3593.33
696.604	3724.4
696.793	3671.15
696.982	3585.14
697.171	3581.04
697.36	3550.32
697.549	3513.46
697.738	3585.14
697.927	3593.33
698.116	3521.65
698.305	3482.74
698.494	3576.95
698.683	3400.82
698.872	3546.23
699.061	3488.89
699.25	3566.71
699.438	3568.76
699.627	3404.92
699.816	3499.13
700.005	3607.67
700.193	3325.05
700.382	3374.2
700.571	3548.28
700.76	3425.4
700.948	3425.4
701.137	3333.24
701.326	3402.87
701.514	3343.48
701.703	3318.9
701.892	3267.7
702.08	3310.71
702.269	3466.36
702.457	3339.38
702.646	3341.43
702.834	3232.89
703.023	3406.97
703.212	3347.58
703.4	3265.66
703.589	3267.7
703.777	3370.1
703.965	3179.64
704.154	3085.44
704.342	3114.11
704.531	3363.96
704.719	3114.11
704.907	3331.19
705.096	3368.06
705.284	3318.9
705.472	3357.82
705.661	3173.5
705.849	3179.64
706.037	3220.6
706.226	3159.16
706.414	3107.96
706.602	3214.46
706.79	3208.31
706.979	3185.79
707.167	3126.39
707.355	3007.61
707.543	3181.69
707.731	3044.48
707.919	3062.91
708.107	3175.55
708.296	3081.34
708.484	3073.15
708.672	3060.86
708.86	3040.38
709.048	2995.32
709.236	2925.69
709.424	2962.56
709.612	3159.16
709.8	2929.79
709.988	2937.98
710.176	2991.23
710.364	3118.2
710.551	3032.19
710.739	2995.32
710.927	2970.75
711.115	3040.38
711.303	2915.45
711.491	2999.42
711.679	2913.41
711.866	3005.56
712.054	2962.56
712.242	2899.07
712.43	2940.03
712.617	2950.27
712.805	2806.91
712.993	2847.87
713.181	2784.38
713.368	2929.79
713.556	2772.1
713.744	2815.1
713.931	2933.89
714.119	2909.31
714.306	2937.98
714.494	2847.87
714.682	2968.7
714.869	2802.82
715.057	2851.97
715.244	2737.28
715.432	2849.92
715.619	2806.91
715.807	2858.11
715.994	2788.48
716.182	2854.02
716.369	2872.45
716.556	2909.31
716.744	2743.42
716.931	2745.47
717.119	2716.8
717.306	2735.23
717.493	2714.75
717.681	2651.27
717.868	2712.71
718.055	2724.99
718.242	2634.88
718.43	2628.74
718.617	2645.12
718.804	2763.9
718.991	2706.56
719.179	2665.6
719.366	2684.03
719.553	2688.13
719.74	2618.5
719.927	2708.61
720.114	2712.71
720.301	2636.93
720.488	2671.75
720.676	2645.12
720.863	2454.66
721.05	2731.14
721.237	2546.82
721.424	2620.55
721.611	2612.35
721.798	2602.11
721.985	2524.29
722.172	2473.09
722.358	2448.52
722.545	2595.97
722.732	2483.33
722.919	2481.28
723.106	2563.2
723.293	2460.81
723.48	2538.63
723.667	2522.24
723.853	2503.81
724.04	2550.92
724.227	2512
724.414	2387.08
724.6	2434.18
724.787	2421.89
724.974	2489.48
725.161	2475.14
725.347	2428.04
725.534	2458.76
725.72	2436.23
725.907	2368.65
726.094	2462.85
726.28	2464.9
726.467	2407.56
726.653	2264.2
726.84	2438.28
727.027	2530.44
727.213	2428.04
727.4	2464.9
727.586	2487.43
727.773	2368.65
727.959	2423.94
728.145	2219.14
728.332	2421.89
728.518	2339.97
728.705	2421.89
728.891	2397.32
729.077	2471.04
729.264	2421.89
729.45	2348.17
729.636	2395.27
729.823	2286.73
730.009	2344.07
730.195	2231.43
730.382	2335.88
730.568	2321.54
730.754	2292.87
730.94	2307.21
731.126	2329.74
731.313	2315.4
731.499	2344.07
731.685	2294.92
731.871	2251.91
732.057	2280.58
732.243	2206.86
732.429	2290.82
732.615	2253.96
732.801	2208.9
732.987	2223.24
733.173	2184.33
733.359	2264.2
733.545	2241.67
733.731	2258.06
733.917	2274.44
734.103	2106.51
734.289	2247.82
734.475	2073.74
734.661	2194.57
734.847	2253.96
735.033	2237.58
735.219	2129.03
735.404	2153.61
735.59	2129.03
735.776	2180.23
735.962	2169.99
736.148	2026.64
736.333	2043.02
736.519	2180.23
736.705	2210.95
736.89	2133.13
737.076	2038.92
737.262	2118.79
737.447	2053.26
737.633	2028.68
737.819	2104.46
738.004	2133.13
738.19	2014.35
738.375	2129.03
738.561	2055.31
738.747	2133.13
738.932	1989.77
739.118	2120.84
739.303	2161.8
739.489	2014.35
739.674	2102.41
739.859	2016.4
740.045	1989.77
740.23	1979.53
740.416	1983.63
740.601	2008.2
740.786	2063.5
740.972	1971.34
741.157	1954.96
741.342	1938.57
741.528	1975.44
741.713	1957
741.898	1963.15
742.084	1914
742.269	1950.86
742.454	1922.19
742.639	1940.62
742.824	1895.57
743.01	2018.44
743.195	1920.14
743.38	1868.94
743.565	1784.98
743.75	1848.46
743.935	1807.5
744.12	1780.88
744.305	1690.77
744.49	1875.09
744.675	1801.36
744.86	1787.02
745.045	1885.33
745.23	1791.12
745.415	1850.51
745.6	1864.85
745.785	1782.93
745.97	1690.77
746.155	1832.08
746.34	1840.27
746.525	1760.4
746.71	1784.98
746.895	1737.87
747.079	1660.05
747.264	1662.1
747.449	1645.71
747.634	1705.1
747.819	1748.11
748.003	1565.84
748.188	1651.86
748.373	1692.82
748.557	1600.66
748.742	1684.62
748.927	1549.46
749.111	1584.27
749.296	1574.03
749.481	1553.55
749.665	1555.6
749.85	1422.48
750.034	1565.84
750.219	1449.11
750.404	1547.41
750.588	1492.12
750.773	1373.33
750.957	1463.44
751.141	1496.21
751.326	1506.45
751.51	1307.8
751.695	1389.72
751.879	1332.37
752.064	1496.21
752.248	1434.77
752.432	1397.91
752.617	1350.81
752.801	1406.1
752.985	1340.57
753.17	1408.15
753.354	1363.09
753.538	1414.29
753.722	1313.94
753.907	1311.89
754.091	1275.03
754.275	1266.84
754.459	1297.56
754.643	1184.92
754.828	1270.94
755.012	1320.09
755.196	1289.37
755.38	1260.7
755.564	1184.92
755.748	1180.82
755.932	1217.69
756.116	1301.65
756.3	1166.49
756.484	1201.3
756.668	1258.65
756.852	1201.3
757.036	1227.93
757.22	1148.06
757.404	1195.16
757.588	1080.47
757.772	1197.21
757.956	1127.58
758.14	1246.36
758.323	1105.05
758.507	1070.23
758.691	1078.43
758.875	1113.24
759.059	1184.92
759.242	1037.47
759.426	1002.65
759.61	1041.56
759.794	1043.61
759.977	1086.62
760.161	1012.89
760.345	1029.27
760.528	1070.23
760.712	1025.18
760.895	961.69
761.079	990.36
761.263	992.41
761.446	902.3
761.63	1002.65
761.813	1012.89
761.997	990.36
762.18	978.08
762.364	986.27
762.547	857.25
762.731	992.41
762.914	982.17
763.098	965.79
763.281	898.2
763.464	973.98
763.648	990.36
763.831	783.52
764.015	959.64
764.198	947.36
764.381	920.73
764.564	959.64
764.748	922.78
764.931	851.1
765.114	830.62
765.297	980.12
765.481	801.95
765.664	980.12
765.847	842.91
766.03	1014.94
766.213	896.16
766.397	822.43
766.58	826.53
766.763	967.84
766.946	838.81
767.129	822.43
767.312	828.57
767.495	859.29
767.678	844.96
767.861	834.72
768.044	783.52
768.227	842.91
768.41	820.38
768.593	861.34
768.776	779.42
768.959	797.85
769.142	824.48
769.324	808.09
769.507	869.53
769.69	840.86
769.873	816.29
770.056	769.18
770.239	777.37
770.421	855.2
770.604	816.29
770.787	838.81
770.97	748.7
771.152	763.04
771.335	746.66
771.518	685.22
771.7	828.57
771.883	828.57
772.066	791.71
772.248	689.31
772.431	670.88
772.613	783.52
772.796	769.18
772.978	658.59
773.161	808.09
773.343	683.17
773.526	693.41
773.708	685.22
773.891	705.7
774.073	734.37
774.256	695.46
774.438	806.05
774.621	726.18
774.803	711.84
774.985	677.02
775.168	677.02
775.35	701.6
775.532	664.74
775.715	656.54
775.897	660.64
776.079	681.12
776.261	629.92
776.444	613.54
776.626	677.02
776.808	621.73
776.99	631.97
777.173	631.97
777.355	685.22
777.537	629.92
777.719	685.22
777.901	619.68
778.083	605.35
778.265	679.07
778.447	613.54
778.629	539.81
778.811	533.67
778.993	564.39
779.175	586.91
779.357	603.3
779.539	537.76
779.721	556.19
779.903	564.39
780.085	513.19
780.267	599.2
780.449	599.2
780.631	588.96
780.812	588.96
780.994	531.62
781.176	513.19
781.358	550.05
781.54	519.33
781.721	570.53
781.903	521.38
782.085	513.19
782.267	513.19
782.448	496.8
782.63	464.04
782.812	492.71
782.993	500.9
783.175	486.56
783.357	439.46
783.538	529.57
783.72	550.05
783.901	459.94
784.083	472.23
784.264	466.08
784.446	449.7
784.627	390.31
784.809	498.85
784.99	400.55
785.172	429.22
785.353	414.88
785.535	427.17
785.716	414.88
785.897	455.84
786.079	490.66
786.26	459.94
786.441	373.92
786.623	474.28
786.804	425.12
786.985	382.12
787.167	423.08
787.348	285.86
787.529	431.27
787.71	445.6
787.891	398.5
788.073	429.22
788.254	390.31
788.435	406.69
788.616	425.12
788.797	292.01
788.978	429.22
789.159	384.16
789.34	441.51
789.522	392.36
789.703	349.35
789.884	369.83
790.065	423.08
790.246	357.54
790.427	253.09
790.607	263.33
790.788	353.45
790.969	343.21
791.15	369.83
791.331	300.2
791.512	242.85
791.693	324.77
791.874	335.01
792.054	320.68
792.235	392.36
792.416	267.43
792.597	287.91
792.778	263.33
792.958	328.87
793.139	263.33
793.32	277.67
793.5	253.09
793.681	332.97
793.862	283.81
794.042	335.01
794.223	285.86
794.404	312.49
794.584	275.62
794.765	304.29
794.945	328.87
795.126	179.37
795.306	259.24
795.487	181.42
795.667	253.09
795.848	279.72
796.028	312.49
796.209	373.92
796.389	306.34
796.57	355.49
796.75	269.48
796.93	242.85
797.111	277.67
797.291	234.66
797.471	185.51
797.652	226.47
797.832	285.86
798.012	271.53
798.192	193.7
798.373	302.25
798.553	253.09
798.733	253.09
798.913	228.52
799.093	226.47
799.274	238.76
799.454	296.1
799.634	263.33
799.814	242.85
799.994	169.13
800.174	253.09
800.354	201.9
800.534	193.7
800.714	246.95
800.894	277.67
801.074	218.28
801.254	285.86
801.434	173.22
801.614	218.28
801.794	162.98
801.974	734.37
802.154	259.24
802.334	277.67
802.514	220.33
802.693	263.33
802.873	189.61
803.053	277.67
803.233	216.23
803.413	230.57
803.592	128.17
803.772	152.74
803.952	150.7
804.131	179.37
804.311	234.66
804.491	126.12
804.67	183.46
804.85	193.7
805.03	226.47
805.209	197.8
805.389	228.52
805.568	197.8
805.748	193.7
805.928	238.76
806.107	285.86
806.287	205.99
806.466	154.79
806.646	191.66
806.825	177.32
807.004	107.69
807.184	205.99
807.363	144.55
807.543	144.55
807.722	185.51
807.901	242.85
808.081	165.03
808.26	146.6
808.439	162.98
808.619	242.85
808.798	187.56
808.977	160.94
809.156	177.32
809.336	195.75
809.515	177.32
809.694	154.79
809.873	173.22
810.052	203.94
810.231	130.22
810.411	105.64
810.59	203.94
810.769	185.51
810.948	187.56
811.127	128.17
811.306	142.5
811.485	160.94
811.664	253.09
811.843	40.11
812.022	124.07
812.201	144.55
812.38	189.61
812.559	144.55
812.737	146.6
812.916	126.12
813.095	62.63
813.274	148.65
813.453	132.26
813.632	99.5
813.811	105.64
813.989	122.02
814.168	124.07
814.347	109.74
814.526	140.46
814.704	173.22
814.883	169.13
815.062	89.26
815.24	162.98
815.419	167.08
815.598	212.14
815.776	81.07
815.955	152.74
816.133	62.63
816.312	142.5
816.49	105.64
816.669	171.18
816.847	74.92
817.026	152.74
817.204	48.3
817.383	111.78
817.561	181.42
817.74	169.13
817.918	115.88
818.097	119.98
818.275	103.59
818.453	119.98
818.632	60.59
818.81	140.46
818.988	95.4
819.167	144.55
819.345	136.36
819.523	124.07
819.701	138.41
819.879	173.22
820.058	119.98
820.236	154.79
820.414	5.29
820.592	160.94
820.77	107.69
820.948	128.17
821.127	132.26
821.305	138.41
821.483	21.67
821.661	89.26
821.839	136.36
822.017	81.07
822.195	58.54
822.373	124.07
822.551	140.46
822.729	68.78
822.907	107.69
823.085	103.59
823.262	33.96
823.44	95.4
823.618	72.87
823.796	-47.96
823.974	81.07
824.152	97.45
824.329	103.59
824.507	64.68
824.685	117.93
824.863	54.44
825.04	33.96
825.218	136.36
825.396	97.45
825.574	97.45
825.751	144.55
825.929	136.36
826.107	70.83
826.284	56.49
826.462	93.35
826.639	64.68
826.817	25.77
826.994	103.59
827.172	54.44
827.349	169.13
827.527	1.19
827.704	62.63
827.882	124.07
828.059	64.68
828.237	62.63
828.414	105.64
828.591	27.82
828.769	95.4
828.946	33.96
829.124	126.12
829.301	99.5
829.478	103.59
829.655	91.31
829.833	99.5
830.01	31.91
830.187	79.02
830.364	144.55
830.542	40.11
830.719	95.4
830.896	52.39
831.073	93.35
831.25	134.31
831.427	70.83
831.604	58.54
831.782	44.2
831.959	128.17
832.136	7.34
832.313	126.12
832.49	33.96
832.667	93.35
832.844	97.45
833.021	119.98
833.198	70.83
833.374	119.98
833.551	140.46
833.728	50.35
833.905	56.49
834.082	29.87
834.259	21.67
834.436	62.63
834.612	68.78
834.789	111.78
834.966	46.25
835.143	70.83
835.319	38.06
835.496	25.77
835.673	81.07
835.85	160.94
836.026	134.31
836.203	54.44
836.38	31.91
836.556	25.77
836.733	72.87
836.909	58.54
837.086	62.63
837.262	52.39
837.439	-9.05
837.616	134.31
837.792	48.3
837.968	70.83
838.145	5.29
838.321	25.77
838.498	11.43
838.674	132.26
838.851	50.35
839.027	83.11
839.203	48.3
839.38	46.25
839.556	-35.67
839.732	138.41
839.909	70.83
840.085	136.36
840.261	-31.57
840.437	54.44
840.614	-39.76
840.79	48.3
840.966	103.59
841.142	58.54
841.318	64.68
841.494	-0.85
841.671	21.67
841.847	-45.91
842.023	60.59
842.199	42.15
842.375	165.03
842.551	62.63
842.727	-15.19
842.903	119.98
843.079	60.59
843.255	142.5
843.431	25.77
843.607	70.83
843.783	23.72
843.959	38.06
844.134	-0.85
844.31	87.21
844.486	52.39
844.662	17.58
844.838	66.73
845.013	66.73
845.189	25.77
845.365	40.11
845.541	-9.05
845.716	58.54
845.892	-2.9
846.068	-50
846.244	95.4
846.419	15.53
846.595	13.48
846.77	40.11
846.946	74.92
847.122	38.06
847.297	70.83
847.473	115.88
847.648	19.63
847.824	79.02
847.999	23.72
848.175	62.63
848.35	56.49
848.526	52.39
848.701	27.82
848.876	56.49
849.052	50.35
849.227	79.02
849.403	5.29
849.578	31.91
849.753	64.68
849.929	56.49
850.104	38.06
850.279	-2.9
850.454	19.63
850.63	54.44
850.805	46.25
850.98	46.25
851.155	3.24
851.33	62.63
851.505	17.58
851.681	91.31
851.856	31.91
852.031	19.63
852.206	81.07
852.381	-2.9
852.556	72.87
852.731	17.58
852.906	62.63
853.081	27.82
853.256	62.63
853.431	46.25
853.606	3.24
853.781	128.17
853.956	-11.09
854.131	13.48
854.305	99.5
854.48	9.39
854.655	38.06
854.83	46.25
855.005	-17.24
855.18	1.19
855.354	-31.57
855.529	95.4
855.704	7.34
855.879	7.34
856.053	1.19
856.228	50.35
856.403	72.87
856.577	-17.24
856.752	-4.95
856.926	50.35
857.101	50.35
857.276	21.67
857.45	3.24
857.625	46.25
857.799	38.06
857.974	-4.95
858.148	13.48
858.323	68.78
858.497	-17.24
858.672	7.34
858.846	-27.48
859.02	-0.85
859.195	64.68
859.369	-0.85
859.543	15.53
859.718	50.35
859.892	62.63
860.066	-41.81
860.241	23.72
860.415	48.3
860.589	58.54
860.763	60.59
860.938	48.3
861.112	64.68
861.286	-17.24
861.46	-23.38
861.634	-9.05
861.808	56.49
861.982	66.73
862.157	27.82
862.331	44.2
862.505	9.39
862.679	-19.29
862.853	29.87
863.027	54.44
863.201	62.63
863.375	-11.09
863.549	21.67
863.722	23.72
863.896	68.78
864.07	-15.19
864.244	38.06
864.418	70.83
864.592	9.39
864.766	54.44
864.939	-7
865.113	64.68
865.287	3.24
865.461	-2.9
865.634	68.78
865.808	-11.09
865.982	40.11
866.156	-0.85
866.329	7.34
866.503	21.67
866.676	50.35
866.85	-41.81
867.024	64.68
867.197	1.19
867.371	15.53
867.544	-15.19
867.718	23.72
867.891	64.68
868.065	-60.24
868.238	-25.43
868.412	31.91
868.585	3.24
868.759	-9.05
868.932	93.35
869.105	21.67
869.279	-4.95
869.452	-19.29
869.625	64.68
869.799	-76.63
869.972	38.06
870.145	33.96
870.319	-11.09
870.492	46.25
870.665	5.29
870.838	27.82
871.011	-50
871.185	-35.67
871.358	-17.24
871.531	21.67
871.704	29.87
871.877	50.35
872.05	-11.09
872.223	60.59
872.396	-43.86
872.569	11.43
872.742	-78.68
872.915	-0.85
873.088	13.48
873.261	-9.05
873.434	-11.09
873.607	13.48
873.78	23.72
873.953	54.44
874.126	60.59
874.299	97.45
874.471	-35.67
874.644	9.39
874.817	17.58
874.99	79.02
875.163	-2.9
875.335	105.64
875.508	-2.9
875.681	15.53
875.853	-2.9
876.026	46.25
876.199	46.25
876.371	-11.09
876.544	21.67
876.717	66.73
876.889	-7
877.062	48.3
877.234	-105.3
877.407	11.43
877.579	-43.86
877.752	-23.38
877.924	-4.95
878.097	-9.05
878.269	1.19
878.442	-19.29
878.614	-7
878.786	-21.33
878.959	-23.38
879.131	5.29
879.303	-72.53
879.476	42.15
879.648	27.82
879.82	36.01
879.993	15.53
880.165	-25.43
880.337	21.67
880.509	46.25
880.681	-11.09
880.854	21.67
881.026	74.92
881.198	72.87
881.37	62.63
881.542	11.43
881.714	-70.48
881.886	89.26
882.058	25.77
882.23	54.44
882.402	3.24
882.574	21.67
882.746	15.53
882.918	7.34
883.09	-11.09
883.262	42.15
883.434	81.07
883.606	46.25
883.778	-27.48
883.95	54.44
884.122	-25.43
884.293	64.68
884.465	7.34
884.637	44.2
884.809	-2.9
884.98	89.26
885.152	-43.86
885.324	62.63
885.496	-52.05
885.667	-21.33
885.839	-4.95
886.011	46.25
886.182	93.35
886.354	60.59
886.525	-31.57
886.697	-23.38
886.869	21.67
887.04	-13.14
887.212	95.4
887.383	62.63
887.555	50.35
887.726	3.24
887.897	13.48
888.069	-19.29
888.24	15.53
888.412	9.39
888.583	21.67
888.754	56.49
888.926	44.2
889.097	-13.14
889.268	11.43
889.44	48.3
889.611	-25.43
889.782	-21.33
889.953	-0.85
890.125	72.87
890.296	-52.05
890.467	21.67
890.638	15.53
890.809	29.87
890.98	36.01
891.151	-7
891.323	13.48
891.494	-29.52
891.665	25.77
891.836	7.34
892.007	-7
892.178	13.48
892.349	25.77
892.52	31.91
892.691	25.77
892.862	-17.24
893.032	11.43
893.203	-29.52
893.374	15.53
893.545	5.29
893.716	56.49
893.887	7.34
894.057	-11.09
894.228	1.19
894.399	-15.19
894.57	5.29
894.74	21.67
894.911	21.67
895.082	23.72
895.253	79.02
895.423	21.67
895.594	44.2
895.764	60.59
895.935	-66.39
896.106	-27.48
896.276	40.11
896.447	-19.29
896.617	-27.48
896.788	-72.53
896.958	-43.86
897.129	17.58
897.299	-17.24
897.47	87.21
897.64	136.36
897.81	-35.67
897.981	23.72
898.151	-29.52
898.322	-2.9
898.492	-0.85
898.662	56.49
898.832	-64.34
899.003	15.53
899.173	-7
899.343	-43.86
899.513	38.06
