Data from USB4F104151__46__14-16-48-726.txt Node

Date: Thu Mar 13 14:16:48 EDT 2025
User: louis
Spectrometer: USB4F10415
Trigger mode: 4
Integration Time (sec): 2.000000E-2
Scans to average: 1
Electric dark correction enabled: true
Nonlinearity correction enabled: false
Boxcar width: 0
XAxis mode: Wavelengths
Number of Pixels in Spectrum: 3648
>>>>>Begin Spectral Data<<<<<
178.204	-73.9
178.424	-73.9
178.644	-73.9
178.864	-159.91
179.084	-139.43
179.304	30.55
179.524	-28.84
179.744	16.21
179.964	20.31
180.184	-49.32
180.404	40.79
180.624	3.93
180.844	-37.03
181.064	-45.23
181.283	-8.36
181.503	-8.36
181.723	65.36
181.943	-20.65
182.163	85.84
182.383	59.22
182.602	59.22
182.822	26.45
183.042	69.46
183.262	12.12
183.482	24.4
183.701	73.56
183.921	18.26
184.141	-8.36
184.361	14.17
184.58	28.5
184.8	34.64
185.02	48.98
185.239	85.84
185.459	1.88
185.679	-30.89
185.898	30.55
186.118	81.75
186.338	26.45
186.557	94.04
186.777	5.97
186.997	73.56
187.216	-41.13
187.436	89.94
187.655	83.8
187.875	59.22
188.095	-8.36
188.314	32.6
188.534	-12.46
188.753	83.8
188.973	18.26
189.192	98.13
189.412	-12.46
189.631	59.22
189.851	42.84
190.07	81.75
190.29	-47.27
190.509	-8.36
190.729	-53.42
190.948	65.36
191.168	77.65
191.387	89.94
191.607	57.17
191.826	73.56
192.045	102.23
192.265	61.27
192.484	36.69
192.704	59.22
192.923	-57.51
193.142	155.47
193.362	3.93
193.581	42.84
193.8	1.88
194.02	16.21
194.239	-18.6
194.458	16.21
194.678	3.93
194.897	44.88
195.116	20.31
195.335	69.46
195.555	73.56
195.774	-8.36
195.993	20.31
196.212	-8.36
196.432	20.31
196.651	26.45
196.87	5.97
197.089	106.32
197.308	40.79
197.528	69.46
197.747	40.79
197.966	59.22
198.185	61.27
198.404	-73.9
198.623	98.13
198.842	40.79
199.062	51.03
199.281	116.56
199.5	53.08
199.719	57.17
199.938	130.9
200.157	55.12
200.376	12.12
200.595	69.46
200.814	59.22
201.033	12.12
201.252	44.88
201.471	16.21
201.69	102.23
201.909	81.75
202.128	-6.31
202.347	51.03
202.566	65.36
202.785	89.94
203.004	36.69
203.223	28.5
203.442	65.36
203.661	38.74
203.879	42.84
204.098	69.46
204.317	-24.75
204.536	48.98
204.755	42.84
204.974	89.94
205.193	28.5
205.411	145.24
205.63	32.6
205.849	8.02
206.068	40.79
206.287	8.02
206.505	106.32
206.724	42.84
206.943	-10.41
207.162	32.6
207.381	34.64
207.599	-12.46
207.818	16.21
208.037	-14.51
208.255	5.97
208.474	81.75
208.693	24.4
208.911	51.03
209.13	24.4
209.349	26.45
209.567	51.03
209.786	63.32
210.005	61.27
210.223	14.17
210.442	-16.55
210.661	46.93
210.879	1.88
211.098	22.36
211.316	34.64
211.535	26.45
211.753	-8.36
211.972	12.12
212.191	-0.17
212.409	-41.13
212.628	24.4
212.846	-41.13
213.065	53.08
213.283	32.6
213.502	42.84
213.72	40.79
213.938	16.21
214.157	22.36
214.375	10.07
214.594	-8.36
214.812	53.08
215.031	-8.36
215.249	12.12
215.467	-14.51
215.686	-0.17
215.904	26.45
216.122	-16.55
216.341	16.21
216.559	53.08
216.778	44.88
216.996	65.36
217.214	20.31
217.432	-2.22
217.651	42.84
217.869	32.6
218.087	-22.7
218.306	-30.89
218.524	67.41
218.742	63.32
218.96	-0.17
219.179	55.12
219.397	98.13
219.615	139.09
219.833	24.4
220.051	26.45
220.27	32.6
220.488	-12.46
220.706	65.36
220.924	8.02
221.142	5.97
221.36	79.7
221.578	73.56
221.796	-0.17
222.015	3.93
222.233	26.45
222.451	87.89
222.669	-39.08
222.887	77.65
223.105	16.21
223.323	24.4
223.541	-2.22
223.759	40.79
223.977	-4.27
224.195	53.08
224.413	48.98
224.631	65.36
224.849	24.4
225.067	122.71
225.285	24.4
225.503	-0.17
225.721	44.88
225.939	12.12
226.157	12.12
226.375	145.24
226.592	-6.31
226.81	32.6
227.028	48.98
227.246	79.7
227.464	98.13
227.682	16.21
227.9	26.45
228.117	14.17
228.335	57.17
228.553	79.7
228.771	36.69
228.989	75.6
229.206	73.56
229.424	-37.03
229.642	75.6
229.86	34.64
230.077	126.8
230.295	-0.17
230.513	108.37
230.731	28.5
230.948	24.4
231.166	55.12
231.384	53.08
231.601	10.07
231.819	87.89
232.037	65.36
232.254	-59.56
232.472	32.6
232.689	3.93
232.907	51.03
233.125	48.98
233.342	-6.31
233.56	42.84
233.777	14.17
233.995	42.84
234.213	116.56
234.43	-26.79
234.648	83.8
234.865	1.88
235.083	40.79
235.3	-32.94
235.518	8.02
235.735	48.98
235.953	147.28
236.17	-6.31
236.388	32.6
236.605	36.69
236.822	46.93
237.04	36.69
237.257	77.65
237.475	-37.03
237.692	73.56
237.909	36.69
238.127	36.69
238.344	75.6
238.562	30.55
238.779	61.27
238.996	42.84
239.214	77.65
239.431	91.99
239.648	55.12
239.865	3.93
240.083	12.12
240.3	57.17
240.517	24.4
240.735	81.75
240.952	36.69
241.169	48.98
241.386	-2.22
241.603	81.75
241.821	48.98
242.038	59.22
242.255	61.27
242.472	-8.36
242.689	57.17
242.907	32.6
243.124	16.21
243.341	5.97
243.558	-0.17
243.775	1.88
243.992	42.84
244.209	116.56
244.426	46.93
244.643	112.47
244.86	12.12
245.078	89.94
245.295	-18.6
245.512	57.17
245.729	18.26
245.946	36.69
246.163	63.32
246.38	65.36
246.597	24.4
246.814	-0.17
247.031	18.26
247.248	53.08
247.464	51.03
247.681	106.32
247.898	57.17
248.115	73.56
248.332	24.4
248.549	48.98
248.766	55.12
248.983	110.42
249.2	24.4
249.417	89.94
249.633	89.94
249.85	102.23
250.067	20.31
250.284	51.03
250.501	55.12
250.717	77.65
250.934	42.84
251.151	8.02
251.368	57.17
251.585	24.4
251.801	59.22
252.018	8.02
252.235	69.46
252.451	16.21
252.668	-12.46
252.885	69.46
253.102	53.08
253.318	34.64
253.535	126.8
253.752	-61.61
253.968	-10.41
254.185	-37.03
254.401	34.64
254.618	48.98
254.835	55.12
255.051	65.36
255.268	42.84
255.484	5.97
255.701	16.21
255.917	100.18
256.134	8.02
256.351	59.22
256.567	30.55
256.784	-37.03
257	36.69
257.217	-30.89
257.433	87.89
257.65	34.64
257.866	89.94
258.082	10.07
258.299	48.98
258.515	16.21
258.732	44.88
258.948	28.5
259.165	57.17
259.381	51.03
259.597	57.17
259.814	59.22
260.03	24.4
260.246	75.6
260.463	83.8
260.679	18.26
260.895	44.88
261.112	100.18
261.328	65.36
261.544	51.03
261.761	67.41
261.977	65.36
262.193	18.26
262.409	26.45
262.626	153.43
262.842	59.22
263.058	48.98
263.274	46.93
263.49	85.84
263.707	98.13
263.923	81.75
264.139	20.31
264.355	14.17
264.571	48.98
264.787	34.64
265.004	94.04
265.22	-4.27
265.436	67.41
265.652	55.12
265.868	20.31
266.084	114.52
266.3	-0.17
266.516	-8.36
266.732	83.8
266.948	10.07
267.164	-14.51
267.38	22.36
267.596	53.08
267.812	77.65
268.028	48.98
268.244	57.17
268.46	75.6
268.676	59.22
268.892	135
269.108	3.93
269.324	8.02
269.54	1.88
269.756	42.84
269.972	1.88
270.188	24.4
270.403	24.4
270.619	40.79
270.835	16.21
271.051	114.52
271.267	44.88
271.483	98.13
271.698	8.02
271.914	24.4
272.13	-10.41
272.346	-16.55
272.562	3.93
272.777	36.69
272.993	116.56
273.209	5.97
273.425	-20.65
273.64	65.36
273.856	42.84
274.072	73.56
274.287	42.84
274.503	102.23
274.719	98.13
274.934	89.94
275.15	-24.75
275.366	67.41
275.581	59.22
275.797	44.88
276.012	81.75
276.228	8.02
276.444	42.84
276.659	85.84
276.875	-84.14
277.09	-0.17
277.306	69.46
277.521	30.55
277.737	36.69
277.952	65.36
278.168	135
278.383	-8.36
278.599	1.88
278.814	59.22
279.03	44.88
279.245	114.52
279.461	24.4
279.676	51.03
279.892	-28.84
280.107	32.6
280.322	-61.61
280.538	94.04
280.753	16.21
280.969	59.22
281.184	20.31
281.399	42.84
281.615	1.88
281.83	57.17
282.045	71.51
282.26	-47.27
282.476	85.84
282.691	36.69
282.906	69.46
283.122	-0.17
283.337	-8.36
283.552	83.8
283.767	22.36
283.983	77.65
284.198	42.84
284.413	83.8
284.628	-37.03
284.843	48.98
285.058	57.17
285.274	32.6
285.489	28.5
285.704	40.79
285.919	-0.17
286.134	44.88
286.349	-22.7
286.564	44.88
286.779	59.22
286.995	46.93
287.21	-61.61
287.425	-24.75
287.64	24.4
287.855	89.94
288.07	12.12
288.285	26.45
288.5	40.79
288.715	91.99
288.93	32.6
289.145	67.41
289.36	5.97
289.575	55.12
289.79	18.26
290.004	-22.7
290.219	34.64
290.434	16.21
290.649	28.5
290.864	-12.46
291.079	18.26
291.294	69.46
291.509	61.27
291.724	69.46
291.938	57.17
292.153	32.6
292.368	-14.51
292.583	110.42
292.798	48.98
293.012	98.13
293.227	42.84
293.442	51.03
293.657	48.98
293.871	18.26
294.086	32.6
294.301	143.19
294.516	22.36
294.73	30.55
294.945	26.45
295.16	89.94
295.374	16.21
295.589	16.21
295.804	44.88
296.018	16.21
296.233	65.36
296.447	48.98
296.662	-12.46
296.877	55.12
297.091	79.7
297.306	59.22
297.52	57.17
297.735	77.65
297.949	-26.79
298.164	30.55
298.378	51.03
298.593	-63.66
298.807	79.7
299.022	51.03
299.236	38.74
299.451	73.56
299.665	26.45
299.88	40.79
300.094	65.36
300.309	85.84
300.523	48.98
300.737	10.07
300.952	28.5
301.166	28.5
301.381	8.02
301.595	12.12
301.809	8.02
302.024	48.98
302.238	32.6
302.452	122.71
302.667	48.98
302.881	30.55
303.095	20.31
303.309	98.13
303.524	34.64
303.738	32.6
303.952	-22.7
304.166	75.6
304.381	12.12
304.595	65.36
304.809	-6.31
305.023	30.55
305.237	44.88
305.452	67.41
305.666	-2.22
305.88	32.6
306.094	159.57
306.308	57.17
306.522	36.69
306.736	16.21
306.95	32.6
307.164	34.64
307.379	73.56
307.593	73.56
307.807	77.65
308.021	69.46
308.235	63.32
308.449	67.41
308.663	-0.17
308.877	44.88
309.091	-4.27
309.305	10.07
309.519	-2.22
309.733	122.71
309.947	16.21
310.161	42.84
310.374	20.31
310.588	10.07
310.802	-63.66
311.016	16.21
311.23	-4.27
311.444	42.84
311.658	153.43
311.872	67.41
312.085	28.5
312.299	-0.17
312.513	79.7
312.727	75.6
312.941	89.94
313.154	75.6
313.368	38.74
313.582	67.41
313.796	87.89
314.009	14.17
314.223	118.61
314.437	98.13
314.651	106.32
314.864	-32.94
315.078	10.07
315.292	-8.36
315.505	51.03
315.719	89.94
315.933	48.98
316.146	75.6
316.36	-41.13
316.573	83.8
316.787	36.69
317.001	83.8
317.214	34.64
317.428	46.93
317.641	59.22
317.855	26.45
318.068	67.41
318.282	24.4
318.495	57.17
318.709	91.99
318.922	46.93
319.136	98.13
319.349	-18.6
319.563	75.6
319.776	12.12
319.99	24.4
320.203	32.6
320.417	30.55
320.63	57.17
320.843	40.79
321.057	116.56
321.27	16.21
321.483	-20.65
321.697	106.32
321.91	16.21
322.124	98.13
322.337	57.17
322.55	12.12
322.763	65.36
322.977	71.51
323.19	130.9
323.403	89.94
323.617	46.93
323.83	116.56
324.043	48.98
324.256	124.76
324.469	-12.46
324.683	22.36
324.896	32.6
325.109	40.79
325.322	32.6
325.535	94.04
325.748	48.98
325.962	55.12
326.175	36.69
326.388	69.46
326.601	-10.41
326.814	46.93
327.027	28.5
327.24	77.65
327.453	22.36
327.666	106.32
327.879	59.22
328.092	5.97
328.305	53.08
328.518	-8.36
328.731	69.46
328.944	91.99
329.157	126.8
329.37	-14.51
329.583	130.9
329.796	85.84
330.009	-8.36
330.222	106.32
330.435	81.75
330.648	30.55
330.861	26.45
331.073	5.97
331.286	36.69
331.499	-0.17
331.712	8.02
331.925	59.22
332.138	51.03
332.35	73.56
332.563	32.6
332.776	12.12
332.989	44.88
333.202	75.6
333.414	48.98
333.627	34.64
333.84	26.45
334.053	65.36
334.265	85.84
334.478	48.98
334.691	75.6
334.903	65.36
335.116	-0.17
335.329	65.36
335.541	51.03
335.754	75.6
335.966	24.4
336.179	40.79
336.392	59.22
336.604	65.36
336.817	34.64
337.029	102.23
337.242	24.4
337.454	81.75
337.667	36.69
337.88	89.94
338.092	36.69
338.305	53.08
338.517	-0.17
338.729	87.89
338.942	69.46
339.154	32.6
339.367	-8.36
339.579	24.4
339.792	36.69
340.004	67.41
340.217	40.79
340.429	30.55
340.641	8.02
340.854	40.79
341.066	87.89
341.278	65.36
341.491	-0.17
341.703	34.64
341.915	8.02
342.128	10.07
342.34	32.6
342.552	-0.17
342.764	81.75
342.977	28.5
343.189	8.02
343.401	67.41
343.613	44.88
343.826	57.17
344.038	40.79
344.25	57.17
344.462	67.41
344.674	69.46
344.886	12.12
345.099	63.32
345.311	48.98
345.523	143.19
345.735	24.4
345.947	24.4
346.159	98.13
346.371	106.32
346.583	32.6
346.795	118.61
347.007	8.02
347.219	85.84
347.431	81.75
347.643	106.32
347.855	10.07
348.067	42.84
348.279	32.6
348.491	67.41
348.703	59.22
348.915	57.17
349.127	81.75
349.339	28.5
349.551	69.46
349.763	71.51
349.975	67.41
350.187	48.98
350.399	53.08
350.61	-6.31
350.822	89.94
351.034	94.04
351.246	51.03
351.458	81.75
351.669	24.4
351.881	98.13
352.093	40.79
352.305	63.32
352.517	40.79
352.728	106.32
352.94	59.22
353.152	24.4
353.363	32.6
353.575	85.84
353.787	75.6
353.999	57.17
354.21	94.04
354.422	24.4
354.633	124.76
354.845	98.13
355.057	69.46
355.268	81.75
355.48	132.95
355.692	53.08
355.903	55.12
356.115	87.89
356.326	-37.03
356.538	69.46
356.749	20.31
356.961	69.46
357.172	-2.22
357.384	-34.99
357.595	67.41
357.807	3.93
358.018	18.26
358.23	108.37
358.441	81.75
358.653	106.32
358.864	87.89
359.075	147.28
359.287	89.94
359.498	83.8
359.709	87.89
359.921	48.98
360.132	40.79
360.344	65.36
360.555	48.98
360.766	59.22
360.977	-24.75
361.189	118.61
361.4	51.03
361.611	110.42
361.823	24.4
362.034	73.56
362.245	36.69
362.456	75.6
362.667	38.74
362.879	94.04
363.09	18.26
363.301	48.98
363.512	61.27
363.723	57.17
363.935	61.27
364.146	63.32
364.357	59.22
364.568	53.08
364.779	53.08
364.99	91.99
365.201	91.99
365.412	94.04
365.623	3.93
365.834	100.18
366.045	8.02
366.256	69.46
366.467	40.79
366.678	40.79
366.889	83.8
367.1	51.03
367.311	98.13
367.522	57.17
367.733	67.41
367.944	128.85
368.155	73.56
368.366	-0.17
368.577	69.46
368.788	79.7
368.999	5.97
369.209	89.94
369.42	126.8
369.631	104.28
369.842	61.27
370.053	73.56
370.264	36.69
370.474	61.27
370.685	77.65
370.896	-4.27
371.107	63.32
371.317	67.41
371.528	53.08
371.739	81.75
371.95	40.79
372.16	83.8
372.371	14.17
372.582	106.32
372.792	106.32
373.003	85.84
373.214	57.17
373.424	87.89
373.635	61.27
373.846	173.91
374.056	65.36
374.267	1.88
374.477	40.79
374.688	18.26
374.898	91.99
375.109	65.36
375.319	40.79
375.53	75.6
375.74	71.51
375.951	18.26
376.161	40.79
376.372	149.33
376.582	122.71
376.793	128.85
377.003	141.14
377.214	67.41
377.424	57.17
377.635	79.7
377.845	77.65
378.055	42.84
378.266	94.04
378.476	38.74
378.686	151.38
378.897	124.76
379.107	48.98
379.317	106.32
379.528	104.28
379.738	61.27
379.948	38.74
380.158	104.28
380.369	61.27
380.579	116.56
380.789	20.31
380.999	108.37
381.21	171.86
381.42	155.47
381.63	75.6
381.84	79.7
382.05	73.56
382.261	59.22
382.471	167.76
382.681	85.84
382.891	59.22
383.101	94.04
383.311	38.74
383.521	65.36
383.731	77.65
383.941	108.37
384.151	75.6
384.361	59.22
384.571	126.8
384.781	32.6
384.991	132.95
385.201	126.8
385.411	122.71
385.621	40.79
385.831	61.27
386.041	8.02
386.251	20.31
386.461	155.47
386.671	10.07
386.881	94.04
387.091	40.79
387.301	100.18
387.511	114.52
387.72	71.51
387.93	-2.22
388.14	57.17
388.35	67.41
388.56	24.4
388.769	139.09
388.979	69.46
389.189	44.88
389.399	184.15
389.609	75.6
389.818	73.56
390.028	53.08
390.238	139.09
390.447	-12.46
390.657	143.19
390.867	114.52
391.076	79.7
391.286	36.69
391.496	-2.22
391.705	69.46
391.915	151.38
392.125	126.8
392.334	106.32
392.544	130.9
392.753	128.85
392.963	114.52
393.172	94.04
393.382	75.6
393.591	132.95
393.801	102.23
394.01	106.32
394.22	114.52
394.429	69.46
394.639	81.75
394.848	67.41
395.058	65.36
395.267	81.75
395.477	116.56
395.686	122.71
395.895	204.63
396.105	163.67
396.314	73.56
396.524	126.8
396.733	128.85
396.942	104.28
397.152	122.71
397.361	89.94
397.57	96.08
397.78	106.32
397.989	151.38
398.198	153.43
398.407	106.32
398.617	116.56
398.826	202.58
399.035	147.28
399.244	89.94
399.453	114.52
399.663	114.52
399.872	126.8
400.081	118.61
400.29	149.33
400.499	5.97
400.708	114.52
400.917	155.47
401.127	194.39
401.336	104.28
401.545	223.06
401.754	178
401.963	122.71
402.172	184.15
402.381	96.08
402.59	155.47
402.799	141.14
403.008	155.47
403.217	130.9
403.426	231.25
403.635	91.99
403.844	89.94
404.053	186.19
404.262	196.43
404.471	196.43
404.68	223.06
404.888	139.09
405.097	157.52
405.306	212.82
405.515	143.19
405.724	208.72
405.933	149.33
406.142	302.93
406.35	245.59
406.559	253.78
406.768	214.87
406.977	186.19
407.185	233.3
407.394	319.31
407.603	171.86
407.812	331.6
408.02	204.63
408.229	274.26
408.438	233.3
408.646	280.4
408.855	268.11
409.064	329.55
409.272	374.61
409.481	327.5
409.69	319.31
409.898	370.51
410.107	345.94
410.315	376.66
410.524	384.85
410.733	401.23
410.941	423.76
411.15	460.62
411.358	470.86
411.567	491.34
411.775	513.87
411.984	526.16
412.192	546.64
412.401	522.06
412.609	575.31
412.818	606.03
413.026	626.51
413.234	642.89
413.443	649.04
413.651	657.23
413.86	718.67
414.068	745.29
414.276	753.48
414.485	798.54
414.693	872.26
414.901	935.75
415.11	835.4
415.318	827.21
415.526	931.66
415.734	954.18
415.943	911.18
416.151	1046.34
416.359	980.81
416.567	1115.97
416.776	1075.01
416.984	1101.64
417.192	1191.75
417.4	1279.81
417.608	1154.88
417.817	1212.23
418.025	1363.78
418.233	1429.31
418.441	1408.83
418.649	1509.18
418.857	1570.62
419.065	1548.09
419.273	1605.44
419.481	1625.92
419.689	1756.99
419.897	1851.19
420.105	1779.51
420.313	1908.54
420.521	1877.82
420.729	1996.6
420.937	1961.78
421.145	2088.76
421.353	2277.17
421.561	2285.36
421.769	2383.66
421.977	2422.58
422.185	2457.39
422.393	2613.04
422.601	2733.87
422.809	2768.68
423.017	2877.23
423.224	2901.8
423.432	3049.25
423.64	3057.45
423.848	3315.49
424.056	3122.98
424.263	3346.21
424.471	3342.11
424.679	3462.94
424.887	3669.79
425.094	3860.25
425.302	3743.52
425.51	4046.62
425.718	4036.38
425.925	4210.45
426.133	4243.22
426.341	4480.78
426.548	4785.93
426.756	4615.95
426.964	4808.46
427.171	5070.6
427.379	5310.21
427.586	5234.44
427.794	5443.33
428.001	5517.06
428.209	5897.98
428.417	5918.46
428.624	6135.54
428.832	6342.39
429.039	6110.97
429.247	6106.87
429.454	6594.29
429.662	6999.79
429.869	6661.87
430.076	7339.75
430.284	7130.86
430.491	7431.91
430.699	7894.75
430.906	7878.37
431.114	7741.15
431.321	8150.74
431.528	8171.22
431.736	8699.6
431.943	9264.84
432.15	8885.97
432.358	9070.28
432.565	9596.61
432.772	9518.79
432.979	10053.31
433.187	10016.44
433.394	10358.46
433.601	10966.7
433.808	11019.95
434.016	10997.42
434.223	11208.36
434.43	12035.74
434.637	11728.55
434.844	12467.86
435.052	12607.12
435.259	12273.31
435.466	12803.73
435.673	12557.97
435.88	13584.01
436.087	14069.37
436.294	14079.61
436.501	13829.76
436.708	13946.5
436.915	14640.76
437.122	14988.91
437.329	15298.16
437.537	15607.4
437.743	15992.42
437.95	16021.09
438.157	16604.76
438.364	17239.63
438.571	17077.84
438.778	17303.12
438.985	18828.85
439.192	18038.34
439.399	18710.07
439.606	18032.19
439.813	19146.29
440.02	20557.34
440.227	20033.06
440.433	19795.5
440.64	20239.9
440.847	20239.9
441.054	21089.81
441.261	22103.56
441.467	21681.67
441.674	22396.42
441.881	23137.78
442.088	23139.83
442.294	22994.42
442.501	23334.39
442.708	23586.29
442.914	24778.2
443.121	26086.86
443.328	25163.22
443.534	26938.81
443.741	26277.32
443.948	25482.7
444.154	27721.13
444.361	27671.98
444.568	27844.01
444.774	27811.24
444.981	28130.73
445.187	28800.41
445.394	30070.15
445.6	29969.8
445.807	32322.92
446.013	31124.86
446.22	31868.27
446.426	32730.47
446.633	33148.25
446.839	34405.7
447.046	32947.55
447.252	34458.95
447.459	34647.36
447.665	34649.41
447.871	36130.09
448.078	37680.41
448.284	35964.21
448.491	36832.55
448.697	38065.42
448.903	38733.06
449.11	39097.6
449.316	38341.9
449.522	38753.54
449.728	39752.95
449.935	40416.49
450.141	40518.89
450.347	41213.15
450.553	39869.68
450.76	40697.06
450.966	41743.58
451.172	41356.51
451.378	42360.01
451.584	41516.25
451.791	42693.83
451.997	42527.95
452.203	42792.14
452.409	42988.74
452.615	42939.59
452.821	41215.2
453.027	40879.33
453.233	42960.07
453.44	41372.89
453.646	42007.76
453.852	42257.62
454.058	42702.03
454.264	40946.92
454.47	41929.94
454.676	40895.72
454.882	42486.99
455.088	38970.63
455.294	39417.08
455.5	39937.27
455.705	40461.55
455.911	39193.86
456.117	38221.07
456.323	37696.79
456.529	35460.41
456.735	37418.27
456.941	36015.41
457.147	35466.55
457.352	34594.12
457.558	34280.78
457.764	34196.81
457.97	33525.08
458.176	33299.8
458.381	33334.62
458.587	31376.76
458.793	31350.13
458.999	29881.74
459.204	31974.77
459.41	30850.43
459.616	29164.95
459.821	28890.52
460.027	29013.4
460.233	28198.31
460.438	27246.01
460.644	27538.87
460.85	25939.4
461.055	25755.08
461.261	25607.63
461.466	23805.42
461.672	22959.61
461.878	24616.41
462.083	22957.56
462.289	22584.83
462.494	22216.19
462.7	21354
462.905	20837.91
463.111	21499.41
463.316	21397.01
463.522	21227.03
463.727	21065.24
463.932	21224.98
464.138	20833.82
464.343	20985.37
464.549	20448.8
464.754	20997.65
464.959	20889.11
465.165	20588.06
465.37	19840.55
465.575	19146.29
465.781	20018.72
465.986	20074.02
466.191	19369.52
466.397	18990.64
466.602	18167.36
466.807	18882.1
467.012	19052.08
467.218	18531.9
467.423	18513.47
467.628	18589.24
467.833	19512.88
468.038	18640.44
468.244	18003.52
468.449	18902.58
468.654	18259.52
468.859	18044.48
469.064	17884.74
469.269	17176.14
469.474	17346.12
469.679	17870.4
469.885	17190.48
470.09	17428.04
470.295	17436.24
470.5	17219.15
470.705	16973.39
470.91	16754.26
471.115	16647.77
471.32	16705.11
471.525	16725.59
471.73	16162.4
471.935	16264.8
472.139	15517.29
472.344	16010.85
472.549	15330.92
472.754	15539.82
472.959	15238.76
473.164	14997.1
473.369	14622.33
473.574	15322.73
473.778	15119.98
473.983	14782.07
474.188	15074.93
474.393	14278.27
474.598	14282.36
474.802	14321.27
475.007	14042.75
475.212	14245.5
475.417	13616.77
475.621	13657.73
475.826	13696.64
476.031	13391.5
476.235	13297.29
476.44	13483.66
476.645	12975.76
476.849	13221.52
477.054	12988.05
477.259	12650.13
477.463	12770.96
477.668	12351.13
477.872	12697.24
478.077	12254.87
478.282	11996.83
478.486	12091.04
478.691	11880.1
478.895	12027.55
479.1	11687.59
479.304	11783.84
479.509	11337.38
479.713	11613.86
479.918	11290.28
480.122	11417.26
480.326	11466.41
480.531	11388.58
480.735	11513.51
480.94	11132.59
481.144	11525.8
481.348	11038.38
481.553	11042.48
481.757	10796.72
481.961	11038.38
482.166	11290.28
482.37	11132.59
482.574	10895.02
482.778	10872.5
482.983	11239.08
483.187	10858.16
483.391	11044.52
483.595	10809.01
483.8	10739.38
484.004	10993.33
484.208	11079.34
484.412	10911.41
484.616	10970.8
484.821	10981.04
485.025	10798.77
485.229	10886.83
485.433	10657.46
485.637	10772.14
485.841	10841.78
486.045	10743.47
486.249	10845.87
486.453	10636.98
486.657	10743.47
486.861	10927.79
487.065	10579.64
487.269	10872.5
487.473	10643.12
487.677	10946.22
487.881	11122.35
488.085	10854.06
488.289	10921.65
488.493	10950.32
488.697	11054.76
488.901	11204.27
489.105	10976.94
489.309	10976.94
489.512	11040.43
489.716	11185.83
489.92	10942.13
490.124	11067.05
490.328	11325.1
490.531	11103.92
490.735	11146.92
490.939	11286.19
491.143	11112.11
491.346	11425.45
491.55	11425.45
491.754	11337.38
491.958	11519.65
492.161	11634.34
492.365	11450.02
492.569	11445.93
492.772	11464.36
492.976	11652.77
493.18	11589.28
493.383	11865.76
493.587	11812.51
493.79	11931.3
493.994	11757.22
494.197	11857.57
494.401	12054.17
494.605	12097.18
494.808	12379.8
495.012	12242.59
495.215	12283.55
495.419	12555.93
495.622	12187.29
495.825	12592.79
496.029	12730
496.232	12926.61
496.436	12754.58
496.639	13065.87
496.843	13014.67
497.046	13264.52
497.249	13639.3
497.453	13401.74
497.656	13772.42
497.859	13463.18
498.063	13962.88
498.266	13999.74
498.469	13964.93
498.673	14300.8
498.876	14319.23
499.079	14517.88
499.282	14517.88
499.485	14712.44
499.689	14917.23
499.892	15269.48
500.095	15345.26
500.298	15361.64
500.501	15396.46
500.705	15865.44
500.908	15996.51
501.111	16154.21
501.314	16301.66
501.517	16262.75
501.72	16326.24
501.923	16547.42
502.126	16774.74
502.329	17237.58
502.532	17129.04
502.735	17321.55
502.938	17722.95
503.141	17772.1
503.344	18275.9
503.547	18122.3
503.75	18576.95
503.953	18634.3
504.156	19060.27
504.359	18994.74
504.562	19369.52
504.765	19510.83
504.968	19680.81
505.17	19779.11
505.373	19828.26
505.576	20076.07
505.779	20567.58
505.982	20846.1
506.185	21126.67
506.387	21102.1
506.59	21364.24
506.793	21571.08
506.996	21612.04
507.198	22355.46
507.401	22044.16
507.604	22351.36
507.807	22855.16
508.009	22771.19
508.212	23100.92
508.415	23240.18
508.617	23768.55
508.82	23815.66
509.022	23592.43
509.225	24706.52
509.428	24403.42
509.63	24511.97
509.833	24710.62
510.035	25804.24
510.238	25650.64
510.44	25685.45
510.643	26480.07
510.845	26488.26
511.048	26564.03
511.25	26727.87
511.453	26996.15
511.655	27893.16
511.858	27350.45
512.06	27721.13
512.262	27901.36
512.465	28147.11
512.667	28839.33
512.87	28937.63
513.072	28908.96
513.274	29652.37
513.477	29615.51
513.679	29855.12
513.881	30320.01
514.084	30477.7
514.286	30713.22
514.488	30383.49
514.69	31552.88
514.893	31536.5
515.095	31831.41
515.297	32068.97
515.499	32355.69
515.701	32609.64
515.904	32859.49
516.106	33019.23
516.308	33226.07
516.51	33789.27
516.712	33862.99
516.914	34487.62
517.116	34710.85
517.318	35091.77
517.52	35372.35
517.722	34970.94
517.925	36068.65
518.127	36201.77
518.329	36367.66
518.531	36271.4
518.733	36922.66
518.935	37469.47
519.136	37375.26
519.338	37672.21
519.54	37981.46
519.742	38227.21
519.944	38331.66
520.146	39032.07
520.348	39240.96
520.55	39314.69
520.752	39167.23
520.954	40162.54
521.155	39982.32
521.357	40815.85
521.559	40557.8
521.761	41104.61
521.963	41178.34
522.164	41395.42
522.366	41571.55
522.568	42278.1
522.77	42237.14
522.971	42947.78
523.173	42296.53
523.375	42878.15
523.576	42960.07
523.778	42992.84
523.98	43529.41
524.181	43674.81
524.383	44008.63
524.584	44010.68
524.786	44375.22
524.988	43982.01
525.189	45042.85
525.391	44917.93
525.592	45337.76
525.794	45534.37
525.995	45102.25
526.197	45331.62
526.398	45733.02
526.6	45855.9
526.801	45907.1
527.003	46474.38
527.204	46603.41
527.406	46150.81
527.607	46511.25
527.808	46826.63
528.01	45964.44
528.211	46828.68
528.412	47477.89
528.614	47322.24
528.815	47150.21
529.016	47715.45
529.218	47197.32
529.419	47203.46
529.62	47754.36
529.822	47674.49
530.023	47592.58
530.224	47666.3
530.425	48000.12
530.626	47662.21
530.828	47312
531.029	48895.08
531.23	47930.49
531.431	47608.96
531.632	48256.12
531.833	48116.86
532.035	48213.11
532.236	48092.28
532.437	48008.31
532.638	48434.29
532.839	48381.04
533.04	48501.87
533.241	47756.41
533.442	48655.47
533.643	48471.15
533.844	48258.16
534.045	48505.97
534.246	47877.24
534.447	48487.54
534.648	48073.85
534.849	48254.07
535.05	48157.81
535.251	48526.45
535.451	48540.78
535.652	48585.84
535.853	48452.72
536.054	48542.83
536.255	48651.37
536.456	47766.65
536.657	48815.21
536.857	48684.14
537.058	48260.21
537.259	48919.66
537.46	48532.59
537.66	48612.46
537.861	48288.88
538.062	48106.62
538.263	48313.46
538.463	48075.9
538.664	48276.6
538.865	48024.7
539.065	48465.01
539.266	47959.16
539.466	48495.73
539.667	48102.52
539.868	48534.64
540.068	48235.64
540.269	47762.56
540.469	48768.11
540.67	47901.82
540.87	48131.19
541.071	48055.42
541.271	48186.49
541.472	48350.32
541.672	47901.82
541.873	47285.38
542.073	47359.11
542.274	48206.97
542.474	47871.1
542.675	47529.09
542.875	48299.12
543.075	47957.11
543.276	47479.94
543.476	48149.62
543.676	47412.35
543.877	47572.1
544.077	47797.37
544.277	47694.97
544.478	47379.59
544.678	47971.45
544.878	47680.64
545.078	47678.59
545.279	47307.91
545.479	47793.28
545.679	47969.4
545.879	47699.07
546.079	47776.89
546.28	47391.87
546.48	46818.44
546.68	47363.2
546.88	47352.96
547.08	47322.24
547.28	47391.87
547.48	47385.73
547.68	47527.04
547.88	47199.37
548.081	47529.09
548.281	47641.73
548.481	47524.99
548.681	47539.33
548.881	47686.78
549.081	47516.8
549.28	47103.11
549.48	48008.31
549.68	47242.37
549.88	47903.87
550.08	47199.37
550.28	47266.95
550.48	47131.78
550.68	47365.25
550.88	47238.28
551.08	47150.21
551.279	47778.94
551.479	46879.88
551.679	47432.83
551.879	47324.29
552.079	47015.05
552.278	46920.84
552.478	47416.45
552.678	46947.46
552.878	47291.52
553.077	47092.87
553.277	46797.96
553.477	47498.37
553.676	46955.66
553.876	47336.58
554.076	47074.44
554.275	46978.18
554.475	46736.52
554.674	47148.17
554.874	47166.6
555.074	46804.11
555.273	47008.9
555.473	47072.39
555.672	46517.39
555.872	46914.7
556.071	47056.01
556.271	46810.25
556.47	46660.75
556.67	46838.92
556.869	46812.3
557.068	46877.83
557.268	46480.53
557.467	46904.46
557.667	46531.73
557.866	46535.82
558.065	46306.45
558.265	46161.04
558.464	46572.69
558.663	46974.09
558.863	46136.47
559.062	46806.16
559.261	45968.54
559.461	46478.48
559.66	46005.4
559.859	45896.86
560.058	45911.19
560.258	46511.25
560.457	46138.52
560.656	46144.66
560.855	45833.37
561.054	46234.77
561.253	45261.99
561.453	46042.26
561.652	45773.98
561.851	45964.44
562.05	45438.11
562.249	45315.23
562.448	46062.74
562.647	45579.42
562.846	45364.39
563.045	45702.3
563.244	44887.21
563.443	45526.17
563.642	44780.71
563.841	45388.96
564.04	45005.99
564.239	45630.62
564.438	44788.91
564.637	45360.29
564.836	44893.35
565.035	44498.09
565.234	45229.22
565.432	44364.98
565.631	44567.73
565.83	44881.06
566.029	43947.19
566.228	44407.98
566.427	44487.85
566.625	44139.7
566.824	43914.42
567.023	44420.27
567.222	43437.25
567.42	44453.04
567.619	43601.08
567.818	43766.97
568.016	43707.58
568.215	44051.64
568.414	43764.92
568.612	43576.51
568.811	43601.08
569.01	42998.98
569.208	42802.38
569.407	43568.32
569.605	42937.54
569.804	43748.54
570.002	43105.48
570.201	43062.47
570.4	42718.41
570.598	43005.13
570.797	42597.58
570.995	42671.31
571.193	42321.1
571.392	42464.46
571.59	42304.72
571.789	42267.86
571.987	42468.56
572.186	41678.04
572.384	41882.84
572.582	42278.1
572.781	42230.99
572.979	41719
573.177	41698.52
573.376	41493.72
573.574	41348.32
573.772	41546.97
573.971	41184.48
574.169	40862.95
574.367	40740.07
574.565	41465.05
574.763	40942.82
574.962	40766.7
575.16	40473.84
575.358	40905.96
575.556	40199.41
575.754	41202.91
575.952	40273.13
576.151	40637.67
576.349	40101.11
576.547	39955.7
576.745	39937.27
576.943	39892.21
577.141	40236.27
577.339	40131.82
577.537	39949.56
577.735	39433.47
577.933	39261.44
578.131	39576.83
578.329	39445.76
578.527	39159.04
578.725	39116.03
578.923	39318.78
579.121	39097.6
579.319	38993.15
579.516	39081.22
579.714	38991.11
579.912	38538.51
580.11	38352.14
580.308	38683.91
580.506	38950.15
580.704	37659.93
580.901	38389
581.099	38241.55
581.297	38046.99
581.495	38098.19
581.692	37819.67
581.89	37547.29
582.088	37508.38
582.285	37709.08
582.483	37743.89
582.681	37471.51
582.878	37256.48
583.076	37014.82
583.274	37596.44
583.471	36709.67
583.669	37344.54
583.866	36381.99
584.064	36797.73
584.262	36377.9
584.459	37029.15
584.657	36410.67
584.854	36482.34
585.052	35708.21
585.249	36232.49
585.447	35845.43
585.644	35558.71
585.841	35790.13
586.039	35962.16
586.236	35589.43
586.434	35519.8
586.631	35306.81
586.828	35360.06
587.026	35339.58
587.223	35431.74
587.42	34792.77
587.618	35169.6
587.815	34731.33
588.012	34843.97
588.21	34764.1
588.407	34839.87
588.604	34456.9
588.801	34188.62
588.999	34411.85
589.196	34688.32
589.393	34311.5
589.59	34213.2
589.787	33949.01
589.984	33727.83
590.182	33611.09
590.379	34184.52
590.576	33662.29
590.773	33779.03
590.97	33443.16
591.167	33713.49
591.364	33178.97
591.561	33279.32
591.758	32728.42
591.955	32957.79
592.152	33195.35
592.349	32998.75
592.546	32900.45
592.743	32789.86
592.94	32533.86
593.137	32898.4
593.334	32613.73
593.531	32122.22
593.727	32435.56
593.924	32302.44
594.121	31690.1
594.318	32116.08
594.515	31823.22
594.712	32136.55
594.908	31798.64
595.105	32060.78
595.302	31632.75
595.499	31761.78
595.696	31620.47
595.892	31061.37
596.089	31522.16
596.286	31171.96
596.482	30801.28
596.679	31026.56
596.876	30872.96
597.072	31036.8
597.269	30762.37
597.466	30958.97
597.662	30553.48
597.859	30700.93
598.055	30442.88
598.252	30438.79
598.448	30324.1
598.645	30381.45
598.841	29949.32
599.038	29832.59
599.234	29947.28
599.431	29572.5
599.627	29537.68
599.824	29906.32
600.02	29373.85
600.217	29601.17
600.413	29846.93
600.609	29126.04
600.806	29119.9
601.002	29531.54
601.198	29003.16
601.395	28913.05
601.591	28966.3
601.787	28894.62
601.984	28700.06
602.18	29048.22
602.376	28665.25
602.572	28378.53
602.769	28333.48
602.965	28329.38
603.161	28384.68
603.357	28065.19
603.553	28067.24
603.75	28130.73
603.946	28046.76
604.142	28140.97
604.338	27526.58
604.534	27841.96
604.73	27520.43
604.926	27547.06
605.122	27524.53
605.318	27588.02
605.514	27243.96
605.71	27149.75
605.906	27387.32
606.102	26963.39
606.298	26893.75
606.494	27092.41
606.69	26899.9
606.886	27026.87
607.082	26779.07
607.278	26811.84
607.474	26396.1
607.67	27016.63
607.866	26256.84
608.062	26527.17
608.257	26455.49
608.453	26437.06
608.649	26709.44
608.845	26037.7
609.041	26715.58
609.236	26480.07
609.432	26148.29
609.628	26189.25
609.824	26095.05
610.019	25980.36
610.215	25861.58
610.411	26058.18
610.606	25978.31
610.802	26006.98
610.998	25525.71
611.193	25701.84
611.389	25212.37
611.584	25556.43
611.78	25427.41
611.976	25556.43
612.171	25476.56
612.367	25415.12
612.562	25165.27
612.758	25083.35
612.953	24933.85
613.149	25157.08
613.344	25062.87
613.539	25312.72
613.735	25132.5
613.93	25044.44
614.126	24767.96
614.321	24790.49
614.517	25142.74
614.712	24987.1
614.907	24407.52
615.103	24808.92
615.298	24548.83
615.493	24999.38
615.688	24090.09
615.884	24796.63
616.079	24192.48
616.274	24221.16
616.47	24442.34
616.665	24112.61
616.86	24241.64
617.055	24094.18
617.25	24047.08
617.445	24292.83
617.641	23784.94
617.836	23934.44
618.031	23651.82
618.226	23891.43
618.421	23422.45
618.616	23956.97
618.811	23256.56
619.006	23967.21
619.201	22881.78
619.396	23260.66
619.591	22834.68
619.786	23098.87
619.981	22695.42
620.176	23260.66
620.371	22695.42
620.566	22808.06
620.761	22670.84
620.956	22525.44
621.151	22232.58
621.346	22576.64
621.541	22017.54
621.735	22498.81
621.93	21859.85
622.125	22015.49
622.32	21302.8
622.515	21730.83
622.709	21458.45
622.904	21474.83
623.099	21257.74
623.294	21341.71
623.488	21237.27
623.683	20962.84
623.878	20651.55
624.072	20829.72
624.267	20956.69
624.462	20653.59
624.656	20512.28
624.851	20559.39
625.046	20577.82
625.24	20379.17
625.435	20057.64
625.629	19940.9
625.824	19928.61
626.018	19850.79
626.213	19488.3
626.407	19586.6
626.602	19553.83
626.796	19568.17
626.991	19392.05
627.185	19336.75
627.38	19273.26
627.574	18988.6
627.768	18556.47
627.963	18730.55
628.157	18865.72
628.352	18693.69
628.546	18554.43
628.74	18622.01
628.935	18228.8
629.129	18136.64
629.323	18019.91
629.517	17892.93
629.712	17903.17
629.906	17747.53
630.1	17440.33
630.294	17792.58
630.489	17866.31
630.683	17665.61
630.877	17489.48
631.071	17153.62
631.265	17434.19
631.459	17106.51
631.653	17251.92
631.848	17106.51
632.042	16920.15
632.236	16963.15
632.43	16612.95
632.624	16504.41
632.818	16531.03
633.012	16166.49
633.206	16467.55
633.4	16342.62
633.594	16299.61
633.788	16229.98
633.982	16146.01
634.176	16082.53
634.369	15795.81
634.563	15826.53
634.757	15742.57
634.951	15892.07
635.145	15892.07
635.339	15359.59
635.533	15386.22
635.726	15343.21
635.92	14990.96
636.114	15287.92
636.308	15085.17
636.501	15076.98
636.695	15148.65
636.889	14825.08
637.083	14888.56
637.276	14622.33
637.47	14679.67
637.664	14397.05
637.857	14677.62
638.051	14485.11
638.244	14462.58
638.438	14343.8
638.632	14132.86
638.825	14159.49
639.019	14128.77
639.212	14089.85
639.406	14026.37
639.599	13880.96
639.793	13926.02
639.986	13690.5
640.18	13598.34
640.373	13792.9
640.567	13330.06
640.76	13551.24
640.954	13397.64
641.147	13098.64
641.34	13024.91
641.534	13123.21
641.727	13047.44
641.92	12967.57
642.114	12734.1
642.307	12762.77
642.5	12748.43
642.694	12643.99
642.887	12713.62
643.08	12611.22
643.273	12431
643.467	12301.98
643.66	12447.38
643.853	12158.62
644.046	11892.38
644.239	12125.85
644.432	11996.83
644.626	12013.21
644.819	11859.62
645.012	11984.54
645.205	11812.51
645.398	11880.1
645.591	11691.68
645.784	11699.87
645.977	11482.79
646.17	11529.89
646.363	11460.26
646.556	11407.02
646.749	11181.74
646.942	11345.58
647.135	11128.49
647.328	11155.12
647.521	11079.34
647.714	10976.94
647.907	11200.17
648.099	11013.81
648.292	10819.25
648.485	11083.44
648.678	10905.26
648.871	10800.82
649.064	10596.02
649.256	10755.76
649.449	10630.84
649.642	10393.27
649.835	10288.82
650.027	10227.39
650.22	10313.4
650.413	10108.6
650.605	10233.53
650.798	10141.37
650.991	10006.2
651.183	9977.53
651.376	9948.86
651.568	9848.51
651.761	9834.18
651.954	9844.42
652.146	9817.79
652.339	9565.89
652.531	9854.65
652.724	9658.05
652.916	9567.94
653.109	9293.51
653.301	9549.51
653.494	9500.36
653.686	9357
653.879	9416.39
654.071	9176.78
654.263	9168.59
654.456	9348.81
654.648	9187.02
654.84	8900.3
655.033	8949.45
655.225	8890.06
655.417	8963.79
655.61	8814.29
655.802	8857.29
655.994	8912.59
656.186	8701.65
656.379	8816.33
656.571	8961.74
656.763	8570.58
656.955	8404.69
657.148	8636.11
657.34	8351.45
657.532	8273.62
657.724	8423.12
657.916	8408.79
658.108	8453.84
658.3	8347.35
658.492	8314.58
658.684	8052.44
658.876	8077.02
659.068	8269.53
659.26	8007.39
659.452	8087.26
659.644	7886.56
659.836	8046.3
660.028	7933.66
660.22	7737.06
660.412	7837.41
660.604	7751.39
660.796	7735.01
660.988	7646.94
661.18	7636.7
661.372	7569.12
661.563	7634.66
661.755	7560.93
661.947	7612.13
662.139	7347.94
662.331	7319.27
662.522	7231.21
662.714	7304.93
662.906	7216.87
663.097	7220.97
663.289	7206.63
663.481	7104.23
663.673	7038.7
663.864	6958.83
664.056	7046.89
664.247	6993.64
664.439	6942.44
664.631	6993.64
664.822	6758.13
665.014	7085.8
665.205	6934.25
665.397	6676.21
665.588	6807.28
665.78	6809.33
665.971	6815.47
666.163	6590.19
666.354	6729.45
666.546	6563.57
666.737	6543.09
666.929	6401.78
667.12	6495.99
667.311	6455.03
667.503	6473.46
667.694	6512.37
667.885	6399.73
668.077	6369.01
668.268	6274.81
668.459	6295.29
668.651	6229.75
668.842	6340.34
669.033	6029.05
669.224	6153.98
669.416	6291.19
669.607	6094.58
669.798	5897.98
669.989	6039.29
670.18	5947.13
670.371	5992.19
670.563	6051.58
670.754	6172.41
670.945	5779.2
671.136	5908.22
671.327	5908.22
671.518	5914.36
671.709	5814.01
671.9	5914.36
672.091	5750.53
672.282	5844.73
672.473	5705.47
672.664	5762.81
672.855	5758.72
673.046	5983.99
673.237	5889.79
673.428	5721.85
673.619	5598.98
673.809	5613.31
674	5549.82
674.191	5572.35
674.382	5455.62
674.573	5433.09
674.764	5418.75
674.954	5515.01
675.145	5381.89
675.336	5424.9
675.527	5439.23
675.717	5293.83
675.908	5285.64
676.099	5285.64
676.289	5408.51
676.48	5310.21
676.671	5275.4
676.861	5367.56
677.052	5449.47
677.243	5228.29
677.433	5097.22
677.624	5187.33
677.814	5271.3
678.005	5209.86
678.195	5259.01
678.386	5177.09
678.576	4890.38
678.767	5070.6
678.957	4914.95
679.148	5043.98
679.338	5228.29
679.529	5076.74
679.719	4972.3
679.909	5007.11
680.1	5140.23
680.29	4986.63
680.481	4974.35
680.671	5054.22
680.861	4943.63
681.052	4929.29
681.242	4751.12
681.432	4902.67
681.622	4790.03
681.813	4976.39
682.003	4929.29
682.193	4845.32
682.383	4796.17
682.573	4761.36
682.764	4839.18
682.954	4790.03
683.144	4853.52
683.334	4851.47
683.524	4742.92
683.714	4790.03
683.904	4734.73
684.094	4595.47
684.284	4624.14
684.474	4841.23
684.664	4652.81
684.854	4562.7
685.044	4540.18
685.234	4560.66
685.424	4669.2
685.614	4554.51
685.804	4652.81
685.994	4579.09
686.184	4560.66
686.374	4601.62
686.564	4527.89
686.753	4427.54
686.943	4325.14
687.133	4351.76
687.323	4409.11
687.513	4558.61
687.702	4126.49
687.892	4417.3
688.082	4265.75
688.272	4220.69
688.461	4349.71
688.651	4445.97
688.841	4349.71
689.03	4253.46
689.22	4255.51
689.41	4247.32
689.599	4316.95
689.789	4091.67
689.979	4124.44
690.168	4140.82
690.358	4232.98
690.547	3993.37
690.737	3995.42
690.926	4048.66
691.116	3813.15
691.305	3997.46
691.495	4089.62
691.684	3909.4
691.874	3948.31
692.063	4030.23
692.252	4071.19
692.442	3956.5
692.631	3936.03
692.82	3866.39
693.01	3866.39
693.199	3923.74
693.388	3907.35
693.578	3899.16
693.767	3925.79
693.956	3948.31
694.146	3792.67
694.335	3890.97
694.524	3854.11
694.713	3829.53
694.902	3743.52
695.092	3694.36
695.281	3745.56
695.47	3723.04
695.659	3696.41
695.848	3854.11
696.037	3704.6
696.226	3809.05
696.415	3616.54
696.604	3866.39
696.793	3653.41
696.982	3600.16
697.171	3784.48
697.36	3774.24
697.549	3598.11
697.738	3614.49
697.927	3677.98
698.116	3669.79
698.305	3669.79
698.494	3598.11
698.683	3639.07
698.872	3516.19
699.061	3624.73
699.25	3688.22
699.438	3520.29
699.627	3630.88
699.816	3540.77
700.005	3587.87
700.193	3540.77
700.382	3606.3
700.571	3401.51
700.76	3385.12
700.948	3526.43
701.137	3477.28
701.326	3520.29
701.514	3495.71
701.703	3528.48
701.892	3374.88
702.08	3417.89
702.269	3471.14
702.457	3485.47
702.646	3417.89
702.834	3389.22
703.023	3264.29
703.212	3366.69
703.4	3438.37
703.589	3389.22
703.777	3305.25
703.965	3387.17
704.154	3346.21
704.342	3358.5
704.531	3344.16
704.719	3188.52
704.907	3417.89
705.096	3372.83
705.284	3385.12
705.472	3245.86
705.661	3211.04
705.849	3317.54
706.037	3059.49
706.226	3168.04
706.414	3112.74
706.602	3174.18
706.79	3268.39
706.979	3090.21
707.167	3184.42
707.355	3211.04
707.543	3165.99
707.731	3270.44
707.919	3262.24
708.107	3182.37
708.296	3125.03
708.484	3176.23
708.672	3084.07
708.86	3186.47
709.048	3184.42
709.236	3254.05
709.424	2903.85
709.612	3229.48
709.8	3022.63
709.988	2957.1
710.176	2989.86
710.364	3030.82
710.551	3053.35
710.739	3114.79
710.927	3069.73
711.115	2950.95
711.303	3045.16
711.491	3041.06
711.679	2932.52
711.866	3055.4
712.054	2959.14
712.242	2965.29
712.43	3139.37
712.617	2944.81
712.805	2955.05
712.993	2975.53
713.181	2821.93
713.368	2926.38
713.556	2926.38
713.744	2795.31
713.931	2912.04
714.119	2899.75
714.306	2875.18
714.494	3018.54
714.682	2883.37
714.869	2803.5
715.057	2793.26
715.244	2875.18
715.432	2907.94
715.619	2871.08
715.807	2877.23
715.994	2729.77
716.182	2721.58
716.369	2801.45
716.556	2694.96
716.744	2805.55
716.931	2821.93
717.119	2762.54
717.306	2791.21
717.493	2750.25
717.681	2760.49
717.868	2785.07
718.055	2750.25
718.242	2733.87
718.43	2684.72
718.617	2664.24
718.804	2697
718.991	2719.53
719.179	2662.19
719.366	2555.69
719.553	2549.55
719.74	2735.92
719.927	2658.09
720.114	2598.7
720.301	2604.85
720.488	2574.13
720.676	2592.56
720.863	2819.88
721.05	2522.93
721.237	2615.09
721.424	2506.54
721.611	2467.63
721.798	2529.07
721.985	2465.58
722.172	2565.93
722.358	2490.16
722.545	2578.22
722.732	2492.21
722.919	2617.13
723.106	2531.12
723.293	2490.16
723.48	2416.43
723.667	2496.3
723.853	2318.13
724.04	2467.63
724.227	2502.45
724.414	2461.49
724.6	2363.19
724.787	2430.77
724.974	2314.03
725.161	2404.14
725.347	2424.62
725.534	2504.5
725.72	2311.99
725.907	2410.29
726.094	2367.28
726.28	2395.95
726.467	2346.8
726.653	2301.75
726.84	2416.43
727.027	2434.86
727.213	2363.19
727.4	2330.42
727.586	2367.28
727.773	2318.13
727.959	2287.41
728.145	2375.47
728.332	2303.79
728.518	2273.07
728.705	2381.62
728.891	2438.96
729.077	2457.39
729.264	2244.4
729.45	2238.26
729.636	2318.13
729.823	2311.99
730.009	2182.96
730.195	2303.79
730.382	2205.49
730.568	2287.41
730.754	2230.07
730.94	2244.4
731.126	2211.64
731.313	2168.63
731.499	2148.15
731.685	2211.64
731.871	2180.92
732.057	2228.02
732.243	2174.77
732.429	2099
732.615	2252.59
732.801	2199.35
732.987	2142
733.173	2293.55
733.359	2088.76
733.545	2176.82
733.731	2008.89
733.917	2144.05
734.103	2205.49
734.289	2191.16
734.475	2207.54
734.661	2039.61
734.847	2162.48
735.033	2195.25
735.219	2051.89
735.404	2037.56
735.59	2158.39
735.776	2043.7
735.962	2246.45
736.148	2017.08
736.333	2178.87
736.519	2000.69
736.705	2084.66
736.89	2055.99
737.076	2084.66
737.262	2113.33
737.447	2004.79
737.633	1984.31
737.819	2010.93
738.004	2000.69
738.19	1939.26
738.375	1867.58
738.561	1980.22
738.747	1886.01
738.932	1908.54
739.118	1945.4
739.303	1980.22
739.489	1957.69
739.674	1984.31
739.859	1943.35
740.045	2043.7
740.23	1990.45
740.416	1947.45
740.601	1861.43
740.786	1838.91
740.972	1900.34
741.157	1789.75
741.342	1871.67
741.528	1810.23
741.713	1769.27
741.898	1773.37
742.084	1812.28
742.269	1863.48
742.454	1820.47
742.639	1963.83
742.824	1834.81
743.01	1773.37
743.195	1867.58
743.38	1789.75
743.565	1781.56
743.75	1699.64
743.935	1771.32
744.12	1810.23
744.305	1664.83
744.49	1638.2
744.675	1781.56
744.86	1793.85
745.045	1736.51
745.23	1617.72
745.415	1632.06
745.6	1797.95
745.785	1691.45
745.97	1754.94
746.155	1591.1
746.34	1728.31
746.525	1597.24
746.71	1597.24
746.895	1580.86
747.079	1650.49
747.264	1617.72
747.449	1670.97
747.634	1703.74
747.819	1523.52
748.003	1544
748.188	1584.96
748.373	1560.38
748.557	1670.97
748.742	1474.37
748.927	1541.95
749.111	1441.6
749.296	1492.8
749.481	1548.09
749.665	1425.22
749.85	1441.6
750.034	1482.56
750.219	1531.71
750.404	1343.3
750.588	1412.93
750.773	1460.03
750.957	1367.87
751.141	1359.68
751.326	1443.65
751.51	1406.78
751.695	1359.68
751.879	1277.76
752.064	1425.22
752.248	1398.59
752.432	1367.87
752.617	1374.02
752.801	1402.69
752.985	1226.56
753.17	1302.34
753.354	1341.25
753.538	1331.01
753.722	1204.03
753.907	1261.38
754.091	1222.47
754.275	1294.15
754.459	1191.75
754.643	1285.95
754.828	1216.32
755.012	1085.25
755.196	1253.19
755.38	1120.07
755.564	1122.12
755.748	1134.4
755.932	1066.82
756.116	1218.37
756.3	1140.55
756.484	1138.5
756.668	1167.17
756.852	1019.72
757.036	1081.16
757.22	1093.44
757.404	1105.73
757.588	1130.31
757.772	1120.07
757.956	1009.48
758.14	1132.36
758.323	1118.02
758.507	1056.58
758.691	1032.01
758.875	1032.01
759.059	1048.39
759.242	1029.96
759.426	993.09
759.61	1007.43
759.794	857.93
759.977	982.85
760.161	1075.01
760.345	1085.25
760.528	1081.16
760.712	1029.96
760.895	878.41
761.079	771.91
761.263	925.51
761.446	884.55
761.63	855.88
761.813	950.09
761.997	909.13
762.18	814.92
762.364	900.94
762.547	831.3
762.731	925.51
762.914	1015.62
763.098	925.51
763.281	870.22
763.464	919.37
763.648	935.75
763.831	851.78
764.015	876.36
764.198	788.3
764.381	831.3
764.564	892.74
764.748	853.83
764.931	905.03
765.114	888.65
765.297	810.82
765.481	821.06
765.664	847.69
765.847	765.77
766.03	816.97
766.213	862.02
766.397	796.49
766.58	704.33
766.763	814.92
766.946	851.78
767.129	812.87
767.312	788.3
767.495	810.82
767.678	759.63
767.861	782.15
768.044	835.4
768.227	829.26
768.41	794.44
768.593	878.41
768.776	722.76
768.959	798.54
769.142	714.57
769.324	780.11
769.507	681.8
769.69	767.82
769.873	763.72
770.056	753.48
770.239	792.39
770.421	839.5
770.604	782.15
770.787	673.61
770.97	741.19
771.152	708.43
771.335	683.85
771.518	649.04
771.7	706.38
771.883	816.97
772.066	716.62
772.248	663.37
772.431	755.53
772.613	653.13
772.796	689.99
772.978	698.19
773.161	755.53
773.343	708.43
773.526	716.62
773.708	599.88
773.891	608.08
774.073	667.47
774.256	640.84
774.438	692.04
774.621	589.64
774.803	702.28
774.985	632.65
775.168	655.18
775.35	675.66
775.532	575.31
775.715	618.32
775.897	567.12
776.079	579.4
776.261	649.04
776.444	593.74
776.626	618.32
776.808	603.98
776.99	503.63
777.173	575.31
777.355	573.26
777.537	575.31
777.719	589.64
777.901	610.12
778.083	524.11
778.265	573.26
778.447	548.68
778.629	499.53
778.811	530.25
778.993	583.5
779.175	603.98
779.357	501.58
779.539	507.73
779.721	526.16
779.903	532.3
780.085	446.29
780.267	491.34
780.449	458.57
780.631	485.2
780.812	470.86
780.994	483.15
781.176	517.97
781.358	468.81
781.54	579.4
781.721	513.87
781.903	427.85
782.085	458.57
782.267	540.49
782.448	454.48
782.63	329.55
782.812	444.24
782.993	470.86
783.175	481.1
783.357	429.9
783.538	491.34
783.72	429.9
783.901	442.19
784.083	558.92
784.264	397.14
784.446	466.77
784.627	417.61
784.809	436.05
784.99	413.52
785.172	452.43
785.353	436.05
785.535	393.04
785.716	407.38
785.897	352.08
786.079	485.2
786.26	345.94
786.441	462.67
786.623	282.45
786.804	411.47
786.985	423.76
787.167	401.23
787.348	321.36
787.529	376.66
787.71	450.38
787.891	419.66
788.073	425.81
788.254	257.87
788.435	337.74
788.616	388.94
788.797	272.21
788.978	350.03
789.159	302.93
789.34	323.41
789.522	378.7
789.703	272.21
789.884	354.13
790.065	335.7
790.246	292.69
790.427	409.42
790.607	307.02
790.788	335.7
790.969	229.2
791.15	321.36
791.331	341.84
791.512	319.31
791.693	264.02
791.874	294.74
792.054	356.18
792.235	354.13
792.416	315.22
792.597	288.59
792.778	319.31
792.958	304.98
793.139	333.65
793.32	300.88
793.5	337.74
793.681	407.38
793.862	307.02
794.042	249.68
794.223	266.07
794.404	255.83
794.584	282.45
794.765	286.54
794.945	298.83
795.126	343.89
795.306	247.63
795.487	319.31
795.667	229.2
795.848	247.63
796.028	337.74
796.209	323.41
796.389	282.45
796.57	233.3
796.75	257.87
796.93	261.97
797.111	237.39
797.291	241.49
797.471	298.83
797.652	223.06
797.832	253.78
798.012	282.45
798.192	155.47
798.373	214.87
798.553	237.39
798.733	245.59
798.913	173.91
799.093	239.44
799.274	245.59
799.454	253.78
799.634	233.3
799.814	270.16
799.994	264.02
800.174	270.16
800.354	192.34
800.534	98.13
800.714	225.11
800.894	237.39
801.074	223.06
801.254	198.48
801.434	304.98
801.614	255.83
801.794	165.71
801.974	716.62
802.154	245.59
802.334	253.78
802.514	196.43
802.693	214.87
802.873	257.87
803.053	204.63
803.233	221.01
803.413	227.15
803.592	208.72
803.772	128.85
803.952	175.95
804.131	206.67
804.311	204.63
804.491	239.44
804.67	173.91
804.85	182.1
805.03	147.28
805.209	249.68
805.389	171.86
805.568	208.72
805.748	270.16
805.928	294.74
806.107	188.24
806.287	130.9
806.466	231.25
806.646	171.86
806.825	200.53
807.004	235.35
807.184	81.75
807.363	194.39
807.543	216.91
807.722	149.33
807.901	241.49
808.081	180.05
808.26	147.28
808.439	145.24
808.619	221.01
808.798	81.75
808.977	91.99
809.156	198.48
809.336	192.34
809.515	204.63
809.694	89.94
809.873	116.56
810.052	227.15
810.231	255.83
810.411	159.57
810.59	196.43
810.769	155.47
810.948	188.24
811.127	130.9
811.306	132.95
811.485	126.8
811.664	141.14
811.843	102.23
812.022	91.99
812.201	48.98
812.38	208.72
812.559	122.71
812.737	159.57
812.916	122.71
813.095	102.23
813.274	122.71
813.453	151.38
813.632	128.85
813.811	122.71
813.989	130.9
814.168	218.96
814.347	89.94
814.526	155.47
814.704	239.44
814.883	106.32
815.062	114.52
815.24	149.33
815.419	163.67
815.598	122.71
815.776	126.8
815.955	94.04
816.133	108.37
816.312	151.38
816.49	130.9
816.669	130.9
816.847	159.57
817.026	155.47
817.204	137.04
817.383	108.37
817.561	196.43
817.74	110.42
817.918	182.1
818.097	94.04
818.275	130.9
818.453	116.56
818.632	171.86
818.81	151.38
818.988	67.41
819.167	118.61
819.345	157.52
819.523	67.41
819.701	85.84
819.879	91.99
820.058	130.9
820.236	153.43
820.414	106.32
820.592	157.52
820.77	137.04
820.948	102.23
821.127	120.66
821.305	157.52
821.483	71.51
821.661	122.71
821.839	110.42
822.017	118.61
822.195	63.32
822.373	163.67
822.551	51.03
822.729	188.24
822.907	38.74
823.085	122.71
823.262	100.18
823.44	91.99
823.618	114.52
823.796	89.94
823.974	102.23
824.152	53.08
824.329	98.13
824.507	59.22
824.685	48.98
824.863	40.79
825.04	122.71
825.218	124.76
825.396	28.5
825.574	69.46
825.751	69.46
825.929	108.37
826.107	65.36
826.284	159.57
826.462	44.88
826.639	89.94
826.817	96.08
826.994	91.99
827.172	75.6
827.349	147.28
827.527	151.38
827.704	91.99
827.882	147.28
828.059	112.47
828.237	36.69
828.414	106.32
828.591	61.27
828.769	139.09
828.946	-0.17
829.124	124.76
829.301	118.61
829.478	108.37
829.655	36.69
829.833	135
830.01	-28.84
830.187	98.13
830.364	139.09
830.542	53.08
830.719	106.32
830.896	104.28
831.073	73.56
831.25	116.56
831.427	171.86
831.604	147.28
831.782	20.31
831.959	128.85
832.136	122.71
832.313	85.84
832.49	116.56
832.667	32.6
832.844	73.56
833.021	106.32
833.198	85.84
833.374	61.27
833.551	147.28
833.728	48.98
833.905	44.88
834.082	36.69
834.259	184.15
834.436	106.32
834.612	57.17
834.789	135
834.966	20.31
835.143	130.9
835.319	20.31
835.496	87.89
835.673	118.61
835.85	83.8
836.026	20.31
836.203	89.94
836.38	53.08
836.556	85.84
836.733	40.79
836.909	102.23
837.086	65.36
837.262	79.7
837.439	51.03
837.616	139.09
837.792	114.52
837.968	34.64
838.145	14.17
838.321	75.6
838.498	65.36
838.674	143.19
838.851	106.32
839.027	24.4
839.203	65.36
839.38	65.36
839.556	30.55
839.732	-6.31
839.909	81.75
840.085	75.6
840.261	89.94
840.437	46.93
840.614	-0.17
840.79	-22.7
840.966	130.9
841.142	98.13
841.318	89.94
841.494	55.12
841.671	122.71
841.847	106.32
842.023	16.21
842.199	51.03
842.375	40.79
842.551	59.22
842.727	-49.32
842.903	85.84
843.079	69.46
843.255	55.12
843.431	73.56
843.607	3.93
843.783	-10.41
843.959	106.32
844.134	12.12
844.31	53.08
844.486	59.22
844.662	36.69
844.838	132.95
845.013	69.46
845.189	53.08
845.365	83.8
845.541	42.84
845.716	65.36
845.892	67.41
846.068	106.32
846.244	-16.55
846.419	85.84
846.595	-49.32
846.77	34.64
846.946	96.08
847.122	36.69
847.297	73.56
847.473	94.04
847.648	73.56
847.824	32.6
847.999	48.98
848.175	28.5
848.35	53.08
848.526	89.94
848.701	24.4
848.876	116.56
849.052	100.18
849.227	22.36
849.403	-20.65
849.578	53.08
849.753	98.13
849.929	63.32
850.104	14.17
850.279	-2.22
850.454	57.17
850.63	114.52
850.805	46.93
850.98	34.64
851.155	51.03
851.33	122.71
851.505	55.12
851.681	118.61
851.856	-20.65
852.031	8.02
852.206	46.93
852.381	1.88
852.556	40.79
852.731	38.74
852.906	34.64
853.081	40.79
853.256	89.94
853.431	46.93
853.606	46.93
853.781	-10.41
853.956	8.02
854.131	20.31
854.305	16.21
854.48	-0.17
854.655	48.98
854.83	85.84
855.005	8.02
855.18	34.64
855.354	98.13
855.529	20.31
855.704	-22.7
855.879	59.22
856.053	-26.79
856.228	81.75
856.403	67.41
856.577	98.13
856.752	-16.55
856.926	-8.36
857.101	-45.23
857.276	65.36
857.45	46.93
857.625	73.56
857.799	-10.41
857.974	65.36
858.148	-0.17
858.323	53.08
858.497	-4.27
858.672	38.74
858.846	-32.94
859.02	42.84
859.195	-28.84
859.369	-57.51
859.543	69.46
859.718	42.84
859.892	-14.51
860.066	139.09
860.241	40.79
860.415	18.26
860.589	3.93
860.763	51.03
860.938	57.17
861.112	24.4
861.286	18.26
861.46	34.64
861.634	26.45
861.808	57.17
861.982	-10.41
862.157	57.17
862.331	40.79
862.505	38.74
862.679	18.26
862.853	24.4
863.027	-20.65
863.201	104.28
863.375	48.98
863.549	81.75
863.722	22.36
863.896	-0.17
864.07	-20.65
864.244	-12.46
864.418	116.56
864.592	-22.7
864.766	-49.32
864.939	81.75
865.113	38.74
865.287	26.45
865.461	-20.65
865.634	18.26
865.808	57.17
865.982	65.36
866.156	63.32
866.329	-80.04
866.503	14.17
866.676	48.98
866.85	8.02
867.024	30.55
867.197	5.97
867.371	-0.17
867.544	-4.27
867.718	-39.08
867.891	51.03
868.065	5.97
868.238	-4.27
868.412	53.08
868.585	36.69
868.759	16.21
868.932	16.21
869.105	48.98
869.279	16.21
869.452	-55.47
869.625	8.02
869.799	75.6
869.972	-14.51
870.145	20.31
870.319	20.31
870.492	-32.94
870.665	-65.71
870.838	8.02
871.011	-24.75
871.185	59.22
871.358	30.55
871.531	81.75
871.704	8.02
871.877	-14.51
872.05	14.17
872.223	24.4
872.396	48.98
872.569	48.98
872.742	26.45
872.915	65.36
873.088	57.17
873.261	63.32
873.434	-22.7
873.607	69.46
873.78	-8.36
873.953	-8.36
874.126	-57.51
874.299	26.45
874.471	-53.42
874.644	73.56
874.817	32.6
874.99	106.32
875.163	-16.55
875.335	87.89
875.508	-30.89
875.681	118.61
875.853	55.12
876.026	8.02
876.199	26.45
876.371	24.4
876.544	16.21
876.717	38.74
876.889	-30.89
877.062	8.02
877.234	51.03
877.407	-8.36
877.579	3.93
877.752	8.02
877.924	32.6
878.097	65.36
878.269	24.4
878.442	-6.31
878.614	77.65
878.786	-30.89
878.959	44.88
879.131	1.88
879.303	26.45
879.476	73.56
879.648	-53.42
879.82	-12.46
879.993	10.07
880.165	26.45
880.337	-37.03
880.509	8.02
880.681	1.88
880.854	8.02
881.026	26.45
881.198	8.02
881.37	44.88
881.542	-45.23
881.714	32.6
881.886	38.74
882.058	18.26
882.23	-10.41
882.402	1.88
882.574	-14.51
882.746	8.02
882.918	26.45
883.09	8.02
883.262	24.4
883.434	-24.75
883.606	48.98
883.778	-0.17
883.95	135
884.122	48.98
884.293	8.02
884.465	61.27
884.637	-4.27
884.809	32.6
884.98	42.84
885.152	94.04
885.324	-8.36
885.496	-39.08
885.667	67.41
885.839	-77.99
886.011	83.8
886.182	-0.17
886.354	28.5
886.525	59.22
886.697	-8.36
886.869	42.84
887.04	67.41
887.212	1.88
887.383	91.99
887.555	-0.17
887.726	40.79
887.897	30.55
888.069	-4.27
888.24	42.84
888.412	3.93
888.583	-0.17
888.754	8.02
888.926	-65.71
889.097	-41.13
889.268	-14.51
889.44	-6.31
889.611	-30.89
889.782	-39.08
889.953	5.97
890.125	91.99
890.296	12.12
890.467	10.07
890.638	81.75
890.809	-4.27
890.98	28.5
891.151	-6.31
891.323	8.02
891.494	81.75
891.665	-18.6
891.836	-43.18
892.007	57.17
892.178	59.22
892.349	24.4
892.52	30.55
892.691	-57.51
892.862	-49.32
893.032	34.64
893.203	-34.99
893.374	38.74
893.545	-0.17
893.716	77.65
893.887	20.31
894.057	-12.46
894.228	-6.31
894.399	-53.42
894.57	51.03
894.74	-22.7
894.911	57.17
895.082	8.02
895.253	-45.23
895.423	14.17
895.594	48.98
895.764	36.69
895.935	-16.55
896.106	-2.22
896.276	16.21
896.447	-0.17
896.617	28.5
896.788	-67.75
896.958	3.93
897.129	-53.42
897.299	18.26
897.47	71.51
897.64	-0.17
897.81	10.07
897.981	-16.55
898.151	-28.84
898.322	24.4
898.492	53.08
898.662	-71.85
898.832	-22.7
899.003	44.88
899.173	24.4
899.343	14.17
899.513	-12.46
