Data from USB4F104151__243__14-22-29-064.txt Node

Date: Thu Mar 13 14:22:29 EDT 2025
User: louis
Spectrometer: USB4F10415
Trigger mode: 4
Integration Time (sec): 2.000000E-2
Scans to average: 1
Electric dark correction enabled: true
Nonlinearity correction enabled: false
Boxcar width: 0
XAxis mode: Wavelengths
Number of Pixels in Spectrum: 3648
>>>>>Begin Spectral Data<<<<<
178.204	-39.94
178.424	-39.94
178.644	-39.94
178.864	-171.01
179.084	-97.28
179.304	19.46
179.524	-35.84
179.744	-29.7
179.964	50.18
180.184	-27.65
180.404	-7.17
180.624	68.61
180.844	-31.74
181.064	13.31
181.283	72.7
181.503	-58.37
181.723	-33.79
181.943	-15.36
182.163	21.5
182.383	25.6
182.602	9.22
182.822	41.98
183.042	-48.13
183.262	-121.85
183.482	19.46
183.701	-7.17
183.921	-3.07
184.141	-39.94
184.361	74.75
184.58	25.6
184.8	7.17
185.02	-29.7
185.239	29.7
185.459	-19.46
185.679	29.7
185.898	-39.94
186.118	23.55
186.338	50.18
186.557	54.27
186.777	-87.04
186.997	17.41
187.216	25.6
187.436	115.71
187.655	-25.6
187.875	17.41
188.095	-23.55
188.314	-54.27
188.534	44.03
188.753	-7.17
188.973	76.8
189.192	46.08
189.412	17.41
189.631	64.51
189.851	-62.46
190.07	19.46
190.29	-9.22
190.509	-46.08
190.729	-15.36
190.948	109.57
191.168	54.27
191.387	21.5
191.607	-44.03
191.826	-13.31
192.045	50.18
192.265	-46.08
192.484	-25.6
192.704	-17.41
192.923	-66.56
193.142	25.6
193.362	-48.13
193.581	68.61
193.8	41.98
194.02	56.32
194.239	50.18
194.458	35.84
194.678	-5.12
194.897	70.65
195.116	17.41
195.335	17.41
195.555	74.75
195.774	17.41
195.993	29.7
196.212	41.98
196.432	-27.65
196.651	5.12
196.87	-29.7
197.089	158.72
197.308	-7.17
197.528	46.08
197.747	1.02
197.966	-29.7
198.185	52.22
198.404	-33.79
198.623	13.31
198.842	78.85
199.062	21.5
199.281	74.75
199.5	29.7
199.719	17.41
199.938	-3.07
200.157	41.98
200.376	72.7
200.595	91.13
200.814	-21.5
201.033	-7.17
201.252	13.31
201.471	19.46
201.69	-3.07
201.909	13.31
202.128	23.55
202.347	66.56
202.566	54.27
202.785	-64.51
203.004	9.22
203.223	50.18
203.442	11.26
203.661	-31.74
203.879	15.36
204.098	60.42
204.317	-3.07
204.536	70.65
204.755	27.65
204.974	66.56
205.193	29.7
205.411	64.51
205.63	46.08
205.849	17.41
206.068	-3.07
206.287	17.41
206.505	29.7
206.724	25.6
206.943	17.41
207.162	-5.12
207.381	46.08
207.599	29.7
207.818	29.7
208.037	-21.5
208.255	25.6
208.474	119.81
208.693	-7.17
208.911	-7.17
209.13	-11.26
209.349	99.33
209.567	9.22
209.786	33.79
210.005	3.07
210.223	64.51
210.442	33.79
210.661	17.41
210.879	-37.89
211.098	41.98
211.316	-29.7
211.535	17.41
211.753	-56.32
211.972	13.31
212.191	-17.41
212.409	1.02
212.628	13.31
212.846	99.33
213.065	58.37
213.283	107.52
213.502	54.27
213.72	-13.31
213.938	54.27
214.157	105.47
214.375	-33.79
214.594	3.07
214.812	13.31
215.031	-11.26
215.249	-46.08
215.467	-54.27
215.686	-17.41
215.904	99.33
216.122	-13.31
216.341	-19.46
216.559	48.13
216.778	119.81
216.996	5.12
217.214	91.13
217.432	-56.32
217.651	-5.12
217.869	-1.02
218.087	-21.5
218.306	-44.03
218.524	41.98
218.742	-3.07
218.96	31.74
219.179	33.79
219.397	25.6
219.615	25.6
219.833	72.7
220.051	5.12
220.27	41.98
220.488	41.98
220.706	-37.89
220.924	-13.31
221.142	46.08
221.36	39.94
221.578	64.51
221.796	23.55
222.015	1.02
222.233	37.89
222.451	109.57
222.669	33.79
222.887	7.17
223.105	-23.55
223.323	25.6
223.541	82.94
223.759	15.36
223.977	1.02
224.195	66.56
224.413	-37.89
224.631	66.56
224.849	9.22
225.067	66.56
225.285	7.17
225.503	19.46
225.721	-103.42
225.939	-29.7
226.157	-23.55
226.375	115.71
226.592	-44.03
226.81	17.41
227.028	9.22
227.246	107.52
227.464	1.02
227.682	84.99
227.9	41.98
228.117	-56.32
228.335	33.79
228.553	-21.5
228.771	21.5
228.989	7.17
229.206	-7.17
229.424	9.22
229.642	5.12
229.86	66.56
230.077	44.03
230.295	27.65
230.513	70.65
230.731	37.89
230.948	35.84
231.166	58.37
231.384	-95.23
231.601	-17.41
231.819	97.28
232.037	37.89
232.254	-13.31
232.472	37.89
232.689	46.08
232.907	62.46
233.125	21.5
233.342	17.41
233.56	-21.5
233.777	50.18
233.995	-3.07
234.213	11.26
234.43	-62.46
234.648	-13.31
234.865	27.65
235.083	58.37
235.3	9.22
235.518	31.74
235.735	121.85
235.953	-13.31
236.17	37.89
236.388	103.42
236.605	1.02
236.822	66.56
237.04	39.94
237.257	27.65
237.475	11.26
237.692	-39.94
237.909	21.5
238.127	25.6
238.344	13.31
238.562	29.7
238.779	41.98
238.996	41.98
239.214	-23.55
239.431	41.98
239.648	-72.7
239.865	3.07
240.083	68.61
240.3	66.56
240.517	-41.98
240.735	62.46
240.952	52.22
241.169	-5.12
241.386	46.08
241.603	1.02
241.821	-50.18
242.038	62.46
242.255	41.98
242.472	37.89
242.689	33.79
242.907	5.12
243.124	25.6
243.341	64.51
243.558	-37.89
243.775	70.65
243.992	-23.55
244.209	-7.17
244.426	82.94
244.643	44.03
244.86	-54.27
245.078	-19.46
245.295	-31.74
245.512	-56.32
245.729	-5.12
245.946	-23.55
246.163	-56.32
246.38	82.94
246.597	-1.02
246.814	29.7
247.031	31.74
247.248	-15.36
247.464	-11.26
247.681	25.6
247.898	-3.07
248.115	1.02
248.332	33.79
248.549	66.56
248.766	78.85
248.983	-39.94
249.2	50.18
249.417	107.52
249.633	50.18
249.85	35.84
250.067	74.75
250.284	15.36
250.501	25.6
250.717	58.37
250.934	60.42
251.151	21.5
251.368	-23.55
251.585	9.22
251.801	29.7
252.018	17.41
252.235	82.94
252.451	-5.12
252.668	-7.17
252.885	58.37
253.102	17.41
253.318	-11.26
253.535	15.36
253.752	35.84
253.968	-91.13
254.185	-3.07
254.401	13.31
254.618	33.79
254.835	1.02
255.051	17.41
255.268	-3.07
255.484	-23.55
255.701	19.46
255.917	41.98
256.134	35.84
256.351	-3.07
256.567	-23.55
256.784	54.27
257	-25.6
257.217	41.98
257.433	25.6
257.65	29.7
257.866	33.79
258.082	-31.74
258.299	-3.07
258.515	21.5
258.732	1.02
258.948	9.22
259.165	13.31
259.381	-9.22
259.597	-5.12
259.814	50.18
260.03	58.37
260.246	-27.65
260.463	27.65
260.679	95.23
260.895	-3.07
261.112	60.42
261.328	-1.02
261.544	-17.41
261.761	46.08
261.977	68.61
262.193	25.6
262.409	-31.74
262.626	41.98
262.842	54.27
263.058	27.65
263.274	35.84
263.49	66.56
263.707	-52.22
263.923	1.02
264.139	-15.36
264.355	-72.7
264.571	19.46
264.787	87.04
265.004	60.42
265.22	56.32
265.436	91.13
265.652	9.22
265.868	19.46
266.084	-44.03
266.3	33.79
266.516	-52.22
266.732	58.37
266.948	54.27
267.164	41.98
267.38	37.89
267.596	31.74
267.812	-23.55
268.028	46.08
268.244	39.94
268.46	-13.31
268.676	-3.07
268.892	-15.36
269.108	17.41
269.324	-11.26
269.54	-7.17
269.756	29.7
269.972	-5.12
270.188	17.41
270.403	9.22
270.619	-21.5
270.835	52.22
271.051	-7.17
271.267	-44.03
271.483	1.02
271.698	11.26
271.914	17.41
272.13	19.46
272.346	-21.5
272.562	-3.07
272.777	15.36
272.993	50.18
273.209	41.98
273.425	-7.17
273.64	-15.36
273.856	-19.46
274.072	27.65
274.287	35.84
274.503	25.6
274.719	29.7
274.934	37.89
275.15	25.6
275.366	46.08
275.581	-9.22
275.797	-23.55
276.012	9.22
276.228	13.31
276.444	1.02
276.659	91.13
276.875	3.07
277.09	-44.03
277.306	50.18
277.521	66.56
277.737	21.5
277.952	21.5
278.168	35.84
278.383	1.02
278.599	66.56
278.814	11.26
279.03	33.79
279.245	-7.17
279.461	1.02
279.676	13.31
279.892	-52.22
280.107	-48.13
280.322	-52.22
280.538	29.7
280.753	41.98
280.969	-54.27
281.184	11.26
281.399	119.81
281.615	-23.55
281.83	35.84
282.045	19.46
282.26	25.6
282.476	-48.13
282.691	17.41
282.906	52.22
283.122	91.13
283.337	-105.47
283.552	-5.12
283.767	-29.7
283.983	-1.02
284.198	13.31
284.413	74.75
284.628	17.41
284.843	1.02
285.058	33.79
285.274	66.56
285.489	33.79
285.704	19.46
285.919	-23.55
286.134	17.41
286.349	52.22
286.564	-23.55
286.779	25.6
286.995	-19.46
287.21	33.79
287.425	74.75
287.64	-3.07
287.855	5.12
288.07	-56.32
288.285	58.37
288.5	11.26
288.715	15.36
288.93	-29.7
289.145	41.98
289.36	76.8
289.575	33.79
289.79	-9.22
290.004	11.26
290.219	105.47
290.434	21.5
290.649	7.17
290.864	-31.74
291.079	9.22
291.294	19.46
291.509	21.5
291.724	41.98
291.938	25.6
292.153	27.65
292.368	29.7
292.583	-46.08
292.798	29.7
293.012	3.07
293.227	-23.55
293.442	5.12
293.657	-27.65
293.871	58.37
294.086	-31.74
294.301	33.79
294.516	-56.32
294.73	-35.84
294.945	17.41
295.16	60.42
295.374	19.46
295.589	-5.12
295.804	3.07
296.018	44.03
296.233	35.84
296.447	35.84
296.662	21.5
296.877	9.22
297.091	-19.46
297.306	33.79
297.52	-13.31
297.735	62.46
297.949	1.02
298.164	68.61
298.378	-60.42
298.593	13.31
298.807	-7.17
299.022	19.46
299.236	17.41
299.451	52.22
299.665	76.8
299.88	1.02
300.094	27.65
300.309	62.46
300.523	-21.5
300.737	-23.55
300.952	-80.89
301.166	-23.55
301.381	-99.33
301.595	35.84
301.809	-13.31
302.024	33.79
302.238	-39.94
302.452	68.61
302.667	19.46
302.881	64.51
303.095	82.94
303.309	17.41
303.524	-54.27
303.738	35.84
303.952	-46.08
304.166	37.89
304.381	-13.31
304.595	46.08
304.809	-54.27
305.023	-1.02
305.237	9.22
305.452	3.07
305.666	27.65
305.88	62.46
306.094	-5.12
306.308	11.26
306.522	68.61
306.736	11.26
306.95	91.13
307.164	-60.42
307.379	50.18
307.593	50.18
307.807	58.37
308.021	64.51
308.235	39.94
308.449	-29.7
308.663	-70.65
308.877	50.18
309.091	17.41
309.305	107.52
309.519	-7.17
309.733	9.22
309.947	-54.27
310.161	25.6
310.374	13.31
310.588	58.37
310.802	27.65
311.016	-3.07
311.23	66.56
311.444	41.98
311.658	54.27
311.872	148.48
312.085	15.36
312.299	54.27
312.513	33.79
312.727	72.7
312.941	5.12
313.154	15.36
313.368	-9.22
313.582	-7.17
313.796	13.31
314.009	-74.75
314.223	21.5
314.437	35.84
314.651	19.46
314.864	-3.07
315.078	60.42
315.292	29.7
315.505	9.22
315.719	50.18
315.933	17.41
316.146	1.02
316.36	13.31
316.573	68.61
316.787	-52.22
317.001	33.79
317.214	-21.5
317.428	-76.8
317.641	19.46
317.855	44.03
318.068	9.22
318.282	82.94
318.495	27.65
318.709	68.61
318.922	17.41
319.136	15.36
319.349	91.13
319.563	11.26
319.776	-3.07
319.99	44.03
320.203	9.22
320.417	-37.89
320.63	25.6
320.843	58.37
321.057	13.31
321.27	9.22
321.483	27.65
321.697	109.57
321.91	11.26
322.124	3.07
322.337	39.94
322.55	13.31
322.763	109.57
322.977	-5.12
323.19	37.89
323.403	-19.46
323.617	46.08
323.83	25.6
324.043	31.74
324.256	21.5
324.469	-52.22
324.683	74.75
324.896	25.6
325.109	17.41
325.322	-52.22
325.535	-21.5
325.748	25.6
325.962	95.23
326.175	76.8
326.388	95.23
326.601	-15.36
326.814	-15.36
327.027	-44.03
327.24	19.46
327.453	-87.04
327.666	44.03
327.879	46.08
328.092	50.18
328.305	15.36
328.518	-17.41
328.731	1.02
328.944	-5.12
329.157	-31.74
329.37	-27.65
329.583	111.61
329.796	17.41
330.009	-7.17
330.222	41.98
330.435	87.04
330.648	52.22
330.861	54.27
331.073	3.07
331.286	60.42
331.499	25.6
331.712	-58.37
331.925	1.02
332.138	-19.46
332.35	21.5
332.563	-25.6
332.776	-23.55
332.989	-31.74
333.202	-19.46
333.414	39.94
333.627	48.13
333.84	-72.7
334.053	54.27
334.265	5.12
334.478	-44.03
334.691	33.79
334.903	5.12
335.116	25.6
335.329	48.13
335.541	58.37
335.754	62.46
335.966	-64.51
336.179	66.56
336.392	35.84
336.604	-25.6
336.817	56.32
337.029	48.13
337.242	9.22
337.454	17.41
337.667	-15.36
337.88	-46.08
338.092	7.17
338.305	50.18
338.517	-33.79
338.729	140.29
338.942	41.98
339.154	35.84
339.367	44.03
339.579	-3.07
339.792	23.55
340.004	74.75
340.217	-64.51
340.429	-31.74
340.641	-29.7
340.854	-31.74
341.066	9.22
341.278	93.18
341.491	9.22
341.703	17.41
341.915	-3.07
342.128	44.03
342.34	25.6
342.552	25.6
342.764	44.03
342.977	33.79
343.189	37.89
343.401	41.98
343.613	-29.7
343.826	3.07
344.038	66.56
344.25	41.98
344.462	-9.22
344.674	9.22
344.886	33.79
345.099	33.79
345.311	74.75
345.523	5.12
345.735	-31.74
345.947	-3.07
346.159	3.07
346.371	1.02
346.583	-5.12
346.795	80.89
347.007	11.26
347.219	44.03
347.431	17.41
347.643	125.95
347.855	33.79
348.067	68.61
348.279	-19.46
348.491	60.42
348.703	-7.17
348.915	44.03
349.127	50.18
349.339	27.65
349.551	-23.55
349.763	15.36
349.975	13.31
350.187	41.98
350.399	-15.36
350.61	105.47
350.822	-19.46
351.034	70.65
351.246	-31.74
351.458	41.98
351.669	107.52
351.881	17.41
352.093	107.52
352.305	21.5
352.517	44.03
352.728	56.32
352.94	74.75
353.152	13.31
353.363	-27.65
353.575	62.46
353.787	82.94
353.999	13.31
354.21	52.22
354.422	-7.17
354.633	23.55
354.845	27.65
355.057	1.02
355.268	-27.65
355.48	68.61
355.692	9.22
355.903	39.94
356.115	17.41
356.326	-3.07
356.538	3.07
356.749	50.18
356.961	11.26
357.172	37.89
357.384	80.89
357.595	91.13
357.807	35.84
358.018	-31.74
358.23	33.79
358.441	95.23
358.653	74.75
358.864	19.46
359.075	44.03
359.287	62.46
359.498	66.56
359.709	9.22
359.921	41.98
360.132	25.6
360.344	50.18
360.555	-5.12
360.766	68.61
360.977	5.12
361.189	41.98
361.4	19.46
361.611	132.09
361.823	72.7
362.034	60.42
362.245	-39.94
362.456	117.76
362.667	3.07
362.879	-21.5
363.09	7.17
363.301	27.65
363.512	-5.12
363.723	13.31
363.935	-7.17
364.146	-11.26
364.357	25.6
364.568	11.26
364.779	-13.31
364.99	91.13
365.201	62.46
365.412	48.13
365.623	52.22
365.834	50.18
366.045	15.36
366.256	27.65
366.467	66.56
366.678	25.6
366.889	-91.13
367.1	27.65
367.311	-15.36
367.522	52.22
367.733	-7.17
367.944	60.42
368.155	41.98
368.366	44.03
368.577	33.79
368.788	1.02
368.999	19.46
369.209	78.85
369.42	91.13
369.631	111.61
369.842	-37.89
370.053	-13.31
370.264	78.85
370.474	13.31
370.685	82.94
370.896	3.07
371.107	19.46
371.317	56.32
371.528	31.74
371.739	95.23
371.95	35.84
372.16	84.99
372.371	-5.12
372.582	-35.84
372.792	121.85
373.003	70.65
373.214	-3.07
373.424	25.6
373.635	31.74
373.846	62.46
374.056	5.12
374.267	19.46
374.477	29.7
374.688	56.32
374.898	7.17
375.109	17.41
375.319	35.84
375.53	50.18
375.74	33.79
375.951	48.13
376.161	25.6
376.372	89.09
376.582	-3.07
376.793	3.07
377.003	-3.07
377.214	-3.07
377.424	66.56
377.635	46.08
377.845	25.6
378.055	125.95
378.266	70.65
378.476	82.94
378.686	56.32
378.897	103.42
379.107	62.46
379.317	3.07
379.528	9.22
379.738	-19.46
379.948	5.12
380.158	21.5
380.369	23.55
380.579	95.23
380.789	-3.07
380.999	103.42
381.21	62.46
381.42	156.67
381.63	46.08
381.84	78.85
382.05	13.31
382.261	1.02
382.471	66.56
382.681	35.84
382.891	46.08
383.101	119.81
383.311	13.31
383.521	-17.41
383.731	25.6
383.941	5.12
384.151	41.98
384.361	60.42
384.571	5.12
384.781	11.26
384.991	50.18
385.201	19.46
385.411	9.22
385.621	9.22
385.831	-7.17
386.041	62.46
386.251	-56.32
386.461	33.79
386.671	82.94
386.881	33.79
387.091	-7.17
387.301	74.75
387.511	58.37
387.72	1.02
387.93	17.41
388.14	46.08
388.35	-3.07
388.56	70.65
388.769	-19.46
388.979	56.32
389.189	-23.55
389.399	-60.42
389.609	74.75
389.818	66.56
390.028	9.22
390.238	62.46
390.447	-7.17
390.657	58.37
390.867	82.94
391.076	-13.31
391.286	150.53
391.496	19.46
391.705	-21.5
391.915	50.18
392.125	58.37
392.334	41.98
392.544	9.22
392.753	17.41
392.963	-44.03
393.172	1.02
393.382	33.79
393.591	68.61
393.801	15.36
394.01	99.33
394.22	105.47
394.429	74.75
394.639	17.41
394.848	1.02
395.058	27.65
395.267	13.31
395.477	103.42
395.686	70.65
395.895	41.98
396.105	62.46
396.314	74.75
396.524	76.8
396.733	62.46
396.942	72.7
397.152	80.89
397.361	87.04
397.57	62.46
397.78	66.56
397.989	60.42
398.198	111.61
398.407	33.79
398.617	78.85
398.826	60.42
399.035	87.04
399.244	-39.94
399.453	72.7
399.663	41.98
399.872	82.94
400.081	64.51
400.29	82.94
400.499	60.42
400.708	132.09
400.917	70.65
401.127	82.94
401.336	29.7
401.545	99.33
401.754	74.75
401.963	78.85
402.172	27.65
402.381	62.46
402.59	107.52
402.799	128
403.008	121.85
403.217	39.94
403.426	58.37
403.635	99.33
403.844	41.98
404.053	41.98
404.262	70.65
404.471	140.29
404.68	68.61
404.888	134.14
405.097	132.09
405.306	48.13
405.515	82.94
405.724	60.42
405.933	134.14
406.142	128
406.35	91.13
406.559	156.67
406.768	191.49
406.977	107.52
407.185	93.18
407.394	123.9
407.603	82.94
407.812	226.3
408.02	181.25
408.229	199.68
408.438	130.05
408.646	82.94
408.855	156.67
409.064	142.33
409.272	138.24
409.481	201.72
409.69	144.38
409.898	195.58
410.107	177.15
410.315	211.96
410.524	117.76
410.733	205.82
410.941	234.49
411.15	259.07
411.358	295.93
411.567	211.96
411.775	240.64
411.984	246.78
412.192	246.78
412.401	273.4
412.609	271.36
412.818	363.51
413.026	306.17
413.234	328.7
413.443	394.23
413.651	336.89
413.86	369.66
414.068	451.58
414.276	404.47
414.485	424.95
414.693	394.23
414.901	523.26
415.11	470.01
415.318	492.54
415.526	445.43
415.734	502.78
415.943	521.21
416.151	500.73
416.359	467.96
416.567	496.63
416.776	615.41
416.984	629.75
417.192	635.89
417.4	625.65
417.608	611.32
417.817	713.72
418.025	685.05
418.233	828.4
418.441	691.19
418.649	742.39
418.857	783.35
419.065	857.07
419.273	824.31
419.481	863.22
419.689	1000.43
419.897	1006.58
420.105	986.1
420.313	916.47
420.521	998.38
420.729	1076.21
420.937	1029.1
421.145	1106.93
421.353	1215.47
421.561	1330.16
421.769	1301.48
421.977	1360.88
422.185	1291.24
422.393	1328.11
422.601	1496.04
422.809	1532.9
423.017	1459.18
423.224	1584.1
423.432	1541.1
423.64	1631.21
423.848	1711.08
424.056	1706.98
424.263	1844.2
424.471	1885.16
424.679	1852.39
424.887	2026.47
425.094	2067.42
425.302	2036.7
425.51	2008.03
425.718	2122.72
425.925	2051.04
426.133	2237.41
426.341	2442.2
426.548	2524.12
426.756	2440.15
426.964	2479.07
427.171	2649.05
427.379	2804.69
427.586	2712.53
427.794	2968.53
428.001	2915.28
428.209	2974.67
428.417	3173.33
428.624	3220.43
428.832	3371.98
429.039	3122.13
429.247	3294.16
429.454	3605.45
429.662	3877.83
429.869	3521.48
430.076	3785.67
430.284	3679.18
430.491	3892.16
430.699	4096.96
430.906	4074.43
431.114	4039.62
431.321	4369.34
431.528	4352.96
431.736	4527.03
431.943	4705.21
432.15	4731.83
432.358	4737.98
432.565	5073.84
432.772	5106.61
432.979	5319.6
433.187	5239.73
433.394	5272.5
433.601	5721
433.808	5653.42
434.016	5833.64
434.223	5936.04
434.43	6210.47
434.637	6192.03
434.844	6572.96
435.052	6618.01
435.259	6579.1
435.466	6648.73
435.673	6661.02
435.88	7023.51
436.087	7345.04
436.294	7410.57
436.501	7334.8
436.708	7410.57
436.915	7746.44
437.122	7824.26
437.329	7799.69
437.537	8213.38
437.743	8391.55
437.95	8205.19
438.157	8616.83
438.364	8948.6
438.571	8962.94
438.778	9028.47
438.985	9646.96
439.192	9618.29
439.399	9816.94
439.606	9421.68
439.813	9962.34
440.02	10609.5
440.227	10443.62
440.433	10355.55
440.64	10556.25
440.847	10599.26
441.054	11053.91
441.261	11703.12
441.467	11471.7
441.674	11559.76
441.881	12012.36
442.088	12010.31
442.294	12088.14
442.501	12096.33
442.708	12510.02
442.914	12979
443.121	13497.14
443.328	13196.09
443.534	14226.21
443.741	13763.37
443.948	13378.36
444.154	14394.15
444.361	14351.14
444.568	14467.88
444.774	14588.71
444.981	14568.23
445.187	15133.47
445.394	15622.93
445.6	15557.39
445.807	17109.75
446.013	16268.04
446.22	16505.6
446.426	17148.67
446.633	17246.97
446.839	18074.35
447.046	16904.96
447.252	18023.15
447.459	18229.99
447.665	18014.96
447.871	18950.88
448.078	19704.53
448.284	18879.2
448.491	19206.87
448.697	19976.91
448.903	20419.27
449.11	20675.27
449.316	19890.9
449.522	20673.22
449.728	21099.2
449.935	20927.17
450.141	21242.56
450.347	21531.32
450.553	20957.89
450.76	21267.13
450.966	22151.85
451.172	21650.1
451.378	22239.92
451.584	21899.95
451.791	22610.6
451.997	22303.4
452.203	22571.69
452.409	22465.19
452.615	22708.9
452.821	21803.7
453.027	21379.77
453.233	22643.37
453.44	21893.81
453.646	22014.64
453.852	22067.89
454.058	22432.43
454.264	21598.9
454.47	22413.99
454.676	21865.14
454.882	22373.03
455.088	20513.48
455.294	20783.81
455.5	21039.81
455.705	21195.45
455.911	20509.38
456.117	19985.1
456.323	19798.74
456.529	18731.75
456.735	19460.82
456.941	19266.27
457.147	18750.18
457.352	18240.23
457.558	18158.31
457.764	18096.88
457.97	17998.57
458.176	17656.56
458.381	17507.06
458.587	16524.04
458.793	16626.43
458.999	15618.83
459.204	17003.26
459.41	16247.56
459.616	15254.3
459.821	15498
460.027	15256.34
460.233	14951.2
460.438	14291.75
460.644	14480.16
460.85	13562.67
461.055	13452.08
461.261	13558.58
461.466	12507.97
461.672	12020.55
461.878	12989.24
462.083	11922.25
462.289	11856.72
462.494	11756.36
462.7	11051.86
462.905	10832.73
463.111	11400.02
463.316	11537.23
463.522	11076.44
463.727	11113.3
463.932	11182.93
464.138	11160.41
464.343	11051.86
464.549	10900.31
464.754	11105.11
464.959	10914.65
465.165	10812.25
465.37	10486.62
465.575	10388.32
465.781	10427.23
465.986	10648.41
466.191	10216.29
466.397	10081.13
466.602	9618.29
466.807	9933.67
467.012	9780.07
467.218	9829.23
467.423	9706.35
467.628	9784.17
467.833	10242.92
468.038	9825.13
468.244	9644.91
468.449	9937.77
468.654	9675.63
468.859	9450.35
469.064	9544.56
469.269	9083.77
469.474	9163.64
469.679	9495.41
469.885	9053.05
470.09	9372.53
470.295	9347.95
470.5	8751.99
470.705	9003.89
470.91	8827.77
471.115	8790.91
471.32	8749.95
471.525	8864.63
471.73	8713.08
471.935	8450.94
472.139	8332.16
472.344	8430.46
472.549	8297.35
472.754	8256.39
472.959	7930.76
473.164	7676.81
473.369	7900.04
473.574	8057.73
473.778	7979.91
473.983	7916.42
474.188	7891.85
474.393	7508.88
474.598	7644.04
474.802	7576.46
475.007	7635.85
475.212	7529.36
475.417	7232.4
475.621	7252.88
475.826	7324.56
476.031	7089.04
476.235	6923.16
476.44	7130
476.645	6828.95
476.849	6867.86
477.054	6845.34
477.259	6861.72
477.463	6833.05
477.668	6376.35
477.872	6593.44
478.077	6505.37
478.282	6464.41
478.486	6276
478.691	6220.71
478.895	6335.39
479.1	6331.3
479.304	6308.77
479.509	6087.59
479.713	6192.03
479.918	6038.44
480.122	6007.72
480.326	6128.55
480.531	6095.78
480.735	5956.52
480.94	5895.08
481.144	6024.1
481.348	5913.51
481.553	5821.35
481.757	5938.09
481.961	5856.17
482.166	5929.89
482.37	5940.13
482.574	5768.1
482.778	5624.75
482.983	5931.94
483.187	5737.38
483.391	5786.54
483.595	6038.44
483.8	5632.94
484.004	5809.06
484.208	5788.58
484.412	5809.06
484.616	5893.03
484.821	5866.41
485.025	5725.1
485.229	5694.38
485.433	5688.23
485.637	5751.72
485.841	5786.54
486.045	5893.03
486.249	5782.44
486.453	5759.91
486.657	5786.54
486.861	5964.71
487.065	5745.58
487.269	5778.34
487.473	5721
487.677	5940.13
487.881	5686.19
488.085	5780.39
488.289	5909.41
488.493	5833.64
488.697	5718.95
488.901	5811.11
489.105	5698.47
489.309	5843.88
489.512	5999.52
489.716	5807.02
489.92	5776.3
490.124	5866.41
490.328	6087.59
490.531	5897.13
490.735	5952.42
490.939	5956.52
491.143	5907.37
491.346	5911.46
491.55	6038.44
491.754	6030.24
491.958	6153.12
492.161	6179.75
492.365	6136.74
492.569	6048.68
492.772	6257.57
492.976	6167.46
493.18	6108.07
493.383	6294.43
493.587	6378.4
493.79	6411.17
493.994	6212.51
494.197	6400.93
494.401	6515.61
494.605	6476.7
494.808	6669.21
495.012	6501.28
495.215	6519.71
495.419	6591.39
495.622	6546.33
495.825	6767.51
496.029	6716.31
496.232	6781.85
496.436	6763.42
496.639	6974.36
496.843	6882.2
497.046	7125.91
497.249	7195.54
497.453	7271.31
497.656	7029.65
497.859	7244.69
498.063	7422.86
498.266	7461.77
498.469	7285.65
498.673	7560.08
498.876	7883.66
499.079	7644.04
499.282	7859.08
499.485	8039.3
499.689	7973.77
499.892	8119.17
500.095	8004.49
500.298	8319.87
500.501	8211.33
500.705	8356.74
500.908	8637.31
501.111	8299.39
501.314	8602.49
501.517	8897.4
501.72	9032.57
501.923	8848.25
502.126	9112.44
502.329	9116.53
502.532	9227.12
502.735	9306.99
502.938	9472.88
503.141	9569.13
503.344	9759.6
503.547	9548.65
503.75	9769.83
503.953	10138.47
504.156	10019.69
504.359	10101.61
504.562	10212.2
504.765	10353.51
504.968	10550.11
505.17	10691.42
505.373	10832.73
505.576	10851.16
505.779	11105.11
505.982	10802.01
506.185	11156.31
506.387	11178.84
506.59	11434.83
506.793	11635.53
506.996	11529.04
507.198	11862.86
507.401	11774.8
507.604	11854.67
507.807	12161.86
508.009	12108.62
508.212	12307.27
508.415	12561.22
508.617	12450.63
508.82	12776.25
509.022	12837.69
509.225	13026.11
509.428	13058.87
509.63	13294.39
509.833	13140.79
510.035	13628.21
510.238	13529.91
510.44	14029.61
510.643	13929.26
510.845	13814.57
511.048	13818.67
511.25	14326.57
511.453	14349.09
511.655	14746.4
511.858	14467.88
512.06	14641.95
512.262	14797.6
512.465	14904.09
512.667	15035.16
512.87	15436.56
513.072	15319.83
513.274	15733.52
513.477	15647.51
513.679	15960.84
513.881	16196.36
514.084	16274.18
514.286	16210.7
514.488	16323.33
514.69	16562.95
514.893	16716.54
515.095	16820.99
515.297	17087.23
515.499	17199.87
515.701	17206.01
515.904	17836.78
516.106	17605.36
516.308	17754.87
516.51	17773.3
516.712	18223.85
516.914	18285.29
517.116	18649.83
517.318	18500.33
517.52	18682.59
517.722	18633.44
517.925	19202.78
518.127	19491.54
518.329	19530.45
518.531	19163.87
518.733	19868.37
518.935	19870.42
519.136	19917.52
519.338	20196.04
519.54	20554.44
519.742	20409.03
519.944	20316.87
520.146	20957.89
520.348	21002.94
520.55	20927.17
520.752	21299.9
520.954	21635.77
521.155	21312.19
521.357	21899.95
521.559	21910.19
521.761	22495.91
521.963	22319.79
522.164	22198.96
522.366	22639.27
522.568	22631.08
522.77	22950.56
522.971	23055.01
523.173	23249.57
523.375	23005.86
523.576	23147.17
523.778	23454.36
523.98	23671.45
524.181	23857.81
524.383	23755.41
524.584	23962.26
524.786	23667.35
524.988	23968.4
525.189	24226.45
525.391	24568.46
525.592	24535.69
525.794	24775.3
525.995	25008.77
526.197	25135.74
526.398	24892.04
526.6	25027.2
526.801	25375.36
527.003	25422.46
527.204	25346.69
527.406	25762.42
527.607	25698.94
527.808	25645.69
528.01	25479.8
528.211	25969.27
528.412	26176.11
528.614	26157.68
528.815	25963.12
529.016	26045.04
529.218	26270.32
529.419	26178.16
529.62	26036.85
529.822	26186.35
530.023	26278.51
530.224	26374.77
530.425	26493.55
530.626	26008.18
530.828	26524.27
531.029	26526.32
531.23	26403.44
531.431	26356.33
531.632	26608.23
531.833	26692.2
532.035	26774.12
532.236	26690.15
532.437	26974.82
532.638	26311.28
532.839	27204.19
533.04	26823.27
533.241	26266.22
533.442	27390.56
533.643	27052.64
533.844	27050.6
534.045	26845.8
534.246	26825.32
534.447	26991.2
534.648	26899.05
534.849	27138.66
535.05	26825.32
535.251	26931.81
535.451	26804.84
535.652	26888.81
535.853	26796.65
536.054	26942.05
536.255	26948.2
536.456	26708.58
536.657	27097.7
536.857	26497.64
537.058	26751.59
537.259	27114.08
537.46	27114.08
537.66	26731.11
537.861	27058.79
538.062	26710.63
538.263	26849.89
538.463	26878.57
538.664	26690.15
538.865	27083.36
539.065	26856.04
539.266	26733.16
539.466	27023.97
539.667	26403.44
539.868	27243.1
540.068	26784.36
540.269	26579.56
540.469	26765.93
540.67	26571.37
540.87	26561.13
541.071	26911.33
541.271	26767.98
541.472	26874.47
541.672	26747.5
541.873	26538.6
542.073	26518.12
542.274	26772.07
542.474	26538.6
542.675	26628.71
542.875	27028.07
543.075	26571.37
543.276	26616.43
543.476	26849.89
543.676	26532.46
543.877	26554.99
544.077	26540.65
544.277	26966.63
544.478	26915.43
544.678	26714.73
544.878	26589.8
545.078	26702.44
545.279	26583.66
545.479	26792.55
545.679	26540.65
545.879	26194.54
546.079	26401.39
546.28	26618.47
546.48	26233.46
546.68	26733.16
546.88	26393.2
547.08	26647.15
547.28	26688.1
547.48	26174.06
547.68	26587.75
547.88	26481.26
548.081	26536.56
548.281	26425.96
548.481	26348.14
548.681	26516.08
548.881	26473.07
549.081	26458.73
549.28	26442.35
549.48	26655.34
549.68	26675.82
549.88	26704.49
550.08	26245.74
550.28	26380.91
550.48	26217.07
550.68	26374.77
550.88	26491.5
551.08	26499.69
551.279	26262.13
551.479	25967.22
551.679	26604.14
551.879	26036.85
552.079	26727.02
552.278	26184.3
552.478	26473.07
552.678	26309.23
552.878	26278.51
553.077	26329.71
553.277	26180.21
553.477	26409.58
553.676	26348.14
553.876	26215.02
554.076	26102.39
554.275	26325.61
554.475	25946.74
554.674	26030.71
554.874	26247.79
555.074	26030.71
555.273	26215.02
555.473	25999.99
555.672	25700.98
555.872	25776.76
556.071	26092.15
556.271	26073.71
556.47	25756.28
556.67	25729.66
556.869	26020.47
557.068	25850.49
557.268	25776.76
557.467	26196.59
557.667	25815.67
557.866	25922.16
558.065	25666.17
558.265	25555.58
558.464	25424.51
558.663	25612.92
558.863	25436.8
559.062	25848.44
559.261	25582.2
559.461	25877.11
559.66	25498.23
559.859	25535.1
560.058	25164.42
560.258	25444.99
560.457	25279.1
560.656	25578.11
560.855	25195.14
561.054	25483.9
561.253	24963.72
561.453	25348.73
561.652	25262.72
561.851	25260.67
562.05	25305.73
562.249	24971.91
562.448	25246.33
562.647	25064.07
562.846	24867.46
563.045	24924.8
563.244	24703.62
563.443	24892.04
563.642	24683.14
563.841	24836.74
564.04	24603.27
564.239	24787.59
564.438	24787.59
564.637	24648.33
564.836	24814.21
565.035	24220.3
565.234	24713.86
565.432	24613.51
565.631	23999.12
565.83	24414.86
566.029	24242.83
566.228	23990.93
566.427	24101.52
566.625	24007.31
566.824	23638.68
567.023	24035.99
567.222	23442.07
567.42	24261.26
567.619	23814.8
567.818	23765.65
568.016	23583.38
568.215	23650.97
568.414	23859.86
568.612	23757.46
568.811	23540.38
569.01	23298.72
569.208	23394.97
569.407	23442.07
569.605	23380.64
569.804	23394.97
570.002	23212.7
570.201	23069.34
570.4	23038.62
570.598	23083.68
570.797	22710.95
570.995	23026.34
571.193	22753.96
571.392	23042.72
571.59	22391.47
571.789	22887.07
571.987	22766.24
572.186	22545.06
572.384	22602.41
572.582	22913.7
572.781	22555.3
572.979	22295.21
573.177	22481.58
573.376	22516.39
573.574	22045.36
573.772	22418.09
573.971	22057.65
574.169	22047.41
574.367	21813.94
574.565	22143.66
574.763	22028.98
574.962	21981.87
575.16	21566.13
575.358	21717.68
575.556	21711.54
575.754	21832.37
575.952	21430.97
576.151	22078.13
576.349	21623.48
576.547	21297.85
576.745	21234.36
576.943	21205.69
577.141	21344.95
577.339	21271.23
577.537	21390.01
577.735	21283.52
577.933	21052.09
578.131	21144.25
578.329	20785.86
578.527	20835.01
578.725	20769.48
578.923	20853.44
579.121	20691.65
579.319	20423.37
579.516	20896.45
579.714	20691.65
579.912	20648.64
580.11	20611.78
580.308	20378.31
580.506	20243.15
580.704	20126.41
580.901	20181.71
581.099	20435.66
581.297	20079.31
581.495	20181.71
581.692	20355.79
581.89	19913.42
582.088	20153.04
582.285	19858.13
582.483	20052.69
582.681	19950.29
582.878	19710.68
583.076	19608.28
583.274	19647.19
583.471	19426.01
583.669	19733.2
583.866	19456.73
584.064	19604.18
584.262	19487.45
584.459	19407.58
584.657	19423.96
584.854	19282.65
585.052	19020.51
585.249	19198.68
585.447	19415.77
585.644	19004.13
585.841	19178.2
586.039	19186.4
586.236	18895.58
586.434	18768.61
586.631	18633.44
586.828	18793.19
587.026	19069.66
587.223	19163.87
587.42	18494.18
587.618	18678.5
587.815	18447.08
588.012	18576.1
588.21	18447.08
588.407	18537.19
588.604	18318.06
588.801	18088.68
588.999	18365.16
589.196	18078.44
589.393	18283.24
589.59	17965.81
589.787	17963.76
589.984	17828.59
590.182	17873.65
590.379	17863.41
590.576	17892.08
590.773	17875.7
590.97	17736.43
591.167	17679.09
591.364	17359.61
591.561	17388.28
591.758	17392.37
591.955	17154.81
592.152	17552.12
592.349	17257.21
592.546	17457.91
592.743	17378.04
592.94	17177.34
593.137	17310.46
593.334	17490.68
593.531	17287.93
593.727	17068.8
593.924	16915.2
594.121	16722.69
594.318	17042.17
594.515	16839.42
594.712	16902.91
594.908	16982.78
595.105	16853.76
595.302	16698.11
595.499	16718.59
595.696	16528.13
595.892	16405.25
596.089	16528.13
596.286	16413.45
596.482	16079.63
596.679	16227.08
596.876	16569.09
597.072	16190.22
597.269	15954.7
597.466	15926.03
597.662	15860.49
597.859	15911.69
598.055	16356.1
598.252	16020.24
598.448	15905.55
598.645	15952.65
598.841	15901.45
599.038	15870.73
599.234	15760.14
599.431	15409.94
599.627	15616.79
599.824	15731.47
600.02	15397.65
600.217	15571.73
600.413	15479.57
600.609	15309.59
600.806	15393.56
601.002	15432.47
601.198	15317.78
601.395	15498
601.591	15213.34
601.787	15147.8
601.984	15110.94
602.18	15004.44
602.376	15074.07
602.572	15059.74
602.769	15022.87
602.965	14750.49
603.161	15012.63
603.357	14770.97
603.553	14748.45
603.75	14895.9
603.946	14648.1
604.142	14781.21
604.338	14347.05
604.534	14746.4
604.73	14418.72
604.926	14517.03
605.122	14377.76
605.318	14320.42
605.514	14281.51
605.71	14379.81
605.906	14189.35
606.102	14285.61
606.298	14267.17
606.494	14267.17
606.69	14076.71
606.886	14103.34
607.082	14000.94
607.278	14209.83
607.474	13724.46
607.67	13894.44
607.866	13646.64
608.062	14119.72
608.257	13660.98
608.453	13806.38
608.649	13517.62
608.845	13693.74
609.041	13683.5
609.236	13816.62
609.432	13519.67
609.628	13714.22
609.824	13609.78
610.019	13450.03
610.215	13511.47
610.411	13581.1
610.606	13540.15
610.802	13648.69
610.998	13632.3
611.193	13525.81
611.389	13376.31
611.584	13423.41
611.78	13171.51
611.976	13294.39
612.171	13470.51
612.367	13445.94
612.562	13194.04
612.758	13054.78
612.953	13044.54
613.149	13177.65
613.344	13159.22
613.539	13216.57
613.735	12993.34
613.93	13120.31
614.126	13013.82
614.321	13093.69
614.517	12944.19
614.712	12976.95
614.907	13101.88
615.103	12972.86
615.298	12835.64
615.493	13183.8
615.688	12792.64
615.884	13015.87
616.079	12804.92
616.274	12944.19
616.47	12698.43
616.665	12890.94
616.86	12680
617.055	12663.61
617.25	12706.62
617.445	12614.46
617.641	12389.19
617.836	12657.47
618.031	12389.19
618.226	12542.78
618.421	12286.79
618.616	12444.48
618.811	12176.2
619.006	12682.05
619.201	12211.01
619.396	12221.25
619.591	12249.93
619.786	12231.49
619.981	12061.51
620.176	12313.41
620.371	12153.67
620.566	12049.22
620.761	11901.77
620.956	11877.19
621.151	11617.1
621.346	11922.25
621.541	11713.36
621.735	11490.13
621.93	11596.62
622.125	11639.63
622.32	11385.68
622.515	11430.74
622.709	11387.73
622.904	11260.76
623.099	11205.46
623.294	11346.77
623.488	11144.02
623.683	11146.07
623.878	10859.35
624.072	10799.96
624.267	11023.19
624.462	10904.41
624.656	10693.47
624.851	10644.32
625.046	10933.08
625.24	10611.55
625.435	10613.6
625.629	10586.97
625.824	10416.99
626.018	10445.66
626.213	10093.41
626.407	10390.37
626.602	10230.63
626.796	10199.91
626.991	10210.15
627.185	10117.99
627.38	9933.67
627.574	9950.06
627.768	9857.9
627.963	9618.29
628.157	9702.25
628.352	9802.6
628.546	9513.84
628.74	9843.56
628.935	9575.28
629.129	9675.63
629.323	9364.34
629.517	9517.93
629.712	9448.3
629.906	9378.67
630.1	9347.95
630.294	9266.03
630.489	9126.77
630.683	9077.62
630.877	9175.92
631.071	9094.01
631.265	9044.85
631.459	8999.8
631.653	8885.11
631.848	8856.44
632.042	8805.24
632.236	8792.95
632.43	8874.87
632.624	8919.93
632.818	8670.08
633.012	8661.88
633.206	8641.4
633.4	8635.26
633.594	8323.97
633.788	8356.74
633.982	8520.57
634.176	8280.96
634.369	8407.94
634.563	8188.8
634.757	8168.32
634.951	8358.78
635.145	8063.88
635.339	8078.21
635.533	7885.7
635.726	8002.44
635.92	7934.85
636.114	7941
636.308	7859.08
636.501	7615.37
636.695	7891.85
636.889	7893.9
637.083	7906.18
637.276	7926.66
637.47	7570.32
637.664	7459.73
637.857	7766.92
638.051	7678.86
638.244	7367.57
638.438	7439.25
638.632	7590.8
638.825	7408.53
639.019	7445.39
639.212	7144.34
639.406	7281.55
639.599	7326.61
639.793	7353.23
639.986	7054.23
640.18	7119.76
640.373	7095.19
640.567	6906.77
640.76	7097.24
640.954	6923.16
641.147	6912.92
641.34	6818.71
641.534	6638.49
641.727	6794.14
641.92	6761.37
642.114	6697.88
642.307	6603.68
642.5	6730.65
642.694	6558.62
642.887	6532
643.08	6679.45
643.273	6652.83
643.467	6597.53
643.66	6503.32
643.853	6329.25
644.046	6421.41
644.239	6611.87
644.432	6204.32
644.626	6052.77
644.819	6235.04
645.012	6202.27
645.205	6390.69
645.398	6155.17
645.591	6101.92
645.784	6173.6
645.977	5995.43
646.17	5985.19
646.363	5968.8
646.556	5895.08
646.749	5854.12
646.942	5860.26
647.135	6073.25
647.328	5833.64
647.521	5704.62
647.714	5624.75
647.907	5800.87
648.099	5759.91
648.292	5915.56
648.485	5755.82
648.678	5493.68
648.871	5598.12
649.064	5473.2
649.256	5661.61
649.449	5487.53
649.642	5686.19
649.835	5413.81
650.027	5469.1
650.22	5364.65
650.413	5333.93
650.605	5247.92
650.798	5206.96
650.991	5237.68
651.183	5448.62
651.376	5272.5
651.568	5129.14
651.761	5184.43
651.954	5073.84
652.146	5145.52
652.339	5178.29
652.531	5024.69
652.724	4998.07
652.916	4926.39
653.109	5018.55
653.301	5039.03
653.494	4979.64
653.686	4852.66
653.879	4989.88
654.071	5010.36
654.263	4744.12
654.456	4875.19
654.648	4787.13
654.84	4776.89
655.033	4676.54
655.225	4686.78
655.417	4688.82
655.61	4776.89
655.802	4805.56
655.994	4641.72
656.186	4711.35
656.379	4631.48
656.571	4660.15
656.763	4434.88
656.955	4514.75
657.148	4400.06
657.34	4395.96
657.532	4268.99
657.724	4453.31
657.916	4492.22
658.108	4336.57
658.3	4367.29
658.492	4473.79
658.684	4287.42
658.876	4236.22
659.068	4408.25
659.26	4217.79
659.452	4279.23
659.644	4391.87
659.836	4099.01
660.028	4281.28
660.22	4125.63
660.412	4115.39
660.604	4203.46
660.796	4021.19
660.988	4109.25
661.18	4002.75
661.372	4023.23
661.563	4031.43
661.755	4033.47
661.947	4004.8
662.139	3974.08
662.331	3951.56
662.522	3877.83
662.714	4072.39
662.906	3836.87
663.097	3967.94
663.289	3894.21
663.481	3826.63
663.673	3863.49
663.864	3843.01
664.056	3779.53
664.247	3769.29
664.439	3634.12
664.631	3738.57
664.822	3636.17
665.014	3572.68
665.205	3593.16
665.397	3597.26
665.588	3646.41
665.78	3691.46
665.971	3584.97
666.163	3638.22
666.354	3498.95
666.546	3589.07
666.737	3566.54
666.929	3531.72
667.12	3476.43
667.311	3533.77
667.503	3388.36
667.694	3507.15
667.885	3382.22
668.077	3345.36
668.268	3527.63
668.459	3490.76
668.651	3584.97
668.842	3367.88
669.033	3267.53
669.224	3421.13
669.416	3503.05
669.607	3304.4
669.798	3400.65
669.989	3361.74
670.18	3273.68
670.371	3273.68
670.563	3261.39
670.754	3304.4
670.945	3216.33
671.136	3263.44
671.327	3318.73
671.518	3103.7
671.709	3148.75
671.9	3302.35
672.091	3228.62
672.282	3191.76
672.473	3228.62
672.664	3236.81
672.855	3216.33
673.046	3359.69
673.237	3255.25
673.428	3187.66
673.619	3161.04
673.809	3064.79
674	3066.83
674.191	3226.57
674.382	3167.18
674.573	3048.4
674.764	3257.29
674.954	3300.3
675.145	3097.55
675.336	3181.52
675.527	3122.13
675.717	3142.61
675.908	3017.68
676.099	3138.51
676.289	3054.55
676.48	3048.4
676.671	3085.26
676.861	3015.63
677.052	3038.16
677.243	3015.63
677.433	2993.11
677.624	2989.01
677.814	2991.06
678.005	3103.7
678.195	3097.55
678.386	3009.49
678.576	2991.06
678.767	3025.87
678.957	3064.79
679.148	3036.11
679.338	3019.73
679.529	3038.16
679.719	2954.19
679.909	3103.7
680.1	2966.48
680.29	2866.13
680.481	2905.04
680.671	2925.52
680.861	2974.67
681.052	3042.26
681.242	2946
681.432	2909.14
681.622	3009.49
681.813	2737.11
682.003	2962.39
682.193	2974.67
682.383	2927.57
682.573	2909.14
682.764	2798.55
682.954	2974.67
683.144	2913.24
683.334	2982.87
683.524	2935.76
683.714	2868.18
683.904	2886.61
684.094	2909.14
684.284	2982.87
684.474	2878.42
684.664	2995.15
684.854	2927.57
685.044	2835.41
685.234	3011.54
685.424	2831.32
685.614	2927.57
685.804	2837.46
685.994	2995.15
686.184	2943.96
686.374	2794.45
686.564	2806.74
686.753	2882.52
686.943	2778.07
687.133	2753.49
687.323	2722.77
687.513	2814.93
687.702	2821.08
687.892	2667.48
688.082	2681.82
688.272	2882.52
688.461	2644.95
688.651	2761.69
688.841	2769.88
689.03	2712.53
689.22	2722.77
689.41	2642.9
689.599	2737.11
689.789	2755.54
689.979	2704.34
690.168	2694.1
690.358	2692.05
690.547	2591.7
690.737	2589.66
690.926	2577.37
691.116	2503.64
691.305	2511.83
691.495	2448.35
691.684	2554.84
691.874	2567.13
692.063	2565.08
692.252	2593.75
692.442	2550.75
692.631	2474.97
692.82	2470.87
693.01	2434.01
693.199	2456.54
693.388	2409.44
693.578	2515.93
693.767	2477.02
693.956	2446.3
694.146	2429.91
694.335	2493.4
694.524	2427.87
694.713	2415.58
694.902	2372.57
695.092	2409.44
695.281	2434.01
695.47	2436.06
695.659	2493.4
695.848	2493.4
696.037	2454.49
696.226	2417.63
696.415	2368.48
696.604	2401.24
696.793	2401.24
696.982	2337.76
697.171	2343.9
697.36	2368.48
697.549	2356.19
697.738	2354.14
697.927	2345.95
698.116	2288.61
698.305	2378.72
698.494	2225.12
698.683	2343.9
698.872	2323.42
699.061	2192.35
699.25	2206.69
699.438	2272.22
699.627	2288.61
699.816	2466.78
700.005	2296.8
700.193	2243.55
700.382	2354.14
700.571	2317.28
700.76	2307.04
700.948	2264.03
701.137	2313.18
701.326	2294.75
701.514	2233.31
701.703	2372.57
701.892	2214.88
702.08	2261.98
702.269	2313.18
702.457	2360.28
702.646	2327.52
702.834	2376.67
703.023	2241.5
703.212	2290.65
703.4	2167.77
703.589	2221.02
703.777	2245.6
703.965	2216.93
704.154	2280.41
704.342	2274.27
704.531	2153.44
704.719	2264.03
704.907	2274.27
705.096	2139.1
705.284	2249.69
705.472	2280.41
705.661	2302.94
705.849	2302.94
706.037	2208.73
706.226	2159.58
706.414	2319.32
706.602	2206.69
706.79	2266.08
706.979	2198.49
707.167	2247.65
707.355	2167.77
707.543	2204.64
707.731	2204.64
707.919	2360.28
708.107	2167.77
708.296	2147.3
708.484	2212.83
708.672	2229.21
708.86	2286.56
709.048	2249.69
709.236	2182.11
709.424	2223.07
709.612	2227.17
709.8	2182.11
709.988	2206.69
710.176	2221.02
710.364	2188.25
710.551	2198.49
710.739	2245.6
710.927	2259.93
711.115	2272.22
711.303	2300.89
711.491	2204.64
711.679	2110.43
711.866	2204.64
712.054	2198.49
712.242	2180.06
712.43	2196.45
712.617	2229.21
712.805	2153.44
712.993	2171.87
713.181	2235.36
713.368	2296.8
713.556	2059.23
713.744	2270.17
713.931	2196.45
714.119	2259.93
714.306	2343.9
714.494	2241.5
714.682	2202.59
714.869	2196.45
715.057	2253.79
715.244	2225.12
715.432	2214.88
715.619	2171.87
715.807	2081.76
715.994	2182.11
716.182	2206.69
716.369	2196.45
716.556	2280.41
716.744	2163.68
716.931	2192.35
717.119	2081.76
717.306	2210.78
717.493	2245.6
717.681	2096.1
717.868	2231.26
718.055	2253.79
718.242	2071.52
718.43	2233.31
718.617	2118.62
718.804	2188.25
718.991	2178.01
719.179	2122.72
719.366	2255.84
719.553	2333.66
719.74	2022.37
719.927	2124.77
720.114	2126.82
720.301	2180.06
720.488	2159.58
720.676	2225.12
720.863	2171.87
721.05	2214.88
721.237	2239.45
721.424	2188.25
721.611	2110.43
721.798	2139.1
721.985	2188.25
722.172	2194.4
722.358	2098.14
722.545	2204.64
722.732	2163.68
722.919	2155.49
723.106	2067.42
723.293	2059.23
723.48	2167.77
723.667	2130.91
723.853	2171.87
724.04	2098.14
724.227	2253.79
724.414	2147.3
724.6	2065.38
724.787	2200.54
724.974	2077.66
725.161	2118.62
725.347	2130.91
725.534	2223.07
725.72	1962.98
725.907	2245.6
726.094	1999.84
726.28	2108.38
726.467	2073.57
726.653	2143.2
726.84	2286.56
727.027	2245.6
727.213	2069.47
727.4	2112.48
727.586	2184.16
727.773	2223.07
727.959	2118.62
728.145	2171.87
728.332	2233.31
728.518	2151.39
728.705	2204.64
728.891	2122.72
729.077	2089.95
729.264	2145.25
729.45	2114.53
729.636	2229.21
729.823	2096.1
730.009	2114.53
730.195	2227.17
730.382	2165.73
730.568	2040.8
730.754	2116.58
730.94	2196.45
731.126	2204.64
731.313	2198.49
731.499	2137.06
731.685	2026.47
731.871	2112.48
732.057	2171.87
732.243	2083.81
732.429	2061.28
732.615	2184.16
732.801	2245.6
732.987	2143.2
733.173	2122.72
733.359	2092
733.545	2081.76
733.731	2089.95
733.917	2149.34
734.103	2239.45
734.289	2192.35
734.475	2032.61
734.661	2212.83
734.847	2081.76
735.033	2100.19
735.219	2266.08
735.404	2059.23
735.59	2075.62
735.776	2122.72
735.962	2159.58
736.148	2048.99
736.333	2204.64
736.519	2051.04
736.705	2098.14
736.89	2139.1
737.076	2057.18
737.262	2008.03
737.447	2012.13
737.633	2034.66
737.819	2026.47
738.004	2081.76
738.19	2120.67
738.375	2108.38
738.561	2028.51
738.747	2083.81
738.932	2114.53
739.118	2132.96
739.303	1962.98
739.489	1979.36
739.674	1983.46
739.859	1977.31
740.045	2005.99
740.23	2016.23
740.416	1950.69
740.601	2089.95
740.786	1993.7
740.972	2020.32
741.157	1924.07
741.342	1946.59
741.528	1915.87
741.713	2020.32
741.898	1965.03
742.084	2018.27
742.269	1979.36
742.454	1950.69
742.639	1819.62
742.824	1932.26
743.01	1995.75
743.195	2010.08
743.38	1823.72
743.565	1934.31
743.75	1942.5
743.935	1868.77
744.12	1879.01
744.305	1909.73
744.49	1838.05
744.675	1852.39
744.86	1786.85
745.045	1858.53
745.23	1864.68
745.415	1731.56
745.6	1786.85
745.785	1782.76
745.97	1848.29
746.155	1915.87
746.34	1717.22
746.525	1723.37
746.71	1692.65
746.895	1749.99
747.079	1721.32
747.264	1715.17
747.449	1672.17
747.634	1666.02
747.819	1696.74
748.003	1610.73
748.188	1688.55
748.373	1639.4
748.557	1600.49
748.742	1659.88
748.927	1639.4
749.111	1623.02
749.296	1623.02
749.481	1674.21
749.665	1575.91
749.85	1627.11
750.034	1553.38
750.219	1559.53
750.404	1598.44
750.588	1614.82
750.773	1567.72
750.957	1571.82
751.141	1450.99
751.326	1475.56
751.51	1416.17
751.695	1428.46
751.879	1385.45
752.064	1557.48
752.248	1491.95
752.432	1500.14
752.617	1500.14
752.801	1518.57
752.985	1450.99
753.17	1418.22
753.354	1385.45
753.538	1393.64
753.722	1319.92
753.907	1348.59
754.091	1246.19
754.275	1229.81
754.459	1188.85
754.643	1303.53
754.828	1213.42
755.012	1297.39
755.196	1223.66
755.38	1346.54
755.564	1182.7
755.748	1229.81
755.932	1211.37
756.116	1115.12
756.3	1139.69
756.484	1166.32
756.668	1207.28
756.852	1131.5
757.036	1156.08
757.22	1213.42
757.404	1086.45
757.588	1043.44
757.772	1188.85
757.956	1233.9
758.14	1215.47
758.323	1098.74
758.507	1166.32
758.691	1115.12
758.875	1125.36
759.059	1154.03
759.242	1117.17
759.426	1061.87
759.61	998.38
759.794	1029.1
759.977	1080.3
760.161	1141.74
760.345	1164.27
760.528	1043.44
760.712	1039.34
760.895	1014.77
761.079	1014.77
761.263	1043.44
761.446	1025.01
761.63	1039.34
761.813	1045.49
761.997	1082.35
762.18	887.79
762.364	1027.06
762.547	955.38
762.731	861.17
762.914	941.04
763.098	1004.53
763.281	891.89
763.464	934.9
763.648	957.43
763.831	904.18
764.015	900.08
764.198	932.85
764.381	979.95
764.564	971.76
764.748	863.22
764.931	914.42
765.114	852.98
765.297	975.86
765.481	918.51
765.664	992.24
765.847	865.27
766.03	941.04
766.213	830.45
766.397	828.4
766.58	840.69
766.763	904.18
766.946	871.41
767.129	828.4
767.312	877.55
767.495	828.4
767.678	828.4
767.861	795.64
768.044	850.93
768.227	842.74
768.41	805.88
768.593	828.4
768.776	734.2
768.959	842.74
769.142	852.98
769.324	836.6
769.507	814.07
769.69	783.35
769.873	758.77
770.056	844.79
770.239	764.92
770.421	848.88
770.604	734.2
770.787	807.92
770.97	726
771.152	756.72
771.335	787.44
771.518	795.64
771.7	809.97
771.883	783.35
772.066	748.53
772.248	738.29
772.431	687.09
772.613	707.57
772.796	672.76
772.978	664.57
773.161	836.6
773.343	695.29
773.526	738.29
773.708	738.29
773.891	689.14
774.073	697.33
774.256	754.68
774.438	721.91
774.621	687.09
774.803	674.81
774.985	574.46
775.168	707.57
775.35	672.76
775.532	705.53
775.715	599.03
775.897	592.89
776.079	576.5
776.261	609.27
776.444	721.91
776.626	570.36
776.808	623.61
776.99	644.09
777.173	549.88
777.355	605.17
777.537	625.65
777.719	543.74
777.901	607.22
778.083	508.92
778.265	586.74
778.447	533.5
778.629	574.46
778.811	547.83
778.993	578.55
779.175	619.51
779.357	576.5
779.539	560.12
779.721	566.26
779.903	566.26
780.085	560.12
780.267	494.58
780.449	492.54
780.631	549.88
780.812	486.39
780.994	558.07
781.176	478.2
781.358	459.77
781.54	508.92
781.721	476.15
781.903	404.47
782.085	427
782.267	422.91
782.448	410.62
782.63	467.96
782.812	521.21
782.993	461.82
783.175	556.02
783.357	455.67
783.538	492.54
783.72	410.62
783.901	371.71
784.083	484.34
784.264	404.47
784.446	345.08
784.627	347.13
784.809	353.27
784.99	259.07
785.172	461.82
785.353	388.09
785.535	349.18
785.716	410.62
785.897	386.04
786.079	424.95
786.26	330.75
786.441	377.85
786.623	318.46
786.804	445.43
786.985	312.32
787.167	345.08
787.348	357.37
787.529	316.41
787.71	443.39
787.891	451.58
788.073	295.93
788.254	332.79
788.435	418.81
788.616	285.69
788.797	289.79
788.978	369.66
789.159	320.51
789.34	238.59
789.522	334.84
789.703	345.08
789.884	355.32
790.065	300.03
790.246	308.22
790.427	340.99
790.607	353.27
790.788	318.46
790.969	254.97
791.15	365.56
791.331	254.97
791.512	330.75
791.693	275.45
791.874	322.56
792.054	412.67
792.235	363.51
792.416	322.56
792.597	279.55
792.778	295.93
792.958	310.27
793.139	330.75
793.32	295.93
793.5	248.83
793.681	254.97
793.862	336.89
794.042	287.74
794.223	230.4
794.404	322.56
794.584	218.11
794.765	291.84
794.945	279.55
795.126	304.12
795.306	222.2
795.487	314.36
795.667	211.96
795.848	254.97
796.028	214.01
796.209	250.88
796.389	232.44
796.57	164.86
796.75	246.78
796.93	314.36
797.111	254.97
797.291	257.02
797.471	300.03
797.652	248.83
797.832	193.53
798.012	232.44
798.192	158.72
798.373	158.72
798.553	197.63
798.733	257.02
798.913	197.63
799.093	132.09
799.274	238.59
799.454	187.39
799.634	234.49
799.814	279.55
799.994	171.01
800.174	263.16
800.354	189.44
800.534	197.63
800.714	211.96
800.894	244.73
801.074	144.38
801.254	154.62
801.434	300.03
801.614	181.25
801.794	181.25
801.974	740.34
802.154	211.96
802.334	197.63
802.514	181.25
802.693	193.53
802.873	132.09
803.053	205.82
803.233	179.2
803.413	175.1
803.592	152.57
803.772	177.15
803.952	236.54
804.131	197.63
804.311	173.05
804.491	205.82
804.67	156.67
804.85	168.96
805.03	187.39
805.209	199.68
805.389	244.73
805.568	148.48
805.748	181.25
805.928	183.29
806.107	164.86
806.287	191.49
806.466	177.15
806.646	177.15
806.825	160.77
807.004	177.15
807.184	99.33
807.363	238.59
807.543	140.29
807.722	117.76
807.901	166.91
808.081	197.63
808.26	91.13
808.439	224.25
808.619	148.48
808.798	150.53
808.977	91.13
809.156	144.38
809.336	132.09
809.515	183.29
809.694	76.8
809.873	150.53
810.052	197.63
810.231	181.25
810.411	164.86
810.59	164.86
810.769	66.56
810.948	173.05
811.127	117.76
811.306	173.05
811.485	103.42
811.664	191.49
811.843	209.92
812.022	154.62
812.201	136.19
812.38	187.39
812.559	123.9
812.737	183.29
812.916	168.96
813.095	84.99
813.274	123.9
813.453	173.05
813.632	187.39
813.811	132.09
813.989	111.61
814.168	128
814.347	62.46
814.526	150.53
814.704	142.33
814.883	107.52
815.062	29.7
815.24	177.15
815.419	95.23
815.598	168.96
815.776	68.61
815.955	111.61
816.133	119.81
816.312	166.91
816.49	152.57
816.669	93.18
816.847	103.42
817.026	144.38
817.204	115.71
817.383	105.47
817.561	54.27
817.74	130.05
817.918	78.85
818.097	91.13
818.275	87.04
818.453	111.61
818.632	123.9
818.81	117.76
818.988	115.71
819.167	107.52
819.345	117.76
819.523	136.19
819.701	78.85
819.879	91.13
820.058	62.46
820.236	185.34
820.414	39.94
820.592	99.33
820.77	62.46
820.948	58.37
821.127	115.71
821.305	87.04
821.483	68.61
821.661	134.14
821.839	123.9
822.017	101.37
822.195	44.03
822.373	160.77
822.551	70.65
822.729	109.57
822.907	29.7
823.085	52.22
823.262	130.05
823.44	132.09
823.618	56.32
823.796	179.2
823.974	9.22
824.152	37.89
824.329	78.85
824.507	56.32
824.685	74.75
824.863	62.46
825.04	115.71
825.218	66.56
825.396	97.28
825.574	76.8
825.751	140.29
825.929	68.61
826.107	54.27
826.284	50.18
826.462	123.9
826.639	62.46
826.817	60.42
826.994	35.84
827.172	78.85
827.349	185.34
827.527	-21.5
827.704	72.7
827.882	130.05
828.059	82.94
828.237	68.61
828.414	68.61
828.591	95.23
828.769	150.53
828.946	-15.36
829.124	70.65
829.301	183.29
829.478	144.38
829.655	50.18
829.833	37.89
830.01	123.9
830.187	74.75
830.364	25.6
830.542	142.33
830.719	95.23
830.896	54.27
831.073	107.52
831.25	91.13
831.427	58.37
831.604	5.12
831.782	66.56
831.959	115.71
832.136	54.27
832.313	50.18
832.49	37.89
832.667	74.75
832.844	21.5
833.021	3.07
833.198	123.9
833.374	17.41
833.551	82.94
833.728	50.18
833.905	113.66
834.082	-3.07
834.259	31.74
834.436	35.84
834.612	58.37
834.789	152.57
834.966	107.52
835.143	58.37
835.319	44.03
835.496	99.33
835.673	103.42
835.85	203.77
836.026	54.27
836.203	-5.12
836.38	76.8
836.556	66.56
836.733	56.32
836.909	72.7
837.086	27.65
837.262	87.04
837.439	3.07
837.616	-27.65
837.792	-15.36
837.968	125.95
838.145	60.42
838.321	7.17
838.498	25.6
838.674	50.18
838.851	91.13
839.027	58.37
839.203	19.46
839.38	1.02
839.556	52.22
839.732	99.33
839.909	35.84
840.085	31.74
840.261	5.12
840.437	44.03
840.614	70.65
840.79	99.33
840.966	-3.07
841.142	78.85
841.318	76.8
841.494	-3.07
841.671	17.41
841.847	17.41
842.023	25.6
842.199	60.42
842.375	121.85
842.551	-23.55
842.727	17.41
842.903	68.61
843.079	48.13
843.255	70.65
843.431	35.84
843.607	15.36
843.783	-21.5
843.959	54.27
844.134	-31.74
844.31	111.61
844.486	9.22
844.662	84.99
844.838	23.55
845.013	11.26
845.189	29.7
845.365	41.98
845.541	52.22
845.716	74.75
845.892	84.99
846.068	37.89
846.244	82.94
846.419	82.94
846.595	25.6
846.77	37.89
846.946	64.51
847.122	-11.26
847.297	37.89
847.473	25.6
847.648	-19.46
847.824	87.04
847.999	1.02
848.175	70.65
848.35	50.18
848.526	58.37
848.701	50.18
848.876	66.56
849.052	72.7
849.227	54.27
849.403	52.22
849.578	68.61
849.753	35.84
849.929	68.61
850.104	-64.51
850.279	41.98
850.454	35.84
850.63	-19.46
850.805	25.6
850.98	58.37
851.155	9.22
851.33	13.31
851.505	50.18
851.681	41.98
851.856	58.37
852.031	1.02
852.206	17.41
852.381	29.7
852.556	27.65
852.731	7.17
852.906	23.55
853.081	107.52
853.256	52.22
853.431	17.41
853.606	54.27
853.781	9.22
853.956	19.46
854.131	66.56
854.305	-72.7
854.48	11.26
854.655	37.89
854.83	54.27
855.005	-15.36
855.18	-52.22
855.354	58.37
855.529	13.31
855.704	7.17
855.879	17.41
856.053	-23.55
856.228	25.6
856.403	-35.84
856.577	25.6
856.752	44.03
856.926	50.18
857.101	-25.6
857.276	52.22
857.45	29.7
857.625	41.98
857.799	-15.36
857.974	1.02
858.148	9.22
858.323	-19.46
858.497	17.41
858.672	-13.31
858.846	17.41
859.02	33.79
859.195	3.07
859.369	-15.36
859.543	27.65
859.718	17.41
859.892	31.74
860.066	-46.08
860.241	31.74
860.415	62.46
860.589	-13.31
860.763	9.22
860.938	3.07
861.112	3.07
861.286	-39.94
861.46	29.7
861.634	-56.32
861.808	156.67
861.982	-19.46
862.157	52.22
862.331	33.79
862.505	-58.37
862.679	44.03
862.853	33.79
863.027	35.84
863.201	91.13
863.375	-37.89
863.549	27.65
863.722	1.02
863.896	21.5
864.07	-9.22
864.244	62.46
864.418	33.79
864.592	-5.12
864.766	-62.46
864.939	33.79
865.113	1.02
865.287	31.74
865.461	-29.7
865.634	-31.74
865.808	17.41
865.982	19.46
866.156	-7.17
866.329	11.26
866.503	11.26
866.676	19.46
866.85	-23.55
867.024	33.79
867.197	27.65
867.371	17.41
867.544	-21.5
867.718	1.02
867.891	3.07
868.065	1.02
868.238	19.46
868.412	119.81
868.585	5.12
868.759	9.22
868.932	44.03
869.105	-7.17
869.279	-48.13
869.452	1.02
869.625	46.08
869.799	-7.17
869.972	-23.55
870.145	3.07
870.319	5.12
870.492	-48.13
870.665	-44.03
870.838	15.36
871.011	-80.89
871.185	44.03
871.358	-7.17
871.531	9.22
871.704	-5.12
871.877	-13.31
872.05	1.02
872.223	-13.31
872.396	74.75
872.569	46.08
872.742	37.89
872.915	17.41
873.088	-5.12
873.261	-19.46
873.434	74.75
873.607	-7.17
873.78	82.94
873.953	25.6
874.126	82.94
874.299	35.84
874.471	-56.32
874.644	46.08
874.817	41.98
874.99	7.17
875.163	9.22
875.335	-13.31
875.508	9.22
875.681	19.46
875.853	-89.09
876.026	17.41
876.199	-56.32
876.371	23.55
876.544	-37.89
876.717	58.37
876.889	-13.31
877.062	9.22
877.234	-23.55
877.407	44.03
877.579	9.22
877.752	35.84
877.924	-48.13
878.097	27.65
878.269	48.13
878.442	-15.36
878.614	-27.65
878.786	11.26
878.959	-3.07
879.131	-11.26
879.303	23.55
879.476	13.31
879.648	33.79
879.82	25.6
879.993	15.36
880.165	62.46
880.337	-66.56
880.509	-29.7
880.681	-15.36
880.854	-3.07
881.026	37.89
881.198	62.46
881.37	50.18
881.542	-5.12
881.714	-31.74
881.886	13.31
882.058	23.55
882.23	-52.22
882.402	-7.17
882.574	1.02
882.746	5.12
882.918	78.85
883.09	5.12
883.262	21.5
883.434	-33.79
883.606	-56.32
883.778	-5.12
883.95	-5.12
884.122	9.22
884.293	91.13
884.465	-11.26
884.637	-29.7
884.809	-39.94
884.98	72.7
885.152	54.27
885.324	19.46
885.496	11.26
885.667	-31.74
885.839	33.79
886.011	17.41
886.182	-33.79
886.354	84.99
886.525	35.84
886.697	37.89
886.869	1.02
887.04	-13.31
887.212	48.13
887.383	33.79
887.555	-13.31
887.726	52.22
887.897	-9.22
888.069	44.03
888.24	19.46
888.412	52.22
888.583	54.27
888.754	9.22
888.926	-15.36
889.097	19.46
889.268	-7.17
889.44	-39.94
889.611	64.51
889.782	-68.61
889.953	44.03
890.125	46.08
890.296	-41.98
890.467	-56.32
890.638	17.41
890.809	25.6
890.98	-31.74
891.151	9.22
891.323	-5.12
891.494	-56.32
891.665	-1.02
891.836	1.02
892.007	91.13
892.178	33.79
892.349	-21.5
892.52	52.22
892.691	-5.12
892.862	11.26
893.032	-15.36
893.203	1.02
893.374	-27.65
893.545	25.6
893.716	13.31
893.887	-70.65
894.057	-70.65
894.228	3.07
894.399	9.22
894.57	33.79
894.74	9.22
894.911	-21.5
895.082	33.79
895.253	62.46
895.423	17.41
895.594	74.75
895.764	1.02
895.935	-23.55
896.106	29.7
896.276	3.07
896.447	-56.32
896.617	54.27
896.788	-54.27
896.958	3.07
897.129	-21.5
897.299	-76.8
897.47	-17.41
897.64	19.46
897.81	-13.31
897.981	41.98
898.151	-37.89
898.322	39.94
898.492	-5.12
898.662	-29.7
898.832	13.31
899.003	-31.74
899.173	-44.03
899.343	-9.22
899.513	17.41
