Data from USB4F104151__235__14-22-07-652.txt Node

Date: Thu Mar 13 14:22:07 EDT 2025
User: louis
Spectrometer: USB4F10415
Trigger mode: 4
Integration Time (sec): 2.000000E-2
Scans to average: 1
Electric dark correction enabled: true
Nonlinearity correction enabled: false
Boxcar width: 0
XAxis mode: Wavelengths
Number of Pixels in Spectrum: 3648
>>>>>Begin Spectral Data<<<<<
178.204	-102.91
178.424	-102.91
178.644	-102.91
178.864	-70.14
179.084	-86.53
179.304	-0.51
179.524	52.74
179.744	-57.86
179.964	11.78
180.184	-51.71
180.404	19.97
180.624	-51.71
180.844	36.35
181.064	11.78
181.283	19.97
181.503	11.78
181.723	-2.56
181.943	44.54
182.163	17.92
182.383	142.85
182.602	36.35
182.822	38.4
183.042	36.35
183.262	-12.8
183.482	60.93
183.701	93.69
183.921	46.59
184.141	54.78
184.361	46.59
184.58	-8.7
184.8	22.02
185.02	-25.09
185.239	24.06
185.459	48.64
185.679	65.02
185.898	30.21
186.118	44.54
186.338	91.65
186.557	28.16
186.777	54.78
186.997	-27.14
187.216	-2.56
187.436	83.45
187.655	105.98
187.875	46.59
188.095	77.31
188.314	101.89
188.534	54.78
188.753	44.54
188.973	38.4
189.192	71.17
189.412	71.17
189.631	44.54
189.851	69.12
190.07	38.4
190.29	-6.66
190.509	103.93
190.729	-2.56
190.948	85.5
191.168	77.31
191.387	62.98
191.607	-8.7
191.826	22.02
192.045	77.31
192.265	1.54
192.484	52.74
192.704	48.64
192.923	-10.75
193.142	103.93
193.362	15.87
193.581	52.74
193.8	11.78
194.02	-29.18
194.239	19.97
194.458	15.87
194.678	34.3
194.897	140.8
195.116	52.74
195.335	30.21
195.555	112.13
195.774	60.93
195.993	-18.94
196.212	17.92
196.432	58.88
196.651	13.82
196.87	-16.9
197.089	89.6
197.308	60.93
197.528	99.84
197.747	24.06
197.966	-31.23
198.185	-18.94
198.404	-59.9
198.623	11.78
198.842	28.16
199.062	48.64
199.281	75.26
199.5	1.54
199.719	77.31
199.938	40.45
200.157	97.79
200.376	52.74
200.595	48.64
200.814	69.12
201.033	52.74
201.252	126.46
201.471	73.21
201.69	30.21
201.909	48.64
202.128	50.69
202.347	-0.51
202.566	30.21
202.785	101.89
203.004	36.35
203.223	101.89
203.442	19.97
203.661	65.02
203.879	73.21
204.098	79.36
204.317	11.78
204.536	79.36
204.755	36.35
204.974	54.78
205.193	85.5
205.411	67.07
205.63	28.16
205.849	-12.8
206.068	-4.61
206.287	73.21
206.505	15.87
206.724	97.79
206.943	77.31
207.162	71.17
207.381	101.89
207.599	52.74
207.818	5.63
208.037	3.58
208.255	44.54
208.474	11.78
208.693	85.5
208.911	28.16
209.13	-4.61
209.349	130.56
209.567	-20.99
209.786	112.13
210.005	19.97
210.223	22.02
210.442	3.58
210.661	62.98
210.879	-49.66
211.098	22.02
211.316	19.97
211.535	38.4
211.753	54.78
211.972	46.59
212.191	44.54
212.409	-20.99
212.628	81.41
212.846	28.16
213.065	52.74
213.283	81.41
213.502	28.16
213.72	62.98
213.938	32.26
214.157	-2.56
214.375	38.4
214.594	28.16
214.812	30.21
215.031	44.54
215.249	-29.18
215.467	87.55
215.686	32.26
215.904	101.89
216.122	77.31
216.341	56.83
216.559	38.4
216.778	65.02
216.996	38.4
217.214	-47.62
217.432	36.35
217.651	-10.75
217.869	26.11
218.087	93.69
218.306	48.64
218.524	60.93
218.742	13.82
218.96	1.54
219.179	11.78
219.397	7.68
219.615	65.02
219.833	52.74
220.051	3.58
220.27	30.21
220.488	73.21
220.706	71.17
220.924	60.93
221.142	58.88
221.36	79.36
221.578	79.36
221.796	11.78
222.015	52.74
222.233	13.82
222.451	85.5
222.669	28.16
222.887	85.5
223.105	36.35
223.323	32.26
223.541	-18.94
223.759	95.74
223.977	73.21
224.195	142.85
224.413	-10.75
224.631	103.93
224.849	44.54
225.067	30.21
225.285	-0.51
225.503	101.89
225.721	-57.86
225.939	-0.51
226.157	62.98
226.375	52.74
226.592	65.02
226.81	89.6
227.028	40.45
227.246	62.98
227.464	13.82
227.682	89.6
227.9	-12.8
228.117	65.02
228.335	34.3
228.553	28.16
228.771	110.08
228.989	56.83
229.206	15.87
229.424	-20.99
229.642	11.78
229.86	-16.9
230.077	5.63
230.295	48.64
230.513	75.26
230.731	93.69
230.948	99.84
231.166	32.26
231.384	40.45
231.601	32.26
231.819	87.55
232.037	-12.8
232.254	28.16
232.472	65.02
232.689	65.02
232.907	19.97
233.125	85.5
233.342	32.26
233.56	40.45
233.777	-18.94
233.995	44.54
234.213	112.13
234.43	85.5
234.648	26.11
234.865	13.82
235.083	91.65
235.3	44.54
235.518	-4.61
235.735	87.55
235.953	38.4
236.17	36.35
236.388	36.35
236.605	77.31
236.822	114.17
237.04	77.31
237.257	9.73
237.475	36.35
237.692	103.93
237.909	60.93
238.127	7.68
238.344	46.59
238.562	30.21
238.779	54.78
238.996	17.92
239.214	48.64
239.431	28.16
239.648	24.06
239.865	134.65
240.083	5.63
240.3	52.74
240.517	-12.8
240.735	79.36
240.952	24.06
241.169	30.21
241.386	40.45
241.603	44.54
241.821	73.21
242.038	81.41
242.255	5.63
242.472	79.36
242.689	-10.75
242.907	89.6
243.124	34.3
243.341	95.74
243.558	11.78
243.775	7.68
243.992	17.92
244.209	110.08
244.426	62.98
244.643	83.45
244.86	-10.75
245.078	85.5
245.295	7.68
245.512	19.97
245.729	9.73
245.946	99.84
246.163	69.12
246.38	77.31
246.597	36.35
246.814	91.65
247.031	-14.85
247.248	81.41
247.464	-0.51
247.681	-4.61
247.898	36.35
248.115	62.98
248.332	77.31
248.549	60.93
248.766	120.32
248.983	52.74
249.2	114.17
249.417	60.93
249.633	28.16
249.85	101.89
250.067	-0.51
250.284	30.21
250.501	40.45
250.717	62.98
250.934	65.02
251.151	44.54
251.368	24.06
251.585	99.84
251.801	48.64
252.018	5.63
252.235	38.4
252.451	19.97
252.668	15.87
252.885	85.5
253.102	60.93
253.318	24.06
253.535	54.78
253.752	65.02
253.968	50.69
254.185	-4.61
254.401	97.79
254.618	52.74
254.835	71.17
255.051	118.27
255.268	60.93
255.484	62.98
255.701	42.5
255.917	95.74
256.134	-86.53
256.351	56.83
256.567	52.74
256.784	56.83
257	22.02
257.217	105.98
257.433	28.16
257.65	110.08
257.866	34.3
258.082	1.54
258.299	-61.95
258.515	77.31
258.732	13.82
258.948	52.74
259.165	75.26
259.381	11.78
259.597	114.17
259.814	11.78
260.03	69.12
260.246	65.02
260.463	118.27
260.679	46.59
260.895	13.82
261.112	3.58
261.328	5.63
261.544	54.78
261.761	48.64
261.977	65.02
262.193	15.87
262.409	132.61
262.626	-16.9
262.842	30.21
263.058	52.74
263.274	56.83
263.49	73.21
263.707	85.5
263.923	103.93
264.139	46.59
264.355	-33.28
264.571	83.45
264.787	1.54
265.004	38.4
265.22	79.36
265.436	32.26
265.652	7.68
265.868	44.54
266.084	-6.66
266.3	54.78
266.516	1.54
266.732	38.4
266.948	-20.99
267.164	101.89
267.38	5.63
267.596	87.55
267.812	122.37
268.028	3.58
268.244	19.97
268.46	24.06
268.676	28.16
268.892	19.97
269.108	30.21
269.324	52.74
269.54	81.41
269.756	19.97
269.972	17.92
270.188	34.3
270.403	42.5
270.619	32.26
270.835	-25.09
271.051	-2.56
271.267	95.74
271.483	77.31
271.698	69.12
271.914	52.74
272.13	108.03
272.346	48.64
272.562	132.61
272.777	105.98
272.993	-2.56
273.209	62.98
273.425	44.54
273.64	-0.51
273.856	134.65
274.072	44.54
274.287	-10.75
274.503	155.13
274.719	19.97
274.934	91.65
275.15	103.93
275.366	54.78
275.581	126.46
275.797	30.21
276.012	22.02
276.228	44.54
276.444	36.35
276.659	77.31
276.875	56.83
277.09	48.64
277.306	36.35
277.521	34.3
277.737	22.02
277.952	19.97
278.168	87.55
278.383	24.06
278.599	52.74
278.814	112.13
279.03	-16.9
279.245	103.93
279.461	22.02
279.676	65.02
279.892	-16.9
280.107	36.35
280.322	36.35
280.538	81.41
280.753	-2.56
280.969	62.98
281.184	65.02
281.399	52.74
281.615	73.21
281.83	91.65
282.045	9.73
282.26	85.5
282.476	-10.75
282.691	38.4
282.906	103.93
283.122	89.6
283.337	15.87
283.552	-49.66
283.767	52.74
283.983	87.55
284.198	28.16
284.413	17.92
284.628	40.45
284.843	93.69
285.058	105.98
285.274	58.88
285.489	32.26
285.704	60.93
285.919	-4.61
286.134	-49.66
286.349	62.98
286.564	54.78
286.779	85.5
286.995	22.02
287.21	15.87
287.425	71.17
287.64	93.69
287.855	22.02
288.07	11.78
288.285	58.88
288.5	36.35
288.715	95.74
288.93	79.36
289.145	97.79
289.36	7.68
289.575	71.17
289.79	34.3
290.004	38.4
290.219	85.5
290.434	65.02
290.649	-43.52
290.864	11.78
291.079	62.98
291.294	38.4
291.509	101.89
291.724	85.5
291.938	44.54
292.153	95.74
292.368	77.31
292.583	62.98
292.798	95.74
293.012	87.55
293.227	120.32
293.442	71.17
293.657	71.17
293.871	112.13
294.086	38.4
294.301	85.5
294.516	77.31
294.73	30.21
294.945	-2.56
295.16	52.74
295.374	136.7
295.589	95.74
295.804	28.16
296.018	3.58
296.233	40.45
296.447	26.11
296.662	77.31
296.877	46.59
297.091	71.17
297.306	79.36
297.52	85.5
297.735	19.97
297.949	17.92
298.164	58.88
298.378	97.79
298.593	13.82
298.807	48.64
299.022	56.83
299.236	34.3
299.451	24.06
299.665	5.63
299.88	54.78
300.094	36.35
300.309	24.06
300.523	22.02
300.737	40.45
300.952	44.54
301.166	81.41
301.381	69.12
301.595	54.78
301.809	118.27
302.024	36.35
302.238	65.02
302.452	28.16
302.667	19.97
302.881	118.27
303.095	44.54
303.309	28.16
303.524	-8.7
303.738	24.06
303.952	73.21
304.166	15.87
304.381	-4.61
304.595	52.74
304.809	-29.18
305.023	103.93
305.237	32.26
305.452	75.26
305.666	93.69
305.88	38.4
306.094	50.69
306.308	124.41
306.522	40.45
306.736	75.26
306.95	71.17
307.164	54.78
307.379	32.26
307.593	112.13
307.807	110.08
308.021	44.54
308.235	13.82
308.449	62.98
308.663	32.26
308.877	136.7
309.091	77.31
309.305	140.8
309.519	30.21
309.733	46.59
309.947	11.78
310.161	58.88
310.374	83.45
310.588	19.97
310.802	65.02
311.016	101.89
311.23	89.6
311.444	-8.7
311.658	71.17
311.872	24.06
312.085	105.98
312.299	99.84
312.513	77.31
312.727	105.98
312.941	81.41
313.154	81.41
313.368	13.82
313.582	67.07
313.796	136.7
314.009	101.89
314.223	101.89
314.437	54.78
314.651	30.21
314.864	62.98
315.078	54.78
315.292	22.02
315.505	124.41
315.719	71.17
315.933	28.16
316.146	24.06
316.36	-14.85
316.573	110.08
316.787	124.41
317.001	30.21
317.214	50.69
317.428	77.31
317.641	48.64
317.855	30.21
318.068	30.21
318.282	85.5
318.495	118.27
318.709	1.54
318.922	34.3
319.136	56.83
319.349	128.51
319.563	30.21
319.776	32.26
319.99	-61.95
320.203	103.93
320.417	-25.09
320.63	17.92
320.843	105.98
321.057	44.54
321.27	38.4
321.483	28.16
321.697	58.88
321.91	7.68
322.124	62.98
322.337	50.69
322.55	-0.51
322.763	17.92
322.977	122.37
323.19	19.97
323.403	42.5
323.617	48.64
323.83	77.31
324.043	93.69
324.256	54.78
324.469	-2.56
324.683	69.12
324.896	73.21
325.109	67.07
325.322	48.64
325.535	40.45
325.748	99.84
325.962	105.98
326.175	77.31
326.388	151.04
326.601	60.93
326.814	46.59
327.027	22.02
327.24	114.17
327.453	26.11
327.666	105.98
327.879	89.6
328.092	46.59
328.305	11.78
328.518	13.82
328.731	65.02
328.944	44.54
329.157	85.5
329.37	118.27
329.583	181.76
329.796	52.74
330.009	71.17
330.222	73.21
330.435	116.22
330.648	132.61
330.861	11.78
331.073	134.65
331.286	110.08
331.499	32.26
331.712	85.5
331.925	52.74
332.138	40.45
332.35	85.5
332.563	-29.18
332.776	48.64
332.989	65.02
333.202	97.79
333.414	138.75
333.627	52.74
333.84	56.83
334.053	-16.9
334.265	34.3
334.478	36.35
334.691	85.5
334.903	105.98
335.116	110.08
335.329	69.12
335.541	79.36
335.754	52.74
335.966	40.45
336.179	-4.61
336.392	69.12
336.604	-23.04
336.817	124.41
337.029	71.17
337.242	85.5
337.454	19.97
337.667	60.93
337.88	87.55
338.092	71.17
338.305	75.26
338.517	116.22
338.729	-8.7
338.942	69.12
339.154	101.89
339.367	95.74
339.579	136.7
339.792	-35.33
340.004	97.79
340.217	26.11
340.429	155.13
340.641	46.59
340.854	44.54
341.066	67.07
341.278	118.27
341.491	97.79
341.703	71.17
341.915	67.07
342.128	42.5
342.34	71.17
342.552	42.5
342.764	65.02
342.977	128.51
343.189	77.31
343.401	73.21
343.613	-0.51
343.826	87.55
344.038	32.26
344.25	89.6
344.462	73.21
344.674	34.3
344.886	81.41
345.099	32.26
345.311	79.36
345.523	67.07
345.735	-0.51
345.947	118.27
346.159	62.98
346.371	28.16
346.583	24.06
346.795	44.54
347.007	32.26
347.219	28.16
347.431	60.93
347.643	71.17
347.855	108.03
348.067	81.41
348.279	30.21
348.491	19.97
348.703	38.4
348.915	56.83
349.127	87.55
349.339	89.6
349.551	40.45
349.763	136.7
349.975	62.98
350.187	85.5
350.399	85.5
350.61	101.89
350.822	71.17
351.034	112.13
351.246	105.98
351.458	44.54
351.669	85.5
351.881	130.56
352.093	108.03
352.305	140.8
352.517	50.69
352.728	114.17
352.94	103.93
353.152	132.61
353.363	44.54
353.575	142.85
353.787	60.93
353.999	36.35
354.21	65.02
354.422	-20.99
354.633	69.12
354.845	52.74
355.057	105.98
355.268	91.65
355.48	44.54
355.692	11.78
355.903	110.08
356.115	24.06
356.326	30.21
356.538	136.7
356.749	175.61
356.961	212.48
357.172	130.56
357.384	81.41
357.595	71.17
357.807	128.51
358.018	112.13
358.23	71.17
358.441	52.74
358.653	48.64
358.864	60.93
359.075	77.31
359.287	77.31
359.498	44.54
359.709	77.31
359.921	85.5
360.132	36.35
360.344	97.79
360.555	71.17
360.766	62.98
360.977	36.35
361.189	83.45
361.4	118.27
361.611	65.02
361.823	112.13
362.034	52.74
362.245	44.54
362.456	71.17
362.667	112.13
362.879	-12.8
363.09	32.26
363.301	5.63
363.512	97.79
363.723	52.74
363.935	13.82
364.146	93.69
364.357	46.59
364.568	93.69
364.779	24.06
364.99	62.98
365.201	52.74
365.412	95.74
365.623	19.97
365.834	126.46
366.045	30.21
366.256	65.02
366.467	46.59
366.678	52.74
366.889	32.26
367.1	54.78
367.311	65.02
367.522	73.21
367.733	108.03
367.944	118.27
368.155	101.89
368.366	71.17
368.577	44.54
368.788	60.93
368.999	69.12
369.209	87.55
369.42	134.65
369.631	124.41
369.842	32.26
370.053	83.45
370.264	95.74
370.474	77.31
370.685	56.83
370.896	85.5
371.107	93.69
371.317	36.35
371.528	87.55
371.739	69.12
371.95	126.46
372.16	128.51
372.371	60.93
372.582	17.92
372.792	62.98
373.003	134.65
373.214	-43.52
373.424	114.17
373.635	95.74
373.846	85.5
374.056	54.78
374.267	105.98
374.477	36.35
374.688	101.89
374.898	108.03
375.109	52.74
375.319	81.41
375.53	122.37
375.74	120.32
375.951	11.78
376.161	-10.75
376.372	101.89
376.582	65.02
376.793	126.46
377.003	15.87
377.214	77.31
377.424	-16.9
377.635	146.94
377.845	101.89
378.055	85.5
378.266	46.59
378.476	44.54
378.686	85.5
378.897	128.51
379.107	110.08
379.317	136.7
379.528	62.98
379.738	50.69
379.948	65.02
380.158	81.41
380.369	85.5
380.579	105.98
380.789	30.21
380.999	77.31
381.21	77.31
381.42	116.22
381.63	71.17
381.84	56.83
382.05	120.32
382.261	103.93
382.471	77.31
382.681	118.27
382.891	73.21
383.101	118.27
383.311	44.54
383.521	52.74
383.731	71.17
383.941	-4.61
384.151	93.69
384.361	132.61
384.571	71.17
384.781	101.89
384.991	159.23
385.201	50.69
385.411	118.27
385.621	99.84
385.831	87.55
386.041	120.32
386.251	44.54
386.461	110.08
386.671	22.02
386.881	85.5
387.091	85.5
387.301	93.69
387.511	60.93
387.72	89.6
387.93	202.24
388.14	30.21
388.35	126.46
388.56	105.98
388.769	136.7
388.979	52.74
389.189	54.78
389.399	85.5
389.609	105.98
389.818	171.52
390.028	40.45
390.238	95.74
390.447	79.36
390.657	44.54
390.867	38.4
391.076	87.55
391.286	138.75
391.496	54.78
391.705	62.98
391.915	146.94
392.125	114.17
392.334	142.85
392.544	93.69
392.753	56.83
392.963	151.04
393.172	93.69
393.382	83.45
393.591	167.42
393.801	128.51
394.01	155.13
394.22	118.27
394.429	69.12
394.639	52.74
394.848	48.64
395.058	103.93
395.267	44.54
395.477	105.98
395.686	126.46
395.895	175.61
396.105	175.61
396.314	128.51
396.524	54.78
396.733	124.41
396.942	142.85
397.152	187.9
397.361	157.18
397.57	136.7
397.78	95.74
397.989	112.13
398.198	126.46
398.407	87.55
398.617	124.41
398.826	69.12
399.035	192
399.244	167.42
399.453	151.04
399.663	181.76
399.872	146.94
400.081	210.43
400.29	181.76
400.499	136.7
400.708	200.19
400.917	142.85
401.127	157.18
401.336	144.89
401.545	210.43
401.754	173.57
401.963	126.46
402.172	132.61
402.381	128.51
402.59	126.46
402.799	126.46
403.008	157.18
403.217	194.05
403.426	218.62
403.635	97.79
403.844	159.23
404.053	222.72
404.262	169.47
404.471	216.57
404.68	126.46
404.888	161.28
405.097	153.09
405.306	261.63
405.515	224.76
405.724	153.09
405.933	218.62
406.142	245.24
406.35	280.06
406.559	251.39
406.768	218.62
406.977	323.07
407.185	296.44
407.394	243.2
407.603	249.34
407.812	345.59
408.02	308.73
408.229	306.68
408.438	308.73
408.646	310.78
408.855	302.59
409.064	286.2
409.272	312.83
409.481	511.48
409.69	404.99
409.898	380.41
410.107	388.6
410.315	357.88
410.524	445.95
410.733	437.75
410.941	462.33
411.15	472.57
411.358	429.56
411.567	658.93
411.775	456.19
411.984	546.3
412.192	597.49
412.401	544.25
412.609	597.49
412.818	601.59
413.026	685.56
413.234	765.43
413.443	677.37
413.651	714.23
413.86	757.24
414.068	716.28
414.276	839.16
414.485	781.81
414.693	925.17
414.901	867.83
415.11	882.16
415.318	904.69
415.526	1007.09
415.734	886.26
415.943	1052.14
416.151	970.23
416.359	1086.96
416.567	1019.38
416.776	1136.11
416.984	1144.3
417.192	1203.69
417.4	1232.37
417.608	1111.54
417.817	1367.53
418.025	1492.46
418.233	1455.59
418.441	1502.7
418.649	1496.55
418.857	1637.86
419.065	1662.44
419.273	1560.04
419.481	1795.56
419.689	1793.51
419.897	1996.26
420.105	1875.43
420.313	2006.5
420.521	1983.97
420.729	2199.01
420.937	2078.18
421.145	2207.2
421.353	2366.94
421.561	2428.38
421.769	2399.71
421.977	2684.38
422.185	2573.78
422.393	2751.96
422.601	2862.55
422.809	2893.27
423.017	2944.47
423.224	2995.67
423.432	3036.63
423.64	3112.4
423.848	3517.9
424.056	3349.96
424.263	3485.13
424.471	3657.16
424.679	3528.14
424.887	3714.5
425.094	3821
425.302	3904.96
425.51	4230.59
425.718	4185.54
425.925	4208.06
426.133	4480.44
426.341	4795.83
426.548	4820.41
426.756	4875.7
426.964	4926.9
427.171	5318.06
427.379	5324.21
427.586	5539.24
427.794	5512.62
428.001	5772.71
428.209	6155.68
428.417	6120.87
428.624	6372.77
428.832	6393.25
429.039	6460.83
429.247	6483.36
429.454	7101.84
429.662	7499.15
429.869	7046.55
430.076	7493.01
430.284	7103.89
430.491	7654.8
430.699	7855.5
430.906	7994.76
431.114	8048.01
431.321	8457.6
431.528	8523.13
431.736	9115
431.943	9555.31
432.15	9428.34
432.358	9508.21
432.565	9882.99
432.772	9839.98
432.979	10386.79
433.187	10624.35
433.394	10548.58
433.601	11183.45
433.808	11367.76
434.016	11246.93
434.223	11738.44
434.43	12211.53
434.637	12219.72
434.844	13004.09
435.052	13192.5
435.259	13040.95
435.466	13200.69
435.673	13016.38
435.88	14005.55
436.087	14781.73
436.294	14773.53
436.501	14425.38
436.708	14763.29
436.915	15224.09
437.122	15854.86
437.329	15723.79
437.537	16264.46
437.743	16362.76
437.95	16555.27
438.157	17313.02
438.364	17784.05
438.571	17822.96
438.778	17796.34
438.985	19408.09
439.192	18539.75
439.399	18955.49
439.606	18595.04
439.813	20008.14
440.02	21331.13
440.227	20706.5
440.433	20524.23
440.64	21220.54
440.847	21388.47
441.054	21513.4
441.261	23055.52
441.467	22869.16
441.674	23188.64
441.881	24138.9
442.088	23901.33
442.294	23956.63
442.501	24614.02
442.708	25093.25
442.914	25592.95
443.121	26989.67
443.328	26446.96
443.534	27989.08
443.741	27077.73
443.948	26661.99
444.154	28703.82
444.361	28660.81
444.568	28877.9
444.774	28775.5
444.981	28851.27
445.187	29985.85
445.394	31464.48
445.6	30497.84
445.807	33682.43
446.013	32072.73
446.22	32416.79
446.426	34014.2
446.633	34493.43
446.839	35384.29
447.046	34233.33
447.252	35855.32
447.459	35611.62
447.665	35705.82
447.871	37278.66
448.078	38792.11
448.284	37219.27
448.491	38443.96
448.697	39543.72
448.903	40618.9
449.11	40305.56
449.316	39422.89
449.522	40235.93
449.728	41350.03
449.935	42136.45
450.141	41644.93
450.347	43008.88
450.553	41192.33
450.76	41761.67
450.966	43567.98
451.172	42922.87
451.378	43869.03
451.584	43309.93
451.791	43664.23
451.997	43877.22
452.203	44553.05
452.409	44596.06
452.615	44540.76
452.821	42945.39
453.027	42701.68
453.233	44866.39
453.44	42935.15
453.646	43428.71
453.852	43600.74
454.058	44479.32
454.264	43164.53
454.47	44159.84
454.676	43279.21
454.882	44381.02
455.088	40446.87
455.294	41769.86
455.5	41681.8
455.705	42466.17
455.911	40639.38
456.117	39852.96
456.323	39279.53
456.529	37346.25
456.735	39185.32
456.941	38153.15
457.147	37811.14
457.352	36608.98
457.558	36133.85
457.764	36363.22
457.97	35718.11
458.176	34851.82
458.381	34892.78
458.587	33416.19
458.793	33006.6
458.999	31693.85
459.204	33565.7
459.41	32842.76
459.616	30516.27
459.821	30659.63
460.027	30704.68
460.233	29914.17
460.438	28673.1
460.644	28996.68
460.85	27669.59
461.055	27044.96
461.261	27004
461.466	25199.74
461.672	24276.11
461.878	25928.82
462.083	24579.21
462.289	23852.18
462.494	23708.82
462.7	22533.29
462.905	22127.79
463.111	22785.19
463.316	22963.36
463.522	22191.28
463.727	22340.78
463.932	22064.3
464.138	22168.75
464.343	22230.19
464.549	21365.95
464.754	22246.57
464.959	21955.76
465.165	21804.21
465.37	20956.35
465.575	20311.24
465.781	21265.6
465.986	21585.08
466.191	20337.87
466.397	20165.84
466.602	19086.56
466.807	19967.18
467.012	19881.17
467.218	19879.12
467.423	19657.94
467.628	19838.16
467.833	20544.71
468.038	19875.02
468.244	19258.59
468.449	20059.34
468.654	19127.52
468.859	19295.45
469.064	18916.58
469.269	18267.37
469.474	18472.17
469.679	18818.27
469.885	18470.12
470.09	18369.77
470.295	18570.47
470.5	17913.07
470.705	18341.1
470.91	17718.51
471.115	17562.87
471.32	17968.37
471.525	17763.57
471.73	17198.33
471.935	17159.42
472.139	16788.74
472.344	16983.29
472.549	16633.09
472.754	16420.1
472.959	16311.56
473.164	15858.96
473.369	15752.46
473.574	16493.83
473.778	16303.37
473.983	16239.88
474.188	16157.96
474.393	15310.1
474.598	15379.73
474.802	15224.09
475.007	15111.45
475.212	14892.32
475.417	14654.75
475.621	14294.31
475.826	14568.74
476.031	14300.45
476.235	13983.02
476.44	14386.47
476.645	14028.07
476.849	14212.39
477.054	13628.72
477.259	13620.53
477.463	13358.39
477.668	13268.28
477.872	13331.76
478.077	13210.93
478.282	12995.9
478.486	12936.51
478.691	12721.47
478.895	12647.74
479.1	12539.2
479.304	12643.65
479.509	12059.98
479.713	12473.67
479.918	12117.32
480.122	12004.68
480.326	12150.09
480.531	12289.35
480.735	12019.02
480.94	12033.35
481.144	12346.69
481.348	11750.73
481.553	11933
481.757	11574.61
481.961	11779.4
482.166	11584.85
482.37	11799.88
482.574	11713.87
482.778	11889.99
482.983	11842.89
483.187	11943.24
483.391	11939.15
483.595	11799.88
483.8	11556.18
484.004	11711.82
484.208	11928.91
484.412	11615.57
484.616	11674.96
484.821	11830.6
485.025	11636.05
485.229	11928.91
485.433	11689.29
485.637	11562.32
485.841	11582.8
486.045	11644.24
486.249	11666.77
486.453	11713.87
486.657	11603.28
486.861	11818.32
487.065	11392.34
487.269	11789.64
487.473	11453.78
487.677	11679.05
487.881	11967.82
488.085	11771.21
488.289	11742.54
488.493	11570.51
488.697	11832.65
488.901	11668.81
489.105	11617.61
489.309	11832.65
489.512	11828.56
489.716	11959.63
489.92	11769.16
490.124	12010.82
490.328	12066.12
490.531	11812.17
490.735	11928.91
490.939	12078.41
491.143	11980.11
491.346	11939.15
491.55	12227.91
491.754	12254.53
491.958	12191.05
492.161	12209.48
492.365	12422.47
492.569	12326.21
492.772	12266.82
492.976	12299.59
493.18	12537.15
493.383	12397.89
493.587	12789.05
493.79	12924.22
493.994	12524.86
494.197	12668.22
494.401	12817.72
494.605	12961.08
494.808	13540.66
495.012	13036.86
495.215	13333.81
495.419	13372.72
495.622	13411.64
495.825	13417.78
496.029	13636.91
496.232	13991.21
496.436	13747.5
496.639	14261.54
496.843	13944.11
497.046	14343.46
497.249	14454.05
497.453	14583.07
497.656	14710.05
497.859	14751.01
498.063	14841.12
498.266	15273.24
498.469	15146.26
498.673	15373.59
498.876	15371.54
499.079	15709.46
499.282	15641.87
499.485	16180.49
499.689	16065.8
499.892	16276.74
500.095	16315.66
500.298	16651.52
500.501	16436.49
500.705	17110.27
500.908	17206.52
501.111	17347.83
501.314	17536.24
501.517	17437.94
501.72	17825.01
501.923	17685.75
502.126	18455.78
502.329	18679.01
502.532	18404.58
502.735	18848.99
502.938	19231.96
503.141	19277.02
503.344	19703
503.547	19475.67
503.75	19664.08
503.953	19999.95
504.156	20272.33
504.359	20206.8
504.562	20368.59
504.765	20911.3
504.968	20939.97
505.17	21294.27
505.373	21642.42
505.576	21847.22
505.779	21806.26
505.982	22002.86
506.185	22521
506.387	22594.73
506.59	22998.18
506.793	23137.44
506.996	23188.64
507.198	24173.71
507.401	23891.09
507.604	23856.28
507.807	24636.55
508.009	24378.51
508.212	24542.35
508.415	25052.29
508.617	25449.6
508.82	25377.92
509.022	25300.09
509.225	26295.41
509.428	26211.44
509.63	26399.85
509.833	26270.83
510.035	27370.59
510.238	27223.14
510.44	27225.18
510.643	28009.56
510.845	28144.72
511.048	27673.69
511.25	28447.82
511.453	28523.6
511.655	29629.5
511.858	29099.08
512.06	29606.97
512.262	29711.42
512.465	29887.54
512.667	30121.01
512.87	30723.12
513.072	30972.97
513.274	31134.76
513.477	31431.71
513.679	31982.62
513.881	32218.13
514.084	32398.35
514.286	32185.36
514.488	32539.66
514.69	33680.38
514.893	33620.99
515.095	33426.43
515.297	34423.79
515.499	34438.13
515.701	34786.29
515.904	35208.17
516.106	35099.62
516.308	35343.33
516.51	35740.64
516.712	35750.88
516.914	36226.01
517.116	36637.65
517.318	36979.66
517.52	37147.59
517.722	37430.21
517.925	37809.09
518.127	38013.88
518.329	38601.65
518.531	38331.32
518.733	39023.53
518.935	39089.07
519.136	39521.19
519.338	39992.22
519.54	40231.83
519.742	40395.67
519.944	40381.34
520.146	41202.57
520.348	41532.29
520.55	41454.47
520.752	42036.09
520.954	42617.72
521.155	42214.27
521.357	42666.87
521.559	43051.89
521.761	43469.67
521.963	43520.87
522.164	43817.83
522.366	43797.35
522.568	44358.49
522.77	44729.17
522.971	45099.86
523.173	45060.94
523.375	45349.71
523.576	45335.37
523.778	45656.9
523.98	45912.9
524.181	46113.6
524.383	46207.81
524.584	46914.36
524.786	46940.98
524.988	46916.4
525.189	47293.23
525.391	47989.54
525.592	48194.34
525.794	47678.25
525.995	48110.37
526.197	48126.75
526.398	48198.43
526.6	48399.13
526.801	48464.67
527.003	49005.33
527.204	48714.52
527.406	49337.1
527.607	49242.9
527.808	49971.97
528.01	48691.99
528.211	49603.34
528.412	50389.76
528.614	50356.99
528.815	50078.47
529.016	50739.96
529.218	50021.12
529.419	50479.87
529.62	50440.96
529.822	50549.5
530.023	50535.16
530.224	50473.73
530.425	50819.83
530.626	50338.56
530.828	50455.29
531.029	51411.7
531.23	50928.37
531.431	51548.91
531.632	50707.19
531.833	51385.07
532.035	51360.5
532.236	51184.37
532.437	51342.06
532.638	51219.19
532.839	51618.54
533.04	51643.12
533.241	51155.7
533.442	52101.86
533.643	51487.47
533.844	51510
534.045	51466.99
534.246	51282.67
534.447	51620.59
534.648	51704.56
534.849	52306.66
535.05	51213.04
535.251	51487.47
535.451	51473.13
535.652	51913.45
535.853	51553.01
536.054	51933.93
536.255	51796.71
536.456	51565.29
536.657	51909.35
536.857	51925.74
537.058	51544.81
537.259	51888.87
537.46	51905.26
537.66	51305.2
537.861	51622.64
538.062	51686.12
538.263	51911.4
538.463	51391.22
538.664	51938.02
538.865	51872.49
539.065	52077.29
539.266	51256.05
539.466	52206.31
539.667	51090.16
539.868	51874.54
540.068	51440.37
540.269	51473.13
540.469	51901.16
540.67	51389.17
540.87	51532.53
541.071	51528.43
541.271	51927.78
541.472	51573.49
541.672	51737.32
541.873	51436.27
542.073	50723.58
542.274	51835.63
542.474	51190.51
542.675	51163.89
542.875	51364.59
543.075	51391.22
543.276	50977.53
543.476	51905.26
543.676	50897.66
543.877	51520.24
544.077	51610.35
544.277	51380.98
544.478	51477.23
544.678	51530.48
544.878	51442.42
545.078	51585.77
545.279	51061.49
545.479	51188.47
545.679	51356.4
545.879	51526.38
546.079	51288.82
546.28	51155.7
546.48	50733.82
546.68	51354.35
546.88	51434.22
547.08	50889.46
547.28	51094.26
547.48	50486.01
547.68	51131.12
547.88	50934.52
548.081	51421.94
548.281	51143.41
548.481	50461.44
548.681	51243.76
548.881	51084.02
549.081	50809.59
549.28	50993.91
549.48	51196.66
549.68	51172.08
549.88	51858.15
550.08	50367.23
550.28	50717.43
550.48	50715.39
550.68	51581.68
550.88	51116.79
551.08	50760.44
551.279	50787.07
551.479	50688.76
551.679	50948.85
551.879	50606.84
552.079	50813.69
552.278	51075.83
552.478	50914.04
552.678	50799.35
552.878	50961.14
553.077	50666.23
553.277	50004.74
553.477	51313.39
553.676	50144
553.876	50569.98
554.076	50592.51
554.275	50653.95
554.475	49996.55
554.674	50379.52
554.874	50594.56
555.074	50346.75
555.273	50531.07
555.473	50543.36
555.672	49720.07
555.872	50295.55
556.071	50195.2
556.271	50395.9
556.47	49773.32
556.67	49578.76
556.869	49988.36
557.068	50217.73
557.268	49507.08
557.467	50004.74
557.667	50017.03
557.866	50027.27
558.065	49797.9
558.265	49412.88
558.464	49615.63
558.663	50445.05
558.863	49378.06
559.062	50117.38
559.261	49019.67
559.461	49685.26
559.66	49257.23
559.859	49548.04
560.058	49218.32
560.258	49675.02
560.457	48821.02
560.656	48894.74
560.855	49273.62
561.054	49021.72
561.253	48591.64
561.453	48919.32
561.652	48827.16
561.851	48859.93
562.05	48612.12
562.249	48247.58
562.448	49095.44
562.647	48587.55
562.846	48397.09
563.045	48751.38
563.244	48171.81
563.443	48767.77
563.642	47786.79
563.841	48315.17
564.04	47928.1
564.239	48751.38
564.438	47711.02
564.637	48134.95
564.836	48069.41
565.035	47514.41
565.234	47995.68
565.432	47387.44
565.631	47387.44
565.83	47837.99
566.029	47424.3
566.228	47252.27
566.427	47074.1
566.625	46930.74
566.824	46734.13
567.023	47561.51
567.222	46306.11
567.42	46961.46
567.619	46744.37
567.818	46611.26
568.016	46742.33
568.215	47121.2
568.414	46435.13
568.612	47053.62
568.811	46259.01
569.01	46508.86
569.208	45751.11
569.407	46246.72
569.605	45695.81
569.804	46283.58
570.002	45579.08
570.201	46160.7
570.4	45208.4
570.598	45523.79
570.797	45316.94
570.995	45529.93
571.193	44712.79
571.392	45663.05
571.59	44559.19
571.789	45333.32
571.987	44956.5
572.186	44680.02
572.384	44591.96
572.582	45067.09
572.781	45044.56
572.979	44473.18
573.177	44327.77
573.376	44276.57
573.574	44028.77
573.772	44245.85
573.971	43795.3
574.169	44049.25
574.367	43688.81
574.565	44079.97
574.763	43737.96
574.962	43514.73
575.16	43303.79
575.358	43422.57
575.556	42765.17
575.754	43565.93
575.952	43424.62
576.151	43123.57
576.349	42517.37
576.547	42726.26
576.745	42754.93
576.943	42462.07
577.141	42283.9
577.339	42648.44
577.537	42433.4
577.735	42380.15
577.933	41923.46
578.131	42244.99
578.329	41941.89
578.527	42064.77
578.725	42072.96
578.923	42208.12
579.121	41610.12
579.319	41442.18
579.516	41761.67
579.714	41528.2
579.912	41024.4
580.11	41247.63
580.308	41368.46
580.506	41261.96
580.704	40405.91
580.901	41243.53
581.099	41261.96
581.297	40756.11
581.495	40848.27
581.692	40854.42
581.89	40090.52
582.088	40471.45
582.285	40285.08
582.483	40274.84
582.681	39652.26
582.878	39877.54
583.076	39613.35
583.274	40240.03
583.471	39044.01
583.669	39596.96
583.866	39603.11
584.064	39441.32
584.262	39050.16
584.459	39467.94
584.657	38892.46
584.854	38960.05
585.052	38441.91
585.249	39062.44
585.447	38929.33
585.644	38523.83
585.841	38767.54
586.039	38812.59
586.236	38216.63
586.434	38239.16
586.631	38253.5
586.828	38181.82
587.026	38323.13
587.223	37837.76
587.42	37944.25
587.618	37866.43
587.815	37411.78
588.012	37678.02
588.21	37108.68
588.407	37458.88
588.604	37221.32
588.801	37202.89
588.999	36973.52
589.196	36934.6
589.393	37071.82
589.59	36842.45
589.787	36385.75
589.984	36201.43
590.182	36191.19
590.379	36484.05
590.576	35922.91
590.773	36574.16
590.97	35732.45
591.167	35943.39
591.364	35681.25
591.561	35826.65
591.758	35173.35
591.955	35388.39
592.152	35597.28
592.349	35267.56
592.546	35187.69
592.743	35306.47
592.94	34395.12
593.137	34810.86
593.334	34894.83
593.531	34399.22
593.727	34683.89
593.924	34403.32
594.121	34339.83
594.318	34511.86
594.515	34022.39
594.712	34530.29
594.908	33938.43
595.105	34401.27
595.302	33547.26
595.499	33942.52
595.696	33553.41
595.892	33612.8
596.089	33606.66
596.286	33598.46
596.482	33420.29
596.679	33121.29
596.876	33184.77
597.072	33289.22
597.269	33111.05
597.466	32766.99
597.662	32713.74
597.859	32941.07
598.055	32726.03
598.252	32089.11
598.448	32568.34
598.645	32144.41
598.841	32238.61
599.038	32504.85
599.234	32087.06
599.431	31798.3
599.627	31761.44
599.824	32283.67
600.02	31112.23
600.217	31919.13
600.413	31435.81
600.609	31519.78
600.806	31347.75
601.002	31527.97
601.198	31364.13
601.395	31314.98
601.591	30872.62
601.787	30866.47
601.984	30751.79
602.18	31073.32
602.376	30630.96
602.572	30590
602.769	30764.07
602.965	30209.08
603.161	30452.78
603.357	30393.39
603.553	30069.81
603.75	30434.35
603.946	29879.35
604.142	30061.62
604.338	29690.94
604.534	30004.28
604.73	29615.16
604.926	29389.89
605.122	29721.66
605.318	29529.15
605.514	29187.14
605.71	28902.47
605.906	29154.37
606.102	29115.46
606.298	29123.65
606.494	29142.08
606.69	28896.33
606.886	28765.26
607.082	28630.09
607.278	28531.79
607.474	28187.73
607.67	28687.43
607.866	28240.98
608.062	28890.18
608.257	28337.23
608.453	28118.1
608.649	27944.02
608.845	27989.08
609.041	28021.84
609.236	27860.05
609.432	27606.11
609.628	27896.92
609.824	27561.05
610.019	27884.63
610.215	27771.99
610.411	27548.76
610.606	27462.75
610.802	27243.62
610.998	27550.81
611.193	27599.96
611.389	27221.09
611.584	27307.1
611.78	27411.55
611.976	27253.86
612.171	27278.43
612.367	27253.86
612.562	26975.33
612.758	26496.11
612.953	26735.72
613.149	27210.85
613.344	26600.55
613.539	27253.86
613.735	26694.76
613.93	26813.54
614.126	26924.13
614.321	26944.61
614.517	26520.68
614.712	26575.98
614.907	26301.55
615.103	26672.23
615.298	26465.39
615.493	26492.01
615.688	25797.75
615.884	26633.32
616.079	26219.63
616.274	26422.38
616.47	26219.63
616.665	26150
616.86	25711.74
617.055	26025.07
617.25	26041.46
617.445	25953.4
617.641	25566.33
617.836	25891.96
618.031	25314.43
618.226	25453.69
618.421	25269.37
618.616	25797.75
618.811	25166.98
619.006	25332.86
619.201	24669.32
619.396	25175.17
619.591	24738.95
619.786	24966.28
619.981	24474.76
620.176	25015.43
620.371	24186
620.566	24263.82
620.761	24134.8
620.956	24274.06
621.151	23745.69
621.346	23848.08
621.541	23628.95
621.735	24278.16
621.93	23850.13
622.125	23608.47
622.32	23139.49
622.515	23415.96
622.709	23184.54
622.904	22946.98
623.099	23196.83
623.294	22940.83
623.488	22822.05
623.683	22916.26
623.878	22471.85
624.072	22359.21
624.267	22727.85
624.462	22219.95
624.656	21972.14
624.851	22140.08
625.046	22049.97
625.24	21904.56
625.435	21367.99
625.629	21660.85
625.824	21216.44
626.018	21523.64
626.213	20835.52
626.407	21359.8
626.602	20753.6
626.796	20917.44
626.991	20823.23
627.185	20815.04
627.38	20733.12
627.574	20675.78
627.768	20251.85
627.963	20204.75
628.157	20153.55
628.352	20257.99
628.546	19786.96
628.74	19903.7
628.935	19696.85
629.129	19287.26
629.323	19442.9
629.517	19338.46
629.712	19344.6
629.906	19225.82
630.1	18910.43
630.294	18816.22
630.489	19076.32
630.683	19309.79
630.877	18593
631.071	18566.37
631.265	18681.06
631.459	18267.37
631.653	18273.51
631.848	18216.17
632.042	18250.99
632.236	18171.11
632.43	17489.14
632.624	17954.03
632.818	17722.61
633.012	17685.75
633.206	17632.5
633.4	17657.07
633.594	17196.28
633.788	17306.87
633.982	17265.91
634.176	17153.27
634.369	17167.61
634.563	16864.51
634.757	16788.74
634.951	17263.86
635.145	16790.78
635.339	16717.06
635.533	16493.83
635.726	16454.92
635.92	16229.64
636.114	16360.71
636.308	16420.1
636.501	16317.7
636.695	16174.35
636.889	16117
637.083	15832.33
637.276	16002.32
637.47	15586.58
637.664	15635.73
637.857	15666.45
638.051	15629.59
638.244	15367.45
638.438	15363.35
638.632	15236.38
638.825	15387.93
639.019	15090.97
639.212	14871.84
639.406	15011.1
639.599	14966.04
639.793	15002.91
639.986	14474.53
640.18	14642.46
640.373	14548.26
640.567	14468.39
640.76	14495.01
640.954	14314.79
641.147	14183.72
641.34	14069.03
641.534	14030.12
641.727	14196.01
641.92	14036.27
642.114	13931.82
642.307	13882.67
642.5	13718.83
642.694	13843.76
642.887	13620.53
643.08	13581.62
643.273	13511.99
643.467	13380.92
643.66	13278.52
643.853	13200.69
644.046	13129.02
644.239	13004.09
644.432	12883.26
644.626	12981.56
644.819	13030.71
645.012	13020.47
645.205	12862.78
645.398	12715.33
645.591	12700.99
645.784	12651.84
645.977	12385.6
646.17	12408.13
646.363	12297.54
646.556	12115.27
646.749	12363.08
646.942	12225.86
647.135	12252.49
647.328	12283.2
647.521	12062.02
647.714	12047.69
647.907	11879.75
648.099	11898.19
648.292	11988.3
648.485	11734.35
648.678	11439.44
648.871	11492.69
649.064	11726.16
649.256	11566.42
649.449	11294.04
649.642	11343.19
649.835	11271.51
650.027	11316.56
650.22	11279.7
650.413	11140.44
650.605	10990.94
650.798	10988.89
650.991	10859.87
651.183	10911.07
651.376	10861.91
651.568	10763.61
651.761	10724.7
651.954	10732.89
652.146	10677.6
652.339	10603.87
652.531	10530.14
652.724	10472.8
652.916	10450.27
653.109	10138.98
653.301	10190.18
653.494	10149.22
653.686	10098.02
653.879	10026.34
654.071	10169.7
654.263	10112.36
654.456	10012.01
654.648	9956.71
654.84	9796.97
655.033	9860.46
655.225	9706.86
655.417	9710.96
655.61	9778.54
655.802	9629.04
655.994	9596.27
656.186	9598.32
656.379	9325.94
656.571	9411.95
656.763	9385.33
656.955	9350.51
657.148	9260.4
657.34	9112.95
657.532	9115
657.724	9018.74
657.916	8977.78
658.108	9018.74
658.3	9053.56
658.492	8988.02
658.684	8764.79
658.876	8869.24
659.068	8928.63
659.26	8891.77
659.452	8713.6
659.644	8754.55
659.836	8598.91
660.028	8719.74
660.22	8453.5
660.412	8598.91
660.604	8387.97
660.796	8441.22
660.988	8351.1
661.18	8189.32
661.372	8148.36
661.563	8369.54
661.755	8056.2
661.947	8361.34
662.139	8160.64
662.331	8134.02
662.522	7918.98
662.714	8019.33
662.906	8033.67
663.097	7998.85
663.289	7714.19
663.481	7654.8
663.673	7839.11
663.864	7718.28
664.056	7679.37
664.247	7656.84
664.439	7462.29
664.631	7691.66
664.822	7605.64
665.014	7564.68
665.205	7540.11
665.397	7495.05
665.588	7605.64
665.78	7443.85
665.971	7165.33
666.163	7454.09
666.354	7222.67
666.546	7308.69
666.737	7015.83
666.929	7239.06
667.12	7058.84
667.311	7122.32
667.503	6851.99
667.694	6929.81
667.885	7148.95
668.077	7052.69
668.268	6895
668.459	6933.91
668.651	6929.81
668.842	6905.24
669.033	6800.79
669.224	6823.32
669.416	6860.18
669.607	6925.72
669.798	6675.87
669.989	6602.14
670.18	6733.21
670.371	6573.47
670.563	6421.92
670.754	6612.38
670.945	6520.22
671.136	6446.49
671.327	6407.58
671.518	6335.9
671.709	6258.08
671.9	6417.82
672.091	6395.29
672.282	6243.74
672.473	6286.75
672.664	6225.31
672.855	6174.11
673.046	6294.94
673.237	6319.52
673.428	6135.2
673.619	6102.43
673.809	6114.72
674	6016.42
674.191	6227.36
674.382	6026.66
674.573	6032.8
674.764	6016.42
674.954	5934.5
675.145	6147.49
675.336	6020.52
675.527	5944.74
675.717	5934.5
675.908	6024.61
676.099	5871.01
676.289	5754.28
676.48	5713.32
676.671	5617.07
676.861	5934.5
677.052	5608.87
677.243	5770.66
677.433	5619.11
677.624	5819.82
677.814	5696.94
678.005	5643.69
678.195	5584.3
678.386	5639.59
678.576	5459.37
678.767	5510.57
678.957	5543.34
679.148	5479.85
679.338	5465.52
679.529	5418.41
679.719	5447.08
679.909	5541.29
680.1	5551.53
680.29	5565.87
680.481	5428.65
680.671	5346.73
680.861	5453.23
681.052	5529
681.242	5340.59
681.432	5535.15
681.622	5262.77
681.813	5307.82
682.003	5410.22
682.193	5238.19
682.383	5430.7
682.573	5420.46
682.764	5279.15
682.954	5264.82
683.144	5225.9
683.334	5369.26
683.524	5230
683.714	5303.73
683.904	5123.51
684.094	5291.44
684.284	5139.89
684.474	5264.82
684.664	5180.85
684.854	5236.14
685.044	5201.33
685.234	5053.87
685.424	5082.55
685.614	5035.44
685.804	5033.4
685.994	5092.79
686.184	4918.71
686.374	5027.25
686.564	4926.9
686.753	5060.02
686.943	4748.73
687.133	4871.61
687.323	4822.45
687.513	5070.26
687.702	4961.72
687.892	4836.79
688.082	4697.53
688.272	4742.58
688.461	4781.5
688.651	4847.03
688.841	4664.76
689.03	4775.35
689.22	4517.31
689.41	4601.27
689.599	4711.86
689.789	4617.66
689.979	4595.13
690.168	4410.81
690.358	4558.27
690.547	4550.07
690.737	4570.55
690.926	4447.68
691.116	4390.33
691.305	4474.3
691.495	4394.43
691.684	4349.37
691.874	4402.62
692.063	4406.72
692.252	4357.57
692.442	4294.08
692.631	4273.6
692.82	4308.41
693.01	4249.02
693.199	4279.74
693.388	4179.39
693.578	4238.78
693.767	4226.5
693.956	4165.06
694.146	3968.45
694.335	4175.3
694.524	4009.41
694.713	4199.87
694.902	4165.06
695.092	4101.57
695.281	4154.82
695.47	4095.43
695.659	4183.49
695.848	3954.12
696.037	4005.31
696.226	3988.93
696.415	3954.12
696.604	3960.26
696.793	3935.68
696.982	4076.99
697.171	4070.85
697.36	3870.15
697.549	3993.03
697.738	3902.92
697.927	3755.46
698.116	3915.2
698.305	3997.12
698.494	3831.24
698.683	3892.68
698.872	3855.81
699.061	3780.04
699.25	3718.6
699.438	3730.89
699.627	3734.98
699.816	3751.37
700.005	3784.13
700.193	3958.21
700.382	3780.04
700.571	3681.74
700.76	3751.37
700.948	3821
701.137	3644.87
701.326	3542.47
701.514	3657.16
701.703	3634.63
701.892	3708.36
702.08	3739.08
702.269	3540.43
702.457	3593.67
702.646	3710.41
702.834	3444.17
703.023	3577.29
703.212	3714.5
703.4	3622.34
703.589	3571.15
703.777	3610.06
703.965	3493.32
704.154	3583.43
704.342	3542.47
704.531	3579.34
704.719	3419.6
704.907	3481.03
705.096	3505.61
705.284	3509.71
705.472	3505.61
705.661	3458.51
705.849	3409.36
706.037	3526.09
706.226	3329.49
706.414	3542.47
706.602	3444.17
706.79	3413.45
706.979	3321.29
707.167	3395.02
707.355	3317.2
707.543	3333.58
707.731	3573.19
707.919	3362.25
708.107	3352.01
708.296	3358.16
708.484	3378.64
708.672	3294.67
708.86	3366.35
709.048	3266
709.236	3225.04
709.424	3415.5
709.612	3278.29
709.8	3317.2
709.988	3266
710.176	3323.34
710.364	3233.23
710.551	3280.33
710.739	3263.95
710.927	3319.25
711.115	3192.27
711.303	3239.37
711.491	3194.32
711.679	3288.53
711.866	3157.46
712.054	3161.55
712.242	3163.6
712.43	3100.11
712.617	3177.94
712.805	3194.32
712.993	3061.2
713.181	3143.12
713.368	3003.86
713.556	3091.92
713.744	3026.39
713.931	3106.26
714.119	3096.02
714.306	3036.63
714.494	3126.74
714.682	2991.57
714.869	3110.35
715.057	3071.44
715.244	2973.14
715.432	3063.25
715.619	3018.19
715.807	3028.43
715.994	2977.23
716.182	3018.19
716.369	2969.04
716.556	3087.82
716.744	3020.24
716.931	2952.66
717.119	2944.47
717.306	2840.02
717.493	3020.24
717.681	2981.33
717.868	2907.6
718.055	2987.47
718.242	2969.04
718.43	2878.93
718.617	3034.58
718.804	2930.13
718.991	2862.55
719.179	2872.79
719.366	2954.71
719.553	2854.36
719.74	2801.11
719.927	2862.55
720.114	2760.15
720.301	2772.44
720.488	2854.36
720.676	2919.89
720.863	2854.36
721.05	2790.87
721.237	2799.06
721.424	2778.58
721.611	2852.31
721.798	2698.71
721.985	2792.92
722.172	2713.05
722.358	2856.4
722.545	2815.45
722.732	2674.14
722.919	2682.33
723.106	2696.66
723.293	2758.1
723.48	2678.23
723.667	2704.85
723.853	2772.44
724.04	2641.37
724.227	2794.97
724.414	2739.67
724.6	2635.22
724.787	2647.51
724.974	2774.49
725.161	2758.1
725.347	2569.69
725.534	2690.52
725.72	2641.37
725.907	2641.37
726.094	2581.98
726.28	2641.37
726.467	2680.28
726.653	2584.02
726.84	2723.29
727.027	2665.94
727.213	2483.67
727.4	2618.84
727.586	2684.38
727.773	2489.82
727.959	2598.36
728.145	2516.44
728.332	2563.54
728.518	2575.83
728.705	2528.73
728.891	2606.55
729.077	2534.87
729.264	2493.91
729.45	2444.76
729.636	2575.83
729.823	2534.87
730.009	2487.77
730.195	2422.24
730.382	2612.7
730.568	2510.3
730.754	2444.76
730.94	2436.57
731.126	2381.28
731.313	2504.15
731.499	2514.39
731.685	2483.67
731.871	2596.31
732.057	2491.87
732.243	2543.07
732.429	2461.15
732.615	2506.2
732.801	2602.46
732.987	2375.13
733.173	2403.8
733.359	2303.45
733.545	2379.23
733.731	2469.34
733.917	2371.04
734.103	2483.67
734.289	2416.09
734.475	2409.95
734.661	2395.61
734.847	2323.93
735.033	2348.51
735.219	2403.8
735.404	2307.55
735.59	2346.46
735.776	2362.84
735.962	2414.04
736.148	2301.4
736.333	2407.9
736.519	2201.05
736.705	2387.42
736.89	2403.8
737.076	2346.46
737.262	2317.79
737.447	2315.74
737.633	2280.93
737.819	2291.17
738.004	2291.17
738.19	2313.69
738.375	2239.97
738.561	2242.01
738.747	2293.21
738.932	2112.99
739.118	2295.26
739.303	2278.88
739.489	2217.44
739.674	2239.97
739.859	2186.72
740.045	2352.6
740.23	2227.68
740.416	2219.49
740.601	2252.25
740.786	2149.86
740.972	2170.33
741.157	2223.58
741.342	2100.7
741.528	2145.76
741.713	2127.33
741.898	2045.41
742.084	2139.62
742.269	2041.31
742.454	2098.66
742.639	2133.47
742.824	2172.38
743.01	2112.99
743.195	2084.32
743.38	1988.07
743.565	1967.59
743.75	2207.2
743.935	2082.27
744.12	2002.4
744.305	2031.07
744.49	2057.7
744.675	1928.67
744.86	1998.31
745.045	2078.18
745.23	1965.54
745.415	1981.92
745.6	1959.39
745.785	1897.96
745.97	1932.77
746.155	1916.39
746.34	1875.43
746.525	1832.42
746.71	1940.96
746.895	1875.43
747.079	1883.62
747.264	1822.18
747.449	1914.34
747.634	1836.52
747.819	1824.23
748.003	1775.08
748.188	1816.04
748.373	1732.07
748.557	1826.28
748.742	1811.94
748.927	1773.03
749.111	1734.12
749.296	1748.45
749.481	1621.48
749.665	1691.11
749.85	1666.53
750.034	1775.08
750.219	1658.34
750.404	1676.77
750.588	1570.28
750.773	1531.37
750.957	1666.53
751.141	1627.62
751.326	1592.81
751.51	1461.74
751.695	1525.22
751.879	1609.19
752.064	1617.38
752.248	1529.32
752.432	1582.57
752.617	1543.66
752.801	1478.12
752.985	1514.98
753.17	1445.35
753.354	1605.1
753.538	1508.84
753.722	1390.06
753.907	1521.13
754.091	1445.35
754.275	1408.49
754.459	1404.39
754.643	1461.74
754.828	1336.81
755.012	1334.76
755.196	1291.76
755.38	1388.01
755.564	1347.05
755.748	1342.96
755.932	1383.91
756.116	1392.11
756.3	1332.72
756.484	1338.86
756.668	1285.61
756.852	1308.14
757.036	1336.81
757.22	1347.05
757.404	1314.28
757.588	1275.37
757.772	1209.84
757.956	1248.75
758.14	1291.76
758.323	1201.65
758.507	1242.61
758.691	1125.87
758.875	1129.97
759.059	1234.41
759.242	1193.45
759.426	1136.11
759.61	1068.53
759.794	1089.01
759.977	1084.91
760.161	1170.93
760.345	1095.15
760.528	1148.4
760.712	1125.87
760.895	1060.34
761.079	1127.92
761.263	1191.41
761.446	1033.71
761.63	1037.81
761.813	1162.73
761.997	1134.06
762.18	1168.88
762.364	1074.67
762.547	1017.33
762.731	1072.62
762.914	992.75
763.098	1037.81
763.281	1035.76
763.464	1097.2
763.648	1043.95
763.831	1031.66
764.015	1011.18
764.198	986.61
764.381	1039.86
764.564	1050.1
764.748	1048.05
764.931	1021.42
765.114	1023.47
765.297	962.03
765.481	972.27
765.664	1031.66
765.847	912.88
766.03	957.94
766.213	876.02
766.397	1007.09
766.58	861.68
766.763	970.23
766.946	947.7
767.129	898.55
767.312	859.63
767.495	884.21
767.678	882.16
767.861	953.84
768.044	933.36
768.227	931.31
768.41	847.35
768.593	929.27
768.776	847.35
768.959	964.08
769.142	929.27
769.324	923.12
769.507	882.16
769.69	880.11
769.873	781.81
770.056	849.4
770.239	816.63
770.421	830.96
770.604	808.44
770.787	863.73
770.97	835.06
771.152	849.4
771.335	888.31
771.518	900.59
771.7	806.39
771.883	925.17
772.066	824.82
772.248	863.73
772.431	824.82
772.613	777.72
772.796	800.24
772.978	828.92
773.161	878.07
773.343	853.49
773.526	837.11
773.708	785.91
773.891	822.77
774.073	822.77
774.256	697.85
774.438	734.71
774.621	749.04
774.803	703.99
774.985	775.67
775.168	734.71
775.35	730.61
775.532	683.51
775.715	759.28
775.897	626.17
776.079	687.61
776.261	728.56
776.444	738.8
776.626	669.17
776.808	593.4
776.99	615.93
777.173	726.52
777.355	593.4
777.537	626.17
777.719	660.98
777.901	642.55
778.083	620.02
778.265	634.36
778.447	667.13
778.629	595.45
778.811	613.88
778.993	603.64
779.175	699.89
779.357	644.6
779.539	601.59
779.721	542.2
779.903	632.31
780.085	642.55
780.267	585.21
780.449	491
780.631	554.49
780.812	568.82
780.994	593.4
781.176	593.4
781.358	640.5
781.54	601.59
781.721	552.44
781.903	460.28
782.085	491
782.267	560.63
782.448	540.15
782.63	511.48
782.812	570.87
782.993	593.4
783.175	503.29
783.357	413.18
783.538	566.78
783.72	495.1
783.901	419.32
784.083	499.19
784.264	570.87
784.446	497.14
784.627	529.91
784.809	503.29
784.99	439.8
785.172	374.27
785.353	540.15
785.535	466.42
785.716	431.61
785.897	427.51
786.079	462.33
786.26	450.04
786.441	419.32
786.623	454.14
786.804	359.93
786.985	421.37
787.167	388.6
787.348	439.8
787.529	437.75
787.71	417.27
787.891	413.18
788.073	407.03
788.254	409.08
788.435	445.95
788.616	376.31
788.797	337.4
788.978	407.03
789.159	349.69
789.34	366.07
789.522	394.75
789.703	318.97
789.884	364.03
790.065	421.37
790.246	396.79
790.427	421.37
790.607	374.27
790.788	400.89
790.969	380.41
791.15	359.93
791.331	333.31
791.512	290.3
791.693	347.64
791.874	368.12
792.054	407.03
792.235	421.37
792.416	351.74
792.597	359.93
792.778	347.64
792.958	325.12
793.139	310.78
793.32	335.35
793.5	331.26
793.681	404.99
793.862	341.5
794.042	374.27
794.223	331.26
794.404	331.26
794.584	327.16
794.765	318.97
794.945	366.07
795.126	261.63
795.306	247.29
795.487	298.49
795.667	292.35
795.848	327.16
796.028	282.11
796.209	286.2
796.389	310.78
796.57	302.59
796.75	335.35
796.93	288.25
797.111	228.86
797.291	357.88
797.471	273.92
797.652	333.31
797.832	259.58
798.012	335.35
798.192	310.78
798.373	290.3
798.553	226.81
798.733	314.88
798.913	249.34
799.093	275.96
799.274	263.68
799.454	237.05
799.634	323.07
799.814	230.91
799.994	216.57
800.174	265.72
800.354	278.01
800.534	290.3
800.714	288.25
800.894	208.38
801.074	261.63
801.254	153.09
801.434	280.06
801.614	226.81
801.794	218.62
801.974	783.86
802.154	249.34
802.334	241.15
802.514	224.76
802.693	271.87
802.873	198.14
803.053	314.88
803.233	273.92
803.413	222.72
803.592	239.1
803.772	253.44
803.952	208.38
804.131	151.04
804.311	185.85
804.491	220.67
804.67	243.2
804.85	194.05
805.03	263.68
805.209	243.2
805.389	220.67
805.568	120.32
805.748	183.81
805.928	261.63
806.107	241.15
806.287	257.53
806.466	245.24
806.646	224.76
806.825	146.94
807.004	165.37
807.184	202.24
807.363	214.52
807.543	237.05
807.722	241.15
807.901	196.09
808.081	226.81
808.26	163.33
808.439	257.53
808.619	282.11
808.798	142.85
808.977	232.96
809.156	183.81
809.336	171.52
809.515	269.82
809.694	185.85
809.873	95.74
810.052	138.75
810.231	243.2
810.411	208.38
810.59	192
810.769	99.84
810.948	163.33
811.127	159.23
811.306	167.42
811.485	140.8
811.664	159.23
811.843	241.15
812.022	167.42
812.201	118.27
812.38	151.04
812.559	153.09
812.737	241.15
812.916	134.65
813.095	183.81
813.274	138.75
813.453	171.52
813.632	163.33
813.811	210.43
813.989	163.33
814.168	173.57
814.347	101.89
814.526	185.85
814.704	179.71
814.883	165.37
815.062	159.23
815.24	249.34
815.419	65.02
815.598	226.81
815.776	42.5
815.955	153.09
816.133	93.69
816.312	196.09
816.49	122.37
816.669	128.51
816.847	73.21
817.026	179.71
817.204	183.81
817.383	134.65
817.561	105.98
817.74	136.7
817.918	247.29
818.097	169.47
818.275	32.26
818.453	159.23
818.632	194.05
818.81	48.64
818.988	128.51
819.167	136.7
819.345	163.33
819.523	142.85
819.701	126.46
819.879	183.81
820.058	218.62
820.236	132.61
820.414	183.81
820.592	71.17
820.77	97.79
820.948	62.98
821.127	118.27
821.305	208.38
821.483	126.46
821.661	142.85
821.839	153.09
822.017	124.41
822.195	60.93
822.373	167.42
822.551	110.08
822.729	169.47
822.907	112.13
823.085	167.42
823.262	93.69
823.44	153.09
823.618	171.52
823.796	81.41
823.974	103.93
824.152	85.5
824.329	112.13
824.507	89.6
824.685	114.17
824.863	81.41
825.04	120.32
825.218	71.17
825.396	99.84
825.574	159.23
825.751	187.9
825.929	110.08
826.107	5.63
826.284	103.93
826.462	128.51
826.639	142.85
826.817	93.69
826.994	122.37
827.172	42.5
827.349	151.04
827.527	122.37
827.704	128.51
827.882	65.02
828.059	52.74
828.237	69.12
828.414	151.04
828.591	73.21
828.769	93.69
828.946	101.89
829.124	126.46
829.301	216.57
829.478	62.98
829.655	163.33
829.833	110.08
830.01	69.12
830.187	173.57
830.364	87.55
830.542	126.46
830.719	103.93
830.896	134.65
831.073	85.5
831.25	120.32
831.427	136.7
831.604	114.17
831.782	91.65
831.959	134.65
832.136	60.93
832.313	136.7
832.49	48.64
832.667	142.85
832.844	28.16
833.021	144.89
833.198	79.36
833.374	126.46
833.551	142.85
833.728	34.3
833.905	110.08
834.082	73.21
834.259	30.21
834.436	52.74
834.612	144.89
834.789	101.89
834.966	95.74
835.143	134.65
835.319	112.13
835.496	71.17
835.673	142.85
835.85	110.08
836.026	69.12
836.203	91.65
836.38	120.32
836.556	79.36
836.733	30.21
836.909	192
837.086	93.69
837.262	44.54
837.439	153.09
837.616	40.45
837.792	52.74
837.968	105.98
838.145	13.82
838.321	122.37
838.498	22.02
838.674	105.98
838.851	75.26
839.027	38.4
839.203	58.88
839.38	93.69
839.556	110.08
839.732	134.65
839.909	81.41
840.085	128.51
840.261	73.21
840.437	44.54
840.614	118.27
840.79	171.52
840.966	69.12
841.142	60.93
841.318	48.64
841.494	110.08
841.671	114.17
841.847	103.93
842.023	73.21
842.199	77.31
842.375	77.31
842.551	52.74
842.727	65.02
842.903	85.5
843.079	69.12
843.255	83.45
843.431	95.74
843.607	87.55
843.783	-6.66
843.959	128.51
844.134	83.45
844.31	142.85
844.486	46.59
844.662	52.74
844.838	44.54
845.013	155.13
845.189	30.21
845.365	52.74
845.541	34.3
845.716	93.69
845.892	130.56
846.068	79.36
846.244	28.16
846.419	75.26
846.595	60.93
846.77	38.4
846.946	32.26
847.122	30.21
847.297	60.93
847.473	103.93
847.648	7.68
847.824	101.89
847.999	71.17
848.175	101.89
848.35	103.93
848.526	105.98
848.701	19.97
848.876	134.65
849.052	85.5
849.227	73.21
849.403	48.64
849.578	-2.56
849.753	73.21
849.929	81.41
850.104	60.93
850.279	11.78
850.454	69.12
850.63	60.93
850.805	22.02
850.98	81.41
851.155	38.4
851.33	85.5
851.505	38.4
851.681	118.27
851.856	7.68
852.031	93.69
852.206	36.35
852.381	85.5
852.556	38.4
852.731	52.74
852.906	54.78
853.081	134.65
853.256	56.83
853.431	28.16
853.606	7.68
853.781	56.83
853.956	22.02
854.131	-66.05
854.305	71.17
854.48	60.93
854.655	54.78
854.83	81.41
855.005	15.87
855.18	-4.61
855.354	17.92
855.529	36.35
855.704	46.59
855.879	46.59
856.053	58.88
856.228	24.06
856.403	71.17
856.577	108.03
856.752	46.59
856.926	52.74
857.101	91.65
857.276	54.78
857.45	71.17
857.625	48.64
857.799	71.17
857.974	114.17
858.148	-4.61
858.323	30.21
858.497	60.93
858.672	36.35
858.846	97.79
859.02	38.4
859.195	3.58
859.369	3.58
859.543	5.63
859.718	77.31
859.892	32.26
860.066	22.02
860.241	95.74
860.415	30.21
860.589	-70.14
860.763	38.4
860.938	22.02
861.112	73.21
861.286	-0.51
861.46	48.64
861.634	67.07
861.808	87.55
861.982	40.45
862.157	44.54
862.331	-6.66
862.505	91.65
862.679	-18.94
862.853	32.26
863.027	56.83
863.201	112.13
863.375	-4.61
863.549	60.93
863.722	108.03
863.896	110.08
864.07	28.16
864.244	3.58
864.418	11.78
864.592	30.21
864.766	-33.28
864.939	95.74
865.113	-4.61
865.287	26.11
865.461	-8.7
865.634	60.93
865.808	52.74
865.982	26.11
866.156	-0.51
866.329	48.64
866.503	101.89
866.676	62.98
866.85	13.82
867.024	24.06
867.197	11.78
867.371	77.31
867.544	71.17
867.718	67.07
867.891	85.5
868.065	-4.61
868.238	79.36
868.412	99.84
868.585	15.87
868.759	93.69
868.932	-0.51
869.105	28.16
869.279	-4.61
869.452	24.06
869.625	52.74
869.799	30.21
869.972	-31.23
870.145	-12.8
870.319	38.4
870.492	-0.51
870.665	36.35
870.838	-0.51
871.011	28.16
871.185	60.93
871.358	32.26
871.531	87.55
871.704	-35.33
871.877	71.17
872.05	11.78
872.223	28.16
872.396	85.5
872.569	138.75
872.742	5.63
872.915	56.83
873.088	60.93
873.261	30.21
873.434	-45.57
873.607	7.68
873.78	54.78
873.953	22.02
874.126	7.68
874.299	44.54
874.471	36.35
874.644	17.92
874.817	-37.38
874.99	69.12
875.163	36.35
875.335	26.11
875.508	71.17
875.681	19.97
875.853	-53.76
876.026	46.59
876.199	75.26
876.371	71.17
876.544	30.21
876.717	-20.99
876.889	-29.18
877.062	-37.38
877.234	38.4
877.407	-27.14
877.579	5.63
877.752	-4.61
877.924	28.16
878.097	83.45
878.269	-20.99
878.442	56.83
878.614	-4.61
878.786	11.78
878.959	91.65
879.131	19.97
879.303	30.21
879.476	89.6
879.648	-18.94
879.82	-53.76
879.993	1.54
880.165	46.59
880.337	-37.38
880.509	65.02
880.681	-27.14
880.854	3.58
881.026	15.87
881.198	46.59
881.37	13.82
881.542	-51.71
881.714	-27.14
881.886	36.35
882.058	-20.99
882.23	52.74
882.402	24.06
882.574	36.35
882.746	-8.7
882.918	40.45
883.09	-4.61
883.262	19.97
883.434	1.54
883.606	9.73
883.778	73.21
883.95	93.69
884.122	-10.75
884.293	-39.42
884.465	9.73
884.637	-12.8
884.809	28.16
884.98	24.06
885.152	11.78
885.324	48.64
885.496	-51.71
885.667	19.97
885.839	62.98
886.011	48.64
886.182	44.54
886.354	97.79
886.525	73.21
886.697	95.74
886.869	15.87
887.04	3.58
887.212	52.74
887.383	62.98
887.555	110.08
887.726	-2.56
887.897	65.02
888.069	24.06
888.24	93.69
888.412	46.59
888.583	46.59
888.754	44.54
888.926	50.69
889.097	50.69
889.268	-37.38
889.44	54.78
889.611	-12.8
889.782	60.93
889.953	77.31
890.125	50.69
890.296	40.45
890.467	52.74
890.638	-18.94
890.809	85.5
890.98	7.68
891.151	44.54
891.323	11.78
891.494	52.74
891.665	71.17
891.836	-23.04
892.007	-31.23
892.178	-64
892.349	-18.94
892.52	7.68
892.691	15.87
892.862	62.98
893.032	5.63
893.203	-45.57
893.374	44.54
893.545	28.16
893.716	9.73
893.887	3.58
894.057	13.82
894.228	56.83
894.399	7.68
894.57	-25.09
894.74	-16.9
894.911	-70.14
895.082	65.02
895.253	-8.7
895.423	30.21
895.594	126.46
895.764	5.63
895.935	7.68
896.106	54.78
896.276	52.74
896.447	32.26
896.617	56.83
896.788	7.68
896.958	-25.09
897.129	22.02
897.299	-2.56
897.47	24.06
897.64	38.4
897.81	11.78
897.981	22.02
898.151	-8.7
898.322	52.74
898.492	60.93
898.662	-41.47
898.832	28.16
899.003	-12.8
899.173	28.16
899.343	-33.28
899.513	-20.99
