Data from USB4F104151__61__14-17-11-058.txt Node

Date: Thu Mar 13 14:17:11 EDT 2025
User: louis
Spectrometer: USB4F10415
Trigger mode: 4
Integration Time (sec): 2.000000E-2
Scans to average: 1
Electric dark correction enabled: true
Nonlinearity correction enabled: false
Boxcar width: 0
XAxis mode: Wavelengths
Number of Pixels in Spectrum: 3648
>>>>>Begin Spectral Data<<<<<
178.204	-139.77
178.424	-139.77
178.644	-139.77
178.864	-104.96
179.084	-80.38
179.304	48.64
179.524	-53.76
179.744	-39.42
179.964	42.5
180.184	38.4
180.404	44.54
180.624	-33.28
180.844	-31.23
181.064	-27.14
181.283	-33.28
181.503	48.64
181.723	-4.61
181.943	-90.62
182.163	5.63
182.383	-43.52
182.602	52.74
182.822	-47.62
183.042	69.12
183.262	38.4
183.482	73.21
183.701	-31.23
183.921	24.06
184.141	112.13
184.361	46.59
184.58	26.11
184.8	24.06
185.02	87.55
185.239	36.35
185.459	9.73
185.679	79.36
185.898	30.21
186.118	34.3
186.338	3.58
186.557	101.89
186.777	15.87
186.997	17.92
187.216	48.64
187.436	81.41
187.655	-16.9
187.875	40.45
188.095	-0.51
188.314	99.84
188.534	36.35
188.753	-4.61
188.973	122.37
189.192	93.69
189.412	28.16
189.631	52.74
189.851	7.68
190.07	122.37
190.29	69.12
190.509	73.21
190.729	54.78
190.948	15.87
191.168	95.74
191.387	75.26
191.607	9.73
191.826	105.98
192.045	7.68
192.265	5.63
192.484	19.97
192.704	24.06
192.923	36.35
193.142	189.95
193.362	-16.9
193.581	87.55
193.8	-4.61
194.02	34.3
194.239	34.3
194.458	40.45
194.678	32.26
194.897	42.5
195.116	40.45
195.335	105.98
195.555	42.5
195.774	24.06
195.993	24.06
196.212	-4.61
196.432	9.73
196.651	-10.75
196.87	67.07
197.089	60.93
197.308	30.21
197.528	36.35
197.747	-12.8
197.966	-27.14
198.185	19.97
198.404	50.69
198.623	79.36
198.842	7.68
199.062	124.41
199.281	69.12
199.5	-10.75
199.719	124.41
199.938	32.26
200.157	73.21
200.376	15.87
200.595	62.98
200.814	81.41
201.033	54.78
201.252	85.5
201.471	1.54
201.69	81.41
201.909	71.17
202.128	77.31
202.347	48.64
202.566	22.02
202.785	50.69
203.004	-23.04
203.223	60.93
203.442	15.87
203.661	67.07
203.879	81.41
204.098	69.12
204.317	-45.57
204.536	105.98
204.755	-4.61
204.974	-55.81
205.193	-20.99
205.411	112.13
205.63	65.02
205.849	-4.61
206.068	46.59
206.287	40.45
206.505	28.16
206.724	36.35
206.943	32.26
207.162	42.5
207.381	38.4
207.599	46.59
207.818	11.78
208.037	58.88
208.255	19.97
208.474	11.78
208.693	52.74
208.911	34.3
209.13	-10.75
209.349	-31.23
209.567	91.65
209.786	146.94
210.005	124.41
210.223	81.41
210.442	34.3
210.661	108.03
210.879	17.92
211.098	32.26
211.316	26.11
211.535	69.12
211.753	26.11
211.972	54.78
212.191	32.26
212.409	130.56
212.628	32.26
212.846	7.68
213.065	110.08
213.283	58.88
213.502	54.78
213.72	48.64
213.938	32.26
214.157	73.21
214.375	50.69
214.594	-16.9
214.812	77.31
215.031	60.93
215.249	28.16
215.467	52.74
215.686	38.4
215.904	81.41
216.122	9.73
216.341	34.3
216.559	52.74
216.778	48.64
216.996	97.79
217.214	48.64
217.432	-16.9
217.651	65.02
217.869	56.83
218.087	52.74
218.306	38.4
218.524	138.75
218.742	110.08
218.96	24.06
219.179	56.83
219.397	28.16
219.615	67.07
219.833	36.35
220.051	24.06
220.27	83.45
220.488	24.06
220.706	15.87
220.924	11.78
221.142	28.16
221.36	11.78
221.578	54.78
221.796	97.79
222.015	83.45
222.233	58.88
222.451	28.16
222.669	15.87
222.887	97.79
223.105	9.73
223.323	42.5
223.541	40.45
223.759	9.73
223.977	-23.04
224.195	60.93
224.413	40.45
224.631	122.37
224.849	15.87
225.067	19.97
225.285	48.64
225.503	67.07
225.721	32.26
225.939	-2.56
226.157	-8.7
226.375	83.45
226.592	17.92
226.81	62.98
227.028	46.59
227.246	77.31
227.464	-18.94
227.682	60.93
227.9	38.4
228.117	36.35
228.335	58.88
228.553	-8.7
228.771	56.83
228.989	52.74
229.206	65.02
229.424	42.5
229.642	-0.51
229.86	-2.56
230.077	83.45
230.295	58.88
230.513	89.6
230.731	73.21
230.948	15.87
231.166	81.41
231.384	-0.51
231.601	-0.51
231.819	67.07
232.037	60.93
232.254	7.68
232.472	42.5
232.689	48.64
232.907	34.3
233.125	54.78
233.342	-10.75
233.56	65.02
233.777	30.21
233.995	85.5
234.213	116.22
234.43	36.35
234.648	-27.14
234.865	65.02
235.083	101.89
235.3	32.26
235.518	101.89
235.735	112.13
235.953	118.27
236.17	116.22
236.388	15.87
236.605	22.02
236.822	110.08
237.04	60.93
237.257	-23.04
237.475	1.54
237.692	15.87
237.909	73.21
238.127	67.07
238.344	-0.51
238.562	40.45
238.779	30.21
238.996	60.93
239.214	9.73
239.431	79.36
239.648	26.11
239.865	40.45
240.083	60.93
240.3	-4.61
240.517	-33.28
240.735	67.07
240.952	26.11
241.169	112.13
241.386	91.65
241.603	7.68
241.821	-4.61
242.038	52.74
242.255	56.83
242.472	5.63
242.689	67.07
242.907	38.4
243.124	99.84
243.341	52.74
243.558	26.11
243.775	83.45
243.992	-45.57
244.209	60.93
244.426	56.83
244.643	44.54
244.86	73.21
245.078	-14.85
245.295	46.59
245.512	73.21
245.729	34.3
245.946	19.97
246.163	-20.99
246.38	-37.38
246.597	7.68
246.814	40.45
247.031	71.17
247.248	77.31
247.464	11.78
247.681	34.3
247.898	60.93
248.115	7.68
248.332	77.31
248.549	7.68
248.766	122.37
248.983	69.12
249.2	85.5
249.417	67.07
249.633	32.26
249.85	54.78
250.067	28.16
250.284	56.83
250.501	26.11
250.717	62.98
250.934	-0.51
251.151	75.26
251.368	34.3
251.585	26.11
251.801	7.68
252.018	24.06
252.235	40.45
252.451	-29.18
252.668	-16.9
252.885	54.78
253.102	26.11
253.318	32.26
253.535	-31.23
253.752	73.21
253.968	65.02
254.185	34.3
254.401	101.89
254.618	65.02
254.835	-4.61
255.051	48.64
255.268	85.5
255.484	-10.75
255.701	91.65
255.917	30.21
256.134	28.16
256.351	67.07
256.567	-55.81
256.784	-10.75
257	-20.99
257.217	79.36
257.433	97.79
257.65	46.59
257.866	60.93
258.082	32.26
258.299	-14.85
258.515	56.83
258.732	15.87
258.948	-6.66
259.165	67.07
259.381	15.87
259.597	36.35
259.814	73.21
260.03	34.3
260.246	65.02
260.463	36.35
260.679	97.79
260.895	9.73
261.112	42.5
261.328	40.45
261.544	15.87
261.761	58.88
261.977	32.26
262.193	120.32
262.409	44.54
262.626	32.26
262.842	40.45
263.058	44.54
263.274	56.83
263.49	40.45
263.707	81.41
263.923	81.41
264.139	3.58
264.355	26.11
264.571	93.69
264.787	69.12
265.004	65.02
265.22	58.88
265.436	73.21
265.652	26.11
265.868	110.08
266.084	17.92
266.3	73.21
266.516	40.45
266.732	58.88
266.948	24.06
267.164	-20.99
267.38	81.41
267.596	32.26
267.812	71.17
268.028	52.74
268.244	-4.61
268.46	42.5
268.676	85.5
268.892	73.21
269.108	40.45
269.324	7.68
269.54	30.21
269.756	69.12
269.972	34.3
270.188	42.5
270.403	-6.66
270.619	42.5
270.835	95.74
271.051	24.06
271.267	36.35
271.483	85.5
271.698	67.07
271.914	89.6
272.13	-0.51
272.346	54.78
272.562	40.45
272.777	126.46
272.993	26.11
273.209	50.69
273.425	101.89
273.64	3.58
273.856	65.02
274.072	34.3
274.287	34.3
274.503	69.12
274.719	28.16
274.934	40.45
275.15	75.26
275.366	81.41
275.581	24.06
275.797	9.73
276.012	60.93
276.228	-12.8
276.444	52.74
276.659	101.89
276.875	60.93
277.09	26.11
277.306	48.64
277.521	56.83
277.737	-16.9
277.952	36.35
278.168	42.5
278.383	91.65
278.599	-0.51
278.814	19.97
279.03	54.78
279.245	83.45
279.461	34.3
279.676	97.79
279.892	52.74
280.107	15.87
280.322	7.68
280.538	83.45
280.753	28.16
280.969	42.5
281.184	36.35
281.399	69.12
281.615	15.87
281.83	65.02
282.045	19.97
282.26	24.06
282.476	15.87
282.691	7.68
282.906	58.88
283.122	36.35
283.337	32.26
283.552	118.27
283.767	-25.09
283.983	83.45
284.198	7.68
284.413	60.93
284.628	-14.85
284.843	26.11
285.058	24.06
285.274	17.92
285.489	28.16
285.704	58.88
285.919	48.64
286.134	1.54
286.349	15.87
286.564	24.06
286.779	69.12
286.995	56.83
287.21	40.45
287.425	7.68
287.64	48.64
287.855	65.02
288.07	15.87
288.285	105.98
288.5	91.65
288.715	-33.28
288.93	40.45
289.145	-45.57
289.36	34.3
289.575	24.06
289.79	26.11
290.004	50.69
290.219	81.41
290.434	-14.85
290.649	-12.8
290.864	34.3
291.079	11.78
291.294	69.12
291.509	81.41
291.724	83.45
291.938	30.21
292.153	26.11
292.368	54.78
292.583	26.11
292.798	15.87
293.012	-20.99
293.227	67.07
293.442	-29.18
293.657	95.74
293.871	65.02
294.086	73.21
294.301	73.21
294.516	56.83
294.73	62.98
294.945	-14.85
295.16	38.4
295.374	65.02
295.589	-2.56
295.804	81.41
296.018	73.21
296.233	157.18
296.447	46.59
296.662	56.83
296.877	11.78
297.091	-10.75
297.306	1.54
297.52	24.06
297.735	24.06
297.949	1.54
298.164	40.45
298.378	71.17
298.593	60.93
298.807	1.54
299.022	105.98
299.236	15.87
299.451	56.83
299.665	108.03
299.88	83.45
300.094	62.98
300.309	-49.66
300.523	69.12
300.737	40.45
300.952	83.45
301.166	-25.09
301.381	24.06
301.595	81.41
301.809	62.98
302.024	105.98
302.238	50.69
302.452	110.08
302.667	7.68
302.881	105.98
303.095	75.26
303.309	-0.51
303.524	-45.57
303.738	56.83
303.952	32.26
304.166	40.45
304.381	-8.7
304.595	103.93
304.809	77.31
305.023	15.87
305.237	17.92
305.452	48.64
305.666	60.93
305.88	15.87
306.094	138.75
306.308	73.21
306.522	93.69
306.736	124.41
306.95	46.59
307.164	69.12
307.379	48.64
307.593	140.8
307.807	65.02
308.021	36.35
308.235	52.74
308.449	105.98
308.663	40.45
308.877	15.87
309.091	7.68
309.305	65.02
309.519	-14.85
309.733	146.94
309.947	52.74
310.161	11.78
310.374	48.64
310.588	83.45
310.802	1.54
311.016	15.87
311.23	48.64
311.444	-8.7
311.658	17.92
311.872	44.54
312.085	124.41
312.299	-41.47
312.513	26.11
312.727	58.88
312.941	48.64
313.154	83.45
313.368	52.74
313.582	134.65
313.796	44.54
314.009	40.45
314.223	40.45
314.437	44.54
314.651	22.02
314.864	118.27
315.078	73.21
315.292	40.45
315.505	-4.61
315.719	48.64
315.933	91.65
316.146	65.02
316.36	17.92
316.573	81.41
316.787	132.61
317.001	7.68
317.214	15.87
317.428	32.26
317.641	44.54
317.855	116.22
318.068	83.45
318.282	75.26
318.495	30.21
318.709	56.83
318.922	30.21
319.136	101.89
319.349	112.13
319.563	101.89
319.776	7.68
319.99	22.02
320.203	87.55
320.417	97.79
320.63	79.36
320.843	138.75
321.057	97.79
321.27	42.5
321.483	-0.51
321.697	105.98
321.91	99.84
322.124	-6.66
322.337	17.92
322.55	36.35
322.763	3.58
322.977	48.64
323.19	-25.09
323.403	40.45
323.617	65.02
323.83	85.5
324.043	34.3
324.256	36.35
324.469	13.82
324.683	36.35
324.896	48.64
325.109	93.69
325.322	7.68
325.535	24.06
325.748	65.02
325.962	-20.99
326.175	118.27
326.388	85.5
326.601	52.74
326.814	77.31
327.027	-33.28
327.24	36.35
327.453	-49.66
327.666	38.4
327.879	17.92
328.092	11.78
328.305	58.88
328.518	15.87
328.731	-8.7
328.944	11.78
329.157	-10.75
329.37	-57.86
329.583	120.32
329.796	52.74
330.009	34.3
330.222	81.41
330.435	28.16
330.648	40.45
330.861	13.82
331.073	97.79
331.286	75.26
331.499	54.78
331.712	30.21
331.925	67.07
332.138	85.5
332.35	110.08
332.563	11.78
332.776	93.69
332.989	-39.42
333.202	-0.51
333.414	-25.09
333.627	26.11
333.84	42.5
334.053	9.73
334.265	28.16
334.478	75.26
334.691	11.78
334.903	-12.8
335.116	32.26
335.329	48.64
335.541	114.17
335.754	73.21
335.966	67.07
336.179	67.07
336.392	17.92
336.604	-16.9
336.817	134.65
337.029	38.4
337.242	60.93
337.454	48.64
337.667	81.41
337.88	130.56
338.092	58.88
338.305	146.94
338.517	26.11
338.729	11.78
338.942	138.75
339.154	26.11
339.367	40.45
339.579	71.17
339.792	22.02
340.004	122.37
340.217	56.83
340.429	54.78
340.641	87.55
340.854	52.74
341.066	46.59
341.278	116.22
341.491	118.27
341.703	97.79
341.915	26.11
342.128	81.41
342.34	58.88
342.552	56.83
342.764	48.64
342.977	60.93
343.189	52.74
343.401	108.03
343.613	87.55
343.826	7.68
344.038	38.4
344.25	62.98
344.462	77.31
344.674	99.84
344.886	77.31
345.099	103.93
345.311	58.88
345.523	83.45
345.735	-2.56
345.947	103.93
346.159	58.88
346.371	65.02
346.583	-0.51
346.795	95.74
347.007	5.63
347.219	15.87
347.431	65.02
347.643	38.4
347.855	28.16
348.067	187.9
348.279	54.78
348.491	56.83
348.703	42.5
348.915	118.27
349.127	-14.85
349.339	97.79
349.551	77.31
349.763	83.45
349.975	28.16
350.187	73.21
350.399	99.84
350.61	52.74
350.822	28.16
351.034	85.5
351.246	120.32
351.458	65.02
351.669	-10.75
351.881	75.26
352.093	97.79
352.305	42.5
352.517	52.74
352.728	81.41
352.94	75.26
353.152	56.83
353.363	22.02
353.575	32.26
353.787	11.78
353.999	110.08
354.21	79.36
354.422	56.83
354.633	58.88
354.845	24.06
355.057	81.41
355.268	42.5
355.48	97.79
355.692	93.69
355.903	105.98
356.115	42.5
356.326	7.68
356.538	75.26
356.749	67.07
356.961	144.89
357.172	52.74
357.384	60.93
357.595	3.58
357.807	81.41
358.018	-20.99
358.23	75.26
358.441	159.23
358.653	95.74
358.864	40.45
359.075	79.36
359.287	99.84
359.498	116.22
359.709	97.79
359.921	58.88
360.132	28.16
360.344	46.59
360.555	56.83
360.766	77.31
360.977	-59.9
361.189	140.8
361.4	15.87
361.611	-51.71
361.823	32.26
362.034	138.75
362.245	24.06
362.456	34.3
362.667	163.33
362.879	38.4
363.09	52.74
363.301	128.51
363.512	-16.9
363.723	34.3
363.935	73.21
364.146	38.4
364.357	3.58
364.568	75.26
364.779	44.54
364.99	91.65
365.201	52.74
365.412	75.26
365.623	34.3
365.834	60.93
366.045	83.45
366.256	79.36
366.467	15.87
366.678	97.79
366.889	56.83
367.1	32.26
367.311	40.45
367.522	87.55
367.733	97.79
367.944	124.41
368.155	97.79
368.366	71.17
368.577	101.89
368.788	52.74
368.999	54.78
369.209	42.5
369.42	83.45
369.631	169.47
369.842	75.26
370.053	-0.51
370.264	99.84
370.474	62.98
370.685	56.83
370.896	89.6
371.107	32.26
371.317	97.79
371.528	46.59
371.739	120.32
371.95	75.26
372.16	116.22
372.371	-8.7
372.582	75.26
372.792	65.02
373.003	101.89
373.214	67.07
373.424	7.68
373.635	26.11
373.846	9.73
374.056	77.31
374.267	42.5
374.477	36.35
374.688	26.11
374.898	50.69
375.109	67.07
375.319	69.12
375.53	75.26
375.74	97.79
375.951	58.88
376.161	73.21
376.372	75.26
376.582	9.73
376.793	116.22
377.003	65.02
377.214	7.68
377.424	1.54
377.635	48.64
377.845	71.17
378.055	187.9
378.266	11.78
378.476	81.41
378.686	9.73
378.897	36.35
379.107	81.41
379.317	56.83
379.528	95.74
379.738	44.54
379.948	19.97
380.158	65.02
380.369	108.03
380.579	120.32
380.789	67.07
380.999	69.12
381.21	52.74
381.42	97.79
381.63	99.84
381.84	56.83
382.05	83.45
382.261	151.04
382.471	110.08
382.681	75.26
382.891	171.52
383.101	89.6
383.311	32.26
383.521	89.6
383.731	81.41
383.941	52.74
384.151	48.64
384.361	99.84
384.571	73.21
384.781	24.06
384.991	11.78
385.201	144.89
385.411	128.51
385.621	75.26
385.831	40.45
386.041	85.5
386.251	65.02
386.461	40.45
386.671	65.02
386.881	34.3
387.091	-61.95
387.301	101.89
387.511	138.75
387.72	116.22
387.93	116.22
388.14	65.02
388.35	30.21
388.56	52.74
388.769	151.04
388.979	73.21
389.189	65.02
389.399	99.84
389.609	17.92
389.818	114.17
390.028	85.5
390.238	73.21
390.447	48.64
390.657	56.83
390.867	99.84
391.076	83.45
391.286	50.69
391.496	105.98
391.705	124.41
391.915	56.83
392.125	112.13
392.334	89.6
392.544	56.83
392.753	116.22
392.963	24.06
393.172	112.13
393.382	60.93
393.591	108.03
393.801	48.64
394.01	138.75
394.22	42.5
394.429	56.83
394.639	73.21
394.848	67.07
395.058	79.36
395.267	134.65
395.477	122.37
395.686	122.37
395.895	132.61
396.105	198.14
396.314	48.64
396.524	34.3
396.733	85.5
396.942	157.18
397.152	114.17
397.361	155.13
397.57	50.69
397.78	56.83
397.989	81.41
398.198	134.65
398.407	181.76
398.617	151.04
398.826	93.69
399.035	85.5
399.244	118.27
399.453	99.84
399.663	77.31
399.872	148.99
400.081	161.28
400.29	118.27
400.499	157.18
400.708	48.64
400.917	120.32
401.127	134.65
401.336	108.03
401.545	192
401.754	146.94
401.963	181.76
402.172	163.33
402.381	89.6
402.59	118.27
402.799	97.79
403.008	140.8
403.217	120.32
403.426	122.37
403.635	73.21
403.844	216.57
404.053	122.37
404.262	126.46
404.471	183.81
404.68	132.61
404.888	148.99
405.097	116.22
405.306	155.13
405.515	163.33
405.724	196.09
405.933	167.42
406.142	181.76
406.35	148.99
406.559	261.63
406.768	134.65
406.977	200.19
407.185	237.05
407.394	224.76
407.603	230.91
407.812	247.29
408.02	267.77
408.229	296.44
408.438	296.44
408.646	200.19
408.855	179.71
409.064	253.44
409.272	247.29
409.481	310.78
409.69	310.78
409.898	263.68
410.107	286.2
410.315	355.83
410.524	237.05
410.733	290.3
410.941	343.55
411.15	415.23
411.358	398.84
411.567	378.36
411.775	394.75
411.984	493.05
412.192	433.66
412.401	323.07
412.609	476.66
412.818	542.2
413.026	542.2
413.234	531.96
413.443	470.52
413.651	564.73
413.86	511.48
414.068	630.26
414.276	679.41
414.485	607.73
414.693	636.41
414.901	740.85
415.11	736.76
415.318	679.41
415.526	714.23
415.734	761.33
415.943	851.44
416.151	806.39
416.359	878.07
416.567	847.35
416.776	966.13
416.984	947.7
417.192	1013.23
417.4	1031.66
417.608	984.56
417.817	1007.09
418.025	972.27
418.233	1152.49
418.441	1136.11
418.649	1232.37
418.857	1185.26
419.065	1205.74
419.273	1279.47
419.481	1310.19
419.689	1463.79
419.897	1390.06
420.105	1525.22
420.313	1613.29
420.521	1646.05
420.729	1689.06
420.937	1648.1
421.145	1736.17
421.353	1842.66
421.561	1850.85
421.769	1902.05
421.977	2010.59
422.185	2063.84
422.393	2129.38
422.601	2219.49
422.809	2254.3
423.017	2244.06
423.224	2311.64
423.432	2397.66
423.64	2387.42
423.848	2649.56
424.056	2598.36
424.263	2770.39
424.471	2739.67
424.679	2923.99
424.887	2889.17
425.094	3112.4
425.302	3202.51
425.51	3204.56
425.718	3415.5
425.925	3417.55
426.133	3466.7
426.341	3653.06
426.548	3825.09
426.756	3876.29
426.964	3890.63
427.171	4158.91
427.379	4193.73
427.586	4324.8
427.794	4345.28
428.001	4701.62
428.209	4791.73
428.417	4754.87
428.624	5084.59
428.832	5010.87
429.039	5189.04
429.247	5014.96
429.454	5541.29
429.662	5864.87
429.869	5383.6
430.076	5883.3
430.284	5766.57
430.491	6061.48
430.699	6442.4
430.906	6368.67
431.114	6475.17
431.321	6651.29
431.528	6919.57
431.736	7234.96
431.943	7499.15
432.15	7327.12
432.358	7355.79
432.565	7906.7
432.772	7781.77
432.979	8240.51
433.187	8273.28
433.394	8430.98
433.601	8879.48
433.808	9035.13
434.016	9026.93
434.223	9207.16
434.43	9667.95
434.637	9612.65
434.844	10245.48
435.052	10485.09
435.259	10515.81
435.466	10362.21
435.673	10485.09
435.88	11103.57
436.087	11572.56
436.294	11650.38
436.501	11418.96
436.708	11386.19
436.915	11779.4
437.122	12467.52
437.329	12311.88
437.537	12821.82
437.743	13145.4
437.95	12913.98
438.157	13690.16
438.364	13933.87
438.571	14079.27
438.778	13985.07
438.985	15351.06
439.192	14689.57
439.399	15465.75
439.606	14910.75
439.813	15818
440.02	17011.96
440.227	16477.44
440.433	16405.77
440.64	16811.26
440.847	16645.38
441.054	17089.79
441.261	18001.13
441.467	17730.8
441.674	18244.84
441.881	19045.6
442.088	18830.56
442.294	18754.79
442.501	19449.05
442.708	19604.69
442.914	20219.08
443.121	21165.25
443.328	20677.83
443.534	22260.91
443.741	21208.25
443.948	21261.5
444.154	22863.01
444.361	22590.63
444.568	22953.12
444.774	22754.47
444.981	23147.68
445.187	23403.67
445.394	24659.08
445.6	24622.22
445.807	26666.09
446.013	25724.02
446.22	26063.99
446.426	27096.16
446.633	27464.8
446.839	28150.87
447.046	26819.69
447.252	28511.31
447.459	28218.45
447.665	28408.91
447.871	29817.91
448.078	30684.2
448.284	29316.16
448.491	30037.05
448.697	31593.5
448.903	31683.61
449.11	32398.35
449.316	31900.7
449.522	32236.56
449.728	32848.91
449.935	33217.54
450.141	33307.65
450.347	34221.05
450.553	32855.05
450.76	33762.3
450.966	34606.06
451.172	34067.45
451.378	34927.6
451.584	34266.1
451.791	34802.67
451.997	34999.27
452.203	35726.3
452.409	35498.98
452.615	35679.2
452.821	33958.91
453.027	33924.09
453.233	35523.55
453.44	33989.63
453.646	34612.21
453.852	34679.79
454.058	34905.07
454.264	34083.83
454.47	35632.1
454.676	34116.6
454.882	35347.43
455.088	32093.21
455.294	32437.27
455.5	33399.81
455.705	33907.71
455.911	32336.91
456.117	32031.77
456.323	30997.54
456.529	29301.82
456.735	30942.25
456.941	29967.41
457.147	29848.63
457.352	29201.47
457.558	28636.24
457.764	28542.03
457.97	28130.39
458.176	27442.27
458.381	27495.52
458.587	26145.91
458.793	25836.66
458.999	24919.17
459.204	26731.62
459.41	26115.19
459.616	24142.99
459.821	24253.58
460.027	23991.44
460.233	23424.15
460.438	22340.78
460.644	22781.09
460.85	21726.39
461.055	21054.65
461.261	21550.26
461.466	19688.66
461.672	19145.95
461.878	20417.74
462.083	18988.25
462.289	18744.55
462.494	18605.28
462.7	17900.78
462.905	17366.26
463.111	17534.2
463.316	17982.7
463.522	17655.03
463.727	17706.23
463.932	17661.17
464.138	17272.06
464.343	17702.13
464.549	16887.04
464.754	17560.82
464.959	17560.82
465.165	17116.41
465.37	16252.17
465.575	15979.79
465.781	16651.52
465.986	16829.7
466.191	16282.89
466.397	16104.71
466.602	15052.06
466.807	15486.23
467.012	15752.46
467.218	15680.78
467.423	15203.61
467.628	15602.96
467.833	15967.5
468.038	15461.65
468.244	14990.62
468.449	15760.66
468.654	15037.72
468.859	14898.46
469.064	14869.79
469.269	14296.36
469.474	14441.76
469.679	14771.49
469.885	14189.86
470.09	14429.48
470.295	14621.98
470.5	14026.03
470.705	14312.74
470.91	13690.16
471.115	13800.75
471.32	14097.7
471.525	13987.11
471.73	13546.8
471.935	13583.66
472.139	13073.72
472.344	13348.15
472.549	12961.08
472.754	12885.31
472.959	12860.73
473.164	12457.28
473.369	12401.99
473.574	12612.93
473.778	12631.36
473.983	12363.08
474.188	12500.29
474.393	12062.02
474.598	12098.89
474.802	11746.64
475.007	11756.88
475.212	11605.33
475.417	11185.49
475.621	11277.65
475.826	11439.44
476.031	11210.07
476.235	11068.76
476.44	11326.8
476.645	11025.75
476.849	10958.17
477.054	10775.9
477.259	10313.06
477.463	10693.98
477.668	10329.44
477.872	10745.18
478.077	10491.23
478.282	10108.26
478.486	10007.91
478.691	10020.2
478.895	9706.86
479.1	10044.77
479.304	9952.62
479.509	9426.29
479.713	9842.03
479.918	9608.56
480.122	9338.23
480.326	9512.3
480.531	9332.08
480.735	9569.65
480.94	9424.24
481.144	9665.9
481.348	9018.74
481.553	9319.79
481.757	9012.6
481.961	9190.77
482.166	9201.01
482.37	9059.7
482.574	9133.43
482.778	9196.92
482.983	9260.4
483.187	9162.1
483.391	9274.74
483.595	9082.23
483.8	8998.26
484.004	8998.26
484.208	9262.45
484.412	9026.93
484.616	9201.01
484.821	9241.97
485.025	9010.55
485.229	9172.34
485.433	8945.02
485.637	9090.42
485.841	8949.11
486.045	9158
486.249	8910.2
486.453	9260.4
486.657	9213.3
486.861	9127.28
487.065	8936.82
487.269	8985.97
487.473	9104.76
487.677	9190.77
487.881	9266.55
488.085	9190.77
488.289	9325.94
488.493	9278.83
488.697	9409.9
488.901	9323.89
489.105	8977.78
489.309	9141.62
489.512	9241.97
489.716	9338.23
489.92	9463.15
490.124	9276.79
490.328	9715.05
490.531	9389.42
490.735	9342.32
490.939	9426.29
491.143	9215.35
491.346	9469.3
491.55	9567.6
491.754	9457.01
491.958	9659.76
492.161	9577.84
492.365	9694.57
492.569	9528.69
492.772	9768.3
492.976	9698.67
493.18	9739.63
493.383	9979.24
493.587	10073.45
493.79	9905.51
493.994	9913.7
494.197	9753.96
494.401	9989.48
494.605	10106.21
494.808	10304.87
495.012	10181.99
495.215	10274.15
495.419	10624.35
495.622	10339.68
495.825	10591.58
496.029	10526.05
496.232	10868.06
496.436	10927.45
496.639	10943.83
496.843	11128.15
497.046	11326.8
497.249	11365.71
497.453	11287.89
497.656	11537.74
497.859	11754.83
498.063	11650.38
498.266	12115.27
498.469	11951.43
498.673	11883.85
498.876	12158.28
499.079	12275.01
499.282	12047.69
499.485	12543.3
499.689	12721.47
499.892	12778.81
500.095	12848.44
500.298	12989.75
500.501	12967.23
500.705	13423.92
500.908	13569.33
501.111	13755.69
501.314	13684.02
501.517	13837.61
501.72	13731.12
501.923	14015.79
502.126	14427.43
502.329	14548.26
502.532	14734.62
502.735	14683.42
502.938	15025.43
503.141	15248.66
503.344	15355.16
503.547	15445.27
503.75	15621.39
503.953	15846.67
504.156	16039.18
504.359	15977.74
504.562	16262.41
504.765	16610.56
504.968	16436.49
505.17	16776.45
505.373	16884.99
505.576	17296.63
505.779	17327.35
505.982	17257.72
506.185	17935.6
506.387	17931.5
506.59	18058.48
506.793	18521.32
506.996	18226.41
507.198	18754.79
507.401	18519.27
507.604	19107.04
507.807	19262.68
508.009	19403.99
508.212	19317.98
508.415	19721.43
508.617	19993.81
508.82	20124.88
509.022	20006.09
509.225	20559.05
509.428	20550.85
509.63	20735.17
509.833	20880.58
510.035	21474.49
510.238	21572.79
510.44	21650.61
510.643	21990.58
510.845	21851.31
511.048	22072.5
511.25	22258.86
511.453	22510.76
511.655	23641.24
511.858	23274.65
512.06	23364.76
512.262	23614.62
512.465	23420.06
512.667	23891.09
512.87	24329.36
513.072	24267.92
513.274	24870.02
513.477	24966.28
513.679	24919.17
513.881	25508.99
514.084	25465.98
514.286	25156.74
514.488	25777.27
514.69	26414.19
514.893	26420.33
515.095	26768.49
515.297	27010.15
515.499	26991.72
515.701	27386.97
515.904	27647.07
516.106	28011.6
516.308	28255.31
516.51	28712.01
516.712	28185.68
516.914	28404.81
517.116	29320.26
517.318	29125.7
517.52	29621.31
517.722	29480
517.925	30198.84
518.127	30065.72
518.329	30452.78
518.531	30420.02
518.733	31388.71
518.935	31396.9
519.136	31390.75
519.338	31671.32
519.54	31638.56
519.742	32117.78
519.944	32220.18
520.146	32609.29
520.348	32504.85
520.55	32887.82
520.752	33332.23
520.954	33821.69
521.155	33381.38
521.357	34026.49
521.559	34118.65
521.761	34821.1
521.963	34405.36
522.164	34894.83
522.366	35285.99
522.568	35498.98
522.77	35908.57
522.971	35955.68
523.173	35591.14
523.375	36627.41
523.576	35849.18
523.778	36484.05
523.98	37077.96
524.181	36842.45
524.383	37278.66
524.584	37850.05
524.786	37608.39
524.988	37512.13
525.189	37934.01
525.391	37858.24
525.592	38310.84
525.794	38128.57
525.995	38726.58
526.197	38728.63
526.398	38992.81
526.6	39381.93
526.801	39109.55
527.003	39109.55
527.204	39115.69
527.406	39469.99
527.607	39508.9
527.808	40209.31
528.01	39488.42
528.211	39859.1
528.412	40623
528.614	40297.37
528.815	40442.77
529.016	40510.36
529.218	40653.72
529.419	40809.36
529.62	40745.87
529.822	40958.86
530.023	40840.08
530.224	40739.73
530.425	40905.62
530.626	41046.93
530.828	40704.91
531.029	41669.51
531.23	41155.47
531.431	40749.97
531.632	41640.84
531.833	41540.49
532.035	41352.07
532.236	41397.13
532.437	41679.75
532.638	41378.7
532.839	41675.65
533.04	41696.13
533.241	41341.83
533.442	41943.94
533.643	41972.61
533.844	41683.84
534.045	41835.39
534.246	41554.82
534.447	42040.19
534.648	41956.22
534.849	41720.71
535.05	41333.64
535.251	41773.95
535.451	41397.13
535.652	41982.85
535.853	41612.17
536.054	42163.07
536.255	42259.32
536.456	41853.83
536.657	42378.11
536.857	41921.41
537.058	41649.03
537.259	42386.3
537.46	42122.11
537.66	41773.95
537.861	42167.16
538.062	41964.42
538.263	41991.04
538.463	41956.22
538.664	41862.02
538.865	42175.36
539.065	41800.58
539.266	41458.57
539.466	41978.75
539.667	41671.56
539.868	42169.21
540.068	41677.7
540.269	42011.52
540.469	42249.08
540.67	41741.19
540.87	42165.12
541.071	41864.07
541.271	41790.34
541.472	41999.23
541.672	41737.09
541.873	41517.96
542.073	41317.26
542.274	41945.98
542.474	41743.24
542.675	41808.77
542.875	42046.33
543.075	41677.7
543.276	41499.53
543.476	42054.53
543.676	41294.73
543.877	41507.72
544.077	41579.4
544.277	41515.91
544.478	41733
544.678	41755.52
544.878	41624.45
545.078	41708.42
545.279	41595.78
545.479	41675.65
545.679	41653.12
545.879	41380.74
546.079	41847.68
546.28	41634.69
546.48	41149.32
546.68	41776
546.88	41833.35
547.08	41405.32
547.28	41366.41
547.48	41333.64
547.68	41587.59
547.88	41153.42
548.081	41812.87
548.281	41634.69
548.481	41143.18
548.681	41915.26
548.881	41302.92
549.081	41360.26
549.28	41020.3
549.48	41628.55
549.68	41286.54
549.88	41642.88
550.08	41089.93
550.28	41831.3
550.48	41102.22
550.68	41474.95
550.88	41089.93
551.08	40971.15
551.279	41388.94
551.479	40944.53
551.679	41472.9
551.879	40983.44
552.079	41436.04
552.278	41202.57
552.478	40883.09
552.678	41286.54
552.878	41329.55
553.077	41001.87
553.277	41003.92
553.477	41851.78
553.676	41145.23
553.876	40940.43
554.076	40786.83
554.275	40899.47
554.475	40414.1
554.674	40551.32
554.874	41167.76
555.074	40700.82
555.273	40936.34
555.473	40733.59
555.672	40459.16
555.872	40934.29
556.071	40749.97
556.271	41081.74
556.47	40735.63
556.67	40356.76
556.869	40752.02
557.068	40491.93
557.268	40268.7
557.467	40633.24
557.667	40530.84
557.866	40500.12
558.065	40229.79
558.265	40283.03
558.464	39988.13
558.663	40422.3
558.863	40051.61
559.062	40559.51
559.261	40270.75
559.461	40532.89
559.66	39613.35
559.859	39844.77
560.058	39842.72
560.258	39721.89
560.457	39246.76
560.656	39924.64
560.855	39830.43
561.054	40039.33
561.253	39345.06
561.453	39682.98
561.652	39744.42
561.851	39482.28
562.05	39259.05
562.249	39355.3
562.448	39689.12
562.647	39420.84
562.846	38960.05
563.045	39195.56
563.244	38927.28
563.443	39568.29
563.642	38446.01
563.841	38751.15
564.04	38638.51
564.239	39228.33
564.438	38759.34
564.637	38654.9
564.836	38523.83
565.035	38050.75
565.234	38841.26
565.432	38394.81
565.631	38579.12
565.83	38316.98
566.029	38097.85
566.228	37944.25
566.427	37639.11
566.625	37923.77
566.824	37718.98
567.023	37942.21
567.222	36959.18
567.42	37878.72
567.619	37729.22
567.818	37682.11
568.016	37731.26
568.215	37807.04
568.414	37338.05
568.612	37284.81
568.811	37061.58
569.01	37471.17
569.208	36977.61
569.407	37405.64
569.605	36266.97
569.804	36998.09
570.002	36473.81
570.201	36797.39
570.4	36250.58
570.598	36334.55
570.797	36414.42
570.995	36469.72
571.193	35886.04
571.392	36348.89
571.59	36010.97
571.789	36279.25
571.987	36074.46
572.186	36099.03
572.384	35714.02
572.582	36088.79
572.781	36008.92
572.979	35470.31
573.177	35556.32
573.376	35765.21
573.574	35259.37
573.772	35238.89
573.971	35138.54
574.169	34683.89
574.367	34771.95
574.565	35552.23
574.763	34546.67
574.962	35001.32
575.16	34237.43
575.358	34587.63
575.556	34360.31
575.754	34704.37
575.952	34106.36
576.151	34474.99
576.349	34061.3
576.547	34061.3
576.745	34026.49
576.943	33958.91
577.141	34108.41
577.339	33997.82
577.537	33477.63
577.735	33909.75
577.933	33408
578.131	33494.02
578.329	33340.42
578.527	32914.44
578.725	33612.8
578.923	33410.05
579.121	32810
579.319	33207.3
579.516	33168.39
579.714	33209.35
579.912	32775.18
580.11	32293.91
580.308	32584.72
580.506	32627.73
580.704	32138.26
580.901	32535.57
581.099	32603.15
581.297	32326.67
581.495	31749.15
581.692	32060.44
581.89	31439.9
582.088	32162.84
582.285	32021.53
582.483	32025.62
582.681	31845.4
582.878	31491.1
583.076	31386.66
583.274	31837.21
583.471	31028.26
583.669	31540.25
583.866	30884.9
584.064	31636.51
584.262	30989.35
584.459	31378.47
584.657	31067.17
584.854	30778.41
585.052	30469.17
585.249	30809.13
585.447	30669.87
585.644	30260.27
585.841	30473.26
586.039	30692.4
586.236	30254.13
586.434	30135.35
586.631	30225.46
586.828	30080.05
587.026	30299.19
587.223	29975.61
587.42	30041.14
587.618	29819.96
587.815	29594.68
588.012	29410.37
588.21	29193.28
588.407	29713.47
588.604	29090.88
588.801	29273.15
588.999	29183.04
589.196	29060.16
589.393	29350.98
589.59	29133.89
589.787	28572.75
589.984	28916.81
590.182	28445.77
590.379	28943.43
590.576	28077.14
590.773	28525.64
590.97	28222.55
591.167	28552.27
591.364	27935.83
591.561	28466.25
591.758	27774.04
591.955	27937.88
592.152	28046.42
592.349	27616.35
592.546	27671.64
592.743	27837.53
592.94	27518.04
593.137	27835.48
593.334	27505.76
593.531	27159.65
593.727	27303.01
593.924	27196.51
594.121	27434.08
594.318	27526.24
594.515	26696.81
594.712	27173.99
594.908	26778.73
595.105	27257.95
595.302	26487.92
595.499	26928.23
595.696	26369.13
595.892	26264.69
596.089	26629.23
596.286	26600.55
596.482	26297.45
596.679	26113.14
596.876	26457.2
597.072	26258.54
597.269	26068.08
597.466	25631.86
597.662	25871.48
597.859	25916.53
598.055	26037.36
598.252	25508.99
598.448	25685.11
598.645	25554.04
598.841	25062.53
599.038	25521.27
599.234	25400.44
599.431	25019.52
599.627	24941.7
599.824	25193.6
600.02	25183.36
600.217	25369.72
600.413	24910.98
600.609	24747.14
600.806	24648.84
601.002	24857.73
601.198	24697.99
601.395	23975.06
601.591	24439.95
601.787	24738.95
601.984	24384.65
602.18	24394.89
602.376	24091.79
602.572	23995.54
602.769	24198.29
602.965	23882.9
603.161	23755.93
603.357	23753.88
603.553	23985.3
603.75	23698.58
603.946	23467.16
604.142	23549.08
604.338	23434.39
604.534	23686.29
604.73	23540.89
604.926	23178.4
605.122	23100.58
605.318	23051.42
605.514	22926.5
605.71	22848.68
605.906	22969.51
606.102	22928.55
606.298	23086.24
606.494	22844.58
606.69	22918.31
606.886	22744.23
607.082	22619.3
607.278	22801.57
607.474	22252.72
607.67	22774.95
607.866	22097.07
608.062	22434.99
608.257	22389.93
608.453	22262.96
608.649	22322.35
608.845	22101.17
609.041	21884.08
609.236	22181.04
609.432	21927.09
609.628	21765.3
609.824	21767.35
610.019	21865.65
610.215	21636.28
610.411	21769.4
610.606	21673.14
610.802	21798.07
610.998	21710
611.193	21785.78
611.389	21486.78
611.584	21417.15
611.78	21425.34
611.976	21417.15
612.171	21126.33
612.367	21519.54
612.562	21267.64
612.758	20991.17
612.953	21177.53
613.149	21365.95
613.344	20896.96
613.539	21421.24
613.735	20858.05
613.93	20939.97
614.126	20769.99
614.321	20937.92
614.517	20917.44
614.712	21005.5
614.907	20702.4
615.103	21189.82
615.298	20407.5
615.493	20829.38
615.688	20464.84
615.884	21038.27
616.079	20477.13
616.274	20485.32
616.47	20473.03
616.665	20470.98
616.86	20403.4
617.055	20458.7
617.25	20143.31
617.445	20217.04
617.641	19967.18
617.836	19987.66
618.031	20122.83
618.226	20098.25
618.421	19930.32
618.616	20096.21
618.811	19492.05
619.006	19946.7
619.201	19545.3
619.396	19709.14
619.591	19447
619.786	19561.69
619.981	18892
620.176	19420.38
620.371	18984.16
620.566	18803.94
620.761	19025.12
620.956	19090.65
621.151	18758.88
621.346	18986.21
621.541	18486.5
621.735	18926.82
621.93	18488.55
622.125	18619.62
622.32	18193.64
622.515	18390.25
622.709	18363.62
622.904	18248.94
623.099	17949.93
623.294	18081
623.488	17712.37
623.683	17792.24
623.878	17523.96
624.072	17652.98
624.267	17673.46
624.462	17759.47
624.656	17284.34
624.851	17140.99
625.046	17251.58
625.24	16997.63
625.435	17091.84
625.629	16825.6
625.824	16622.85
626.018	16682.24
626.213	16411.91
626.407	16620.8
626.602	16168.2
626.796	16383.24
626.991	16229.64
627.185	16121.1
627.38	15863.05
627.574	16045.32
627.768	15693.07
627.963	15938.83
628.157	15703.31
628.352	15746.32
628.546	15570.19
628.74	15723.79
628.935	15133.98
629.129	15285.53
629.323	14994.72
629.517	15076.63
629.712	15090.97
629.906	14816.54
630.1	14920.99
630.294	14804.25
630.489	14949.66
630.683	14636.32
630.877	14351.65
631.071	14421.28
631.265	14515.49
631.459	14116.14
631.653	14335.27
631.848	14337.32
632.042	13972.78
632.236	14267.69
632.43	14091.56
632.624	13872.43
632.818	13704.49
633.012	13780.27
633.206	13712.69
633.4	13698.35
633.594	13483.31
633.788	13595.95
633.982	13417.78
634.176	13389.11
634.369	13337.91
634.563	12971.32
634.757	13143.35
634.951	13159.74
635.145	12877.12
635.339	13264.18
635.533	12830.01
635.726	12895.55
635.92	12514.63
636.114	12709.18
636.308	12483.91
636.501	12649.79
636.695	12602.69
636.889	12494.15
637.083	12309.83
637.276	12186.95
637.47	12369.22
637.664	12232.01
637.857	12258.63
638.051	12221.77
638.244	12092.74
638.438	11767.12
638.632	11828.56
638.825	11840.84
639.019	11648.33
639.212	11543.89
639.406	11672.91
639.599	11472.21
639.793	11537.74
639.986	11220.31
640.18	11529.55
640.373	11488.59
640.567	11335
640.76	11126.1
640.954	11140.44
641.147	10960.22
641.34	10888.54
641.534	10841.43
641.727	11019.61
641.92	10997.08
642.114	10751.32
642.307	10675.55
642.5	10509.66
642.694	10624.35
642.887	10642.78
643.08	10548.58
643.273	10386.79
643.467	10442.08
643.66	10380.64
643.853	10186.08
644.046	10108.26
644.239	10233.19
644.432	10136.93
644.626	10177.89
644.819	10104.17
645.012	10110.31
645.205	9852.27
645.398	9952.62
645.591	9960.81
645.784	9631.09
645.977	9516.4
646.17	9733.48
646.363	9459.06
646.556	9420.14
646.749	9534.83
646.942	9364.85
647.135	9416.05
647.328	9264.5
647.521	9561.45
647.714	9051.51
647.907	9217.4
648.099	9123.19
648.292	9315.7
648.485	9153.91
648.678	9231.73
648.871	8723.83
649.064	8691.07
649.256	8852.86
649.449	8920.44
649.642	8981.88
649.835	8844.67
650.027	8781.18
650.22	8529.28
650.413	8625.53
650.605	8494.46
650.798	8416.64
650.991	8387.97
651.183	8324.48
651.376	8363.39
651.568	8361.34
651.761	8207.75
651.954	8369.54
652.146	8197.51
652.339	8131.97
652.531	8127.88
652.724	8052.1
652.916	7916.94
653.109	7998.85
653.301	7970.18
653.494	7906.7
653.686	7832.97
653.879	7898.5
654.071	7802.25
654.263	7695.75
654.456	7759.24
654.648	7855.5
654.84	7513.49
655.033	7615.88
655.225	7511.44
655.417	7572.88
655.61	7493.01
655.802	7581.07
655.994	7435.66
656.186	7374.22
656.379	7413.13
656.571	7218.58
656.763	7118.23
656.955	7204.24
657.148	7247.25
657.34	7284.11
657.532	7093.65
657.724	7095.7
657.916	7038.36
658.108	6974.87
658.3	7044.5
658.492	6892.95
658.684	6892.95
658.876	6946.2
659.068	6741.4
659.26	6694.3
659.452	6618.52
659.644	6776.22
659.836	6817.18
660.028	6702.49
660.22	6446.49
660.412	6524.32
660.604	6634.91
660.796	6501.79
660.988	6610.33
661.18	6489.5
661.372	6237.6
661.563	6426.01
661.755	6438.3
661.947	6395.29
662.139	6270.37
662.331	6210.98
662.522	6176.16
662.714	6102.43
662.906	6004.13
663.097	6280.61
663.289	6094.24
663.481	5954.98
663.673	6200.74
663.864	5979.56
664.056	5995.94
664.247	6012.32
664.439	5799.34
664.631	6047.14
664.822	6022.56
665.014	5905.83
665.205	5752.23
665.397	5684.65
665.588	5723.56
665.78	5780.9
665.971	5658.03
666.163	5799.34
666.354	5762.47
666.546	5789.1
666.737	5545.39
666.929	5627.31
667.12	5637.55
667.311	5559.72
667.503	5492.14
667.694	5481.9
667.885	5459.37
668.077	5516.72
668.268	5490.09
668.459	5406.13
668.651	5238.19
668.842	5189.04
669.033	5137.84
669.224	5166.51
669.416	5356.97
669.607	5234.1
669.798	5135.79
669.989	5096.88
670.18	5062.07
670.371	5103.03
670.563	5010.87
670.754	5012.92
670.945	5176.75
671.136	5004.72
671.327	5021.11
671.518	5004.72
671.709	5037.49
671.9	4900.28
672.091	4890.04
672.282	5010.87
672.473	4892.09
672.664	4933.04
672.855	4896.18
673.046	4916.66
673.237	4957.62
673.428	4935.09
673.619	4699.58
673.809	4840.89
674	4799.93
674.191	4752.82
674.382	4687.29
674.573	4799.93
674.764	4603.32
674.954	4857.27
675.145	4691.38
675.336	4638.14
675.527	4582.84
675.717	4595.13
675.908	4562.36
676.099	4531.64
676.289	4439.48
676.48	4709.82
676.671	4425.15
676.861	4636.09
677.052	4543.93
677.243	4425.15
677.433	4533.69
677.624	4435.39
677.814	4451.77
678.005	4431.29
678.195	4414.91
678.386	4480.44
678.576	4441.53
678.767	4339.13
678.957	4318.65
679.148	4359.61
679.338	4384.19
679.529	4302.27
679.719	4341.18
679.909	4408.76
680.1	4318.65
680.29	4302.27
680.481	4341.18
680.671	4324.8
680.861	4158.91
681.052	4292.03
681.242	4169.15
681.432	4259.26
681.622	4246.98
681.813	4246.98
682.003	4144.58
682.193	4169.15
682.383	4234.69
682.573	4111.81
682.764	4206.02
682.954	4089.28
683.144	4109.76
683.334	4150.72
683.524	4126.15
683.714	4195.78
683.904	4089.28
684.094	4021.7
684.284	4013.51
684.474	4070.85
684.664	4085.19
684.854	3980.74
685.044	3943.88
685.234	3933.64
685.424	4146.62
685.614	3921.35
685.804	3925.44
685.994	3872.2
686.184	3851.72
686.374	3974.6
686.564	3884.48
686.753	3915.2
686.943	3890.63
687.133	3825.09
687.323	3884.48
687.513	3878.34
687.702	3734.98
687.892	3821
688.082	3747.27
688.272	3839.43
688.461	3800.52
688.651	3829.19
688.841	3558.86
689.03	3780.04
689.22	3626.44
689.41	3636.68
689.599	3532.23
689.789	3614.15
689.979	3689.93
690.168	3622.34
690.358	3534.28
690.547	3677.64
690.737	3548.62
690.926	3620.3
691.116	3409.36
691.305	3595.72
691.495	3481.03
691.684	3349.96
691.874	3521.99
692.063	3575.24
692.252	3554.76
692.442	3497.42
692.631	3493.32
692.82	3288.53
693.01	3435.98
693.199	3390.92
693.388	3433.93
693.578	3192.27
693.767	3474.89
693.956	3331.53
694.146	3212.75
694.335	3302.86
694.524	3349.96
694.713	3347.92
694.902	3358.16
695.092	3311.05
695.281	3169.74
695.47	3321.29
695.659	3200.46
695.848	3139.02
696.037	3292.62
696.226	3179.98
696.415	3216.85
696.604	3245.52
696.793	3202.51
696.982	3087.82
697.171	3255.76
697.36	3069.39
697.549	3128.78
697.738	3104.21
697.927	3149.26
698.116	3175.89
698.305	3100.11
698.494	3022.29
698.683	3141.07
698.872	3089.87
699.061	3100.11
699.25	3251.66
699.438	3026.39
699.627	3005.91
699.816	3104.21
700.005	2956.75
700.193	3032.53
700.382	3003.86
700.571	3145.17
700.76	3071.44
700.948	3067.35
701.137	3016.15
701.326	3112.4
701.514	3106.26
701.703	3087.82
701.892	3005.91
702.08	3143.12
702.269	2962.9
702.457	2909.65
702.646	3139.02
702.834	2985.43
703.023	3079.63
703.212	3010
703.4	3024.34
703.589	2981.33
703.777	3024.34
703.965	2876.88
704.154	2923.99
704.342	2893.27
704.531	2964.95
704.719	2776.53
704.907	2907.6
705.096	2842.07
705.284	2852.31
705.472	2872.79
705.661	2776.53
705.849	2964.95
706.037	2883.03
706.226	2969.04
706.414	2805.21
706.602	2827.73
706.79	2876.88
706.979	2817.49
707.167	2938.32
707.355	2944.47
707.543	2950.61
707.731	2948.56
707.919	2831.83
708.107	2827.73
708.296	2719.19
708.484	2719.19
708.672	2893.27
708.86	2870.74
709.048	2780.63
709.236	2850.26
709.424	2872.79
709.612	2928.08
709.8	2764.25
709.988	2786.77
710.176	2893.27
710.364	2711
710.551	2725.33
710.739	2754.01
710.927	2745.81
711.115	2590.17
711.303	2801.11
711.491	2674.14
711.679	2713.05
711.866	2706.9
712.054	2760.15
712.242	2713.05
712.43	2827.73
712.617	2870.74
712.805	2719.19
712.993	2586.07
713.181	2708.95
713.368	2649.56
713.556	2655.7
713.744	2620.89
713.931	2629.08
714.119	2792.92
714.306	2665.94
714.494	2661.85
714.682	2727.38
714.869	2532.83
715.057	2774.49
715.244	2534.87
715.432	2690.52
715.619	2729.43
715.807	2536.92
715.994	2674.14
716.182	2592.22
716.369	2526.68
716.556	2559.45
716.744	2672.09
716.931	2541.02
717.119	2731.48
717.306	2489.82
717.493	2586.07
717.681	2557.4
717.868	2489.82
718.055	2622.94
718.242	2508.25
718.43	2604.5
718.617	2622.94
718.804	2604.5
718.991	2530.78
719.179	2498.01
719.366	2653.66
719.553	2547.16
719.74	2434.52
719.927	2493.91
720.114	2475.48
720.301	2631.13
720.488	2543.07
720.676	2448.86
720.863	2498.01
721.05	2575.83
721.237	2444.76
721.424	2581.98
721.611	2538.97
721.798	2600.41
721.985	2325.98
722.172	2434.52
722.358	2342.36
722.545	2569.69
722.732	2442.71
722.919	2473.43
723.106	2375.13
723.293	2416.09
723.48	2491.87
723.667	2350.56
723.853	2375.13
724.04	2405.85
724.227	2405.85
724.414	2389.47
724.6	2418.14
724.787	2487.77
724.974	2426.33
725.161	2375.13
725.347	2354.65
725.534	2428.38
725.72	2332.12
725.907	2524.63
726.094	2424.28
726.28	2457.05
726.467	2379.23
726.653	2229.73
726.84	2354.65
727.027	2479.58
727.213	2354.65
727.4	2287.07
727.586	2194.91
727.773	2375.13
727.959	2360.8
728.145	2366.94
728.332	2334.17
728.518	2377.18
728.705	2426.33
728.891	2309.6
729.077	2371.04
729.264	2303.45
729.45	2299.36
729.636	2276.83
729.823	2244.06
730.009	2315.74
730.195	2196.96
730.382	2303.45
730.568	2162.14
730.754	2309.6
730.94	2274.78
731.126	2303.45
731.313	2272.73
731.499	2215.39
731.685	2235.87
731.871	2293.21
732.057	2309.6
732.243	2223.58
732.429	2231.77
732.615	2246.11
732.801	2307.55
732.987	2334.17
733.173	2364.89
733.359	2219.49
733.545	2268.64
733.731	2219.49
733.917	2287.07
734.103	2170.33
734.289	2309.6
734.475	2229.73
734.661	2420.19
734.847	2190.81
735.033	2237.92
735.219	2237.92
735.404	2266.59
735.59	2287.07
735.776	2129.38
735.962	2125.28
736.148	2219.49
736.333	2227.68
736.519	2194.91
736.705	2227.68
736.89	2139.62
737.076	2133.47
737.262	2207.2
737.447	2115.04
737.633	2213.34
737.819	2112.99
738.004	2139.62
738.19	2072.03
738.375	2153.95
738.561	2088.42
738.747	2018.79
738.932	2096.61
739.118	2149.86
739.303	2082.27
739.489	2119.14
739.674	2133.47
739.859	2063.84
740.045	2162.14
740.23	2022.88
740.416	1959.39
740.601	1949.15
740.786	1979.87
740.972	2074.08
741.157	1940.96
741.342	1979.87
741.528	2039.26
741.713	1973.73
741.898	1957.35
742.084	1885.67
742.269	2063.84
742.454	1965.54
742.639	1996.26
742.824	1936.87
743.01	1998.31
743.195	2006.5
743.38	2029.03
743.565	1900
743.75	1920.48
743.935	1895.91
744.12	1940.96
744.305	1891.81
744.49	1959.39
744.675	1768.93
744.86	1885.67
745.045	1797.6
745.23	1867.24
745.415	1949.15
745.6	1924.58
745.785	1900
745.97	1742.31
746.155	1875.43
746.34	1824.23
746.525	1711.59
746.71	1762.79
746.895	1793.51
747.079	1719.78
747.264	1844.71
747.449	1746.41
747.634	1715.69
747.819	1705.45
748.003	1713.64
748.188	1676.77
748.373	1742.31
748.557	1613.29
748.742	1760.74
748.927	1727.97
749.111	1676.77
749.296	1631.72
749.481	1543.66
749.665	1635.82
749.85	1582.57
750.034	1639.91
750.219	1582.57
750.404	1533.42
750.588	1566.18
750.773	1611.24
750.957	1629.67
751.141	1449.45
751.326	1574.38
751.51	1412.59
751.695	1605.1
751.879	1521.13
752.064	1482.22
752.248	1480.17
752.432	1482.22
752.617	1453.55
752.801	1555.94
752.985	1455.59
753.17	1449.45
753.354	1392.11
753.538	1500.65
753.722	1369.58
753.907	1441.26
754.091	1269.23
754.275	1392.11
754.459	1334.76
754.643	1320.43
754.828	1256.94
755.012	1265.13
755.196	1263.08
755.38	1314.28
755.564	1359.34
755.748	1279.47
755.932	1330.67
756.116	1234.41
756.3	1183.21
756.484	1191.41
756.668	1261.04
756.852	1111.54
757.036	1244.65
757.22	1105.39
757.404	1150.45
757.588	1211.89
757.772	1252.84
757.956	1304.04
758.14	1150.45
758.323	1095.15
758.507	1254.89
758.691	1136.11
758.875	1277.42
759.059	1168.88
759.242	1054.19
759.426	1039.86
759.61	1093.1
759.794	1138.16
759.977	1072.62
760.161	1179.12
760.345	1007.09
760.528	1177.07
760.712	1056.24
760.895	1123.82
761.079	1052.14
761.263	941.55
761.446	998.9
761.63	1089.01
761.813	1015.28
761.997	1039.86
762.18	1054.19
762.364	923.12
762.547	892.4
762.731	998.9
762.914	943.6
763.098	962.03
763.281	970.23
763.464	968.18
763.648	966.13
763.831	894.45
764.015	996.85
764.198	919.03
764.381	962.03
764.564	937.46
764.748	910.83
764.931	949.75
765.114	902.64
765.297	933.36
765.481	919.03
765.664	912.88
765.847	994.8
766.03	869.87
766.213	867.83
766.397	902.64
766.58	884.21
766.763	902.64
766.946	810.48
767.129	937.46
767.312	902.64
767.495	847.35
767.678	822.77
767.861	904.69
768.044	959.99
768.227	747
768.41	892.4
768.593	896.5
768.776	812.53
768.959	857.59
769.142	880.11
769.324	781.81
769.507	794.1
769.69	812.53
769.873	818.68
770.056	816.63
770.239	792.05
770.421	826.87
770.604	830.96
770.787	867.83
770.97	794.1
771.152	867.83
771.335	794.1
771.518	761.33
771.7	892.4
771.883	847.35
772.066	736.76
772.248	773.62
772.431	826.87
772.613	744.95
772.796	751.09
772.978	777.72
773.161	708.09
773.343	720.37
773.526	794.1
773.708	763.38
773.891	681.46
774.073	740.85
774.256	691.7
774.438	740.85
774.621	652.79
774.803	744.95
774.985	617.97
775.168	665.08
775.35	669.17
775.532	732.66
775.715	736.76
775.897	744.95
776.079	675.32
776.261	706.04
776.444	679.41
776.626	605.69
776.808	562.68
776.99	652.79
777.173	630.26
777.355	613.88
777.537	640.5
777.719	663.03
777.901	556.54
778.083	615.93
778.265	548.34
778.447	599.54
778.629	577.02
778.811	654.84
778.993	544.25
779.175	609.78
779.357	583.16
779.539	478.71
779.721	574.97
779.903	544.25
780.085	507.38
780.267	552.44
780.449	581.11
780.631	531.96
780.812	556.54
780.994	523.77
781.176	503.29
781.358	540.15
781.54	538.1
781.721	566.78
781.903	452.09
782.085	540.15
782.267	572.92
782.448	458.23
782.63	534.01
782.812	495.1
782.993	484.86
783.175	501.24
783.357	468.47
783.538	542.2
783.72	505.34
783.901	452.09
784.083	435.71
784.264	456.19
784.446	419.32
784.627	458.23
784.809	429.56
784.99	491
785.172	507.38
785.353	482.81
785.535	441.85
785.716	460.28
785.897	407.03
786.079	441.85
786.26	507.38
786.441	452.09
786.623	335.35
786.804	417.27
786.985	398.84
787.167	427.51
787.348	372.22
787.529	452.09
787.71	458.23
787.891	400.89
788.073	384.51
788.254	314.88
788.435	445.95
788.616	380.41
788.797	335.35
788.978	423.42
789.159	316.92
789.34	409.08
789.522	318.97
789.703	310.78
789.884	372.22
790.065	353.79
790.246	343.55
790.427	392.7
790.607	329.21
790.788	333.31
790.969	335.35
791.15	294.4
791.331	329.21
791.512	290.3
791.693	341.5
791.874	364.03
792.054	310.78
792.235	318.97
792.416	265.72
792.597	321.02
792.778	339.45
792.958	359.93
793.139	275.96
793.32	310.78
793.5	296.44
793.681	232.96
793.862	341.5
794.042	288.25
794.223	261.63
794.404	204.28
794.584	304.64
794.765	278.01
794.945	280.06
795.126	237.05
795.306	273.92
795.487	286.2
795.667	292.35
795.848	212.48
796.028	294.4
796.209	300.54
796.389	239.1
796.57	241.15
796.75	239.1
796.93	292.35
797.111	218.62
797.291	263.68
797.471	187.9
797.652	230.91
797.832	245.24
798.012	261.63
798.192	273.92
798.373	228.86
798.553	306.68
798.733	269.82
798.913	302.59
799.093	345.59
799.274	278.01
799.454	269.82
799.634	226.81
799.814	321.02
799.994	232.96
800.174	310.78
800.354	251.39
800.534	196.09
800.714	222.72
800.894	208.38
801.074	198.14
801.254	187.9
801.434	224.76
801.614	228.86
801.794	204.28
801.974	845.3
802.154	175.61
802.334	237.05
802.514	237.05
802.693	312.83
802.873	155.13
803.053	249.34
803.233	245.24
803.413	196.09
803.592	161.28
803.772	204.28
803.952	224.76
804.131	159.23
804.311	269.82
804.491	235
804.67	171.52
804.85	253.44
805.03	247.29
805.209	222.72
805.389	163.33
805.568	220.67
805.748	212.48
805.928	177.66
806.107	200.19
806.287	122.37
806.466	245.24
806.646	212.48
806.825	134.65
807.004	181.76
807.184	148.99
807.363	292.35
807.543	265.72
807.722	179.71
807.901	210.43
808.081	218.62
808.26	220.67
808.439	222.72
808.619	140.8
808.798	146.94
808.977	183.81
809.156	212.48
809.336	138.75
809.515	245.24
809.694	204.28
809.873	140.8
810.052	196.09
810.231	175.61
810.411	126.46
810.59	212.48
810.769	118.27
810.948	214.52
811.127	159.23
811.306	187.9
811.485	212.48
811.664	204.28
811.843	171.52
812.022	108.03
812.201	200.19
812.38	81.41
812.559	91.65
812.737	155.13
812.916	105.98
813.095	177.66
813.274	183.81
813.453	116.22
813.632	75.26
813.811	165.37
813.989	167.42
814.168	101.89
814.347	161.28
814.526	101.89
814.704	157.18
814.883	175.61
815.062	56.83
815.24	148.99
815.419	85.5
815.598	148.99
815.776	95.74
815.955	159.23
816.133	75.26
816.312	146.94
816.49	101.89
816.669	148.99
816.847	38.4
817.026	132.61
817.204	46.59
817.383	89.6
817.561	89.6
817.74	146.94
817.918	87.55
818.097	110.08
818.275	136.7
818.453	157.18
818.632	159.23
818.81	81.41
818.988	105.98
819.167	171.52
819.345	120.32
819.523	138.75
819.701	44.54
819.879	189.95
820.058	93.69
820.236	136.7
820.414	126.46
820.592	91.65
820.77	77.31
820.948	120.32
821.127	187.9
821.305	118.27
821.483	69.12
821.661	204.28
821.839	163.33
822.017	108.03
822.195	77.31
822.373	179.71
822.551	93.69
822.729	124.41
822.907	69.12
823.085	151.04
823.262	163.33
823.44	91.65
823.618	38.4
823.796	204.28
823.974	56.83
824.152	114.17
824.329	167.42
824.507	69.12
824.685	130.56
824.863	40.45
825.04	112.13
825.218	91.65
825.396	75.26
825.574	75.26
825.751	77.31
825.929	122.37
826.107	120.32
826.284	124.41
826.462	81.41
826.639	75.26
826.817	91.65
826.994	105.98
827.172	65.02
827.349	220.67
827.527	36.35
827.704	50.69
827.882	122.37
828.059	124.41
828.237	77.31
828.414	163.33
828.591	65.02
828.769	99.84
828.946	52.74
829.124	144.89
829.301	134.65
829.478	69.12
829.655	142.85
829.833	138.75
830.01	30.21
830.187	52.74
830.364	101.89
830.542	36.35
830.719	114.17
830.896	116.22
831.073	108.03
831.25	173.57
831.427	89.6
831.604	75.26
831.782	93.69
831.959	95.74
832.136	89.6
832.313	163.33
832.49	48.64
832.667	155.13
832.844	155.13
833.021	153.09
833.198	204.28
833.374	163.33
833.551	83.45
833.728	62.98
833.905	110.08
834.082	67.07
834.259	54.78
834.436	85.5
834.612	40.45
834.789	161.28
834.966	116.22
835.143	15.87
835.319	75.26
835.496	140.8
835.673	89.6
835.85	132.61
836.026	3.58
836.203	65.02
836.38	118.27
836.556	132.61
836.733	48.64
836.909	108.03
837.086	17.92
837.262	91.65
837.439	60.93
837.616	73.21
837.792	30.21
837.968	89.6
838.145	71.17
838.321	67.07
838.498	40.45
838.674	146.94
838.851	38.4
839.027	62.98
839.203	1.54
839.38	48.64
839.556	62.98
839.732	89.6
839.909	34.3
840.085	116.22
840.261	60.93
840.437	58.88
840.614	32.26
840.79	116.22
840.966	112.13
841.142	89.6
841.318	89.6
841.494	130.56
841.671	108.03
841.847	56.83
842.023	67.07
842.199	56.83
842.375	28.16
842.551	7.68
842.727	32.26
842.903	167.42
843.079	26.11
843.255	114.17
843.431	142.85
843.607	73.21
843.783	38.4
843.959	56.83
844.134	15.87
844.31	7.68
844.486	7.68
844.662	99.84
844.838	-0.51
845.013	50.69
845.189	153.09
845.365	7.68
845.541	54.78
845.716	77.31
845.892	101.89
846.068	60.93
846.244	30.21
846.419	97.79
846.595	142.85
846.77	56.83
846.946	-31.23
847.122	60.93
847.297	19.97
847.473	116.22
847.648	-25.09
847.824	126.46
847.999	1.54
848.175	19.97
848.35	-12.8
848.526	19.97
848.701	-35.33
848.876	77.31
849.052	15.87
849.227	112.13
849.403	48.64
849.578	36.35
849.753	62.98
849.929	67.07
850.104	83.45
850.279	118.27
850.454	52.74
850.63	75.26
850.805	93.69
850.98	19.97
851.155	58.88
851.33	-23.04
851.505	62.98
851.681	89.6
851.856	56.83
852.031	75.26
852.206	19.97
852.381	32.26
852.556	58.88
852.731	17.92
852.906	69.12
853.081	-0.51
853.256	56.83
853.431	22.02
853.606	-8.7
853.781	24.06
853.956	-20.99
854.131	81.41
854.305	48.64
854.48	44.54
854.655	42.5
854.83	58.88
855.005	-16.9
855.18	42.5
855.354	24.06
855.529	81.41
855.704	3.58
855.879	1.54
856.053	60.93
856.228	58.88
856.403	65.02
856.577	44.54
856.752	17.92
856.926	17.92
857.101	7.68
857.276	24.06
857.45	44.54
857.625	142.85
857.799	3.58
857.974	48.64
858.148	-82.43
858.323	-4.61
858.497	83.45
858.672	-4.61
858.846	97.79
859.02	17.92
859.195	13.82
859.369	50.69
859.543	30.21
859.718	42.5
859.892	-31.23
860.066	56.83
860.241	56.83
860.415	13.82
860.589	60.93
860.763	46.59
860.938	26.11
861.112	-8.7
861.286	40.45
861.46	15.87
861.634	-20.99
861.808	126.46
861.982	15.87
862.157	17.92
862.331	48.64
862.505	-20.99
862.679	24.06
862.853	50.69
863.027	1.54
863.201	24.06
863.375	-29.18
863.549	56.83
863.722	114.17
863.896	1.54
864.07	15.87
864.244	-4.61
864.418	52.74
864.592	-47.62
864.766	11.78
864.939	87.55
865.113	40.45
865.287	44.54
865.461	32.26
865.634	52.74
865.808	36.35
865.982	52.74
866.156	38.4
866.329	32.26
866.503	40.45
866.676	83.45
866.85	-29.18
867.024	50.69
867.197	-16.9
867.371	56.83
867.544	15.87
867.718	7.68
867.891	52.74
868.065	52.74
868.238	-49.66
868.412	83.45
868.585	65.02
868.759	-49.66
868.932	36.35
869.105	91.65
869.279	34.3
869.452	58.88
869.625	99.84
869.799	22.02
869.972	-35.33
870.145	-4.61
870.319	19.97
870.492	9.73
870.665	58.88
870.838	-12.8
871.011	-64
871.185	58.88
871.358	69.12
871.531	38.4
871.704	28.16
871.877	81.41
872.05	24.06
872.223	15.87
872.396	-35.33
872.569	7.68
872.742	17.92
872.915	65.02
873.088	-0.51
873.261	50.69
873.434	13.82
873.607	24.06
873.78	50.69
873.953	42.5
874.126	85.5
874.299	34.3
874.471	-31.23
874.644	-12.8
874.817	56.83
874.99	108.03
875.163	-10.75
875.335	40.45
875.508	40.45
875.681	60.93
875.853	32.26
876.026	-14.85
876.199	17.92
876.371	83.45
876.544	-12.8
876.717	44.54
876.889	19.97
877.062	34.3
877.234	60.93
877.407	17.92
877.579	83.45
877.752	40.45
877.924	-8.7
878.097	65.02
878.269	24.06
878.442	-0.51
878.614	56.83
878.786	22.02
878.959	36.35
879.131	-20.99
879.303	-64
879.476	56.83
879.648	-8.7
879.82	40.45
879.993	-33.28
880.165	-55.81
880.337	1.54
880.509	97.79
880.681	17.92
880.854	-10.75
881.026	11.78
881.198	83.45
881.37	3.58
881.542	3.58
881.714	-49.66
881.886	32.26
882.058	1.54
882.23	24.06
882.402	34.3
882.574	7.68
882.746	3.58
882.918	67.07
883.09	38.4
883.262	24.06
883.434	-29.18
883.606	-20.99
883.778	3.58
883.95	1.54
884.122	48.64
884.293	95.74
884.465	-33.28
884.637	73.21
884.809	-43.52
884.98	36.35
885.152	-6.66
885.324	-25.09
885.496	54.78
885.667	48.64
885.839	-8.7
886.011	73.21
886.182	-0.51
886.354	7.68
886.525	7.68
886.697	-33.28
886.869	36.35
887.04	44.54
887.212	73.21
887.383	15.87
887.555	-4.61
887.726	-14.85
887.897	-23.04
888.069	122.37
888.24	15.87
888.412	65.02
888.583	71.17
888.754	-4.61
888.926	-27.14
889.097	44.54
889.268	26.11
889.44	42.5
889.611	-8.7
889.782	-23.04
889.953	79.36
890.125	95.74
890.296	-6.66
890.467	-29.18
890.638	-25.09
890.809	-41.47
890.98	11.78
891.151	91.65
891.323	69.12
891.494	71.17
891.665	44.54
891.836	42.5
892.007	30.21
892.178	11.78
892.349	-0.51
892.52	32.26
892.691	-23.04
892.862	-14.85
893.032	13.82
893.203	11.78
893.374	40.45
893.545	7.68
893.716	36.35
893.887	36.35
894.057	11.78
894.228	11.78
894.399	19.97
894.57	48.64
894.74	-47.62
894.911	62.98
895.082	-51.71
895.253	3.58
895.423	91.65
895.594	40.45
895.764	-23.04
895.935	-0.51
896.106	26.11
896.276	22.02
896.447	-0.51
896.617	38.4
896.788	40.45
896.958	89.6
897.129	11.78
897.299	1.54
897.47	89.6
897.64	56.83
897.81	56.83
897.981	26.11
898.151	62.98
898.322	73.21
898.492	28.16
898.662	54.78
898.832	-41.47
899.003	36.35
899.173	15.87
899.343	44.54
899.513	11.78
