Data from USB4F104151__245__14-22-30-043.txt Node

Date: Thu Mar 13 14:22:30 EDT 2025
User: louis
Spectrometer: USB4F10415
Trigger mode: 4
Integration Time (sec): 2.000000E-2
Scans to average: 1
Electric dark correction enabled: true
Nonlinearity correction enabled: false
Boxcar width: 0
XAxis mode: Wavelengths
Number of Pixels in Spectrum: 3648
>>>>>Begin Spectral Data<<<<<
178.204	-156.5
178.424	-156.5
178.644	-156.5
178.864	-170.83
179.084	-50
179.304	-19.29
179.524	-7
179.744	-25.43
179.964	13.48
180.184	-37.72
180.404	-29.52
180.624	40.11
180.844	58.54
181.064	-15.19
181.283	11.43
181.503	-47.96
181.723	58.54
181.943	-0.85
182.163	42.15
182.383	13.48
182.602	91.31
182.822	40.11
183.042	87.21
183.262	-15.19
183.482	23.72
183.701	-66.39
183.921	31.91
184.141	-39.76
184.361	72.87
184.58	-39.76
184.8	21.67
185.02	-7
185.239	44.2
185.459	42.15
185.679	13.48
185.898	-0.85
186.118	29.87
186.338	13.48
186.557	-9.05
186.777	-97.11
186.997	76.97
187.216	38.06
187.436	68.78
187.655	54.44
187.875	64.68
188.095	29.87
188.314	21.67
188.534	46.25
188.753	13.48
188.973	85.16
189.192	62.63
189.412	9.39
189.631	-68.44
189.851	17.58
190.07	46.25
190.29	-33.62
190.509	13.48
190.729	-60.24
190.948	66.73
191.168	130.22
191.387	87.21
191.607	79.02
191.826	111.78
192.045	-17.24
192.265	62.63
192.484	23.72
192.704	79.02
192.923	-11.09
193.142	95.4
193.362	-15.19
193.581	-7
193.8	97.45
194.02	83.11
194.239	72.87
194.458	44.2
194.678	74.92
194.897	52.39
195.116	31.91
195.335	-45.91
195.555	81.07
195.774	21.67
195.993	-2.9
196.212	-9.05
196.432	3.24
196.651	29.87
196.87	-0.85
197.089	-11.09
197.308	56.49
197.528	38.06
197.747	-68.44
197.966	40.11
198.185	50.35
198.404	7.34
198.623	-11.09
198.842	85.16
199.062	62.63
199.281	31.91
199.5	17.58
199.719	33.96
199.938	81.07
200.157	48.3
200.376	29.87
200.595	62.63
200.814	46.25
201.033	21.67
201.252	-11.09
201.471	42.15
201.69	-17.24
201.909	7.34
202.128	7.34
202.347	-0.85
202.566	5.29
202.785	-7
203.004	-0.85
203.223	93.35
203.442	-27.48
203.661	31.91
203.879	62.63
204.098	-11.09
204.317	46.25
204.536	70.83
204.755	-27.48
204.974	79.02
205.193	27.82
205.411	128.17
205.63	-41.81
205.849	95.4
206.068	-31.57
206.287	38.06
206.505	122.02
206.724	-19.29
206.943	42.15
207.162	5.29
207.381	23.72
207.599	15.53
207.818	29.87
208.037	31.91
208.255	-15.19
208.474	17.58
208.693	54.44
208.911	-9.05
209.13	27.82
209.349	-21.33
209.567	91.31
209.786	13.48
210.005	-2.9
210.223	38.06
210.442	-58.2
210.661	33.96
210.879	50.35
211.098	-19.29
211.316	-9.05
211.535	56.49
211.753	3.24
211.972	54.44
212.191	5.29
212.409	-41.81
212.628	11.43
212.846	-47.96
213.065	-2.9
213.283	109.74
213.502	-19.29
213.72	15.53
213.938	46.25
214.157	-17.24
214.375	21.67
214.594	46.25
214.812	40.11
215.031	21.67
215.249	-68.44
215.467	-15.19
215.686	54.44
215.904	54.44
216.122	9.39
216.341	38.06
216.559	-31.57
216.778	44.2
216.996	29.87
217.214	-0.85
217.432	-35.67
217.651	38.06
217.869	5.29
218.087	-7
218.306	52.39
218.524	79.02
218.742	-50
218.96	50.35
219.179	1.19
219.397	-50
219.615	99.5
219.833	29.87
220.051	97.45
220.27	54.44
220.488	42.15
220.706	9.39
220.924	-27.48
221.142	31.91
221.36	50.35
221.578	1.19
221.796	-27.48
222.015	-17.24
222.233	9.39
222.451	72.87
222.669	29.87
222.887	117.93
223.105	13.48
223.323	21.67
223.541	-31.57
223.759	-23.38
223.977	7.34
224.195	54.44
224.413	40.11
224.631	13.48
224.849	17.58
225.067	93.35
225.285	-35.67
225.503	38.06
225.721	-7
225.939	5.29
226.157	40.11
226.375	111.78
226.592	-80.72
226.81	5.29
227.028	105.64
227.246	40.11
227.464	95.4
227.682	70.83
227.9	-9.05
228.117	-39.76
228.335	15.53
228.553	15.53
228.771	-60.24
228.989	56.49
229.206	58.54
229.424	5.29
229.642	48.3
229.86	66.73
230.077	17.58
230.295	-17.24
230.513	46.25
230.731	13.48
230.948	7.34
231.166	99.5
231.384	25.77
231.601	64.68
231.819	25.77
232.037	13.48
232.254	-15.19
232.472	-15.19
232.689	74.92
232.907	72.87
233.125	11.43
233.342	-31.57
233.56	-13.14
233.777	5.29
233.995	38.06
234.213	66.73
234.43	25.77
234.648	54.44
234.865	-11.09
235.083	89.26
235.3	9.39
235.518	-17.24
235.735	5.29
235.953	66.73
236.17	46.25
236.388	-9.05
236.605	66.73
236.822	103.59
237.04	-17.24
237.257	83.11
237.475	-52.05
237.692	70.83
237.909	83.11
238.127	29.87
238.344	97.45
238.562	44.2
238.779	-15.19
238.996	46.25
239.214	48.3
239.431	1.19
239.648	1.19
239.865	48.3
240.083	5.29
240.3	-50
240.517	1.19
240.735	42.15
240.952	50.35
241.169	40.11
241.386	-0.85
241.603	-2.9
241.821	15.53
242.038	115.88
242.255	-41.81
242.472	29.87
242.689	-17.24
242.907	27.82
243.124	-31.57
243.341	33.96
243.558	-23.38
243.775	27.82
243.992	-17.24
244.209	95.4
244.426	-9.05
244.643	-0.85
244.86	52.39
245.078	66.73
245.295	54.44
245.512	38.06
245.729	31.91
245.946	54.44
246.163	50.35
246.38	27.82
246.597	-13.14
246.814	54.44
247.031	5.29
247.248	48.3
247.464	19.63
247.681	58.54
247.898	70.83
248.115	31.91
248.332	-80.72
248.549	3.24
248.766	70.83
248.983	62.63
249.2	5.29
249.417	13.48
249.633	-43.86
249.85	58.54
250.067	11.43
250.284	48.3
250.501	-25.43
250.717	56.49
250.934	-4.95
251.151	-19.29
251.368	-7
251.585	29.87
251.801	13.48
252.018	25.77
252.235	7.34
252.451	-119.64
252.668	-2.9
252.885	15.53
253.102	103.59
253.318	9.39
253.535	19.63
253.752	9.39
253.968	25.77
254.185	-2.9
254.401	21.67
254.618	70.83
254.835	-23.38
255.051	87.21
255.268	99.5
255.484	111.78
255.701	-41.81
255.917	64.68
256.134	15.53
256.351	23.72
256.567	-9.05
256.784	81.07
257	-52.05
257.217	95.4
257.433	5.29
257.65	-60.24
257.866	64.68
258.082	13.48
258.299	23.72
258.515	36.01
258.732	-35.67
258.948	-43.86
259.165	13.48
259.381	113.83
259.597	48.3
259.814	-0.85
260.03	-35.67
260.246	38.06
260.463	38.06
260.679	79.02
260.895	-41.81
261.112	13.48
261.328	5.29
261.544	-15.19
261.761	66.73
261.977	46.25
262.193	29.87
262.409	70.83
262.626	115.88
262.842	5.29
263.058	27.82
263.274	19.63
263.49	62.63
263.707	-15.19
263.923	15.53
264.139	13.48
264.355	25.77
264.571	-17.24
264.787	52.39
265.004	-25.43
265.22	-19.29
265.436	-9.05
265.652	-9.05
265.868	17.58
266.084	-27.48
266.3	-15.19
266.516	79.02
266.732	46.25
266.948	21.67
267.164	140.46
267.38	95.4
267.596	46.25
267.812	83.11
268.028	38.06
268.244	25.77
268.46	7.34
268.676	7.34
268.892	62.63
269.108	-60.24
269.324	-13.14
269.54	64.68
269.756	23.72
269.972	-31.57
270.188	13.48
270.403	27.82
270.619	66.73
270.835	17.58
271.051	38.06
271.267	25.77
271.483	-9.05
271.698	56.49
271.914	25.77
272.13	9.39
272.346	5.29
272.562	-101.2
272.777	50.35
272.993	58.54
273.209	-9.05
273.425	60.59
273.64	-9.05
273.856	-15.19
274.072	-41.81
274.287	40.11
274.503	-2.9
274.719	13.48
274.934	-2.9
275.15	-9.05
275.366	56.49
275.581	5.29
275.797	56.49
276.012	23.72
276.228	-9.05
276.444	79.02
276.659	38.06
276.875	-0.85
277.09	87.21
277.306	31.91
277.521	-17.24
277.737	-31.57
277.952	89.26
278.168	19.63
278.383	72.87
278.599	83.11
278.814	7.34
279.03	1.19
279.245	62.63
279.461	27.82
279.676	105.64
279.892	33.96
280.107	38.06
280.322	-17.24
280.538	25.77
280.753	-29.52
280.969	38.06
281.184	56.49
281.399	-19.29
281.615	42.15
281.83	21.67
282.045	-17.24
282.26	11.43
282.476	-25.43
282.691	7.34
282.906	25.77
283.122	-11.09
283.337	-11.09
283.552	15.53
283.767	62.63
283.983	66.73
284.198	-15.19
284.413	21.67
284.628	1.19
284.843	13.48
285.058	9.39
285.274	23.72
285.489	-52.05
285.704	29.87
285.919	5.29
286.134	-27.48
286.349	66.73
286.564	-31.57
286.779	122.02
286.995	81.07
287.21	62.63
287.425	52.39
287.64	13.48
287.855	50.35
288.07	33.96
288.285	79.02
288.5	79.02
288.715	29.87
288.93	-47.96
289.145	62.63
289.36	42.15
289.575	7.34
289.79	72.87
290.004	21.67
290.219	72.87
290.434	27.82
290.649	29.87
290.864	17.58
291.079	-0.85
291.294	33.96
291.509	-50
291.724	-50
291.938	-35.67
292.153	1.19
292.368	-62.29
292.583	-19.29
292.798	5.29
293.012	119.98
293.227	111.78
293.442	-21.33
293.657	79.02
293.871	91.31
294.086	54.44
294.301	76.97
294.516	62.63
294.73	66.73
294.945	9.39
295.16	62.63
295.374	70.83
295.589	-21.33
295.804	-11.09
296.018	13.48
296.233	54.44
296.447	44.2
296.662	-25.43
296.877	-0.85
297.091	93.35
297.306	5.29
297.52	66.73
297.735	15.53
297.949	-9.05
298.164	-0.85
298.378	13.48
298.593	-7
298.807	5.29
299.022	-35.67
299.236	29.87
299.451	3.24
299.665	-0.85
299.88	40.11
300.094	29.87
300.309	1.19
300.523	72.87
300.737	-17.24
300.952	-9.05
301.166	21.67
301.381	36.01
301.595	-25.43
301.809	13.48
302.024	19.63
302.238	17.58
302.452	56.49
302.667	21.67
302.881	85.16
303.095	33.96
303.309	29.87
303.524	-41.81
303.738	-0.85
303.952	17.58
304.166	107.69
304.381	13.48
304.595	48.3
304.809	119.98
305.023	38.06
305.237	-52.05
305.452	54.44
305.666	25.77
305.88	-0.85
306.094	-19.29
306.308	128.17
306.522	23.72
306.736	40.11
306.95	46.25
307.164	31.91
307.379	-15.19
307.593	46.25
307.807	46.25
308.021	-2.9
308.235	64.68
308.449	33.96
308.663	-11.09
308.877	29.87
309.091	1.19
309.305	29.87
309.519	11.43
309.733	15.53
309.947	-127.83
310.161	54.44
310.374	87.21
310.588	111.78
310.802	-31.57
311.016	38.06
311.23	62.63
311.444	79.02
311.658	19.63
311.872	62.63
312.085	54.44
312.299	87.21
312.513	64.68
312.727	7.34
312.941	3.24
313.154	70.83
313.368	52.39
313.582	13.48
313.796	40.11
314.009	9.39
314.223	52.39
314.437	40.11
314.651	29.87
314.864	40.11
315.078	31.91
315.292	33.96
315.505	-47.96
315.719	-23.38
315.933	29.87
316.146	1.19
316.36	46.25
316.573	17.58
316.787	58.54
317.001	44.2
317.214	50.35
317.428	-2.9
317.641	13.48
317.855	97.45
318.068	70.83
318.282	122.02
318.495	58.54
318.709	36.01
318.922	70.83
319.136	5.29
319.349	72.87
319.563	-31.57
319.776	42.15
319.99	-66.39
320.203	72.87
320.417	58.54
320.63	62.63
320.843	95.4
321.057	87.21
321.27	21.67
321.483	40.11
321.697	85.16
321.91	21.67
322.124	66.73
322.337	15.53
322.55	38.06
322.763	56.49
322.977	46.25
323.19	5.29
323.403	23.72
323.617	29.87
323.83	29.87
324.043	48.3
324.256	56.49
324.469	-7
324.683	117.93
324.896	-41.81
325.109	36.01
325.322	11.43
325.535	64.68
325.748	19.63
325.962	46.25
326.175	62.63
326.388	29.87
326.601	23.72
326.814	29.87
327.027	21.67
327.24	48.3
327.453	-27.48
327.666	17.58
327.879	54.44
328.092	-27.48
328.305	29.87
328.518	-68.44
328.731	-72.53
328.944	15.53
329.157	-11.09
329.37	46.25
329.583	42.15
329.796	64.68
330.009	3.24
330.222	85.16
330.435	50.35
330.648	-58.2
330.861	9.39
331.073	38.06
331.286	79.02
331.499	9.39
331.712	17.58
331.925	-2.9
332.138	3.24
332.35	83.11
332.563	-13.14
332.776	87.21
332.989	66.73
333.202	44.2
333.414	54.44
333.627	-25.43
333.84	21.67
334.053	23.72
334.265	15.53
334.478	44.2
334.691	3.24
334.903	-9.05
335.116	-17.24
335.329	72.87
335.541	56.49
335.754	68.78
335.966	79.02
336.179	40.11
336.392	54.44
336.604	17.58
336.817	54.44
337.029	48.3
337.242	9.39
337.454	46.25
337.667	-2.9
337.88	9.39
338.092	40.11
338.305	29.87
338.517	38.06
338.729	160.94
338.942	-52.05
339.154	-33.62
339.367	-27.48
339.579	25.77
339.792	13.48
340.004	62.63
340.217	-0.85
340.429	-2.9
340.641	15.53
340.854	62.63
341.066	-56.15
341.278	64.68
341.491	40.11
341.703	31.91
341.915	9.39
342.128	111.78
342.34	-15.19
342.552	-54.1
342.764	-72.53
342.977	11.43
343.189	62.63
343.401	74.92
343.613	-41.81
343.826	-39.76
344.038	29.87
344.25	111.78
344.462	50.35
344.674	21.67
344.886	40.11
345.099	62.63
345.311	42.15
345.523	13.48
345.735	-43.86
345.947	128.17
346.159	-41.81
346.371	23.72
346.583	64.68
346.795	29.87
347.007	83.11
347.219	91.31
347.431	-11.09
347.643	-9.05
347.855	50.35
348.067	46.25
348.279	-27.48
348.491	40.11
348.703	91.31
348.915	66.73
349.127	-19.29
349.339	29.87
349.551	7.34
349.763	48.3
349.975	50.35
350.187	79.02
350.399	29.87
350.61	154.79
350.822	38.06
351.034	36.01
351.246	87.21
351.458	17.58
351.669	54.44
351.881	70.83
352.093	5.29
352.305	48.3
352.517	50.35
352.728	95.4
352.94	-9.05
353.152	15.53
353.363	1.19
353.575	44.2
353.787	68.78
353.999	144.55
354.21	42.15
354.422	56.49
354.633	42.15
354.845	-19.29
355.057	33.96
355.268	3.24
355.48	81.07
355.692	7.34
355.903	40.11
356.115	46.25
356.326	-27.48
356.538	-64.34
356.749	48.3
356.961	21.67
357.172	23.72
357.384	23.72
357.595	9.39
357.807	64.68
358.018	-4.95
358.23	9.39
358.441	81.07
358.653	1.19
358.864	-19.29
359.075	21.67
359.287	23.72
359.498	-15.19
359.709	21.67
359.921	21.67
360.132	25.77
360.344	70.83
360.555	103.59
360.766	58.54
360.977	79.02
361.189	9.39
361.4	46.25
361.611	87.21
361.823	113.83
362.034	13.48
362.245	-23.38
362.456	31.91
362.667	29.87
362.879	62.63
363.09	31.91
363.301	56.49
363.512	54.44
363.723	15.53
363.935	5.29
364.146	13.48
364.357	83.11
364.568	54.44
364.779	23.72
364.99	64.68
365.201	15.53
365.412	119.98
365.623	33.96
365.834	38.06
366.045	5.29
366.256	5.29
366.467	48.3
366.678	74.92
366.889	115.88
367.1	15.53
367.311	40.11
367.522	1.19
367.733	17.58
367.944	105.64
368.155	-0.85
368.366	-7
368.577	17.58
368.788	25.77
368.999	48.3
369.209	40.11
369.42	103.59
369.631	136.36
369.842	-2.9
370.053	-7
370.264	103.59
370.474	31.91
370.685	38.06
370.896	31.91
371.107	27.82
371.317	-19.29
371.528	33.96
371.739	9.39
371.95	40.11
372.16	44.2
372.371	7.34
372.582	42.15
372.792	33.96
373.003	40.11
373.214	48.3
373.424	5.29
373.635	29.87
373.846	136.36
374.056	46.25
374.267	107.69
374.477	83.11
374.688	11.43
374.898	-0.85
375.109	23.72
375.319	54.44
375.53	7.34
375.74	-21.33
375.951	95.4
376.161	74.92
376.372	111.78
376.582	13.48
376.793	48.3
377.003	-11.09
377.214	60.59
377.424	21.67
377.635	15.53
377.845	62.63
378.055	87.21
378.266	-19.29
378.476	-9.05
378.686	46.25
378.897	111.78
379.107	3.24
379.317	48.3
379.528	38.06
379.738	42.15
379.948	-11.09
380.158	48.3
380.369	-25.43
380.579	-13.14
380.789	13.48
380.999	99.5
381.21	119.98
381.42	38.06
381.63	-9.05
381.84	128.17
382.05	15.53
382.261	64.68
382.471	70.83
382.681	-15.19
382.891	21.67
383.101	13.48
383.311	40.11
383.521	48.3
383.731	5.29
383.941	79.02
384.151	87.21
384.361	9.39
384.571	56.49
384.781	33.96
384.991	38.06
385.201	83.11
385.411	111.78
385.621	42.15
385.831	-19.29
386.041	91.31
386.251	115.88
386.461	87.21
386.671	42.15
386.881	81.07
387.091	23.72
387.301	87.21
387.511	48.3
387.72	1.19
387.93	36.01
388.14	-2.9
388.35	23.72
388.56	81.07
388.769	38.06
388.979	58.54
389.189	38.06
389.399	29.87
389.609	-50
389.818	44.2
390.028	76.97
390.238	48.3
390.447	68.78
390.657	89.26
390.867	81.07
391.076	56.49
391.286	-15.19
391.496	56.49
391.705	70.83
391.915	66.73
392.125	97.45
392.334	60.59
392.544	115.88
392.753	-19.29
392.963	21.67
393.172	89.26
393.382	29.87
393.591	62.63
393.801	76.97
394.01	160.94
394.22	31.91
394.429	44.2
394.639	25.77
394.848	128.17
395.058	70.83
395.267	21.67
395.477	33.96
395.686	50.35
395.895	70.83
396.105	89.26
396.314	95.4
396.524	48.3
396.733	124.07
396.942	31.91
397.152	17.58
397.361	95.4
397.57	-33.62
397.78	81.07
397.989	19.63
398.198	68.78
398.407	13.48
398.617	42.15
398.826	11.43
399.035	21.67
399.244	72.87
399.453	46.25
399.663	76.97
399.872	46.25
400.081	21.67
400.29	128.17
400.499	70.83
400.708	58.54
400.917	29.87
401.127	62.63
401.336	-0.85
401.545	119.98
401.754	103.59
401.963	146.6
402.172	62.63
402.381	72.87
402.59	119.98
402.799	64.68
403.008	144.55
403.217	62.63
403.426	40.11
403.635	130.22
403.844	148.65
404.053	-45.91
404.262	58.54
404.471	146.6
404.68	56.49
404.888	169.13
405.097	87.21
405.306	85.16
405.515	148.65
405.724	111.78
405.933	128.17
406.142	119.98
406.35	119.98
406.559	138.41
406.768	40.11
406.977	169.13
407.185	105.64
407.394	216.23
407.603	119.98
407.812	169.13
408.02	171.18
408.229	136.36
408.438	195.75
408.646	97.45
408.855	152.74
409.064	136.36
409.272	191.66
409.481	210.09
409.69	119.98
409.898	128.17
410.107	294.05
410.315	210.09
410.524	246.95
410.733	195.75
410.941	187.56
411.15	251.05
411.358	244.9
411.567	255.14
411.775	220.33
411.984	294.05
412.192	259.24
412.401	193.7
412.609	357.54
412.818	349.35
413.026	222.38
413.234	269.48
413.443	249
413.651	431.27
413.86	308.39
414.068	386.21
414.276	441.51
414.485	339.11
414.693	429.22
414.901	431.27
415.11	480.42
415.318	425.12
415.526	464.04
415.734	455.84
415.943	502.95
416.151	556.19
416.359	576.67
416.567	570.53
416.776	576.67
416.984	531.62
417.192	619.68
417.4	629.92
417.608	597.15
417.817	656.54
418.025	724.13
418.233	787.61
418.441	627.87
418.649	754.85
418.857	806.05
419.065	824.48
419.273	838.81
419.481	935.07
419.689	955.55
419.897	908.44
420.105	980.12
420.313	1043.61
420.521	1113.24
420.729	1008.8
420.937	1103
421.145	1180.82
421.353	1260.7
421.561	1299.61
421.769	1283.22
421.977	1285.27
422.185	1236.12
422.393	1332.37
422.601	1430.68
422.809	1481.88
423.017	1471.64
423.224	1547.41
423.432	1660.05
423.64	1528.98
423.848	1674.39
424.056	1596.56
424.263	1766.54
424.471	1791.12
424.679	1924.24
424.887	1963.15
425.094	1963.15
425.302	2038.92
425.51	2026.64
425.718	2102.41
425.925	2174.09
426.133	2344.07
426.341	2366.6
426.548	2507.91
426.756	2581.64
426.964	2530.44
427.171	2595.97
427.379	2892.93
427.586	2806.91
427.794	2839.68
428.001	2923.65
428.209	3140.73
428.417	3056.76
428.624	3292.28
428.832	3206.27
429.039	3323
429.247	3308.66
429.454	3486.84
429.662	3562.61
429.869	3490.93
430.076	3816.56
430.284	3880.05
430.491	3775.6
430.699	4134
430.906	4109.42
431.114	4076.65
431.321	4326.5
431.528	4389.99
431.736	4457.57
431.943	4830.3
432.15	4625.51
432.358	4813.92
432.565	5125.21
432.772	4930.66
432.979	5194.84
433.187	5389.4
433.394	5350.49
433.601	5571.67
433.808	5715.03
434.016	5776.47
434.223	5903.44
434.43	6290.51
434.637	6114.38
434.844	6560.84
435.052	6628.42
435.259	6515.78
435.466	6530.12
435.673	6571.08
435.88	7115.84
436.087	7402.55
436.294	7435.32
436.501	7287.87
436.708	7324.73
436.915	7638.07
437.122	7959.6
437.329	7963.7
437.537	8240.17
437.743	8373.29
437.95	8201.26
438.157	8766.5
438.364	8844.32
438.571	9077.79
438.778	8827.94
438.985	9794.58
439.192	9559.06
439.399	9905.17
439.606	9438.23
439.813	10003.47
440.02	10806.28
440.227	10376.2
440.433	10384.4
440.64	10540.04
440.847	10413.07
441.054	10755.08
441.261	11523.07
441.467	11428.86
441.674	11641.85
441.881	11949.04
442.088	12041.2
442.294	11893.75
442.501	12401.65
442.708	12712.94
442.914	12932.07
443.121	13376.48
443.328	13165.54
443.534	14187.47
443.741	13687.77
443.948	13415.39
444.154	14443.47
444.361	14300.11
444.568	14328.78
444.774	14214.1
444.981	14672.84
445.187	14844.87
445.394	15717.31
445.6	15494.08
445.807	16917.42
446.013	16343.99
446.22	16311.22
446.426	17007.53
446.633	17058.73
446.839	17699.74
447.046	17234.85
447.252	18037.66
447.459	18097.05
447.665	18135.96
447.871	18639.76
448.078	19587.97
448.284	18525.07
448.491	19327.88
448.697	19741.57
448.903	20214.65
449.11	20659.06
449.316	20007.8
449.522	20472.69
449.728	20970.35
449.935	21082.98
450.141	20976.49
450.347	21529.44
450.553	20853.61
450.76	20945.77
450.966	22078.3
451.172	21822.3
451.378	21949.28
451.584	21701.47
451.791	22106.97
451.997	22182.74
452.203	22604.63
452.409	22707.02
452.615	22672.21
452.821	21500.77
453.027	21295.97
453.233	22469.46
453.44	21545.83
453.646	21760.86
453.852	22201.18
454.058	22494.04
454.264	21738.33
454.47	22481.75
454.676	21742.43
454.882	22315.86
455.088	20448.11
455.294	20857.71
455.5	21087.08
455.705	21255.01
455.911	20126.58
456.117	19987.32
456.323	19803
456.529	18736.01
456.735	19682.17
456.941	19200.9
457.147	18670.48
457.352	18066.33
457.558	18416.53
457.764	17957.78
457.97	17580.96
458.176	17318.82
458.381	17421.22
458.587	16421.81
458.793	16567.21
458.999	15449.02
459.204	16839.59
459.41	16372.66
459.616	15487.93
459.821	15199.17
460.027	15356.86
460.233	14898.12
460.438	14259.15
460.644	14455.76
460.85	13683.67
461.055	13548.51
461.261	13503.45
461.466	12534.76
461.672	11938.8
461.878	12868.58
462.083	11959.28
462.289	11660.28
462.494	11572.22
462.7	11228.16
462.905	10775.56
463.111	11279.36
463.316	11328.51
463.522	10886.15
463.727	11162.62
463.932	11197.44
464.138	10982.4
464.343	10986.5
464.549	10769.41
464.754	11090.95
464.959	10886.15
465.165	10890.24
465.37	10505.23
465.575	10263.57
465.781	10609.67
465.986	10646.54
466.191	10212.37
466.397	10140.69
466.602	9514.01
466.807	10091.54
467.012	9933.84
467.218	10032.15
467.423	9845.78
467.628	9753.62
467.833	10150.93
468.038	9733.14
468.244	9567.26
468.449	9948.18
468.654	9552.92
468.859	9434.14
469.064	9344.03
469.269	9233.44
469.474	9362.46
469.679	9258.01
469.885	9098.27
470.09	9249.82
470.295	9172
470.5	9010.21
470.705	9075.74
470.91	8676.39
471.115	8694.82
471.32	8985.63
471.525	8893.47
471.73	8680.49
471.935	8475.69
472.139	8477.74
472.344	8510.5
472.549	8379.43
472.754	8328.24
472.959	8107.05
473.164	7844.91
473.369	7734.32
473.574	8105.01
473.778	7943.22
473.983	7902.26
474.188	7941.17
474.393	7525.43
474.598	7552.06
474.802	7578.68
475.007	7539.77
475.212	7437.37
475.417	7158.85
475.621	7189.56
475.826	7390.27
476.031	7029.82
476.235	6999.1
476.44	7005.25
476.645	6884.42
476.849	6976.58
477.054	6814.79
477.259	6886.47
477.463	6728.77
477.668	6603.85
477.872	6452.3
478.077	6581.32
478.282	6315.08
478.486	6444.1
478.691	6300.75
478.895	6124.62
479.1	6157.39
479.304	6227.02
479.509	6167.63
479.713	6181.96
479.918	6181.96
480.122	5979.22
480.326	6073.42
480.531	6136.91
480.735	5919.82
480.94	5862.48
481.144	6057.04
481.348	5862.48
481.553	5973.07
481.757	5846.1
481.961	5831.76
482.166	5887.06
482.37	5942.35
482.574	5655.64
482.778	5780.56
482.983	5805.14
483.187	5624.92
483.391	5932.11
483.595	5612.63
483.8	5674.07
484.004	5833.81
484.208	5829.71
484.412	5536.85
484.616	5690.45
484.821	5727.32
485.025	5641.3
485.229	5747.79
485.433	5952.59
485.637	5573.72
485.841	5694.55
486.045	5688.4
486.249	5667.92
486.453	5641.3
486.657	5930.06
486.861	5758.03
487.065	5643.35
487.269	5839.95
487.473	5602.39
487.677	5731.41
487.881	5901.39
488.085	5889.1
488.289	6020.17
488.493	5682.26
488.697	5971.02
488.901	5913.68
489.105	5952.59
489.309	5858.39
489.512	5743.7
489.716	5688.4
489.92	5874.77
490.124	5706.84
490.328	5870.67
490.531	5823.57
490.735	5964.88
490.939	5899.34
491.143	6011.98
491.346	5932.11
491.55	6122.57
491.754	5960.78
491.958	6216.78
492.161	6110.29
492.365	6048.85
492.569	5936.21
492.772	6200.4
492.976	6009.93
493.18	6083.66
493.383	6118.48
493.587	6145.1
493.79	6458.44
493.994	6384.71
494.197	6274.12
494.401	6470.73
494.605	6452.3
494.808	6452.3
495.012	6493.26
495.215	6435.91
495.419	6644.81
495.622	6605.89
495.825	6771.78
496.029	6728.77
496.232	6843.46
496.436	6775.88
496.639	7019.58
496.843	6870.08
497.046	7050.3
497.249	7148.61
497.453	6986.82
497.656	7289.92
497.859	7332.92
498.063	7478.33
498.266	7494.71
498.469	7537.72
498.673	7668.79
498.876	7588.92
499.079	7730.23
499.282	7683.13
499.485	7869.49
499.689	7945.27
499.892	7955.51
500.095	8209.45
500.298	8363.05
500.501	8201.26
500.705	8471.59
500.908	8420.39
501.111	8573.99
501.314	8696.87
501.517	8735.78
501.72	8778.79
501.923	8909.86
502.126	9049.12
502.329	9221.15
502.532	8995.87
502.735	9124.9
502.938	9417.75
503.141	9548.82
503.344	9573.4
503.547	9665.56
503.75	9905.17
503.953	9692.18
504.156	10204.17
504.359	10128.4
504.562	10126.35
504.765	10527.75
504.968	10411.02
505.17	10613.77
505.373	10689.54
505.576	10763.27
505.779	11080.71
505.982	10941.44
506.185	11232.26
506.387	11146.24
506.59	11213.82
506.793	11484.16
506.996	11680.76
507.198	11670.52
507.401	11889.65
507.604	11793.4
507.807	12061.68
508.009	12315.63
508.212	12303.34
508.415	12532.72
508.617	12596.2
508.82	12893.16
509.022	12579.82
509.225	12671.98
509.428	13007.84
509.63	13100
509.833	13382.62
510.035	13474.78
510.238	13515.74
510.44	13714.39
510.643	13890.52
510.845	14042.07
511.048	13790.17
511.25	14246.87
511.453	14341.07
511.655	14687.18
511.858	14635.98
512.06	14762.95
512.262	14664.65
512.465	14939.08
512.667	15104.96
512.87	15410.11
513.072	15344.58
513.274	15492.03
513.477	15791.03
513.679	15821.75
513.881	16049.08
514.084	16319.41
514.286	15936.44
514.488	16427.95
514.69	16513.97
514.893	16626.6
515.095	16634.8
515.297	17154.98
515.499	17142.69
515.701	17159.08
515.904	17413.02
516.106	17654.69
516.308	17654.69
516.51	17810.33
516.712	17931.16
516.914	18140.05
517.116	18398.1
517.318	18690.96
517.52	18822.03
517.722	18803.6
517.925	19213.19
518.127	19198.85
518.329	19268.48
518.531	19133.32
518.733	19448.71
518.935	19846.01
519.136	19772.28
519.338	20286.33
519.54	20224.89
519.742	20566.9
519.944	20237.17
520.146	20939.63
520.348	20910.96
520.55	20978.54
520.752	21222.25
520.954	21375.84
521.155	21427.04
521.357	21824.35
521.559	22100.83
521.761	22369.11
521.963	22000.47
522.164	22266.71
522.366	22377.3
522.568	22592.34
522.77	22518.61
522.971	23032.65
523.173	22561.62
523.375	23253.83
523.576	23249.74
523.778	23243.59
523.98	23778.11
524.181	23515.97
524.383	23956.29
524.584	23874.37
524.786	23966.52
524.988	23921.47
525.189	24185.66
525.391	24433.46
525.592	24449.85
525.794	24556.34
525.995	24711.99
526.197	24654.64
526.398	24851.25
526.6	24884.01
526.801	25443.11
527.003	24980.27
527.204	25359.14
527.406	25432.87
527.607	25494.31
527.808	25711.39
528.01	25404.2
528.211	25686.82
528.412	25944.86
528.614	25508.65
528.815	26204.95
529.016	26065.69
529.218	25846.56
529.419	26207
529.62	25965.34
529.822	26082.08
530.023	26522.39
530.224	26227.48
530.425	26256.15
530.626	26065.69
530.828	26090.27
531.029	26430.23
531.23	26336.02
531.431	26307.35
531.632	26426.14
531.833	26678.04
532.035	26723.09
532.236	26549.01
532.437	26747.67
532.638	26499.86
532.839	26772.24
533.04	26983.18
533.241	26293.02
533.442	27058.96
533.643	26594.07
533.844	26886.93
534.045	27273.99
534.246	26794.77
534.447	26936.08
534.648	26516.25
534.849	26747.67
535.05	26749.71
535.251	26440.47
535.451	26592.02
535.652	26587.92
535.853	26655.51
536.054	26977.04
536.255	27175.69
536.456	26651.41
536.657	27050.77
536.857	26718.99
537.058	26745.62
537.259	27071.25
537.46	27097.87
537.66	26823.44
537.861	26794.77
538.062	26798.87
538.263	27007.76
538.463	26583.83
538.664	27022.09
538.865	26829.59
539.065	26913.55
539.266	26854.16
539.466	27169.55
539.667	26528.53
539.868	27159.31
540.068	26297.11
540.269	26512.15
540.469	27030.29
540.67	26852.11
540.87	26366.74
541.071	26528.53
541.271	26749.71
541.472	26452.76
541.672	26675.99
541.873	26544.92
542.073	26088.22
542.274	26819.35
542.474	26493.72
542.675	26581.78
542.875	26669.84
543.075	26573.59
543.276	26200.86
543.476	26436.38
543.676	26250.01
543.877	26585.88
544.077	26473.24
544.277	26411.8
544.478	26551.06
544.678	26399.51
544.878	26516.25
545.078	26350.36
545.279	26354.46
545.479	26569.49
545.679	26284.83
545.879	26247.96
546.079	26497.81
546.28	26387.22
546.48	26200.86
546.68	26637.08
546.88	26483.48
547.08	26217.24
547.28	26442.52
547.48	26123.04
547.68	26632.98
547.88	26041.12
548.081	26870.54
548.281	26635.03
548.481	26372.89
548.681	26569.49
548.881	26149.66
549.081	26450.71
549.28	26022.69
549.48	26460.95
549.68	26358.55
549.88	26581.78
550.08	26164
550.28	26397.46
550.48	26231.58
550.68	26632.98
550.88	26452.76
551.08	26245.91
551.279	26407.7
551.479	26268.44
551.679	26262.3
551.879	26323.74
552.079	26315.55
552.278	26139.42
552.478	26276.63
552.678	26016.54
552.878	26057.5
553.077	26213.15
553.277	26180.38
553.477	26190.62
553.676	26243.87
553.876	26131.23
554.076	25991.97
554.275	26127.13
554.475	25922.34
554.674	26250.01
554.874	26250.01
555.074	25803.55
555.273	25772.83
555.473	26133.28
555.672	25662.24
555.872	26112.8
556.071	25547.56
556.271	25996.06
556.47	25697.06
556.67	25791.27
556.869	25920.29
557.068	25821.98
557.268	25662.24
557.467	25711.39
557.667	25883.42
557.866	25746.21
558.065	25936.67
558.265	25291.56
558.464	25572.13
558.663	25615.14
558.863	25400.1
559.062	25879.33
559.261	25375.53
559.461	25836.32
559.66	25361.19
559.859	25295.66
560.058	25172.78
560.258	25297.7
560.457	25121.58
560.656	25334.57
560.855	25174.83
561.054	25293.61
561.253	25023.28
561.453	24986.41
561.652	25072.43
561.851	24994.61
562.05	24765.23
562.249	24781.62
562.448	25027.37
562.647	24828.72
562.846	24726.32
563.045	25160.49
563.244	24494.9
563.443	24967.98
563.642	24673.07
563.841	24648.5
564.04	24556.34
564.239	24886.06
564.438	24091.45
564.637	24576.82
564.836	24423.22
565.035	23923.52
565.234	24429.37
565.432	24496.95
565.631	24273.72
565.83	24095.55
566.029	24163.13
566.228	24015.68
566.427	24109.88
566.625	23747.39
566.824	23372.61
567.023	24154.94
567.222	23495.49
567.42	24032.06
567.619	23857.98
567.818	23524.16
568.016	23587.65
568.215	23565.12
568.414	23477.06
568.612	23620.42
568.811	23677.76
569.01	23483.2
569.208	23188.3
569.407	23253.83
569.605	23063.37
569.804	23403.33
570.002	23106.38
570.201	22836.05
570.4	23059.27
570.598	22553.43
570.797	22895.44
570.995	23006.03
571.193	22444.88
571.392	22967.12
571.59	22561.62
571.789	22905.68
571.987	22686.54
572.186	22369.11
572.384	22397.78
572.582	22588.24
572.781	22686.54
572.979	22246.23
573.177	22311.77
573.376	22274.9
573.574	22188.89
573.772	22287.19
573.971	22221.66
574.169	21936.99
574.367	21920.6
574.565	21846.88
574.763	22014.81
574.962	21724
575.16	21519.2
575.358	21668.7
575.556	21427.04
575.754	21887.84
575.952	21123.94
576.151	21728.1
576.349	21386.08
576.547	21146.47
576.745	21183.34
576.943	21367.65
577.141	21347.17
577.339	21226.34
577.537	21019.5
577.735	21177.19
577.933	21117.8
578.131	20857.71
578.329	20777.84
578.527	20751.21
578.725	20900.72
578.923	20763.5
579.121	20628.34
579.319	20351.86
579.516	20654.96
579.714	20513.65
579.912	20212.6
580.11	20239.22
580.308	20251.51
580.506	20570.99
580.704	19850.11
580.901	20177.78
581.099	20386.68
581.297	20292.47
581.495	20126.58
581.692	19985.27
581.89	20102.01
582.088	20030.33
582.285	19876.73
582.483	20157.3
582.681	20104.06
582.878	19653.5
583.076	19669.89
583.274	19772.28
583.471	19813.24
583.669	19729.28
583.866	19411.84
584.064	19520.38
584.262	19280.77
584.459	19454.85
584.657	19035.02
584.854	19422.08
585.052	18946.95
585.249	18897.8
585.447	19098.5
585.644	19051.4
585.841	18772.88
586.039	19082.12
586.236	18650
586.434	18895.75
586.631	18758.54
586.828	18672.53
587.026	18629.52
587.223	18357.14
587.42	18369.43
587.618	18408.34
587.815	18289.56
588.012	18281.36
588.21	18193.3
588.407	18353.04
588.604	17994.65
588.801	18123.67
588.999	18324.37
589.196	18293.65
589.393	18101.14
589.59	17992.6
589.787	18011.03
589.984	17818.52
590.182	17658.78
590.379	17970.07
590.576	17662.88
590.773	17669.02
590.97	17544.09
591.167	17644.45
591.364	17382.31
591.561	17646.49
591.758	17146.79
591.955	17249.19
592.152	17441.7
592.349	17402.79
592.546	17308.58
592.743	17265.57
592.94	17107.88
593.137	17386.4
593.334	17191.84
593.531	16921.51
593.727	17218.47
593.924	16892.84
594.121	16903.08
594.318	16800.68
594.515	16786.35
594.712	16974.76
594.908	16663.47
595.105	16706.48
595.302	16464.82
595.499	16579.5
595.696	16499.63
595.892	16368.56
596.089	16339.89
596.286	16473.01
596.482	16282.55
596.679	16405.42
596.876	16135.09
597.072	16241.59
597.269	16004.02
597.466	15950.78
597.662	16139.19
597.859	15991.73
598.055	15989.69
598.252	15852.47
598.448	15756.22
598.645	15770.55
598.841	15655.87
599.038	15934.39
599.234	15774.65
599.431	15489.98
599.627	15688.64
599.824	15895.48
600.02	15311.81
600.217	15432.64
600.413	15406.02
600.609	15299.52
600.806	15141.83
601.002	15213.51
601.198	15008.71
601.395	15156.16
601.591	15164.36
601.787	15016.9
601.984	15049.67
602.18	15205.31
602.376	15002.57
602.572	15047.62
602.769	15021
602.965	14951.37
603.161	15006.66
603.357	14713.8
603.553	14859.21
603.75	14615.5
603.946	14394.32
604.142	14597.07
604.338	14394.32
604.534	14711.75
604.73	14392.27
604.926	14220.24
605.122	14570.44
605.318	14152.66
605.514	14218.19
605.71	14220.24
605.906	14279.63
606.102	14218.19
606.298	14222.29
606.494	14162.9
606.69	14099.41
606.886	14128.08
607.082	13833.18
607.278	14001.11
607.474	13941.72
607.67	13917.14
607.866	13751.26
608.062	13972.44
608.257	13816.79
608.453	13726.68
608.649	13779.93
608.845	13702.11
609.041	13695.96
609.236	13769.69
609.432	13636.57
609.628	13867.99
609.824	13718.49
610.019	13538.27
610.215	13609.95
610.411	13579.23
610.606	13284.32
610.802	13640.67
610.998	13450.21
611.193	13525.98
611.389	13351.9
611.584	13343.71
611.78	13392.86
611.976	13300.7
612.171	13319.14
612.367	13110.24
612.562	13188.07
612.758	13030.37
612.953	12919.78
613.149	13251.55
613.344	12993.51
613.539	13425.63
613.735	13097.95
613.93	13366.24
614.126	12989.41
614.321	13067.24
614.517	13194.21
614.712	13169.63
614.907	13005.8
615.103	12964.84
615.298	12780.52
615.493	12950.5
615.688	12786.66
615.884	12825.57
616.079	12774.38
616.274	12841.96
616.47	12661.74
616.665	12553.2
616.86	12481.52
617.055	12637.16
617.25	12710.89
617.445	12772.33
617.641	12557.29
617.836	12514.28
618.031	12383.21
618.226	12504.04
618.421	12504.04
618.616	12440.56
618.811	12213.23
619.006	12588.01
619.201	12221.42
619.396	12329.97
619.591	12219.38
619.786	12188.66
619.981	11930.61
620.176	12215.28
620.371	11871.22
620.566	12024.82
620.761	11889.65
620.956	11893.75
621.151	11691
621.346	11764.73
621.541	11770.87
621.735	11660.28
621.93	11473.92
622.125	11435
622.32	11514.87
622.515	11408.38
622.709	11250.69
622.904	11127.81
623.099	11084.8
623.294	11166.72
623.488	10925.06
623.683	11301.89
623.878	11119.62
624.072	10941.44
624.267	10802.18
624.462	11060.23
624.656	10609.67
624.851	10851.33
625.046	10765.32
625.24	10730.5
625.435	10339.34
625.629	10374.16
625.824	10365.96
626.018	10048.53
626.213	10292.24
626.407	10253.33
626.602	10232.85
626.796	10222.61
626.991	10238.99
627.185	10273.81
627.38	9987.09
627.574	9987.09
627.768	9770.01
627.963	9909.27
628.157	9813.01
628.352	9788.44
628.546	9659.42
628.74	9835.54
628.935	9573.4
629.129	9661.46
629.323	9401.37
629.517	9346.08
629.712	9434.14
629.906	9376.8
630.1	9110.56
630.294	9327.64
630.489	9126.94
630.683	9090.08
630.877	8846.37
631.071	8940.58
631.265	9069.6
631.459	8811.56
631.653	8913.95
631.848	8971.3
632.042	8772.64
632.236	8893.47
632.43	8496.17
632.624	8660.01
632.818	8600.62
633.012	8612.9
633.206	8660.01
633.4	8543.27
633.594	8297.52
633.788	8428.59
633.982	8371.24
634.176	8174.64
634.369	8279.08
634.563	8162.35
634.757	8076.34
634.951	8180.78
635.145	8281.13
635.339	8191.02
635.533	7937.07
635.726	7961.65
635.92	7877.68
636.114	7980.08
636.308	7666.74
636.501	7738.42
636.695	7756.85
636.889	7586.87
637.083	7691.32
637.276	7670.84
637.47	7654.45
637.664	7525.43
637.857	7730.23
638.051	7527.48
638.244	7611.45
638.438	7492.66
638.632	7320.63
638.825	7408.7
639.019	7343.16
639.212	7269.44
639.406	7273.53
639.599	7228.48
639.793	7144.51
639.986	7158.85
640.18	7304.25
640.373	7130.17
640.567	7015.49
640.76	7019.58
640.954	6929.47
641.147	6790.21
641.34	6728.77
641.534	6861.89
641.727	6759.49
641.92	6755.4
642.114	6702.15
642.307	6640.71
642.5	6640.71
642.694	6489.16
642.887	6519.88
643.08	6595.65
643.273	6456.39
643.467	6532.17
643.66	6366.28
643.853	6323.27
644.046	6343.75
644.239	6337.61
644.432	6411.34
644.626	6196.3
644.819	6263.88
645.012	6255.69
645.205	6233.16
645.398	6079.57
645.591	5985.36
645.784	6159.44
645.977	6069.33
646.17	6032.46
646.363	5790.8
646.556	5897.3
646.749	5921.87
646.942	5997.65
647.135	5815.38
647.328	5852.24
647.521	5913.68
647.714	5727.32
647.907	5700.69
648.099	5682.26
648.292	5690.45
648.485	5639.25
648.678	5643.35
648.871	5655.64
649.064	5520.47
649.256	5688.4
649.449	5424.22
649.642	5583.96
649.835	5370.97
650.027	5561.43
650.22	5370.97
650.413	5379.16
650.605	5258.33
650.798	5192.8
650.991	5313.63
651.183	5344.35
651.376	5225.56
651.568	5239.9
651.761	5098.59
651.954	5284.95
652.146	5160.03
652.339	5160.03
652.531	5135.45
652.724	5086.3
652.916	4944.99
653.109	4916.32
653.301	5012.57
653.494	5096.54
653.686	4807.78
653.879	5002.33
654.071	4678.76
654.263	4686.95
654.456	4752.48
654.648	4764.77
654.84	4736.1
655.033	4666.47
655.225	4715.62
655.417	4820.07
655.61	4600.93
655.802	4662.37
655.994	4766.82
656.186	4684.9
656.379	4490.34
656.571	4562.02
656.763	4510.82
656.955	4576.36
657.148	4555.88
657.34	4502.63
657.532	4482.15
657.724	4336.74
657.916	4371.56
658.108	4330.6
658.3	4476.01
658.492	4340.84
658.684	4183.15
658.876	4185.19
659.068	4338.79
659.26	4113.52
659.452	4117.61
659.644	4152.43
659.836	4330.6
660.028	4306.02
660.22	4205.67
660.412	4174.95
660.604	4093.04
660.796	4052.08
660.988	4019.31
661.18	4060.27
661.372	4004.97
661.563	4119.66
661.755	3961.97
661.947	3935.34
662.139	4084.84
662.331	3871.86
662.522	3972.21
662.714	3957.87
662.906	3896.43
663.097	3744.88
663.289	3748.98
663.481	3763.31
663.673	3802.22
663.864	3781.74
664.056	3769.46
664.247	3736.69
664.439	3675.25
664.631	3677.3
664.822	3765.36
665.014	3675.25
665.205	3658.87
665.397	3642.48
665.588	3701.87
665.78	3634.29
665.971	3710.07
666.163	3593.33
666.354	3505.27
666.546	3462.26
666.737	3574.9
666.929	3355.77
667.12	3529.84
667.311	3544.18
667.503	3415.16
667.694	3472.5
667.885	3628.15
668.077	3376.25
668.268	3310.71
668.459	3413.11
668.651	3396.73
668.842	3400.82
669.033	3388.53
669.224	3232.89
669.416	3314.81
669.607	3327.1
669.798	3282.04
669.989	3245.18
670.18	3392.63
670.371	3257.46
670.563	3413.11
670.754	3232.89
670.945	3257.46
671.136	3333.24
671.327	3181.69
671.518	3245.18
671.709	3304.57
671.9	3290.23
672.091	3241.08
672.282	3265.66
672.473	3265.66
672.664	3193.98
672.855	3243.13
673.046	3196.03
673.237	3224.7
673.428	3130.49
673.619	3114.11
673.809	3085.44
674	3114.11
674.191	3196.03
674.382	3015.8
674.573	3073.15
674.764	3218.55
674.954	3193.98
675.145	3011.71
675.336	3093.63
675.527	3038.33
675.717	3050.62
675.908	3128.44
676.099	3005.56
676.289	2962.56
676.48	3071.1
676.671	2972.8
676.861	2882.69
677.052	3009.66
677.243	2890.88
677.433	2966.65
677.624	2997.37
677.814	3040.38
678.005	2940.03
678.195	2974.85
678.386	2954.37
678.576	2940.03
678.767	2888.83
678.957	2999.42
679.148	3021.95
679.338	2921.6
679.529	2911.36
679.719	2892.93
679.909	3036.28
680.1	3054.72
680.29	2964.61
680.481	2880.64
680.671	3085.44
680.861	2940.03
681.052	2845.82
681.242	2901.12
681.432	2929.79
681.622	2872.45
681.813	2874.49
682.003	2823.3
682.193	2942.08
682.383	2884.73
682.573	2794.62
682.764	2866.3
682.954	2929.79
683.144	2966.65
683.334	2868.35
683.524	2993.28
683.714	2954.37
683.904	2839.68
684.094	2937.98
684.284	2995.32
684.474	2882.69
684.664	2897.02
684.854	2792.58
685.044	2925.69
685.234	2856.06
685.424	2888.83
685.614	2806.91
685.804	2835.58
685.994	2692.23
686.184	2825.34
686.374	2835.58
686.564	2755.71
686.753	2808.96
686.943	2892.93
687.133	2784.38
687.323	2858.11
687.513	2765.95
687.702	2841.73
687.892	2741.38
688.082	2727.04
688.272	2847.87
688.461	2798.72
688.651	2774.14
688.841	2757.76
689.03	2765.95
689.22	2647.17
689.41	2593.92
689.599	2702.47
689.789	2741.38
689.979	2645.12
690.168	2606.21
690.358	2653.31
690.547	2548.87
690.737	2638.98
690.926	2538.63
691.116	2579.59
691.305	2616.45
691.495	2487.43
691.684	2638.98
691.874	2544.77
692.063	2561.16
692.252	2483.33
692.442	2579.59
692.631	2469
692.82	2536.58
693.01	2438.28
693.199	2497.67
693.388	2428.04
693.578	2376.84
693.767	2423.94
693.956	2438.28
694.146	2462.85
694.335	2397.32
694.524	2479.24
694.713	2417.8
694.902	2417.8
695.092	2503.81
695.281	2446.47
695.47	2389.13
695.659	2342.02
695.848	2290.82
696.037	2413.7
696.226	2229.38
696.415	2356.36
696.604	2339.97
696.793	2339.97
696.982	2344.07
697.171	2294.92
697.36	2251.91
697.549	2333.83
697.738	2317.45
697.927	2358.41
698.116	2327.69
698.305	2376.84
698.494	2262.15
698.683	2213
698.872	2374.79
699.061	2264.2
699.25	2307.21
699.438	2299.02
699.627	2331.78
699.816	2417.8
700.005	2325.64
700.193	2237.58
700.382	2423.94
700.571	2366.6
700.76	2303.11
700.948	2350.21
701.137	2274.44
701.326	2262.15
701.514	2294.92
701.703	2243.72
701.892	2243.72
702.08	2337.93
702.269	2284.68
702.457	2415.75
702.646	2286.73
702.834	2389.13
703.023	2325.64
703.212	2258.06
703.4	2215.05
703.589	2292.87
703.777	2241.67
703.965	2284.68
704.154	2208.9
704.342	2163.85
704.531	2118.79
704.719	2202.76
704.907	2260.1
705.096	2213
705.284	2276.49
705.472	2249.86
705.661	2153.61
705.849	2339.97
706.037	2169.99
706.226	2282.63
706.414	2276.49
706.602	2208.9
706.79	2309.26
706.979	2174.09
707.167	2225.29
707.355	2286.73
707.543	2311.3
707.731	2342.02
707.919	2299.02
708.107	2057.36
708.296	2169.99
708.484	2229.38
708.672	2208.9
708.86	2157.71
709.048	2229.38
709.236	2145.42
709.424	2299.02
709.612	2147.47
709.8	2106.51
709.988	2200.71
710.176	2139.27
710.364	2237.58
710.551	2159.75
710.739	2266.25
710.927	2149.51
711.115	2253.96
711.303	2073.74
711.491	2202.76
711.679	2149.51
711.866	2219.14
712.054	2167.95
712.242	2176.14
712.43	2192.52
712.617	2227.34
712.805	2161.8
712.993	2258.06
713.181	2194.57
713.368	2172.04
713.556	2094.22
713.744	2256.01
713.931	2241.67
714.119	2243.72
714.306	2270.34
714.494	2143.37
714.682	2077.83
714.869	2167.95
715.057	2139.27
715.244	2122.89
715.432	2210.95
715.619	2274.44
715.807	2241.67
715.994	2258.06
716.182	2126.99
716.369	2241.67
716.556	2159.75
716.744	2196.62
716.931	2169.99
717.119	2182.28
717.306	2270.34
717.493	2110.6
717.681	2053.26
717.868	2126.99
718.055	2100.36
718.242	2126.99
718.43	2155.66
718.617	2268.3
718.804	2174.09
718.991	2219.14
719.179	2180.23
719.366	2145.42
719.553	2225.29
719.74	2049.16
719.927	2217.1
720.114	2106.51
720.301	2180.23
720.488	2114.7
720.676	2098.31
720.863	2213
721.05	2120.84
721.237	2186.38
721.424	2198.67
721.611	2192.52
721.798	2219.14
721.985	2077.83
722.172	2196.62
722.358	2153.61
722.545	2159.75
722.732	2229.38
722.919	2258.06
723.106	2149.51
723.293	2147.47
723.48	2237.58
723.667	2194.57
723.853	2004.11
724.04	2174.09
724.227	2167.95
724.414	2131.08
724.6	2167.95
724.787	2096.27
724.974	2112.65
725.161	2129.03
725.347	2143.37
725.534	2176.14
725.72	2169.99
725.907	2151.56
726.094	2188.43
726.28	2129.03
726.467	2081.93
726.653	2061.45
726.84	2184.33
727.027	2204.81
727.213	2053.26
727.4	2102.41
727.586	2151.56
727.773	2172.04
727.959	1981.58
728.145	2112.65
728.332	2102.41
728.518	2200.71
728.705	1981.58
728.891	2057.36
729.077	2159.75
729.264	2174.09
729.45	2225.29
729.636	2024.59
729.823	1961.1
730.009	2092.17
730.195	2100.36
730.382	2124.94
730.568	2159.75
730.754	2172.04
730.94	2202.76
731.126	2225.29
731.313	2143.37
731.499	2126.99
731.685	2167.95
731.871	2172.04
732.057	2153.61
732.243	2065.55
732.429	2086.03
732.615	2112.65
732.801	2106.51
732.987	2081.93
733.173	2143.37
733.359	2135.18
733.545	2131.08
733.731	2086.03
733.917	2139.27
734.103	2188.43
734.289	2110.6
734.475	2086.03
734.661	2030.73
734.847	1989.77
735.033	2020.49
735.219	2110.6
735.404	1973.39
735.59	2043.02
735.776	2081.93
735.962	2120.84
736.148	2153.61
736.333	2126.99
736.519	2135.18
736.705	1948.81
736.89	2071.69
737.076	2077.83
737.262	1991.82
737.447	2057.36
737.633	1987.72
737.819	2122.89
738.004	2030.73
738.19	2032.78
738.375	1993.87
738.561	2051.21
738.747	2098.31
738.932	2049.16
739.118	1991.82
739.303	1963.15
739.489	2049.16
739.674	1932.43
739.859	2024.59
740.045	1959.05
740.23	1866.89
740.416	1952.91
740.601	1981.58
740.786	1989.77
740.972	2006.16
741.157	1967.24
741.342	1965.2
741.528	1877.13
741.713	2012.3
741.898	1979.53
742.084	1950.86
742.269	1893.52
742.454	1985.68
742.639	1905.81
742.824	1907.85
743.01	1893.52
743.195	1918.09
743.38	1963.15
743.565	1971.34
743.75	1848.46
743.935	1830.03
744.12	1899.66
744.305	1772.69
744.49	1830.03
744.675	1899.66
744.86	1856.65
745.045	1836.17
745.23	1846.41
745.415	1819.79
745.6	1744.02
745.785	1768.59
745.97	1799.31
746.155	1799.31
746.34	1766.54
746.525	1733.78
746.71	1809.55
746.895	1782.93
747.079	1692.82
747.264	1778.83
747.449	1664.15
747.634	1727.63
747.819	1721.49
748.003	1639.57
748.188	1655.95
748.373	1635.47
748.557	1703.06
748.742	1627.28
748.927	1610.9
749.111	1641.62
749.296	1510.55
749.481	1594.51
749.665	1584.27
749.85	1510.55
750.034	1588.37
750.219	1516.69
750.404	1545.36
750.588	1481.88
750.773	1541.27
750.957	1440.92
751.141	1571.99
751.326	1492.12
751.51	1453.2
751.695	1492.12
751.879	1447.06
752.064	1371.29
752.248	1414.29
752.432	1490.07
752.617	1422.48
752.801	1473.68
752.985	1381.53
753.17	1481.88
753.354	1350.81
753.538	1371.29
753.722	1371.29
753.907	1422.48
754.091	1293.46
754.275	1277.08
754.459	1328.28
754.643	1291.41
754.828	1315.99
755.012	1268.89
755.196	1234.07
755.38	1254.55
755.564	1301.65
755.748	1176.73
755.932	1203.35
756.116	1225.88
756.3	1252.5
756.484	1240.22
756.668	1238.17
756.852	1131.67
757.036	1182.87
757.22	1197.21
757.404	1174.68
757.588	1201.3
757.772	1148.06
757.956	1189.02
758.14	1184.92
758.323	1154.2
758.507	1152.15
758.691	1115.29
758.875	1117.34
759.059	1119.39
759.242	1039.51
759.426	1070.23
759.61	1105.05
759.794	1062.04
759.977	1078.43
760.161	1084.57
760.345	967.84
760.528	1135.77
760.712	982.17
760.895	1043.61
761.079	1045.66
761.263	1143.96
761.446	1041.56
761.63	1078.43
761.813	1074.33
761.997	1012.89
762.18	912.54
762.364	963.74
762.547	910.49
762.731	922.78
762.914	988.32
763.098	906.4
763.281	933.02
763.464	976.03
763.648	910.49
763.831	887.97
764.015	955.55
764.198	898.2
764.381	933.02
764.564	826.53
764.748	851.1
764.931	885.92
765.114	906.4
765.297	939.16
765.481	881.82
765.664	971.93
765.847	920.73
766.03	914.59
766.213	799.9
766.397	930.97
766.58	838.81
766.763	994.46
766.946	814.24
767.129	795.81
767.312	869.53
767.495	851.1
767.678	822.43
767.861	865.44
768.044	859.29
768.227	865.44
768.41	851.1
768.593	760.99
768.776	832.67
768.959	793.76
769.142	691.36
769.324	777.37
769.507	709.79
769.69	791.71
769.873	687.26
770.056	879.77
770.239	797.85
770.421	859.29
770.604	758.94
770.787	793.76
770.97	775.33
771.152	799.9
771.335	695.46
771.518	717.98
771.7	849.05
771.883	808.09
772.066	769.18
772.248	677.02
772.431	787.61
772.613	783.52
772.796	664.74
772.978	758.94
773.161	738.46
773.343	715.94
773.526	697.5
773.708	648.35
773.891	681.12
774.073	693.41
774.256	595.11
774.438	679.07
774.621	697.5
774.803	611.49
774.985	650.4
775.168	627.87
775.35	562.34
775.532	730.27
775.715	629.92
775.897	681.12
776.079	580.77
776.261	605.35
776.444	523.43
776.626	591.01
776.808	550.05
776.99	636.06
777.173	574.63
777.355	603.3
777.537	566.43
777.719	646.3
777.901	500.9
778.083	566.43
778.265	464.04
778.447	539.81
778.629	595.11
778.811	541.86
778.993	586.91
779.175	627.87
779.357	525.47
779.539	595.11
779.721	529.57
779.903	562.34
780.085	476.32
780.267	498.85
780.449	457.89
780.631	443.56
780.812	509.09
780.994	484.52
781.176	591.01
781.358	414.88
781.54	406.69
781.721	521.38
781.903	545.95
782.085	447.65
782.267	580.77
782.448	435.36
782.63	472.23
782.812	421.03
782.993	447.65
783.175	466.08
783.357	504.99
783.538	468.13
783.72	431.27
783.901	382.12
784.083	445.6
784.264	453.8
784.446	390.31
784.627	459.94
784.809	418.98
784.99	349.35
785.172	402.6
785.353	451.75
785.535	369.83
785.716	369.83
785.897	302.25
786.079	423.08
786.26	408.74
786.441	365.73
786.623	345.25
786.804	359.59
786.985	324.77
787.167	410.79
787.348	337.06
787.529	341.16
787.71	300.2
787.891	398.5
788.073	308.39
788.254	300.2
788.435	369.83
788.616	277.67
788.797	312.49
788.978	343.21
789.159	328.87
789.34	267.43
789.522	396.45
789.703	294.05
789.884	347.3
790.065	285.86
790.246	359.59
790.427	246.95
790.607	314.53
790.788	392.36
790.969	324.77
791.15	371.88
791.331	320.68
791.512	238.76
791.693	357.54
791.874	302.25
792.054	359.59
792.235	359.59
792.416	277.67
792.597	236.71
792.778	300.2
792.958	361.64
793.139	294.05
793.32	296.1
793.5	257.19
793.681	234.66
793.862	255.14
794.042	310.44
794.223	183.46
794.404	267.43
794.584	201.9
794.765	302.25
794.945	271.53
795.126	246.95
795.306	292.01
795.487	179.37
795.667	259.24
795.848	337.06
796.028	296.1
796.209	300.2
796.389	138.41
796.57	253.09
796.75	246.95
796.93	128.17
797.111	341.16
797.291	283.81
797.471	171.18
797.652	189.61
797.832	165.03
798.012	246.95
798.192	224.42
798.373	177.32
798.553	197.8
798.733	253.09
798.913	181.42
799.093	261.29
799.274	304.29
799.454	201.9
799.634	205.99
799.814	189.61
799.994	228.52
800.174	205.99
800.354	205.99
800.534	193.7
800.714	181.42
800.894	236.71
801.074	152.74
801.254	179.37
801.434	253.09
801.614	193.7
801.794	187.56
801.974	726.18
802.154	263.33
802.334	167.08
802.514	203.94
802.693	222.38
802.873	160.94
803.053	171.18
803.233	185.51
803.413	177.32
803.592	208.04
803.772	226.47
803.952	160.94
804.131	193.7
804.311	173.22
804.491	244.9
804.67	152.74
804.85	122.02
805.03	201.9
805.209	201.9
805.389	144.55
805.568	232.62
805.748	160.94
805.928	232.62
806.107	193.7
806.287	148.65
806.466	205.99
806.646	205.99
806.825	160.94
807.004	177.32
807.184	144.55
807.363	128.17
807.543	132.26
807.722	175.27
807.901	181.42
808.081	128.17
808.26	136.36
808.439	189.61
808.619	169.13
808.798	181.42
808.977	205.99
809.156	199.85
809.336	156.84
809.515	169.13
809.694	109.74
809.873	119.98
810.052	169.13
810.231	226.47
810.411	103.59
810.59	89.26
810.769	113.83
810.948	148.65
811.127	87.21
811.306	97.45
811.485	160.94
811.664	216.23
811.843	144.55
812.022	173.22
812.201	70.83
812.38	113.83
812.559	103.59
812.737	113.83
812.916	171.18
813.095	205.99
813.274	95.4
813.453	169.13
813.632	162.98
813.811	187.56
813.989	148.65
814.168	160.94
814.347	160.94
814.526	128.17
814.704	169.13
814.883	134.31
815.062	87.21
815.24	138.41
815.419	38.06
815.598	179.37
815.776	160.94
815.955	162.98
816.133	68.78
816.312	87.21
816.49	111.78
816.669	66.73
816.847	85.16
817.026	109.74
817.204	122.02
817.383	144.55
817.561	97.45
817.74	154.79
817.918	68.78
818.097	79.02
818.275	105.64
818.453	76.97
818.632	160.94
818.81	31.91
818.988	119.98
819.167	119.98
819.345	70.83
819.523	62.63
819.701	99.5
819.879	140.46
820.058	156.84
820.236	81.07
820.414	91.31
820.592	89.26
820.77	13.48
820.948	91.31
821.127	132.26
821.305	138.41
821.483	72.87
821.661	107.69
821.839	115.88
822.017	132.26
822.195	177.32
822.373	79.02
822.551	97.45
822.729	111.78
822.907	46.25
823.085	193.7
823.262	165.03
823.44	97.45
823.618	130.22
823.796	97.45
823.974	124.07
824.152	56.49
824.329	56.49
824.507	95.4
824.685	-29.52
824.863	89.26
825.04	7.34
825.218	175.27
825.396	130.22
825.574	7.34
825.751	87.21
825.929	68.78
826.107	83.11
826.284	89.26
826.462	70.83
826.639	99.5
826.817	-2.9
826.994	44.2
827.172	62.63
827.349	140.46
827.527	95.4
827.704	152.74
827.882	89.26
828.059	70.83
828.237	70.83
828.414	33.96
828.591	17.58
828.769	128.17
828.946	87.21
829.124	46.25
829.301	48.3
829.478	48.3
829.655	103.59
829.833	56.49
830.01	-0.85
830.187	13.48
830.364	50.35
830.542	3.24
830.719	83.11
830.896	152.74
831.073	70.83
831.25	103.59
831.427	15.53
831.604	29.87
831.782	58.54
831.959	74.92
832.136	46.25
832.313	68.78
832.49	68.78
832.667	87.21
832.844	72.87
833.021	87.21
833.198	72.87
833.374	50.35
833.551	95.4
833.728	66.73
833.905	146.6
834.082	31.91
834.259	83.11
834.436	68.78
834.612	-15.19
834.789	66.73
834.966	48.3
835.143	66.73
835.319	31.91
835.496	9.39
835.673	36.01
835.85	54.44
836.026	130.22
836.203	81.07
836.38	60.59
836.556	56.49
836.733	-17.24
836.909	-9.05
837.086	13.48
837.262	95.4
837.439	-0.85
837.616	11.43
837.792	56.49
837.968	25.77
838.145	48.3
838.321	31.91
838.498	-11.09
838.674	66.73
838.851	23.72
839.027	89.26
839.203	-2.9
839.38	103.59
839.556	56.49
839.732	119.98
839.909	38.06
840.085	81.07
840.261	31.91
840.437	44.2
840.614	-17.24
840.79	87.21
840.966	-29.52
841.142	48.3
841.318	46.25
841.494	21.67
841.671	128.17
841.847	29.87
842.023	15.53
842.199	50.35
842.375	66.73
842.551	36.01
842.727	-15.19
842.903	128.17
843.079	40.11
843.255	33.96
843.431	85.16
843.607	38.06
843.783	7.34
843.959	42.15
844.134	40.11
844.31	21.67
844.486	7.34
844.662	5.29
844.838	-33.62
845.013	13.48
845.189	62.63
845.365	33.96
845.541	72.87
845.716	70.83
845.892	68.78
846.068	25.77
846.244	15.53
846.419	29.87
846.595	-23.38
846.77	25.77
846.946	79.02
847.122	83.11
847.297	-17.24
847.473	13.48
847.648	-11.09
847.824	99.5
847.999	17.58
848.175	40.11
848.35	72.87
848.526	76.97
848.701	70.83
848.876	9.39
849.052	38.06
849.227	-27.48
849.403	91.31
849.578	60.59
849.753	7.34
849.929	54.44
850.104	50.35
850.279	1.19
850.454	54.44
850.63	7.34
850.805	89.26
850.98	-7
851.155	17.58
851.33	40.11
851.505	-7
851.681	62.63
851.856	11.43
852.031	111.78
852.206	21.67
852.381	5.29
852.556	105.64
852.731	7.34
852.906	-11.09
853.081	54.44
853.256	95.4
853.431	-25.43
853.606	29.87
853.781	42.15
853.956	-47.96
854.131	74.92
854.305	48.3
854.48	-15.19
854.655	3.24
854.83	50.35
855.005	-35.67
855.18	54.44
855.354	62.63
855.529	23.72
855.704	-23.38
855.879	-43.86
856.053	-66.39
856.228	56.49
856.403	-17.24
856.577	66.73
856.752	13.48
856.926	54.44
857.101	81.07
857.276	66.73
857.45	29.87
857.625	62.63
857.799	29.87
857.974	48.3
858.148	-58.2
858.323	50.35
858.497	-19.29
858.672	29.87
858.846	-17.24
859.02	31.91
859.195	-19.29
859.369	70.83
859.543	-7
859.718	52.39
859.892	113.83
860.066	-2.9
860.241	111.78
860.415	21.67
860.589	-35.67
860.763	79.02
860.938	-0.85
861.112	64.68
861.286	-15.19
861.46	31.91
861.634	50.35
861.808	95.4
861.982	46.25
862.157	11.43
862.331	42.15
862.505	62.63
862.679	-19.29
862.853	21.67
863.027	-7
863.201	74.92
863.375	-25.43
863.549	66.73
863.722	46.25
863.896	5.29
864.07	38.06
864.244	29.87
864.418	3.24
864.592	62.63
864.766	42.15
864.939	-29.52
865.113	-33.62
865.287	54.44
865.461	23.72
865.634	-21.33
865.808	38.06
865.982	13.48
866.156	17.58
866.329	-54.1
866.503	76.97
866.676	113.83
866.85	17.58
867.024	-13.14
867.197	40.11
867.371	103.59
867.544	15.53
867.718	-2.9
867.891	5.29
868.065	-74.58
868.238	9.39
868.412	66.73
868.585	1.19
868.759	29.87
868.932	9.39
869.105	38.06
869.279	-25.43
869.452	-21.33
869.625	95.4
869.799	25.77
869.972	13.48
870.145	-60.24
870.319	7.34
870.492	62.63
870.665	38.06
870.838	-17.24
871.011	-2.9
871.185	13.48
871.358	-2.9
871.531	25.77
871.704	40.11
871.877	-19.29
872.05	-21.33
872.223	-39.76
872.396	31.91
872.569	42.15
872.742	1.19
872.915	38.06
873.088	-68.44
873.261	-4.95
873.434	17.58
873.607	17.58
873.78	-27.48
873.953	-88.92
874.126	5.29
874.299	23.72
874.471	31.91
874.644	-2.9
874.817	23.72
874.99	83.11
875.163	-21.33
875.335	44.2
875.508	40.11
875.681	33.96
875.853	40.11
876.026	-2.9
876.199	5.29
876.371	25.77
876.544	-2.9
876.717	1.19
876.889	-19.29
877.062	33.96
877.234	-17.24
877.407	44.2
877.579	-47.96
877.752	97.45
877.924	46.25
878.097	17.58
878.269	-15.19
878.442	56.49
878.614	-47.96
878.786	9.39
878.959	-43.86
879.131	3.24
879.303	-93.01
879.476	17.58
879.648	46.25
879.82	31.91
879.993	23.72
880.165	-39.76
880.337	-27.48
880.509	87.21
880.681	-84.82
880.854	-23.38
881.026	13.48
881.198	91.31
881.37	-72.53
881.542	-2.9
881.714	5.29
881.886	21.67
882.058	95.4
882.23	40.11
882.402	50.35
882.574	-45.91
882.746	-29.52
882.918	81.07
883.09	13.48
883.262	-9.05
883.434	-23.38
883.606	23.72
883.778	29.87
883.95	-11.09
884.122	21.67
884.293	-19.29
884.465	29.87
884.637	-21.33
884.809	29.87
884.98	48.3
885.152	-15.19
885.324	38.06
885.496	-43.86
885.667	-11.09
885.839	-25.43
886.011	48.3
886.182	7.34
886.354	13.48
886.525	21.67
886.697	15.53
886.869	9.39
887.04	-29.52
887.212	62.63
887.383	17.58
887.555	70.83
887.726	17.58
887.897	-64.34
888.069	25.77
888.24	89.26
888.412	7.34
888.583	62.63
888.754	-39.76
888.926	-33.62
889.097	31.91
889.268	-27.48
889.44	-2.9
889.611	-19.29
889.782	3.24
889.953	-7
890.125	81.07
890.296	-15.19
890.467	38.06
890.638	-47.96
890.809	-15.19
890.98	29.87
891.151	17.58
891.323	7.34
891.494	-11.09
891.665	-11.09
891.836	-19.29
892.007	-19.29
892.178	15.53
892.349	95.4
892.52	-7
892.691	40.11
892.862	5.29
893.032	7.34
893.203	15.53
893.374	17.58
893.545	36.01
893.716	-23.38
893.887	-19.29
894.057	21.67
894.228	52.39
894.399	-52.05
894.57	23.72
894.74	-78.68
894.911	50.35
895.082	21.67
895.253	17.58
895.423	50.35
895.594	17.58
895.764	17.58
895.935	-78.68
896.106	64.68
896.276	29.87
896.447	-31.57
896.617	29.87
896.788	15.53
896.958	7.34
897.129	-60.24
897.299	-2.9
897.47	11.43
897.64	3.24
897.81	48.3
897.981	-17.24
898.151	-4.95
898.322	-23.38
898.492	7.34
898.662	-29.52
898.832	-19.29
899.003	-43.86
899.173	64.68
899.343	62.63
899.513	-11.09
