Data from USB4F104151__95__14-18-00-660.txt Node

Date: Thu Mar 13 14:18:00 EDT 2025
User: louis
Spectrometer: USB4F10415
Trigger mode: 4
Integration Time (sec): 2.000000E-2
Scans to average: 1
Electric dark correction enabled: true
Nonlinearity correction enabled: false
Boxcar width: 0
XAxis mode: Wavelengths
Number of Pixels in Spectrum: 3648
>>>>>Begin Spectral Data<<<<<
178.204	-83.8
178.424	-83.8
178.644	-83.8
178.864	-137.04
179.084	-53.08
179.304	-46.93
179.524	-36.69
179.744	8.36
179.964	16.55
180.184	57.51
180.404	39.08
180.624	-46.93
180.844	65.71
181.064	-65.36
181.283	-28.5
181.503	24.75
181.723	12.46
181.943	-46.93
182.163	14.51
182.383	37.03
182.602	37.03
182.822	65.71
183.042	-67.41
183.262	28.84
183.482	2.22
183.701	8.36
183.921	20.65
184.141	24.75
184.361	73.9
184.58	0.17
184.8	-12.12
185.02	37.03
185.239	80.04
185.459	24.75
185.679	61.61
185.898	30.89
186.118	82.09
186.338	67.75
186.557	37.03
186.777	22.7
186.997	8.36
187.216	32.94
187.436	80.04
187.655	24.75
187.875	90.28
188.095	45.23
188.314	118.95
188.534	37.03
188.753	0.17
188.973	65.71
189.192	96.43
189.412	57.51
189.631	4.27
189.851	12.46
190.07	51.37
190.29	20.65
190.509	28.84
190.729	-20.31
190.948	82.09
191.168	88.23
191.387	94.38
191.607	32.94
191.826	57.51
192.045	45.23
192.265	12.46
192.484	100.52
192.704	65.71
192.923	4.27
193.142	20.65
193.362	-12.12
193.581	71.85
193.8	-20.31
194.02	86.19
194.239	28.84
194.458	73.9
194.678	-71.51
194.897	4.27
195.116	37.03
195.335	30.89
195.555	88.23
195.774	39.08
195.993	106.67
196.212	-22.36
196.432	12.46
196.651	88.23
196.87	39.08
197.089	43.18
197.308	127.14
197.528	96.43
197.747	-36.69
197.966	-77.65
198.185	108.71
198.404	-3.93
198.623	51.37
198.842	49.32
199.062	84.14
199.281	102.57
199.5	63.66
199.719	-53.08
199.938	14.51
200.157	84.14
200.376	55.47
200.595	123.05
200.814	69.8
201.033	6.31
201.252	88.23
201.471	-10.07
201.69	77.99
201.909	4.27
202.128	53.42
202.347	4.27
202.566	41.13
202.785	45.23
203.004	24.75
203.223	92.33
203.442	39.08
203.661	47.27
203.879	37.03
204.098	14.51
204.317	22.7
204.536	96.43
204.755	102.57
204.974	75.95
205.193	-3.93
205.411	106.67
205.63	90.28
205.849	20.65
206.068	30.89
206.287	114.86
206.505	45.23
206.724	20.65
206.943	69.8
207.162	-12.12
207.381	116.9
207.599	8.36
207.818	18.6
208.037	37.03
208.255	65.71
208.474	77.99
208.693	51.37
208.911	47.27
209.13	88.23
209.349	30.89
209.567	67.75
209.786	61.61
210.005	65.71
210.223	106.67
210.442	61.61
210.661	63.66
210.879	34.99
211.098	-26.45
211.316	57.51
211.535	22.7
211.753	-3.93
211.972	45.23
212.191	-3.93
212.409	41.13
212.628	-3.93
212.846	4.27
213.065	82.09
213.283	86.19
213.502	-40.79
213.72	86.19
213.938	37.03
214.157	28.84
214.375	32.94
214.594	28.84
214.812	98.47
215.031	84.14
215.249	-3.93
215.467	39.08
215.686	-32.6
215.904	61.61
216.122	-3.93
216.341	16.55
216.559	28.84
216.778	96.43
216.996	-3.93
217.214	37.03
217.432	-22.36
217.651	-1.88
217.869	-32.6
218.087	53.42
218.306	63.66
218.524	73.9
218.742	57.51
218.96	39.08
219.179	37.03
219.397	10.41
219.615	8.36
219.833	61.61
220.051	-16.21
220.27	-18.26
220.488	86.19
220.706	77.99
220.924	55.47
221.142	18.6
221.36	86.19
221.578	28.84
221.796	73.9
222.015	49.32
222.233	75.95
222.451	61.61
222.669	-40.79
222.887	69.8
223.105	-36.69
223.323	45.23
223.541	26.79
223.759	41.13
223.977	-1.88
224.195	8.36
224.413	34.99
224.631	63.66
224.849	53.42
225.067	77.99
225.285	84.14
225.503	16.55
225.721	-10.07
225.939	-8.02
226.157	22.7
226.375	14.51
226.592	80.04
226.81	20.65
227.028	-51.03
227.246	12.46
227.464	61.61
227.682	57.51
227.9	39.08
228.117	45.23
228.335	73.9
228.553	73.9
228.771	20.65
228.989	90.28
229.206	37.03
229.424	24.75
229.642	41.13
229.86	39.08
230.077	129.19
230.295	37.03
230.513	24.75
230.731	53.42
230.948	57.51
231.166	86.19
231.384	-12.12
231.601	39.08
231.819	139.43
232.037	37.03
232.254	28.84
232.472	86.19
232.689	45.23
232.907	28.84
233.125	20.65
233.342	8.36
233.56	-71.51
233.777	-3.93
233.995	28.84
234.213	92.33
234.43	45.23
234.648	71.85
234.865	67.75
235.083	4.27
235.3	34.99
235.518	82.09
235.735	51.37
235.953	69.8
236.17	49.32
236.388	20.65
236.605	39.08
236.822	-1.88
237.04	116.9
237.257	30.89
237.475	-42.84
237.692	57.51
237.909	53.42
238.127	57.51
238.344	2.22
238.562	75.95
238.779	-10.07
238.996	-1.88
239.214	14.51
239.431	22.7
239.648	28.84
239.865	61.61
240.083	71.85
240.3	32.94
240.517	10.41
240.735	61.61
240.952	102.57
241.169	63.66
241.386	20.65
241.603	41.13
241.821	-3.93
242.038	80.04
242.255	63.66
242.472	12.46
242.689	47.27
242.907	4.27
243.124	-14.17
243.341	49.32
243.558	30.89
243.775	57.51
243.992	55.47
244.209	80.04
244.426	37.03
244.643	65.71
244.86	-24.4
245.078	80.04
245.295	20.65
245.512	106.67
245.729	28.84
245.946	53.42
246.163	41.13
246.38	110.76
246.597	37.03
246.814	20.65
247.031	96.43
247.248	12.46
247.464	4.27
247.681	37.03
247.898	37.03
248.115	100.52
248.332	14.51
248.549	86.19
248.766	155.82
248.983	41.13
249.2	55.47
249.417	61.61
249.633	73.9
249.85	121
250.067	47.27
250.284	61.61
250.501	77.99
250.717	69.8
250.934	37.03
251.151	94.38
251.368	53.42
251.585	34.99
251.801	118.95
252.018	-28.5
252.235	92.33
252.451	28.84
252.668	20.65
252.885	53.42
253.102	65.71
253.318	49.32
253.535	8.36
253.752	16.55
253.968	41.13
254.185	141.48
254.401	6.31
254.618	71.85
254.835	73.9
255.051	110.76
255.268	63.66
255.484	106.67
255.701	37.03
255.917	86.19
256.134	16.55
256.351	71.85
256.567	51.37
256.784	53.42
257	12.46
257.217	69.8
257.433	-8.02
257.65	135.34
257.866	63.66
258.082	-1.88
258.299	4.27
258.515	71.85
258.732	61.61
258.948	-1.88
259.165	32.94
259.381	-18.26
259.597	53.42
259.814	53.42
260.03	-3.93
260.246	-20.31
260.463	96.43
260.679	57.51
260.895	28.84
261.112	114.86
261.328	2.22
261.544	86.19
261.761	110.76
261.977	69.8
262.193	65.71
262.409	28.84
262.626	39.08
262.842	127.14
263.058	49.32
263.274	57.51
263.49	28.84
263.707	108.71
263.923	4.27
264.139	28.84
264.355	12.46
264.571	82.09
264.787	63.66
265.004	77.99
265.22	-3.93
265.436	98.47
265.652	53.42
265.868	6.31
266.084	6.31
266.3	63.66
266.516	34.99
266.732	14.51
266.948	-12.12
267.164	45.23
267.38	22.7
267.596	12.46
267.812	108.71
268.028	86.19
268.244	104.62
268.46	45.23
268.676	20.65
268.892	86.19
269.108	63.66
269.324	-36.69
269.54	30.89
269.756	4.27
269.972	16.55
270.188	28.84
270.403	-8.02
270.619	118.95
270.835	12.46
271.051	34.99
271.267	118.95
271.483	14.51
271.698	37.03
271.914	118.95
272.13	18.6
272.346	59.56
272.562	32.94
272.777	34.99
272.993	26.79
273.209	8.36
273.425	88.23
273.64	86.19
273.856	39.08
274.072	32.94
274.287	4.27
274.503	102.57
274.719	12.46
274.934	20.65
275.15	-14.17
275.366	114.86
275.581	6.31
275.797	73.9
276.012	106.67
276.228	57.51
276.444	37.03
276.659	82.09
276.875	94.38
277.09	53.42
277.306	59.56
277.521	37.03
277.737	-3.93
277.952	71.85
278.168	30.89
278.383	57.51
278.599	43.18
278.814	18.6
279.03	45.23
279.245	37.03
279.461	26.79
279.676	77.99
279.892	0.17
280.107	-10.07
280.322	24.75
280.538	8.36
280.753	67.75
280.969	24.75
281.184	-12.12
281.399	80.04
281.615	88.23
281.83	-51.03
282.045	22.7
282.26	37.03
282.476	49.32
282.691	53.42
282.906	30.89
283.122	-1.88
283.337	30.89
283.552	0.17
283.767	0.17
283.983	61.61
284.198	10.41
284.413	28.84
284.628	6.31
284.843	10.41
285.058	55.47
285.274	75.95
285.489	129.19
285.704	49.32
285.919	-12.12
286.134	41.13
286.349	47.27
286.564	51.37
286.779	77.99
286.995	32.94
287.21	-3.93
287.425	69.8
287.64	37.03
287.855	65.71
288.07	4.27
288.285	43.18
288.5	63.66
288.715	30.89
288.93	-18.26
289.145	45.23
289.36	39.08
289.575	0.17
289.79	69.8
290.004	100.52
290.219	59.56
290.434	82.09
290.649	65.71
290.864	61.61
291.079	65.71
291.294	71.85
291.509	69.8
291.724	10.41
291.938	49.32
292.153	37.03
292.368	24.75
292.583	39.08
292.798	47.27
293.012	6.31
293.227	67.75
293.442	47.27
293.657	45.23
293.871	96.43
294.086	94.38
294.301	47.27
294.516	67.75
294.73	69.8
294.945	73.9
295.16	139.43
295.374	53.42
295.589	67.75
295.804	28.84
296.018	12.46
296.233	61.61
296.447	84.14
296.662	61.61
296.877	71.85
297.091	18.6
297.306	-20.31
297.52	10.41
297.735	110.76
297.949	53.42
298.164	0.17
298.378	-20.31
298.593	28.84
298.807	37.03
299.022	28.84
299.236	135.34
299.451	100.52
299.665	69.8
299.88	30.89
300.094	92.33
300.309	59.56
300.523	2.22
300.737	102.57
300.952	80.04
301.166	28.84
301.381	14.51
301.595	69.8
301.809	98.47
302.024	22.7
302.238	86.19
302.452	135.34
302.667	73.9
302.881	131.24
303.095	86.19
303.309	24.75
303.524	45.23
303.738	-8.02
303.952	43.18
304.166	57.51
304.381	-34.64
304.595	24.75
304.809	55.47
305.023	22.7
305.237	69.8
305.452	14.51
305.666	8.36
305.88	77.99
306.094	53.42
306.308	4.27
306.522	121
306.736	63.66
306.95	16.55
307.164	-18.26
307.379	20.65
307.593	14.51
307.807	106.67
308.021	24.75
308.235	112.81
308.449	53.42
308.663	0.17
308.877	86.19
309.091	94.38
309.305	61.61
309.519	14.51
309.733	39.08
309.947	116.9
310.161	98.47
310.374	67.75
310.588	86.19
310.802	4.27
311.016	69.8
311.23	71.85
311.444	-48.98
311.658	65.71
311.872	94.38
312.085	63.66
312.299	34.99
312.513	106.67
312.727	37.03
312.941	71.85
313.154	71.85
313.368	55.47
313.582	65.71
313.796	49.32
314.009	57.51
314.223	77.99
314.437	104.62
314.651	28.84
314.864	96.43
315.078	24.75
315.292	71.85
315.505	37.03
315.719	41.13
315.933	-1.88
316.146	18.6
316.36	-24.4
316.573	49.32
316.787	71.85
317.001	94.38
317.214	-26.45
317.428	96.43
317.641	-3.93
317.855	121
318.068	-16.21
318.282	37.03
318.495	51.37
318.709	24.75
318.922	-3.93
319.136	102.57
319.349	94.38
319.563	104.62
319.776	-22.36
319.99	-16.21
320.203	92.33
320.417	88.23
320.63	94.38
320.843	143.53
321.057	53.42
321.27	65.71
321.483	71.85
321.697	69.8
321.91	77.99
322.124	49.32
322.337	77.99
322.55	61.61
322.763	49.32
322.977	75.95
323.19	73.9
323.403	59.56
323.617	96.43
323.83	24.75
324.043	57.51
324.256	-5.97
324.469	37.03
324.683	-53.08
324.896	24.75
325.109	102.57
325.322	22.7
325.535	77.99
325.748	88.23
325.962	65.71
326.175	75.95
326.388	75.95
326.601	80.04
326.814	86.19
327.027	-5.97
327.24	77.99
327.453	28.84
327.666	77.99
327.879	184.49
328.092	69.8
328.305	96.43
328.518	-16.21
328.731	4.27
328.944	114.86
329.157	155.82
329.37	14.51
329.583	18.6
329.796	135.34
330.009	53.42
330.222	-10.07
330.435	51.37
330.648	43.18
330.861	90.28
331.073	84.14
331.286	41.13
331.499	98.47
331.712	63.66
331.925	59.56
332.138	24.75
332.35	96.43
332.563	32.94
332.776	84.14
332.989	2.22
333.202	110.76
333.414	-5.97
333.627	71.85
333.84	-24.4
334.053	71.85
334.265	20.65
334.478	39.08
334.691	112.81
334.903	90.28
335.116	30.89
335.329	73.9
335.541	61.61
335.754	118.95
335.966	41.13
336.179	47.27
336.392	0.17
336.604	77.99
336.817	69.8
337.029	77.99
337.242	69.8
337.454	61.61
337.667	0.17
337.88	143.53
338.092	73.9
338.305	86.19
338.517	-8.02
338.729	77.99
338.942	104.62
339.154	69.8
339.367	16.55
339.579	94.38
339.792	65.71
340.004	94.38
340.217	22.7
340.429	45.23
340.641	2.22
340.854	71.85
341.066	32.94
341.278	69.8
341.491	61.61
341.703	49.32
341.915	131.24
342.128	69.8
342.34	20.65
342.552	39.08
342.764	55.47
342.977	45.23
343.189	22.7
343.401	75.95
343.613	53.42
343.826	129.19
344.038	53.42
344.25	41.13
344.462	4.27
344.674	110.76
344.886	14.51
345.099	121
345.311	37.03
345.523	88.23
345.735	65.71
345.947	90.28
346.159	18.6
346.371	73.9
346.583	80.04
346.795	135.34
347.007	71.85
347.219	12.46
347.431	86.19
347.643	61.61
347.855	63.66
348.067	86.19
348.279	53.42
348.491	32.94
348.703	39.08
348.915	104.62
349.127	32.94
349.339	53.42
349.551	45.23
349.763	-18.26
349.975	67.75
350.187	73.9
350.399	127.14
350.61	96.43
350.822	100.52
351.034	123.05
351.246	39.08
351.458	63.66
351.669	98.47
351.881	145.58
352.093	82.09
352.305	77.99
352.517	69.8
352.728	80.04
352.94	43.18
353.152	153.77
353.363	61.61
353.575	159.91
353.787	61.61
353.999	96.43
354.21	110.76
354.422	-5.97
354.633	55.47
354.845	90.28
355.057	80.04
355.268	-16.21
355.48	118.95
355.692	18.6
355.903	49.32
356.115	61.61
356.326	26.79
356.538	135.34
356.749	73.9
356.961	77.99
357.172	69.8
357.384	30.89
357.595	127.14
357.807	94.38
358.018	28.84
358.23	37.03
358.441	102.57
358.653	118.95
358.864	65.71
359.075	14.51
359.287	73.9
359.498	24.75
359.709	45.23
359.921	22.7
360.132	96.43
360.344	123.05
360.555	-16.21
360.766	22.7
360.977	84.14
361.189	20.65
361.4	77.99
361.611	12.46
361.823	121
362.034	116.9
362.245	10.41
362.456	-1.88
362.667	77.99
362.879	63.66
363.09	67.75
363.301	102.57
363.512	104.62
363.723	65.71
363.935	61.61
364.146	20.65
364.357	30.89
364.568	96.43
364.779	41.13
364.99	59.56
365.201	30.89
365.412	41.13
365.623	-16.21
365.834	94.38
366.045	80.04
366.256	-3.93
366.467	98.47
366.678	51.37
366.889	121
367.1	69.8
367.311	37.03
367.522	55.47
367.733	32.94
367.944	84.14
368.155	143.53
368.366	94.38
368.577	37.03
368.788	88.23
368.999	12.46
369.209	102.57
369.42	155.82
369.631	63.66
369.842	80.04
370.053	61.61
370.264	88.23
370.474	118.95
370.685	55.47
370.896	63.66
371.107	37.03
371.317	94.38
371.528	55.47
371.739	121
371.95	26.79
372.16	77.99
372.371	47.27
372.582	12.46
372.792	63.66
373.003	20.65
373.214	129.19
373.424	53.42
373.635	16.55
373.846	65.71
374.056	-32.6
374.267	90.28
374.477	88.23
374.688	47.27
374.898	123.05
375.109	104.62
375.319	82.09
375.53	77.99
375.74	102.57
375.951	80.04
376.161	86.19
376.372	100.52
376.582	53.42
376.793	71.85
377.003	102.57
377.214	4.27
377.424	65.71
377.635	61.61
377.845	2.22
378.055	14.51
378.266	6.31
378.476	45.23
378.686	45.23
378.897	12.46
379.107	125.1
379.317	118.95
379.528	30.89
379.738	106.67
379.948	-18.26
380.158	102.57
380.369	86.19
380.579	131.24
380.789	45.23
380.999	34.99
381.21	112.81
381.42	118.95
381.63	77.99
381.84	135.34
382.05	98.47
382.261	73.9
382.471	123.05
382.681	43.18
382.891	61.61
383.101	102.57
383.311	41.13
383.521	61.61
383.731	121
383.941	57.51
384.151	0.17
384.361	82.09
384.571	86.19
384.781	73.9
384.991	135.34
385.201	137.38
385.411	69.8
385.621	82.09
385.831	104.62
386.041	127.14
386.251	108.71
386.461	98.47
386.671	43.18
386.881	102.57
387.091	84.14
387.301	82.09
387.511	131.24
387.72	135.34
387.93	82.09
388.14	88.23
388.35	82.09
388.56	77.99
388.769	98.47
388.979	90.28
389.189	82.09
389.399	55.47
389.609	141.48
389.818	161.96
390.028	94.38
390.238	80.04
390.447	51.37
390.657	14.51
390.867	86.19
391.076	53.42
391.286	110.76
391.496	86.19
391.705	34.99
391.915	123.05
392.125	65.71
392.334	80.04
392.544	151.72
392.753	49.32
392.963	67.75
393.172	125.1
393.382	28.84
393.591	161.96
393.801	92.33
394.01	110.76
394.22	80.04
394.429	90.28
394.639	80.04
394.848	118.95
395.058	207.02
395.267	102.57
395.477	88.23
395.686	80.04
395.895	192.68
396.105	133.29
396.314	41.13
396.524	69.8
396.733	45.23
396.942	123.05
397.152	114.86
397.361	96.43
397.57	164.01
397.78	123.05
397.989	145.58
398.198	176.3
398.407	96.43
398.617	73.9
398.826	100.52
399.035	155.82
399.244	110.76
399.453	164.01
399.663	164.01
399.872	118.95
400.081	98.47
400.29	143.53
400.499	168.1
400.708	180.39
400.917	123.05
401.127	121
401.336	143.53
401.545	170.15
401.754	172.2
401.963	182.44
402.172	217.26
402.381	82.09
402.59	127.14
402.799	137.38
403.008	118.95
403.217	221.35
403.426	151.72
403.635	145.58
403.844	194.73
404.053	176.3
404.262	114.86
404.471	204.97
404.68	254.12
404.888	184.49
405.097	186.54
405.306	207.02
405.515	176.3
405.724	209.06
405.933	317.61
406.142	145.58
406.35	227.5
406.559	170.15
406.768	182.44
406.977	274.6
407.185	303.27
407.394	250.02
407.603	235.69
407.812	250.02
408.02	385.19
408.229	270.5
408.438	250.02
408.646	323.75
408.855	274.6
409.064	327.85
409.272	317.61
409.481	329.89
409.69	315.56
409.898	364.71
410.107	366.76
410.315	424.1
410.524	407.72
410.733	395.43
410.941	407.72
411.15	446.63
411.358	426.15
411.567	473.25
411.775	508.07
411.984	557.22
412.192	608.42
412.401	424.1
412.609	571.55
412.818	565.41
413.026	616.61
413.234	659.62
413.443	581.79
413.651	692.38
413.86	612.51
414.068	727.2
414.276	696.48
414.485	798.88
414.693	792.73
414.901	798.88
415.11	821.41
415.318	790.69
415.526	954.52
415.734	946.33
415.943	981.15
416.151	1020.06
416.359	948.38
416.567	1054.87
416.776	989.34
416.984	1044.63
417.192	1153.18
417.4	1226.9
417.608	1224.86
417.817	1224.86
418.025	1374.36
418.233	1360.02
418.441	1400.98
418.649	1497.24
418.857	1503.38
419.065	1503.38
419.273	1530
419.481	1530
419.689	1706.13
419.897	1874.06
420.105	1761.42
420.313	1859.73
420.521	1978.51
420.729	1931.41
420.937	2019.47
421.145	2158.73
421.353	2224.26
421.561	2242.7
421.769	2371.72
421.977	2441.35
422.185	2457.73
422.393	2521.22
422.601	2666.63
422.809	2611.33
423.017	2740.35
423.224	2832.51
423.432	2996.35
423.64	2945.15
423.848	3190.91
424.056	3166.33
424.263	3455.09
424.471	3473.53
424.679	3555.44
424.887	3684.47
425.094	3811.44
425.302	3752.05
425.51	3827.82
425.718	3952.75
425.925	4167.79
426.133	4329.58
426.341	4462.69
426.548	4677.73
426.756	4739.17
426.964	4595.81
427.171	4915.3
427.379	5175.39
427.586	5023.84
427.794	5331.03
428.001	5554.26
428.209	5902.42
428.417	5838.93
428.624	6080.59
428.832	6158.41
429.039	6053.97
429.247	6125.65
429.454	6645.83
429.662	7008.32
429.869	6651.97
430.076	7264.32
430.284	6752.32
430.491	7360.57
430.699	7575.61
430.906	7596.09
431.114	7731.25
431.321	8022.06
431.528	8138.8
431.736	8869.92
431.943	9170.97
432.15	8751.14
432.358	8826.92
432.565	9392.16
432.772	9435.16
432.979	10016.79
433.187	10088.46
433.394	10000.4
433.601	10850.31
433.808	10792.97
434.016	10645.51
434.223	11177.98
434.43	11853.81
434.637	11524.09
434.844	12181.49
435.052	12388.33
435.259	12363.76
435.466	12513.26
435.673	12439.53
435.88	13221.86
436.087	14100.44
436.294	13725.66
436.501	13610.97
436.708	13995.99
436.915	14393.3
437.122	15042.5
437.329	15069.12
437.537	15445.95
437.743	15630.27
437.95	15470.53
438.157	16209.84
438.364	16558
438.571	16906.15
438.778	16940.97
438.985	18435.99
439.192	17719.2
439.399	18452.37
439.606	17874.84
439.813	18999.18
440.02	19957.63
440.227	19881.85
440.433	19554.18
440.64	19959.67
440.847	20006.78
441.054	20381.56
441.261	21905.24
441.467	21450.6
441.674	22044.51
441.881	22601.55
442.088	22683.47
442.294	22562.64
442.501	22918.99
442.708	23727.94
442.914	24506.16
443.121	25323.3
443.328	24686.39
443.534	26773.27
443.741	25382.7
443.948	25261.87
444.154	27279.11
444.361	27268.87
444.568	27109.13
444.774	27059.98
444.981	27608.84
445.187	28251.9
445.394	29439.72
445.6	29126.38
445.807	32282.3
446.013	30344.92
446.22	30877.4
446.426	32497.34
446.633	32181.95
446.839	33552.04
447.046	32218.82
447.252	34244.26
447.459	33914.53
447.665	34033.32
447.871	35591.82
448.078	36771.45
448.284	35296.91
448.491	36390.53
448.697	37271.15
448.903	38219.36
449.11	37946.98
449.316	37838.44
449.522	38037.09
449.728	38995.54
449.935	39751.24
450.141	39456.34
450.347	40177.22
450.553	39063.13
450.76	39829.07
450.966	41109.05
451.172	40676.93
451.378	41879.08
451.584	40535.62
451.791	41287.22
451.997	41752.11
452.203	41694.77
452.409	41696.81
452.615	42382.88
452.821	40463.94
453.027	39982.66
453.233	42231.33
453.44	40465.99
453.646	40869.44
453.852	41195.06
454.058	42241.57
454.264	40504.9
454.47	41801.26
454.676	40758.84
454.882	41754.16
455.088	38078.05
455.294	38749.79
455.5	39376.47
455.705	39732.81
455.911	38024.81
456.117	37508.72
456.323	37244.53
456.529	35059.35
456.735	36462.21
456.941	35731.08
457.147	35423.89
457.352	34199.2
457.558	33924.77
457.764	34424.48
457.97	33633.96
458.176	32392.89
458.381	32593.59
458.587	31086.29
458.793	30875.35
458.999	29615.85
459.204	31373
459.41	30478.04
459.616	28448.5
459.821	28671.73
460.027	28794.61
460.233	28075.77
460.438	26609.43
460.644	27199.24
460.85	25943.84
461.055	25198.38
461.261	25585.44
461.466	23461.7
461.672	22841.17
461.878	24514.36
462.083	22720.34
462.289	22378.33
462.494	21671.78
462.7	21096.3
462.905	20592.5
463.111	20979.56
463.316	21272.42
463.522	20969.32
463.727	20934.51
463.932	21075.82
464.138	20389.75
464.343	20729.71
464.549	20141.94
464.754	20776.81
464.959	20512.63
465.165	20414.32
465.37	19695.49
465.575	18995.08
465.781	19593.09
465.986	19910.52
466.191	19214.21
466.397	19038.09
466.602	17913.75
466.807	18763.66
467.012	18825.1
467.218	18519.95
467.423	18132.89
467.628	18321.3
467.833	19249.03
468.038	18560.91
468.244	17909.66
468.449	18640.78
468.654	17801.12
468.859	18024.34
469.064	17637.28
469.269	17203.11
469.474	17309.6
469.679	17792.92
469.885	17108.9
470.09	17125.29
470.295	17287.07
470.5	16623.53
470.705	17014.7
470.91	16480.18
471.115	16279.47
471.32	16738.22
471.525	16502.7
471.73	16029.62
471.935	15976.37
472.139	15495.1
472.344	15515.58
472.549	15431.62
472.754	15452.09
472.959	15265.73
473.164	14815.18
473.369	14698.44
473.574	15482.81
473.778	15015.88
473.983	14825.42
474.188	15032.26
474.393	14073.81
474.598	14288.85
474.802	14168.02
475.007	14079.96
475.212	14014.42
475.417	13711.32
475.621	13520.86
475.826	13588.44
476.031	13164.51
476.235	13103.07
476.44	13381.6
476.645	12910.57
476.849	13051.88
477.054	12804.07
477.259	12597.23
477.463	12648.43
477.668	12212.21
477.872	12572.65
478.077	12369.9
478.282	11876.34
478.486	11939.83
478.691	11653.11
478.895	11909.11
479.1	11661.3
479.304	12062.71
479.509	11335.68
479.713	11753.46
479.918	11243.52
480.122	11137.02
480.326	11329.53
480.531	11212.8
480.735	11208.7
480.94	11120.64
481.144	11442.17
481.348	10909.7
481.553	11065.35
481.757	10858.5
481.961	10891.27
482.166	11171.84
482.37	10907.65
482.574	10756.1
482.778	10766.34
482.983	10889.22
483.187	10909.7
483.391	10997.76
483.595	10715.14
483.8	10620.94
484.004	10790.92
484.208	10911.75
484.412	10672.14
484.616	10809.35
484.821	10774.53
485.025	10715.14
485.229	10850.31
485.433	10827.78
485.637	10844.17
485.841	10762.25
486.045	10852.36
486.249	10825.73
486.453	10866.69
486.657	10702.86
486.861	10889.22
487.065	10557.45
487.269	10903.56
487.473	10534.92
487.677	10809.35
487.881	11038.72
488.085	10799.11
488.289	10776.58
488.493	10835.97
488.697	11020.29
488.901	10823.69
489.105	10657.8
489.309	10940.42
489.512	10872.84
489.716	11128.83
489.92	10881.03
490.124	10821.64
490.328	11010.05
490.531	11085.83
490.735	11100.16
490.939	11075.59
491.143	11157.5
491.346	10932.23
491.55	11409.4
491.754	11177.98
491.958	11507.71
492.161	11333.63
492.365	11202.56
492.569	11259.9
492.772	11352.06
492.976	11763.7
493.18	11382.78
493.383	11923.44
493.587	11755.51
493.79	11921.4
493.994	11677.69
494.197	11882.49
494.401	11931.64
494.605	11788.28
494.808	12115.95
495.012	12439.53
495.215	12306.41
495.419	12365.81
495.622	12478.44
495.825	12464.11
496.029	12478.44
496.232	12863.46
496.436	12851.17
496.639	13221.86
496.843	12881.89
497.046	13193.19
497.249	13520.86
497.453	13365.21
497.656	13455.33
497.859	13660.12
498.063	13633.5
498.266	13952.98
498.469	13965.27
498.673	14137.3
498.876	14546.89
499.079	14606.28
499.282	14464.97
499.485	14946.25
499.689	14839.75
499.892	15075.27
500.095	14970.82
500.298	15546.3
500.501	15527.87
500.705	16011.19
500.908	15962.04
501.111	16041.91
501.314	16019.38
501.517	16498.61
501.72	16646.06
501.923	16490.42
502.126	16750.51
502.329	17293.22
502.532	17264.55
502.735	17526.69
502.938	17643.42
503.141	17723.29
503.344	18091.93
503.547	18177.94
503.75	18231.19
503.953	18583.44
504.156	18558.86
504.359	18837.39
504.562	18986.89
504.765	19464.07
504.968	19640.19
505.17	19502.98
505.373	19896.19
505.576	20176.76
505.779	20399.99
505.982	20547.44
506.185	20840.3
506.387	20993.9
506.59	21122.92
506.793	21348.2
506.996	21532.51
507.198	22052.7
507.401	22048.6
507.604	21909.34
507.807	22796.11
508.009	22822.73
508.212	22810.45
508.415	23209.8
508.617	23377.73
508.82	23381.83
509.022	23338.82
509.225	24256.31
509.428	24178.49
509.63	24063.8
509.833	24844.08
510.035	25499.43
510.238	24870.7
510.44	25325.35
510.643	25560.87
510.845	25982.75
511.048	25898.78
511.25	26236.7
511.453	26537.75
511.655	27430.66
511.858	27146
512.06	27205.39
512.262	27887.36
512.465	27494.15
512.667	28030.72
512.87	28313.34
513.072	28477.18
513.274	28858.1
513.477	29003.5
513.679	29415.15
513.881	29708.01
514.084	29894.37
514.286	30084.83
514.488	30068.45
514.69	30805.72
514.893	31127.25
515.095	30772.95
515.297	31585.99
515.499	31657.67
515.701	32202.43
515.904	32440
516.106	32325.31
516.308	32761.53
516.51	33138.35
516.712	32894.64
516.914	33584.81
517.116	33900.2
517.318	34244.26
517.52	34283.17
517.722	34498.2
517.925	35028.63
518.127	35214.99
518.329	35692.17
518.531	35192.47
518.733	36105.86
518.935	36261.51
519.136	36312.7
519.338	36726.39
519.54	37232.24
519.742	37455.47
519.944	37330.55
520.146	38137.44
520.348	38184.55
520.55	38694.49
520.752	38643.29
520.954	39097.94
521.155	39011.93
521.357	39603.79
521.559	39767.63
521.761	40339.01
521.963	40435.27
522.164	40668.73
522.366	40717.89
522.568	41012.79
522.77	40855.1
522.971	41721.39
523.173	41467.44
523.375	41780.78
523.576	41893.42
523.778	41729.58
523.98	42669.6
524.181	42894.88
524.383	42864.16
524.584	43048.47
524.786	43353.62
524.988	43296.28
525.189	43925
525.391	43789.84
525.592	43718.16
525.794	44201.48
525.995	44449.28
526.197	44563.97
526.398	44488.2
526.6	45084.15
526.801	45065.72
527.003	45172.22
527.204	45213.18
527.406	45585.91
527.607	45530.61
527.808	46011.88
528.01	45049.34
528.211	45651.44
528.412	46857.7
528.614	46308.84
528.815	46263.78
529.016	46593.51
529.218	46220.78
529.419	46718.43
529.62	47009.25
529.822	46585.32
530.023	46812.64
530.224	46949.85
530.425	47138.27
530.626	46511.59
530.828	46425.57
531.029	47472.09
531.23	46818.78
531.431	46966.24
531.632	47633.88
531.833	47422.94
532.035	47109.6
532.236	47341.02
532.437	47990.22
532.638	47695.31
532.839	47830.48
533.04	47748.56
533.241	47205.85
533.442	47891.92
533.643	47343.06
533.844	47986.13
534.045	47793.62
534.246	47324.63
534.447	47898.06
534.648	47723.99
534.849	48481.73
535.05	47707.6
535.251	47971.79
535.451	47758.8
535.652	47947.22
535.853	47982.03
536.054	47844.82
536.255	47945.17
536.456	47803.86
536.657	48268.75
536.857	47584.72
537.058	47511
537.259	48178.64
537.46	47832.53
537.66	47584.72
537.861	47506.9
538.062	47762.9
538.263	48121.29
538.463	47365.59
538.664	47629.78
538.865	48188.88
539.065	48141.77
539.266	47044.06
539.466	48164.3
539.667	47662.55
539.868	47709.65
540.068	47584.72
540.269	47719.89
540.469	48473.54
540.67	47920.59
540.87	47990.22
541.071	48137.68
541.271	48266.7
541.472	47644.12
541.672	47668.69
541.873	47502.81
542.073	47150.56
542.274	47939.02
542.474	47623.64
542.675	47228.38
542.875	48004.56
543.075	47764.95
543.276	46992.86
543.476	47820.24
543.676	47527.38
543.877	47951.31
544.077	47459.8
544.277	47916.5
544.478	47728.08
544.678	47961.55
544.878	47250.91
545.078	47379.93
545.279	47367.64
545.479	47211.99
545.679	47504.85
545.879	47332.82
546.079	47365.59
546.28	47402.46
546.48	46872.03
546.68	47603.16
546.88	47338.97
547.08	46931.42
547.28	47400.41
547.48	46831.07
547.68	47318.49
547.88	47136.22
548.081	47353.3
548.281	47027.68
548.481	47033.82
548.681	47214.04
548.881	47076.83
549.081	47308.25
549.28	46839.26
549.48	47336.92
549.68	47269.34
549.88	47166.94
550.08	47054.3
550.28	47189.47
550.48	47023.58
550.68	46974.43
550.88	46976.48
551.08	46964.19
551.279	47144.41
551.479	47160.8
551.679	47252.95
551.879	47039.96
552.079	47257.05
552.278	46638.56
552.478	46556.64
552.678	47031.77
552.878	46851.55
553.077	46593.51
553.277	46376.42
553.477	47183.32
553.676	46564.84
553.876	46984.67
554.076	46771.68
554.275	46958.05
554.475	46255.59
554.674	46601.7
554.874	47168.99
555.074	46532.07
555.273	46726.63
555.473	46996.96
555.672	46429.67
555.872	46409.19
556.071	46392.81
556.271	46587.36
556.47	46265.83
556.67	46118.38
556.869	46202.35
557.068	46294.5
557.268	45874.67
557.467	45950.45
557.667	45907.44
557.866	45950.45
558.065	46140.91
558.265	45710.83
558.464	45794.8
558.663	46038.51
558.863	45751.79
559.062	45694.45
559.261	45616.63
559.461	46441.96
559.66	45661.68
559.859	45565.43
560.058	45086.2
560.258	45647.35
560.457	44908.03
560.656	45385.21
560.855	45334.01
561.054	45475.32
561.253	45078.01
561.453	45348.34
561.652	45592.05
561.851	45280.76
562.05	44717.57
562.249	44725.76
562.448	45274.62
562.647	45239.8
562.846	44793.34
563.045	44955.13
563.244	44248.58
563.443	45444.6
563.642	44344.84
563.841	44219.91
564.04	44203.53
564.239	44697.09
564.438	44232.2
564.637	44375.56
564.836	44303.88
565.035	43937.29
565.234	44123.66
565.432	43898.38
565.631	43654.67
565.83	44369.41
566.029	43617.81
566.228	43691.54
566.427	43918.86
566.625	43787.79
566.824	42884.64
567.023	43693.58
567.222	42772
567.42	43238.93
567.619	43210.26
567.818	43066.91
568.016	42747.42
568.215	43040.28
568.414	42866.2
568.612	43191.83
568.811	42784.29
569.01	42710.56
569.208	42253.86
569.407	42728.99
569.605	42141.22
569.804	42677.79
570.002	42126.89
570.201	42509.86
570.4	41983.53
570.598	41811.5
570.797	41756.21
570.995	42036.78
571.193	41279.03
571.392	42012.2
571.59	41207.35
571.789	41346.61
571.987	41184.82
572.186	41487.92
572.384	41219.64
572.582	41000.51
572.781	41653.81
572.979	40580.67
573.177	40900.15
573.376	41076.28
573.574	40562.24
573.772	40638.01
573.971	40707.65
574.169	40265.28
574.367	40076.87
574.565	40273.48
574.763	40146.5
574.962	40242.76
575.16	39614.03
575.358	40238.66
575.556	39913.03
575.754	40316.48
575.952	39298.64
576.151	39716.43
576.349	39042.65
576.547	39388.75
576.745	39052.89
576.943	39093.85
577.141	39243.35
577.339	39204.44
577.537	39120.47
577.735	39210.58
577.933	38659.68
578.131	39159.38
578.329	38575.71
578.527	38159.97
578.725	38581.85
578.923	38807.13
579.121	38551.13
579.319	38078.05
579.516	38461.02
579.714	38006.37
579.912	38278.75
580.11	38182.5
580.308	37781.1
580.506	37820.01
580.704	37469.81
580.901	37580.4
581.099	37693.04
581.297	37197.43
581.495	37226.1
581.692	37672.56
581.89	36853.37
582.088	37199.48
582.285	36937.34
582.483	36863.61
582.681	36578.94
582.878	36812.41
583.076	36748.92
583.274	36279.94
583.471	36116.1
583.669	36087.43
583.866	36263.55
584.064	36468.35
584.262	35761.8
584.459	36167.3
584.657	35710.6
584.854	36152.96
585.052	35454.61
585.249	35794.57
585.447	35485.33
585.644	35206.8
585.841	35131.03
586.039	35395.21
586.236	35210.9
586.434	35131.03
586.631	35112.59
586.828	34832.02
587.026	34868.89
587.223	35120.79
587.42	34299.55
587.618	34537.12
587.815	34174.63
588.012	34344.61
588.21	34227.87
588.407	34356.89
588.604	34082.47
588.801	33724.07
588.999	33748.65
589.196	33672.87
589.393	34078.37
589.59	33578.67
589.787	33236.66
589.984	33400.49
590.182	33126.07
590.379	33128.11
590.576	33216.18
590.773	33142.45
590.97	32734.9
591.167	33048.24
591.364	32767.67
591.561	32698.04
591.758	32454.33
591.955	32743.1
592.152	32962.23
592.349	32425.66
592.546	32519.87
592.743	32231.1
592.94	31694.54
593.137	32259.77
593.334	32132.8
593.531	31479.5
593.727	31932.1
593.924	31594.18
594.121	31465.16
594.318	31694.54
594.515	31354.57
594.712	31577.8
594.908	31059.66
595.105	31110.86
595.302	30711.51
595.499	31166.16
595.696	30854.87
595.892	30944.98
596.089	30918.35
596.286	30525.14
596.482	30248.67
596.679	30408.41
596.876	30490.33
597.072	30297.82
597.269	30506.71
597.466	29904.61
597.662	30015.2
597.859	30150.37
598.055	29945.57
598.252	29740.77
598.448	29984.48
598.645	29548.26
598.841	29529.83
599.038	29411.05
599.234	29318.89
599.431	29355.75
599.627	29400.81
599.824	29335.28
600.02	29316.84
600.217	29132.53
600.413	28905.2
600.609	28657.4
600.806	28555
601.002	28602.1
601.198	28456.7
601.395	28376.83
601.591	28446.46
601.787	28212.99
601.984	28337.91
602.18	28425.98
602.376	28129.02
602.572	27787.01
602.769	27762.44
602.965	27535.11
603.161	28067.58
603.357	27719.43
603.553	27217.68
603.75	27547.4
603.946	27377.42
604.142	27383.56
604.338	27178.76
604.534	27246.35
604.73	27180.81
604.926	26875.66
605.122	27076.37
605.318	26851.09
605.514	26550.04
605.71	26484.5
605.906	26373.91
606.102	26513.17
606.298	26640.15
606.494	26208.03
606.69	26394.39
606.886	26314.52
607.082	25833.25
607.278	26410.78
607.474	25952.03
607.67	26119.96
607.866	26081.05
608.062	26246.94
608.257	25736.99
608.453	25485.09
608.649	25937.69
608.845	25675.55
609.041	25728.8
609.236	25681.7
609.432	25411.37
609.628	25509.67
609.824	25218.86
610.019	25390.89
610.215	25282.34
610.411	25765.67
610.606	24991.53
610.802	25186.09
610.998	25167.66
611.193	24870.7
611.389	25235.24
611.584	24946.48
611.78	24862.51
611.976	25028.4
612.171	24854.32
612.367	24606.52
612.562	24545.08
612.758	24334.14
612.953	24624.95
613.149	24626.99
613.344	24139.58
613.539	24807.22
613.735	24534.84
613.93	24493.88
614.126	24483.64
614.321	24526.64
614.517	24508.21
614.712	24448.82
614.907	23936.83
615.103	24545.08
615.298	24051.52
615.493	24422.2
615.688	23306.06
615.884	24022.84
616.079	23705.41
616.274	24489.78
616.47	23998.27
616.665	24045.37
616.86	23678.79
617.055	23844.67
617.25	24008.51
617.445	23648.07
617.641	23301.96
617.836	23570.24
618.031	23078.73
618.226	23322.44
618.421	23281.48
618.616	23318.34
618.811	22837.07
619.006	23140.17
619.201	23068.49
619.396	23246.66
619.591	22470.48
619.786	22894.41
619.981	22230.87
620.176	22642.51
620.371	22183.77
620.566	22722.38
620.761	22083.42
620.956	22271.83
621.151	22089.56
621.346	21968.73
621.541	21509.99
621.735	21905.24
621.93	21671.78
622.125	21475.17
622.32	21167.98
622.515	21596
622.709	21286.76
622.904	21018.47
623.099	21266.28
623.294	20920.17
623.488	20576.11
623.683	20770.67
623.878	20064.12
624.072	20711.28
624.267	20406.13
624.462	20238.2
624.656	20074.36
624.851	20242.29
625.046	19857.28
625.24	19976.06
625.435	19951.48
625.629	19691.39
625.824	19445.63
626.018	19617.66
626.213	18970.51
626.407	19369.86
626.602	19163.01
626.796	19181.45
626.991	18995.08
627.185	18943.88
627.38	18679.69
627.574	18642.83
627.768	18767.76
627.963	18517.9
628.157	18601.87
628.352	18266
628.546	18153.37
628.74	18290.58
628.935	17760.16
629.129	17907.61
629.323	17964.95
629.517	17788.83
629.712	17651.61
629.906	17903.51
630.1	17649.57
630.294	17502.11
630.489	17303.46
630.683	17606.56
630.877	17094.57
631.071	17082.28
631.265	17063.85
631.459	16727.98
631.653	16457.65
631.848	16531.37
632.042	16701.36
632.236	16480.18
632.43	16414.64
632.624	16439.22
632.818	16340.91
633.012	16064.44
633.206	16226.23
633.4	16160.69
633.594	15876.02
633.788	15826.87
633.982	15916.98
634.176	15701.95
634.369	15466.43
634.563	15632.32
634.757	15368.13
634.951	15609.79
635.145	15427.52
635.339	15312.83
635.533	14995.4
635.726	15136.71
635.92	15079.36
636.114	15206.34
636.308	14757.83
636.501	14870.47
636.695	14749.64
636.889	14610.38
637.083	14553.04
637.276	14512.08
637.47	14397.39
637.664	14520.27
637.857	14442.45
638.051	14393.3
638.244	14331.86
638.438	13975.51
638.632	13936.6
638.825	13852.63
639.019	13848.54
639.212	13633.5
639.406	13555.68
639.599	13506.52
639.793	13596.64
639.986	13531.1
640.18	13440.99
640.373	13459.42
640.567	13248.48
640.76	13029.35
640.954	13086.69
641.147	12879.85
641.34	13051.88
641.534	13121.51
641.727	12883.94
641.92	12781.54
642.114	12568.55
642.307	12857.32
642.5	12511.21
642.694	12230.64
642.887	12435.44
643.08	12605.42
643.273	12439.53
643.467	12173.3
643.66	12193.78
643.853	12025.84
644.046	12001.27
644.239	12097.52
644.432	11960.31
644.626	11892.73
644.819	11902.97
645.012	11735.03
645.205	11845.62
645.398	11790.33
645.591	11591.67
645.784	11626.49
645.977	11440.12
646.17	11509.76
646.363	11341.82
646.556	11347.97
646.749	11100.16
646.942	11446.27
647.135	11124.74
647.328	11229.18
647.521	10971.14
647.714	10829.83
647.907	10754.05
648.099	10614.79
648.292	10917.89
648.485	10647.56
648.678	10647.56
648.871	10522.63
649.064	10536.97
649.256	10635.27
649.449	10469.39
649.642	10352.65
649.835	10262.54
650.027	10256.4
650.22	10301.45
650.413	10033.17
650.605	10102.8
650.798	10156.05
650.991	10000.4
651.183	10258.45
651.376	9871.38
651.568	9900.05
651.761	9785.37
651.954	9773.08
652.146	9699.35
652.339	9613.34
652.531	9666.58
652.724	9738.26
652.916	9390.11
653.109	9564.18
653.301	9392.16
653.494	9328.67
653.686	9211.93
653.879	9383.96
654.071	9244.7
654.263	9269.28
654.456	9279.52
654.648	9150.5
654.84	9025.57
655.033	9113.63
655.225	9066.53
655.417	8796.2
655.61	8861.73
655.802	8880.16
655.994	8763.43
656.186	8708.13
656.379	8728.61
656.571	8486.95
656.763	8562.73
656.955	8601.64
657.148	8509.48
657.34	8435.75
657.532	8423.47
657.724	8347.69
657.916	8316.97
658.108	8343.6
658.3	8282.16
658.492	8218.67
658.684	7974.96
658.876	7995.44
659.068	8042.54
659.26	8204.33
659.452	8024.11
659.644	7958.58
659.836	7868.47
660.028	7968.82
660.22	7733.3
660.412	7856.18
660.604	7704.63
660.796	7702.58
660.988	7628.85
661.18	7587.89
661.372	7630.9
661.563	7446.59
661.755	7524.41
661.947	7368.76
662.139	7530.55
662.331	7395.39
662.522	7358.52
662.714	7305.28
662.906	7188.54
663.097	7223.36
663.289	7282.75
663.481	7057.47
663.673	7104.57
663.864	7086.14
664.056	6998.08
664.247	7049.28
664.439	6991.94
664.631	7045.18
664.822	6875.2
665.014	6623.3
665.205	6887.49
665.397	6963.26
665.588	6893.63
665.78	6729.8
665.971	6699.08
666.163	6809.67
666.354	6602.82
666.546	6692.93
666.737	6391.88
666.929	6510.66
667.12	6549.57
667.311	6449.22
667.503	6420.55
667.694	6295.63
667.885	6475.85
668.077	6469.7
668.268	6348.87
668.459	6471.75
668.651	6381.64
668.842	6271.05
669.033	6230.09
669.224	6049.87
669.416	6131.79
669.607	6111.31
669.798	5935.18
669.989	6156.36
670.18	6015.05
670.371	6066.25
670.563	6041.68
670.754	5937.23
670.945	5847.12
671.136	5982.29
671.327	5881.94
671.518	5845.07
671.709	5806.16
671.9	5929.04
672.091	5824.59
672.282	5914.7
672.473	5828.69
672.664	5754.96
672.855	5738.58
673.046	5675.09
673.237	5689.43
673.428	5525.59
673.619	5607.51
673.809	5570.65
674	5642.32
674.191	5560.41
674.382	5632.08
674.573	5468.25
674.764	5404.76
674.954	5562.45
675.145	5435.48
675.336	5314.65
675.527	5345.37
675.717	5486.68
675.908	5363.8
676.099	5478.49
676.289	5345.37
676.48	5294.17
676.671	5107.8
676.861	5220.44
677.052	5136.48
677.243	5191.77
677.433	5107.8
677.624	5206.11
677.814	5165.15
678.005	5214.3
678.195	5197.92
678.386	5167.2
678.576	5042.27
678.767	5165.15
678.957	5126.24
679.148	5056.61
679.338	5197.92
679.529	5050.46
679.719	4962.4
679.909	5136.48
680.1	5036.13
680.29	5034.08
680.481	4894.82
680.671	5013.6
680.861	4898.91
681.052	4905.06
681.242	4896.86
681.432	5015.65
681.622	4941.92
681.813	4878.43
682.003	4886.62
682.193	4712.55
682.383	4804.71
682.573	4796.51
682.764	4825.19
682.954	4870.24
683.144	4831.33
683.334	4739.17
683.524	4694.12
683.714	4503.65
683.904	4755.55
684.094	4903.01
684.284	4657.25
684.474	4749.41
684.664	4739.17
684.854	4591.72
685.044	4542.57
685.234	4622.44
685.424	4622.44
685.614	4522.09
685.804	4571.24
685.994	4624.48
686.184	4493.41
686.374	4491.37
686.564	4489.32
686.753	4450.41
686.943	4501.61
687.133	4317.29
687.323	4468.84
687.513	4327.53
687.702	4470.89
687.892	4364.39
688.082	4356.2
688.272	4468.84
688.461	4388.97
688.651	4421.74
688.841	4227.18
689.03	4241.51
689.22	4214.89
689.41	4192.36
689.599	4249.71
689.789	4251.75
689.979	4116.59
690.168	4198.51
690.358	4132.97
690.547	4104.3
690.737	4126.83
690.926	4083.82
691.116	4087.92
691.305	4069.48
691.495	4200.55
691.684	4087.92
691.874	4137.07
692.063	3993.71
692.252	4069.48
692.442	3938.41
692.631	3944.56
692.82	3864.69
693.01	3866.74
693.199	3752.05
693.388	3819.63
693.578	3790.96
693.767	3846.26
693.956	3846.26
694.146	3782.77
694.335	3793.01
694.524	3780.72
694.713	3809.39
694.902	3881.07
695.092	3838.06
695.281	3786.86
695.47	3745.91
695.659	3641.46
695.848	3647.6
696.037	3793.01
696.226	3641.46
696.415	3733.62
696.604	3731.57
696.793	3602.55
696.982	3635.32
697.171	3727.47
697.36	3594.36
697.549	3588.21
697.738	3631.22
697.927	3698.8
698.116	3541.11
698.305	3485.81
698.494	3704.95
698.683	3477.62
698.872	3555.44
699.061	3661.94
699.25	3575.92
699.438	3481.72
699.627	3487.86
699.816	3483.77
700.005	3567.73
700.193	3657.84
700.382	3567.73
700.571	3670.13
700.76	3424.37
700.948	3477.62
701.137	3469.43
701.326	3475.57
701.514	3534.96
701.703	3403.89
701.892	3414.13
702.08	3412.09
702.269	3332.22
702.457	3332.22
702.646	3418.23
702.834	3461.24
703.023	3371.13
703.212	3453.05
703.4	3250.3
703.589	3295.35
703.777	3321.98
703.965	3381.37
704.154	3352.7
704.342	3397.75
704.531	3256.44
704.719	3326.07
704.907	3334.26
705.096	3395.7
705.284	3192.95
705.472	3346.55
705.661	3281.02
705.849	3399.8
706.037	3324.02
706.226	3305.59
706.414	3326.07
706.602	3285.11
706.79	3330.17
706.979	3215.48
707.167	3225.72
707.355	3170.43
707.543	3297.4
707.731	3330.17
707.919	3174.52
708.107	3121.28
708.296	3145.85
708.484	3186.81
708.672	3199.1
708.86	3268.73
709.048	3270.78
709.236	3149.95
709.424	3098.75
709.612	3192.95
709.8	3213.43
709.988	3041.4
710.176	3164.28
710.364	3076.22
710.551	3231.87
710.739	3029.12
710.927	3117.18
711.115	3053.69
711.303	3088.51
711.491	3172.47
711.679	3010.68
711.866	2994.3
712.054	3006.59
712.242	3031.16
712.43	3209.34
712.617	3141.75
712.805	3016.83
712.993	2920.57
713.181	3061.88
713.368	3090.56
713.556	3053.69
713.744	2977.92
713.931	3127.42
714.119	3051.64
714.306	2994.3
714.494	3020.92
714.682	2906.24
714.869	3010.68
715.057	2916.48
715.244	2990.21
715.432	3022.97
715.619	3010.68
715.807	2855.04
715.994	2908.29
716.182	3008.64
716.369	3010.68
716.556	2941.05
716.744	2879.61
716.931	2986.11
717.119	2957.44
717.306	2996.35
717.493	2869.37
717.681	2881.66
717.868	2988.16
718.055	2904.19
718.242	2834.56
718.43	2934.91
718.617	2789.5
718.804	2850.94
718.991	2791.55
719.179	2994.3
719.366	2881.66
719.553	2775.17
719.74	2842.75
719.927	2863.23
720.114	2814.08
720.301	2809.98
720.488	2857.09
720.676	2637.95
720.863	2816.13
721.05	2904.19
721.237	2900.09
721.424	2809.98
721.611	2795.65
721.798	2834.56
721.985	2764.93
722.172	2836.61
722.358	2781.31
722.545	2709.63
722.732	2857.09
722.919	2746.5
723.106	2674.82
723.293	2693.25
723.48	2857.09
723.667	2834.56
723.853	2705.54
724.04	2834.56
724.227	2693.25
724.414	2719.87
724.6	2629.76
724.787	2666.63
724.974	2773.12
725.161	2699.39
725.347	2656.39
725.534	2576.52
725.72	2660.48
725.907	2752.64
726.094	2781.31
726.28	2707.59
726.467	2683.01
726.653	2676.87
726.84	2715.78
727.027	2611.33
727.213	2611.33
727.4	2844.8
727.586	2719.87
727.773	2678.91
727.959	2789.5
728.145	2660.48
728.332	2586.76
728.518	2723.97
728.705	2590.85
728.891	2646.15
729.077	2693.25
729.264	2613.38
729.45	2771.07
729.636	2603.14
729.823	2654.34
730.009	2783.36
730.195	2613.38
730.382	2568.32
730.568	2603.14
730.754	2584.71
730.94	2496.64
731.126	2631.81
731.313	2717.83
731.499	2695.3
731.685	2576.52
731.871	2642.05
732.057	2650.24
732.243	2535.56
732.429	2650.24
732.615	2619.52
732.801	2558.08
732.987	2625.67
733.173	2568.32
733.359	2592.9
733.545	2592.9
733.731	2506.88
733.917	2599.04
734.103	2594.95
734.289	2609.28
734.475	2543.75
734.661	2494.6
734.847	2580.61
735.033	2560.13
735.219	2570.37
735.404	2449.54
735.59	2457.73
735.776	2439.3
735.962	2486.4
736.148	2553.99
736.333	2529.41
736.519	2584.71
736.705	2472.07
736.89	2297.99
737.076	2414.73
737.262	2455.69
737.447	2498.69
737.633	2418.82
737.819	2461.83
738.004	2390.15
738.19	2414.73
738.375	2388.1
738.561	2457.73
738.747	2341
738.932	2324.62
739.118	2463.88
739.303	2441.35
739.489	2318.47
739.674	2273.42
739.859	2324.62
740.045	2277.51
740.23	2322.57
740.416	2297.99
740.601	2330.76
740.786	2216.07
740.972	2269.32
741.157	2357.38
741.342	2250.89
741.528	2388.1
741.713	2273.42
741.898	2324.62
742.084	2238.6
742.269	2236.55
742.454	2308.23
742.639	2224.26
742.824	2205.83
743.01	2236.55
743.195	2228.36
743.38	2134.15
743.565	2171.02
743.75	2181.26
743.935	2146.44
744.12	2211.98
744.305	2089.1
744.49	2125.96
744.675	2119.82
744.86	2078.86
745.045	2181.26
745.23	2144.39
745.415	2191.5
745.6	2150.54
745.785	2027.66
745.97	2105.48
746.155	2025.61
746.34	1972.36
746.525	1986.7
746.71	2103.43
746.895	1970.32
747.079	2029.71
747.264	1947.79
747.449	1978.51
747.634	1917.07
747.819	2097.29
748.003	1958.03
748.188	1888.4
748.373	2001.04
748.557	2050.19
748.742	1953.93
748.927	1904.78
749.111	1941.65
749.296	1847.44
749.481	1904.78
749.665	1925.26
749.85	1757.33
750.034	1847.44
750.219	1814.67
750.404	1724.56
750.588	1826.96
750.773	1753.23
750.957	1671.31
751.141	1814.67
751.326	1659.03
751.51	1726.61
751.695	1691.79
751.879	1767.57
752.064	1796.24
752.248	1607.83
752.432	1736.85
752.617	1677.46
752.801	1677.46
752.985	1632.4
753.17	1503.38
753.354	1560.72
753.538	1634.45
753.722	1587.35
753.907	1538.2
754.091	1659.03
754.275	1609.87
754.459	1466.52
754.643	1558.67
754.828	1527.96
755.012	1525.91
755.196	1487
755.38	1478.8
755.564	1435.8
755.748	1470.61
755.932	1454.23
756.116	1523.86
756.3	1417.37
756.484	1452.18
756.668	1355.93
756.852	1323.16
757.036	1312.92
757.22	1312.92
757.404	1284.25
757.588	1306.77
757.772	1357.97
757.956	1312.92
758.14	1294.49
758.323	1226.9
758.507	1423.51
758.691	1216.66
758.875	1347.73
759.059	1261.72
759.242	1233.05
759.426	1257.62
759.61	1259.67
759.794	1341.59
759.977	1198.23
760.161	1314.97
760.345	1259.67
760.528	1226.9
760.712	1214.62
760.895	1163.42
761.079	1132.7
761.263	1126.55
761.446	1187.99
761.63	1214.62
761.813	1153.18
761.997	1169.56
762.18	1177.75
762.364	1204.38
762.547	1161.37
762.731	1085.59
762.914	1167.51
763.098	1042.59
763.281	1104.03
763.464	1106.07
763.648	1054.87
763.831	1085.59
764.015	1061.02
764.198	1179.8
764.381	1030.3
764.564	1142.94
764.748	1085.59
764.931	1001.63
765.114	1046.68
765.297	1030.3
765.481	1018.01
765.664	1028.25
765.847	1099.93
766.03	1028.25
766.213	1079.45
766.397	1040.54
766.58	929.95
766.763	1003.68
766.946	958.62
767.129	1032.35
767.312	1011.87
767.495	958.62
767.678	956.57
767.861	972.96
768.044	968.86
768.227	995.48
768.41	997.53
768.593	960.67
768.776	876.7
768.959	909.47
769.142	960.67
769.324	915.61
769.507	917.66
769.69	954.52
769.873	921.76
770.056	1022.11
770.239	917.66
770.421	888.99
770.604	909.47
770.787	884.89
770.97	864.41
771.152	848.03
771.335	946.33
771.518	913.56
771.7	860.32
771.883	864.41
772.066	995.48
772.248	860.32
772.431	776.35
772.613	882.85
772.796	802.97
772.978	876.7
773.161	852.13
773.343	794.78
773.526	843.93
773.708	782.49
773.891	774.3
774.073	723.1
774.256	788.64
774.438	862.37
774.621	749.73
774.803	762.02
774.985	874.65
775.168	786.59
775.35	745.63
775.532	757.92
775.715	737.44
775.897	805.02
776.079	784.54
776.261	768.16
776.444	788.64
776.626	710.82
776.808	725.15
776.99	635.04
777.173	733.34
777.355	757.92
777.537	684.19
777.719	710.82
777.901	663.71
778.083	676
778.265	678.05
778.447	745.63
778.629	704.67
778.811	702.62
778.993	637.09
779.175	725.15
779.357	688.29
779.539	628.9
779.721	657.57
779.903	630.95
780.085	594.08
780.267	661.66
780.449	694.43
780.631	622.75
780.812	610.47
780.994	540.83
781.176	561.31
781.358	651.42
781.54	628.9
781.721	585.89
781.903	577.7
782.085	669.86
782.267	645.28
782.448	465.06
782.63	487.59
782.812	589.99
782.993	573.6
783.175	534.69
783.357	489.64
783.538	596.13
783.72	485.54
783.901	518.31
784.083	528.55
784.264	546.98
784.446	481.44
784.627	489.64
784.809	565.41
784.99	512.16
785.172	589.99
785.353	491.68
785.535	530.59
785.716	508.07
785.897	473.25
786.079	456.87
786.26	487.59
786.441	475.3
786.623	401.57
786.804	485.54
786.985	536.74
787.167	465.06
787.348	430.24
787.529	422.05
787.71	503.97
787.891	391.33
788.073	393.38
788.254	356.52
788.435	424.1
788.616	430.24
788.797	399.52
788.978	430.24
789.159	389.28
789.34	432.29
789.522	342.18
789.703	444.58
789.884	413.86
790.065	372.9
790.246	426.15
790.427	442.53
790.607	372.9
790.788	520.35
790.969	344.23
791.15	366.76
791.331	381.09
791.512	368.81
791.693	374.95
791.874	405.67
792.054	428.2
792.235	413.86
792.416	348.33
792.597	422.05
792.778	323.75
792.958	364.71
793.139	348.33
793.32	348.33
793.5	340.13
793.681	340.13
793.862	321.7
794.042	389.28
794.223	274.6
794.404	327.85
794.584	393.38
794.765	399.52
794.945	299.17
795.126	434.34
795.306	329.89
795.487	336.04
795.667	405.67
795.848	346.28
796.028	270.5
796.209	307.37
796.389	317.61
796.57	309.41
796.75	252.07
796.93	280.74
797.111	237.74
797.291	301.22
797.471	299.17
797.652	293.03
797.832	274.6
798.012	336.04
798.192	315.56
798.373	264.36
798.553	209.06
798.733	262.31
798.913	303.27
799.093	325.8
799.274	301.22
799.454	293.03
799.634	262.31
799.814	290.98
799.994	217.26
800.174	315.56
800.354	235.69
800.534	129.19
800.714	239.78
800.894	311.46
801.074	284.84
801.254	176.3
801.434	243.88
801.614	168.1
801.794	178.34
801.974	807.07
802.154	233.64
802.334	229.54
802.514	221.35
802.693	196.78
802.873	194.73
803.053	323.75
803.233	241.83
803.413	235.69
803.592	260.26
803.772	280.74
803.952	225.45
804.131	239.78
804.311	247.97
804.491	299.17
804.67	172.2
804.85	278.69
805.03	176.3
805.209	284.84
805.389	325.8
805.568	235.69
805.748	239.78
805.928	217.26
806.107	258.21
806.287	254.12
806.466	202.92
806.646	241.83
806.825	237.74
807.004	184.49
807.184	225.45
807.363	250.02
807.543	170.15
807.722	200.87
807.901	198.82
808.081	200.87
808.26	151.72
808.439	188.58
808.619	204.97
808.798	264.36
808.977	231.59
809.156	227.5
809.336	149.67
809.515	241.83
809.694	147.62
809.873	190.63
810.052	137.38
810.231	196.78
810.411	211.11
810.59	295.08
810.769	164.01
810.948	182.44
811.127	123.05
811.306	125.1
811.485	194.73
811.664	184.49
811.843	151.72
812.022	217.26
812.201	225.45
812.38	194.73
812.559	250.02
812.737	293.03
812.916	129.19
813.095	145.58
813.274	176.3
813.453	116.9
813.632	96.43
813.811	250.02
813.989	127.14
814.168	161.96
814.347	110.76
814.526	127.14
814.704	223.4
814.883	118.95
815.062	123.05
815.24	229.54
815.419	121
815.598	194.73
815.776	133.29
815.955	178.34
816.133	129.19
816.312	159.91
816.49	129.19
816.669	192.68
816.847	184.49
817.026	145.58
817.204	131.24
817.383	104.62
817.561	137.38
817.74	194.73
817.918	108.71
818.097	141.48
818.275	145.58
818.453	198.82
818.632	131.24
818.81	145.58
818.988	121
819.167	147.62
819.345	125.1
819.523	90.28
819.701	151.72
819.879	73.9
820.058	73.9
820.236	168.1
820.414	161.96
820.592	192.68
820.77	127.14
820.948	145.58
821.127	55.47
821.305	102.57
821.483	161.96
821.661	94.38
821.839	172.2
822.017	102.57
822.195	110.76
822.373	135.34
822.551	73.9
822.729	159.91
822.907	172.2
823.085	200.87
823.262	32.94
823.44	151.72
823.618	121
823.796	155.82
823.974	57.51
824.152	49.32
824.329	84.14
824.507	98.47
824.685	159.91
824.863	139.43
825.04	51.37
825.218	102.57
825.396	90.28
825.574	96.43
825.751	106.67
825.929	106.67
826.107	180.39
826.284	110.76
826.462	170.15
826.639	94.38
826.817	88.23
826.994	45.23
827.172	209.06
827.349	194.73
827.527	168.1
827.704	94.38
827.882	137.38
828.059	168.1
828.237	133.29
828.414	129.19
828.591	80.04
828.769	133.29
828.946	131.24
829.124	108.71
829.301	145.58
829.478	61.61
829.655	129.19
829.833	53.42
830.01	88.23
830.187	129.19
830.364	104.62
830.542	100.52
830.719	116.9
830.896	34.99
831.073	57.51
831.25	86.19
831.427	143.53
831.604	151.72
831.782	49.32
831.959	131.24
832.136	129.19
832.313	155.82
832.49	55.47
832.667	139.43
832.844	39.08
833.021	149.67
833.198	164.01
833.374	86.19
833.551	49.32
833.728	75.95
833.905	118.95
834.082	121
834.259	53.42
834.436	114.86
834.612	94.38
834.789	94.38
834.966	75.95
835.143	63.66
835.319	77.99
835.496	69.8
835.673	94.38
835.85	82.09
836.026	110.76
836.203	153.77
836.38	55.47
836.556	106.67
836.733	69.8
836.909	84.14
837.086	39.08
837.262	-20.31
837.439	94.38
837.616	114.86
837.792	116.9
837.968	159.91
838.145	51.37
838.321	45.23
838.498	43.18
838.674	129.19
838.851	69.8
839.027	114.86
839.203	135.34
839.38	61.61
839.556	77.99
839.732	137.38
839.909	37.03
840.085	104.62
840.261	67.75
840.437	102.57
840.614	84.14
840.79	69.8
840.966	84.14
841.142	16.55
841.318	28.84
841.494	96.43
841.671	59.56
841.847	37.03
842.023	61.61
842.199	14.51
842.375	49.32
842.551	69.8
842.727	67.75
842.903	125.1
843.079	53.42
843.255	121
843.431	102.57
843.607	135.34
843.783	-30.55
843.959	96.43
844.134	24.75
844.31	127.14
844.486	-12.12
844.662	57.51
844.838	145.58
845.013	51.37
845.189	118.95
845.365	32.94
845.541	82.09
845.716	104.62
845.892	71.85
846.068	53.42
846.244	34.99
846.419	73.9
846.595	20.65
846.77	37.03
846.946	-1.88
847.122	143.53
847.297	55.47
847.473	131.24
847.648	43.18
847.824	-3.93
847.999	43.18
848.175	71.85
848.35	22.7
848.526	112.81
848.701	22.7
848.876	18.6
849.052	71.85
849.227	69.8
849.403	102.57
849.578	-3.93
849.753	53.42
849.929	47.27
850.104	55.47
850.279	90.28
850.454	57.51
850.63	65.71
850.805	30.89
850.98	88.23
851.155	86.19
851.33	18.6
851.505	63.66
851.681	96.43
851.856	-12.12
852.031	135.34
852.206	61.61
852.381	16.55
852.556	32.94
852.731	53.42
852.906	59.56
853.081	45.23
853.256	90.28
853.431	57.51
853.606	32.94
853.781	43.18
853.956	45.23
854.131	102.57
854.305	28.84
854.48	86.19
854.655	86.19
854.83	-32.6
855.005	2.22
855.18	4.27
855.354	26.79
855.529	47.27
855.704	77.99
855.879	88.23
856.053	90.28
856.228	69.8
856.403	28.84
856.577	86.19
856.752	28.84
856.926	37.03
857.101	77.99
857.276	16.55
857.45	45.23
857.625	77.99
857.799	51.37
857.974	94.38
858.148	61.61
858.323	82.09
858.497	30.89
858.672	69.8
858.846	20.65
859.02	118.95
859.195	12.46
859.369	43.18
859.543	80.04
859.718	55.47
859.892	20.65
860.066	57.51
860.241	10.41
860.415	53.42
860.589	82.09
860.763	41.13
860.938	43.18
861.112	67.75
861.286	30.89
861.46	-1.88
861.634	20.65
861.808	71.85
861.982	4.27
862.157	-18.26
862.331	-5.97
862.505	47.27
862.679	53.42
862.853	73.9
863.027	-42.84
863.201	121
863.375	22.7
863.549	45.23
863.722	61.61
863.896	86.19
864.07	63.66
864.244	53.42
864.418	4.27
864.592	30.89
864.766	55.47
864.939	63.66
865.113	16.55
865.287	10.41
865.461	22.7
865.634	-14.17
865.808	106.67
865.982	12.46
866.156	86.19
866.329	77.99
866.503	55.47
866.676	137.38
866.85	67.75
867.024	90.28
867.197	24.75
867.371	49.32
867.544	77.99
867.718	37.03
867.891	71.85
868.065	2.22
868.238	20.65
868.412	88.23
868.585	30.89
868.759	8.36
868.932	0.17
869.105	28.84
869.279	34.99
869.452	2.22
869.625	88.23
869.799	121
869.972	-46.93
870.145	14.51
870.319	30.89
870.492	-28.5
870.665	-8.02
870.838	34.99
871.011	14.51
871.185	20.65
871.358	-3.93
871.531	28.84
871.704	20.65
871.877	32.94
872.05	20.65
872.223	-20.31
872.396	49.32
872.569	39.08
872.742	37.03
872.915	59.56
873.088	20.65
873.261	12.46
873.434	-40.79
873.607	12.46
873.78	86.19
873.953	45.23
874.126	55.47
874.299	61.61
874.471	4.27
874.644	57.51
874.817	61.61
874.99	90.28
875.163	-12.12
875.335	45.23
875.508	-12.12
875.681	63.66
875.853	20.65
876.026	28.84
876.199	12.46
876.371	30.89
876.544	-24.4
876.717	45.23
876.889	73.9
877.062	45.23
877.234	28.84
877.407	84.14
877.579	39.08
877.752	4.27
877.924	-12.12
878.097	39.08
878.269	22.7
878.442	4.27
878.614	-24.4
878.786	47.27
878.959	24.75
879.131	20.65
879.303	-20.31
879.476	37.03
879.648	94.38
879.82	71.85
879.993	8.36
880.165	8.36
880.337	12.46
880.509	-28.5
880.681	18.6
880.854	4.27
881.026	45.23
881.198	77.99
881.37	57.51
881.542	16.55
881.714	22.7
881.886	22.7
882.058	30.89
882.23	-18.26
882.402	6.31
882.574	43.18
882.746	20.65
882.918	139.43
883.09	-10.07
883.262	39.08
883.434	8.36
883.606	-24.4
883.778	12.46
883.95	8.36
884.122	24.75
884.293	55.47
884.465	-55.12
884.637	71.85
884.809	6.31
884.98	-3.93
885.152	-16.21
885.324	123.05
885.496	-28.5
885.667	75.95
885.839	32.94
886.011	112.81
886.182	32.94
886.354	71.85
886.525	39.08
886.697	88.23
886.869	73.9
887.04	30.89
887.212	22.7
887.383	53.42
887.555	-12.12
887.726	30.89
887.897	24.75
888.069	22.7
888.24	37.03
888.412	55.47
888.583	-16.21
888.754	20.65
888.926	-24.4
889.097	-36.69
889.268	61.61
889.44	41.13
889.611	-44.88
889.782	106.67
889.953	-10.07
890.125	49.32
890.296	-53.08
890.467	-5.97
890.638	-12.12
890.809	24.75
890.98	92.33
891.151	49.32
891.323	69.8
891.494	45.23
891.665	-28.5
891.836	45.23
892.007	22.7
892.178	47.27
892.349	-5.97
892.52	-3.93
892.691	-32.6
892.862	69.8
893.032	43.18
893.203	24.75
893.374	12.46
893.545	71.85
893.716	53.42
893.887	-71.51
894.057	39.08
894.228	51.37
894.399	49.32
894.57	45.23
894.74	20.65
894.911	45.23
895.082	53.42
895.253	47.27
895.423	8.36
895.594	-16.21
895.764	4.27
895.935	8.36
896.106	26.79
896.276	4.27
896.447	20.65
896.617	0.17
896.788	-20.31
896.958	39.08
897.129	37.03
897.299	22.7
897.47	55.47
897.64	4.27
897.81	-20.31
897.981	22.7
898.151	18.6
898.322	18.6
898.492	4.27
898.662	53.42
898.832	30.89
899.003	30.89
899.173	92.33
899.343	-48.98
899.513	4.27
