Data from USB4F104151__174__14-19-58-597.txt Node

Date: Thu Mar 13 14:19:58 EDT 2025
User: louis
Spectrometer: USB4F10415
Trigger mode: 4
Integration Time (sec): 2.000000E-2
Scans to average: 1
Electric dark correction enabled: true
Nonlinearity correction enabled: false
Boxcar width: 0
XAxis mode: Wavelengths
Number of Pixels in Spectrum: 3648
>>>>>Begin Spectral Data<<<<<
178.204	-112.98
178.424	-112.98
178.644	-112.98
178.864	-121.17
179.084	-78.16
179.304	42.67
179.524	-4.44
179.744	-6.49
179.964	20.14
180.184	-14.68
180.404	-121.17
180.624	11.95
180.844	-22.87
181.064	1.71
181.283	42.67
181.503	-35.16
181.723	85.67
181.943	-39.25
182.163	102.06
182.383	-51.54
182.602	-22.87
182.822	63.15
183.042	69.29
183.262	30.38
183.482	26.28
183.701	44.71
183.921	11.95
184.141	-14.68
184.361	52.91
184.58	61.1
184.8	-14.68
185.02	38.57
185.239	104.11
185.459	-31.06
185.679	36.52
185.898	50.86
186.118	91.82
186.338	75.43
186.557	50.86
186.777	77.48
186.997	59.05
187.216	-16.73
187.436	26.28
187.655	63.15
187.875	42.67
188.095	18.09
188.314	63.15
188.534	145.06
188.753	54.95
188.973	116.39
189.192	34.47
189.412	18.09
189.631	71.34
189.851	63.15
190.07	79.53
190.29	11.95
190.509	5.8
190.729	83.63
190.948	-12.63
191.168	69.29
191.387	59.05
191.607	26.28
191.826	143.02
192.045	83.63
192.265	40.62
192.484	9.9
192.704	34.47
192.923	-51.54
193.142	75.43
193.362	112.3
193.581	104.11
193.8	22.19
194.02	-29.01
194.239	61.1
194.458	61.1
194.678	38.57
194.897	75.43
195.116	-18.77
195.335	63.15
195.555	52.91
195.774	67.24
195.993	-6.49
196.212	91.82
196.432	69.29
196.651	75.43
196.87	9.9
197.089	126.63
197.308	-53.59
197.528	16.04
197.747	48.81
197.966	75.43
198.185	11.95
198.404	52.91
198.623	91.82
198.842	-45.4
199.062	63.15
199.281	91.82
199.5	9.9
199.719	36.52
199.938	9.9
200.157	-2.39
200.376	48.81
200.595	26.28
200.814	44.71
201.033	-22.87
201.252	48.81
201.471	42.67
201.69	124.58
201.909	59.05
202.128	-6.49
202.347	11.95
202.566	5.8
202.785	42.67
203.004	-14.68
203.223	54.95
203.442	63.15
203.661	59.05
203.879	44.71
204.098	38.57
204.317	79.53
204.536	75.43
204.755	13.99
204.974	26.28
205.193	16.04
205.411	57
205.63	-14.68
205.849	-4.44
206.068	67.24
206.287	28.33
206.505	67.24
206.724	61.1
206.943	5.8
207.162	22.19
207.381	34.47
207.599	69.29
207.818	-31.06
208.037	34.47
208.255	32.43
208.474	-12.63
208.693	104.11
208.911	28.33
209.13	140.97
209.349	9.9
209.567	38.57
209.786	87.72
210.005	7.85
210.223	67.24
210.442	-78.16
210.661	-18.77
210.879	50.86
211.098	11.95
211.316	95.91
211.535	48.81
211.753	7.85
211.972	11.95
212.191	16.04
212.409	9.9
212.628	50.86
212.846	126.63
213.065	34.47
213.283	46.76
213.502	30.38
213.72	42.67
213.938	22.19
214.157	46.76
214.375	20.14
214.594	18.09
214.812	71.34
215.031	57
215.249	-31.06
215.467	42.67
215.686	-45.4
215.904	54.95
216.122	3.75
216.341	67.24
216.559	24.23
216.778	28.33
216.996	46.76
217.214	24.23
217.432	9.9
217.651	42.67
217.869	46.76
218.087	-31.06
218.306	-4.44
218.524	36.52
218.742	50.86
218.96	54.95
219.179	67.24
219.397	145.06
219.615	134.82
219.833	20.14
220.051	124.58
220.27	130.73
220.488	71.34
220.706	-8.53
220.924	9.9
221.142	-31.06
221.36	89.77
221.578	1.71
221.796	26.28
222.015	-10.58
222.233	93.87
222.451	22.19
222.669	44.71
222.887	20.14
223.105	5.8
223.323	13.99
223.541	-6.49
223.759	106.15
223.977	30.38
224.195	34.47
224.413	9.9
224.631	110.25
224.849	87.72
225.067	79.53
225.285	63.15
225.503	61.1
225.721	5.8
225.939	30.38
226.157	63.15
226.375	110.25
226.592	1.71
226.81	28.33
227.028	-0.34
227.246	114.34
227.464	57
227.682	1.71
227.9	30.38
228.117	20.14
228.335	50.86
228.553	18.09
228.771	30.38
228.989	69.29
229.206	26.28
229.424	102.06
229.642	36.52
229.86	30.38
230.077	11.95
230.295	22.19
230.513	-6.49
230.731	22.19
230.948	91.82
231.166	124.58
231.384	-2.39
231.601	30.38
231.819	52.91
232.037	18.09
232.254	-6.49
232.472	-6.49
232.689	3.75
232.907	42.67
233.125	106.15
233.342	38.57
233.56	50.86
233.777	83.63
233.995	13.99
234.213	-14.68
234.43	34.47
234.648	34.47
234.865	18.09
235.083	100.01
235.3	-2.39
235.518	38.57
235.735	83.63
235.953	93.87
236.17	-18.77
236.388	75.43
236.605	106.15
236.822	-4.44
237.04	83.63
237.257	83.63
237.475	40.62
237.692	16.04
237.909	63.15
238.127	65.19
238.344	50.86
238.562	-4.44
238.779	73.39
238.996	24.23
239.214	30.38
239.431	110.25
239.648	28.33
239.865	42.67
240.083	7.85
240.3	-12.63
240.517	38.57
240.735	85.67
240.952	126.63
241.169	52.91
241.386	3.75
241.603	44.71
241.821	18.09
242.038	22.19
242.255	-14.68
242.472	3.75
242.689	22.19
242.907	159.4
243.124	32.43
243.341	7.85
243.558	32.43
243.775	9.9
243.992	5.8
244.209	83.63
244.426	36.52
244.643	52.91
244.86	42.67
245.078	112.3
245.295	26.28
245.512	3.75
245.729	-12.63
245.946	54.95
246.163	-12.63
246.38	59.05
246.597	83.63
246.814	26.28
247.031	34.47
247.248	16.04
247.464	7.85
247.681	36.52
247.898	50.86
248.115	54.95
248.332	18.09
248.549	26.28
248.766	91.82
248.983	48.81
249.2	-6.49
249.417	-10.58
249.633	1.71
249.85	79.53
250.067	-12.63
250.284	85.67
250.501	30.38
250.717	75.43
250.934	-18.77
251.151	-31.06
251.368	38.57
251.585	44.71
251.801	57
252.018	63.15
252.235	-4.44
252.451	5.8
252.668	-10.58
252.885	79.53
253.102	5.8
253.318	18.09
253.535	-47.44
253.752	32.43
253.968	87.72
254.185	24.23
254.401	-2.39
254.618	9.9
254.835	97.96
255.051	110.25
255.268	3.75
255.484	-2.39
255.701	30.38
255.917	-4.44
256.134	59.05
256.351	54.95
256.567	20.14
256.784	13.99
257	-4.44
257.217	42.67
257.433	73.39
257.65	63.15
257.866	151.21
258.082	-29.01
258.299	46.76
258.515	-18.77
258.732	59.05
258.948	28.33
259.165	38.57
259.381	75.43
259.597	-24.92
259.814	28.33
260.03	3.75
260.246	18.09
260.463	57
260.679	87.72
260.895	28.33
261.112	100.01
261.328	91.82
261.544	67.24
261.761	71.34
261.977	-20.82
262.193	42.67
262.409	93.87
262.626	83.63
262.842	102.06
263.058	-104.79
263.274	89.77
263.49	-55.64
263.707	34.47
263.923	52.91
264.139	48.81
264.355	54.95
264.571	61.1
264.787	18.09
265.004	57
265.22	13.99
265.436	61.1
265.652	20.14
265.868	50.86
266.084	3.75
266.3	100.01
266.516	-2.39
266.732	54.95
266.948	48.81
267.164	30.38
267.38	54.95
267.596	61.1
267.812	44.71
268.028	93.87
268.244	3.75
268.46	50.86
268.676	71.34
268.892	30.38
269.108	-51.54
269.324	63.15
269.54	-22.87
269.756	42.67
269.972	-33.11
270.188	-10.58
270.403	9.9
270.619	46.76
270.835	79.53
271.051	59.05
271.267	-26.96
271.483	110.25
271.698	36.52
271.914	102.06
272.13	3.75
272.346	11.95
272.562	65.19
272.777	54.95
272.993	3.75
273.209	-2.39
273.425	1.71
273.64	26.28
273.856	147.11
274.072	11.95
274.287	26.28
274.503	26.28
274.719	50.86
274.934	42.67
275.15	-24.92
275.366	-6.49
275.581	61.1
275.797	42.67
276.012	50.86
276.228	44.71
276.444	1.71
276.659	157.35
276.875	-2.39
277.09	7.85
277.306	13.99
277.521	79.53
277.737	-16.73
277.952	50.86
278.168	16.04
278.383	-2.39
278.599	-31.06
278.814	44.71
279.03	71.34
279.245	52.91
279.461	-8.53
279.676	75.43
279.892	36.52
280.107	28.33
280.322	77.48
280.538	40.62
280.753	85.67
280.969	83.63
281.184	18.09
281.399	28.33
281.615	34.47
281.83	59.05
282.045	-12.63
282.26	16.04
282.476	38.57
282.691	-6.49
282.906	46.76
283.122	57
283.337	-2.39
283.552	83.63
283.767	61.1
283.983	73.39
284.198	79.53
284.413	91.82
284.628	-31.06
284.843	26.28
285.058	85.67
285.274	-16.73
285.489	-31.06
285.704	67.24
285.919	28.33
286.134	87.72
286.349	85.67
286.564	-14.68
286.779	57
286.995	1.71
287.21	-10.58
287.425	44.71
287.64	67.24
287.855	44.71
288.07	36.52
288.285	22.19
288.5	102.06
288.715	44.71
288.93	5.8
289.145	7.85
289.36	118.44
289.575	54.95
289.79	52.91
290.004	34.47
290.219	85.67
290.434	52.91
290.649	1.71
290.864	63.15
291.079	-39.25
291.294	91.82
291.509	-14.68
291.724	-6.49
291.938	52.91
292.153	85.67
292.368	28.33
292.583	5.8
292.798	63.15
293.012	75.43
293.227	3.75
293.442	-10.58
293.657	48.81
293.871	104.11
294.086	30.38
294.301	85.67
294.516	11.95
294.73	26.28
294.945	24.23
295.16	20.14
295.374	73.39
295.589	85.67
295.804	50.86
296.018	67.24
296.233	134.82
296.447	75.43
296.662	63.15
296.877	50.86
297.091	52.91
297.306	-31.06
297.52	-47.44
297.735	67.24
297.949	50.86
298.164	3.75
298.378	13.99
298.593	75.43
298.807	-29.01
299.022	20.14
299.236	52.91
299.451	63.15
299.665	63.15
299.88	36.52
300.094	71.34
300.309	32.43
300.523	-6.49
300.737	30.38
300.952	26.28
301.166	65.19
301.381	40.62
301.595	75.43
301.809	-6.49
302.024	85.67
302.238	9.9
302.452	157.35
302.667	-22.87
302.881	61.1
303.095	85.67
303.309	-10.58
303.524	7.85
303.738	50.86
303.952	44.71
304.166	9.9
304.381	-57.68
304.595	59.05
304.809	18.09
305.023	79.53
305.237	28.33
305.452	44.71
305.666	120.49
305.88	145.06
306.094	89.77
306.308	42.67
306.522	65.19
306.736	79.53
306.95	28.33
307.164	-12.63
307.379	61.1
307.593	54.95
307.807	-78.16
308.021	59.05
308.235	71.34
308.449	1.71
308.663	59.05
308.877	85.67
309.091	61.1
309.305	11.95
309.519	-74.07
309.733	79.53
309.947	3.75
310.161	85.67
310.374	97.96
310.588	26.28
310.802	30.38
311.016	20.14
311.23	67.24
311.444	38.57
311.658	16.04
311.872	67.24
312.085	65.19
312.299	52.91
312.513	71.34
312.727	36.52
312.941	1.71
313.154	54.95
313.368	-20.82
313.582	28.33
313.796	42.67
314.009	42.67
314.223	1.71
314.437	48.81
314.651	100.01
314.864	22.19
315.078	44.71
315.292	34.47
315.505	11.95
315.719	42.67
315.933	-43.35
316.146	-20.82
316.36	-4.44
316.573	18.09
316.787	-31.06
317.001	30.38
317.214	18.09
317.428	77.48
317.641	-6.49
317.855	3.75
318.068	34.47
318.282	124.58
318.495	16.04
318.709	44.71
318.922	-12.63
319.136	104.11
319.349	30.38
319.563	52.91
319.776	59.05
319.99	34.47
320.203	16.04
320.417	9.9
320.63	46.76
320.843	116.39
321.057	46.76
321.27	75.43
321.483	67.24
321.697	36.52
321.91	-29.01
322.124	75.43
322.337	36.52
322.55	85.67
322.763	77.48
322.977	11.95
323.19	-6.49
323.403	-4.44
323.617	52.91
323.83	112.3
324.043	81.58
324.256	46.76
324.469	13.99
324.683	40.62
324.896	61.1
325.109	18.09
325.322	-18.77
325.535	28.33
325.748	100.01
325.962	59.05
326.175	54.95
326.388	40.62
326.601	59.05
326.814	69.29
327.027	67.24
327.24	87.72
327.453	124.58
327.666	67.24
327.879	83.63
328.092	73.39
328.305	59.05
328.518	77.48
328.731	59.05
328.944	85.67
329.157	18.09
329.37	26.28
329.583	30.38
329.796	42.67
330.009	65.19
330.222	108.2
330.435	5.8
330.648	75.43
330.861	69.29
331.073	-47.44
331.286	75.43
331.499	38.57
331.712	20.14
331.925	75.43
332.138	65.19
332.35	1.71
332.563	61.1
332.776	95.91
332.989	69.29
333.202	44.71
333.414	-37.2
333.627	42.67
333.84	-2.39
334.053	71.34
334.265	26.28
334.478	16.04
334.691	24.23
334.903	-4.44
335.116	30.38
335.329	44.71
335.541	63.15
335.754	91.82
335.966	1.71
336.179	20.14
336.392	52.91
336.604	52.91
336.817	71.34
337.029	61.1
337.242	95.91
337.454	159.4
337.667	132.78
337.88	77.48
338.092	32.43
338.305	77.48
338.517	11.95
338.729	63.15
338.942	116.39
339.154	50.86
339.367	30.38
339.579	108.2
339.792	42.67
340.004	65.19
340.217	-10.58
340.429	13.99
340.641	65.19
340.854	9.9
341.066	65.19
341.278	28.33
341.491	167.59
341.703	44.71
341.915	46.76
342.128	40.62
342.34	73.39
342.552	-12.63
342.764	52.91
342.977	18.09
343.189	-14.68
343.401	11.95
343.613	32.43
343.826	75.43
344.038	36.52
344.25	9.9
344.462	59.05
344.674	3.75
344.886	46.76
345.099	69.29
345.311	69.29
345.523	38.57
345.735	-43.35
345.947	26.28
346.159	128.68
346.371	-4.44
346.583	20.14
346.795	71.34
347.007	26.28
347.219	46.76
347.431	75.43
347.643	32.43
347.855	108.2
348.067	71.34
348.279	26.28
348.491	30.38
348.703	-14.68
348.915	97.96
349.127	30.38
349.339	77.48
349.551	20.14
349.763	91.82
349.975	40.62
350.187	26.28
350.399	26.28
350.61	42.67
350.822	112.3
351.034	118.44
351.246	-6.49
351.458	22.19
351.669	65.19
351.881	73.39
352.093	59.05
352.305	75.43
352.517	59.05
352.728	36.52
352.94	89.77
353.152	91.82
353.363	65.19
353.575	67.24
353.787	102.06
353.999	52.91
354.21	145.06
354.422	-0.34
354.633	67.24
354.845	18.09
355.057	20.14
355.268	83.63
355.48	-4.44
355.692	32.43
355.903	59.05
356.115	67.24
356.326	75.43
356.538	87.72
356.749	-31.06
356.961	83.63
357.172	73.39
357.384	11.95
357.595	71.34
357.807	61.1
358.018	-2.39
358.23	67.24
358.441	79.53
358.653	18.09
358.864	26.28
359.075	34.47
359.287	-24.92
359.498	110.25
359.709	83.63
359.921	69.29
360.132	67.24
360.344	-4.44
360.555	83.63
360.766	-0.34
360.977	67.24
361.189	124.58
361.4	18.09
361.611	67.24
361.823	16.04
362.034	75.43
362.245	46.76
362.456	22.19
362.667	61.1
362.879	3.75
363.09	5.8
363.301	-4.44
363.512	93.87
363.723	20.14
363.935	54.95
364.146	34.47
364.357	34.47
364.568	75.43
364.779	-22.87
364.99	67.24
365.201	36.52
365.412	116.39
365.623	52.91
365.834	44.71
366.045	91.82
366.256	102.06
366.467	59.05
366.678	3.75
366.889	13.99
367.1	65.19
367.311	75.43
367.522	36.52
367.733	83.63
367.944	69.29
368.155	63.15
368.366	20.14
368.577	26.28
368.788	38.57
368.999	100.01
369.209	73.39
369.42	69.29
369.631	116.39
369.842	-22.87
370.053	-4.44
370.264	91.82
370.474	-12.63
370.685	83.63
370.896	57
371.107	52.91
371.317	32.43
371.528	28.33
371.739	112.3
371.95	73.39
372.16	140.97
372.371	54.95
372.582	108.2
372.792	52.91
373.003	73.39
373.214	116.39
373.424	155.3
373.635	87.72
373.846	136.87
374.056	52.91
374.267	11.95
374.477	100.01
374.688	20.14
374.898	42.67
375.109	91.82
375.319	11.95
375.53	52.91
375.74	48.81
375.951	22.19
376.161	112.3
376.372	120.49
376.582	110.25
376.793	69.29
377.003	59.05
377.214	87.72
377.424	50.86
377.635	67.24
377.845	75.43
378.055	13.99
378.266	50.86
378.476	32.43
378.686	118.44
378.897	46.76
379.107	145.06
379.317	61.1
379.528	54.95
379.738	85.67
379.948	-14.68
380.158	100.01
380.369	59.05
380.579	95.91
380.789	32.43
380.999	85.67
381.21	9.9
381.42	130.73
381.63	57
381.84	149.16
382.05	77.48
382.261	44.71
382.471	75.43
382.681	110.25
382.891	95.91
383.101	93.87
383.311	-22.87
383.521	46.76
383.731	48.81
383.941	132.78
384.151	83.63
384.361	13.99
384.571	36.52
384.781	7.85
384.991	75.43
385.201	100.01
385.411	65.19
385.621	134.82
385.831	-10.58
386.041	85.67
386.251	24.23
386.461	83.63
386.671	91.82
386.881	63.15
387.091	75.43
387.301	97.96
387.511	34.47
387.72	36.52
387.93	83.63
388.14	75.43
388.35	79.53
388.56	108.2
388.769	63.15
388.979	-6.49
389.189	79.53
389.399	36.52
389.609	67.24
389.818	79.53
390.028	67.24
390.238	59.05
390.447	147.11
390.657	89.77
390.867	59.05
391.076	-0.34
391.286	95.91
391.496	106.15
391.705	67.24
391.915	75.43
392.125	36.52
392.334	69.29
392.544	97.96
392.753	59.05
392.963	46.76
393.172	102.06
393.382	9.9
393.591	155.3
393.801	26.28
394.01	87.72
394.22	116.39
394.429	42.67
394.639	83.63
394.848	40.62
395.058	102.06
395.267	71.34
395.477	100.01
395.686	116.39
395.895	87.72
396.105	110.25
396.314	100.01
396.524	52.91
396.733	40.62
396.942	124.58
397.152	102.06
397.361	130.73
397.57	149.16
397.78	110.25
397.989	132.78
398.198	165.54
398.407	61.1
398.617	67.24
398.826	118.44
399.035	114.34
399.244	108.2
399.453	83.63
399.663	95.91
399.872	138.92
400.081	61.1
400.29	169.64
400.499	46.76
400.708	89.77
400.917	85.67
401.127	167.59
401.336	75.43
401.545	124.58
401.754	140.97
401.963	126.63
402.172	95.91
402.381	183.98
402.59	114.34
402.799	91.82
403.008	196.26
403.217	192.17
403.426	175.78
403.635	155.3
403.844	122.54
404.053	91.82
404.262	110.25
404.471	126.63
404.68	210.6
404.888	181.93
405.097	169.64
405.306	190.12
405.515	140.97
405.724	130.73
405.933	134.82
406.142	198.31
406.35	265.89
406.559	216.74
406.768	231.08
406.977	259.75
407.185	212.65
407.394	169.64
407.603	177.83
407.812	226.98
408.02	278.18
408.229	245.41
408.438	229.03
408.646	214.7
408.855	304.81
409.064	226.98
409.272	319.14
409.481	315.05
409.69	366.25
409.898	306.85
410.107	298.66
410.315	343.72
410.524	257.7
410.733	335.53
410.941	345.77
411.15	358.05
411.358	288.42
411.567	464.55
411.775	437.92
411.984	388.77
412.192	485.03
412.401	497.32
412.609	501.41
412.818	532.13
413.026	599.71
413.234	542.37
413.443	480.93
413.651	534.18
413.86	624.29
414.068	736.93
414.276	632.48
414.485	659.1
414.693	706.21
414.901	720.54
415.11	712.35
415.318	775.84
415.526	761.5
415.734	757.41
415.943	769.69
416.151	878.24
416.359	892.57
416.567	812.7
416.776	954.01
416.984	1074.84
417.192	1089.18
417.4	1052.31
417.608	935.58
417.817	1035.93
418.025	1128.09
418.233	1197.72
418.441	1197.72
418.649	1123.99
418.857	1285.78
419.065	1287.83
419.273	1230.49
419.481	1384.09
419.689	1420.95
419.897	1513.11
420.105	1543.83
420.313	1660.56
420.521	1648.27
420.729	1722
420.937	1724.05
421.145	1840.78
421.353	1846.93
421.561	1906.32
421.769	2027.15
421.977	1963.66
422.185	2180.75
422.393	2201.23
422.601	2385.54
422.809	2295.43
423.017	2424.45
423.224	2422.41
423.432	2588.29
423.64	2524.8
423.848	2729.6
424.056	2707.07
424.263	2920.06
424.471	2795.14
424.679	2973.31
424.887	3198.59
425.094	3282.55
425.302	3231.35
425.51	3294.84
425.718	3266.17
425.925	3534.45
426.133	3688.05
426.341	3765.87
426.548	3925.61
426.756	4019.82
426.964	3997.29
427.171	4265.58
427.379	4376.17
427.586	4601.44
427.794	4507.24
428.001	4886.11
428.209	4961.89
428.417	4822.63
428.624	5176.92
428.832	5260.89
429.039	5281.37
429.247	5181.02
429.454	5699.16
429.662	6172.24
429.869	5719.64
430.076	6032.97
430.284	5971.54
430.491	6215.24
430.699	6641.22
430.906	6741.57
431.114	6637.13
431.321	6772.29
431.528	7130.69
431.736	7351.87
431.943	7761.46
432.15	7695.93
432.358	7562.81
432.565	8048.18
432.772	7833.14
432.979	8474.15
433.187	8474.15
433.394	8545.83
433.601	9076.26
433.808	9276.96
434.016	9293.34
434.223	9498.14
434.43	9991.7
434.637	9842.2
434.844	10475.02
435.052	10751.49
435.259	10554.89
435.466	10831.37
435.673	10522.12
435.88	11460.09
436.087	11884.02
436.294	11851.25
436.501	11621.88
436.708	11843.06
436.915	12510.7
437.122	12725.74
437.329	12801.51
437.537	13102.56
437.743	13499.87
437.95	13161.95
438.157	14009.81
438.364	14396.88
438.571	14196.18
438.778	14630.35
438.985	15611.32
439.192	15156.68
439.399	15631.8
439.606	15289.79
439.813	16420.27
440.02	17245.6
440.227	16774.57
440.433	16635.31
440.64	17126.82
440.847	17182.12
441.054	17382.82
441.261	18906.51
441.467	18570.64
441.674	18662.8
441.881	19502.47
442.088	19051.91
442.294	19123.59
442.501	19729.79
442.708	20194.68
442.914	21087.59
443.121	21857.63
443.328	21106.02
443.534	23174.47
443.741	22023.51
443.948	21759.33
444.154	23442.76
444.361	23319.88
444.568	23405.89
444.774	23244.1
444.981	23805.25
445.187	23979.32
445.394	25474.34
445.6	24808.75
445.807	27346.19
446.013	26047.77
446.22	26592.53
446.426	27587.85
446.633	28032.25
446.839	28654.84
447.046	27677.96
447.252	29109.49
447.459	29322.48
447.665	29166.83
447.871	30391.51
448.078	31544.52
448.284	30311.64
448.491	30852.31
448.697	32027.84
448.903	32939.19
449.11	33017.01
449.316	32388.28
449.522	32773.3
449.728	33815.72
449.935	34129.06
450.141	33789.1
450.347	34497.69
450.553	33465.52
450.76	34284.7
450.966	34935.96
451.172	34808.98
451.378	35765.38
451.584	35214.48
451.791	35968.13
451.997	35237.01
452.203	36164.74
452.409	36508.8
452.615	36459.65
452.821	34540.7
453.027	34542.75
453.233	36115.59
453.44	34940.05
453.646	35060.88
453.852	36021.38
454.058	35937.41
454.264	34966.68
454.47	35609.74
454.676	34622.62
454.882	36074.63
455.088	33031.35
455.294	33109.17
455.5	33807.53
455.705	34532.51
455.911	32830.65
456.117	32214.21
456.323	31663.3
456.529	30592.22
456.735	31761.61
456.941	30711
457.147	30315.74
457.352	29152.49
457.558	29097.2
457.764	29099.25
457.97	28400.89
458.176	28122.37
458.381	27985.15
458.587	26514.71
458.793	26662.16
458.999	25406.76
459.204	27088.14
459.41	26271
459.616	24583.48
459.821	24614.2
460.027	24558.9
460.233	24079.68
460.438	23084.36
460.644	23065.93
460.85	21972.32
461.055	21644.64
461.261	21673.31
461.466	19918.2
461.672	19447.17
461.878	20784.49
462.083	19633.54
462.289	19154.31
462.494	18689.42
462.7	18199.96
462.905	17663.39
463.111	18294.16
463.316	18025.88
463.522	17806.75
463.727	17810.84
463.932	17833.37
464.138	17579.42
464.343	17687.96
464.549	17427.87
464.754	17687.96
464.959	17782.17
465.165	17536.42
465.37	16713.13
465.575	16600.49
465.781	16856.49
465.986	17196.45
466.191	16381.36
466.397	16242.1
466.602	15517.12
466.807	15941.05
467.012	15797.69
467.218	15795.64
467.423	15523.26
467.628	15717.82
467.833	16385.46
468.038	15699.39
468.244	15336.9
468.449	15795.64
468.654	15314.37
468.859	15175.11
469.064	15230.4
469.269	14593.48
469.474	14699.98
469.679	15005.13
469.885	14511.57
470.09	14599.63
470.295	14878.15
470.5	14327.25
470.705	14665.16
470.91	14345.68
471.115	13954.52
471.32	14026.2
471.525	14101.97
471.73	13848.02
471.935	13641.18
472.139	13252.06
472.344	13403.61
472.549	13321.7
472.754	13239.78
472.959	12961.25
473.164	12633.58
473.369	12408.3
473.574	12862.95
473.778	13055.46
473.983	12848.61
474.188	12729.83
474.393	12211.7
474.598	12127.73
474.802	11931.12
475.007	11828.73
475.212	11978.23
475.417	11480.57
475.621	11595.26
475.826	11636.22
476.031	11392.51
476.235	11093.51
476.44	11261.44
476.645	10933.76
476.849	11044.35
477.054	10919.43
477.259	10688.01
477.463	10905.09
477.668	10679.82
477.872	10651.14
478.077	10348.04
478.282	10208.78
478.486	10196.5
478.691	9969.17
478.895	10128.91
479.1	9954.83
479.304	9983.51
479.509	9592.34
479.713	9909.78
479.918	9467.42
480.122	9465.37
480.326	9719.32
480.531	9623.06
480.735	9385.5
480.94	9426.46
481.144	9711.13
481.348	9309.72
481.553	9465.37
481.757	9057.82
481.961	9457.18
482.166	9242.14
482.37	9422.36
482.574	8988.19
482.778	9180.7
482.983	9383.45
483.187	9342.49
483.391	9258.53
483.595	9242.14
483.8	9139.74
484.004	9154.08
484.208	9356.83
484.412	9168.41
484.616	9164.32
484.821	9147.94
485.025	9143.84
485.229	9199.13
485.433	9152.03
485.637	9231.9
485.841	9231.9
486.045	9053.73
486.249	9100.83
486.453	9227.81
486.657	9080.35
486.861	9063.97
487.065	8951.33
487.269	9213.47
487.473	8996.39
487.677	9205.28
487.881	9442.84
488.085	9088.54
488.289	9170.46
488.493	9203.23
488.697	9164.32
488.901	9195.04
489.105	9236
489.309	9410.08
489.512	9340.44
489.716	9367.07
489.92	9352.73
490.124	9375.26
490.328	9535
490.531	9188.89
490.735	9487.9
490.939	9528.86
491.143	9385.5
491.346	9612.82
491.55	9565.72
491.754	9383.45
491.958	9639.45
492.161	9414.17
492.365	9522.71
492.569	9651.74
492.772	9569.82
492.976	9747.99
493.18	9850.39
493.383	10036.75
493.587	9823.76
493.79	10235.41
493.994	10032.66
494.197	10133.01
494.401	10368.52
494.605	10145.3
494.808	10276.37
495.012	10302.99
495.215	10380.81
495.419	10530.31
495.622	10663.43
495.825	10540.55
496.029	10663.43
496.232	10814.98
496.436	10618.38
496.639	11150.85
496.843	10880.52
497.046	11480.57
497.249	11499
497.453	11369.98
497.656	11570.68
497.859	11556.35
498.063	11703.8
498.266	12017.14
498.469	11777.53
498.673	12068.34
498.876	12187.12
499.079	12293.62
499.282	12150.26
499.485	12418.54
499.689	12563.95
499.892	12660.2
500.095	12660.2
500.298	13034.98
500.501	13014.5
500.705	13403.61
500.908	13356.51
501.111	13798.87
501.314	13852.12
501.517	13792.73
501.72	13950.42
501.923	14028.24
502.126	14374.35
502.329	14616.01
502.532	14968.26
502.735	14634.44
502.938	14855.62
503.141	15291.84
503.344	15115.72
503.547	15156.68
503.75	15592.89
503.953	15859.13
504.156	15926.71
504.359	15764.92
504.562	16135.6
504.765	16311.73
504.968	16440.75
505.17	16680.36
505.373	16950.7
505.576	17198.5
505.779	17200.55
505.982	17593.76
506.185	17489.31
506.387	17575.33
506.59	17724.83
506.793	18122.13
506.996	18187.67
507.198	18709.9
507.401	18644.37
507.604	18800.01
507.807	19246.47
508.009	19117.45
508.212	19529.09
508.415	19391.87
508.617	19719.55
508.82	19846.52
509.022	19899.77
509.225	20295.03
509.428	20381.04
509.63	20665.71
509.833	20708.72
510.035	21228.9
510.238	21083.5
510.44	21364.07
510.643	21714.27
510.845	21738.85
511.048	21917.02
511.25	22213.98
511.453	22146.39
511.655	22973.77
511.858	22736.21
512.06	22920.52
512.262	23446.85
512.465	23094.6
512.667	23571.78
512.87	23852.35
513.072	23964.99
513.274	24126.78
513.477	24790.32
513.679	24593.72
513.881	24900.91
514.084	25316.65
514.286	25097.52
514.488	25044.27
514.69	26242.33
514.893	26119.45
515.095	26277.15
515.297	26221.85
515.499	26539.29
515.701	26682.64
515.904	27370.76
516.106	27102.48
516.308	27591.94
516.51	27950.34
516.712	28022.02
516.914	28146.94
517.116	28722.42
517.318	28460.28
517.52	28843.25
517.722	28855.54
517.925	29420.78
518.127	29682.92
518.329	30037.22
518.531	29799.65
518.733	30248.16
518.935	30465.24
519.136	30506.2
519.338	30880.98
519.54	31057.1
519.742	31460.55
519.944	31278.29
520.146	32044.23
520.348	31929.54
520.55	32253.12
520.752	32570.55
520.954	33117.36
521.155	32748.73
521.357	33066.16
521.559	33922.21
521.761	33977.51
521.963	33617.07
522.164	33612.97
522.366	33977.51
522.568	34278.56
522.77	34163.87
522.971	34790.55
523.173	34407.58
523.375	34913.43
523.576	35030.16
523.778	34829.46
523.98	35853.45
524.181	36127.88
524.383	35929.22
524.584	36312.19
524.786	36260.99
524.988	36144.26
525.189	36455.55
525.391	36815.99
525.592	36975.73
525.794	37192.82
525.995	37104.76
526.197	37178.48
526.398	37094.52
526.6	37741.67
526.801	37966.95
527.003	37743.72
527.204	37842.03
527.406	38474.85
527.607	38241.38
527.808	38456.42
528.01	38016.1
528.211	38308.96
528.412	38767.71
528.614	39072.85
528.815	39109.72
529.016	38976.6
529.218	38847.58
529.419	38964.31
529.62	39050.33
529.822	39109.72
530.023	39189.59
530.224	39388.24
530.425	39248.98
530.626	39097.43
530.828	38868.06
531.029	39900.23
531.23	39498.83
531.431	39300.18
531.632	39687.25
531.833	39763.02
532.035	39928.91
532.236	39392.34
532.437	40197.19
532.638	39898.19
532.839	39941.19
533.04	39973.96
533.241	39224.4
533.442	40248.39
533.643	39877.71
533.844	39894.09
534.045	39892.04
534.246	39654.48
534.447	40127.56
534.648	39933
534.849	40315.97
535.05	39595.09
535.251	40096.84
535.451	39988.3
535.652	39889.99
535.853	40141.89
536.054	40057.93
536.255	39982.15
536.456	39398.48
536.657	40502.34
536.857	40074.31
537.058	39793.74
537.259	40078.41
537.46	39961.67
537.66	39767.12
537.861	40191.05
538.062	39894.09
538.263	39996.49
538.463	39699.53
538.664	39322.71
538.865	39838.79
539.065	40016.97
539.266	39871.56
539.466	40391.75
539.667	39681.1
539.868	40244.29
540.068	39746.64
540.269	39865.42
540.469	40033.35
540.67	39437.39
540.87	39693.39
541.071	39142.49
541.271	39496.78
541.472	39746.64
541.672	39679.05
541.873	39515.22
542.073	39316.56
542.274	39881.8
542.474	39674.96
542.675	39269.46
542.875	39906.38
543.075	39943.24
543.276	39304.27
543.476	39654.48
543.676	39466.06
543.877	39720.01
544.077	39418.96
544.277	39556.18
544.478	39328.85
544.678	39265.36
544.878	39261.27
545.078	39689.29
545.279	39220.31
545.479	39345.23
545.679	39664.72
545.879	39883.85
546.079	39527.5
546.28	39279.7
546.48	38732.89
546.68	39421.01
546.88	39732.3
547.08	39445.58
547.28	39230.55
547.48	39031.9
547.68	39269.46
547.88	38919.26
548.081	39156.82
548.281	39285.84
548.481	38872.15
548.681	39513.17
548.881	39160.92
549.081	39337.04
549.28	38700.12
549.48	39693.39
549.68	39484.5
549.88	39433.3
550.08	38886.49
550.28	39091.29
550.48	39185.49
550.68	39529.55
550.88	38960.22
551.08	38773.85
551.279	39185.49
551.479	38900.83
551.679	39382.1
551.879	38927.45
552.079	39390.29
552.278	38978.65
552.478	39257.17
552.678	38900.83
552.878	39083.09
553.077	38804.57
553.277	38550.62
553.477	39396.43
553.676	38812.76
553.876	39113.81
554.076	38476.9
554.275	38399.07
554.475	38526.05
554.674	39038.04
554.874	38829.15
555.074	38419.55
555.273	38677.6
555.473	38624.35
555.672	38257.76
555.872	38401.12
556.071	38835.29
556.271	38880.35
556.47	38390.88
556.67	38075.49
556.869	38689.88
557.068	38618.21
557.268	38077.54
557.467	38419.55
557.667	38501.47
557.866	38595.68
558.065	38063.21
558.265	38159.46
558.464	38040.68
558.663	38650.97
558.863	37747.82
559.062	38532.19
559.261	37735.53
559.461	38419.55
559.66	37735.53
559.859	37700.72
560.058	37608.56
560.258	37844.07
560.457	37629.04
560.656	37991.53
560.855	37381.23
561.054	37801.07
561.253	37164.15
561.453	37323.89
561.652	37540.97
561.851	37643.37
562.05	37581.93
562.249	37117.04
562.448	37700.72
562.647	37547.12
562.846	37219.44
563.045	37198.96
563.244	36938.87
563.443	37418.1
563.642	36836.47
563.841	37002.36
564.04	36969.59
564.239	37383.28
564.438	36916.34
564.637	36928.63
564.836	36873.34
565.035	36398.21
565.234	36635.77
565.432	36390.02
565.631	36148.36
565.83	36516.99
566.029	36002.95
566.228	36174.98
566.427	36222.08
566.625	36138.12
566.824	35808.39
567.023	36510.85
567.222	35097.75
567.42	35964.04
567.619	35865.74
567.818	35693.71
568.016	35792.01
568.215	35744.91
568.414	35505.29
568.612	35746.95
568.811	35638.41
569.01	35634.31
569.208	35443.85
569.407	35450
569.605	35208.34
569.804	35390.61
570.002	34622.62
570.201	35095.7
570.4	34946.2
570.598	34923.67
570.797	34563.23
570.995	35138.71
571.193	34522.27
571.392	34464.92
571.59	34383.01
571.789	34391.2
571.987	34479.26
572.186	34264.22
572.384	34043.04
572.582	34184.35
572.781	34397.34
572.979	33647.79
573.177	34124.96
573.376	34217.12
573.574	33809.57
573.772	33586.35
573.971	33770.66
574.169	33592.49
574.367	33498.28
574.565	33815.72
574.763	33031.35
574.962	33367.21
575.16	33096.88
575.358	33094.83
575.556	32580.79
575.754	33270.96
575.952	32681.14
576.151	33019.06
576.349	32677.05
576.547	32552.12
576.745	32894.13
576.943	32423.1
577.141	32605.37
577.339	32447.68
577.537	32382.14
577.735	32169.15
577.933	32140.48
578.131	32011.46
578.329	31816.9
578.527	31933.64
578.725	31816.9
578.923	31980.74
579.121	31882.44
579.319	31898.82
579.516	32160.96
579.714	31587.53
579.912	31313.1
580.11	31335.63
580.308	31702.21
580.506	31239.37
580.704	30534.87
580.901	31143.12
581.099	31589.58
581.297	30964.95
581.495	31061.2
581.692	31225.04
581.89	30719.19
582.088	30883.03
582.285	30653.65
582.483	30993.62
582.681	30823.64
582.878	30422.23
583.076	30160.09
583.274	30584.02
583.471	30047.46
583.669	30098.66
583.866	30069.98
584.064	30254.3
584.262	29738.21
584.459	30123.23
584.657	29703.4
584.854	29928.67
585.052	29252.84
585.249	29314.28
585.447	29711.59
585.644	29345
585.841	29373.67
586.039	29541.61
586.236	29021.42
586.434	29533.42
586.631	28802.29
586.828	29428.97
587.026	28863.73
587.223	29013.23
587.42	28685.56
587.618	28966.13
587.815	28642.55
588.012	28337.4
588.21	28284.16
588.407	28808.44
588.604	28552.44
588.801	28138.75
588.999	28196.09
589.196	28056.83
589.393	27976.96
589.59	27587.85
589.787	27833.6
589.984	27651.33
590.182	27536.65
590.379	27786.5
590.576	27344.14
590.773	27411.72
590.97	27489.54
591.167	27632.9
591.364	27000.08
591.561	27139.34
591.758	27075.85
591.955	27028.75
592.152	27118.86
592.349	26830.1
592.546	26961.17
592.743	27163.92
592.94	26314.01
593.137	26649.88
593.334	26858.77
593.531	26549.53
593.727	26459.41
593.924	26772.75
594.121	26107.16
594.318	26375.45
594.515	25957.66
594.712	26371.35
594.908	25926.94
595.105	25845.02
595.302	25793.83
595.499	25771.3
595.696	25709.86
595.892	25586.98
596.089	25832.74
596.286	25574.69
596.482	25378.09
596.679	25382.18
596.876	25230.63
597.072	25503.01
597.269	25154.86
597.466	25054.51
597.662	24982.83
597.859	25165.1
598.055	24866.1
598.252	24610.1
598.448	24894.77
598.645	24456.5
598.841	24298.81
599.038	24386.87
599.234	24227.13
599.431	24247.61
599.627	24214.84
599.824	24200.51
600.02	23862.59
600.217	24263.99
600.413	23692.61
600.609	24020.28
600.806	23799.1
601.002	23815.49
601.198	23614.79
601.395	23784.77
601.591	23307.59
601.787	23473.48
601.984	23211.34
602.18	23758.14
602.376	23323.97
602.572	23078.22
602.769	23012.68
602.965	22809.93
603.161	23141.71
603.357	22783.31
603.553	22848.85
603.75	22945.1
603.946	22797.65
604.142	22947.15
604.338	22631.76
604.534	22644.05
604.73	22619.47
604.926	22355.29
605.122	22687.06
605.318	22451.54
605.514	22101.34
605.71	21701.98
605.906	22162.78
606.102	22316.37
606.298	21841.25
606.494	22220.12
606.69	22201.69
606.886	21923.16
607.082	21792.09
607.278	21722.46
607.474	21505.38
607.67	21744.99
607.866	21474.66
608.062	21740.89
608.257	21865.82
608.453	21628.26
608.649	21534.05
608.845	21071.21
609.041	21194.09
609.236	20907.37
609.432	21163.37
609.628	21175.66
609.824	20946.28
610.019	21192.04
610.215	21259.62
610.411	21591.39
610.606	20979.05
610.802	21032.3
610.998	20804.97
611.193	21013.87
611.389	20923.76
611.584	20757.87
611.78	20618.61
611.976	21003.63
612.171	20770.16
612.367	20772.21
612.562	20454.77
612.758	20479.35
612.953	20188.53
613.149	20442.48
613.344	20415.86
613.539	20432.24
613.735	20317.56
613.93	20350.32
614.126	20397.43
614.321	20368.76
614.517	20276.6
614.712	20321.65
614.907	20036.98
615.103	20245.88
615.298	19991.93
615.493	20112.76
615.688	20012.41
615.884	20448.63
616.079	19729.79
616.274	20125.05
616.47	19991.93
616.665	19920.25
616.86	19989.88
617.055	19854.72
617.25	19731.84
617.445	19654.01
617.641	19299.72
617.836	20047.22
618.031	19228.04
618.226	19637.63
618.421	19291.52
618.616	19588.48
618.811	19119.49
619.006	19408.26
619.201	19015.05
619.396	19432.83
619.591	18883.98
619.786	18969.99
619.981	18738.57
620.176	18992.52
620.371	18662.8
620.566	18714
620.761	18361.75
620.956	18527.63
621.151	18343.31
621.346	18802.06
621.541	18187.67
621.735	18400.66
621.93	18075.03
622.125	18087.32
622.32	17720.73
622.515	18079.13
622.709	17565.09
622.904	17888.67
623.099	17577.37
623.294	17780.12
623.488	17497.5
623.683	17573.28
623.878	17085.86
624.072	17257.89
624.267	16956.84
624.462	17171.88
624.656	16596.4
624.851	16989.61
625.046	16659.88
625.24	16774.57
625.435	16641.45
625.629	16434.61
625.824	16442.8
626.018	16256.43
626.213	15975.86
626.407	16164.28
626.602	16111.03
626.796	16205.24
626.991	15867.32
627.185	15703.48
627.38	15642.04
627.574	15697.34
627.768	15449.53
627.963	15308.23
628.157	15326.66
628.352	15343.04
628.546	15025.61
628.74	15312.32
628.935	15003.08
629.129	15132.1
629.323	14878.15
629.517	15070.66
629.712	14771.66
629.906	14749.13
630.1	14278.1
630.294	14683.59
630.489	14319.06
630.683	14415.31
630.877	14454.22
631.071	14157.27
631.265	14308.82
631.459	14114.26
631.653	14126.55
631.848	14130.64
632.042	13852.12
632.236	13809.11
632.43	13743.58
632.624	14048.72
632.818	13612.51
633.012	13323.74
633.206	13397.47
633.4	13444.57
633.594	13073.89
633.788	13254.11
633.982	13209.06
634.176	12981.73
634.369	12946.92
634.563	12826.09
634.757	12936.68
634.951	12862.95
635.145	12740.07
635.339	12946.92
635.533	12609
635.726	12578.28
635.92	12434.92
636.114	12383.73
636.308	12414.45
636.501	12453.36
636.695	12508.65
636.889	12316.14
637.083	12054
637.276	12109.3
637.47	12092.91
637.664	12109.3
637.857	11908.6
638.051	12049.91
638.244	11673.08
638.438	11521.53
638.632	11798.01
638.825	11683.32
639.019	11775.48
639.212	11445.76
639.406	11451.9
639.599	11509.24
639.793	11363.84
639.986	11249.15
640.18	11271.68
640.373	10999.3
640.567	10946.05
640.76	11111.94
640.954	11056.64
641.147	10974.72
641.34	10864.13
641.534	10925.57
641.727	10751.49
641.92	10923.52
642.114	10618.38
642.307	10601.99
642.5	10601.99
642.694	10362.38
642.887	10339.85
643.08	10423.82
643.273	10542.6
643.467	10294.8
643.66	10233.36
643.853	10151.44
644.046	10112.53
644.239	10159.63
644.432	9870.87
644.626	10051.09
644.819	9809.43
645.012	9709.08
645.205	9815.57
645.398	9801.24
645.591	9692.69
645.784	9745.94
645.977	9539.1
646.17	9487.9
646.363	9455.13
646.556	9463.32
646.749	9442.84
646.942	9330.2
647.135	9446.94
647.328	9233.95
647.521	9025.06
647.714	9072.16
647.907	9231.9
648.099	9080.35
648.292	9274.91
648.485	9094.69
648.678	8898.08
648.871	8947.23
649.064	8810.02
649.256	8676.9
649.449	8711.72
649.642	8603.18
649.835	8554.02
650.027	8496.68
650.22	8523.3
650.413	8560.17
650.605	8455.72
650.798	8482.35
650.991	8343.08
651.183	8406.57
651.376	8130.09
651.568	8295.98
651.761	8216.11
651.954	8003.12
652.146	8119.85
652.339	8021.55
652.531	8048.18
652.724	8074.8
652.916	8082.99
653.109	7919.15
653.301	7939.63
653.494	7880.24
653.686	7943.73
653.879	7859.76
654.071	7794.23
654.263	7558.71
654.456	7712.31
654.648	7734.84
654.84	7503.42
655.033	7452.22
655.225	7411.26
655.417	7501.37
655.61	7523.9
655.802	7435.83
655.994	7370.3
656.186	7378.49
656.379	7276.09
656.571	7218.75
656.763	7222.84
656.955	7138.88
657.148	7018.05
657.34	7095.87
657.532	7054.91
657.724	7005.76
657.916	6895.17
658.108	7061.05
658.3	6897.22
658.492	6889.03
658.684	6741.57
658.876	6770.24
659.068	6764.1
659.26	6598.21
659.452	6768.2
659.644	6788.68
659.836	6661.7
660.028	6739.52
660.22	6639.17
660.412	6428.23
660.604	6432.33
660.796	6438.47
660.988	6596.17
661.18	6483.53
661.372	6549.06
661.563	6342.22
661.755	6383.18
661.947	6172.24
662.139	6223.44
662.331	6174.28
662.522	6260.3
662.714	6211.15
662.906	6313.55
663.097	6018.64
663.289	5932.62
663.481	6112.85
663.673	6082.13
663.864	5959.25
664.056	5942.86
664.247	6088.27
664.439	5946.96
664.631	5875.28
664.822	5815.89
665.014	5930.58
665.205	5760.59
665.397	5738.07
665.588	5647.96
665.78	5635.67
665.971	5494.36
666.163	5707.35
666.354	5631.57
666.546	5525.08
666.737	5453.4
666.929	5432.92
667.12	5484.12
667.311	5574.23
667.503	5484.12
667.694	5469.78
667.885	5348.95
668.077	5523.03
668.268	5320.28
668.459	5430.87
668.651	5201.5
668.842	5334.62
669.033	5187.16
669.224	5367.38
669.416	5439.06
669.607	5205.6
669.798	5236.31
669.989	5183.07
670.18	5156.44
670.371	5123.68
670.563	5086.81
670.754	5080.67
670.945	5037.66
671.136	5031.52
671.327	5029.47
671.518	5021.28
671.709	4988.51
671.9	5078.62
672.091	4836.96
672.282	4925.02
672.473	4847.2
672.664	4980.32
672.855	4818.53
673.046	4818.53
673.237	4900.45
673.428	4742.75
673.619	4712.03
673.809	4859.49
674	4726.37
674.191	4826.72
674.382	4687.46
674.573	4662.88
674.764	4675.17
674.954	4642.4
675.145	4757.09
675.336	4664.93
675.527	4705.89
675.717	4703.84
675.908	4507.24
676.099	4773.47
676.289	4656.74
676.48	4492.9
676.671	4433.51
676.861	4429.42
677.052	4486.76
677.243	4353.64
677.433	4486.76
677.624	4517.48
677.814	4408.94
678.005	4482.66
678.195	4499.05
678.386	4542.05
678.576	4273.77
678.767	4302.44
678.957	4460.13
679.148	4417.13
679.338	4462.18
679.529	4288.11
679.719	4376.17
679.909	4322.92
680.1	4195.95
680.29	4339.3
680.481	4204.14
680.671	4220.52
680.861	4083.31
681.052	4206.19
681.242	4097.64
681.432	4320.87
681.622	4189.8
681.813	4251.24
682.003	4171.37
682.193	4019.82
682.383	4238.95
682.573	4146.8
682.764	4138.6
682.954	4177.51
683.144	4060.78
683.334	4083.31
683.524	4054.64
683.714	4159.08
683.904	3999.34
684.094	4068.97
684.284	4050.54
684.474	4017.77
684.664	4048.49
684.854	4025.97
685.044	4038.25
685.234	4050.54
685.424	3999.34
685.614	3892.85
685.804	4038.25
685.994	4050.54
686.184	3964.53
686.374	4007.53
686.564	3806.83
686.753	3911.28
686.943	3925.61
687.133	3847.79
687.323	3870.32
687.513	3948.14
687.702	3839.6
687.892	3780.21
688.082	3753.59
688.272	3774.07
688.461	3733.11
688.651	3655.28
688.841	3823.22
689.03	3706.48
689.22	3649.14
689.41	3638.9
689.599	3559.03
689.789	3677.81
689.979	3532.4
690.168	3696.24
690.358	3706.48
690.547	3479.16
690.737	3663.47
690.926	3616.37
691.116	3409.53
691.305	3530.36
691.495	3509.88
691.684	3430.01
691.874	3450.49
692.063	3421.81
692.252	3450.49
692.442	3538.55
692.631	3298.94
692.82	3329.66
693.01	3311.22
693.199	3395.19
693.388	3352.18
693.578	3352.18
693.767	3321.46
693.956	3303.03
694.146	3217.02
694.335	3303.03
694.524	3288.7
694.713	3204.73
694.902	3270.26
695.092	3245.69
695.281	3092.09
695.47	3176.06
695.659	3141.24
695.848	3053.18
696.037	3167.87
696.226	3165.82
696.415	3051.13
696.604	3122.81
696.793	3135.1
696.982	3126.91
697.171	3253.88
697.36	3120.76
697.549	3069.56
697.738	3065.47
697.927	2995.84
698.116	3204.73
698.305	3114.62
698.494	3094.14
698.683	3014.27
698.872	3122.81
699.061	2987.65
699.25	2950.78
699.438	2967.17
699.627	3145.34
699.816	2950.78
700.005	2995.84
700.193	2920.06
700.382	3034.75
700.571	2948.73
700.76	3028.6
700.948	3004.03
701.137	2862.72
701.326	2897.53
701.514	3018.36
701.703	2881.15
701.892	2901.63
702.08	2913.92
702.269	2938.49
702.457	2887.29
702.646	2928.25
702.834	2668.16
703.023	2881.15
703.212	2881.15
703.4	2950.78
703.589	2946.69
703.777	2811.52
703.965	2690.69
704.154	2762.37
704.342	2868.86
704.531	2772.61
704.719	2672.26
704.907	2877.05
705.096	2739.84
705.284	2745.98
705.472	2709.12
705.661	2852.48
705.849	2838.14
706.037	2801.28
706.226	2756.22
706.414	2786.94
706.602	2778.75
706.79	2795.14
706.979	2786.94
707.167	2774.66
707.355	2725.51
707.543	2725.51
707.731	2840.19
707.919	2684.55
708.107	2637.44
708.296	2721.41
708.484	2614.91
708.672	2723.46
708.86	2707.07
709.048	2723.46
709.236	2594.44
709.424	2723.46
709.612	2735.74
709.8	2733.7
709.988	2614.91
710.176	2653.83
710.364	2733.7
710.551	2616.96
710.739	2696.83
710.927	2602.63
711.115	2688.64
711.303	2586.24
711.491	2705.03
711.679	2590.34
711.866	2561.67
712.054	2541.19
712.242	2582.15
712.43	2723.46
712.617	2518.66
712.805	2565.76
712.993	2563.72
713.181	2494.08
713.368	2639.49
713.556	2655.87
713.744	2565.76
713.931	2815.62
714.119	2664.07
714.306	2762.37
714.494	2590.34
714.682	2551.43
714.869	2584.2
715.057	2602.63
715.244	2586.24
715.432	2588.29
715.619	2582.15
715.807	2576
715.994	2590.34
716.182	2633.35
716.369	2664.07
716.556	2680.45
716.744	2475.65
716.931	2489.99
717.119	2582.15
717.306	2559.62
717.493	2514.56
717.681	2533
717.868	2436.74
718.055	2586.24
718.242	2496.13
718.43	2573.96
718.617	2520.71
718.804	2555.52
718.991	2541.19
719.179	2492.04
719.366	2565.76
719.553	2571.91
719.74	2541.19
719.927	2379.4
720.114	2500.23
720.301	2498.18
720.488	2438.79
720.676	2475.65
720.863	2561.67
721.05	2446.98
721.237	2545.28
721.424	2569.86
721.611	2537.09
721.798	2533
721.985	2483.84
722.172	2389.64
722.358	2477.7
722.545	2576
722.732	2557.57
722.919	2573.96
723.106	2487.94
723.293	2483.84
723.48	2449.03
723.667	2504.32
723.853	2524.8
724.04	2608.77
724.227	2537.09
724.414	2479.75
724.6	2487.94
724.787	2516.61
724.974	2508.42
725.161	2469.51
725.347	2481.8
725.534	2434.69
725.72	2406.02
725.907	2487.94
726.094	2430.6
726.28	2410.12
726.467	2483.84
726.653	2553.48
726.84	2500.23
727.027	2533
727.213	2508.42
727.4	2299.53
727.586	2459.27
727.773	2344.58
727.959	2315.91
728.145	2518.66
728.332	2336.39
728.518	2541.19
728.705	2420.36
728.891	2563.72
729.077	2467.46
729.264	2340.49
729.45	2432.65
729.636	2375.3
729.823	2469.51
730.009	2385.54
730.195	2483.84
730.382	2406.02
730.568	2494.08
730.754	2412.17
730.94	2408.07
731.126	2526.85
731.313	2360.97
731.499	2408.07
731.685	2485.89
731.871	2457.22
732.057	2547.33
732.243	2463.37
732.429	2434.69
732.615	2231.94
732.801	2414.21
732.987	2475.65
733.173	2379.4
733.359	2389.64
733.545	2381.45
733.731	2428.55
733.917	2436.74
734.103	2397.83
734.289	2420.36
734.475	2373.25
734.661	2397.83
734.847	2401.93
735.033	2418.31
735.219	2444.93
735.404	2397.83
735.59	2348.68
735.776	2268.81
735.962	2344.58
736.148	2320.01
736.333	2410.12
736.519	2367.11
736.705	2328.2
736.89	2418.31
737.076	2377.35
737.262	2252.42
737.447	2221.7
737.633	2346.63
737.819	2475.65
738.004	2272.9
738.19	2320.01
738.375	2410.12
738.561	2422.41
738.747	2369.16
738.932	2330.25
739.118	2401.93
739.303	2141.83
739.489	2299.53
739.674	2219.66
739.859	2174.6
740.045	2266.76
740.23	2205.32
740.416	2190.99
740.601	2287.24
740.786	2240.14
740.972	2254.47
741.157	2250.38
741.342	2094.73
741.528	2225.8
741.713	2143.88
741.898	2172.55
742.084	2229.9
742.269	2225.8
742.454	2223.75
742.639	2098.83
742.824	2160.27
743.01	2184.84
743.195	2238.09
743.38	2098.83
743.565	2119.31
743.75	2127.5
743.935	2145.93
744.12	2141.83
744.305	2133.64
744.49	2025.1
744.675	2057.87
744.86	2035.34
745.045	2033.29
745.23	2223.75
745.415	2000.52
745.6	2080.39
745.785	1998.48
745.97	2041.48
746.155	1943.18
746.34	1988.24
746.525	1951.37
746.71	1975.95
746.895	1861.26
747.079	1930.89
747.264	1855.12
747.449	1879.69
747.634	1910.41
747.819	2008.72
748.003	1861.26
748.188	1824.4
748.373	1857.17
748.557	1910.41
748.742	1853.07
748.927	1765.01
749.111	1765.01
749.296	1803.92
749.481	1918.61
749.665	1773.2
749.85	1732.24
750.034	1738.38
750.219	1681.04
750.404	1701.52
750.588	1664.66
750.773	1771.15
750.957	1740.43
751.141	1756.82
751.326	1689.23
751.51	1689.23
751.695	1566.35
751.879	1687.18
752.064	1652.37
752.248	1697.42
752.432	1734.29
752.617	1582.74
752.801	1541.78
752.985	1523.35
753.17	1631.89
753.354	1558.16
753.538	1539.73
753.722	1519.25
753.907	1525.4
754.091	1574.55
754.275	1486.48
754.459	1597.07
754.643	1541.78
754.828	1537.68
755.012	1402.52
755.196	1468.05
755.38	1361.56
755.564	1373.85
755.748	1418.9
755.932	1361.56
756.116	1377.94
756.3	1386.13
756.484	1449.62
756.668	1377.94
756.852	1279.64
757.036	1373.85
757.22	1318.55
757.404	1218.2
757.588	1316.5
757.772	1277.59
757.956	1322.65
758.14	1285.78
758.323	1242.78
758.507	1267.35
758.691	1226.39
758.875	1275.54
759.059	1287.83
759.242	1279.64
759.426	1263.26
759.61	1265.3
759.794	1240.73
759.977	1246.87
760.161	1242.78
760.345	1158.81
760.528	1216.15
760.712	1126.04
760.895	1240.73
761.079	1144.47
761.263	1230.49
761.446	1113.75
761.63	1250.97
761.813	1246.87
761.997	1189.53
762.18	1044.12
762.364	1169.05
762.547	1078.94
762.731	1107.61
762.914	1019.55
763.098	1046.17
763.281	1117.85
763.464	1087.13
763.648	994.97
763.831	1091.23
764.015	1025.69
764.198	1085.08
764.381	1091.23
764.564	1171.1
764.748	1052.31
764.931	1126.04
765.114	1091.23
765.297	1015.45
765.481	913.05
765.664	1050.27
765.847	1046.17
766.03	1025.69
766.213	982.68
766.397	951.96
766.58	1060.51
766.763	1013.4
766.946	919.2
767.129	956.06
767.312	976.54
767.495	931.48
767.678	939.68
767.861	1017.5
768.044	921.24
768.227	1027.74
768.41	894.62
768.593	962.2
768.776	915.1
768.959	890.53
769.142	962.2
769.324	913.05
769.507	1019.55
769.69	951.96
769.873	927.39
770.056	921.24
770.239	890.53
770.421	986.78
770.604	829.09
770.787	859.81
770.97	870.05
771.152	822.94
771.335	841.37
771.518	833.18
771.7	931.48
771.883	886.43
772.066	814.75
772.248	874.14
772.431	870.05
772.613	841.37
772.796	829.09
772.978	890.53
773.161	911
773.343	829.09
773.526	804.51
773.708	775.84
773.891	779.93
774.073	827.04
774.256	781.98
774.438	814.75
774.621	673.44
774.803	820.89
774.985	824.99
775.168	775.84
775.35	749.22
775.532	741.02
775.715	702.11
775.897	829.09
776.079	747.17
776.261	665.25
776.444	677.54
776.626	726.69
776.808	728.74
776.99	700.06
777.173	642.72
777.355	659.1
777.537	767.65
777.719	691.87
777.901	681.63
778.083	669.34
778.265	634.53
778.447	753.31
778.629	593.57
778.811	673.44
778.993	693.92
779.175	665.25
779.357	636.58
779.539	583.33
779.721	550.56
779.903	607.91
780.085	628.39
780.267	626.34
780.449	620.19
780.631	618.15
780.812	589.47
780.994	560.8
781.176	564.9
781.358	626.34
781.54	583.33
781.721	614.05
781.903	593.57
782.085	487.08
782.267	501.41
782.448	495.27
782.63	495.27
782.812	525.99
782.993	628.39
783.175	501.41
783.357	472.74
783.538	562.85
783.72	519.84
783.901	564.9
784.083	607.91
784.264	476.84
784.446	468.64
784.627	579.23
784.809	472.74
784.99	493.22
785.172	462.5
785.353	444.07
785.535	394.92
785.716	521.89
785.897	485.03
786.079	390.82
786.26	429.73
786.441	454.31
786.623	374.44
786.804	460.45
786.985	476.84
787.167	390.82
787.348	429.73
787.529	419.49
787.71	411.3
787.891	431.78
788.073	382.63
788.254	399.01
788.435	423.59
788.616	362.15
788.797	454.31
788.978	423.59
789.159	353.96
789.34	439.97
789.522	433.83
789.703	376.48
789.884	392.87
790.065	337.57
790.246	380.58
790.427	362.15
790.607	384.68
790.788	386.72
790.969	313
791.15	306.85
791.331	419.49
791.512	347.81
791.693	382.63
791.874	313
792.054	370.34
792.235	331.43
792.416	296.61
792.597	345.77
792.778	321.19
792.958	313
793.139	323.24
793.32	331.43
793.5	278.18
793.681	415.4
793.862	329.38
794.042	288.42
794.223	290.47
794.404	376.48
794.584	315.05
794.765	376.48
794.945	247.46
795.126	315.05
795.306	433.83
795.487	296.61
795.667	269.99
795.848	347.81
796.028	300.71
796.209	337.57
796.389	313
796.57	300.71
796.75	337.57
796.93	343.72
797.111	251.56
797.291	208.55
797.471	255.65
797.652	206.5
797.832	237.22
798.012	304.81
798.192	306.85
798.373	222.89
798.553	249.51
798.733	290.47
798.913	263.85
799.093	274.09
799.274	315.05
799.454	200.36
799.634	313
799.814	292.52
799.994	306.85
800.174	331.43
800.354	243.37
800.534	259.75
800.714	347.81
800.894	196.26
801.074	224.94
801.254	341.67
801.434	284.33
801.614	214.7
801.794	206.5
801.974	824.99
802.154	231.08
802.334	249.51
802.514	224.94
802.693	206.5
802.873	263.85
803.053	298.66
803.233	183.98
803.413	267.94
803.592	175.78
803.772	218.79
803.952	249.51
804.131	206.5
804.311	280.23
804.491	231.08
804.67	190.12
804.85	249.51
805.03	204.46
805.209	210.6
805.389	198.31
805.568	216.74
805.748	151.21
805.928	190.12
806.107	288.42
806.287	229.03
806.466	214.7
806.646	222.89
806.825	153.26
807.004	206.5
807.184	177.83
807.363	202.41
807.543	251.56
807.722	132.78
807.901	151.21
808.081	239.27
808.26	173.74
808.439	214.7
808.619	194.22
808.798	143.02
808.977	226.98
809.156	190.12
809.336	194.22
809.515	276.13
809.694	188.07
809.873	214.7
810.052	134.82
810.231	218.79
810.411	145.06
810.59	190.12
810.769	126.63
810.948	175.78
811.127	54.95
811.306	167.59
811.485	61.1
811.664	173.74
811.843	214.7
812.022	165.54
812.201	124.58
812.38	136.87
812.559	124.58
812.737	200.36
812.916	85.67
813.095	132.78
813.274	155.3
813.453	194.22
813.632	118.44
813.811	202.41
813.989	188.07
814.168	202.41
814.347	147.11
814.526	85.67
814.704	259.75
814.883	149.16
815.062	102.06
815.24	153.26
815.419	149.16
815.598	190.12
815.776	118.44
815.955	91.82
816.133	183.98
816.312	198.31
816.49	116.39
816.669	200.36
816.847	102.06
817.026	128.68
817.204	120.49
817.383	128.68
817.561	247.46
817.74	155.3
817.918	157.35
818.097	124.58
818.275	149.16
818.453	149.16
818.632	192.17
818.81	102.06
818.988	140.97
819.167	114.34
819.345	124.58
819.523	118.44
819.701	100.01
819.879	149.16
820.058	183.98
820.236	173.74
820.414	151.21
820.592	116.39
820.77	140.97
820.948	161.45
821.127	114.34
821.305	151.21
821.483	89.77
821.661	198.31
821.839	161.45
822.017	83.63
822.195	145.06
822.373	118.44
822.551	100.01
822.729	118.44
822.907	120.49
823.085	136.87
823.262	143.02
823.44	65.19
823.618	151.21
823.796	104.11
823.974	104.11
824.152	100.01
824.329	75.43
824.507	165.54
824.685	93.87
824.863	108.2
825.04	149.16
825.218	116.39
825.396	87.72
825.574	106.15
825.751	69.29
825.929	147.11
826.107	161.45
826.284	100.01
826.462	102.06
826.639	83.63
826.817	143.02
826.994	83.63
827.172	116.39
827.349	159.4
827.527	75.43
827.704	106.15
827.882	157.35
828.059	100.01
828.237	100.01
828.414	85.67
828.591	71.34
828.769	120.49
828.946	143.02
829.124	175.78
829.301	100.01
829.478	83.63
829.655	147.11
829.833	32.43
830.01	59.05
830.187	192.17
830.364	34.47
830.542	28.33
830.719	118.44
830.896	120.49
831.073	40.62
831.25	100.01
831.427	151.21
831.604	136.87
831.782	87.72
831.959	151.21
832.136	108.2
832.313	61.1
832.49	153.26
832.667	132.78
832.844	67.24
833.021	97.96
833.198	110.25
833.374	104.11
833.551	75.43
833.728	126.63
833.905	59.05
834.082	149.16
834.259	91.82
834.436	126.63
834.612	-2.39
834.789	79.53
834.966	169.64
835.143	79.53
835.319	52.91
835.496	52.91
835.673	108.2
835.85	126.63
836.026	91.82
836.203	83.63
836.38	52.91
836.556	100.01
836.733	42.67
836.909	136.87
837.086	59.05
837.262	87.72
837.439	38.57
837.616	214.7
837.792	32.43
837.968	28.33
838.145	-55.64
838.321	36.52
838.498	69.29
838.674	134.82
838.851	93.87
839.027	87.72
839.203	63.15
839.38	124.58
839.556	42.67
839.732	108.2
839.909	81.58
840.085	79.53
840.261	83.63
840.437	91.82
840.614	44.71
840.79	69.29
840.966	89.77
841.142	157.35
841.318	34.47
841.494	85.67
841.671	112.3
841.847	83.63
842.023	112.3
842.199	85.67
842.375	20.14
842.551	28.33
842.727	67.24
842.903	128.68
843.079	42.67
843.255	67.24
843.431	104.11
843.607	83.63
843.783	28.33
843.959	106.15
844.134	91.82
844.31	46.76
844.486	36.52
844.662	77.48
844.838	87.72
845.013	46.76
845.189	5.8
845.365	95.91
845.541	48.81
845.716	63.15
845.892	40.62
846.068	65.19
846.244	-8.53
846.419	95.91
846.595	67.24
846.77	50.86
846.946	102.06
847.122	57
847.297	26.28
847.473	50.86
847.648	1.71
847.824	46.76
847.999	34.47
848.175	136.87
848.35	124.58
848.526	61.1
848.701	36.52
848.876	91.82
849.052	42.67
849.227	52.91
849.403	5.8
849.578	44.71
849.753	18.09
849.929	-2.39
850.104	11.95
850.279	61.1
850.454	7.85
850.63	3.75
850.805	95.91
850.98	-14.68
851.155	54.95
851.33	38.57
851.505	71.34
851.681	104.11
851.856	-47.44
852.031	9.9
852.206	75.43
852.381	-6.49
852.556	83.63
852.731	67.24
852.906	40.62
853.081	36.52
853.256	120.49
853.431	75.43
853.606	-12.63
853.781	44.71
853.956	5.8
854.131	130.73
854.305	46.76
854.48	-53.59
854.655	79.53
854.83	20.14
855.005	38.57
855.18	44.71
855.354	59.05
855.529	24.23
855.704	50.86
855.879	46.76
856.053	-4.44
856.228	59.05
856.403	-59.73
856.577	59.05
856.752	11.95
856.926	-0.34
857.101	22.19
857.276	52.91
857.45	26.28
857.625	16.04
857.799	1.71
857.974	28.33
858.148	-22.87
858.323	44.71
858.497	34.47
858.672	52.91
858.846	54.95
859.02	61.1
859.195	7.85
859.369	20.14
859.543	9.9
859.718	61.1
859.892	26.28
860.066	30.38
860.241	46.76
860.415	-2.39
860.589	32.43
860.763	-29.01
860.938	-51.54
861.112	38.57
861.286	67.24
861.46	95.91
861.634	30.38
861.808	52.91
861.982	16.04
862.157	83.63
862.331	67.24
862.505	3.75
862.679	-6.49
862.853	59.05
863.027	1.71
863.201	159.4
863.375	20.14
863.549	28.33
863.722	42.67
863.896	5.8
864.07	34.47
864.244	-6.49
864.418	-12.63
864.592	85.67
864.766	16.04
864.939	-20.82
865.113	30.38
865.287	46.76
865.461	3.75
865.634	59.05
865.808	30.38
865.982	28.33
866.156	16.04
866.329	-18.77
866.503	22.19
866.676	67.24
866.85	50.86
867.024	50.86
867.197	85.67
867.371	54.95
867.544	20.14
867.718	9.9
867.891	116.39
868.065	-22.87
868.238	42.67
868.412	69.29
868.585	-35.16
868.759	-14.68
868.932	-35.16
869.105	26.28
869.279	36.52
869.452	44.71
869.625	11.95
869.799	34.47
869.972	26.28
870.145	57
870.319	63.15
870.492	-31.06
870.665	-20.82
870.838	-26.96
871.011	-59.73
871.185	-18.77
871.358	20.14
871.531	73.39
871.704	11.95
871.877	46.76
872.05	-6.49
872.223	65.19
872.396	50.86
872.569	85.67
872.742	50.86
872.915	26.28
873.088	-49.49
873.261	11.95
873.434	-35.16
873.607	-8.53
873.78	140.97
873.953	18.09
874.126	75.43
874.299	34.47
874.471	-29.01
874.644	-14.68
874.817	95.91
874.99	52.91
875.163	-47.44
875.335	-14.68
875.508	63.15
875.681	89.77
875.853	54.95
876.026	-4.44
876.199	69.29
876.371	48.81
876.544	-4.44
876.717	18.09
876.889	-16.73
877.062	75.43
877.234	-16.73
877.407	-33.11
877.579	16.04
877.752	83.63
877.924	-47.44
878.097	-16.73
878.269	44.71
878.442	18.09
878.614	-10.58
878.786	9.9
878.959	61.1
879.131	54.95
879.303	9.9
879.476	7.85
879.648	52.91
879.82	-31.06
879.993	36.52
880.165	30.38
880.337	1.71
880.509	-37.2
880.681	-22.87
880.854	-61.78
881.026	44.71
881.198	73.39
881.37	44.71
881.542	30.38
881.714	52.91
881.886	-6.49
882.058	40.62
882.23	32.43
882.402	67.24
882.574	108.2
882.746	-12.63
882.918	52.91
883.09	9.9
883.262	65.19
883.434	40.62
883.606	59.05
883.778	-33.11
883.95	79.53
884.122	9.9
884.293	69.29
884.465	-57.68
884.637	-6.49
884.809	-20.82
884.98	18.09
885.152	16.04
885.324	-0.34
885.496	-29.01
885.667	20.14
885.839	59.05
886.011	34.47
886.182	-53.59
886.354	-6.49
886.525	-29.01
886.697	30.38
886.869	32.43
887.04	52.91
887.212	65.19
887.383	-4.44
887.555	1.71
887.726	3.75
887.897	32.43
888.069	-63.83
888.24	110.25
888.412	42.67
888.583	-39.25
888.754	28.33
888.926	-14.68
889.097	52.91
889.268	26.28
889.44	-20.82
889.611	26.28
889.782	-57.68
889.953	-29.01
890.125	34.47
890.296	1.71
890.467	3.75
890.638	-4.44
890.809	54.95
890.98	1.71
891.151	9.9
891.323	59.05
891.494	38.57
891.665	7.85
891.836	5.8
892.007	-10.58
892.178	26.28
892.349	38.57
892.52	-31.06
892.691	26.28
892.862	-10.58
893.032	-12.63
893.203	42.67
893.374	18.09
893.545	30.38
893.716	30.38
893.887	9.9
894.057	34.47
894.228	30.38
894.399	40.62
894.57	-10.58
894.74	-0.34
894.911	-20.82
895.082	-22.87
895.253	11.95
895.423	79.53
895.594	116.39
895.764	46.76
895.935	-76.12
896.106	-0.34
896.276	28.33
896.447	28.33
896.617	-14.68
896.788	-51.54
896.958	-22.87
897.129	42.67
897.299	52.91
897.47	26.28
897.64	40.62
897.81	18.09
897.981	13.99
898.151	-10.58
898.322	83.63
898.492	89.77
898.662	5.8
898.832	1.71
899.003	20.14
899.173	-16.73
899.343	11.95
899.513	-49.49
