Data from USB4F104151__104__14-18-08-277.txt Node

Date: Thu Mar 13 14:18:08 EDT 2025
User: louis
Spectrometer: USB4F10415
Trigger mode: 4
Integration Time (sec): 2.000000E-2
Scans to average: 1
Electric dark correction enabled: true
Nonlinearity correction enabled: false
Boxcar width: 0
XAxis mode: Wavelengths
Number of Pixels in Spectrum: 3648
>>>>>Begin Spectral Data<<<<<
178.204	-165.71
178.424	-165.71
178.644	-165.71
178.864	-112.47
179.084	-147.28
179.304	12.46
179.524	20.65
179.744	-75.6
179.964	-18.26
180.184	55.47
180.404	0.17
180.624	-8.02
180.844	47.27
181.064	-59.22
181.283	-55.12
181.503	59.56
181.723	20.65
181.943	-10.07
182.163	12.46
182.383	-1.88
182.602	39.08
182.822	84.14
183.042	-42.84
183.262	-34.64
183.482	-16.21
183.701	30.89
183.921	6.31
184.141	2.22
184.361	18.6
184.58	59.56
184.8	47.27
185.02	59.56
185.239	80.04
185.459	-46.93
185.679	14.51
185.898	-40.79
186.118	80.04
186.338	-8.02
186.557	14.51
186.777	-14.17
186.997	53.42
187.216	-26.45
187.436	14.51
187.655	55.47
187.875	67.75
188.095	65.71
188.314	80.04
188.534	104.62
188.753	-34.64
188.973	82.09
189.192	-18.26
189.412	-26.45
189.631	20.65
189.851	-5.97
190.07	47.27
190.29	-34.64
190.509	47.27
190.729	-32.6
190.948	34.99
191.168	125.1
191.387	86.19
191.607	14.51
191.826	39.08
192.045	41.13
192.265	0.17
192.484	-14.17
192.704	12.46
192.923	-67.41
193.142	30.89
193.362	45.23
193.581	80.04
193.8	43.18
194.02	51.37
194.239	63.66
194.458	63.66
194.678	32.94
194.897	-1.88
195.116	22.7
195.335	-10.07
195.555	22.7
195.774	90.28
195.993	55.47
196.212	39.08
196.432	16.55
196.651	-5.97
196.87	30.89
197.089	65.71
197.308	24.75
197.528	88.23
197.747	-40.79
197.966	71.85
198.185	30.89
198.404	55.47
198.623	34.99
198.842	8.36
199.062	-22.36
199.281	43.18
199.5	65.71
199.719	-28.5
199.938	51.37
200.157	-8.02
200.376	-40.79
200.595	47.27
200.814	47.27
201.033	-3.93
201.252	-44.88
201.471	71.85
201.69	-1.88
201.909	20.65
202.128	0.17
202.347	77.99
202.566	90.28
202.785	0.17
203.004	-10.07
203.223	-16.21
203.442	80.04
203.661	2.22
203.879	-1.88
204.098	94.38
204.317	18.6
204.536	-59.22
204.755	73.9
204.974	10.41
205.193	26.79
205.411	-10.07
205.63	57.51
205.849	16.55
206.068	4.27
206.287	47.27
206.505	26.79
206.724	39.08
206.943	-10.07
207.162	14.51
207.381	6.31
207.599	6.31
207.818	-67.41
208.037	-34.64
208.255	51.37
208.474	67.75
208.693	30.89
208.911	80.04
209.13	-1.88
209.349	-5.97
209.567	92.33
209.786	2.22
210.005	22.7
210.223	61.61
210.442	-34.64
210.661	80.04
210.879	-8.02
211.098	-5.97
211.316	-51.03
211.535	65.71
211.753	63.66
211.972	30.89
212.191	-42.84
212.409	51.37
212.628	24.75
212.846	-5.97
213.065	12.46
213.283	96.43
213.502	16.55
213.72	57.51
213.938	6.31
214.157	49.32
214.375	49.32
214.594	30.89
214.812	34.99
215.031	-12.12
215.249	24.75
215.467	28.84
215.686	12.46
215.904	6.31
216.122	55.47
216.341	102.57
216.559	6.31
216.778	34.99
216.996	-59.22
217.214	57.51
217.432	26.79
217.651	16.55
217.869	49.32
218.087	32.94
218.306	-1.88
218.524	43.18
218.742	-26.45
218.96	104.62
219.179	4.27
219.397	39.08
219.615	39.08
219.833	-8.02
220.051	30.89
220.27	41.13
220.488	-5.97
220.706	-32.6
220.924	39.08
221.142	67.75
221.36	-30.55
221.578	67.75
221.796	55.47
222.015	55.47
222.233	26.79
222.451	92.33
222.669	4.27
222.887	-16.21
223.105	24.75
223.323	108.71
223.541	-1.88
223.759	67.75
223.977	-26.45
224.195	-18.26
224.413	67.75
224.631	-40.79
224.849	43.18
225.067	10.41
225.285	41.13
225.503	8.36
225.721	-24.4
225.939	-32.6
226.157	22.7
226.375	112.81
226.592	6.31
226.81	49.32
227.028	-34.64
227.246	61.61
227.464	28.84
227.682	41.13
227.9	65.71
228.117	30.89
228.335	55.47
228.553	-30.55
228.771	49.32
228.989	80.04
229.206	28.84
229.424	24.75
229.642	65.71
229.86	6.31
230.077	32.94
230.295	14.51
230.513	8.36
230.731	16.55
230.948	57.51
231.166	30.89
231.384	6.31
231.601	37.03
231.819	110.76
232.037	-24.4
232.254	16.55
232.472	71.85
232.689	8.36
232.907	39.08
233.125	-12.12
233.342	32.94
233.56	-10.07
233.777	-40.79
233.995	63.66
234.213	69.8
234.43	69.8
234.648	-83.8
234.865	16.55
235.083	59.56
235.3	51.37
235.518	92.33
235.735	96.43
235.953	14.51
236.17	24.75
236.388	-1.88
236.605	49.32
236.822	37.03
237.04	6.31
237.257	-1.88
237.475	-8.02
237.692	22.7
237.909	0.17
238.127	71.85
238.344	-14.17
238.562	47.27
238.779	30.89
238.996	45.23
239.214	41.13
239.431	0.17
239.648	73.9
239.865	-22.36
240.083	30.89
240.3	86.19
240.517	61.61
240.735	47.27
240.952	0.17
241.169	18.6
241.386	0.17
241.603	10.41
241.821	-24.4
242.038	86.19
242.255	84.14
242.472	30.89
242.689	-28.5
242.907	67.75
243.124	47.27
243.341	24.75
243.558	-42.84
243.775	-5.97
243.992	-81.75
244.209	67.75
244.426	47.27
244.643	-48.98
244.86	53.42
245.078	47.27
245.295	49.32
245.512	30.89
245.729	-14.17
245.946	-48.98
246.163	37.03
246.38	22.7
246.597	0.17
246.814	18.6
247.031	77.99
247.248	-16.21
247.464	8.36
247.681	41.13
247.898	84.14
248.115	49.32
248.332	6.31
248.549	34.99
248.766	84.14
248.983	88.23
249.2	92.33
249.417	47.27
249.633	47.27
249.85	10.41
250.067	-5.97
250.284	73.9
250.501	-98.13
250.717	34.99
250.934	-28.5
251.151	32.94
251.368	55.47
251.585	28.84
251.801	-24.4
252.018	-3.93
252.235	47.27
252.451	39.08
252.668	39.08
252.885	73.9
253.102	39.08
253.318	32.94
253.535	49.32
253.752	8.36
253.968	88.23
254.185	63.66
254.401	63.66
254.618	24.75
254.835	39.08
255.051	14.51
255.268	51.37
255.484	49.32
255.701	6.31
255.917	45.23
256.134	0.17
256.351	-1.88
256.567	-24.4
256.784	32.94
257	6.31
257.217	118.95
257.433	82.09
257.65	16.55
257.866	-5.97
258.082	55.47
258.299	-16.21
258.515	-1.88
258.732	20.65
258.948	24.75
259.165	10.41
259.381	63.66
259.597	104.62
259.814	65.71
260.03	75.95
260.246	63.66
260.463	6.31
260.679	-67.41
260.895	-1.88
261.112	10.41
261.328	-10.07
261.544	14.51
261.761	86.19
261.977	71.85
262.193	-8.02
262.409	26.79
262.626	26.79
262.842	65.71
263.058	-1.88
263.274	55.47
263.49	-30.55
263.707	88.23
263.923	47.27
264.139	55.47
264.355	63.66
264.571	39.08
264.787	51.37
265.004	104.62
265.22	63.66
265.436	51.37
265.652	-26.45
265.868	75.95
266.084	-12.12
266.3	-18.26
266.516	37.03
266.732	57.51
266.948	14.51
267.164	69.8
267.38	28.84
267.596	80.04
267.812	80.04
268.028	37.03
268.244	22.7
268.46	-26.45
268.676	28.84
268.892	71.85
269.108	-42.84
269.324	49.32
269.54	82.09
269.756	157.86
269.972	55.47
270.188	-8.02
270.403	16.55
270.619	57.51
270.835	47.27
271.051	47.27
271.267	8.36
271.483	-1.88
271.698	20.65
271.914	12.46
272.13	-36.69
272.346	63.66
272.562	2.22
272.777	55.47
272.993	96.43
273.209	0.17
273.425	-34.64
273.64	-1.88
273.856	22.7
274.072	30.89
274.287	-26.45
274.503	26.79
274.719	39.08
274.934	55.47
275.15	28.84
275.366	90.28
275.581	43.18
275.797	41.13
276.012	43.18
276.228	26.79
276.444	-5.97
276.659	125.1
276.875	49.32
277.09	12.46
277.306	32.94
277.521	106.67
277.737	-1.88
277.952	53.42
278.168	112.81
278.383	30.89
278.599	0.17
278.814	-8.02
279.03	41.13
279.245	47.27
279.461	-30.55
279.676	30.89
279.892	59.56
280.107	-24.4
280.322	18.6
280.538	30.89
280.753	30.89
280.969	-14.17
281.184	16.55
281.399	2.22
281.615	32.94
281.83	41.13
282.045	-65.36
282.26	65.71
282.476	12.46
282.691	112.81
282.906	-1.88
283.122	92.33
283.337	8.36
283.552	32.94
283.767	-18.26
283.983	69.8
284.198	-40.79
284.413	75.95
284.628	-46.93
284.843	8.36
285.058	55.47
285.274	39.08
285.489	-10.07
285.704	73.9
285.919	-26.45
286.134	80.04
286.349	12.46
286.564	0.17
286.779	57.51
286.995	49.32
287.21	47.27
287.425	82.09
287.64	0.17
287.855	26.79
288.07	51.37
288.285	14.51
288.5	63.66
288.715	88.23
288.93	-22.36
289.145	2.22
289.36	57.51
289.575	16.55
289.79	39.08
290.004	55.47
290.219	55.47
290.434	-18.26
290.649	-14.17
290.864	57.51
291.079	-30.55
291.294	92.33
291.509	106.67
291.724	-30.55
291.938	-48.98
292.153	12.46
292.368	32.94
292.583	135.34
292.798	14.51
293.012	63.66
293.227	63.66
293.442	145.58
293.657	22.7
293.871	88.23
294.086	71.85
294.301	2.22
294.516	47.27
294.73	39.08
294.945	-22.36
295.16	24.75
295.374	-42.84
295.589	61.61
295.804	2.22
296.018	34.99
296.233	20.65
296.447	-14.17
296.662	6.31
296.877	80.04
297.091	0.17
297.306	2.22
297.52	-57.17
297.735	-1.88
297.949	37.03
298.164	26.79
298.378	30.89
298.593	47.27
298.807	16.55
299.022	80.04
299.236	63.66
299.451	90.28
299.665	-1.88
299.88	47.27
300.094	-18.26
300.309	45.23
300.523	129.19
300.737	28.84
300.952	96.43
301.166	71.85
301.381	-26.45
301.595	14.51
301.809	73.9
302.024	49.32
302.238	30.89
302.452	39.08
302.667	2.22
302.881	59.56
303.095	30.89
303.309	26.79
303.524	2.22
303.738	-30.55
303.952	-8.02
304.166	32.94
304.381	-59.22
304.595	80.04
304.809	51.37
305.023	51.37
305.237	39.08
305.452	-8.02
305.666	71.85
305.88	22.7
306.094	39.08
306.308	0.17
306.522	67.75
306.736	69.8
306.95	84.14
307.164	2.22
307.379	49.32
307.593	121
307.807	41.13
308.021	41.13
308.235	37.03
308.449	-26.45
308.663	22.7
308.877	102.57
309.091	-16.21
309.305	47.27
309.519	-18.26
309.733	45.23
309.947	-24.4
310.161	43.18
310.374	10.41
310.588	55.47
310.802	47.27
311.016	-98.13
311.23	47.27
311.444	-24.4
311.658	51.37
311.872	-22.36
312.085	22.7
312.299	22.7
312.513	32.94
312.727	18.6
312.941	32.94
313.154	65.71
313.368	30.89
313.582	16.55
313.796	71.85
314.009	106.67
314.223	67.75
314.437	39.08
314.651	39.08
314.864	75.95
315.078	-10.07
315.292	53.42
315.505	55.47
315.719	8.36
315.933	47.27
316.146	30.89
316.36	-3.93
316.573	14.51
316.787	75.95
317.001	30.89
317.214	45.23
317.428	41.13
317.641	4.27
317.855	49.32
318.068	-5.97
318.282	-5.97
318.495	110.76
318.709	63.66
318.922	-30.55
319.136	49.32
319.349	18.6
319.563	34.99
319.776	88.23
319.99	-26.45
320.203	41.13
320.417	10.41
320.63	-1.88
320.843	108.71
321.057	98.47
321.27	80.04
321.483	30.89
321.697	88.23
321.91	75.95
322.124	92.33
322.337	106.67
322.55	30.89
322.763	92.33
322.977	43.18
323.19	-8.02
323.403	63.66
323.617	22.7
323.83	61.61
324.043	63.66
324.256	-5.97
324.469	0.17
324.683	59.56
324.896	57.51
325.109	-8.02
325.322	24.75
325.535	131.24
325.748	82.09
325.962	8.36
326.175	34.99
326.388	59.56
326.601	92.33
326.814	-20.31
327.027	39.08
327.24	94.38
327.453	61.61
327.666	55.47
327.879	32.94
328.092	51.37
328.305	8.36
328.518	18.6
328.731	-28.5
328.944	96.43
329.157	14.51
329.37	-18.26
329.583	94.38
329.796	71.85
330.009	80.04
330.222	65.71
330.435	59.56
330.648	96.43
330.861	8.36
331.073	82.09
331.286	82.09
331.499	84.14
331.712	71.85
331.925	86.19
332.138	63.66
332.35	94.38
332.563	10.41
332.776	88.23
332.989	41.13
333.202	18.6
333.414	18.6
333.627	24.75
333.84	39.08
334.053	39.08
334.265	24.75
334.478	32.94
334.691	6.31
334.903	75.95
335.116	77.99
335.329	16.55
335.541	-3.93
335.754	63.66
335.966	39.08
336.179	6.31
336.392	43.18
336.604	49.32
336.817	2.22
337.029	22.7
337.242	14.51
337.454	80.04
337.667	53.42
337.88	65.71
338.092	-12.12
338.305	10.41
338.517	75.95
338.729	94.38
338.942	57.51
339.154	59.56
339.367	6.31
339.579	14.51
339.792	6.31
340.004	104.62
340.217	123.05
340.429	94.38
340.641	34.99
340.854	59.56
341.066	-22.36
341.278	90.28
341.491	88.23
341.703	43.18
341.915	8.36
342.128	16.55
342.34	106.67
342.552	-16.21
342.764	80.04
342.977	63.66
343.189	55.47
343.401	118.95
343.613	14.51
343.826	41.13
344.038	67.75
344.25	-40.79
344.462	-8.02
344.674	63.66
344.886	-5.97
345.099	49.32
345.311	96.43
345.523	75.95
345.735	-32.6
345.947	114.86
346.159	-53.08
346.371	51.37
346.583	47.27
346.795	14.51
347.007	-40.79
347.219	80.04
347.431	80.04
347.643	172.2
347.855	-18.26
348.067	51.37
348.279	67.75
348.491	30.89
348.703	49.32
348.915	30.89
349.127	34.99
349.339	39.08
349.551	20.65
349.763	14.51
349.975	61.61
350.187	51.37
350.399	41.13
350.61	92.33
350.822	37.03
351.034	-32.6
351.246	55.47
351.458	65.71
351.669	-1.88
351.881	73.9
352.093	-8.02
352.305	37.03
352.517	16.55
352.728	10.41
352.94	2.22
353.152	43.18
353.363	30.89
353.575	39.08
353.787	129.19
353.999	88.23
354.21	96.43
354.422	88.23
354.633	104.62
354.845	-5.97
355.057	-14.17
355.268	55.47
355.48	41.13
355.692	63.66
355.903	57.51
356.115	-30.55
356.326	-12.12
356.538	112.81
356.749	88.23
356.961	20.65
357.172	6.31
357.384	6.31
357.595	182.44
357.807	34.99
358.018	82.09
358.23	24.75
358.441	69.8
358.653	2.22
358.864	-22.36
359.075	-14.17
359.287	86.19
359.498	24.75
359.709	6.31
359.921	67.75
360.132	-38.74
360.344	71.85
360.555	-20.31
360.766	34.99
360.977	51.37
361.189	118.95
361.4	34.99
361.611	2.22
361.823	30.89
362.034	-12.12
362.245	57.51
362.456	73.9
362.667	73.9
362.879	-3.93
363.09	18.6
363.301	55.47
363.512	71.85
363.723	-1.88
363.935	14.51
364.146	96.43
364.357	84.14
364.568	90.28
364.779	24.75
364.99	30.89
365.201	45.23
365.412	57.51
365.623	14.51
365.834	39.08
366.045	-1.88
366.256	65.71
366.467	108.71
366.678	41.13
366.889	-18.26
367.1	49.32
367.311	45.23
367.522	-12.12
367.733	14.51
367.944	51.37
368.155	-10.07
368.366	92.33
368.577	63.66
368.788	123.05
368.999	-36.69
369.209	47.27
369.42	129.19
369.631	30.89
369.842	22.7
370.053	26.79
370.264	69.8
370.474	14.51
370.685	92.33
370.896	18.6
371.107	67.75
371.317	-10.07
371.528	8.36
371.739	100.52
371.95	75.95
372.16	73.9
372.371	10.41
372.582	-1.88
372.792	-1.88
373.003	92.33
373.214	51.37
373.424	30.89
373.635	-14.17
373.846	69.8
374.056	45.23
374.267	55.47
374.477	30.89
374.688	28.84
374.898	82.09
375.109	-1.88
375.319	14.51
375.53	125.1
375.74	57.51
375.951	71.85
376.161	6.31
376.372	84.14
376.582	-14.17
376.793	65.71
377.003	75.95
377.214	51.37
377.424	47.27
377.635	69.8
377.845	39.08
378.055	125.1
378.266	49.32
378.476	98.47
378.686	88.23
378.897	32.94
379.107	37.03
379.317	86.19
379.528	-1.88
379.738	55.47
379.948	20.65
380.158	73.9
380.369	47.27
380.579	65.71
380.789	67.75
380.999	32.94
381.21	32.94
381.42	135.34
381.63	12.46
381.84	63.66
382.05	145.58
382.261	57.51
382.471	55.47
382.681	39.08
382.891	82.09
383.101	116.9
383.311	80.04
383.521	63.66
383.731	-46.93
383.941	96.43
384.151	127.14
384.361	43.18
384.571	47.27
384.781	10.41
384.991	143.53
385.201	6.31
385.411	86.19
385.621	26.79
385.831	34.99
386.041	22.7
386.251	49.32
386.461	82.09
386.671	90.28
386.881	121
387.091	88.23
387.301	108.71
387.511	73.9
387.72	88.23
387.93	71.85
388.14	-34.64
388.35	55.47
388.56	73.9
388.769	65.71
388.979	121
389.189	86.19
389.399	45.23
389.609	100.52
389.818	88.23
390.028	59.56
390.238	96.43
390.447	43.18
390.657	116.9
390.867	30.89
391.076	63.66
391.286	14.51
391.496	55.47
391.705	37.03
391.915	71.85
392.125	104.62
392.334	61.61
392.544	102.57
392.753	94.38
392.963	30.89
393.172	104.62
393.382	65.71
393.591	104.62
393.801	92.33
394.01	180.39
394.22	100.52
394.429	24.75
394.639	80.04
394.848	131.24
395.058	71.85
395.267	32.94
395.477	88.23
395.686	110.76
395.895	184.49
396.105	88.23
396.314	108.71
396.524	47.27
396.733	82.09
396.942	84.14
397.152	110.76
397.361	164.01
397.57	196.78
397.78	129.19
397.989	77.99
398.198	178.34
398.407	102.57
398.617	69.8
398.826	22.7
399.035	123.05
399.244	65.71
399.453	82.09
399.663	116.9
399.872	170.15
400.081	73.9
400.29	194.73
400.499	114.86
400.708	164.01
400.917	164.01
401.127	82.09
401.336	55.47
401.545	170.15
401.754	153.77
401.963	211.11
402.172	139.43
402.381	127.14
402.59	88.23
402.799	137.38
403.008	155.82
403.217	116.9
403.426	116.9
403.635	170.15
403.844	121
404.053	151.72
404.262	157.86
404.471	198.82
404.68	108.71
404.888	161.96
405.097	174.25
405.306	153.77
405.515	207.02
405.724	235.69
405.933	168.1
406.142	170.15
406.35	217.26
406.559	123.05
406.768	270.5
406.977	239.78
407.185	235.69
407.394	243.88
407.603	161.96
407.812	239.78
408.02	317.61
408.229	235.69
408.438	270.5
408.646	268.45
408.855	237.74
409.064	221.35
409.272	338.09
409.481	333.99
409.69	321.7
409.898	391.33
410.107	350.37
410.315	274.6
410.524	424.1
410.733	387.24
410.941	377
411.15	366.76
411.358	442.53
411.567	452.77
411.775	333.99
411.984	483.49
412.192	458.92
412.401	557.22
412.609	573.6
412.818	499.88
413.026	598.18
413.234	565.41
413.443	546.98
413.651	649.38
413.86	645.28
414.068	727.2
414.276	657.57
414.485	637.09
414.693	727.2
414.901	805.02
415.11	780.45
415.318	729.25
415.526	772.25
415.734	901.28
415.943	915.61
416.151	948.38
416.359	923.8
416.567	960.67
416.776	972.96
416.984	1026.2
417.192	1011.87
417.4	1128.6
417.608	1112.22
417.817	1075.35
418.025	1296.53
418.233	1341.59
418.441	1317.01
418.649	1312.92
418.857	1284.25
419.065	1489.04
419.273	1448.08
419.481	1558.67
419.689	1521.81
419.897	1704.08
420.105	1585.3
420.313	1747.09
420.521	1898.64
420.729	1833.1
420.937	1943.69
421.145	1923.21
421.353	2105.48
421.561	2179.21
421.769	2140.3
421.977	2326.66
422.185	2424.97
422.393	2365.57
422.601	2465.93
422.809	2472.07
423.017	2474.12
423.224	2693.25
423.432	2723.97
423.64	2828.42
423.848	3049.6
424.056	2963.58
424.263	3151.99
424.471	3160.19
424.679	3258.49
424.887	3364.98
425.094	3446.9
425.302	3522.68
425.51	3682.42
425.718	3739.76
425.925	3627.12
426.133	3901.55
426.341	4049
426.548	4384.87
426.756	4298.86
426.964	4325.48
427.171	4585.57
427.379	4880.48
427.586	4839.52
427.794	4933.73
428.001	5245.02
428.209	5521.49
428.417	5355.61
428.624	5757.01
428.832	5718.1
429.039	5687.38
429.247	5806.16
429.454	6412.36
429.662	6570.05
429.869	6234.19
430.076	6678.6
430.284	6447.18
430.491	6774.85
430.699	7389.24
430.906	7022.66
431.114	7266.36
431.321	7553.08
431.528	7673.91
431.736	8140.85
431.943	8599.59
432.15	8114.22
432.358	8405.03
432.565	8816.68
432.772	8724.52
432.979	9279.52
433.187	9467.93
433.394	9476.12
433.601	9855
433.808	10174.48
434.016	10151.95
434.223	10450.96
434.43	11171.84
434.637	10862.6
434.844	11626.49
435.052	11853.81
435.259	11556.86
435.466	11687.93
435.673	11476.99
435.88	12330.99
436.087	12984.29
436.294	12900.33
436.501	12707.82
436.708	13086.69
436.915	13328.35
437.122	14004.18
437.329	13799.38
437.537	14421.97
437.743	14794.7
437.95	14657.48
438.157	15419.33
438.364	15769.53
438.571	15755.19
438.778	15968.18
438.985	17504.16
439.192	16527.28
439.399	17250.21
439.606	17037.22
439.813	17938.33
440.02	18804.62
440.227	18411.41
440.433	18390.93
440.64	19195.78
440.847	18878.35
441.054	19310.47
441.261	20475.76
441.467	20424.56
441.674	20733.81
441.881	21260.13
442.088	21401.44
442.294	21174.12
442.501	21860.19
442.708	22069.08
442.914	22910.8
443.121	24065.85
443.328	23242.57
443.534	25192.23
443.741	24493.88
443.948	23732.03
444.154	25556.77
444.361	25448.23
444.568	25546.53
444.774	25913.12
444.981	26205.98
445.187	26646.29
445.394	27686.66
445.6	27334.41
445.807	30029.54
446.013	28507.9
446.22	29347.56
446.426	30826.2
446.633	30770.9
446.839	31930.05
447.046	30488.28
447.252	31975.11
447.459	31612.62
447.665	32169.66
447.871	33392.3
448.078	34934.42
448.284	33169.07
448.491	33973.92
448.697	35317.39
448.903	35856.01
449.11	36062.85
449.316	35423.89
449.522	35745.42
449.728	37176.95
449.935	37541.49
450.141	37430.9
450.347	38530.65
450.553	36947.57
450.76	37584.49
450.966	39046.74
451.172	38311.52
451.378	39306.83
451.584	38622.81
451.791	39493.2
451.997	39175.76
452.203	40037.96
452.409	40007.24
452.615	39919.18
452.821	38452.83
453.027	38305.38
453.233	40040.01
453.44	38653.53
453.646	38807.13
453.852	39286.36
454.058	39831.11
454.264	38549.09
454.47	39456.34
454.676	38485.6
454.882	39650.89
455.088	36333.18
455.294	36871.8
455.5	37154.42
455.705	37787.24
455.911	36032.13
456.117	35700.36
456.323	34967.19
456.529	33255.09
456.735	34850.45
456.941	33466.03
457.147	33593
457.352	32376.51
457.558	32196.29
457.764	32192.19
457.97	31440.59
458.176	30957.27
458.381	30541.53
458.587	29564.65
458.793	29382.38
458.999	27885.31
459.204	29951.71
459.41	28661.49
459.616	27113.23
459.821	27432.71
460.027	27062.03
460.233	26562.33
460.438	25282.34
460.644	25644.84
460.85	24551.22
461.055	23955.26
461.261	23805.76
461.466	22196.06
461.672	21522.27
461.878	22984.52
462.083	21385.06
462.289	21127.02
462.494	20930.41
462.7	20039.54
462.905	19244.93
463.111	19984.25
463.316	20223.86
463.522	19779.45
463.727	19826.56
463.932	19916.67
464.138	19396.48
464.343	19693.44
464.549	19052.42
464.754	19691.39
464.959	19615.62
465.165	19191.69
465.37	18612.11
465.575	18368.4
465.781	18810.76
465.986	18704.27
466.191	18153.37
466.397	17856.41
466.602	17362.85
466.807	17670.05
467.012	17614.75
467.218	17651.61
467.423	17237.92
467.628	17461.15
467.833	18108.31
468.038	17522.59
468.244	17053.61
468.449	17721.24
468.654	17401.76
468.859	17258.4
469.064	16713.64
469.269	16177.08
469.474	16113.59
469.679	16881.58
469.885	16144.31
470.09	16234.42
470.295	16248.75
470.5	15908.79
470.705	16158.64
470.91	15755.19
471.115	15718.33
471.32	15781.82
471.525	15636.41
471.73	15140.8
471.935	15089.6
472.139	14804.94
472.344	14997.45
472.549	14772.17
472.754	14647.24
472.959	14579.66
473.164	14204.88
473.369	14041.04
473.574	14294.99
473.778	14153.68
473.983	13985.75
474.188	14096.34
474.393	13533.15
474.598	13615.07
474.802	13258.72
475.007	13232.1
475.212	13381.6
475.417	12842.98
475.621	12943.33
475.826	12931.05
476.031	12656.62
476.235	12494.83
476.44	12740.58
476.645	12417.01
476.849	12343.28
477.054	12023.8
477.259	11995.12
477.463	12091.38
477.668	11812.85
477.872	11909.11
478.077	11481.08
478.282	11468.8
478.486	11460.6
478.691	11282.43
478.895	11216.9
479.1	11128.83
479.304	11272.19
479.509	10997.76
479.713	11010.05
479.918	10680.33
480.122	10477.58
480.326	10936.32
480.531	10819.59
480.735	10655.75
480.94	10496.01
481.144	10997.76
481.348	10190.86
481.553	10485.77
481.757	10342.41
481.961	10256.4
482.166	10582.03
482.37	10436.62
482.574	10209.29
482.778	10430.48
482.983	10598.41
483.187	10147.86
483.391	10364.94
483.595	10211.34
483.8	10237.97
484.004	10194.96
484.208	10352.65
484.412	10217.49
484.616	10280.97
484.821	10199.06
485.025	9984.02
485.229	10442.76
485.433	10387.47
485.637	10358.8
485.841	10242.06
486.045	10248.21
486.249	10321.93
486.453	10168.34
486.657	10305.55
486.861	10383.37
487.065	10059.79
487.269	10262.54
487.473	10027.03
487.677	10471.43
487.881	10475.53
488.085	10223.63
488.289	10426.38
488.493	10027.03
488.697	10340.36
488.901	10545.16
489.105	10303.5
489.309	10387.47
489.512	10582.03
489.716	10450.96
489.92	10393.61
490.124	10395.66
490.328	10459.15
490.531	10582.03
490.735	10496.01
490.939	10809.35
491.143	10709
491.346	10655.75
491.55	10928.13
491.754	10817.54
491.958	10692.62
492.161	10770.44
492.365	11001.86
492.569	10780.68
492.772	10674.18
492.976	11143.17
493.18	10989.57
493.383	11157.5
493.587	11196.42
493.79	11292.67
493.994	11251.71
494.197	11421.69
494.401	11343.87
494.605	11433.98
494.808	11655.16
495.012	11696.12
495.215	11735.03
495.419	11780.09
495.622	11814.9
495.825	12058.61
496.029	12034.04
496.232	12351.47
496.436	12228.59
496.639	12267.5
496.843	12412.91
497.046	12582.89
497.249	12705.77
497.453	12916.71
497.656	12881.89
497.859	12935.14
498.063	13125.6
498.266	13342.69
498.469	13279.2
498.673	13733.85
498.876	13885.4
499.079	13588.44
499.282	13971.41
499.485	14161.87
499.689	13877.21
499.892	14317.52
500.095	14675.91
500.298	14720.97
500.501	14811.08
500.705	15241.15
500.908	15112.13
501.111	15546.3
501.314	15587.26
501.517	15325.12
501.72	15755.19
501.923	15765.43
502.126	16201.65
502.329	16383.92
502.532	16381.87
502.735	16816.04
502.938	16877.48
503.141	16928.68
503.344	17129.38
503.547	17340.32
503.75	17264.55
503.953	17766.3
504.156	17889.18
504.359	18159.51
504.562	18075.54
504.765	18546.58
504.968	18702.22
505.17	19113.86
505.373	19005.32
505.576	19523.46
505.779	19535.74
505.982	19419.01
506.185	20152.18
506.387	19990.39
506.59	20244.34
506.793	20432.75
506.996	20363.12
507.198	21313.38
507.401	20758.38
507.604	21159.78
507.807	21610.34
508.009	21669.73
508.212	21935.96
508.415	22159.19
508.617	22460.24
508.82	22560.59
509.022	22374.23
509.225	23242.57
509.428	23295.82
509.63	23674.69
509.833	23449.41
510.035	24262.46
510.238	23953.21
510.44	24540.98
510.643	24676.15
510.845	24788.78
511.048	24760.11
511.25	25153.32
511.453	25401.13
511.655	26400.54
511.858	25704.23
512.06	26046.24
512.262	26451.74
512.465	26400.54
512.667	26949.39
512.87	27203.34
513.072	27156.24
513.274	27727.62
513.477	27997.95
513.679	28415.74
513.881	28626.68
514.084	28616.44
514.286	28882.67
514.488	28874.48
514.69	29791.97
514.893	29708.01
515.095	29769.44
515.297	30080.74
515.499	30430.94
515.701	30834.39
515.904	31162.06
516.106	31397.58
516.308	31307.47
516.51	32081.6
516.712	31887.04
516.914	32384.7
517.116	32706.23
517.318	32818.87
517.52	32925.36
517.722	32882.36
517.925	33699.5
518.127	33871.53
518.329	33990.31
518.531	33998.5
518.733	34621.08
518.935	34840.22
519.136	34877.08
519.338	35360.4
519.54	35427.98
519.742	35888.78
519.944	36138.63
520.146	36466.3
520.348	36908.66
520.55	36802.17
520.752	37226.1
520.954	37670.51
521.155	37205.62
521.357	37987.94
521.559	38004.33
521.761	38676.06
521.963	38796.89
522.164	39165.53
522.366	38807.13
522.568	39523.92
522.77	39734.86
522.971	40304.2
523.173	39927.37
523.375	40271.43
523.576	40339.01
523.778	40521.28
523.98	41035.32
524.181	41158.2
524.383	41223.73
524.584	41629.23
524.786	41664.05
524.988	41420.34
525.189	42057.26
525.391	41989.67
525.592	42583.58
525.794	42262.05
525.995	42544.67
526.197	42812.96
526.398	42995.23
526.6	43492.88
526.801	43787.79
527.003	43519.51
527.204	43480.6
527.406	43900.43
527.607	43560.47
527.808	43925
528.01	43685.39
528.211	44013.07
528.412	45121.02
528.614	44555.78
528.815	44592.64
529.016	45385.21
529.218	45157.88
529.419	44770.82
529.62	45184.51
529.822	44797.44
530.023	45346.29
530.224	45149.69
530.425	45141.5
530.626	44850.69
530.828	44658.18
531.029	46530.02
531.23	45428.21
531.431	45444.6
531.632	45481.46
531.833	45680.11
532.035	45596.15
532.236	45698.55
532.437	46067.18
532.638	45790.7
532.839	45927.92
533.04	45837.81
533.241	45387.25
533.442	46411.24
533.643	46110.19
533.844	45903.34
534.045	46038.51
534.246	45606.39
534.447	46022.12
534.648	45866.48
534.849	46149.1
535.05	45782.51
535.251	46007.79
535.451	45921.77
535.652	46288.36
535.853	46083.56
536.054	45714.93
536.255	46112.24
536.456	46306.79
536.657	46722.53
536.857	45829.62
537.058	45665.78
537.259	46052.84
537.46	46355.94
537.66	45682.16
537.861	46237.16
538.062	45979.12
538.263	45854.19
538.463	45598.19
538.664	46067.18
538.865	46255.59
539.065	46077.42
539.266	45739.5
539.466	46476.77
539.667	45727.22
539.868	46024.17
540.068	45864.43
540.269	45999.6
540.469	46292.46
540.67	46013.93
540.87	46099.95
541.071	45784.56
541.271	46063.08
541.472	46022.12
541.672	45874.67
541.873	45684.21
542.073	45329.91
542.274	46255.59
542.474	45815.28
542.675	45528.56
542.875	45936.11
543.075	45839.86
543.276	44940.8
543.476	45669.87
543.676	45434.36
543.877	45612.53
544.077	45612.53
544.277	45295.1
544.478	45911.53
544.678	46032.36
544.878	45925.87
545.078	45794.8
545.279	45430.26
545.479	45264.38
545.679	45962.73
545.879	45884.91
546.079	46032.36
546.28	45673.97
546.48	45329.91
546.68	45481.46
546.88	45940.21
547.08	45774.32
547.28	45491.7
547.48	44768.77
547.68	45618.67
547.88	45499.89
548.081	45731.31
548.281	45721.07
548.481	45297.14
548.681	45329.91
548.881	45547
549.081	45405.69
549.28	45239.8
549.48	45278.71
549.68	45473.27
549.88	46114.28
550.08	45420.02
550.28	45522.42
550.48	45610.48
550.68	45661.68
550.88	45192.7
551.08	45475.32
551.279	45055.48
551.479	44959.23
551.679	45137.4
551.879	45307.38
552.079	45493.75
552.278	44994.04
552.478	45243.9
552.678	45168.12
552.878	45395.45
553.077	45151.74
553.277	44809.73
553.477	45501.94
553.676	44862.97
553.876	44989.95
554.076	45055.48
554.275	44998.14
554.475	44697.09
554.674	45266.42
554.874	45061.63
555.074	44809.73
555.273	44848.64
555.473	45180.41
555.672	44439.04
555.872	44903.93
556.071	44498.44
556.271	44924.41
556.47	44856.83
556.67	44322.31
556.869	44654.08
557.068	44615.17
557.268	44215.82
557.467	44391.94
557.667	44428.8
557.866	44606.98
558.065	44373.51
558.265	43998.73
558.464	43984.4
558.663	44482.05
558.863	44037.64
559.062	44424.71
559.261	44086.79
559.461	44363.27
559.66	43746.83
559.859	44051.98
560.058	43701.78
560.258	43765.26
560.457	43464.21
560.656	44252.68
560.855	43677.2
561.054	43671.06
561.253	43535.89
561.453	43716.11
561.652	43851.28
561.851	43623.95
562.05	43038.23
562.249	43036.19
562.448	43617.81
562.647	43789.84
562.846	43339.29
563.045	43652.62
563.244	42960.41
563.443	43548.18
563.642	42933.79
563.841	42995.23
564.04	42948.12
564.239	42823.2
564.438	42782.24
564.637	42860.06
564.836	42765.85
565.035	42694.18
565.234	42491.43
565.432	42468.9
565.631	42161.7
565.83	42524.19
566.029	42253.86
566.228	42073.64
566.427	42466.85
566.625	41705.01
566.824	41606.7
567.023	41987.63
567.222	41559.6
567.42	42001.96
567.619	41741.87
567.818	41627.18
568.016	41580.08
568.215	41666.09
568.414	41219.64
568.612	41510.45
568.811	41063.99
569.01	41164.34
569.208	41133.62
569.407	41256.5
569.605	40838.72
569.804	41100.86
570.002	40623.68
570.201	41012.79
570.4	40592.96
570.598	40246.85
570.797	40486.46
570.995	40408.64
571.193	40234.56
571.392	40431.17
571.59	40439.36
571.789	40209.99
571.987	39841.35
572.186	39994.95
572.384	39788.11
572.582	39757.39
572.781	39947.85
572.979	39487.06
573.177	39614.03
573.376	39698
573.574	39278.16
573.772	39827.02
573.971	39198.29
574.169	39190.1
574.367	38725.21
574.565	39112.28
574.763	38731.36
574.962	38633.05
575.16	38641.25
575.358	38461.02
575.556	38172.26
575.754	38792.79
575.952	38100.58
576.151	38258.27
576.349	37860.97
576.547	37955.18
576.745	38116.97
576.943	37828.2
577.141	37850.73
577.339	37996.13
577.537	37750.38
577.735	37496.43
577.933	37523.05
578.131	37623.4
578.329	37412.46
578.527	37271.15
578.725	36955.77
578.923	37424.75
579.121	36978.29
579.319	37144.18
579.516	37152.37
579.714	36636.28
579.912	37023.35
580.11	36775.55
580.308	36519.55
580.506	36259.46
580.704	36122.24
580.901	36730.49
581.099	36632.19
581.297	35845.77
581.495	35985.03
581.692	36173.44
581.89	35686.03
582.088	36238.98
582.285	35554.96
582.483	36085.38
582.681	35901.06
582.878	35378.83
583.076	35067.54
583.274	35325.58
583.471	35004.05
583.669	35147.41
583.866	34954.9
584.064	34872.98
584.262	34817.69
584.459	35065.49
584.657	34641.56
584.854	35016.34
585.052	34395.81
585.249	34490.01
585.447	34377.37
585.644	34381.47
585.841	34584.22
586.039	34420.38
586.236	33945.25
586.434	33752.74
586.631	33951.4
586.828	33875.62
587.026	33808.04
587.223	33668.78
587.42	33578.67
587.618	33699.5
587.815	33046.19
588.012	33095.35
588.21	33218.22
588.407	33330.86
588.604	32845.49
588.801	32892.6
588.999	33154.74
589.196	32577.21
589.393	32831.16
589.59	32444.09
589.787	32321.21
589.984	32327.36
590.182	32308.93
590.379	32376.51
590.576	31852.23
590.773	32102.08
590.97	31874.76
591.167	31966.91
591.364	31702.73
591.561	32175.81
591.758	31194.83
591.955	31461.07
592.152	31817.41
592.349	31106.77
592.546	31633.1
592.743	31246.03
592.94	30789.33
593.137	31223.5
593.334	31352.52
593.531	30617.3
593.727	30861.01
593.924	30705.37
594.121	30629.59
594.318	30510.81
594.515	29875.94
594.712	30529.24
594.908	30254.81
595.105	30418.65
595.302	30050.02
595.499	29912.8
595.696	30039.78
595.892	29650.66
596.089	29771.49
596.286	29480.68
596.482	29757.16
596.679	29527.78
596.876	29497.06
597.072	29353.71
597.269	29437.67
597.466	28946.16
597.662	29017.84
597.859	29132.53
598.055	29015.79
598.252	28681.97
598.448	28843.76
598.645	28403.45
598.841	28210.94
599.038	28475.13
599.234	28638.97
599.431	28270.33
599.627	28120.83
599.824	28346.11
600.02	27942.66
600.217	28258.04
600.413	27741.96
600.609	27725.57
600.806	27719.43
601.002	27856.64
601.198	27315.98
601.395	27592.45
601.591	27309.83
601.787	27426.57
601.984	27227.92
602.18	27485.96
602.376	27199.24
602.572	26920.72
602.769	27141.9
602.965	26490.65
603.161	27008.78
603.357	26421.02
603.553	26867.47
603.75	27008.78
603.946	26271.51
604.142	26666.77
604.338	25767.71
604.534	26330.9
604.73	26132.25
604.926	26072.86
605.122	26212.12
605.318	26095.39
605.514	25759.52
605.71	26011.42
605.906	25560.87
606.102	25818.91
606.298	25833.25
606.494	25753.38
606.69	25827.1
606.886	25382.7
607.082	25091.88
607.278	25327.4
607.474	24792.88
607.67	25388.84
607.866	25112.36
608.062	25478.95
608.257	25505.57
608.453	24856.37
608.649	25112.36
608.845	24913.71
609.041	24741.68
609.236	24919.85
609.432	25108.27
609.628	24674.1
609.824	24624.95
610.019	24848.18
610.215	24670
610.411	24723.25
610.606	24330.04
610.802	23922.49
610.998	24516.4
611.193	24358.71
611.389	23977.79
611.584	24151.87
611.78	23951.17
611.976	24078.14
612.171	24307.51
612.367	23971.64
612.562	23807.81
612.758	23652.16
612.953	23824.19
613.149	24043.32
613.344	23189.32
613.539	23682.88
613.735	23596.87
613.93	23656.26
614.126	23404.36
614.321	23873.34
614.517	23572.29
614.712	23396.17
614.907	22927.18
615.103	23412.55
615.298	23686.98
615.493	23582.53
615.688	23101.26
615.884	23803.71
616.079	22765.39
616.274	23109.45
616.47	23054.15
616.665	22841.17
616.86	22865.74
617.055	22929.23
617.25	22730.58
617.445	23138.12
617.641	22466.39
617.836	22654.8
618.031	22253.4
618.226	22636.37
618.421	22570.83
618.616	22574.93
618.811	22288.21
619.006	22521.68
619.201	22132.57
619.396	21935.96
619.591	21876.57
619.786	22110.04
619.981	21788.51
620.176	21763.93
620.371	21174.12
620.566	21350.24
620.761	21428.07
620.956	21509.99
621.151	21155.69
621.346	21311.33
621.541	21165.93
621.735	21262.18
621.93	21108.58
622.125	20856.68
622.32	20789.1
622.515	20631.41
622.709	20397.94
622.904	20754.29
623.099	20121.46
623.294	20262.77
623.488	20283.25
623.683	20451.19
623.878	19715.97
624.072	19734.4
624.267	19693.44
624.462	19431.3
624.656	19400.58
624.851	19560.32
625.046	19347.33
625.24	19210.12
625.435	19011.46
625.629	18874.25
625.824	18669.45
626.018	18968.46
626.213	18401.17
626.407	18655.12
626.602	18519.95
626.796	18778
626.991	18493.33
627.185	18276.24
627.38	18126.74
627.574	17919.9
627.768	17864.6
627.963	17829.79
628.157	17850.27
628.352	17971.1
628.546	17436.58
628.74	17706.91
628.935	17285.03
629.129	17299.36
629.323	17145.77
629.517	17442.72
629.712	16990.12
629.906	16900.01
630.1	16707.5
630.294	17018.79
630.489	16549.81
630.683	16869.29
630.877	16232.37
631.071	16707.5
631.265	16496.56
631.459	16363.44
631.653	16392.11
631.848	16236.47
632.042	16193.46
632.236	16115.64
632.43	15849.4
632.624	15718.33
632.818	15583.16
633.012	15697.85
633.206	15396.8
633.4	15423.42
633.594	15347.65
633.788	15361.98
633.982	15210.43
634.176	15101.89
634.369	15093.7
634.563	14792.65
634.757	14999.49
634.951	14952.39
635.145	14612.43
635.339	14929.86
635.533	14520.27
635.726	14723.02
635.92	14481.36
636.114	14489.55
636.308	14323.66
636.501	14352.34
636.695	14020.56
636.889	14034.9
637.083	13981.65
637.276	14016.47
637.47	13969.37
637.664	13961.17
637.857	13893.59
638.051	13737.95
638.244	13643.74
638.438	13285.34
638.632	13484
638.825	13412.32
639.019	13314.02
639.212	13242.34
639.406	13420.51
639.599	13123.55
639.793	13021.16
639.986	12933.09
640.18	12875.75
640.373	12908.52
640.567	12607.47
640.76	12736.49
640.954	12531.69
641.147	12720.1
641.34	12384.24
641.534	12511.21
641.727	12527.6
641.92	12531.69
642.114	12296.18
642.307	12171.25
642.5	12011.51
642.694	11792.37
642.887	11823.09
643.08	12220.4
643.273	11655.16
643.467	11849.72
643.66	11556.86
643.853	11732.98
644.046	11597.82
644.239	11667.45
644.432	11388.92
644.626	11384.83
644.819	11194.37
645.012	11278.33
645.205	11182.08
645.398	11233.28
645.591	11165.7
645.784	11071.49
645.977	10995.71
646.17	10878.98
646.363	10860.55
646.556	10565.64
646.749	10721.29
646.942	10805.25
647.135	10526.73
647.328	10577.93
647.521	10639.37
647.714	10453
647.907	10473.48
648.099	10319.89
648.292	10346.51
648.485	10166.29
648.678	10090.51
648.871	10020.88
649.064	10162.19
649.256	10078.22
649.449	10070.03
649.642	9789.46
649.835	9787.41
650.027	9723.93
650.22	9850.9
650.413	9672.73
650.605	9664.54
650.798	9785.37
650.991	9510.94
651.183	9623.58
651.376	9498.65
651.568	9381.92
651.761	9308.19
651.954	9338.91
652.146	9312.28
652.339	9300
652.531	9068.58
652.724	9097.25
652.916	9021.47
653.109	9005.09
653.301	9041.95
653.494	8962.08
653.686	8812.58
653.879	9044
654.071	8675.37
654.263	8869.92
654.456	8886.31
654.648	8761.38
654.84	8476.71
655.033	8409.13
655.225	8421.42
655.417	8501.29
655.61	8388.65
655.802	8579.11
655.994	8329.26
656.186	8306.73
656.379	8288.3
656.571	8173.61
656.763	8124.46
656.955	8200.24
657.148	8085.55
657.34	8222.77
657.532	8128.56
657.724	7936.05
657.916	8136.75
658.108	7893.04
658.3	7807.03
658.492	7651.38
658.684	7618.61
658.876	7757.88
659.068	7710.77
659.26	7518.26
659.452	7587.89
659.644	7680.05
659.836	7460.92
660.028	7538.74
660.22	7141.44
660.412	7422.01
660.604	7311.42
660.796	7385.15
660.988	7358.52
661.18	7260.22
661.372	6887.49
661.563	7217.21
661.755	7010.37
661.947	7067.71
662.139	7157.82
662.331	6950.98
662.522	6946.88
662.714	6828.1
662.906	6907.97
663.097	6879.3
663.289	6774.85
663.481	6735.94
663.673	6871.11
663.864	6717.51
664.056	6762.56
664.247	6651.97
664.439	6576.2
664.631	6619.21
664.822	6586.44
665.014	6506.57
665.205	6600.77
665.397	6387.79
665.588	6469.7
665.78	6602.82
665.971	6373.45
666.163	6281.29
666.354	6463.56
666.546	6291.53
666.737	6371.4
666.929	6273.1
667.12	6305.87
667.311	6127.69
667.503	6244.43
667.694	6187.08
667.885	6152.27
668.077	6004.82
668.268	5922.9
668.459	5953.62
668.651	5988.43
668.842	5924.94
669.033	6090.83
669.224	5857.36
669.416	5843.03
669.607	5818.45
669.798	5843.03
669.989	5955.66
670.18	5662.8
670.371	5705.81
670.563	5623.89
670.754	5732.44
670.945	5765.2
671.136	5636.18
671.327	5724.24
671.518	5517.4
671.709	5535.83
671.9	5437.53
672.091	5466.2
672.282	5460.06
672.473	5384.28
672.664	5535.83
672.855	5402.71
673.046	5453.91
673.237	5550.17
673.428	5306.46
673.619	5404.76
673.809	5343.32
674	5371.99
674.191	5310.55
674.382	5142.62
674.573	5437.53
674.764	5273.69
674.954	5396.57
675.145	5345.37
675.336	5214.3
675.527	5161.05
675.717	5183.58
675.908	5109.85
676.099	5072.99
676.289	5085.28
676.48	5093.47
676.671	5079.13
676.861	5087.33
677.052	4962.4
677.243	5050.46
677.433	5072.99
677.624	4948.06
677.814	4997.21
678.005	5128.28
678.195	4966.49
678.386	4876.38
678.576	5011.55
678.767	4964.45
678.957	4784.23
679.148	4948.06
679.338	4847.71
679.529	4845.66
679.719	4780.13
679.909	4755.55
680.1	4690.02
680.29	4812.9
680.481	4806.75
680.671	4761.7
680.861	4628.58
681.052	4778.08
681.242	4741.22
681.432	4798.56
681.622	4814.95
681.813	4726.88
682.003	4599.91
682.193	4624.48
682.383	4612.2
682.573	4356.2
682.764	4601.96
682.954	4591.72
683.144	4696.16
683.334	4556.9
683.524	4626.53
683.714	4616.29
683.904	4595.81
684.094	4405.35
684.284	4556.9
684.474	4489.32
684.664	4487.27
684.854	4405.35
685.044	4354.15
685.234	4556.9
685.424	4436.07
685.614	4581.48
685.804	4536.42
685.994	4280.43
686.184	4440.17
686.374	4401.26
686.564	4327.53
686.753	4384.87
686.943	4300.91
687.133	4208.75
687.323	4251.75
687.513	4315.24
687.702	4216.94
687.892	4253.8
688.082	4112.49
688.272	4311.14
688.461	4206.7
688.651	4231.27
688.841	4073.58
689.03	4147.31
689.22	4046.96
689.41	4096.11
689.599	4053.1
689.789	4030.57
689.979	4028.53
690.168	4020.33
690.358	4006
690.547	3967.09
690.737	4055.15
690.926	4012.14
691.116	4069.48
691.305	3934.32
691.495	3987.57
691.684	3848.3
691.874	3825.78
692.063	3827.82
692.252	3852.4
692.442	3805.3
692.631	3793.01
692.82	3731.57
693.01	3926.13
693.199	3782.77
693.388	3723.38
693.578	3838.06
693.767	3725.43
693.956	3758.19
694.146	3655.79
694.335	3803.25
694.524	3702.9
694.713	3659.89
694.902	3592.31
695.092	3614.84
695.281	3596.4
695.47	3680.37
695.659	3604.6
695.848	3498.1
696.037	3547.25
696.226	3616.88
696.415	3663.99
696.604	3594.36
696.793	3610.74
696.982	3444.85
697.171	3491.96
697.36	3643.51
697.549	3473.53
697.738	3434.61
697.927	3364.98
698.116	3479.67
698.305	3399.8
698.494	3405.94
698.683	3526.77
698.872	3336.31
699.061	3547.25
699.25	3446.9
699.438	3274.87
699.627	3389.56
699.816	3254.39
700.005	3426.42
700.193	3430.52
700.382	3360.89
700.571	3356.79
700.76	3422.33
700.948	3364.98
701.137	3242.11
701.326	3377.27
701.514	3367.03
701.703	3287.16
701.892	3238.01
702.08	3430.52
702.269	3281.02
702.457	3221.63
702.646	3358.84
702.834	3233.91
703.023	3252.35
703.212	3178.62
703.4	3268.73
703.589	3104.89
703.777	3217.53
703.965	3283.06
704.154	3096.7
704.342	3149.95
704.531	3160.19
704.719	3205.24
704.907	3158.14
705.096	3252.35
705.284	3094.65
705.472	3207.29
705.661	3061.88
705.849	3211.39
706.037	3088.51
706.226	3180.67
706.414	3305.59
706.602	3053.69
706.79	3033.21
706.979	3045.5
707.167	3111.04
707.355	3006.59
707.543	3113.08
707.731	3115.13
707.919	3014.78
708.107	2939.01
708.296	3025.02
708.484	3080.32
708.672	3102.84
708.86	3111.04
709.048	3029.12
709.236	3070.08
709.424	3018.88
709.612	3035.26
709.8	2865.28
709.988	2957.44
710.176	3020.92
710.364	2973.82
710.551	3055.74
710.739	3065.98
710.927	3045.5
711.115	3014.78
711.303	2955.39
711.491	2926.72
711.679	2998.4
711.866	2869.37
712.054	2961.53
712.242	3000.44
712.43	3000.44
712.617	2941.05
712.805	2867.33
712.993	2766.98
713.181	2736.26
713.368	2924.67
713.556	3002.49
713.744	2758.78
713.931	2967.68
714.119	2799.74
714.306	2908.29
714.494	2803.84
714.682	2709.63
714.869	2816.13
715.057	2766.98
715.244	2840.7
715.432	2885.76
715.619	2769.02
715.807	2617.47
715.994	2785.41
716.182	2834.56
716.369	2791.55
716.556	2803.84
716.744	2746.5
716.931	2809.98
717.119	2828.42
717.306	2812.03
717.493	2646.15
717.681	2717.83
717.868	2654.34
718.055	2715.78
718.242	2746.5
718.43	2568.32
718.617	2703.49
718.804	2676.87
718.991	2732.16
719.179	2697.35
719.366	2803.84
719.553	2551.94
719.74	2611.33
719.927	2719.87
720.114	2605.19
720.301	2680.96
720.488	2551.94
720.676	2605.19
720.863	2668.67
721.05	2691.2
721.237	2680.96
721.424	2717.83
721.611	2640
721.798	2545.8
721.985	2570.37
722.172	2553.99
722.358	2558.08
722.545	2566.28
722.732	2566.28
722.919	2529.41
723.106	2455.69
723.293	2611.33
723.48	2537.6
723.667	2543.75
723.853	2472.07
724.04	2562.18
724.227	2597
724.414	2441.35
724.6	2433.16
724.787	2513.03
724.974	2443.4
725.161	2420.87
725.347	2515.08
725.534	2519.17
725.72	2521.22
725.907	2437.25
726.094	2515.08
726.28	2472.07
726.467	2343.05
726.653	2408.58
726.84	2472.07
727.027	2414.73
727.213	2424.97
727.4	2558.08
727.586	2410.63
727.773	2519.17
727.959	2318.47
728.145	2547.84
728.332	2312.33
728.518	2422.92
728.705	2447.49
728.891	2392.2
729.077	2351.24
729.264	2488.45
729.45	2363.53
729.636	2381.96
729.823	2332.81
730.009	2420.87
730.195	2302.09
730.382	2416.77
730.568	2373.77
730.754	2435.21
730.94	2312.33
731.126	2384.01
731.313	2443.4
731.499	2422.92
731.685	2375.81
731.871	2341
732.057	2334.86
732.243	2347.14
732.429	2269.32
732.615	2373.77
732.801	2330.76
732.987	2277.51
733.173	2359.43
733.359	2357.38
733.545	2353.29
733.731	2424.97
733.917	2312.33
734.103	2228.36
734.289	2226.31
734.475	2287.75
734.661	2392.2
734.847	2267.27
735.033	2351.24
735.219	2326.66
735.404	2392.2
735.59	2222.22
735.776	2171.02
735.962	2332.81
736.148	2193.55
736.333	2300.04
736.519	2162.83
736.705	2177.16
736.89	2222.22
737.076	2250.89
737.262	2128.01
737.447	2175.11
737.633	2326.66
737.819	2226.31
738.004	2275.46
738.19	2248.84
738.375	2238.6
738.561	2291.85
738.747	2089.1
738.932	2218.12
739.118	2259.08
739.303	2259.08
739.489	2246.79
739.674	2162.83
739.859	2070.67
740.045	2146.44
740.23	2089.1
740.416	2080.91
740.601	2140.3
740.786	2177.16
740.972	2185.35
741.157	1988.75
741.342	2033.8
741.528	2089.1
741.713	2044.04
741.898	2003.08
742.084	2009.23
742.269	2035.85
742.454	2033.8
742.639	2039.95
742.824	1998.99
743.01	2015.37
743.195	2021.52
743.38	1941.65
743.565	1986.7
743.75	1929.36
743.935	1935.5
744.12	1964.17
744.305	1941.65
744.49	1865.87
744.675	1867.92
744.86	1923.21
745.045	1890.45
745.23	1904.78
745.415	1880.21
745.6	1878.16
745.785	1773.71
745.97	1923.21
746.155	1933.45
746.34	1874.06
746.525	1892.49
746.71	1917.07
746.895	1769.62
747.079	1900.69
747.264	1872.01
747.449	1786
747.634	1822.86
747.819	1775.76
748.003	1726.61
748.188	1779.86
748.373	1712.27
748.557	1745.04
748.742	1699.98
748.927	1767.57
749.111	1681.55
749.296	1626.26
749.481	1667.22
749.665	1706.13
749.85	1644.69
750.034	1648.79
750.219	1622.16
750.404	1562.77
750.588	1480.85
750.773	1575.06
750.957	1562.77
751.141	1511.57
751.326	1556.63
751.51	1435.8
751.695	1577.11
751.879	1538.2
752.064	1507.48
752.248	1534.1
752.432	1495.19
752.617	1530
752.801	1505.43
752.985	1546.39
753.17	1546.39
753.354	1413.27
753.538	1409.17
753.722	1364.12
753.907	1460.37
754.091	1431.7
754.275	1335.45
754.459	1335.45
754.643	1331.35
754.828	1362.07
755.012	1407.13
755.196	1331.35
755.38	1339.54
755.564	1216.66
755.748	1241.24
755.932	1284.25
756.116	1265.82
756.3	1276.06
756.484	1181.85
756.668	1280.15
756.852	1327.25
757.036	1269.91
757.22	1263.77
757.404	1190.04
757.588	1259.67
757.772	1151.13
757.956	1284.25
758.14	1286.3
758.323	1222.81
758.507	1138.84
758.691	1202.33
758.875	1198.23
759.059	1208.47
759.242	1175.7
759.426	1239.19
759.61	1161.37
759.794	1003.68
759.977	1079.45
760.161	1120.41
760.345	1120.41
760.528	1050.78
760.712	1024.16
760.895	1165.46
761.079	1157.27
761.263	1005.72
761.446	1081.5
761.63	1083.55
761.813	1077.4
761.997	1050.78
762.18	1091.74
762.364	1005.72
762.547	1018.01
762.731	987.29
762.914	1079.45
763.098	962.72
763.281	1054.87
763.464	882.85
763.648	929.95
763.831	997.53
764.015	989.34
764.198	1061.02
764.381	1015.96
764.564	1030.3
764.748	839.84
764.931	858.27
765.114	977.05
765.297	891.04
765.481	919.71
765.664	944.28
765.847	827.55
766.03	1042.59
766.213	874.65
766.397	907.42
766.58	872.61
766.763	905.37
766.946	823.45
767.129	852.13
767.312	956.57
767.495	891.04
767.678	870.56
767.861	966.81
768.044	817.31
768.227	907.42
768.41	874.65
768.593	907.42
768.776	819.36
768.959	843.93
769.142	876.7
769.324	841.89
769.507	841.89
769.69	800.93
769.873	798.88
770.056	800.93
770.239	862.37
770.421	878.75
770.604	866.46
770.787	809.12
770.97	866.46
771.152	710.82
771.335	762.02
771.518	817.31
771.7	839.84
771.883	839.84
772.066	809.12
772.248	809.12
772.431	768.16
772.613	727.2
772.796	825.5
772.978	747.68
773.161	800.93
773.343	759.97
773.526	759.97
773.708	747.68
773.891	696.48
774.073	729.25
774.256	649.38
774.438	702.62
774.621	737.44
774.803	678.05
774.985	639.14
775.168	688.29
775.35	659.62
775.532	764.06
775.715	694.43
775.897	678.05
776.079	671.9
776.261	716.96
776.444	671.9
776.626	680.1
776.808	678.05
776.99	620.71
777.173	587.94
777.355	690.34
777.537	643.23
777.719	626.85
777.901	592.03
778.083	635.04
778.265	592.03
778.447	538.79
778.629	546.98
778.811	571.55
778.993	608.42
779.175	571.55
779.357	614.56
779.539	546.98
779.721	622.75
779.903	594.08
780.085	594.08
780.267	542.88
780.449	575.65
780.631	620.71
780.812	573.6
780.994	573.6
781.176	573.6
781.358	540.83
781.54	592.03
781.721	542.88
781.903	473.25
782.085	549.03
782.267	473.25
782.448	503.97
782.63	485.54
782.812	489.64
782.993	506.02
783.175	510.11
783.357	393.38
783.538	487.59
783.72	508.07
783.901	456.87
784.083	426.15
784.264	475.3
784.446	374.95
784.627	460.96
784.809	442.53
784.99	477.35
785.172	491.68
785.353	471.2
785.535	456.87
785.716	436.39
785.897	407.72
786.079	473.25
786.26	440.48
786.441	424.1
786.623	377
786.804	350.37
786.985	417.96
787.167	409.76
787.348	331.94
787.529	403.62
787.71	424.1
787.891	426.15
788.073	448.68
788.254	372.9
788.435	409.76
788.616	450.72
788.797	366.76
788.978	379.04
789.159	403.62
789.34	397.48
789.522	372.9
789.703	317.61
789.884	356.52
790.065	354.47
790.246	409.76
790.427	293.03
790.607	387.24
790.788	354.47
790.969	352.42
791.15	399.52
791.331	231.59
791.512	348.33
791.693	239.78
791.874	315.56
792.054	387.24
792.235	311.46
792.416	284.84
792.597	368.81
792.778	272.55
792.958	387.24
793.139	360.61
793.32	325.8
793.5	344.23
793.681	379.04
793.862	233.64
794.042	301.22
794.223	239.78
794.404	260.26
794.584	243.88
794.765	284.84
794.945	268.45
795.126	368.81
795.306	395.43
795.487	250.02
795.667	297.13
795.848	266.41
796.028	286.89
796.209	231.59
796.389	295.08
796.57	284.84
796.75	268.45
796.93	327.85
797.111	278.69
797.291	319.65
797.471	295.08
797.652	276.65
797.832	313.51
798.012	305.32
798.192	229.54
798.373	243.88
798.553	268.45
798.733	231.59
798.913	225.45
799.093	170.15
799.274	284.84
799.454	204.97
799.634	157.86
799.814	243.88
799.994	311.46
800.174	172.2
800.354	149.67
800.534	252.07
800.714	217.26
800.894	223.4
801.074	207.02
801.254	268.45
801.434	305.32
801.614	252.07
801.794	157.86
801.974	835.74
802.154	202.92
802.334	284.84
802.514	186.54
802.693	176.3
802.873	168.1
803.053	235.69
803.233	192.68
803.413	123.05
803.592	143.53
803.772	268.45
803.952	237.74
804.131	215.21
804.311	121
804.491	293.03
804.67	245.93
804.85	200.87
805.03	209.06
805.209	252.07
805.389	155.82
805.568	245.93
805.748	141.48
805.928	170.15
806.107	190.63
806.287	176.3
806.466	221.35
806.646	286.89
806.825	114.86
807.004	145.58
807.184	182.44
807.363	241.83
807.543	186.54
807.722	135.34
807.901	153.77
808.081	229.54
808.26	94.38
808.439	200.87
808.619	180.39
808.798	157.86
808.977	188.58
809.156	129.19
809.336	118.95
809.515	209.06
809.694	147.62
809.873	172.2
810.052	209.06
810.231	196.78
810.411	145.58
810.59	198.82
810.769	200.87
810.948	182.44
811.127	137.38
811.306	170.15
811.485	157.86
811.664	168.1
811.843	237.74
812.022	180.39
812.201	178.34
812.38	161.96
812.559	98.47
812.737	145.58
812.916	145.58
813.095	108.71
813.274	104.62
813.453	112.81
813.632	161.96
813.811	161.96
813.989	123.05
814.168	168.1
814.347	137.38
814.526	121
814.704	147.62
814.883	141.48
815.062	133.29
815.24	186.54
815.419	110.76
815.598	139.43
815.776	172.2
815.955	51.37
816.133	116.9
816.312	116.9
816.49	104.62
816.669	96.43
816.847	133.29
817.026	104.62
817.204	98.47
817.383	106.67
817.561	174.25
817.74	127.14
817.918	86.19
818.097	55.47
818.275	88.23
818.453	125.1
818.632	86.19
818.81	129.19
818.988	49.32
819.167	123.05
819.345	116.9
819.523	118.95
819.701	133.29
819.879	71.85
820.058	174.25
820.236	153.77
820.414	51.37
820.592	84.14
820.77	143.53
820.948	100.52
821.127	98.47
821.305	121
821.483	16.55
821.661	106.67
821.839	137.38
822.017	139.43
822.195	67.75
822.373	55.47
822.551	135.34
822.729	172.2
822.907	112.81
823.085	141.48
823.262	145.58
823.44	121
823.618	110.76
823.796	67.75
823.974	55.47
824.152	135.34
824.329	92.33
824.507	94.38
824.685	137.38
824.863	127.14
825.04	96.43
825.218	80.04
825.396	133.29
825.574	57.51
825.751	80.04
825.929	121
826.107	88.23
826.284	69.8
826.462	73.9
826.639	55.47
826.817	34.99
826.994	65.71
827.172	65.71
827.349	129.19
827.527	125.1
827.704	80.04
827.882	168.1
828.059	112.81
828.237	55.47
828.414	80.04
828.591	32.94
828.769	170.15
828.946	94.38
829.124	121
829.301	84.14
829.478	80.04
829.655	67.75
829.833	49.32
830.01	65.71
830.187	98.47
830.364	49.32
830.542	116.9
830.719	100.52
830.896	59.56
831.073	98.47
831.25	98.47
831.427	43.18
831.604	41.13
831.782	-10.07
831.959	137.38
832.136	75.95
832.313	125.1
832.49	6.31
832.667	49.32
832.844	51.37
833.021	129.19
833.198	131.24
833.374	20.65
833.551	102.57
833.728	37.03
833.905	182.44
834.082	63.66
834.259	53.42
834.436	180.39
834.612	104.62
834.789	61.61
834.966	-1.88
835.143	59.56
835.319	0.17
835.496	77.99
835.673	98.47
835.85	43.18
836.026	98.47
836.203	73.9
836.38	86.19
836.556	80.04
836.733	73.9
836.909	114.86
837.086	34.99
837.262	55.47
837.439	92.33
837.616	92.33
837.792	45.23
837.968	22.7
838.145	30.89
838.321	92.33
838.498	57.51
838.674	100.52
838.851	92.33
839.027	49.32
839.203	123.05
839.38	100.52
839.556	14.51
839.732	112.81
839.909	71.85
840.085	45.23
840.261	-81.75
840.437	65.71
840.614	20.65
840.79	80.04
840.966	30.89
841.142	-18.26
841.318	16.55
841.494	61.61
841.671	63.66
841.847	6.31
842.023	18.6
842.199	127.14
842.375	30.89
842.551	-22.36
842.727	71.85
842.903	63.66
843.079	-18.26
843.255	112.81
843.431	39.08
843.607	-10.07
843.783	-10.07
843.959	47.27
844.134	26.79
844.31	73.9
844.486	80.04
844.662	47.27
844.838	26.79
845.013	80.04
845.189	41.13
845.365	82.09
845.541	16.55
845.716	75.95
845.892	106.67
846.068	-10.07
846.244	30.89
846.419	41.13
846.595	88.23
846.77	96.43
846.946	161.96
847.122	2.22
847.297	63.66
847.473	57.51
847.648	2.22
847.824	84.14
847.999	-18.26
848.175	80.04
848.35	106.67
848.526	88.23
848.701	-8.02
848.876	39.08
849.052	57.51
849.227	41.13
849.403	108.71
849.578	-26.45
849.753	18.6
849.929	10.41
850.104	4.27
850.279	55.47
850.454	41.13
850.63	22.7
850.805	75.95
850.98	57.51
851.155	30.89
851.33	18.6
851.505	12.46
851.681	47.27
851.856	-22.36
852.031	20.65
852.206	61.61
852.381	2.22
852.556	28.84
852.731	98.47
852.906	-24.4
853.081	30.89
853.256	14.51
853.431	-5.97
853.606	96.43
853.781	47.27
853.956	-16.21
854.131	88.23
854.305	22.7
854.48	80.04
854.655	43.18
854.83	0.17
855.005	55.47
855.18	84.14
855.354	18.6
855.529	59.56
855.704	-8.02
855.879	49.32
856.053	-26.45
856.228	34.99
856.403	-22.36
856.577	67.75
856.752	47.27
856.926	16.55
857.101	86.19
857.276	43.18
857.45	80.04
857.625	65.71
857.799	28.84
857.974	77.99
858.148	28.84
858.323	14.51
858.497	47.27
858.672	80.04
858.846	-24.4
859.02	12.46
859.195	55.47
859.369	53.42
859.543	43.18
859.718	-8.02
859.892	6.31
860.066	88.23
860.241	-12.12
860.415	-16.21
860.589	30.89
860.763	-34.64
860.938	-26.45
861.112	125.1
861.286	16.55
861.46	2.22
861.634	14.51
861.808	2.22
861.982	-8.02
862.157	24.75
862.331	0.17
862.505	-67.41
862.679	-34.64
862.853	-26.45
863.027	16.55
863.201	22.7
863.375	2.22
863.549	41.13
863.722	59.56
863.896	2.22
864.07	-16.21
864.244	-3.93
864.418	16.55
864.592	73.9
864.766	53.42
864.939	-38.74
865.113	-51.03
865.287	39.08
865.461	-10.07
865.634	0.17
865.808	30.89
865.982	-22.36
866.156	26.79
866.329	-48.98
866.503	2.22
866.676	59.56
866.85	34.99
867.024	12.46
867.197	-36.69
867.371	45.23
867.544	-16.21
867.718	0.17
867.891	88.23
868.065	20.65
868.238	-30.55
868.412	86.19
868.585	18.6
868.759	55.47
868.932	47.27
869.105	65.71
869.279	8.36
869.452	-5.97
869.625	69.8
869.799	-10.07
869.972	-53.08
870.145	0.17
870.319	-5.97
870.492	73.9
870.665	26.79
870.838	30.89
871.011	-96.08
871.185	0.17
871.358	30.89
871.531	51.37
871.704	32.94
871.877	10.41
872.05	24.75
872.223	43.18
872.396	43.18
872.569	-63.32
872.742	-24.4
872.915	0.17
873.088	-5.97
873.261	0.17
873.434	47.27
873.607	-1.88
873.78	-26.45
873.953	10.41
874.126	30.89
874.299	71.85
874.471	22.7
874.644	84.14
874.817	-48.98
874.99	6.31
875.163	-3.93
875.335	47.27
875.508	47.27
875.681	32.94
875.853	0.17
876.026	82.09
876.199	63.66
876.371	32.94
876.544	14.51
876.717	20.65
876.889	6.31
877.062	47.27
877.234	8.36
877.407	0.17
877.579	-8.02
877.752	75.95
877.924	-40.79
878.097	55.47
878.269	-14.17
878.442	47.27
878.614	18.6
878.786	82.09
878.959	108.71
879.131	-3.93
879.303	39.08
879.476	-16.21
879.648	14.51
879.82	59.56
879.993	-16.21
880.165	8.36
880.337	-77.65
880.509	24.75
880.681	2.22
880.854	41.13
881.026	-1.88
881.198	43.18
881.37	8.36
881.542	-26.45
881.714	-1.88
881.886	82.09
882.058	22.7
882.23	-5.97
882.402	12.46
882.574	-1.88
882.746	112.81
882.918	22.7
883.09	16.55
883.262	-51.03
883.434	47.27
883.606	39.08
883.778	22.7
883.95	-14.17
884.122	-14.17
884.293	-1.88
884.465	-8.02
884.637	73.9
884.809	-46.93
884.98	20.65
885.152	12.46
885.324	-26.45
885.496	-44.88
885.667	47.27
885.839	6.31
886.011	88.23
886.182	-10.07
886.354	73.9
886.525	-16.21
886.697	-26.45
886.869	45.23
887.04	6.31
887.212	47.27
887.383	59.56
887.555	-26.45
887.726	20.65
887.897	71.85
888.069	67.75
888.24	-20.31
888.412	18.6
888.583	43.18
888.754	14.51
888.926	-30.55
889.097	24.75
889.268	26.79
889.44	14.51
889.611	-26.45
889.782	-10.07
889.953	6.31
890.125	0.17
890.296	14.51
890.467	-10.07
890.638	18.6
890.809	98.47
890.98	10.41
891.151	0.17
891.323	14.51
891.494	4.27
891.665	14.51
891.836	6.31
892.007	30.89
892.178	71.85
892.349	2.22
892.52	6.31
892.691	14.51
892.862	47.27
893.032	-30.55
893.203	71.85
893.374	-24.4
893.545	30.89
893.716	-59.22
893.887	39.08
894.057	-10.07
894.228	45.23
894.399	14.51
894.57	24.75
894.74	-55.12
894.911	0.17
895.082	32.94
895.253	-26.45
895.423	-63.32
895.594	24.75
895.764	2.22
895.935	-5.97
896.106	59.56
896.276	6.31
896.447	-28.5
896.617	26.79
896.788	-51.03
896.958	2.22
897.129	4.27
897.299	16.55
897.47	14.51
897.64	75.95
897.81	16.55
897.981	51.37
898.151	-5.97
898.322	123.05
898.492	-34.64
898.662	-18.26
898.832	-10.07
899.003	-10.07
899.173	67.75
899.343	-44.88
899.513	49.32
