Data from USB4F104151__45__14-16-48-306.txt Node

Date: Thu Mar 13 14:16:48 EDT 2025
User: louis
Spectrometer: USB4F10415
Trigger mode: 4
Integration Time (sec): 2.000000E-2
Scans to average: 1
Electric dark correction enabled: true
Nonlinearity correction enabled: false
Boxcar width: 0
XAxis mode: Wavelengths
Number of Pixels in Spectrum: 3648
>>>>>Begin Spectral Data<<<<<
178.204	-134.65
178.424	-134.65
178.644	-134.65
178.864	-157.18
179.084	-30.21
179.304	-38.4
179.524	-15.87
179.744	61.95
179.964	18.94
180.184	-17.92
180.404	-34.3
180.624	14.85
180.844	23.04
181.064	-52.74
181.283	41.47
181.503	10.75
181.723	-11.78
181.943	-65.02
182.163	-13.82
182.383	31.23
182.602	162.3
182.822	53.76
183.042	-7.68
183.262	-34.3
183.482	29.18
183.701	37.38
183.921	-3.58
184.141	-48.64
184.361	80.38
184.58	-34.3
184.8	-15.87
185.02	14.85
185.239	23.04
185.459	55.81
185.679	33.28
185.898	16.9
186.118	64
186.338	-9.73
186.557	76.29
186.777	-1.54
186.997	14.85
187.216	66.05
187.436	41.47
187.655	84.48
187.875	68.09
188.095	39.42
188.314	2.56
188.534	18.94
188.753	14.85
188.973	8.7
189.192	14.85
189.412	2.56
189.631	-24.06
189.851	-13.82
190.07	80.38
190.29	-9.73
190.509	6.66
190.729	-38.4
190.948	41.47
191.168	115.2
191.387	59.9
191.607	6.66
191.826	-26.11
192.045	41.47
192.265	-7.68
192.484	6.66
192.704	55.81
192.923	-83.45
193.142	49.66
193.362	-22.02
193.581	-7.68
193.8	10.75
194.02	-15.87
194.239	51.71
194.458	-54.78
194.678	39.42
194.897	8.7
195.116	25.09
195.335	72.19
195.555	18.94
195.774	8.7
195.993	25.09
196.212	31.23
196.432	-17.92
196.651	2.56
196.87	74.24
197.089	113.15
197.308	-3.58
197.528	98.81
197.747	23.04
197.966	-17.92
198.185	16.9
198.404	47.62
198.623	16.9
198.842	68.09
199.062	23.04
199.281	-1.54
199.5	6.66
199.719	53.76
199.938	8.7
200.157	-17.92
200.376	55.81
200.595	39.42
200.814	59.9
201.033	2.56
201.252	64
201.471	6.66
201.69	10.75
201.909	14.85
202.128	35.33
202.347	-48.64
202.566	12.8
202.785	4.61
203.004	2.56
203.223	-1.54
203.442	-11.78
203.661	16.9
203.879	123.39
204.098	25.09
204.317	-7.68
204.536	55.81
204.755	16.9
204.974	-1.54
205.193	33.28
205.411	92.67
205.63	45.57
205.849	82.43
206.068	35.33
206.287	-11.78
206.505	96.77
206.724	47.62
206.943	-24.06
207.162	23.04
207.381	-3.58
207.599	0.51
207.818	-5.63
208.037	-34.3
208.255	-9.73
208.474	-26.11
208.693	80.38
208.911	14.85
209.13	-7.68
209.349	43.52
209.567	33.28
209.786	88.57
210.005	-36.35
210.223	55.81
210.442	16.9
210.661	-13.82
210.879	107.01
211.098	27.14
211.316	-15.87
211.535	113.15
211.753	72.19
211.972	31.23
212.191	-22.02
212.409	-24.06
212.628	72.19
212.846	72.19
213.065	86.53
213.283	39.42
213.502	8.7
213.72	66.05
213.938	39.42
214.157	25.09
214.375	39.42
214.594	-40.45
214.812	0.51
215.031	-15.87
215.249	80.38
215.467	-13.82
215.686	8.7
215.904	31.23
216.122	55.81
216.341	20.99
216.559	64
216.778	-11.78
216.996	47.62
217.214	14.85
217.432	-1.54
217.651	27.14
217.869	-17.92
218.087	41.47
218.306	33.28
218.524	47.62
218.742	-5.63
218.96	14.85
219.179	82.43
219.397	80.38
219.615	59.9
219.833	88.57
220.051	10.75
220.27	2.56
220.488	14.85
220.706	-26.11
220.924	-17.92
221.142	-50.69
221.36	0.51
221.578	18.94
221.796	2.56
222.015	-26.11
222.233	51.71
222.451	-73.21
222.669	35.33
222.887	6.66
223.105	6.66
223.323	14.85
223.541	-44.54
223.759	41.47
223.977	18.94
224.195	117.25
224.413	74.24
224.631	145.92
224.849	14.85
225.067	90.62
225.285	6.66
225.503	-5.63
225.721	-3.58
225.939	8.7
226.157	-54.78
226.375	74.24
226.592	-50.69
226.81	20.99
227.028	55.81
227.246	12.8
227.464	43.52
227.682	-54.78
227.9	-1.54
228.117	35.33
228.335	-1.54
228.553	8.7
228.771	14.85
228.989	-9.73
229.206	-9.73
229.424	-19.97
229.642	80.38
229.86	-26.11
230.077	16.9
230.295	96.77
230.513	78.33
230.731	43.52
230.948	0.51
231.166	102.91
231.384	-5.63
231.601	-30.21
231.819	104.96
232.037	-65.02
232.254	10.75
232.472	-32.26
232.689	-7.68
232.907	16.9
233.125	64
233.342	-11.78
233.56	35.33
233.777	-34.3
233.995	51.71
234.213	123.39
234.43	-30.21
234.648	6.66
234.865	33.28
235.083	64
235.3	-26.11
235.518	39.42
235.735	10.75
235.953	84.48
236.17	-50.69
236.388	14.85
236.605	-50.69
236.822	55.81
237.04	49.66
237.257	18.94
237.475	16.9
237.692	39.42
237.909	-3.58
238.127	39.42
238.344	33.28
238.562	35.33
238.779	2.56
238.996	-38.4
239.214	10.75
239.431	25.09
239.648	0.51
239.865	16.9
240.083	49.66
240.3	84.48
240.517	18.94
240.735	4.61
240.952	-34.3
241.169	66.05
241.386	53.76
241.603	-34.3
241.821	39.42
242.038	68.09
242.255	64
242.472	23.04
242.689	84.48
242.907	39.42
243.124	-30.21
243.341	-9.73
243.558	33.28
243.775	70.14
243.992	-93.69
244.209	59.9
244.426	109.05
244.643	39.42
244.86	-26.11
245.078	6.66
245.295	-34.3
245.512	-7.68
245.729	-28.16
245.946	66.05
246.163	47.62
246.38	2.56
246.597	43.52
246.814	0.51
247.031	-19.97
247.248	96.77
247.464	-1.54
247.681	-28.16
247.898	-9.73
248.115	25.09
248.332	-46.59
248.549	41.47
248.766	37.38
248.983	29.18
249.2	10.75
249.417	27.14
249.633	55.81
249.85	-3.58
250.067	39.42
250.284	33.28
250.501	-17.92
250.717	74.24
250.934	37.38
251.151	-38.4
251.368	20.99
251.585	49.66
251.801	35.33
252.018	23.04
252.235	55.81
252.451	-42.5
252.668	31.23
252.885	66.05
253.102	23.04
253.318	-17.92
253.535	47.62
253.752	6.66
253.968	-9.73
254.185	-11.78
254.401	-13.82
254.618	74.24
254.835	68.09
255.051	31.23
255.268	29.18
255.484	-13.82
255.701	41.47
255.917	25.09
256.134	-54.78
256.351	-26.11
256.567	-48.64
256.784	41.47
257	14.85
257.217	-30.21
257.433	-26.11
257.65	49.66
257.866	92.67
258.082	55.81
258.299	41.47
258.515	39.42
258.732	-42.5
258.948	96.77
259.165	86.53
259.381	-30.21
259.597	12.8
259.814	-13.82
260.03	16.9
260.246	27.14
260.463	53.76
260.679	45.57
260.895	6.66
261.112	82.43
261.328	-71.17
261.544	2.56
261.761	123.39
261.977	25.09
262.193	-17.92
262.409	66.05
262.626	43.52
262.842	33.28
263.058	61.95
263.274	47.62
263.49	59.9
263.707	-1.54
263.923	88.57
264.139	47.62
264.355	16.9
264.571	72.19
264.787	-32.26
265.004	70.14
265.22	47.62
265.436	-34.3
265.652	-50.69
265.868	31.23
266.084	51.71
266.3	53.76
266.516	20.99
266.732	64
266.948	-19.97
267.164	47.62
267.38	25.09
267.596	-50.69
267.812	72.19
268.028	-17.92
268.244	6.66
268.46	68.09
268.676	23.04
268.892	55.81
269.108	39.42
269.324	72.19
269.54	-42.5
269.756	-15.87
269.972	-26.11
270.188	43.52
270.403	-15.87
270.619	72.19
270.835	39.42
271.051	47.62
271.267	43.52
271.483	47.62
271.698	-40.45
271.914	64
272.13	-5.63
272.346	0.51
272.562	59.9
272.777	80.38
272.993	6.66
273.209	-28.16
273.425	2.56
273.64	-15.87
273.856	20.99
274.072	-58.88
274.287	-42.5
274.503	74.24
274.719	23.04
274.934	-7.68
275.15	-67.07
275.366	-40.45
275.581	16.9
275.797	39.42
276.012	-7.68
276.228	6.66
276.444	-13.82
276.659	6.66
276.875	90.62
277.09	-34.3
277.306	68.09
277.521	84.48
277.737	-13.82
277.952	64
278.168	37.38
278.383	82.43
278.599	2.56
278.814	6.66
279.03	-44.54
279.245	41.47
279.461	33.28
279.676	27.14
279.892	16.9
280.107	-58.88
280.322	-56.83
280.538	43.52
280.753	23.04
280.969	25.09
281.184	-1.54
281.399	92.67
281.615	-26.11
281.83	-17.92
282.045	49.66
282.26	8.7
282.476	14.85
282.691	55.81
282.906	8.7
283.122	31.23
283.337	-9.73
283.552	92.67
283.767	57.86
283.983	41.47
284.198	57.86
284.413	51.71
284.628	-26.11
284.843	51.71
285.058	-60.93
285.274	57.86
285.489	-17.92
285.704	80.38
285.919	-5.63
286.134	23.04
286.349	-50.69
286.564	-19.97
286.779	16.9
286.995	80.38
287.21	-1.54
287.425	49.66
287.64	6.66
287.855	-9.73
288.07	57.86
288.285	82.43
288.5	-105.98
288.715	18.94
288.93	-30.21
289.145	8.7
289.36	0.51
289.575	49.66
289.79	55.81
290.004	20.99
290.219	33.28
290.434	23.04
290.649	-32.26
290.864	10.75
291.079	-5.63
291.294	6.66
291.509	64
291.724	-3.58
291.938	-1.54
292.153	25.09
292.368	-40.45
292.583	27.14
292.798	55.81
293.012	47.62
293.227	92.67
293.442	35.33
293.657	64
293.871	72.19
294.086	33.28
294.301	25.09
294.516	76.29
294.73	-1.54
294.945	-13.82
295.16	-7.68
295.374	76.29
295.589	-17.92
295.804	-19.97
296.018	41.47
296.233	-24.06
296.447	82.43
296.662	-26.11
296.877	55.81
297.091	31.23
297.306	-56.83
297.52	66.05
297.735	6.66
297.949	96.77
298.164	-34.3
298.378	47.62
298.593	68.09
298.807	6.66
299.022	39.42
299.236	43.52
299.451	16.9
299.665	39.42
299.88	27.14
300.094	-9.73
300.309	-34.3
300.523	31.23
300.737	117.25
300.952	82.43
301.166	100.86
301.381	10.75
301.595	8.7
301.809	-15.87
302.024	80.38
302.238	-32.26
302.452	23.04
302.667	-22.02
302.881	14.85
303.095	6.66
303.309	-34.3
303.524	-3.58
303.738	-22.02
303.952	31.23
304.166	16.9
304.381	31.23
304.595	111.1
304.809	10.75
305.023	14.85
305.237	10.75
305.452	47.62
305.666	51.71
305.88	74.24
306.094	16.9
306.308	18.94
306.522	96.77
306.736	84.48
306.95	68.09
307.164	-19.97
307.379	-40.45
307.593	68.09
307.807	31.23
308.021	49.66
308.235	-9.73
308.449	10.75
308.663	-17.92
308.877	74.24
309.091	41.47
309.305	66.05
309.519	-42.5
309.733	96.77
309.947	12.8
310.161	43.52
310.374	-58.88
310.588	64
310.802	41.47
311.016	-22.02
311.23	4.61
311.444	-9.73
311.658	66.05
311.872	55.81
312.085	47.62
312.299	14.85
312.513	88.57
312.727	-32.26
312.941	-13.82
313.154	0.51
313.368	-1.54
313.582	41.47
313.796	-11.78
314.009	23.04
314.223	-26.11
314.437	68.09
314.651	100.86
314.864	10.75
315.078	107.01
315.292	-3.58
315.505	31.23
315.719	55.81
315.933	20.99
316.146	23.04
316.36	-9.73
316.573	8.7
316.787	55.81
317.001	78.33
317.214	76.29
317.428	-46.59
317.641	18.94
317.855	64
318.068	-34.3
318.282	25.09
318.495	35.33
318.709	16.9
318.922	-17.92
319.136	80.38
319.349	74.24
319.563	-73.21
319.776	-3.58
319.99	23.04
320.203	55.81
320.417	39.42
320.63	59.9
320.843	86.53
321.057	100.86
321.27	2.56
321.483	-7.68
321.697	88.57
321.91	102.91
322.124	31.23
322.337	43.52
322.55	57.86
322.763	23.04
322.977	39.42
323.19	-36.35
323.403	-7.68
323.617	-40.45
323.83	131.58
324.043	23.04
324.256	29.18
324.469	23.04
324.683	39.42
324.896	-13.82
325.109	70.14
325.322	27.14
325.535	55.81
325.748	-34.3
325.962	84.48
326.175	-3.58
326.388	6.66
326.601	80.38
326.814	23.04
327.027	35.33
327.24	80.38
327.453	-50.69
327.666	6.66
327.879	23.04
328.092	45.57
328.305	-13.82
328.518	16.9
328.731	70.14
328.944	107.01
329.157	-24.06
329.37	72.19
329.583	43.52
329.796	80.38
330.009	-65.02
330.222	41.47
330.435	90.62
330.648	57.86
330.861	8.7
331.073	104.96
331.286	43.52
331.499	82.43
331.712	88.57
331.925	107.01
332.138	45.57
332.35	6.66
332.563	23.04
332.776	14.85
332.989	-22.02
333.202	14.85
333.414	-7.68
333.627	55.81
333.84	39.42
334.053	23.04
334.265	-5.63
334.478	18.94
334.691	-15.87
334.903	39.42
335.116	6.66
335.329	68.09
335.541	4.61
335.754	64
335.966	68.09
336.179	82.43
336.392	98.81
336.604	-17.92
336.817	68.09
337.029	16.9
337.242	-17.92
337.454	113.15
337.667	14.85
337.88	80.38
338.092	-11.78
338.305	51.71
338.517	-1.54
338.729	33.28
338.942	51.71
339.154	92.67
339.367	6.66
339.579	-58.88
339.792	12.8
340.004	113.15
340.217	-9.73
340.429	49.66
340.641	-30.21
340.854	-30.21
341.066	88.57
341.278	137.73
341.491	121.34
341.703	23.04
341.915	35.33
342.128	39.42
342.34	-26.11
342.552	78.33
342.764	20.99
342.977	-1.54
343.189	-15.87
343.401	-42.5
343.613	43.52
343.826	64
344.038	25.09
344.25	-11.78
344.462	33.28
344.674	92.67
344.886	61.95
345.099	29.18
345.311	0.51
345.523	-11.78
345.735	-7.68
345.947	70.14
346.159	80.38
346.371	35.33
346.583	39.42
346.795	61.95
347.007	59.9
347.219	117.25
347.431	-54.78
347.643	117.25
347.855	31.23
348.067	61.95
348.279	59.9
348.491	-34.3
348.703	43.52
348.915	-75.26
349.127	47.62
349.339	31.23
349.551	39.42
349.763	76.29
349.975	39.42
350.187	47.62
350.399	80.38
350.61	98.81
350.822	-7.68
351.034	-7.68
351.246	27.14
351.458	31.23
351.669	64
351.881	33.28
352.093	31.23
352.305	70.14
352.517	31.23
352.728	90.62
352.94	37.38
353.152	68.09
353.363	61.95
353.575	31.23
353.787	125.44
353.999	72.19
354.21	70.14
354.422	-11.78
354.633	55.81
354.845	-3.58
355.057	39.42
355.268	88.57
355.48	2.56
355.692	-24.06
355.903	43.52
356.115	-9.73
356.326	90.62
356.538	88.57
356.749	51.71
356.961	55.81
357.172	72.19
357.384	-34.3
357.595	70.14
357.807	86.53
358.018	2.56
358.23	55.81
358.441	-3.58
358.653	96.77
358.864	51.71
359.075	43.52
359.287	68.09
359.498	43.52
359.709	115.2
359.921	-40.45
360.132	8.7
360.344	39.42
360.555	-24.06
360.766	102.91
360.977	-1.54
361.189	82.43
361.4	25.09
361.611	-32.26
361.823	14.85
362.034	27.14
362.245	55.81
362.456	88.57
362.667	74.24
362.879	76.29
363.09	55.81
363.301	123.39
363.512	57.86
363.723	-1.54
363.935	-19.97
364.146	39.42
364.357	82.43
364.568	47.62
364.779	39.42
364.99	0.51
365.201	35.33
365.412	72.19
365.623	49.66
365.834	82.43
366.045	51.71
366.256	64
366.467	84.48
366.678	96.77
366.889	68.09
367.1	8.7
367.311	14.85
367.522	-7.68
367.733	47.62
367.944	55.81
368.155	74.24
368.366	51.71
368.577	98.81
368.788	14.85
368.999	-26.11
369.209	-17.92
369.42	84.48
369.631	129.53
369.842	84.48
370.053	0.51
370.264	61.95
370.474	64
370.685	39.42
370.896	57.86
371.107	59.9
371.317	80.38
371.528	-9.73
371.739	0.51
371.95	51.71
372.16	57.86
372.371	-7.68
372.582	-50.69
372.792	82.43
373.003	-9.73
373.214	74.24
373.424	72.19
373.635	39.42
373.846	70.14
374.056	14.85
374.267	107.01
374.477	47.62
374.688	35.33
374.898	27.14
375.109	64
375.319	23.04
375.53	98.81
375.74	80.38
375.951	39.42
376.161	82.43
376.372	74.24
376.582	107.01
376.793	27.14
377.003	35.33
377.214	14.85
377.424	70.14
377.635	90.62
377.845	12.8
378.055	90.62
378.266	-17.92
378.476	107.01
378.686	68.09
378.897	104.96
379.107	49.66
379.317	33.28
379.528	25.09
379.738	51.71
379.948	104.96
380.158	119.29
380.369	31.23
380.579	68.09
380.789	33.28
380.999	100.86
381.21	45.57
381.42	98.81
381.63	113.15
381.84	66.05
382.05	12.8
382.261	129.53
382.471	98.81
382.681	-5.63
382.891	49.66
383.101	2.56
383.311	31.23
383.521	25.09
383.731	160.25
383.941	68.09
384.151	-1.54
384.361	80.38
384.571	72.19
384.781	156.16
384.991	80.38
385.201	109.05
385.411	-3.58
385.621	96.77
385.831	2.56
386.041	59.9
386.251	107.01
386.461	121.34
386.671	68.09
386.881	68.09
387.091	53.76
387.301	49.66
387.511	72.19
387.72	72.19
387.93	51.71
388.14	-9.73
388.35	109.05
388.56	102.91
388.769	88.57
388.979	59.9
389.189	10.75
389.399	-9.73
389.609	86.53
389.818	23.04
390.028	74.24
390.238	88.57
390.447	47.62
390.657	88.57
390.867	-9.73
391.076	20.99
391.286	72.19
391.496	59.9
391.705	57.86
391.915	104.96
392.125	100.86
392.334	59.9
392.544	98.81
392.753	123.39
392.963	55.81
393.172	35.33
393.382	94.72
393.591	111.1
393.801	55.81
394.01	88.57
394.22	33.28
394.429	31.23
394.639	8.7
394.848	41.47
395.058	39.42
395.267	78.33
395.477	92.67
395.686	94.72
395.895	117.25
396.105	147.97
396.314	131.58
396.524	84.48
396.733	88.57
396.942	162.3
397.152	86.53
397.361	55.81
397.57	80.38
397.78	68.09
397.989	86.53
398.198	92.67
398.407	90.62
398.617	172.54
398.826	119.29
399.035	104.96
399.244	51.71
399.453	84.48
399.663	141.82
399.872	113.15
400.081	82.43
400.29	201.21
400.499	104.96
400.708	104.96
400.917	92.67
401.127	125.44
401.336	184.83
401.545	186.88
401.754	178.69
401.963	31.23
402.172	164.35
402.381	123.39
402.59	111.1
402.799	172.54
403.008	158.21
403.217	104.96
403.426	190.97
403.635	121.34
403.844	186.88
404.053	221.69
404.262	90.62
404.471	178.69
404.68	152.06
404.888	180.73
405.097	139.77
405.306	205.31
405.515	205.31
405.724	213.5
405.933	211.45
406.142	203.26
406.35	199.16
406.559	221.69
406.768	227.84
406.977	268.8
407.185	244.22
407.394	219.64
407.603	190.97
407.812	301.56
408.02	283.13
408.229	352.76
408.438	301.56
408.646	291.32
408.855	268.8
409.064	248.32
409.272	262.65
409.481	399.87
409.69	287.23
409.898	395.77
410.107	264.7
410.315	385.53
410.524	379.39
410.733	371.19
410.941	338.43
411.15	432.63
411.358	395.77
411.567	440.83
411.775	446.97
411.984	428.54
412.192	473.59
412.401	438.78
412.609	598.52
412.818	580.09
413.026	647.67
413.234	637.43
413.443	653.81
413.651	590.33
413.86	719.35
414.068	694.77
414.276	760.31
414.485	797.17
414.693	760.31
414.901	844.28
415.11	786.93
415.318	860.66
415.526	899.57
415.734	924.15
415.943	918
416.151	993.78
416.359	1030.64
416.567	1087.98
416.776	1090.03
416.984	1118.7
417.192	1145.33
417.4	1196.53
417.608	1157.61
417.817	1339.88
418.025	1300.97
418.233	1440.23
418.441	1454.57
418.649	1386.99
418.857	1575.4
419.065	1554.92
419.273	1481.19
419.481	1610.22
419.689	1710.57
419.897	1731.05
420.105	1845.73
420.313	1772
420.521	2030.05
420.729	1972.71
420.937	2079.2
421.145	2087.39
421.353	2247.13
421.561	2345.44
421.769	2316.76
421.977	2550.23
422.185	2357.72
422.393	2714.07
422.601	2750.93
422.809	2693.59
423.017	2644.44
423.224	2824.66
423.432	2998.74
423.64	2988.5
423.848	3242.45
424.056	3172.82
424.263	3430.86
424.471	3381.71
424.679	3506.63
424.887	3733.96
425.094	3908.04
425.302	3740.1
425.51	3881.41
425.718	4108.74
425.925	4084.16
426.133	4131.26
426.341	4311.49
426.548	4549.05
426.756	4727.22
426.964	4747.7
427.171	5077.43
427.379	5185.97
427.586	5253.55
427.794	5441.96
428.001	5536.17
428.209	5740.97
428.417	5908.9
428.624	6134.18
428.832	6230.43
429.039	6259.1
429.247	6132.13
429.454	6797.72
429.662	7174.55
429.869	6807.96
430.076	7182.74
430.284	7143.83
430.491	7387.54
430.699	7604.62
430.906	7633.29
431.114	7922.06
431.321	8171.91
431.528	8198.53
431.736	8796.54
431.943	9087.35
432.15	9013.62
432.358	8812.92
432.565	9589.1
432.772	9396.59
432.979	10107.24
433.187	10041.7
433.394	10180.96
433.601	11075.93
433.808	11014.49
434.016	10864.99
434.223	11200.85
434.43	12087.62
434.637	11503.95
434.844	12386.63
435.052	12788.03
435.259	12583.23
435.466	12484.93
435.673	12599.62
435.88	13363.51
436.087	14008.62
436.294	14047.53
436.501	13781.29
436.708	13865.26
436.915	14367.01
437.122	15059.23
437.329	15188.25
437.537	15692.05
437.743	16017.68
437.95	15730.96
438.157	16564.48
438.364	17166.59
438.571	16976.12
438.778	17309.94
438.985	18571.49
439.192	18049.26
439.399	18702.56
439.606	18092.27
439.813	19232.99
440.02	20609.22
440.227	19841.23
440.433	19857.62
440.64	20637.89
440.847	20291.79
441.054	20861.12
441.261	22016.18
441.467	21862.58
441.674	22272.17
441.881	22937.76
442.088	23197.85
442.294	22915.23
442.501	23505.05
442.708	24058
442.914	24766.6
443.121	25737.34
443.328	25061.51
443.534	26943.59
443.741	26062.96
443.948	25819.25
444.154	27699.29
444.361	27400.29
444.568	27730.01
444.774	27662.43
444.981	28069.97
445.187	28665.93
445.394	29986.87
445.6	29505.6
445.807	32186.39
446.013	31160.36
446.22	31326.24
446.426	32722.96
446.633	33187.85
446.839	34254.84
447.046	32940.04
447.252	34435.06
447.459	34740.21
447.665	34502.64
447.871	36116.44
448.078	37588.93
448.284	35997.66
448.491	36628.43
448.697	37863.36
448.903	38428.6
449.11	38823.86
449.316	38125.5
449.522	38563.76
449.728	39780.26
449.935	40069.02
450.141	40144.8
450.347	40447.89
450.553	39591.84
450.76	40497.05
450.966	41781.12
451.172	41037.71
451.378	42323.83
451.584	41473.93
451.791	42643.32
451.997	41942.91
452.203	42848.11
452.409	43409.26
452.615	42944.37
452.821	40750.99
453.027	40669.08
453.233	42884.98
453.44	40949.65
453.646	41650.05
453.852	41865.09
454.058	42362.75
454.264	40939.41
454.47	42164.09
454.676	40894.35
454.882	42278.78
455.088	38645.68
455.294	39245.74
455.5	39772.07
455.705	40419.22
455.911	38516.66
456.117	38078.39
456.323	37341.13
456.529	35317.73
456.735	36970.44
456.941	36290.52
457.147	35522.53
457.352	34818.03
457.558	34285.56
457.764	34478.07
457.97	33468.42
458.176	33009.67
458.381	33363.97
458.587	31672.35
458.793	31170.6
458.999	29808.7
459.204	31879.19
459.41	30787.63
459.616	28844.1
459.821	29038.66
460.027	29081.67
460.233	28328.02
460.438	26812.52
460.644	27287.65
460.85	25948.28
461.055	25557.11
461.261	25520.25
461.466	23316.64
461.672	22921.38
461.878	24207.5
462.083	22687.91
462.289	22501.54
462.494	22128.81
462.7	21127.36
462.905	20576.45
463.111	21403.83
463.316	21352.63
463.522	20816.07
463.727	21094.59
463.932	20984
464.138	20658.37
464.343	20965.57
464.549	20326.6
464.754	20658.37
464.959	20773.06
465.165	20494.54
465.37	19759.31
465.575	19040.48
465.781	19908.82
465.986	19974.35
466.191	19294.43
466.397	19106.01
466.602	18000.11
466.807	18800.87
467.012	18974.94
467.218	18712.8
467.423	18252.01
467.628	18485.48
467.833	19103.96
468.038	18434.28
468.244	18147.56
468.449	18757.86
468.654	18229.48
468.859	17946.86
469.064	17942.77
469.269	17111.29
469.474	17256.7
469.679	17897.71
469.885	17481.97
470.09	17402.1
470.295	17266.94
470.5	16673.03
470.705	16980.22
470.91	16789.76
471.115	16476.42
471.32	16783.62
471.525	16752.9
471.73	16333.06
471.935	16081.16
472.139	15456.53
472.344	15980.81
472.549	15550.74
472.754	15425.81
472.959	15116.57
473.164	14872.86
473.369	14745.89
473.574	15548.69
473.778	15065.37
473.983	14870.81
474.188	14827.81
474.393	14068.01
474.598	14416.16
474.802	13969.71
475.007	13957.42
475.212	13975.85
475.417	13605.17
475.621	13596.98
475.826	13736.24
476.031	13453.62
476.235	13144.38
476.44	13254.97
476.645	13291.83
476.849	13054.26
477.054	12814.65
477.259	12646.72
477.463	12704.06
477.668	12333.38
477.872	12532.03
478.077	12253.51
478.282	11878.73
478.486	11960.65
478.691	11792.72
478.895	12011.85
479.1	11819.34
479.304	11823.44
479.509	11299.16
479.713	11471.18
479.918	11348.31
480.122	11094.36
480.326	11417.94
480.531	11297.11
480.735	11082.07
480.94	11231.57
481.144	11370.83
481.348	11020.63
481.553	11063.64
481.757	10553.69
481.961	10897.75
482.166	11032.92
482.37	10946.9
482.574	10924.38
482.778	10883.42
482.983	11098.45
483.187	10994.01
483.391	10887.51
483.595	10783.07
483.8	10776.92
484.004	10860.89
484.208	11002.2
484.412	10830.17
484.616	10955.1
484.821	10926.43
485.025	10715.48
485.229	10998.1
485.433	11014.49
485.637	10770.78
485.841	10711.39
486.045	10869.08
486.249	10746.2
486.453	10819.93
486.657	10783.07
486.861	10692.96
487.065	10705.24
487.269	10623.33
487.473	10738.01
487.677	11080.02
487.881	11086.17
488.085	10951
488.289	10920.28
488.493	10762.59
488.697	10959.19
488.901	10922.33
489.105	10772.83
489.309	10996.06
489.512	10879.32
489.716	10936.67
489.92	11108.69
490.124	10967.38
490.328	11209.04
490.531	11049.3
490.735	10996.06
490.939	11250
491.143	11123.03
491.346	11067.74
491.55	11297.11
491.754	11114.84
491.958	11571.54
492.161	11270.48
492.365	11462.99
492.569	11419.99
492.772	11340.11
492.976	11628.88
493.18	11508.05
493.383	11784.52
493.587	11671.89
493.79	11866.44
493.994	11860.3
494.197	11886.92
494.401	12142.92
494.605	11985.23
494.808	12355.91
495.012	12132.68
495.215	12286.28
495.419	12714.3
495.622	12493.12
495.825	12499.27
496.029	12775.74
496.232	12917.05
496.436	12810.56
496.639	13146.42
496.843	12869.95
497.046	13304.12
497.249	13467.95
497.453	13619.5
497.656	13437.23
497.859	13740.33
498.063	13871.4
498.266	13769.01
498.469	14004.52
498.673	14080.3
498.876	14389.54
499.079	14680.35
499.282	14342.44
499.485	14999.84
499.689	14856.48
499.892	15132.95
500.095	15173.91
500.298	15489.3
500.501	15241.5
500.705	15624.47
500.908	15862.03
501.111	16029.96
501.314	16206.09
501.517	16326.92
501.72	16650.5
501.923	16328.97
502.126	16853.25
502.329	17105.15
502.532	17195.26
502.735	17731.83
502.938	17647.86
503.141	17922.29
503.344	18016.49
503.547	18258.15
503.75	18225.39
503.953	18520.29
504.156	18897.12
504.359	19120.35
504.562	19020
504.765	19689.68
504.968	19724.5
505.17	19912.91
505.373	19675.35
505.576	20185.29
505.779	20377.8
505.982	20928.7
506.185	20973.76
506.387	21156.03
506.59	21340.35
506.793	21493.94
506.996	21569.72
507.198	22501.54
507.401	21936.31
507.604	22341.8
507.807	22667.43
508.009	22929.57
508.212	22829.22
508.415	23410.84
508.617	23738.52
508.82	23730.33
509.022	23472.28
509.225	24361.1
509.428	24569.99
509.63	25008.26
509.833	24502.41
510.035	25487.48
510.238	25485.44
510.44	25790.58
510.643	25987.19
510.845	26069.11
511.048	26003.57
511.25	26861.67
511.453	27162.72
511.655	27811.93
511.858	27088.99
512.06	27910.23
512.262	28067.92
512.465	27785.3
512.667	28383.31
512.87	28721.23
513.072	28747.85
513.274	29214.79
513.477	29524.03
513.679	29726.78
513.881	30402.61
514.084	30378.03
514.286	30369.84
514.488	30476.33
514.69	31391.78
514.893	31266.85
515.095	31741.98
515.297	31819.8
515.499	32067.61
515.701	32417.81
515.904	32886.79
516.106	32782.35
516.308	33368.07
516.51	33613.82
516.712	33865.72
516.914	34172.92
517.116	35190.76
517.318	34445.3
517.52	34770.93
517.722	35147.75
517.925	35551.2
518.127	36157.4
518.329	36284.37
518.531	36122.58
518.733	36607.95
518.935	37308.36
519.136	37400.52
519.338	37717.95
519.54	37226.44
519.742	38262.71
519.944	38182.84
520.146	38901.68
520.348	38797.23
520.55	39061.42
520.752	39333.8
520.954	39751.59
521.155	39729.06
521.357	40384.41
521.559	40566.68
521.761	41349
521.963	40963.98
522.164	41605
522.366	41500.55
522.568	42010.49
522.77	42047.36
522.971	42786.68
523.173	42055.55
523.375	42751.86
523.576	42737.52
523.778	43083.63
523.98	43642.73
524.181	43769.7
524.383	43544.42
524.584	43798.37
524.786	44459.87
524.988	44080.99
525.189	44697.43
525.391	45078.35
525.592	45295.44
525.794	45246.29
525.995	45487.95
526.197	45344.59
526.398	45360.97
526.6	46038.85
526.801	46321.47
527.003	45938.5
527.204	46020.42
527.406	46409.53
527.607	46296.89
527.808	46913.33
528.01	46065.47
528.211	46417.72
528.412	47243.06
528.614	46765.88
528.815	46997.3
529.016	47275.82
529.218	47154.99
529.419	47709.99
529.62	47277.87
529.822	47755.05
530.023	47709.99
530.224	47423.28
530.425	47589.16
530.626	47173.42
530.828	47484.72
531.029	48781.08
531.23	47709.99
531.431	47681.32
531.632	48361.25
531.833	48502.56
532.035	47882.02
532.236	48154.4
532.437	48553.76
532.638	47992.61
532.839	48238.37
533.04	48312.09
533.241	48080.67
533.442	48740.12
533.643	48351.01
533.844	48441.12
534.045	48463.64
534.246	47953.7
534.447	48125.73
534.648	48162.59
534.849	48357.15
535.05	48031.52
535.251	48289.57
535.451	48183.07
535.652	48437.02
535.853	48226.08
536.054	48475.93
536.255	48383.77
536.456	48074.53
536.657	48482.08
536.857	48105.25
537.058	47992.61
537.259	48584.47
537.46	48133.92
537.66	47722.28
537.861	48246.56
538.062	47916.84
538.263	48582.43
538.463	48086.82
538.664	48144.16
538.865	48074.53
539.065	48496.41
539.266	47873.83
539.466	48414.49
539.667	47626.03
539.868	48264.99
540.068	48160.55
540.269	47984.42
540.469	48269.09
540.67	48006.95
540.87	47812.39
541.071	47914.79
541.271	48203.55
541.472	47769.38
541.672	47568.68
541.873	47955.75
542.073	47251.25
542.274	48273.18
542.474	47982.37
542.675	47300.4
542.875	47449.9
543.075	47869.73
543.276	47019.83
543.476	48025.38
543.676	47347.5
543.877	48049.95
544.077	47714.09
544.277	47421.23
544.478	47879.97
544.678	47988.52
544.878	47777.57
545.078	47505.2
545.279	47081.27
545.479	47460.14
545.679	47755.05
545.879	47832.87
546.079	47290.16
546.28	47785.77
546.48	47410.99
546.68	47746.86
546.88	47378.22
547.08	47537.96
547.28	47480.62
547.48	46950.2
547.68	47425.32
547.88	47206.19
548.081	47669.03
548.281	47609.64
548.481	47177.52
548.681	47296.3
548.881	47267.63
549.081	47089.46
549.28	47083.31
549.48	47230.77
549.68	47523.63
549.88	47591.21
550.08	47292.21
550.28	47341.36
550.48	46915.38
550.68	47484.72
550.88	47034.16
551.08	47087.41
551.279	47451.95
551.479	46933.81
551.679	47312.69
551.879	46833.46
552.079	47150.9
552.278	47054.64
552.478	47056.69
552.678	46946.1
552.878	47656.74
553.077	46858.04
553.277	46755.64
553.477	47660.84
553.676	47294.25
553.876	47367.98
554.076	46735.16
554.275	46905.14
554.475	46219.07
554.674	46968.63
554.874	47329.07
555.074	46911.28
555.273	47068.98
555.473	47114.03
555.672	46602.04
555.872	46886.71
556.071	46825.27
556.271	47136.56
556.47	46651.19
556.67	46499.64
556.869	46966.58
557.068	46806.84
557.268	46346.04
557.467	46303.04
557.667	46286.65
557.866	46819.13
558.065	46681.91
558.265	46096.19
558.464	45940.55
558.663	46616.38
558.863	45936.45
559.062	46731.06
559.261	46202.69
559.461	46706.49
559.66	46055.23
559.859	46456.64
560.058	45879.11
560.258	45956.93
560.457	45827.91
560.656	46317.37
560.855	45780.81
561.054	45666.12
561.253	45516.62
561.453	46079.81
561.652	46057.28
561.851	45870.92
562.05	45367.12
562.249	45500.23
562.448	45799.24
562.647	45453.13
562.846	45346.64
563.045	45238.09
563.244	44894.03
563.443	45748.04
563.642	44992.34
563.841	45270.86
564.04	44877.65
564.239	45305.68
564.438	45008.72
564.637	45256.53
564.836	45410.12
565.035	44803.92
565.234	44861.27
565.432	44511.06
565.631	44085.09
565.83	44793.68
566.029	44392.28
566.228	44248.92
566.427	44279.64
566.625	43583.33
566.824	44058.46
567.023	44382.04
567.222	43020.14
567.42	43960.16
567.619	43949.92
567.818	43847.52
568.016	43626.34
568.215	43951.97
568.414	43562.86
568.612	43861.86
568.811	43513.7
569.01	43456.36
569.208	43018.1
569.407	43323.24
569.605	42639.22
569.804	43241.32
570.002	42401.66
570.201	42903.41
570.4	42616.69
570.598	42497.91
570.797	42342.27
570.995	42465.14
571.193	42221.44
571.392	42694.52
571.59	42280.83
571.789	42061.69
571.987	42207.1
572.186	42028.93
572.384	41887.62
572.582	41875.33
572.781	42080.13
572.979	41045.9
573.177	41668.48
573.376	41631.62
573.574	41011.09
573.772	41367.43
573.971	41205.64
574.169	41144.2
574.367	41035.66
574.565	41183.12
574.763	40648.6
574.962	40585.11
575.16	40589.2
575.358	41002.89
575.556	40198.04
575.754	40927.12
575.952	40193.95
576.151	40406.94
576.349	40052.64
576.547	39831.46
576.745	39927.71
576.943	39505.83
577.141	39624.61
577.339	39858.08
577.537	39440.29
577.735	39325.61
577.933	39415.72
578.131	39186.35
578.329	38918.06
578.527	38877.1
578.725	38907.82
578.923	39122.86
579.121	38578.1
579.319	38700.98
579.516	38655.92
579.714	38571.96
579.912	38375.35
580.11	38096.83
580.308	38203.32
580.506	38252.47
580.704	37922.75
580.901	38221.75
581.099	38418.36
581.297	37834.69
581.495	37758.91
581.692	38008.76
581.89	37525.44
582.088	37818.3
582.285	37134.28
582.483	37277.64
582.681	37359.56
582.878	37101.51
583.076	37154.76
583.274	37283.78
583.471	36771.79
583.669	37165
583.866	36263.89
584.064	36552.66
584.262	36468.69
584.459	36763.6
584.657	36646.86
584.854	36706.26
585.052	35885.02
585.249	36235.22
585.447	35856.35
585.644	35829.73
585.841	35631.07
586.039	36259.8
586.236	35678.18
586.434	35524.58
586.631	35342.31
586.828	35430.37
587.026	35399.65
587.223	35534.82
587.42	34846.7
587.618	35016.68
587.815	34672.62
588.012	34768.88
588.21	34805.74
588.407	35057.64
588.604	34582.51
588.801	34148.34
588.999	34529.27
589.196	34091
589.393	34353.14
589.59	34445.3
589.787	34234.36
589.984	34111.48
590.182	33521.66
590.379	34056.18
590.576	33316.87
590.773	33228.8
590.97	33409.03
591.167	33495.04
591.364	32872.46
591.561	33378.31
591.758	32647.18
591.955	32882.7
592.152	33085.45
592.349	32466.96
592.546	32722.96
592.743	33048.58
592.94	32286.74
593.137	32542.74
593.334	32673.81
593.531	31985.69
593.727	32137.24
593.924	32006.17
594.121	31987.74
594.318	32030.74
594.515	31035.43
594.712	32182.29
594.908	31680.54
595.105	31899.67
595.302	31578.14
595.499	31578.14
595.696	31160.36
595.892	30945.32
596.089	31111.21
596.286	31260.71
596.482	31078.44
596.679	31453.22
596.876	31021.09
597.072	30662.7
597.269	30750.76
597.466	30230.58
597.662	30529.58
597.859	30212.15
598.055	30449.71
598.252	30171.19
598.448	30048.31
598.645	29997.11
598.841	29704.25
599.038	30185.52
599.234	29964.34
599.431	29575.23
599.627	29767.74
599.824	29777.98
600.02	29542.46
600.217	29675.58
600.413	29366.34
600.609	29141.06
600.806	29313.09
601.002	29177.92
601.198	28983.37
601.395	28866.63
601.591	29200.45
601.787	28833.86
601.984	28446.8
602.18	28985.41
602.376	28133.46
602.572	28080.21
602.769	28383.31
602.965	28137.55
603.161	28084.31
603.357	28285.01
603.553	28018.77
603.75	27875.41
603.946	27662.43
604.142	27711.58
604.338	27279.46
604.534	27828.31
604.73	27363.42
604.926	27316.32
605.122	27562.08
605.318	27068.51
605.514	27183.2
605.71	27105.38
605.906	27013.22
606.102	27283.55
606.298	27019.36
606.494	27037.8
606.69	27162.72
606.886	26789.99
607.082	26468.46
607.278	26894.44
607.474	26331.25
607.67	26931.3
607.866	26433.64
608.062	26587.24
608.257	26445.93
608.453	26251.38
608.649	26538.09
608.845	26103.92
609.041	26232.94
609.236	26222.7
609.432	25952.37
609.628	26112.11
609.824	25899.12
610.019	25462.91
610.215	25964.66
610.411	26056.82
610.606	25786.49
610.802	25825.4
610.998	25417.85
611.193	25741.43
611.389	25663.61
611.584	25725.05
611.78	25321.6
611.976	25268.35
612.171	25237.63
612.367	25260.16
612.562	25221.25
612.758	24731.78
612.953	24862.85
613.149	25092.23
613.344	25004.16
613.539	25149.57
613.735	24772.74
613.93	24930.44
614.126	24520.84
614.321	25014.4
614.517	24860.8
614.712	24502.41
614.907	24621.19
615.103	24705.16
615.298	24422.54
615.493	24676.49
615.688	23961.75
615.884	24447.11
616.079	24111.25
616.274	24180.88
616.47	24400.01
616.665	24391.82
616.86	23847.06
617.055	24273.04
617.25	23881.88
617.445	24436.88
617.641	23769.24
617.836	24045.71
618.031	23470.23
618.226	23756.95
618.421	23341.21
618.616	23748.76
618.811	23148.7
619.006	23494.81
619.201	22849.7
619.396	23255.2
619.591	22894.75
619.786	23316.64
619.981	22769.83
620.176	23167.13
620.371	22495.4
620.566	22882.47
620.761	22948
620.956	22843.56
621.151	22296.75
621.346	22550.7
621.541	22083.76
621.735	22122.67
621.93	21672.12
622.125	21897.39
622.32	21731.51
622.515	21829.81
622.709	21536.95
622.904	21524.66
623.099	21287.1
623.294	21299.39
623.488	21301.43
623.683	21131.45
623.878	20955.33
624.072	20887.75
624.267	20773.06
624.462	20674.76
624.656	20429
624.851	20490.44
625.046	20222.16
625.24	20289.74
625.435	20066.51
625.629	20144.33
625.824	19747.03
626.018	19822.8
626.213	19501.27
626.407	19556.57
626.602	19335.38
626.796	19667.16
626.991	19200.22
627.185	19083.48
627.38	19093.72
627.574	18909.41
627.768	19017.95
627.963	18649.32
628.157	18594.02
628.352	18823.39
628.546	18069.74
628.74	18620.64
628.935	18069.74
629.129	18391.27
629.323	17889.52
629.517	17787.12
629.712	17965.29
629.906	17498.36
630.1	17594.61
630.294	17457.4
630.489	17567.99
630.683	17748.21
630.877	17481.97
631.071	17283.32
631.265	17336.57
631.459	17058.04
631.653	17111.29
631.848	16804.1
632.042	16883.97
632.236	16922.88
632.43	16564.48
632.624	16615.68
632.818	16513.28
633.012	16285.96
633.206	16175.37
633.4	16228.62
633.594	16214.28
633.788	16408.84
633.982	16245
634.176	15948.04
634.369	15726.86
634.563	15747.34
634.757	15606.03
634.951	15634.71
635.145	15751.44
635.339	15446.29
635.533	15302.93
635.726	15210.78
635.92	15286.55
636.114	15372.57
636.308	14973.21
636.501	15194.39
636.695	14967.07
636.889	14719.26
637.083	14913.82
637.276	14696.74
637.47	14524.71
637.664	14418.21
637.857	14745.89
638.051	14567.71
638.244	14373.16
638.438	14227.75
638.632	14088.49
638.825	13934.89
639.019	13934.89
639.212	13812.01
639.406	14020.91
639.599	13867.31
639.793	13685.04
639.986	13556.02
640.18	13693.23
640.373	13615.41
640.567	13168.95
640.76	13381.94
640.954	13359.41
641.147	13166.9
641.34	13326.64
641.534	12884.28
641.727	12833.08
641.92	12863.8
642.114	12650.81
642.307	12761.41
642.5	12579.14
642.694	12486.98
642.887	12454.21
643.08	12708.16
643.273	12368.2
643.467	12382.53
643.66	12519.74
643.853	12230.98
644.046	12071.24
644.239	12110.15
644.432	12020.04
644.626	11936.07
644.819	11895.11
645.012	11721.04
645.205	11809.1
645.398	11792.72
645.591	11397.46
645.784	11618.64
645.977	11493.71
646.17	11368.79
646.363	11524.43
646.556	11282.77
646.749	11262.29
646.942	11356.5
647.135	11209.04
647.328	10996.06
647.521	11139.41
647.714	11016.54
647.907	10752.35
648.099	10789.21
648.292	10783.07
648.485	10672.48
648.678	10713.44
648.871	10658.14
649.064	10672.48
649.256	10719.58
649.449	10436.96
649.642	10557.79
649.835	10291.55
650.027	10248.55
650.22	10269.03
650.413	10097
650.605	10166.63
650.798	10031.46
650.991	10119.53
651.183	9945.45
651.376	9875.82
651.568	9834.86
651.761	9748.84
651.954	9808.23
652.146	9830.76
652.339	9943.4
652.531	9533.81
652.724	9714.03
652.916	9595.25
653.109	9412.98
653.301	9591.15
653.494	9333.11
653.686	9333.11
653.879	9324.91
654.071	9251.19
654.263	8982.9
654.456	9128.31
654.648	9132.4
654.84	8905.08
655.033	8733.05
655.225	8980.85
655.417	8882.55
655.61	8833.4
655.802	8821.11
655.994	8632.7
656.186	8864.12
656.379	8733.05
656.571	8391.04
656.763	8485.25
656.955	8630.65
657.148	8520.06
657.34	8573.31
657.532	8427.9
657.724	8403.33
657.916	8364.42
658.108	8198.53
658.3	8214.91
658.492	8063.36
658.684	8145.28
658.876	8143.24
659.068	8092.04
659.26	7952.77
659.452	7942.53
659.644	8008.07
659.836	7782.79
660.028	7930.25
660.22	7674.25
660.412	7811.46
660.604	7651.72
660.796	7764.36
660.988	7539.08
661.18	7432.59
661.372	7545.23
661.563	7596.43
661.755	7422.35
661.947	7461.26
662.139	7485.84
662.331	7264.66
662.522	7311.76
662.714	7283.09
662.906	7096.72
663.097	7203.22
663.289	7223.7
663.481	7248.27
663.673	7219.6
663.864	6908.31
664.056	7119.25
664.247	7043.48
664.439	6932.89
664.631	6812.06
664.822	6928.79
665.014	6973.85
665.205	6945.17
665.397	6758.81
665.588	6781.34
665.78	6719.9
665.971	6605.21
666.163	6664.6
666.354	6666.65
666.546	6568.35
666.737	6433.18
666.929	6392.22
667.12	6437.28
667.311	6465.95
667.503	6474.14
667.694	6513.05
667.885	6404.51
668.077	6273.44
668.268	6273.44
668.459	6277.54
668.651	6330.78
668.842	6234.53
669.033	6113.7
669.224	6052.26
669.416	6103.46
669.607	6168.99
669.798	5945.77
669.989	6072.74
670.18	6056.36
670.371	6033.83
670.563	5958.05
670.754	5962.15
670.945	5874.09
671.136	5970.34
671.327	5757.35
671.518	5839.27
671.709	5872.04
671.9	5869.99
672.091	5693.87
672.282	5560.75
672.473	5685.67
672.664	5704.1
672.855	5685.67
673.046	5634.47
673.237	5753.26
673.428	5540.27
673.619	5558.7
673.809	5441.96
674	5546.41
674.191	5396.91
674.382	5349.81
674.573	5425.58
674.764	5360.05
674.954	5499.31
675.145	5300.66
675.336	5470.64
675.527	5444.01
675.717	5200.3
675.908	5433.77
676.099	5292.46
676.289	5235.12
676.48	5333.42
676.671	5192.11
676.861	5314.99
677.052	5351.85
677.243	5134.77
677.433	5142.96
677.624	5202.35
677.814	5118.39
678.005	5116.34
678.195	5132.72
678.386	5020.08
678.576	4895.16
678.767	5079.47
678.957	5110.19
679.148	4962.74
679.338	5065.14
679.529	4897.21
679.719	4850.1
679.909	4964.79
680.1	4903.35
680.29	5077.43
680.481	5048.75
680.671	4884.92
680.861	4825.53
681.052	4774.33
681.242	4749.75
681.432	4819.38
681.622	4950.45
681.813	4774.33
682.003	4809.14
682.193	4766.14
682.383	4684.22
682.573	4688.31
682.764	4846.01
682.954	4753.85
683.144	4671.93
683.334	4649.4
683.524	4524.47
683.714	4759.99
683.904	4598.2
684.094	4776.38
684.284	4645.31
684.474	4678.07
684.664	4637.11
684.854	4622.78
685.044	4530.62
685.234	4487.61
685.424	4399.55
685.614	4547
685.804	4514.24
685.994	4479.42
686.184	4428.22
686.374	4440.51
686.564	4366.78
686.753	4245.95
686.943	4311.49
687.133	4334.01
687.323	4362.69
687.513	4233.66
687.702	4325.82
687.892	4360.64
688.082	4282.81
688.272	4260.29
688.461	4192.7
688.651	4299.2
688.841	4354.49
689.03	4096.45
689.22	4233.66
689.41	4209.09
689.599	4184.51
689.789	4225.47
689.979	4243.9
690.168	4172.22
690.358	4106.69
690.547	4155.84
690.737	3926.47
690.926	4086.21
691.116	3928.52
691.305	4174.27
691.495	3932.61
691.684	3951.04
691.874	3953.09
692.063	4008.39
692.252	3713.48
692.442	3897.8
692.631	3801.54
692.82	3953.09
693.01	3799.49
693.199	3785.16
693.388	3766.73
693.578	3860.93
693.767	3693
693.956	3701.19
694.146	3850.69
694.335	3809.73
694.524	3848.65
694.713	3738.05
694.902	3785.16
695.092	3877.32
695.281	3623.37
695.47	3703.24
695.659	3666.38
695.848	3672.52
696.037	3623.37
696.226	3717.58
696.415	3750.34
696.604	3725.77
696.793	3592.65
696.982	3611.08
697.171	3697.1
697.36	3699.14
697.549	3756.49
697.738	3498.44
697.927	3553.74
698.116	3555.79
698.305	3611.08
698.494	3488.2
698.683	3555.79
698.872	3561.93
699.061	3514.83
699.25	3580.36
699.438	3594.7
699.627	3543.5
699.816	3635.66
700.005	3475.91
700.193	3480.01
700.382	3629.51
700.571	3561.93
700.76	3394
700.948	3316.17
701.137	3361.23
701.326	3422.67
701.514	3494.35
701.703	3457.48
701.892	3275.21
702.08	3496.39
702.269	3527.11
702.457	3316.17
702.646	3381.71
702.834	3387.85
703.023	3430.86
703.212	3387.85
703.4	3432.91
703.589	3269.07
703.777	3396.04
703.965	3340.75
704.154	3264.97
704.342	3217.87
704.531	3449.29
704.719	3144.14
704.907	3232.21
705.096	3334.61
705.284	3242.45
705.472	3203.54
705.661	3226.06
705.849	3340.75
706.037	3277.26
706.226	3324.37
706.414	3191.25
706.602	3199.44
706.79	3371.47
706.979	3324.37
707.167	3131.86
707.355	3099.09
707.543	3076.56
707.731	3078.61
707.919	3131.86
708.107	3181.01
708.296	3121.62
708.484	3119.57
708.672	3033.55
708.86	3209.68
709.048	3090.9
709.236	3094.99
709.424	2968.02
709.612	3107.28
709.8	3025.36
709.988	3019.22
710.176	3086.8
710.364	2902.48
710.551	3031.51
710.739	2908.63
710.927	2941.4
711.115	2994.64
711.303	3103.18
711.491	2937.3
711.679	2875.86
711.866	2849.24
712.054	3068.37
712.242	2961.87
712.43	2980.31
712.617	3051.99
712.805	2953.68
712.993	2900.44
713.181	2857.43
713.368	2865.62
713.556	2777.56
713.744	2877.91
713.931	2988.5
714.119	2861.52
714.306	2771.41
714.494	2818.52
714.682	2804.18
714.869	2996.69
715.057	2857.43
715.244	2783.7
715.432	2793.94
715.619	2853.33
715.807	2664.92
715.994	2810.33
716.182	2693.59
716.369	2816.47
716.556	2802.13
716.744	2728.41
716.931	2750.93
717.119	2685.4
717.306	2707.93
717.493	2701.78
717.681	2761.17
717.868	2738.65
718.055	2660.82
718.242	2664.92
718.43	2681.3
718.617	2662.87
718.804	2539.99
718.991	2689.49
719.179	2669.02
719.366	2685.4
719.553	2546.14
719.74	2566.62
719.927	2542.04
720.114	2523.61
720.301	2578.9
720.488	2554.33
720.676	2515.42
720.863	2595.29
721.05	2652.63
721.237	2578.9
721.424	2580.95
721.611	2554.33
721.798	2480.6
721.985	2546.14
722.172	2478.55
722.358	2447.83
722.545	2460.12
722.732	2513.37
722.919	2615.77
723.106	2400.73
723.293	2433.5
723.48	2466.27
723.667	2437.59
723.853	2464.22
724.04	2480.6
724.227	2478.55
724.414	2505.18
724.6	2482.65
724.787	2415.07
724.974	2437.59
725.161	2343.39
725.347	2341.34
725.534	2398.68
725.72	2304.48
725.907	2322.91
726.094	2558.42
726.28	2226.65
726.467	2275.81
726.653	2306.52
726.84	2322.91
727.027	2343.39
727.213	2161.12
727.4	2347.48
727.586	2275.81
727.773	2365.92
727.959	2269.66
728.145	2394.59
728.332	2234.85
728.518	2200.03
728.705	2357.72
728.891	2286.05
729.077	2144.74
729.264	2208.22
729.45	2318.81
729.636	2206.17
729.823	2226.65
730.009	2169.31
730.195	2165.21
730.382	2204.13
730.568	2279.9
730.754	2173.41
730.94	2130.4
731.126	2243.04
731.313	2202.08
731.499	2230.75
731.685	2126.3
731.871	2238.94
732.057	2267.61
732.243	2185.69
732.429	2062.82
732.615	2263.52
732.801	2148.83
732.987	2089.44
733.173	2071.01
733.359	2116.06
733.545	2128.35
733.731	2107.87
733.917	2140.64
734.103	1974.75
734.289	2040.29
734.475	2095.58
734.661	2054.62
734.847	2040.29
735.033	2087.39
735.219	2058.72
735.404	2120.16
735.59	2046.43
735.776	2023.91
735.962	1954.27
736.148	2128.35
736.333	2056.67
736.519	2054.62
736.705	2054.62
736.89	2044.38
737.076	2111.97
737.262	1888.74
737.447	1948.13
737.633	1827.3
737.819	1999.33
738.004	2071.01
738.19	2093.54
738.375	1989.09
738.561	2099.68
738.747	2046.43
738.932	1890.79
739.118	1964.51
739.303	1919.46
739.489	1997.28
739.674	1921.51
739.859	1804.77
740.045	1870.31
740.23	1782.24
740.416	1845.73
740.601	1915.36
740.786	1825.25
740.972	1810.92
741.157	1878.5
741.342	1800.68
741.528	1862.12
741.713	1839.59
741.898	1837.54
742.084	1864.16
742.269	1819.11
742.454	1792.48
742.639	1739.24
742.824	1884.64
743.01	1718.76
743.195	1792.48
743.38	1698.28
743.565	1657.32
743.75	1708.52
743.935	1610.22
744.12	1763.81
744.305	1661.41
744.49	1810.92
744.675	1685.99
744.86	1677.8
745.045	1692.13
745.23	1739.24
745.415	1645.03
745.6	1710.57
745.785	1567.21
745.97	1642.98
746.155	1606.12
746.34	1677.8
746.525	1647.08
746.71	1624.55
746.895	1550.82
747.079	1538.54
747.264	1589.74
747.449	1550.82
747.634	1524.2
747.819	1581.54
748.003	1489.39
748.188	1501.67
748.373	1559.02
748.557	1511.91
748.742	1489.39
748.927	1499.63
749.111	1440.23
749.296	1495.53
749.481	1446.38
749.665	1331.69
749.85	1427.95
750.034	1493.48
750.219	1386.99
750.404	1309.16
750.588	1305.07
750.773	1354.22
750.957	1337.84
751.141	1362.41
751.326	1317.36
751.51	1384.94
751.695	1284.59
751.879	1358.32
752.064	1327.6
752.248	1350.12
752.432	1376.75
752.617	1360.36
752.801	1292.78
752.985	1186.29
753.17	1280.49
753.354	1300.97
753.538	1221.1
753.722	1167.85
753.907	1190.38
754.091	1161.71
754.275	1325.55
754.459	1161.71
754.643	1114.61
754.828	1257.96
755.012	1210.86
755.196	1139.18
755.38	1217.01
755.564	1268.2
755.748	1178.09
755.932	1155.57
756.116	1098.22
756.3	1092.08
756.484	1032.69
756.668	1024.5
756.852	1077.74
757.036	1165.81
757.22	1098.22
757.404	1065.46
757.588	1036.78
757.772	1137.13
757.956	1116.65
758.14	1106.42
758.323	926.19
758.507	1104.37
758.691	969.2
758.875	956.91
759.059	1071.6
759.242	985.58
759.426	989.68
759.61	948.72
759.794	973.3
759.977	967.15
760.161	997.87
760.345	926.19
760.528	907.76
760.712	940.53
760.895	915.95
761.079	977.39
761.263	897.52
761.446	930.29
761.63	991.73
761.813	907.76
761.997	905.71
762.18	909.81
762.364	940.53
762.547	918
762.731	877.04
762.914	868.85
763.098	836.08
763.281	834.04
763.464	811.51
763.648	936.43
763.831	817.65
764.015	791.03
764.198	770.55
764.381	877.04
764.564	825.84
764.748	819.7
764.931	829.94
765.114	827.89
765.297	883.19
765.481	760.31
765.664	788.98
765.847	852.47
766.03	784.88
766.213	711.16
766.397	743.92
766.58	801.27
766.763	809.46
766.946	723.44
767.129	899.57
767.312	752.12
767.495	821.75
767.678	852.47
767.861	809.46
768.044	782.84
768.227	827.89
768.41	727.54
768.593	786.93
768.776	731.64
768.959	805.36
769.142	807.41
769.324	715.25
769.507	819.7
769.69	776.69
769.873	745.97
770.056	754.16
770.239	707.06
770.421	743.92
770.604	645.62
770.787	729.59
770.97	688.63
771.152	745.97
771.335	727.54
771.518	748.02
771.7	686.58
771.883	756.21
772.066	707.06
772.248	670.2
772.431	645.62
772.613	680.44
772.796	674.29
772.978	625.14
773.161	705.01
773.343	621.05
773.526	647.67
773.708	678.39
773.891	580.09
774.073	711.16
774.256	711.16
774.438	729.59
774.621	580.09
774.803	575.99
774.985	588.28
775.168	619
775.35	590.33
775.532	639.48
775.715	682.49
775.897	518.65
776.079	563.7
776.261	612.85
776.444	549.37
776.626	588.28
776.808	629.24
776.99	526.84
777.173	498.17
777.355	500.22
777.537	598.52
777.719	619
777.901	590.33
778.083	535.03
778.265	578.04
778.447	612.85
778.629	528.89
778.811	606.71
778.993	465.4
779.175	610.81
779.357	430.59
779.539	565.75
779.721	526.84
779.903	502.26
780.085	498.17
780.267	588.28
780.449	418.3
780.631	588.28
780.812	446.97
780.994	500.22
781.176	494.07
781.358	412.15
781.54	406.01
781.721	459.26
781.903	516.6
782.085	489.98
782.267	465.4
782.448	416.25
782.63	406.01
782.812	469.5
782.993	426.49
783.175	360.95
783.357	492.02
783.538	379.39
783.72	367.1
783.901	475.64
784.083	369.15
784.264	412.15
784.446	305.66
784.627	406.01
784.809	379.39
784.99	350.71
785.172	395.77
785.353	399.87
785.535	424.44
785.716	344.57
785.897	358.91
786.079	391.67
786.26	391.67
786.441	397.82
786.623	276.99
786.804	350.71
786.985	317.95
787.167	399.87
787.348	387.58
787.529	334.33
787.71	393.72
787.891	317.95
788.073	395.77
788.254	350.71
788.435	338.43
788.616	377.34
788.797	342.52
788.978	367.1
789.159	363
789.34	451.07
789.522	291.32
789.703	264.7
789.884	285.18
790.065	303.61
790.246	358.91
790.427	334.33
790.607	375.29
790.788	285.18
790.969	256.51
791.15	293.37
791.331	307.71
791.512	236.03
791.693	236.03
791.874	227.84
792.054	346.62
792.235	317.95
792.416	295.42
792.597	262.65
792.778	334.33
792.958	344.57
793.139	248.32
793.32	334.33
793.5	276.99
793.681	303.61
793.862	229.88
794.042	303.61
794.223	254.46
794.404	262.65
794.584	178.69
794.765	221.69
794.945	233.98
795.126	322.04
795.306	188.93
795.487	170.49
795.667	295.42
795.848	252.41
796.028	276.99
796.209	254.46
796.389	274.94
796.57	240.12
796.75	207.36
796.93	268.8
797.111	270.84
797.291	250.36
797.471	242.17
797.652	197.12
797.832	150.01
798.012	262.65
798.192	201.21
798.373	248.32
798.553	135.68
798.733	225.79
798.913	180.73
799.093	170.49
799.274	195.07
799.454	240.12
799.634	178.69
799.814	225.79
799.994	242.17
800.174	217.6
800.354	150.01
800.534	197.12
800.714	211.45
800.894	238.08
801.074	182.78
801.254	182.78
801.434	178.69
801.614	88.57
801.794	174.59
801.974	696.82
802.154	172.54
802.334	221.69
802.514	203.26
802.693	236.03
802.873	88.57
803.053	219.64
803.233	162.3
803.413	227.84
803.592	172.54
803.772	174.59
803.952	203.26
804.131	90.62
804.311	211.45
804.491	193.02
804.67	188.93
804.85	88.57
805.03	133.63
805.209	199.16
805.389	215.55
805.568	133.63
805.748	172.54
805.928	147.97
806.107	180.73
806.287	162.3
806.466	131.58
806.646	285.18
806.825	199.16
807.004	143.87
807.184	150.01
807.363	162.3
807.543	92.67
807.722	104.96
807.901	233.98
808.081	178.69
808.26	84.48
808.439	176.64
808.619	178.69
808.798	164.35
808.977	90.62
809.156	211.45
809.336	150.01
809.515	147.97
809.694	113.15
809.873	96.77
810.052	170.49
810.231	162.3
810.411	186.88
810.59	117.25
810.769	133.63
810.948	166.4
811.127	96.77
811.306	51.71
811.485	182.78
811.664	174.59
811.843	129.53
812.022	154.11
812.201	125.44
812.38	72.19
812.559	78.33
812.737	137.73
812.916	131.58
813.095	125.44
813.274	119.29
813.453	74.24
813.632	166.4
813.811	178.69
813.989	80.38
814.168	147.97
814.347	121.34
814.526	123.39
814.704	100.86
814.883	115.2
815.062	145.92
815.24	92.67
815.419	72.19
815.598	154.11
815.776	82.43
815.955	178.69
816.133	82.43
816.312	18.94
816.49	96.77
816.669	107.01
816.847	49.66
817.026	125.44
817.204	147.97
817.383	55.81
817.561	96.77
817.74	168.45
817.918	162.3
818.097	121.34
818.275	78.33
818.453	96.77
818.632	25.09
818.81	127.49
818.988	168.45
819.167	172.54
819.345	102.91
819.523	129.53
819.701	107.01
819.879	84.48
820.058	66.05
820.236	131.58
820.414	88.57
820.592	18.94
820.77	98.81
820.948	98.81
821.127	51.71
821.305	82.43
821.483	47.62
821.661	113.15
821.839	27.14
822.017	31.23
822.195	68.09
822.373	113.15
822.551	129.53
822.729	121.34
822.907	43.52
823.085	139.77
823.262	82.43
823.44	90.62
823.618	64
823.796	109.05
823.974	115.2
824.152	33.28
824.329	90.62
824.507	49.66
824.685	41.47
824.863	35.33
825.04	64
825.218	158.21
825.396	49.66
825.574	90.62
825.751	104.96
825.929	49.66
826.107	88.57
826.284	64
826.462	92.67
826.639	74.24
826.817	23.04
826.994	84.48
827.172	57.86
827.349	64
827.527	125.44
827.704	88.57
827.882	100.86
828.059	96.77
828.237	41.47
828.414	66.05
828.591	25.09
828.769	88.57
828.946	31.23
829.124	23.04
829.301	92.67
829.478	107.01
829.655	166.4
829.833	121.34
830.01	29.18
830.187	68.09
830.364	96.77
830.542	115.2
830.719	31.23
830.896	141.82
831.073	47.62
831.25	61.95
831.427	51.71
831.604	55.81
831.782	55.81
831.959	8.7
832.136	154.11
832.313	41.47
832.49	107.01
832.667	90.62
832.844	31.23
833.021	109.05
833.198	90.62
833.374	88.57
833.551	88.57
833.728	74.24
833.905	92.67
834.082	18.94
834.259	64
834.436	96.77
834.612	-26.11
834.789	98.81
834.966	39.42
835.143	39.42
835.319	10.75
835.496	82.43
835.673	-1.54
835.85	47.62
836.026	59.9
836.203	-1.54
836.38	37.38
836.556	27.14
836.733	70.14
836.909	80.38
837.086	43.52
837.262	16.9
837.439	20.99
837.616	-17.92
837.792	41.47
837.968	35.33
838.145	0.51
838.321	64
838.498	18.94
838.674	29.18
838.851	41.47
839.027	6.66
839.203	41.47
839.38	88.57
839.556	80.38
839.732	16.9
839.909	27.14
840.085	125.44
840.261	-15.87
840.437	33.28
840.614	-7.68
840.79	20.99
840.966	-1.54
841.142	104.96
841.318	74.24
841.494	80.38
841.671	53.76
841.847	82.43
842.023	23.04
842.199	-13.82
842.375	2.56
842.551	-1.54
842.727	-1.54
842.903	74.24
843.079	29.18
843.255	227.84
843.431	-26.11
843.607	-77.31
843.783	-44.54
843.959	-9.73
844.134	35.33
844.31	14.85
844.486	41.47
844.662	84.48
844.838	-17.92
845.013	25.09
845.189	-22.02
845.365	25.09
845.541	31.23
845.716	-1.54
845.892	66.05
846.068	-34.3
846.244	6.66
846.419	-24.06
846.595	57.86
846.77	6.66
846.946	33.28
847.122	-1.54
847.297	88.57
847.473	-17.92
847.648	-54.78
847.824	33.28
847.999	16.9
848.175	39.42
848.35	33.28
848.526	6.66
848.701	47.62
848.876	25.09
849.052	-26.11
849.227	6.66
849.403	57.86
849.578	10.75
849.753	12.8
849.929	84.48
850.104	-32.26
850.279	-1.54
850.454	-5.63
850.63	25.09
850.805	-9.73
850.98	31.23
851.155	35.33
851.33	84.48
851.505	8.7
851.681	31.23
851.856	-30.21
852.031	-60.93
852.206	-28.16
852.381	37.38
852.556	119.29
852.731	39.42
852.906	88.57
853.081	14.85
853.256	74.24
853.431	6.66
853.606	-1.54
853.781	47.62
853.956	23.04
854.131	2.56
854.305	-34.3
854.48	-26.11
854.655	41.47
854.83	-9.73
855.005	-65.02
855.18	88.57
855.354	55.81
855.529	-48.64
855.704	20.99
855.879	-67.07
856.053	-40.45
856.228	113.15
856.403	-48.64
856.577	-9.73
856.752	39.42
856.926	-9.73
857.101	53.76
857.276	-9.73
857.45	-13.82
857.625	-15.87
857.799	-42.5
857.974	-5.63
858.148	-56.83
858.323	70.14
858.497	51.71
858.672	-34.3
858.846	-11.78
859.02	39.42
859.195	-9.73
859.369	8.7
859.543	10.75
859.718	-17.92
859.892	82.43
860.066	6.66
860.241	-13.82
860.415	6.66
860.589	-13.82
860.763	27.14
860.938	0.51
861.112	-34.3
861.286	-13.82
861.46	47.62
861.634	12.8
861.808	23.04
861.982	14.85
862.157	-3.58
862.331	-30.21
862.505	-54.78
862.679	-26.11
862.853	-108.03
863.027	12.8
863.201	35.33
863.375	74.24
863.549	-54.78
863.722	8.7
863.896	-11.78
864.07	-32.26
864.244	27.14
864.418	14.85
864.592	35.33
864.766	-32.26
864.939	8.7
865.113	33.28
865.287	25.09
865.461	-62.98
865.634	55.81
865.808	-38.4
865.982	-56.83
866.156	-34.3
866.329	-99.84
866.503	-79.36
866.676	4.61
866.85	10.75
867.024	0.51
867.197	29.18
867.371	68.09
867.544	4.61
867.718	4.61
867.891	35.33
868.065	-56.83
868.238	23.04
868.412	43.52
868.585	18.94
868.759	-36.35
868.932	31.23
869.105	25.09
869.279	59.9
869.452	-48.64
869.625	98.81
869.799	25.09
869.972	-17.92
870.145	-52.74
870.319	49.66
870.492	-7.68
870.665	57.86
870.838	-24.06
871.011	-79.36
871.185	-58.88
871.358	-50.69
871.531	-13.82
871.704	6.66
871.877	39.42
872.05	-24.06
872.223	41.47
872.396	-28.16
872.569	-24.06
872.742	-22.02
872.915	72.19
873.088	4.61
873.261	-22.02
873.434	-32.26
873.607	88.57
873.78	33.28
873.953	31.23
874.126	-9.73
874.299	-1.54
874.471	-56.83
874.644	-54.78
874.817	-15.87
874.99	68.09
875.163	10.75
875.335	4.61
875.508	-75.26
875.681	90.62
875.853	-17.92
876.026	-60.93
876.199	55.81
876.371	27.14
876.544	-11.78
876.717	25.09
876.889	-17.92
877.062	14.85
877.234	0.51
877.407	25.09
877.579	6.66
877.752	76.29
877.924	43.52
878.097	-22.02
878.269	64
878.442	8.7
878.614	-42.5
878.786	66.05
878.959	-1.54
879.131	39.42
879.303	82.43
879.476	66.05
879.648	-42.5
879.82	0.51
879.993	-28.16
880.165	-50.69
880.337	-50.69
880.509	-1.54
880.681	35.33
880.854	-22.02
881.026	92.67
881.198	39.42
881.37	117.25
881.542	31.23
881.714	-34.3
881.886	-56.83
882.058	27.14
882.23	-1.54
882.402	-17.92
882.574	-1.54
882.746	23.04
882.918	96.77
883.09	80.38
883.262	35.33
883.434	-13.82
883.606	-22.02
883.778	41.47
883.95	2.56
884.122	14.85
884.293	35.33
884.465	-17.92
884.637	41.47
884.809	0.51
884.98	76.29
885.152	0.51
885.324	55.81
885.496	25.09
885.667	-36.35
885.839	-17.92
886.011	43.52
886.182	-38.4
886.354	41.47
886.525	2.56
886.697	61.95
886.869	-34.3
887.04	-50.69
887.212	-42.5
887.383	96.77
887.555	2.56
887.726	-13.82
887.897	-65.02
888.069	35.33
888.24	66.05
888.412	-46.59
888.583	-22.02
888.754	55.81
888.926	-34.3
889.097	29.18
889.268	-26.11
889.44	74.24
889.611	-79.36
889.782	-36.35
889.953	57.86
890.125	57.86
890.296	-13.82
890.467	-62.98
890.638	-22.02
890.809	57.86
890.98	-97.79
891.151	-1.54
891.323	55.81
891.494	-32.26
891.665	47.62
891.836	-26.11
892.007	-67.07
892.178	6.66
892.349	14.85
892.52	2.56
892.691	55.81
892.862	-54.78
893.032	-9.73
893.203	-56.83
893.374	-67.07
893.545	-24.06
893.716	-1.54
893.887	-17.92
894.057	-26.11
894.228	-5.63
894.399	-34.3
894.57	-13.82
894.74	55.81
894.911	-40.45
895.082	-58.88
895.253	-50.69
895.423	-13.82
895.594	14.85
895.764	-15.87
895.935	-7.68
896.106	-22.02
896.276	8.7
896.447	-1.54
896.617	-28.16
896.788	-48.64
896.958	-9.73
897.129	-13.82
897.299	-52.74
897.47	-34.3
897.64	33.28
897.81	-7.68
897.981	-26.11
898.151	0.51
898.322	18.94
898.492	-15.87
898.662	-65.02
898.832	-54.78
899.003	-65.02
899.173	41.47
899.343	-73.21
899.513	-50.69
