Data from USB4F104151__299__14-24-01-031.txt Node

Date: Thu Mar 13 14:24:01 EDT 2025
User: louis
Spectrometer: USB4F10415
Trigger mode: 4
Integration Time (sec): 2.000000E-2
Scans to average: 1
Electric dark correction enabled: true
Nonlinearity correction enabled: false
Boxcar width: 0
XAxis mode: Wavelengths
Number of Pixels in Spectrum: 3648
>>>>>Begin Spectral Data<<<<<
178.204	-64.17
178.424	-64.17
178.644	-64.17
178.864	-121.51
179.084	-135.85
179.304	-88.75
179.524	-39.59
179.744	-19.11
179.964	66.9
180.184	-17.07
180.404	-39.59
180.624	60.76
180.844	44.37
181.064	-2.73
181.283	-15.02
181.503	1.37
181.723	48.47
181.943	17.75
182.163	58.71
182.383	-23.21
182.602	91.48
182.822	95.57
183.042	40.28
183.262	-23.21
183.482	42.32
183.701	44.37
183.921	62.8
184.141	46.42
184.361	93.52
184.58	3.41
184.8	30.04
185.02	32.08
185.239	54.61
185.459	58.71
185.679	54.61
185.898	-39.59
186.118	83.28
186.338	54.61
186.557	107.86
186.777	-15.02
186.997	17.75
187.216	38.23
187.436	25.94
187.655	50.52
187.875	91.48
188.095	40.28
188.314	71
188.534	58.71
188.753	-31.4
188.973	66.9
189.192	97.62
189.412	19.8
189.631	25.94
189.851	99.67
190.07	58.71
190.29	-15.02
190.509	-10.92
190.729	54.61
190.948	42.32
191.168	126.29
191.387	68.95
191.607	36.18
191.826	46.42
192.045	-19.11
192.265	34.13
192.484	9.56
192.704	7.51
192.923	50.52
193.142	42.32
193.362	81.24
193.581	52.56
193.8	34.13
194.02	68.95
194.239	36.18
194.458	27.99
194.678	-6.83
194.897	17.75
195.116	27.99
195.335	99.67
195.555	73.04
195.774	-51.88
195.993	23.89
196.212	79.19
196.432	-47.79
196.651	71
196.87	25.94
197.089	99.67
197.308	71
197.528	38.23
197.747	11.61
197.966	1.37
198.185	107.86
198.404	-12.97
198.623	40.28
198.842	50.52
199.062	-21.16
199.281	46.42
199.5	3.41
199.719	21.85
199.938	75.09
200.157	17.75
200.376	-6.83
200.595	-6.83
200.814	-53.93
201.033	-78.51
201.252	58.71
201.471	120.15
201.69	27.99
201.909	21.85
202.128	85.33
202.347	66.9
202.566	52.56
202.785	-31.4
203.004	48.47
203.223	66.9
203.442	-4.78
203.661	62.8
203.879	-27.31
204.098	25.94
204.317	42.32
204.536	68.95
204.755	-0.68
204.974	42.32
205.193	122.2
205.411	85.33
205.63	46.42
205.849	34.13
206.068	58.71
206.287	15.7
206.505	107.86
206.724	93.52
206.943	27.99
207.162	46.42
207.381	3.41
207.599	73.04
207.818	-4.78
208.037	34.13
208.255	11.61
208.474	85.33
208.693	58.71
208.911	44.37
209.13	-8.87
209.349	34.13
209.567	-2.73
209.786	77.14
210.005	40.28
210.223	60.76
210.442	34.13
210.661	58.71
210.879	15.7
211.098	91.48
211.316	40.28
211.535	-8.87
211.753	91.48
211.972	38.23
212.191	-47.79
212.409	30.04
212.628	25.94
212.846	-15.02
213.065	44.37
213.283	83.28
213.502	3.41
213.72	75.09
213.938	-55.98
214.157	7.51
214.375	58.71
214.594	50.52
214.812	83.28
215.031	68.95
215.249	44.37
215.467	-27.31
215.686	9.56
215.904	34.13
216.122	17.75
216.341	9.56
216.559	9.56
216.778	36.18
216.996	140.63
217.214	9.56
217.432	95.57
217.651	9.56
217.869	79.19
218.087	34.13
218.306	13.65
218.524	66.9
218.742	9.56
218.96	1.37
219.179	-8.87
219.397	91.48
219.615	81.24
219.833	17.75
220.051	17.75
220.27	50.52
220.488	58.71
220.706	38.23
220.924	3.41
221.142	-4.78
221.36	21.85
221.578	-6.83
221.796	-15.02
222.015	60.76
222.233	-39.59
222.451	75.09
222.669	-45.74
222.887	66.9
223.105	-4.78
223.323	46.42
223.541	-10.92
223.759	32.08
223.977	-39.59
224.195	126.29
224.413	1.37
224.631	11.61
224.849	21.85
225.067	95.57
225.285	30.04
225.503	19.8
225.721	17.75
225.939	30.04
226.157	105.81
226.375	13.65
226.592	19.8
226.81	17.75
227.028	21.85
227.246	101.72
227.464	46.42
227.682	124.24
227.9	44.37
228.117	21.85
228.335	7.51
228.553	32.08
228.771	25.94
228.989	52.56
229.206	40.28
229.424	79.19
229.642	1.37
229.86	-6.83
230.077	107.86
230.295	1.37
230.513	60.76
230.731	89.43
230.948	-6.83
231.166	91.48
231.384	68.95
231.601	25.94
231.819	58.71
232.037	-6.83
232.254	17.75
232.472	25.94
232.689	19.8
232.907	66.9
233.125	-2.73
233.342	17.75
233.56	-6.83
233.777	5.46
233.995	58.71
234.213	36.18
234.43	9.56
234.648	11.61
234.865	13.65
235.083	66.9
235.3	105.81
235.518	5.46
235.735	56.66
235.953	64.85
236.17	58.71
236.388	-15.02
236.605	-15.02
236.822	34.13
237.04	25.94
237.257	60.76
237.475	-51.88
237.692	27.99
237.909	-4.78
238.127	-10.92
238.344	73.04
238.562	13.65
238.779	11.61
238.996	75.09
239.214	19.8
239.431	50.52
239.648	32.08
239.865	54.61
240.083	-64.17
240.3	11.61
240.517	-2.73
240.735	62.8
240.952	99.67
241.169	-47.79
241.386	38.23
241.603	1.37
241.821	-31.4
242.038	25.94
242.255	21.85
242.472	54.61
242.689	68.95
242.907	71
243.124	27.99
243.341	107.86
243.558	50.52
243.775	17.75
243.992	1.37
244.209	50.52
244.426	58.71
244.643	75.09
244.86	66.9
245.078	1.37
245.295	5.46
245.512	34.13
245.729	42.32
245.946	-15.02
246.163	17.75
246.38	116.05
246.597	17.75
246.814	25.94
247.031	79.19
247.248	66.9
247.464	54.61
247.681	87.38
247.898	48.47
248.115	40.28
248.332	-15.02
248.549	107.86
248.766	83.28
248.983	44.37
249.2	-17.07
249.417	81.24
249.633	30.04
249.85	38.23
250.067	75.09
250.284	50.52
250.501	95.57
250.717	44.37
250.934	1.37
251.151	-43.69
251.368	-51.88
251.585	91.48
251.801	9.56
252.018	-4.78
252.235	15.7
252.451	27.99
252.668	9.56
252.885	68.95
253.102	21.85
253.318	-10.92
253.535	52.56
253.752	46.42
253.968	19.8
254.185	17.75
254.401	-39.59
254.618	38.23
254.835	-6.83
255.051	44.37
255.268	34.13
255.484	38.23
255.701	58.71
255.917	66.9
256.134	62.8
256.351	19.8
256.567	30.04
256.784	66.9
257	1.37
257.217	-25.26
257.433	111.96
257.65	66.9
257.866	83.28
258.082	118.1
258.299	75.09
258.515	17.75
258.732	-45.74
258.948	97.62
259.165	5.46
259.381	27.99
259.597	-80.55
259.814	52.56
260.03	7.51
260.246	13.65
260.463	42.32
260.679	54.61
260.895	-21.16
261.112	103.76
261.328	42.32
261.544	9.56
261.761	42.32
261.977	9.56
262.193	-31.4
262.409	71
262.626	91.48
262.842	66.9
263.058	-25.26
263.274	58.71
263.49	-60.07
263.707	58.71
263.923	48.47
264.139	52.56
264.355	128.34
264.571	58.71
264.787	36.18
265.004	42.32
265.22	-15.02
265.436	42.32
265.652	75.09
265.868	23.89
266.084	-31.4
266.3	36.18
266.516	-2.73
266.732	-0.68
266.948	34.13
267.164	71
267.38	-15.02
267.596	60.76
267.812	42.32
268.028	68.95
268.244	15.7
268.46	21.85
268.676	7.51
268.892	23.89
269.108	25.94
269.324	40.28
269.54	17.75
269.756	25.94
269.972	-62.12
270.188	17.75
270.403	15.7
270.619	34.13
270.835	15.7
271.051	27.99
271.267	-2.73
271.483	75.09
271.698	64.85
271.914	42.32
272.13	85.33
272.346	19.8
272.562	64.85
272.777	11.61
272.993	83.28
273.209	85.33
273.425	50.52
273.64	-15.02
273.856	36.18
274.072	75.09
274.287	58.71
274.503	3.41
274.719	5.46
274.934	42.32
275.15	27.99
275.366	87.38
275.581	-21.16
275.797	85.33
276.012	5.46
276.228	9.56
276.444	11.61
276.659	54.61
276.875	54.61
277.09	3.41
277.306	21.85
277.521	21.85
277.737	75.09
277.952	52.56
278.168	-6.83
278.383	40.28
278.599	27.99
278.814	3.41
279.03	56.66
279.245	68.95
279.461	75.09
279.676	9.56
279.892	-10.92
280.107	11.61
280.322	85.33
280.538	34.13
280.753	-4.78
280.969	-31.4
281.184	66.9
281.399	50.52
281.615	-10.92
281.83	85.33
282.045	-10.92
282.26	-64.17
282.476	58.71
282.691	5.46
282.906	42.32
283.122	23.89
283.337	68.95
283.552	27.99
283.767	11.61
283.983	46.42
284.198	50.52
284.413	66.9
284.628	-27.31
284.843	1.37
285.058	52.56
285.274	1.37
285.489	-2.73
285.704	73.04
285.919	34.13
286.134	-39.59
286.349	32.08
286.564	11.61
286.779	34.13
286.995	60.76
287.21	50.52
287.425	-10.92
287.64	68.95
287.855	9.56
288.07	-33.45
288.285	54.61
288.5	58.71
288.715	75.09
288.93	58.71
289.145	68.95
289.36	-33.45
289.575	23.89
289.79	21.85
290.004	9.56
290.219	66.9
290.434	44.37
290.649	42.32
290.864	-8.87
291.079	87.38
291.294	89.43
291.509	5.46
291.724	62.8
291.938	17.75
292.153	111.96
292.368	44.37
292.583	34.13
292.798	79.19
293.012	19.8
293.227	21.85
293.442	91.48
293.657	19.8
293.871	107.86
294.086	83.28
294.301	27.99
294.516	122.2
294.73	46.42
294.945	64.85
295.16	34.13
295.374	-10.92
295.589	23.89
295.804	-31.4
296.018	11.61
296.233	87.38
296.447	25.94
296.662	-6.83
296.877	77.14
297.091	50.52
297.306	19.8
297.52	19.8
297.735	60.76
297.949	-25.26
298.164	9.56
298.378	36.18
298.593	5.46
298.807	17.75
299.022	52.56
299.236	34.13
299.451	50.52
299.665	13.65
299.88	75.09
300.094	9.56
300.309	93.52
300.523	66.9
300.737	19.8
300.952	25.94
301.166	50.52
301.381	9.56
301.595	-23.21
301.809	25.94
302.024	66.9
302.238	77.14
302.452	91.48
302.667	30.04
302.881	50.52
303.095	85.33
303.309	91.48
303.524	27.99
303.738	111.96
303.952	21.85
304.166	17.75
304.381	60.76
304.595	21.85
304.809	36.18
305.023	93.52
305.237	25.94
305.452	50.52
305.666	42.32
305.88	42.32
306.094	85.33
306.308	62.8
306.522	13.65
306.736	97.62
306.95	126.29
307.164	30.04
307.379	66.9
307.593	66.9
307.807	54.61
308.021	-12.97
308.235	38.23
308.449	-15.02
308.663	19.8
308.877	93.52
309.091	-2.73
309.305	17.75
309.519	-10.92
309.733	66.9
309.947	-19.11
310.161	25.94
310.374	58.71
310.588	75.09
310.802	15.7
311.016	-29.35
311.23	54.61
311.444	40.28
311.658	42.32
311.872	60.76
312.085	17.75
312.299	134.48
312.513	99.67
312.727	73.04
312.941	-45.74
313.154	99.67
313.368	-35.5
313.582	32.08
313.796	-47.79
314.009	60.76
314.223	118.1
314.437	3.41
314.651	68.95
314.864	34.13
315.078	71
315.292	52.56
315.505	-15.02
315.719	75.09
315.933	83.28
316.146	9.56
316.36	-43.69
316.573	91.48
316.787	68.95
317.001	30.04
317.214	68.95
317.428	136.53
317.641	-64.17
317.855	91.48
318.068	1.37
318.282	81.24
318.495	30.04
318.709	68.95
318.922	9.56
319.136	68.95
319.349	99.67
319.563	1.37
319.776	93.52
319.99	-68.27
320.203	93.52
320.417	54.61
320.63	27.99
320.843	42.32
321.057	-10.92
321.27	66.9
321.483	68.95
321.697	68.95
321.91	25.94
322.124	44.37
322.337	68.95
322.55	36.18
322.763	25.94
322.977	5.46
323.19	-23.21
323.403	27.99
323.617	38.23
323.83	116.05
324.043	-23.21
324.256	66.9
324.469	-12.97
324.683	50.52
324.896	11.61
325.109	34.13
325.322	3.41
325.535	27.99
325.748	75.09
325.962	-10.92
326.175	5.46
326.388	68.95
326.601	62.8
326.814	58.71
327.027	46.42
327.24	101.72
327.453	-19.11
327.666	60.76
327.879	56.66
328.092	1.37
328.305	9.56
328.518	73.04
328.731	7.51
328.944	71
329.157	-4.78
329.37	46.42
329.583	157.01
329.796	85.33
330.009	-21.16
330.222	142.68
330.435	27.99
330.648	89.43
330.861	17.75
331.073	5.46
331.286	9.56
331.499	62.8
331.712	83.28
331.925	46.42
332.138	-19.11
332.35	38.23
332.563	42.32
332.776	99.67
332.989	34.13
333.202	83.28
333.414	44.37
333.627	25.94
333.84	42.32
334.053	89.43
334.265	23.89
334.478	21.85
334.691	95.57
334.903	-21.16
335.116	-53.93
335.329	17.75
335.541	50.52
335.754	44.37
335.966	-37.55
336.179	36.18
336.392	-12.97
336.604	46.42
336.817	75.09
337.029	30.04
337.242	52.56
337.454	99.67
337.667	34.13
337.88	146.77
338.092	99.67
338.305	30.04
338.517	44.37
338.729	83.28
338.942	91.48
339.154	68.95
339.367	-64.17
339.579	83.28
339.792	-12.97
340.004	75.09
340.217	54.61
340.429	27.99
340.641	13.65
340.854	85.33
341.066	101.72
341.278	101.72
341.491	54.61
341.703	54.61
341.915	42.32
342.128	77.14
342.34	46.42
342.552	23.89
342.764	9.56
342.977	44.37
343.189	46.42
343.401	48.47
343.613	-29.35
343.826	71
344.038	30.04
344.25	-2.73
344.462	42.32
344.674	54.61
344.886	21.85
345.099	60.76
345.311	19.8
345.523	38.23
345.735	38.23
345.947	11.61
346.159	66.9
346.371	77.14
346.583	1.37
346.795	124.24
347.007	34.13
347.219	-2.73
347.431	58.71
347.643	142.68
347.855	36.18
348.067	15.7
348.279	-60.07
348.491	38.23
348.703	32.08
348.915	30.04
349.127	-39.59
349.339	91.48
349.551	-15.02
349.763	25.94
349.975	71
350.187	91.48
350.399	124.24
350.61	9.56
350.822	68.95
351.034	25.94
351.246	-41.64
351.458	85.33
351.669	64.85
351.881	91.48
352.093	58.71
352.305	140.63
352.517	60.76
352.728	148.82
352.94	30.04
353.152	50.52
353.363	-23.21
353.575	44.37
353.787	79.19
353.999	75.09
354.21	42.32
354.422	134.48
354.633	58.71
354.845	17.75
355.057	1.37
355.268	50.52
355.48	60.76
355.692	17.75
355.903	73.04
356.115	42.32
356.326	-62.12
356.538	99.67
356.749	9.56
356.961	42.32
357.172	25.94
357.384	11.61
357.595	183.63
357.807	54.61
358.018	32.08
358.23	99.67
358.441	126.29
358.653	44.37
358.864	-31.4
359.075	52.56
359.287	-2.73
359.498	81.24
359.709	66.9
359.921	58.71
360.132	9.56
360.344	1.37
360.555	-2.73
360.766	17.75
360.977	75.09
361.189	93.52
361.4	1.37
361.611	58.71
361.823	77.14
362.034	83.28
362.245	1.37
362.456	120.15
362.667	-15.02
362.879	5.46
363.09	87.38
363.301	27.99
363.512	-10.92
363.723	91.48
363.935	-23.21
364.146	-4.78
364.357	154.96
364.568	42.32
364.779	19.8
364.99	62.8
365.201	52.56
365.412	71
365.623	5.46
365.834	60.76
366.045	34.13
366.256	81.24
366.467	3.41
366.678	99.67
366.889	-31.4
367.1	71
367.311	83.28
367.522	5.46
367.733	-15.02
367.944	60.76
368.155	13.65
368.366	68.95
368.577	89.43
368.788	38.23
368.999	-72.36
369.209	71
369.42	52.56
369.631	62.8
369.842	42.32
370.053	7.51
370.264	91.48
370.474	9.56
370.685	27.99
370.896	34.13
371.107	42.32
371.317	42.32
371.528	34.13
371.739	48.47
371.95	38.23
372.16	50.52
372.371	23.89
372.582	93.52
372.792	52.56
373.003	99.67
373.214	107.86
373.424	126.29
373.635	-10.92
373.846	52.56
374.056	21.85
374.267	36.18
374.477	34.13
374.688	19.8
374.898	27.99
375.109	5.46
375.319	38.23
375.53	77.14
375.74	9.56
375.951	40.28
376.161	17.75
376.372	58.71
376.582	50.52
376.793	77.14
377.003	46.42
377.214	42.32
377.424	52.56
377.635	17.75
377.845	21.85
378.055	128.34
378.266	1.37
378.476	-21.16
378.686	54.61
378.897	1.37
379.107	157.01
379.317	93.52
379.528	56.66
379.738	99.67
379.948	-2.73
380.158	132.44
380.369	48.47
380.579	146.77
380.789	23.89
380.999	44.37
381.21	66.9
381.42	79.19
381.63	48.47
381.84	58.71
382.05	68.95
382.261	136.53
382.471	42.32
382.681	25.94
382.891	111.96
383.101	34.13
383.311	-15.02
383.521	75.09
383.731	79.19
383.941	62.8
384.151	107.86
384.361	62.8
384.571	93.52
384.781	71
384.991	34.13
385.201	150.87
385.411	75.09
385.621	34.13
385.831	58.71
386.041	50.52
386.251	-2.73
386.461	83.28
386.671	-4.78
386.881	17.75
387.091	-60.07
387.301	44.37
387.511	54.61
387.72	38.23
387.93	60.76
388.14	1.37
388.35	50.52
388.56	17.75
388.769	101.72
388.979	17.75
389.189	36.18
389.399	58.71
389.609	81.24
389.818	122.2
390.028	66.9
390.238	5.46
390.447	21.85
390.657	34.13
390.867	99.67
391.076	-10.92
391.286	91.48
391.496	116.05
391.705	77.14
391.915	99.67
392.125	87.38
392.334	1.37
392.544	62.8
392.753	38.23
392.963	68.95
393.172	97.62
393.382	15.7
393.591	52.56
393.801	38.23
394.01	62.8
394.22	-15.02
394.429	66.9
394.639	83.28
394.848	-6.83
395.058	-37.55
395.267	54.61
395.477	140.63
395.686	64.85
395.895	11.61
396.105	152.91
396.314	9.56
396.524	66.9
396.733	85.33
396.942	60.76
397.152	107.86
397.361	124.24
397.57	83.28
397.78	140.63
397.989	152.91
398.198	132.44
398.407	71
398.617	56.66
398.826	71
399.035	66.9
399.244	85.33
399.453	99.67
399.663	58.71
399.872	159.06
400.081	50.52
400.29	109.91
400.499	89.43
400.708	208.21
400.917	42.32
401.127	60.76
401.336	140.63
401.545	116.05
401.754	46.42
401.963	60.76
402.172	146.77
402.381	132.44
402.59	87.38
402.799	142.68
403.008	169.3
403.217	120.15
403.426	109.91
403.635	107.86
403.844	87.38
404.053	116.05
404.262	101.72
404.471	169.3
404.68	95.57
404.888	140.63
405.097	99.67
405.306	159.06
405.515	152.91
405.724	148.82
405.933	185.68
406.142	157.01
406.35	122.2
406.559	101.72
406.768	157.01
406.977	206.16
407.185	167.25
407.394	197.97
407.603	181.59
407.812	109.91
408.02	290.13
408.229	200.02
408.438	165.2
408.646	175.44
408.855	197.97
409.064	234.83
409.272	169.3
409.481	249.17
409.69	181.59
409.898	167.25
410.107	189.78
410.315	238.93
410.524	206.16
410.733	269.65
410.941	273.75
411.15	335.18
411.358	292.18
411.567	339.28
411.775	308.56
411.984	335.18
412.192	316.75
412.401	415.06
412.609	386.38
412.818	398.67
413.026	443.73
413.234	433.49
413.443	486.73
413.651	363.86
413.86	431.44
414.068	494.93
414.276	507.21
414.485	464.21
414.693	517.45
414.901	644.43
415.11	537.93
415.318	517.45
415.526	574.8
415.734	544.08
415.943	601.42
416.151	601.42
416.359	636.24
416.567	683.34
416.776	656.72
416.984	761.16
417.192	791.88
417.4	763.21
417.608	767.31
417.817	765.26
418.025	820.55
418.233	937.29
418.441	824.65
418.649	871.75
418.857	976.2
419.065	980.29
419.273	1000.77
419.481	1017.16
419.689	1037.64
419.897	1142.08
420.105	1201.48
420.313	1123.65
420.521	1181
420.729	1287.49
420.937	1334.59
421.145	1250.63
421.353	1441.09
421.561	1451.33
421.769	1529.15
421.977	1508.67
422.185	1541.44
422.393	1615.16
422.601	1692.99
422.809	1686.84
423.017	1770.81
423.224	1799.48
423.432	1873.21
423.64	1873.21
423.848	1967.42
424.056	1996.09
424.263	2090.29
424.471	2164.02
424.679	2131.25
424.887	2272.56
425.094	2297.14
425.302	2424.11
425.51	2409.78
425.718	2565.42
425.925	2522.41
426.133	2727.21
426.341	2915.62
426.548	2876.71
426.756	2848.04
426.964	2921.77
427.171	3089.7
427.379	3282.21
427.586	3196.2
427.794	3298.59
428.001	3345.7
428.209	3745.05
428.417	3568.93
428.624	3939.61
428.832	3872.03
429.039	3687.71
429.247	3783.96
429.454	4056.34
429.662	4314.39
429.869	4039.96
430.076	4416.79
430.284	4345.11
430.491	4320.53
430.699	4842.76
430.906	4672.78
431.114	4670.73
431.321	4908.3
431.528	5074.18
431.736	5358.85
431.943	5694.72
432.15	5457.15
432.358	5516.55
432.565	5866.75
432.772	5829.88
432.979	6022.39
433.187	6120.7
433.394	6219
433.601	6601.97
433.808	6595.82
434.016	6710.51
434.223	6853.87
434.43	7204.07
434.637	7070.95
434.844	7734.5
435.052	7773.41
435.259	7632.1
435.466	7603.43
435.673	7732.45
435.88	8101.08
436.087	8623.31
436.294	8678.61
436.501	8594.64
436.708	8537.3
436.915	8744.14
437.122	9073.87
437.329	9209.03
437.537	9510.08
437.743	9755.84
437.95	9651.39
438.157	9962.69
438.364	10398.9
438.571	10308.79
438.778	10482.87
438.985	11330.73
439.192	11015.34
439.399	11404.46
439.606	11050.16
439.813	11701.41
440.02	12459.16
440.227	12223.64
440.433	12014.75
440.64	12240.03
440.847	12518.55
441.054	12637.33
441.261	13589.64
441.467	13288.59
441.674	13528.2
441.881	13833.35
442.088	14062.72
442.294	13714.56
442.501	14050.43
442.708	14410.87
442.914	15123.57
443.121	15633.51
443.328	15389.8
443.534	16647.26
443.741	15737.96
443.948	15664.23
444.154	16925.78
444.361	16624.73
444.568	17052.75
444.774	16770.13
444.981	16757.85
445.187	17589.32
445.394	18070.59
445.6	17648.71
445.807	19711.02
446.013	19012.66
446.22	19205.17
446.426	19606.57
446.633	19868.71
446.839	20653.08
447.046	19809.32
447.252	21034
447.459	20745.24
447.665	20911.13
447.871	21589
448.078	22627.32
448.284	21769.23
448.491	22215.68
448.697	23401.46
448.903	23669.74
449.11	23737.32
449.316	23069.69
449.522	23741.42
449.728	24198.12
449.935	24527.84
450.141	24560.61
450.347	25107.41
450.553	24441.82
450.76	24658.91
450.966	25244.63
451.172	25410.51
451.378	25699.28
451.584	25332.69
451.791	25785.29
451.997	25871.31
452.203	26029
452.409	25998.28
452.615	26155.97
452.821	25011.16
453.027	24921.05
453.233	26399.68
453.44	25275.35
453.646	25662.41
453.852	25613.26
454.058	25981.9
454.264	25033.69
454.47	25865.16
454.676	25031.64
454.882	25762.76
455.088	23860.2
455.294	24060.9
455.5	24382.43
455.705	24740.83
455.911	23497.71
456.117	23346.16
456.323	22967.29
456.529	21726.22
456.735	22635.52
456.941	22090.76
457.147	21666.83
457.352	21226.51
457.558	20896.79
457.764	21238.8
457.97	20472.86
458.176	20247.58
458.381	20229.15
458.587	19047.47
458.793	19057.71
458.999	18050.11
459.204	19762.22
459.41	18988.08
459.616	17861.7
459.821	17816.65
460.027	17747.01
460.233	17390.67
460.438	16569.43
460.644	17056.85
460.85	15791.2
461.055	15680.61
461.261	15787.11
461.466	14609.53
461.672	14152.83
461.878	15217.77
462.083	14158.97
462.289	13821.06
462.494	13730.95
462.7	13128.84
462.905	12772.5
463.111	13096.08
463.316	13118.61
463.522	12876.94
463.727	12672.15
463.932	13048.97
464.138	12911.76
464.343	12801.17
464.549	12520.6
464.754	12887.18
464.959	12870.8
465.165	12694.68
465.37	12346.52
465.575	11840.67
465.781	12307.61
465.986	12285.08
466.191	12104.86
466.397	11590.82
466.602	11052.2
466.807	11732.13
467.012	11465.89
467.218	11531.43
467.423	11367.59
467.628	11363.5
467.833	11576.48
468.038	11318.44
468.244	11078.83
468.449	11521.19
468.654	11201.71
468.859	11107.5
469.064	10767.54
469.269	10591.41
469.474	10816.69
469.679	10837.17
469.885	10542.26
470.09	10749.11
470.295	10712.24
470.5	10462.39
470.705	10382.52
470.91	10153.15
471.115	10042.56
471.32	10327.22
471.525	10362.04
471.73	10192.06
471.935	9817.28
472.139	9598.15
472.344	9716.93
472.549	9716.93
472.754	9698.5
472.959	9391.3
473.164	9225.42
473.369	9221.32
473.574	9379.01
473.778	9393.35
473.983	9231.56
474.188	9082.06
474.393	8748.24
474.598	8844.49
474.802	8680.66
475.007	8729.81
475.212	8778.96
475.417	8512.72
475.621	8285.4
475.826	8520.92
476.031	8180.95
476.235	8049.88
476.44	8301.78
476.645	8103.13
476.849	8135.9
477.054	7855.33
477.259	7939.29
477.463	7795.93
477.668	7648.48
477.872	7744.74
478.077	7787.74
478.282	7605.47
478.486	7367.91
478.691	7300.33
478.895	7253.22
479.1	7105.77
479.304	7230.69
479.509	6972.65
479.713	7384.29
479.918	6884.59
480.122	6952.17
480.326	7048.43
480.531	6956.27
480.735	6730.99
480.94	6915.31
481.144	7140.58
481.348	6710.51
481.553	6810.86
481.757	6677.74
481.961	6812.91
482.166	6882.54
482.37	6718.7
482.574	6663.41
482.778	6739.18
482.983	6835.44
483.187	6763.76
483.391	6649.07
483.595	6692.08
483.8	6503.67
484.004	6771.95
484.208	6853.87
484.412	6604.02
484.616	6722.8
484.821	6853.87
485.025	6626.54
485.229	6692.08
485.433	6677.74
485.637	6687.98
485.841	6530.29
486.045	6552.82
486.249	6587.63
486.453	6724.85
486.657	6610.16
486.861	6919.4
487.065	6583.54
487.269	6739.18
487.473	6431.99
487.677	6718.7
487.881	6857.96
488.085	6847.72
488.289	6741.23
488.493	6544.63
488.697	6882.54
488.901	6677.74
489.105	6694.13
489.309	6771.95
489.512	6821.1
489.716	6726.89
489.92	6915.31
490.124	6763.76
490.328	6782.19
490.531	6792.43
490.735	6825.2
490.939	6892.78
491.143	6978.79
491.346	6862.06
491.55	7263.46
491.754	6972.65
491.958	7177.45
492.161	6982.89
492.365	7087.34
492.569	6972.65
492.772	7058.67
492.976	7218.41
493.18	7148.78
493.383	7337.19
493.587	7341.29
493.79	7392.48
493.994	7335.14
494.197	7300.33
494.401	7333.09
494.605	7380.2
494.808	7527.65
495.012	7578.85
495.215	7472.36
495.419	7881.95
495.622	7668.96
495.825	7779.55
496.029	7824.61
496.232	7861.47
496.436	7943.39
496.639	8058.07
496.843	7734.5
497.046	8115.42
497.249	8139.99
497.453	8156.38
497.656	8342.74
497.859	8307.93
498.063	8594.64
498.266	8629.46
498.469	8514.77
498.673	8848.59
498.876	8654.03
499.079	9069.77
499.282	8858.83
499.485	9037
499.689	9168.07
499.892	9229.51
500.095	9448.65
500.298	9721.02
500.501	9602.24
500.705	9796.8
500.908	9770.18
501.111	10034.36
501.314	10009.79
501.517	10046.65
501.72	10452.15
501.923	10230.97
502.126	10458.29
502.329	10495.16
502.532	10489.01
502.735	10861.74
502.938	10935.47
503.141	10867.89
503.344	11029.68
503.547	11250.86
503.75	11379.88
503.953	11445.41
504.156	11492.52
504.359	11660.45
504.562	11756.71
504.765	11881.63
504.968	12100.76
505.17	12002.46
505.373	12283.03
505.576	12446.87
505.779	12661.91
505.982	12594.33
506.185	12909.71
506.387	12887.18
506.59	13042.83
506.793	13253.77
506.996	13407.37
507.198	13597.83
507.401	13620.36
507.604	13810.82
507.807	13870.21
508.009	14054.53
508.212	14140.54
508.415	14333.05
508.617	14515.32
508.82	14519.42
509.022	14615.67
509.225	15019.12
509.428	15131.76
509.63	15297.64
509.833	15287.4
510.035	15680.61
510.238	15527.02
510.44	15557.74
510.643	15854.69
510.845	16014.43
511.048	16311.39
511.25	16442.46
511.453	16473.18
511.655	16987.22
511.858	16725.08
512.06	17050.71
512.262	17167.44
512.465	17204.3
512.667	17132.62
512.87	17732.68
513.072	17888.32
513.274	18039.87
513.477	18029.63
513.679	18084.93
513.881	18537.53
514.084	18572.35
514.286	18574.39
514.488	19055.67
514.69	19235.89
514.893	19547.18
515.095	19334.19
515.297	19555.37
515.499	19862.57
515.701	20108.32
515.904	20112.42
516.106	20397.09
516.308	20661.27
516.51	20679.71
516.712	20440.09
516.914	21275.66
517.116	21457.93
517.318	21435.41
517.52	21322.77
517.722	21640.2
517.925	21974.02
518.127	22346.75
518.329	22258.69
518.531	22217.73
518.733	23114.74
518.935	22920.18
519.136	23008.25
519.338	23227.38
519.54	23231.47
519.742	23454.7
519.944	23735.28
520.146	23880.68
520.348	24056.81
520.55	24185.83
520.752	24257.51
520.954	24957.91
521.155	24892.38
521.357	25117.65
521.559	25074.65
521.761	25449.42
521.963	25674.7
522.164	25936.84
522.366	25920.46
522.568	25832.4
522.77	26319.81
522.971	26104.77
523.173	26078.15
523.375	26790.84
523.576	26821.56
523.778	26928.06
523.98	27059.13
524.181	27155.38
524.383	27065.27
524.584	27669.42
524.786	27771.82
524.988	27597.74
525.189	27872.17
525.391	28197.8
525.592	28402.6
525.794	28183.46
525.995	28478.37
526.197	28357.54
526.398	28322.73
526.6	28498.85
526.801	28945.31
527.003	28865.44
527.204	28937.12
527.406	29219.74
527.607	29096.86
527.808	29506.45
528.01	28767.13
528.211	29186.97
528.412	30045.07
528.614	29711.25
528.815	30149.51
529.016	29922.19
529.218	29754.26
529.419	29866.89
529.62	30036.87
529.822	29791.12
530.023	29942.67
530.224	30061.45
530.425	30143.37
530.626	29637.52
530.828	29795.21
531.029	30759.81
531.23	30036.87
531.431	30004.11
531.632	30638.98
531.833	30884.73
532.035	30739.33
532.236	30339.97
532.437	30905.21
532.638	30561.15
532.839	30909.31
533.04	30518.15
533.241	30243.72
533.442	30788.48
533.643	30563.2
533.844	30577.54
534.045	30548.87
534.246	30294.92
534.447	30612.35
534.648	30417.8
534.849	30608.26
535.05	30483.33
535.251	30598.02
535.451	30626.69
535.652	30669.7
535.853	30378.89
536.054	30630.79
536.255	30833.53
536.456	30362.5
536.657	30538.63
536.857	30671.75
537.058	30614.4
537.259	30882.69
537.46	30720.9
537.66	30499.72
537.861	30555.01
538.062	30350.21
538.263	30661.51
538.463	30643.07
538.664	30806.91
538.865	30579.59
539.065	30495.62
539.266	30423.94
539.466	31044.48
539.667	30423.94
539.868	30925.69
540.068	30475.14
540.269	30290.82
540.469	30434.18
540.67	30436.23
540.87	30462.85
541.071	30380.93
541.271	30671.75
541.472	30018.44
541.672	30391.17
541.873	30190.47
542.073	30141.32
542.274	30581.63
542.474	30466.95
542.675	30100.36
542.875	30755.71
543.075	30604.16
543.276	30034.83
543.476	30530.44
543.676	30208.9
543.877	30153.61
544.077	30040.97
544.277	30280.58
544.478	30425.99
544.678	30206.86
544.878	30210.95
545.078	30249.86
545.279	29678.48
545.479	29977.48
545.679	29918.09
545.879	30247.82
546.079	30241.67
546.28	30202.76
546.48	29901.71
546.68	30036.87
546.88	30221.19
547.08	30155.66
547.28	29995.92
547.48	29856.65
547.68	30075.79
547.88	29825.93
548.081	30235.53
548.281	30292.87
548.481	29965.2
548.681	29979.53
548.881	30147.47
549.081	29741.97
549.28	29887.37
549.48	30659.46
549.68	29791.12
549.88	30362.5
550.08	29987.72
550.28	30083.98
550.48	29952.91
550.68	30401.41
550.88	29422.48
551.08	29938.57
551.279	29957
551.479	29879.18
551.679	30008.2
551.879	29784.97
552.079	30249.86
552.278	29617.04
552.478	29883.28
552.678	29778.83
552.878	29887.37
553.077	29909.9
553.277	29588.37
553.477	29909.9
553.676	29911.95
553.876	29678.48
554.076	29870.99
554.275	29809.55
554.475	29481.88
554.674	29916.04
554.874	29975.44
555.074	29565.84
555.273	29666.19
555.473	29287.32
555.672	29692.82
555.872	29612.95
556.071	29746.06
556.271	29846.41
556.47	29524.88
556.67	29490.07
556.869	29643.66
557.068	29518.74
557.268	29260.69
557.467	29313.94
557.667	29565.84
557.866	29248.41
558.065	29471.64
558.265	29385.62
558.464	29225.88
558.663	29590.42
558.863	29041.56
559.062	29430.68
559.261	29236.12
559.461	29404.05
559.66	28818.33
559.859	28896.16
560.058	28537.76
560.258	29186.97
560.457	28453.8
560.656	29113.24
560.855	28593.06
561.054	28775.33
561.253	28453.8
561.453	28820.38
561.652	28613.54
561.851	28638.11
562.05	28683.17
562.249	28543.91
562.448	28879.77
562.647	28470.18
562.846	28611.49
563.045	28535.71
563.244	28079.02
563.443	28765.09
563.642	28109.74
563.841	28242.85
564.04	28115.88
564.239	28648.35
564.438	27831.21
564.637	28132.26
564.836	28263.33
565.035	27788.21
565.234	28181.42
565.432	27849.64
565.631	27818.92
565.83	27620.27
566.029	27716.53
566.228	27132.86
566.427	27603.89
566.625	27356.08
566.824	27196.34
567.023	27429.81
567.222	27124.66
567.42	27521.97
567.619	26977.21
567.818	27067.32
568.016	26989.5
568.215	27194.29
568.414	27100.09
568.612	27091.9
568.811	26868.67
569.01	27069.37
569.208	26584
569.407	26934.2
569.605	26563.52
569.804	27071.42
570.002	26577.86
570.201	26645.44
570.4	26371.01
570.598	26297.28
570.797	26184.65
570.995	26336.2
571.193	25748.43
571.392	26225.61
571.59	26162.12
571.789	26057.67
571.987	25836.49
572.186	25770.96
572.384	25824.2
572.582	26057.67
572.781	25897.93
572.979	25340.88
573.177	25617.36
573.376	25654.22
573.574	25474
573.772	25175
573.971	25199.57
574.169	25203.67
574.367	25144.28
574.565	25101.27
574.763	24984.54
574.962	24921.05
575.16	24941.53
575.358	24966.1
575.556	24593.37
575.754	24959.96
575.952	24630.24
576.151	24890.33
576.349	24404.96
576.547	24605.66
576.745	24722.4
576.943	24663
577.141	24478.69
577.339	24587.23
577.537	24054.76
577.735	24398.82
577.933	24200.16
578.131	24181.73
578.329	24134.63
578.527	23956.46
578.725	24058.85
578.923	24077.29
579.121	23794.67
579.319	23878.63
579.516	23813.1
579.714	23581.68
579.912	23399.41
580.11	23593.97
580.308	23673.84
580.506	23358.45
580.704	23063.54
580.901	23362.54
581.099	23481.33
581.297	23276.53
581.495	23059.45
581.692	23436.27
581.89	23022.58
582.088	23131.12
582.285	23012.34
582.483	23051.25
582.681	22647.8
582.878	22754.3
583.076	22488.06
583.274	22760.44
583.471	22498.3
583.669	22576.12
583.866	22529.02
584.064	22393.86
584.262	22242.31
584.459	22305.79
584.657	22111.24
584.854	22469.63
585.052	22139.91
585.249	22074.37
585.447	21881.86
585.644	21711.88
585.841	21873.67
586.039	22031.37
586.236	21550.09
586.434	21801.99
586.631	21455.89
586.828	21697.55
587.026	21558.28
587.223	21574.67
587.42	21548.04
587.618	21584.91
587.815	21359.63
588.012	21246.99
588.21	21287.95
588.407	21451.79
588.604	21183.51
588.801	21040.15
588.999	21062.68
589.196	21019.67
589.393	21072.92
589.59	20853.78
589.787	20763.67
589.984	20522.01
590.182	20556.83
590.379	20878.36
590.576	20706.33
590.773	20448.29
590.97	20509.72
591.167	20546.59
591.364	20016.16
591.561	20241.44
591.758	19964.96
591.955	20016.16
592.152	20220.96
592.349	19969.06
592.546	20007.97
592.743	20251.68
592.94	19649.58
593.137	19811.37
593.334	19934.25
593.531	19805.22
593.727	19678.25
593.924	19713.06
594.121	19477.55
594.318	19680.3
594.515	19514.41
594.712	19717.16
594.908	19424.3
595.105	19569.71
595.302	19047.47
595.499	19332.14
595.696	19282.99
595.892	18885.69
596.089	19059.76
596.286	19098.67
596.482	18818.1
596.679	19008.56
596.876	19123.25
597.072	19012.66
597.269	18773.05
597.466	18727.99
597.662	18572.35
597.859	18596.92
598.055	18668.6
598.252	18586.68
598.448	18517.05
598.645	18259.01
598.841	18375.74
599.038	18041.92
599.234	18181.18
599.431	18009.15
599.627	18052.16
599.824	18070.59
600.02	17826.89
600.217	18074.69
600.413	18013.25
600.609	17849.41
600.806	17716.29
601.002	17822.79
601.198	17550.41
601.395	17667.14
601.591	17624.14
601.787	17701.96
601.984	17491.02
602.18	17550.41
602.376	17505.35
602.572	17343.56
602.769	17312.85
602.965	17079.38
603.161	17282.13
603.357	17208.4
603.553	16972.88
603.75	17202.25
603.946	16972.88
604.142	17177.68
604.338	16731.22
604.534	16966.74
604.73	16854.1
604.926	16882.77
605.122	16835.67
605.318	16645.21
605.514	16444.51
605.71	16350.3
605.906	16708.69
606.102	16522.33
606.298	16614.49
606.494	16501.85
606.69	16663.64
606.886	16485.47
607.082	16141.41
607.278	16348.25
607.474	16129.12
607.67	16219.23
607.866	16014.43
608.062	16243.81
608.257	15963.23
608.453	15983.71
608.649	16213.09
608.845	15916.13
609.041	15961.19
609.236	15952.99
609.432	15705.19
609.628	15727.72
609.824	15731.81
610.019	15680.61
610.215	15897.7
610.411	15809.64
610.606	15608.94
610.802	15649.89
610.998	15780.96
611.193	15453.29
611.389	15492.2
611.584	15268.97
611.78	15418.47
611.976	15471.72
612.171	15701.09
612.367	15457.39
612.562	15357.04
612.758	15178.86
612.953	15211.63
613.149	15529.06
613.344	15166.57
613.539	15166.57
613.735	15254.64
613.93	15277.16
614.126	14963.82
614.321	15268.97
614.517	14994.54
614.712	15092.85
614.907	15033.46
615.103	15043.7
615.298	14886
615.493	15326.32
615.688	14627.96
615.884	14777.46
616.079	14763.12
616.274	14888.05
616.47	14769.27
616.665	14890.1
616.86	14599.29
617.055	14705.78
617.25	14601.33
617.445	14820.47
617.641	14646.39
617.836	14498.94
618.031	14433.4
618.226	14593.14
618.421	14462.07
618.616	14376.06
618.811	14064.77
619.006	14324.86
619.201	14015.62
619.396	14181.5
619.591	13880.45
619.786	14378.11
619.981	13616.26
620.176	14058.62
620.371	13796.48
620.566	13798.53
620.761	13708.42
620.956	13790.34
621.151	13534.34
621.346	13614.21
621.541	13335.69
621.735	13458.57
621.93	13505.67
622.125	13544.58
622.32	13167.76
622.515	13194.38
622.709	12981.39
622.904	13069.45
623.099	13034.64
623.294	12666
623.488	12874.9
623.683	12838.03
623.878	12706.96
624.072	12887.18
624.267	12461.21
624.462	12584.09
624.656	12350.62
624.851	12625.04
625.046	12467.35
625.24	12229.79
625.435	12272.79
625.629	12133.53
625.824	12133.53
626.018	12160.16
626.213	11961.5
626.407	12080.28
626.602	11705.51
626.796	11723.94
626.991	11465.89
627.185	11760.8
627.38	11510.95
627.574	11586.72
627.768	11467.94
627.963	11300.01
628.157	11101.36
628.352	11175.08
628.546	11103.4
628.74	11369.64
628.935	11019.44
629.129	11080.88
629.323	11123.88
629.517	10837.17
629.712	10847.41
629.906	11009.2
630.1	10833.07
630.294	10742.96
630.489	10669.23
630.683	10628.28
630.877	10464.44
631.071	10478.77
631.265	10593.46
631.459	10525.88
631.653	10228.92
631.848	10255.54
632.042	10054.84
632.236	10319.03
632.43	10036.41
632.624	10044.6
632.818	10144.95
633.012	9798.85
633.206	10028.22
633.4	9972.93
633.594	9794.75
633.788	9891.01
633.982	9755.84
634.176	9565.38
634.369	9532.61
634.563	9440.45
634.757	9821.38
634.951	9422.02
635.145	9471.17
635.339	9516.23
635.533	9329.86
635.726	9086.15
635.92	9290.95
636.114	9209.03
636.308	9110.73
636.501	9231.56
636.695	9082.06
636.889	9028.81
637.083	8914.13
637.276	8764.62
637.47	8864.97
637.664	8778.96
637.857	8821.97
638.051	8633.55
638.244	8748.24
638.438	8578.26
638.632	8563.92
638.825	8424.66
639.019	8408.28
639.212	8271.06
639.406	8256.73
639.599	8303.83
639.793	8334.55
639.986	8078.55
640.18	8219.86
640.373	8033.5
640.567	8074.46
640.76	7922.91
640.954	8088.79
641.147	7976.16
641.34	7949.53
641.534	8096.99
641.727	7767.26
641.92	7859.42
642.114	7804.13
642.307	7824.61
642.5	7685.34
642.694	7376.1
642.887	7619.81
643.08	7726.3
643.273	7474.4
643.467	7527.65
643.66	7308.52
643.853	7263.46
644.046	7169.26
644.239	7361.77
644.432	7220.46
644.626	7177.45
644.819	7138.54
645.012	7230.69
645.205	7128.3
645.398	7167.21
645.591	7040.23
645.784	7097.58
645.977	6933.74
646.17	6933.74
646.363	6788.33
646.556	6692.08
646.749	6763.76
646.942	6817.01
647.135	6896.88
647.328	6804.72
647.521	6784.24
647.714	6628.59
647.907	6513.91
648.099	6610.16
648.292	6554.87
648.485	6685.94
648.678	6399.22
648.871	6556.91
649.064	6415.6
649.256	6399.22
649.449	6448.37
649.642	6186.23
649.835	6147.32
650.027	6292.73
650.22	6229.24
650.413	6157.56
650.605	6286.58
650.798	6128.89
650.991	5983.48
651.183	6008.06
651.376	6145.27
651.568	6030.59
651.761	6040.83
651.954	5956.86
652.146	5901.56
652.339	5979.39
652.531	5874.94
652.724	5942.52
652.916	5659.9
653.109	5645.57
653.301	5913.85
653.494	5659.9
653.686	5584.13
653.879	5745.92
654.071	5641.47
654.263	5588.22
654.456	5367.04
654.648	5649.66
654.84	5577.98
655.033	5532.93
655.225	5416.19
655.417	5285.12
655.61	5362.95
655.802	5344.52
655.994	5416.19
656.186	5326.08
656.379	5221.64
656.571	5276.93
656.763	5235.97
656.955	5090.57
657.148	5192.97
657.34	5233.93
657.532	5121.29
657.724	4994.31
657.916	5225.73
658.108	5065.99
658.3	4953.35
658.492	5088.52
658.684	4924.68
658.876	4973.83
659.068	5055.75
659.26	4824.33
659.452	4842.76
659.644	4803.85
659.836	4814.09
660.028	4732.17
660.22	4785.42
660.412	4875.53
660.604	4705.55
660.796	4703.5
660.988	4791.56
661.18	4566.29
661.372	4613.39
661.563	4734.22
661.755	4543.76
661.947	4691.21
662.139	4629.77
662.331	4556.05
662.522	4588.82
662.714	4457.75
662.906	4343.06
663.097	4496.66
663.289	4371.73
663.481	4467.99
663.673	4367.63
663.864	4404.5
664.056	4343.06
664.247	4216.09
664.439	4330.77
664.631	4427.03
664.822	4402.45
665.014	4308.24
665.205	4377.87
665.397	4144.41
665.588	4252.95
665.78	4130.07
665.971	4248.85
666.163	4103.45
666.354	4134.17
666.546	4199.7
666.737	4003.1
666.929	4015.38
667.12	4091.16
667.311	4011.29
667.503	3910.94
667.694	4027.67
667.885	3925.27
668.077	4056.34
668.268	3990.81
668.459	4023.58
668.651	4033.82
668.842	3908.89
669.033	4066.58
669.224	3749.15
669.416	3917.08
669.607	3876.12
669.798	3667.23
669.989	3890.46
670.18	3853.59
670.371	3728.67
670.563	3753.24
670.754	3671.33
670.945	3839.26
671.136	3663.13
671.327	3654.94
671.518	3671.33
671.709	3745.05
671.9	3607.84
672.091	3804.44
672.282	3525.92
672.473	3656.99
672.664	3659.04
672.855	3640.61
673.046	3577.12
673.237	3669.28
673.428	3532.06
673.619	3591.45
673.809	3607.84
674	3554.59
674.191	3462.43
674.382	3450.14
674.573	3593.5
674.764	3575.07
674.954	3673.37
675.145	3507.49
675.336	3484.96
675.527	3435.81
675.717	3546.4
675.908	3407.14
676.099	3499.3
676.289	3523.87
676.48	3392.8
676.671	3429.66
676.861	3355.94
677.052	3435.81
677.243	3351.84
677.433	3448.1
677.624	3466.53
677.814	3335.46
678.005	3343.65
678.195	3286.31
678.386	3413.28
678.576	3321.12
678.767	3310.88
678.957	3372.32
679.148	3335.46
679.338	3450.14
679.529	3343.65
679.719	3300.64
679.909	3462.43
680.1	3294.5
680.29	3269.92
680.481	3302.69
680.671	3206.44
680.861	3333.41
681.052	3292.45
681.242	3245.35
681.432	3372.32
681.622	3235.11
681.813	3169.57
682.003	3304.74
682.193	3245.35
682.383	3284.26
682.573	3284.26
682.764	3310.88
682.954	3341.6
683.144	3261.73
683.334	3222.82
683.524	3204.39
683.714	3214.63
683.904	3245.35
684.094	3134.76
684.284	3020.07
684.474	3192.1
684.664	3233.06
684.854	3122.47
685.044	3065.13
685.234	3089.7
685.424	3208.48
685.614	3106.09
685.804	3081.51
685.994	3073.32
686.184	3130.66
686.374	3130.66
686.564	3054.89
686.753	3042.6
686.943	3108.13
687.133	3081.51
687.323	3056.93
687.513	3138.85
687.702	3085.61
687.892	3077.41
688.082	3015.98
688.272	2960.68
688.461	2942.25
688.651	3161.38
688.841	3015.98
689.03	2864.43
689.22	3020.07
689.41	2870.57
689.599	3024.17
689.789	3040.55
689.979	2991.4
690.168	2862.38
690.358	2929.96
690.547	3015.98
690.737	2952.49
690.926	2819.37
691.116	2745.64
691.305	2958.63
691.495	2827.56
691.684	2800.94
691.874	2757.93
692.063	2856.23
692.252	2762.03
692.442	2811.18
692.631	2712.88
692.82	2729.26
693.01	2721.07
693.199	2786.6
693.388	2725.16
693.578	2680.11
693.767	2682.16
693.956	2749.74
694.146	2682.16
694.335	2655.53
694.524	2719.02
694.713	2753.84
694.902	2635.05
695.092	2598.19
695.281	2626.86
695.47	2626.86
695.659	2647.34
695.848	2540.85
696.037	2506.03
696.226	2536.75
696.415	2653.48
696.604	2663.72
696.793	2508.08
696.982	2598.19
697.171	2540.85
697.36	2522.41
697.549	2551.09
697.738	2534.7
697.927	2516.27
698.116	2499.89
698.305	2526.51
698.494	2553.13
698.683	2512.17
698.872	2676.01
699.061	2508.08
699.25	2616.62
699.438	2626.86
699.627	2557.23
699.816	2633.01
700.005	2614.57
700.193	2557.23
700.382	2596.14
700.571	2481.46
700.76	2577.71
700.948	2458.93
701.137	2501.94
701.326	2522.41
701.514	2501.94
701.703	2565.42
701.892	2450.74
702.08	2493.74
702.269	2577.71
702.457	2305.33
702.646	2348.34
702.834	2444.59
703.023	2487.6
703.212	2520.37
703.4	2493.74
703.589	2456.88
703.777	2477.36
703.965	2372.91
704.154	2528.56
704.342	2549.04
704.531	2463.02
704.719	2467.12
704.907	2432.3
705.096	2452.78
705.284	2508.08
705.472	2463.02
705.661	2393.39
705.849	2512.17
706.037	2448.69
706.226	2420.02
706.414	2549.04
706.602	2403.63
706.79	2434.35
706.979	2460.98
707.167	2553.13
707.355	2413.87
707.543	2495.79
707.731	2393.39
707.919	2456.88
708.107	2493.74
708.296	2442.54
708.484	2377.01
708.672	2409.78
708.86	2372.91
709.048	2346.29
709.236	2389.3
709.424	2438.45
709.612	2430.26
709.8	2479.41
709.988	2319.67
710.176	2360.63
710.364	2422.06
710.551	2481.46
710.739	2532.65
710.927	2340.15
711.115	2454.83
711.303	2401.58
711.491	2450.74
711.679	2393.39
711.866	2377.01
712.054	2372.91
712.242	2393.39
712.43	2510.13
712.617	2319.67
712.805	2387.25
712.993	2331.95
713.181	2352.43
713.368	2372.91
713.556	2436.4
713.744	2354.48
713.931	2458.93
714.119	2540.85
714.306	2323.76
714.494	2290.99
714.682	2401.58
714.869	2450.74
715.057	2426.16
715.244	2293.04
715.432	2446.64
715.619	2397.49
715.807	2319.67
715.994	2352.43
716.182	2346.29
716.369	2372.91
716.556	2454.83
716.744	2444.59
716.931	2432.3
717.119	2409.78
717.306	2338.1
717.493	2370.87
717.681	2442.54
717.868	2319.67
718.055	2387.25
718.242	2352.43
718.43	2385.2
718.617	2413.87
718.804	2372.91
718.991	2340.15
719.179	2350.39
719.366	2499.89
719.553	2454.83
719.74	2336.05
719.927	2401.58
720.114	2372.91
720.301	2241.84
720.488	2280.75
720.676	2247.99
720.863	2520.37
721.05	2311.47
721.237	2299.19
721.424	2303.28
721.611	2290.99
721.798	2180.4
721.985	2256.18
722.172	2366.77
722.358	2176.31
722.545	2311.47
722.732	2397.49
722.919	2372.91
723.106	2188.6
723.293	2417.97
723.48	2278.71
723.667	2274.61
723.853	2282.8
724.04	2299.19
724.227	2274.61
724.414	2243.89
724.6	2266.42
724.787	2348.34
724.974	2315.57
725.161	2270.51
725.347	2274.61
725.534	2188.6
725.72	2196.79
725.907	2278.71
726.094	2194.74
726.28	2241.84
726.467	2204.98
726.653	2151.73
726.84	2213.17
727.027	2319.67
727.213	2073.91
727.4	2401.58
727.586	2282.8
727.773	2247.99
727.959	2262.32
728.145	2237.75
728.332	2164.02
728.518	2221.36
728.705	2327.86
728.891	2174.26
729.077	2286.9
729.264	2311.47
729.45	2264.37
729.636	2219.32
729.823	2143.54
730.009	2270.51
730.195	2221.36
730.382	2297.14
730.568	2241.84
730.754	2202.93
730.94	2174.26
731.126	2211.12
731.313	2247.99
731.499	2198.84
731.685	2264.37
731.871	2245.94
732.057	2180.4
732.243	2340.15
732.429	2125.11
732.615	2149.68
732.801	2278.71
732.987	2147.64
733.173	2245.94
733.359	2157.88
733.545	2190.64
733.731	2166.07
733.917	2266.42
734.103	2168.12
734.289	2266.42
734.475	2204.98
734.661	2268.47
734.847	2112.82
735.033	2215.22
735.219	2276.66
735.404	2108.73
735.59	2098.49
735.776	2196.79
735.962	2196.79
736.148	2196.79
736.333	2131.25
736.519	2182.45
736.705	2200.88
736.89	2094.39
737.076	2233.65
737.262	2178.36
737.447	2143.54
737.633	2057.53
737.819	2094.39
738.004	2053.43
738.19	2114.87
738.375	2108.73
738.561	2178.36
738.747	2114.87
738.932	2080.05
739.118	2133.3
739.303	2143.54
739.489	2112.82
739.674	2047.29
739.859	2172.21
740.045	2108.73
740.23	2006.33
740.416	2063.67
740.601	1862.97
740.786	2020.66
740.972	2032.95
741.157	2057.53
741.342	1951.03
741.528	2069.81
741.713	2012.47
741.898	2016.57
742.084	1983.8
742.269	2026.81
742.454	1951.03
742.639	1928.5
742.824	1910.07
743.01	1961.27
743.195	1910.07
743.38	1881.4
743.565	1905.98
743.75	1928.5
743.935	1944.89
744.12	2032.95
744.305	1932.6
744.49	1795.39
744.675	1967.42
744.86	1983.8
745.045	1912.12
745.23	1987.89
745.415	1918.26
745.6	1836.35
745.785	1824.06
745.97	1842.49
746.155	1807.67
746.34	1797.43
746.525	1805.63
746.71	1862.97
746.895	1742.14
747.079	1799.48
747.264	1615.16
747.449	1746.23
747.634	1738.04
747.819	1746.23
748.003	1690.94
748.188	1781.05
748.373	1674.56
748.557	1695.04
748.742	1649.98
748.927	1682.75
749.111	1645.88
749.296	1602.88
749.481	1606.97
749.665	1629.5
749.85	1533.25
750.034	1664.32
750.219	1606.97
750.404	1643.84
750.588	1598.78
750.773	1633.6
750.957	1559.87
751.141	1533.25
751.326	1574.21
751.51	1477.95
751.695	1463.62
751.879	1447.23
752.064	1555.77
752.248	1543.49
752.432	1518.91
752.617	1391.94
752.801	1451.33
752.985	1404.22
753.17	1348.93
753.354	1371.46
753.538	1447.23
753.722	1488.19
753.907	1297.73
754.091	1389.89
754.275	1312.07
754.459	1307.97
754.643	1369.41
754.828	1434.94
755.012	1281.35
755.196	1377.6
755.38	1350.98
755.564	1260.87
755.748	1279.3
755.932	1273.15
756.116	1238.34
756.3	1305.92
756.484	1275.2
756.668	1246.53
756.852	1092.93
757.036	1256.77
757.22	1197.38
757.404	1131.84
757.588	1211.71
757.772	1082.69
757.956	1125.7
758.14	1285.44
758.323	1131.84
758.507	1191.24
758.691	1142.08
758.875	1168.71
759.059	1148.23
759.242	1131.84
759.426	1117.51
759.61	1144.13
759.794	1056.07
759.977	1070.4
760.161	1213.76
760.345	1027.4
760.528	1092.93
760.712	1029.45
760.895	1092.93
761.079	1078.6
761.263	992.58
761.446	1148.23
761.63	1082.69
761.813	1049.93
761.997	1000.77
762.18	945.48
762.364	1103.17
762.547	937.29
762.731	951.62
762.914	990.53
763.098	1002.82
763.281	925
763.464	1035.59
763.648	1103.17
763.831	927.05
764.015	877.9
764.198	945.48
764.381	904.52
764.564	910.66
764.748	998.73
764.931	879.94
765.114	886.09
765.297	963.91
765.481	857.42
765.664	877.9
765.847	898.38
766.03	912.71
766.213	937.29
766.397	838.98
766.58	1000.77
766.763	937.29
766.946	789.83
767.129	925
767.312	836.94
767.495	867.66
767.678	812.36
767.861	890.18
768.044	853.32
768.227	892.23
768.41	875.85
768.593	853.32
768.776	968.01
768.959	900.42
769.142	798.03
769.324	773.45
769.507	853.32
769.69	806.22
769.873	709.96
770.056	836.94
770.239	904.52
770.421	894.28
770.604	808.27
770.787	847.18
770.97	832.84
771.152	804.17
771.335	820.55
771.518	716.11
771.7	820.55
771.883	773.45
772.066	845.13
772.248	740.68
772.431	888.14
772.613	738.63
772.796	701.77
772.978	738.63
773.161	752.97
773.343	705.87
773.526	714.06
773.708	669
773.891	730.44
774.073	705.87
774.256	644.43
774.438	755.02
774.621	724.3
774.803	716.11
774.985	562.51
775.168	642.38
775.35	640.33
775.532	691.53
775.715	691.53
775.897	707.91
776.079	636.24
776.261	689.48
776.444	570.7
776.626	642.38
776.808	646.48
776.99	525.65
777.173	550.22
777.355	623.95
777.537	601.42
777.719	648.52
777.901	593.23
778.083	648.52
778.265	632.14
778.447	585.04
778.629	568.65
778.811	568.65
778.993	525.65
779.175	591.18
779.357	617.8
779.539	615.76
779.721	513.36
779.903	552.27
780.085	476.49
780.267	542.03
780.449	511.31
780.631	542.03
780.812	517.45
780.994	501.07
781.176	560.46
781.358	507.21
781.54	480.59
781.721	544.08
781.903	451.92
782.085	529.74
782.267	501.07
782.448	484.69
782.63	529.74
782.812	451.92
782.993	492.88
783.175	460.11
783.357	443.73
783.538	392.53
783.72	443.73
783.901	474.45
784.083	468.3
784.264	501.07
784.446	359.76
784.627	283.99
784.809	419.15
784.99	408.91
785.172	331.09
785.353	417.1
785.535	431.44
785.716	351.57
785.897	402.77
786.079	456.01
786.26	365.9
786.441	398.67
786.623	429.39
786.804	421.2
786.985	341.33
787.167	423.25
787.348	415.06
787.529	357.71
787.71	460.11
787.891	376.14
788.073	324.94
788.254	431.44
788.435	419.15
788.616	353.62
788.797	318.8
788.978	329.04
789.159	353.62
789.34	406.86
789.522	341.33
789.703	353.62
789.884	331.09
790.065	339.28
790.246	275.79
790.427	337.23
790.607	370
790.788	386.38
790.969	374.1
791.15	410.96
791.331	267.6
791.512	413.01
791.693	286.03
791.874	273.75
792.054	361.81
792.235	326.99
792.416	306.51
792.597	320.85
792.778	322.9
792.958	261.46
793.139	341.33
793.32	234.83
793.5	337.23
793.681	445.77
793.862	273.75
794.042	216.4
794.223	197.97
794.404	240.98
794.584	279.89
794.765	283.99
794.945	263.51
795.126	320.85
795.306	347.47
795.487	279.89
795.667	238.93
795.848	257.36
796.028	224.59
796.209	281.94
796.389	283.99
796.57	320.85
796.75	249.17
796.93	322.9
797.111	206.16
797.291	296.27
797.471	226.64
797.652	302.42
797.832	200.02
798.012	304.46
798.192	263.51
798.373	210.26
798.553	216.4
798.733	286.03
798.913	200.02
799.093	306.51
799.274	224.59
799.454	251.22
799.634	214.35
799.814	234.83
799.994	269.65
800.174	273.75
800.354	208.21
800.534	193.87
800.714	281.94
800.894	193.87
801.074	185.68
801.254	128.34
801.434	195.92
801.614	183.63
801.794	181.59
801.974	783.69
802.154	152.91
802.334	202.07
802.514	208.21
802.693	243.03
802.873	124.24
803.053	214.35
803.233	208.21
803.413	222.55
803.592	230.74
803.772	257.36
803.952	206.16
804.131	161.11
804.311	181.59
804.491	255.31
804.67	157.01
804.85	163.15
805.03	175.44
805.209	208.21
805.389	208.21
805.568	220.5
805.748	165.2
805.928	107.86
806.107	243.03
806.287	204.11
806.466	163.15
806.646	107.86
806.825	126.29
807.004	216.4
807.184	222.55
807.363	214.35
807.543	195.92
807.722	175.44
807.901	189.78
808.081	197.97
808.26	114
808.439	148.82
808.619	189.78
808.798	116.05
808.977	197.97
809.156	173.39
809.336	275.79
809.515	181.59
809.694	136.53
809.873	165.2
810.052	159.06
810.231	197.97
810.411	79.19
810.59	165.2
810.769	159.06
810.948	148.82
811.127	101.72
811.306	185.68
811.485	179.54
811.664	140.63
811.843	109.91
812.022	150.87
812.201	173.39
812.38	177.49
812.559	66.9
812.737	144.72
812.916	124.24
813.095	173.39
813.274	128.34
813.453	159.06
813.632	107.86
813.811	189.78
813.989	89.43
814.168	175.44
814.347	107.86
814.526	116.05
814.704	138.58
814.883	109.91
815.062	93.52
815.24	157.01
815.419	134.48
815.598	204.11
815.776	179.54
815.955	124.24
816.133	134.48
816.312	191.83
816.49	111.96
816.669	107.86
816.847	101.72
817.026	173.39
817.204	103.76
817.383	87.38
817.561	71
817.74	132.44
817.918	165.2
818.097	103.76
818.275	128.34
818.453	288.08
818.632	128.34
818.81	99.67
818.988	193.87
819.167	48.47
819.345	140.63
819.523	83.28
819.701	142.68
819.879	132.44
820.058	167.25
820.236	142.68
820.414	148.82
820.592	89.43
820.77	107.86
820.948	183.63
821.127	62.8
821.305	107.86
821.483	81.24
821.661	163.15
821.839	99.67
822.017	19.8
822.195	140.63
822.373	142.68
822.551	64.85
822.729	175.44
822.907	87.38
823.085	146.77
823.262	50.52
823.44	38.23
823.618	99.67
823.796	120.15
823.974	85.33
824.152	11.61
824.329	93.52
824.507	60.76
824.685	66.9
824.863	9.56
825.04	48.47
825.218	77.14
825.396	152.91
825.574	136.53
825.751	54.61
825.929	118.1
826.107	107.86
826.284	140.63
826.462	140.63
826.639	-2.73
826.817	48.47
826.994	114
827.172	138.58
827.349	165.2
827.527	109.91
827.704	179.54
827.882	136.53
828.059	142.68
828.237	42.32
828.414	85.33
828.591	36.18
828.769	169.3
828.946	109.91
829.124	111.96
829.301	185.68
829.478	56.66
829.655	124.24
829.833	46.42
830.01	68.95
830.187	132.44
830.364	64.85
830.542	17.75
830.719	68.95
830.896	138.58
831.073	140.63
831.25	124.24
831.427	111.96
831.604	91.48
831.782	79.19
831.959	52.56
832.136	68.95
832.313	93.52
832.49	93.52
832.667	66.9
832.844	11.61
833.021	111.96
833.198	38.23
833.374	103.76
833.551	62.8
833.728	93.52
833.905	87.38
834.082	83.28
834.259	36.18
834.436	93.52
834.612	52.56
834.789	126.29
834.966	42.32
835.143	68.95
835.319	68.95
835.496	118.1
835.673	87.38
835.85	85.33
836.026	7.51
836.203	27.99
836.38	93.52
836.556	132.44
836.733	87.38
836.909	165.2
837.086	-55.98
837.262	-0.68
837.439	79.19
837.616	130.39
837.792	42.32
837.968	56.66
838.145	19.8
838.321	87.38
838.498	87.38
838.674	118.1
838.851	95.57
839.027	161.11
839.203	13.65
839.38	93.52
839.556	56.66
839.732	54.61
839.909	11.61
840.085	91.48
840.261	44.37
840.437	11.61
840.614	83.28
840.79	79.19
840.966	91.48
841.142	83.28
841.318	1.37
841.494	38.23
841.671	52.56
841.847	3.41
842.023	30.04
842.199	71
842.375	120.15
842.551	52.56
842.727	60.76
842.903	134.48
843.079	-21.16
843.255	107.86
843.431	89.43
843.607	25.94
843.783	25.94
843.959	58.71
844.134	11.61
844.31	66.9
844.486	120.15
844.662	34.13
844.838	32.08
845.013	50.52
845.189	62.8
845.365	52.56
845.541	126.29
845.716	103.76
845.892	75.09
846.068	25.94
846.244	34.13
846.419	36.18
846.595	58.71
846.77	73.04
846.946	93.52
847.122	46.42
847.297	1.37
847.473	144.72
847.648	46.42
847.824	79.19
847.999	64.85
848.175	52.56
848.35	79.19
848.526	42.32
848.701	66.9
848.876	58.71
849.052	17.75
849.227	27.99
849.403	60.76
849.578	34.13
849.753	30.04
849.929	62.8
850.104	1.37
850.279	58.71
850.454	38.23
850.63	107.86
850.805	58.71
850.98	46.42
851.155	34.13
851.33	75.09
851.505	54.61
851.681	120.15
851.856	7.51
852.031	-4.78
852.206	-4.78
852.381	9.56
852.556	-21.16
852.731	-19.11
852.906	25.94
853.081	-62.12
853.256	-23.21
853.431	75.09
853.606	46.42
853.781	1.37
853.956	-4.78
854.131	56.66
854.305	62.8
854.48	79.19
854.655	58.71
854.83	17.75
855.005	58.71
855.18	95.57
855.354	21.85
855.529	50.52
855.704	7.51
855.879	21.85
856.053	27.99
856.228	36.18
856.403	58.71
856.577	120.15
856.752	50.52
856.926	54.61
857.101	-23.21
857.276	91.48
857.45	23.89
857.625	58.71
857.799	81.24
857.974	25.94
858.148	-10.92
858.323	34.13
858.497	-10.92
858.672	21.85
858.846	36.18
859.02	46.42
859.195	25.94
859.369	58.71
859.543	79.19
859.718	142.68
859.892	75.09
860.066	99.67
860.241	9.56
860.415	44.37
860.589	36.18
860.763	-15.02
860.938	36.18
861.112	17.75
861.286	1.37
861.46	87.38
861.634	-6.83
861.808	34.13
861.982	-23.21
862.157	21.85
862.331	-8.87
862.505	83.28
862.679	25.94
862.853	34.13
863.027	13.65
863.201	50.52
863.375	34.13
863.549	17.75
863.722	5.46
863.896	79.19
864.07	66.9
864.244	-23.21
864.418	-37.55
864.592	66.9
864.766	62.8
864.939	42.32
865.113	17.75
865.287	64.85
865.461	32.08
865.634	44.37
865.808	1.37
865.982	71
866.156	17.75
866.329	-70.31
866.503	34.13
866.676	105.81
866.85	5.46
867.024	-31.4
867.197	46.42
867.371	83.28
867.544	62.8
867.718	58.71
867.891	-8.87
868.065	-39.59
868.238	95.57
868.412	50.52
868.585	-10.92
868.759	-10.92
868.932	75.09
869.105	34.13
869.279	-31.4
869.452	-29.35
869.625	50.52
869.799	-10.92
869.972	34.13
870.145	25.94
870.319	9.56
870.492	107.86
870.665	-29.35
870.838	-2.73
871.011	-29.35
871.185	44.37
871.358	9.56
871.531	38.23
871.704	25.94
871.877	50.52
872.05	-29.35
872.223	3.41
872.396	-53.93
872.569	23.89
872.742	-8.87
872.915	-8.87
873.088	89.43
873.261	42.32
873.434	60.76
873.607	66.9
873.78	-6.83
873.953	-55.98
874.126	19.8
874.299	75.09
874.471	9.56
874.644	56.66
874.817	-2.73
874.99	120.15
875.163	3.41
875.335	36.18
875.508	-10.92
875.681	40.28
875.853	-15.02
876.026	-6.83
876.199	5.46
876.371	58.71
876.544	-25.26
876.717	38.23
876.889	60.76
877.062	17.75
877.234	-10.92
877.407	42.32
877.579	44.37
877.752	30.04
877.924	58.71
878.097	5.46
878.269	62.8
878.442	54.61
878.614	-55.98
878.786	11.61
878.959	34.13
879.131	-23.21
879.303	-23.21
879.476	-2.73
879.648	42.32
879.82	34.13
879.993	17.75
880.165	44.37
880.337	9.56
880.509	-0.68
880.681	-10.92
880.854	-43.69
881.026	54.61
881.198	75.09
881.37	46.42
881.542	30.04
881.714	-64.17
881.886	17.75
882.058	42.32
882.23	66.9
882.402	34.13
882.574	25.94
882.746	34.13
882.918	62.8
883.09	-35.5
883.262	-0.68
883.434	52.56
883.606	-78.51
883.778	-27.31
883.95	75.09
884.122	50.52
884.293	19.8
884.465	109.91
884.637	27.99
884.809	-27.31
884.98	38.23
885.152	5.46
885.324	1.37
885.496	32.08
885.667	19.8
885.839	21.85
886.011	25.94
886.182	-37.55
886.354	19.8
886.525	36.18
886.697	9.56
886.869	-12.97
887.04	5.46
887.212	17.75
887.383	116.05
887.555	36.18
887.726	44.37
887.897	81.24
888.069	-47.79
888.24	-0.68
888.412	17.75
888.583	19.8
888.754	-105.13
888.926	34.13
889.097	-4.78
889.268	-23.21
889.44	-27.31
889.611	-76.46
889.782	3.41
889.953	3.41
890.125	-12.97
890.296	-88.75
890.467	-47.79
890.638	-35.5
890.809	9.56
890.98	-4.78
891.151	-21.16
891.323	50.52
891.494	91.48
891.665	1.37
891.836	34.13
892.007	54.61
892.178	5.46
892.349	-2.73
892.52	9.56
892.691	1.37
892.862	54.61
893.032	-47.79
893.203	83.28
893.374	-10.92
893.545	36.18
893.716	34.13
893.887	42.32
894.057	-27.31
894.228	17.75
894.399	1.37
894.57	105.81
894.74	-21.16
894.911	75.09
895.082	-19.11
895.253	42.32
895.423	44.37
895.594	56.66
895.764	-17.07
895.935	58.71
896.106	-6.83
896.276	34.13
896.447	17.75
896.617	19.8
896.788	42.32
896.958	15.7
897.129	27.99
897.299	27.99
897.47	42.32
897.64	42.32
897.81	9.56
897.981	71
898.151	-82.6
898.322	60.76
898.492	75.09
898.662	1.37
898.832	42.32
899.003	-6.83
899.173	-43.69
899.343	34.13
899.513	-66.22
