Data from USB4F104151__178__14-20-05-935.txt Node

Date: Thu Mar 13 14:20:05 EDT 2025
User: louis
Spectrometer: USB4F10415
Trigger mode: 4
Integration Time (sec): 2.000000E-2
Scans to average: 1
Electric dark correction enabled: true
Nonlinearity correction enabled: false
Boxcar width: 0
XAxis mode: Wavelengths
Number of Pixels in Spectrum: 3648
>>>>>Begin Spectral Data<<<<<
178.204	-156.33
178.424	-156.33
178.644	-156.33
178.864	-154.28
179.084	-41.64
179.304	13.65
179.524	-0.68
179.744	-49.83
179.964	-10.92
180.184	-0.68
180.404	5.46
180.624	-55.98
180.844	30.04
181.064	9.56
181.283	42.32
181.503	-15.02
181.723	32.08
181.943	-90.79
182.163	-19.11
182.383	-4.78
182.602	-27.31
182.822	-2.73
183.042	97.62
183.262	-51.88
183.482	30.04
183.701	-47.79
183.921	46.42
184.141	-35.5
184.361	58.71
184.58	36.18
184.8	48.47
185.02	7.51
185.239	114
185.459	9.56
185.679	42.32
185.898	-64.17
186.118	17.75
186.338	46.42
186.557	38.23
186.777	13.65
186.997	30.04
187.216	-10.92
187.436	38.23
187.655	-0.68
187.875	13.65
188.095	5.46
188.314	38.23
188.534	46.42
188.753	25.94
188.973	95.57
189.192	50.52
189.412	54.61
189.631	13.65
189.851	-15.02
190.07	5.46
190.29	54.61
190.509	32.08
190.729	32.08
190.948	54.61
191.168	97.62
191.387	77.14
191.607	30.04
191.826	48.47
192.045	46.42
192.265	1.37
192.484	52.56
192.704	81.24
192.923	40.28
193.142	79.19
193.362	1.37
193.581	91.48
193.8	15.7
194.02	56.66
194.239	40.28
194.458	-0.68
194.678	13.65
194.897	105.81
195.116	-25.26
195.335	1.37
195.555	27.99
195.774	-19.11
195.993	38.23
196.212	34.13
196.432	-8.87
196.651	46.42
196.87	54.61
197.089	48.47
197.308	5.46
197.528	21.85
197.747	46.42
197.966	-19.11
198.185	44.37
198.404	30.04
198.623	46.42
198.842	32.08
199.062	48.47
199.281	19.8
199.5	101.72
199.719	-0.68
199.938	32.08
200.157	21.85
200.376	5.46
200.595	54.61
200.814	48.47
201.033	58.71
201.252	71
201.471	44.37
201.69	-4.78
201.909	62.8
202.128	52.56
202.347	48.47
202.566	-17.07
202.785	-35.5
203.004	-64.17
203.223	87.38
203.442	27.99
203.661	-25.26
203.879	21.85
204.098	13.65
204.317	13.65
204.536	13.65
204.755	105.81
204.974	56.66
205.193	30.04
205.411	79.19
205.63	-10.92
205.849	79.19
206.068	-31.4
206.287	17.75
206.505	46.42
206.724	71
206.943	17.75
207.162	-31.4
207.381	21.85
207.599	46.42
207.818	73.04
208.037	9.56
208.255	60.76
208.474	-25.26
208.693	-8.87
208.911	-12.97
209.13	-45.74
209.349	52.56
209.567	-49.83
209.786	97.62
210.005	89.43
210.223	-41.64
210.442	21.85
210.661	21.85
210.879	73.04
211.098	48.47
211.316	34.13
211.535	40.28
211.753	-35.5
211.972	-19.11
212.191	36.18
212.409	58.71
212.628	23.89
212.846	15.7
213.065	-47.79
213.283	15.7
213.502	71
213.72	-105.13
213.938	23.89
214.157	30.04
214.375	-25.26
214.594	9.56
214.812	-43.69
215.031	1.37
215.249	23.89
215.467	54.61
215.686	58.71
215.904	23.89
216.122	30.04
216.341	42.32
216.559	3.41
216.778	114
216.996	46.42
217.214	27.99
217.432	-41.64
217.651	-15.02
217.869	71
218.087	48.47
218.306	15.7
218.524	-17.07
218.742	58.71
218.96	5.46
219.179	-19.11
219.397	1.37
219.615	103.76
219.833	23.89
220.051	-58.03
220.27	21.85
220.488	13.65
220.706	-27.31
220.924	52.56
221.142	87.38
221.36	13.65
221.578	54.61
221.796	-8.87
222.015	-8.87
222.233	-45.74
222.451	40.28
222.669	38.23
222.887	32.08
223.105	23.89
223.323	73.04
223.541	-0.68
223.759	-31.4
223.977	56.66
224.195	75.09
224.413	34.13
224.631	62.8
224.849	-2.73
225.067	66.9
225.285	-23.21
225.503	54.61
225.721	-10.92
225.939	111.96
226.157	1.37
226.375	40.28
226.592	11.61
226.81	79.19
227.028	105.81
227.246	60.76
227.464	21.85
227.682	71
227.9	1.37
228.117	38.23
228.335	50.52
228.553	46.42
228.771	-4.78
228.989	64.85
229.206	50.52
229.424	32.08
229.642	1.37
229.86	11.61
230.077	97.62
230.295	30.04
230.513	1.37
230.731	13.65
230.948	9.56
231.166	46.42
231.384	48.47
231.601	-45.74
231.819	103.76
232.037	-10.92
232.254	3.41
232.472	77.14
232.689	52.56
232.907	11.61
233.125	-25.26
233.342	46.42
233.56	-23.21
233.777	-2.73
233.995	44.37
234.213	38.23
234.43	58.71
234.648	54.61
234.865	-19.11
235.083	-19.11
235.3	87.38
235.518	73.04
235.735	40.28
235.953	62.8
236.17	-43.69
236.388	34.13
236.605	42.32
236.822	-8.87
237.04	1.37
237.257	23.89
237.475	-29.35
237.692	91.48
237.909	52.56
238.127	42.32
238.344	62.8
238.562	71
238.779	44.37
238.996	30.04
239.214	1.37
239.431	27.99
239.648	42.32
239.865	111.96
240.083	85.33
240.3	36.18
240.517	-58.03
240.735	21.85
240.952	56.66
241.169	-60.07
241.386	17.75
241.603	-10.92
241.821	-15.02
242.038	27.99
242.255	54.61
242.472	-23.21
242.689	-27.31
242.907	130.39
243.124	-51.88
243.341	23.89
243.558	46.42
243.775	38.23
243.992	-72.36
244.209	48.47
244.426	136.53
244.643	81.24
244.86	15.7
245.078	30.04
245.295	40.28
245.512	-0.68
245.729	30.04
245.946	-23.21
246.163	56.66
246.38	54.61
246.597	99.67
246.814	1.37
247.031	68.95
247.248	50.52
247.464	21.85
247.681	-10.92
247.898	15.7
248.115	58.71
248.332	5.46
248.549	30.04
248.766	32.08
248.983	73.04
249.2	50.52
249.417	7.51
249.633	7.51
249.85	-15.02
250.067	5.46
250.284	-19.11
250.501	40.28
250.717	58.71
250.934	-74.41
251.151	-31.4
251.368	50.52
251.585	62.8
251.801	13.65
252.018	34.13
252.235	81.24
252.451	-25.26
252.668	-19.11
252.885	56.66
253.102	60.76
253.318	-15.02
253.535	38.23
253.752	-6.83
253.968	13.65
254.185	25.94
254.401	5.46
254.618	17.75
254.835	-62.12
255.051	13.65
255.268	21.85
255.484	13.65
255.701	38.23
255.917	103.76
256.134	-64.17
256.351	48.47
256.567	1.37
256.784	56.66
257	17.75
257.217	7.51
257.433	50.52
257.65	48.47
257.866	48.47
258.082	38.23
258.299	91.48
258.515	32.08
258.732	-45.74
258.948	-43.69
259.165	32.08
259.381	73.04
259.597	-33.45
259.814	-0.68
260.03	9.56
260.246	3.41
260.463	81.24
260.679	42.32
260.895	48.47
261.112	9.56
261.328	-37.55
261.544	-47.79
261.761	73.04
261.977	54.61
262.193	13.65
262.409	30.04
262.626	13.65
262.842	-17.07
263.058	-31.4
263.274	91.48
263.49	68.95
263.707	34.13
263.923	46.42
264.139	54.61
264.355	-41.64
264.571	-8.87
264.787	58.71
265.004	97.62
265.22	-29.35
265.436	-10.92
265.652	34.13
265.868	56.66
266.084	-39.59
266.3	81.24
266.516	-25.26
266.732	62.8
266.948	81.24
267.164	95.57
267.38	95.57
267.596	-12.97
267.812	64.85
268.028	60.76
268.244	5.46
268.46	50.52
268.676	-0.68
268.892	95.57
269.108	38.23
269.324	34.13
269.54	-27.31
269.756	32.08
269.972	13.65
270.188	17.75
270.403	-27.31
270.619	5.46
270.835	62.8
271.051	89.43
271.267	54.61
271.483	11.61
271.698	64.85
271.914	9.56
272.13	-6.83
272.346	15.7
272.562	5.46
272.777	71
272.993	9.56
273.209	44.37
273.425	25.94
273.64	17.75
273.856	114
274.072	-15.02
274.287	-19.11
274.503	-21.16
274.719	19.8
274.934	27.99
275.15	5.46
275.366	50.52
275.581	11.61
275.797	56.66
276.012	-17.07
276.228	-6.83
276.444	5.46
276.659	32.08
276.875	-60.07
277.09	-0.68
277.306	15.7
277.521	46.42
277.737	120.15
277.952	36.18
278.168	52.56
278.383	9.56
278.599	17.75
278.814	-23.21
279.03	-23.21
279.245	46.42
279.461	30.04
279.676	107.86
279.892	30.04
280.107	7.51
280.322	5.46
280.538	48.47
280.753	42.32
280.969	5.46
281.184	34.13
281.399	56.66
281.615	5.46
281.83	13.65
282.045	-2.73
282.26	7.51
282.476	-55.98
282.691	99.67
282.906	46.42
283.122	32.08
283.337	34.13
283.552	103.76
283.767	1.37
283.983	21.85
284.198	-2.73
284.413	-19.11
284.628	9.56
284.843	54.61
285.058	23.89
285.274	-17.07
285.489	48.47
285.704	32.08
285.919	54.61
286.134	17.75
286.349	42.32
286.564	-17.07
286.779	21.85
286.995	7.51
287.21	34.13
287.425	42.32
287.64	-8.87
287.855	40.28
288.07	-55.98
288.285	103.76
288.5	64.85
288.715	-21.16
288.93	5.46
289.145	32.08
289.36	15.7
289.575	-4.78
289.79	46.42
290.004	56.66
290.219	75.09
290.434	-51.88
290.649	81.24
290.864	38.23
291.079	46.42
291.294	9.56
291.509	-15.02
291.724	25.94
291.938	27.99
292.153	85.33
292.368	38.23
292.583	-43.69
292.798	58.71
293.012	91.48
293.227	46.42
293.442	38.23
293.657	46.42
293.871	-10.92
294.086	111.96
294.301	101.72
294.516	56.66
294.73	38.23
294.945	-10.92
295.16	71
295.374	62.8
295.589	97.62
295.804	64.85
296.018	5.46
296.233	30.04
296.447	9.56
296.662	-12.97
296.877	15.7
297.091	66.9
297.306	58.71
297.52	71
297.735	60.76
297.949	25.94
298.164	11.61
298.378	11.61
298.593	34.13
298.807	27.99
299.022	-10.92
299.236	89.43
299.451	40.28
299.665	30.04
299.88	1.37
300.094	11.61
300.309	38.23
300.523	-19.11
300.737	58.71
300.952	62.8
301.166	79.19
301.381	21.85
301.595	38.23
301.809	91.48
302.024	62.8
302.238	-58.03
302.452	11.61
302.667	1.37
302.881	-23.21
303.095	30.04
303.309	77.14
303.524	-31.4
303.738	-51.88
303.952	-35.5
304.166	71
304.381	21.85
304.595	68.95
304.809	-2.73
305.023	46.42
305.237	27.99
305.452	54.61
305.666	58.71
305.88	40.28
306.094	62.8
306.308	34.13
306.522	34.13
306.736	101.72
306.95	66.9
307.164	-10.92
307.379	13.65
307.593	7.51
307.807	60.76
308.021	75.09
308.235	7.51
308.449	62.8
308.663	-10.92
308.877	116.05
309.091	-4.78
309.305	105.81
309.519	-82.6
309.733	34.13
309.947	-19.11
310.161	-33.45
310.374	23.89
310.588	58.71
310.802	87.38
311.016	7.51
311.23	56.66
311.444	-15.02
311.658	23.89
311.872	42.32
312.085	101.72
312.299	68.95
312.513	46.42
312.727	13.65
312.941	-62.12
313.154	46.42
313.368	40.28
313.582	13.65
313.796	3.41
314.009	-0.68
314.223	13.65
314.437	9.56
314.651	-8.87
314.864	15.7
315.078	-12.97
315.292	-19.11
315.505	58.71
315.719	81.24
315.933	-64.17
316.146	-27.31
316.36	-19.11
316.573	77.14
316.787	23.89
317.001	77.14
317.214	-2.73
317.428	101.72
317.641	40.28
317.855	27.99
318.068	56.66
318.282	-12.97
318.495	93.52
318.709	73.04
318.922	1.37
319.136	56.66
319.349	7.51
319.563	-10.92
319.776	95.57
319.99	-64.17
320.203	21.85
320.417	42.32
320.63	54.61
320.843	109.91
321.057	9.56
321.27	62.8
321.483	44.37
321.697	128.34
321.91	38.23
322.124	44.37
322.337	-10.92
322.55	1.37
322.763	-0.68
322.977	56.66
323.19	21.85
323.403	44.37
323.617	58.71
323.83	42.32
324.043	34.13
324.256	9.56
324.469	40.28
324.683	17.75
324.896	95.57
325.109	56.66
325.322	11.61
325.535	38.23
325.748	73.04
325.962	40.28
326.175	79.19
326.388	89.43
326.601	23.89
326.814	1.37
327.027	25.94
327.24	62.8
327.453	-60.07
327.666	-2.73
327.879	40.28
328.092	1.37
328.305	30.04
328.518	1.37
328.731	46.42
328.944	38.23
329.157	13.65
329.37	-8.87
329.583	146.77
329.796	62.8
330.009	48.47
330.222	42.32
330.435	-15.02
330.648	73.04
330.861	7.51
331.073	62.8
331.286	19.8
331.499	50.52
331.712	64.85
331.925	-2.73
332.138	48.47
332.35	126.29
332.563	34.13
332.776	95.57
332.989	25.94
333.202	91.48
333.414	9.56
333.627	-8.87
333.84	-45.74
334.053	95.57
334.265	-17.07
334.478	73.04
334.691	68.95
334.903	46.42
335.116	-6.83
335.329	52.56
335.541	5.46
335.754	58.71
335.966	58.71
336.179	87.38
336.392	32.08
336.604	87.38
336.817	62.8
337.029	73.04
337.242	30.04
337.454	109.91
337.667	38.23
337.88	-2.73
338.092	-60.07
338.305	62.8
338.517	11.61
338.729	21.85
338.942	9.56
339.154	54.61
339.367	62.8
339.579	50.52
339.792	38.23
340.004	58.71
340.217	54.61
340.429	-27.31
340.641	17.75
340.854	15.7
341.066	50.52
341.278	71
341.491	15.7
341.703	101.72
341.915	38.23
342.128	21.85
342.34	122.2
342.552	77.14
342.764	62.8
342.977	62.8
343.189	60.76
343.401	-2.73
343.613	38.23
343.826	95.57
344.038	-23.21
344.25	5.46
344.462	1.37
344.674	1.37
344.886	64.85
345.099	13.65
345.311	5.46
345.523	30.04
345.735	89.43
345.947	15.7
346.159	46.42
346.371	52.56
346.583	25.94
346.795	66.9
347.007	-25.26
347.219	54.61
347.431	23.89
347.643	138.58
347.855	56.66
348.067	107.86
348.279	71
348.491	83.28
348.703	126.29
348.915	5.46
349.127	27.99
349.339	68.95
349.551	-39.59
349.763	27.99
349.975	54.61
350.187	103.76
350.399	71
350.61	107.86
350.822	13.65
351.034	15.7
351.246	73.04
351.458	-17.07
351.669	85.33
351.881	32.08
352.093	105.81
352.305	27.99
352.517	56.66
352.728	73.04
352.94	54.61
353.152	75.09
353.363	-12.97
353.575	71
353.787	38.23
353.999	97.62
354.21	120.15
354.422	75.09
354.633	56.66
354.845	21.85
355.057	23.89
355.268	-8.87
355.48	56.66
355.692	17.75
355.903	58.71
356.115	52.56
356.326	-35.5
356.538	38.23
356.749	48.47
356.961	79.19
357.172	17.75
357.384	-2.73
357.595	73.04
357.807	54.61
358.018	3.41
358.23	9.56
358.441	85.33
358.653	71
358.864	64.85
359.075	71
359.287	75.09
359.498	25.94
359.709	42.32
359.921	27.99
360.132	62.8
360.344	30.04
360.555	38.23
360.766	21.85
360.977	40.28
361.189	71
361.4	-39.59
361.611	42.32
361.823	83.28
362.034	38.23
362.245	-45.74
362.456	132.44
362.667	89.43
362.879	75.09
363.09	1.37
363.301	73.04
363.512	46.42
363.723	-10.92
363.935	27.99
364.146	105.81
364.357	-6.83
364.568	54.61
364.779	91.48
364.99	71
365.201	36.18
365.412	54.61
365.623	-31.4
365.834	46.42
366.045	50.52
366.256	30.04
366.467	-62.12
366.678	-19.11
366.889	79.19
367.1	13.65
367.311	87.38
367.522	111.96
367.733	36.18
367.944	103.76
368.155	79.19
368.366	38.23
368.577	38.23
368.788	75.09
368.999	38.23
369.209	9.56
369.42	120.15
369.631	23.89
369.842	54.61
370.053	34.13
370.264	81.24
370.474	-0.68
370.685	19.8
370.896	38.23
371.107	103.76
371.317	79.19
371.528	32.08
371.739	27.99
371.95	56.66
372.16	120.15
372.371	54.61
372.582	13.65
372.792	21.85
373.003	46.42
373.214	120.15
373.424	99.67
373.635	34.13
373.846	54.61
374.056	7.51
374.267	111.96
374.477	9.56
374.688	21.85
374.898	48.47
375.109	122.2
375.319	1.37
375.53	87.38
375.74	79.19
375.951	-17.07
376.161	48.47
376.372	21.85
376.582	62.8
376.793	73.04
377.003	13.65
377.214	97.62
377.424	44.37
377.635	79.19
377.845	46.42
378.055	48.47
378.266	30.04
378.476	62.8
378.686	66.9
378.897	114
379.107	40.28
379.317	83.28
379.528	71
379.738	40.28
379.948	38.23
380.158	23.89
380.369	40.28
380.579	66.9
380.789	91.48
380.999	77.14
381.21	109.91
381.42	66.9
381.63	21.85
381.84	32.08
382.05	46.42
382.261	93.52
382.471	64.85
382.681	48.47
382.891	48.47
383.101	62.8
383.311	-45.74
383.521	73.04
383.731	83.28
383.941	85.33
384.151	27.99
384.361	30.04
384.571	73.04
384.781	64.85
384.991	97.62
385.201	60.76
385.411	42.32
385.621	17.75
385.831	126.29
386.041	46.42
386.251	144.72
386.461	62.8
386.671	103.76
386.881	95.57
387.091	77.14
387.301	95.57
387.511	30.04
387.72	62.8
387.93	9.56
388.14	60.76
388.35	71
388.56	48.47
388.769	111.96
388.979	54.61
389.189	48.47
389.399	-8.87
389.609	15.7
389.818	58.71
390.028	46.42
390.238	62.8
390.447	15.7
390.657	140.63
390.867	116.05
391.076	89.43
391.286	13.65
391.496	95.57
391.705	73.04
391.915	146.77
392.125	109.91
392.334	62.8
392.544	103.76
392.753	-17.07
392.963	-66.22
393.172	54.61
393.382	105.81
393.591	93.52
393.801	95.57
394.01	111.96
394.22	54.61
394.429	50.52
394.639	89.43
394.848	30.04
395.058	109.91
395.267	99.67
395.477	79.19
395.686	58.71
395.895	111.96
396.105	124.24
396.314	99.67
396.524	103.76
396.733	58.71
396.942	111.96
397.152	138.58
397.361	191.83
397.57	64.85
397.78	91.48
397.989	87.38
398.198	152.92
398.407	111.96
398.617	93.52
398.826	64.85
399.035	75.09
399.244	107.86
399.453	64.85
399.663	13.65
399.872	111.96
400.081	44.37
400.29	56.66
400.499	56.66
400.708	62.8
400.917	73.04
401.127	87.38
401.336	77.14
401.545	161.11
401.754	103.76
401.963	140.63
402.172	105.81
402.381	107.86
402.59	187.73
402.799	87.38
403.008	13.65
403.217	87.38
403.426	87.38
403.635	122.2
403.844	185.68
404.053	89.43
404.262	161.11
404.471	193.87
404.68	114
404.888	177.49
405.097	163.15
405.306	181.59
405.515	179.54
405.724	114
405.933	146.77
406.142	181.59
406.35	154.96
406.559	212.31
406.768	187.73
406.977	206.16
407.185	245.07
407.394	277.84
407.603	269.65
407.812	185.68
408.02	226.64
408.229	140.63
408.438	306.51
408.646	150.87
408.855	202.07
409.064	292.18
409.272	253.27
409.481	279.89
409.69	322.9
409.898	243.03
410.107	443.73
410.315	390.48
410.524	281.94
410.733	326.99
410.941	300.37
411.15	384.34
411.358	329.04
411.567	458.06
411.775	425.29
411.984	488.78
412.192	443.73
412.401	458.06
412.609	484.69
412.818	537.93
413.026	636.24
413.234	558.41
413.443	537.93
413.651	587.08
413.86	630.09
414.068	681.29
414.276	664.91
414.485	693.58
414.693	701.77
414.901	759.11
415.11	877.9
415.318	746.83
415.526	802.12
415.734	818.5
415.943	890.18
416.151	859.46
416.359	925
416.567	955.72
416.776	941.38
416.984	1082.69
417.192	1023.3
417.4	1027.4
417.608	1054.02
417.817	1082.69
418.025	1244.48
418.233	1244.48
418.441	1133.89
418.649	1250.63
418.857	1455.42
419.065	1447.23
419.273	1430.85
419.481	1340.74
419.689	1590.59
419.897	1516.86
420.105	1580.35
420.313	1520.96
420.521	1678.65
420.729	1795.39
420.937	1867.06
421.145	1867.06
421.353	1899.83
421.561	1922.36
421.769	2108.73
421.977	2172.21
422.185	2178.36
422.393	2331.95
422.601	2422.06
422.809	2426.16
423.017	2456.88
423.224	2587.95
423.432	2708.78
423.64	2663.72
423.848	2979.11
424.056	2876.71
424.263	2975.02
424.471	3011.88
424.679	3054.89
424.887	3306.79
425.094	3405.09
425.302	3337.51
425.51	3534.11
425.718	3534.11
425.925	3656.99
426.133	3781.92
426.341	4111.64
426.548	4078.87
426.756	4224.28
426.964	4289.81
427.171	4521.23
427.379	4300.05
427.586	4697.36
427.794	4816.14
428.001	4963.59
428.209	5207.3
428.417	5154.05
428.624	5469.44
428.832	5565.7
429.039	5405.95
429.247	5494.02
429.454	5854.46
429.662	6325.49
429.869	5838.08
430.076	6382.84
430.284	6085.88
430.491	6317.3
430.699	6743.28
430.906	6733.04
431.114	6995.18
431.321	7109.86
431.528	7437.54
431.736	7849.18
431.943	8142.04
432.15	7867.61
432.358	8031.45
432.565	8404.18
432.772	8330.45
432.979	8799.44
433.187	9096.39
433.394	9041.1
433.601	9700.55
433.808	9671.87
434.016	9637.06
434.223	9880.77
434.43	10798.26
434.637	10427.57
434.844	10978.48
435.052	11244.71
435.259	11254.95
435.466	11293.86
435.673	11213.99
435.88	11824.29
436.087	12371.1
436.294	12436.63
436.501	12199.07
436.708	12440.73
436.915	12850.32
437.122	13569.16
437.329	13438.09
437.537	13651.08
437.743	14238.84
437.95	13966.46
438.157	14513.27
438.364	15176.81
438.571	15064.18
438.778	15090.8
438.985	16587.86
439.192	15557.74
439.399	16282.72
439.606	16100.45
439.813	17056.85
440.02	18193.47
440.227	17738.82
440.433	17546.31
440.64	18019.39
440.847	18019.39
441.054	18592.83
441.261	19649.58
441.467	19401.77
441.674	19674.15
441.881	20522.01
442.088	20368.41
442.294	20032.55
442.501	20597.79
442.708	21400.59
442.914	21873.67
443.121	23034.87
443.328	22017.03
443.534	23786.47
443.741	23344.11
443.948	23051.25
444.154	24458.21
444.361	24243.17
444.568	24447.97
444.774	24378.34
444.981	24519.65
445.187	25293.78
445.394	26715.07
445.6	26213.32
445.807	28689.31
446.013	27569.07
446.22	27773.87
446.426	29000.6
446.633	29119.38
446.839	30190.47
447.046	29012.89
447.252	30233.48
447.459	30983.04
447.665	30440.32
447.871	31718.26
448.078	32981.85
448.284	31726.45
448.491	32576.36
448.697	33960.78
448.903	34562.89
449.11	34495.3
449.316	33807.19
449.522	34304.84
449.728	35517.24
449.935	35431.22
450.141	35619.64
450.347	36684.58
450.553	35427.13
450.76	35466.04
450.966	37085.98
451.172	36449.07
451.378	37327.64
451.584	36713.25
451.791	37677.85
451.997	37317.4
452.203	38341.39
452.409	38345.48
452.615	37866.26
452.821	36614.95
453.027	36059.95
453.233	38218.51
453.44	36700.97
453.646	37323.55
453.852	37499.67
454.058	37817.11
454.264	36760.36
454.47	37270.3
454.676	36395.82
454.882	38058.77
455.088	34642.76
455.294	35154.75
455.5	35773.24
455.705	36109.1
455.911	34530.12
456.117	34022.22
456.323	33348.44
456.529	31695.73
456.735	33299.29
456.941	32334.7
457.147	31763.31
457.352	31021.95
457.558	30614.4
457.764	30772.1
457.97	29928.33
458.176	29563.79
458.381	29453.2
458.587	27999.15
458.793	27626.42
458.999	26584
459.204	28382.12
459.41	27780.01
459.616	25641.93
459.821	26090.44
460.027	25920.46
460.233	25168.85
460.438	24126.44
460.644	24482.78
460.85	22799.35
461.055	22854.65
461.261	22518.78
461.466	21310.48
461.672	20390.94
461.878	22057.99
462.083	20419.61
462.289	20020.26
462.494	20018.21
462.7	19174.45
462.905	18422.84
463.111	18936.88
463.316	19223.6
463.522	18693.18
463.727	18719.8
463.932	18992.18
464.138	18254.91
464.343	18601.02
464.549	18023.49
464.754	18373.69
464.959	18680.89
465.165	18080.83
465.37	17597.51
465.575	17157.2
465.781	18007.11
465.986	18117.7
466.191	17235.02
466.397	16682.07
466.602	16153.69
466.807	16708.69
467.012	16759.89
467.218	16682.07
467.423	16401.5
467.628	16350.3
467.833	17306.7
468.038	16841.81
468.244	16090.21
468.449	16841.81
468.654	16211.04
468.859	15977.57
469.064	15955.04
469.269	15287.4
469.474	15377.51
469.679	15684.71
469.885	15502.44
470.09	15455.34
470.295	15109.23
470.5	14988.4
470.705	15103.09
470.91	14789.75
471.115	14865.52
471.32	14994.54
471.525	14646.39
471.73	14378.11
471.935	14558.33
472.139	14052.48
472.344	13964.42
472.549	14144.64
472.754	13728.9
472.959	13542.53
473.164	13214.86
473.369	13300.87
473.574	13472.9
473.778	13356.17
473.983	13290.63
474.188	13104.27
474.393	12743.83
474.598	12762.26
474.802	12633.24
475.007	12418.2
475.212	12645.52
475.417	12117.15
475.621	12289.18
475.826	12192.92
476.031	11705.51
476.235	11777.19
476.44	11959.45
476.645	11359.4
476.849	11760.8
477.054	11621.54
477.259	11474.09
477.463	11277.48
477.668	11117.74
477.872	11254.95
478.077	10820.78
478.282	10878.13
478.486	10368.18
478.691	10548.4
478.895	10452.15
479.1	10486.97
479.304	10388.66
479.509	10138.81
479.713	10564.79
479.918	10278.07
480.122	9948.35
480.326	10327.22
480.531	10130.62
480.735	9786.56
480.94	9819.33
481.144	10200.25
481.348	9835.71
481.553	9907.39
481.757	9780.42
481.961	9938.11
482.166	9983.17
482.37	9733.31
482.574	9452.74
482.778	9802.94
482.983	9778.37
483.187	9647.3
483.391	9573.57
483.595	9626.82
483.8	9782.46
484.004	9727.17
484.208	9925.82
484.412	9618.63
484.616	9665.73
484.821	9733.31
485.025	9491.65
485.229	9778.37
485.433	9567.43
485.637	9610.43
485.841	9647.3
486.045	9501.89
486.249	9559.24
486.453	9608.39
486.657	9540.8
486.861	9718.98
487.065	9452.74
487.269	9483.46
487.473	9401.54
487.677	9692.35
487.881	9782.46
488.085	9751.74
488.289	9757.89
488.493	9671.87
488.697	9708.74
488.901	9704.64
489.105	9817.28
489.309	9807.04
489.512	9770.18
489.716	9823.42
489.92	9645.25
490.124	9655.49
490.328	10073.28
490.531	9778.37
490.735	9893.05
490.939	9981.12
491.143	9962.69
491.346	9811.14
491.55	10085.56
491.754	9868.48
491.958	10239.16
492.161	9946.3
492.365	10073.28
492.569	10327.22
492.772	10159.29
492.976	10185.91
493.18	10337.46
493.383	10407.09
493.587	10384.57
493.79	10628.28
493.994	10269.88
494.197	10577.08
494.401	10630.32
494.605	10710.19
494.808	10896.56
495.012	10859.7
495.215	10876.08
495.419	11023.53
495.622	10853.55
495.825	11304.1
496.029	11097.26
496.232	11465.89
496.436	11240.62
496.639	11558.05
496.843	11621.54
497.046	11717.79
497.249	11807.91
497.453	12186.78
497.656	12102.81
497.859	11920.54
498.063	12424.34
498.266	12524.69
498.469	12405.91
498.673	12569.75
498.876	12772.5
499.079	12948.62
499.282	12883.09
499.485	13114.51
499.689	13137.04
499.892	13405.32
500.095	13440.14
500.298	13554.82
500.501	13673.6
500.705	13907.07
500.908	14140.54
501.111	14347.39
501.314	14392.44
501.517	14505.08
501.72	14677.11
501.923	14535.8
502.126	14922.87
502.329	15080.56
502.532	15144.05
502.735	15326.32
502.938	15670.37
503.141	15563.88
503.344	15959.14
503.547	16110.69
503.75	16088.16
503.953	16733.27
504.156	16540.76
504.359	16925.78
504.562	16903.25
504.765	17095.76
504.968	17273.93
505.17	17456.2
505.373	17470.54
505.576	17851.46
505.779	17976.39
505.982	18256.96
506.185	18426.94
506.387	18424.89
506.59	18529.34
506.793	18938.93
506.996	18723.9
507.198	19575.85
507.401	19391.53
507.604	19811.37
507.807	19960.87
508.009	20229.15
508.212	20489.24
508.415	20442.14
508.617	20821.02
508.82	20841.5
509.022	20755.48
509.225	21062.68
509.428	21652.49
509.63	21470.22
509.833	21935.11
510.035	22244.35
510.238	22014.98
510.44	22320.13
510.643	22768.63
510.845	22995.96
511.048	22823.93
511.25	23098.36
511.453	23403.5
511.655	24110.05
511.858	23831.53
512.06	24140.77
512.262	24302.56
512.465	24036.33
512.667	24660.96
512.87	25002.97
513.072	25066.45
513.274	25428.95
513.477	25834.44
513.679	26037.19
513.881	25945.03
514.084	26500.03
514.286	26438.59
514.488	26467.27
514.69	26999.74
514.893	27282.36
515.095	27413.43
515.297	27560.88
515.499	27675.57
515.701	28281.77
515.904	28367.78
516.106	28668.83
516.308	28740.51
516.51	29158.3
516.712	29416.34
516.914	29393.81
517.116	30090.12
517.318	30016.4
517.52	29940.62
517.722	30382.98
517.925	31038.33
518.127	31181.69
518.329	31490.93
518.531	31525.75
518.733	31753.07
518.935	31906.67
519.136	32000.88
519.338	32541.54
519.54	32621.41
519.742	33102.68
519.944	32867.17
520.146	33272.67
520.348	33551.19
520.55	33473.37
520.752	33932.11
520.954	34333.51
521.155	33895.25
521.357	34620.23
521.559	35128.13
521.761	35449.66
521.963	35502.9
522.164	35185.47
522.366	35687.22
522.568	35924.79
522.77	36102.96
522.971	36627.24
523.173	36391.72
523.375	36444.97
523.576	36682.53
523.778	36985.63
523.98	36903.71
524.181	37366.56
524.383	37759.77
524.584	38251.28
524.786	37841.68
524.988	38009.62
525.189	38222.61
525.391	38550.28
525.592	39041.79
525.794	38527.75
525.995	38869.76
526.197	38935.3
526.398	39123.71
526.6	39062.27
526.801	39375.61
527.003	39471.87
527.204	39955.19
527.406	39887.6
527.607	39965.43
527.808	40475.37
528.01	39422.72
528.211	40299.25
528.412	40700.65
528.614	40518.38
528.815	40477.42
529.016	40796.9
529.218	40469.23
529.419	41333.47
529.62	40794.85
529.822	40743.66
530.023	41069.28
530.224	40751.85
530.425	40815.33
530.626	40932.07
530.828	40889.06
531.029	41665.24
531.23	41093.86
531.431	40866.53
531.632	41149.15
531.833	41147.11
532.035	41243.36
532.236	41423.58
532.437	41521.88
532.638	41290.46
532.839	41726.68
533.04	41603.8
533.241	41145.06
533.442	41863.89
533.643	42068.69
533.844	41218.78
534.045	42023.64
534.246	41536.22
534.447	41829.08
534.648	41167.59
534.849	41757.4
535.05	41525.98
535.251	41722.58
535.451	41491.16
535.652	41841.37
535.853	42119.89
536.054	42050.26
536.255	41468.64
536.456	41704.15
536.657	41870.04
536.857	41603.8
537.058	41769.69
537.259	41777.88
537.46	41525.98
537.66	41837.27
537.861	41667.29
538.062	41618.14
538.263	41509.6
538.463	41503.45
538.664	41562.84
538.865	41337.57
539.065	41855.7
539.266	41267.94
539.466	41779.93
539.667	40864.49
539.868	41843.41
540.068	41540.32
540.269	41448.16
540.469	41765.59
540.67	41390.81
540.87	41534.17
541.071	41382.62
541.271	41415.39
541.472	41525.98
541.672	40975.08
541.873	41290.46
542.073	41067.23
542.274	41763.54
542.474	41192.16
542.675	40987.36
542.875	41300.7
543.075	41366.24
543.276	40870.63
543.476	41607.9
543.676	40583.91
543.877	41482.97
544.077	41282.27
544.277	41237.22
544.478	41482.97
544.678	41396.96
544.878	41083.62
545.078	41153.25
545.279	40991.46
545.479	41331.42
545.679	41472.73
545.879	41007.84
546.079	41450.2
546.28	41290.46
546.48	40915.68
546.68	41272.03
546.88	40807.14
547.08	41337.57
547.28	40950.5
547.48	40751.85
547.68	40962.79
547.88	40649.45
548.081	40911.59
548.281	41132.77
548.481	40735.46
548.681	41218.78
548.881	41177.82
549.081	41083.62
549.28	41061.09
549.48	41345.76
549.68	40825.57
549.88	41405.15
550.08	40702.7
550.28	41243.36
550.48	40757.99
550.68	40678.12
550.88	40682.22
551.08	40882.92
551.279	40827.62
551.479	40651.5
551.679	41102.05
551.879	40426.22
552.079	40803.05
552.278	40626.92
552.478	40626.92
552.678	40674.02
552.878	41022.18
553.077	40461.04
553.277	40332.01
553.477	41171.68
553.676	40676.07
553.876	40225.52
554.076	40684.26
554.275	40702.7
554.475	40121.07
554.674	40553.19
554.874	40458.99
555.074	40127.22
555.273	40450.8
555.473	40778.47
555.672	40045.3
555.872	40428.27
556.071	40626.92
556.271	40473.32
556.47	40610.54
556.67	39891.7
556.869	40098.55
557.068	40323.82
557.268	40202.99
557.467	40377.07
557.667	39658.23
557.866	40035.06
558.065	40395.5
558.265	39852.79
558.464	39691
558.663	40116.98
558.863	39437.05
559.062	39983.86
559.261	39445.24
559.461	39979.76
559.66	39467.77
559.859	39629.56
560.058	39234.3
560.258	39379.71
560.457	39052.03
560.656	39461.63
560.855	39609.08
561.054	39224.06
561.253	38900.48
561.453	39123.71
561.652	39717.62
561.851	39508.73
562.05	38699.78
562.249	38841.09
562.448	38884.1
562.647	39176.96
562.846	38777.61
563.045	39023.36
563.244	38249.23
563.443	38996.74
563.642	38331.15
563.841	38472.46
564.04	38587.14
564.239	38822.66
564.438	38099.73
564.637	38650.63
564.836	38425.35
565.035	37931.79
565.234	38433.55
565.432	38259.47
565.631	38159.12
565.83	38331.15
566.029	37870.36
566.228	37706.52
566.427	37880.6
566.625	37552.92
566.824	37081.89
567.023	37536.54
567.222	37108.51
567.42	37604.12
567.619	37524.25
567.818	37223.2
568.016	37077.79
568.215	37622.55
568.414	37219.1
568.612	37391.13
568.811	37040.93
569.01	37233.44
569.208	36940.58
569.407	37010.21
569.605	36352.81
569.804	36995.87
570.002	36715.3
570.201	36723.49
570.4	36268.84
570.598	36412.2
570.797	36330.28
570.995	36354.86
571.193	35894.07
571.392	36340.52
571.59	35939.12
571.789	35932.98
571.987	35826.48
572.186	35867.44
572.384	35705.65
572.582	35763
572.781	35846.96
572.979	35234.62
573.177	35414.84
573.376	35566.39
573.574	35283.77
573.772	35349.31
573.971	35160.89
574.169	34982.72
574.367	35191.61
574.565	35187.52
574.763	34970.43
574.962	34693.96
575.16	34251.59
575.358	34493.25
575.556	34108.24
575.754	34732.87
575.952	34362.18
576.151	34548.55
576.349	34073.42
576.547	34020.17
576.745	34130.76
576.943	34024.27
577.141	34265.93
577.339	33913.68
577.537	34044.75
577.735	33706.83
577.933	33336.15
578.131	33846.1
578.329	33252.19
578.527	33207.13
578.725	33461.08
578.923	33493.85
579.121	33071.96
579.319	33196.89
579.516	33033.05
579.714	33006.43
579.912	32705.38
580.11	32758.63
580.308	32910.18
580.506	32598.88
580.704	32013.16
580.901	32396.14
581.099	32342.89
581.297	32115.56
581.495	32211.82
581.692	32289.64
581.89	31925.1
582.088	32320.36
582.285	31859.57
582.483	31992.69
582.681	32043.88
582.878	31802.22
583.076	31609.71
583.274	31744.88
583.471	31413.11
583.669	31540.08
583.866	31196.03
584.064	31851.38
584.262	31089.53
584.459	31456.12
584.657	31079.29
584.854	31241.08
585.052	30391.17
585.249	31052.67
585.447	30798.72
585.644	30684.03
585.841	30851.97
586.039	30825.34
586.236	30151.56
586.434	30282.63
586.631	30315.4
586.828	30256.01
587.026	30233.48
587.223	30202.76
587.42	30032.78
587.618	30229.38
587.815	29569.94
588.012	29821.84
588.21	29481.88
588.407	29856.65
588.604	29338.52
588.801	29475.73
588.999	29184.92
589.196	29379.48
589.393	29434.77
589.59	29135.77
589.787	29162.39
589.984	28734.37
590.182	29055.9
590.379	29080.47
590.576	28857.24
590.773	28738.46
590.97	28631.97
591.167	28806.05
591.364	28570.53
591.561	28552.1
591.758	28132.26
591.955	28249
592.152	28472.23
592.349	27829.16
592.546	28162.98
592.743	28208.04
592.94	27470.77
593.137	27700.14
593.334	28197.8
593.531	27640.75
593.727	27626.42
593.924	27640.75
594.121	27143.1
594.318	27323.32
594.515	27083.7
594.712	27278.26
594.908	27102.14
595.105	27294.64
595.302	26643.39
595.499	26848.19
595.696	26911.67
595.892	26911.67
596.089	26919.87
596.286	26680.25
596.482	26753.98
596.679	26385.35
596.876	26534.85
597.072	26504.13
597.269	26211.27
597.466	26067.91
597.662	25959.37
597.859	26278.85
598.055	26043.34
598.252	25730
598.448	25549.78
598.645	25609.17
598.841	25455.57
599.038	25643.98
599.234	25785.29
599.431	25338.83
599.627	25297.88
599.824	25453.52
600.02	25375.7
600.217	25365.46
600.413	25578.45
600.609	25197.52
600.806	24959.96
601.002	25002.97
601.198	24734.68
601.395	24437.73
601.591	24781.79
601.787	24593.37
601.984	24269.79
602.18	24824.79
602.376	24507.36
602.572	24517.6
602.769	24454.11
602.965	23929.83
603.161	24275.94
603.357	23999.46
603.553	24062.95
603.75	23962.6
603.946	23909.35
604.142	23806.95
604.338	23630.83
604.534	23841.77
604.73	23548.91
604.926	23421.94
605.122	23235.57
605.318	23344.11
605.514	23352.31
605.71	23129.08
605.906	23362.54
606.102	23249.91
606.298	23221.24
606.494	23204.85
606.69	22981.62
606.886	23284.72
607.082	22785.02
607.278	23059.45
607.474	22539.26
607.67	22946.81
607.866	22477.82
608.062	23049.21
608.257	22682.62
608.453	22445.05
608.649	22526.97
608.845	22617.08
609.041	22373.38
609.236	22322.18
609.432	22285.31
609.628	22348.8
609.824	22115.33
610.019	21912.58
610.215	21990.41
610.411	22068.23
610.606	21863.43
610.802	21969.93
610.998	21998.6
611.193	21865.48
611.389	21744.65
611.584	21863.43
611.78	21933.06
611.976	21498.89
612.171	21730.31
612.367	21507.09
612.562	21486.61
612.758	21226.51
612.953	21105.68
613.149	21668.87
613.344	21353.49
613.539	21648.4
613.735	21410.83
613.93	21421.07
614.126	21330.96
614.321	21470.22
614.517	21206.03
614.712	21502.99
614.907	21060.63
615.103	21113.88
615.298	21165.07
615.493	21099.54
615.688	20683.8
615.884	21085.2
616.079	20888.6
616.274	20790.3
616.47	21021.72
616.665	20849.69
616.86	20714.52
617.055	20847.64
617.25	20614.17
617.445	20573.21
617.641	20210.72
617.836	20431.9
618.031	20073.51
618.226	20632.6
618.421	20159.52
618.616	20202.53
618.811	19831.85
619.006	20687.9
619.201	19930.15
619.396	20067.36
619.591	19584.04
619.786	19899.43
619.981	19594.28
620.176	19991.59
620.371	19504.17
620.566	19694.63
620.761	19561.51
620.956	19743.78
621.151	19082.29
621.346	19323.95
621.541	19225.65
621.735	19137.59
621.93	18914.36
622.125	18832.44
622.32	18766.9
622.515	18801.72
622.709	18502.72
622.904	18531.39
623.099	18381.88
623.294	18396.22
623.488	18000.96
623.683	18068.55
623.878	17794.12
624.072	17830.98
624.267	17923.14
624.462	17835.08
624.656	17671.24
624.851	17423.44
625.046	17480.78
625.24	17478.73
625.435	17304.65
625.629	17333.32
625.824	17091.66
626.018	16987.22
626.213	16577.62
626.407	17040.47
626.602	16598.1
626.796	16798.81
626.991	16766.04
627.185	16454.75
627.38	16395.36
627.574	16321.63
627.768	16231.52
627.963	15957.09
628.157	16202.85
628.352	16000.1
628.546	15717.48
628.74	15940.71
628.935	15338.6
629.129	15680.61
629.323	15320.17
629.517	15449.19
629.712	15234.16
629.906	15481.96
630.1	15127.66
630.294	15213.68
630.489	15158.38
630.683	15142
630.877	14988.4
631.071	14713.97
631.265	14840.95
631.459	14759.03
631.653	14521.46
631.848	14541.94
632.042	14705.78
632.236	14425.21
632.43	14181.5
632.624	14357.63
632.818	14146.69
633.012	14099.58
633.206	13966.46
633.4	14304.38
633.594	13759.62
633.788	14091.39
633.982	13661.32
634.176	13751.43
634.369	13733
634.563	13474.95
634.757	13268.11
634.951	13487.24
635.145	13458.57
635.339	13479.05
635.533	13073.55
635.726	13116.56
635.92	13038.73
636.114	13079.69
636.308	12936.34
636.501	12838.03
636.695	12979.34
636.889	12825.75
637.083	12670.1
637.276	12749.97
637.47	12762.26
637.664	12496.02
637.857	12410.01
638.051	12547.22
638.244	12115.1
638.438	12326.04
638.632	12444.82
638.825	12326.04
639.019	12199.07
639.212	11768.99
639.406	11934.88
639.599	11869.34
639.793	11582.63
639.986	11592.87
640.18	11603.11
640.373	11750.56
640.567	11355.3
640.76	11537.57
640.954	11549.86
641.147	11273.39
641.34	11257
641.534	11195.56
641.727	11254.95
641.92	11197.61
642.114	10970.29
642.307	11044.01
642.5	10970.29
642.694	10919.09
642.887	10673.33
643.08	10853.55
643.273	10910.89
643.467	10759.35
643.66	10679.47
643.853	10501.3
644.046	10306.74
644.239	10544.31
644.432	10163.39
644.626	10335.42
644.819	10417.33
645.012	10341.56
645.205	10144.95
645.398	10237.11
645.591	10212.54
645.784	10038.46
645.977	9874.62
646.17	9870.53
646.363	9993.4
646.556	9575.62
646.749	9608.39
646.942	9936.06
647.135	9649.35
647.328	9655.49
647.521	9448.65
647.714	9546.95
647.907	9493.7
648.099	9434.31
648.292	9393.35
648.485	9467.08
648.678	9336.01
648.871	9133.26
649.064	9411.78
649.256	9229.51
649.449	9082.06
649.642	9110.73
649.835	9053.39
650.027	8895.69
650.22	8828.11
650.413	9077.96
650.605	9010.38
650.798	8705.23
650.991	8707.28
651.183	8617.17
651.376	8475.86
651.568	8584.4
651.761	8553.68
651.954	8639.7
652.146	8551.63
652.339	8418.52
652.531	8281.3
652.724	8361.17
652.916	8221.91
653.109	8211.67
653.301	8475.86
653.494	8213.72
653.686	8131.8
653.879	8230.1
654.071	7886.05
654.263	7994.59
654.456	7953.63
654.648	8010.97
654.84	7783.65
655.033	8013.02
655.225	8047.83
655.417	7654.62
655.61	7662.82
655.802	7877.85
655.994	7707.87
656.186	7757.02
656.379	7478.5
656.571	7699.68
656.763	7339.24
656.955	7533.79
657.148	7492.84
657.34	7451.88
657.532	7412.96
657.724	7355.62
657.916	7435.49
658.108	7324.9
658.3	7011.56
658.492	7197.93
658.684	6993.13
658.876	7052.52
659.068	6956.27
659.26	7062.76
659.452	6960.36
659.644	6950.12
659.836	6964.46
660.028	6894.83
660.22	6632.69
660.412	6630.64
660.604	6728.94
660.796	6774
660.988	6718.7
661.18	6587.63
661.372	6524.15
661.563	6661.36
661.755	6440.18
661.947	6513.91
662.139	6540.53
662.331	6479.09
662.522	6395.12
662.714	6370.55
662.906	6292.73
663.097	6239.48
663.289	6354.16
663.481	6196.47
663.673	6401.27
663.864	6153.46
664.056	6171.9
664.247	6139.13
664.439	5946.62
664.631	6092.02
664.822	6087.93
665.014	5954.81
665.205	6112.5
665.397	5919.99
665.588	6087.93
665.78	5862.65
665.971	6022.39
666.163	5819.64
666.354	5719.29
666.546	5838.08
666.737	5661.95
666.929	5788.93
667.12	5868.8
667.311	5698.81
667.503	5614.85
667.694	5676.29
667.885	5555.46
668.077	5522.69
668.268	5545.22
668.459	5545.22
668.651	5416.19
668.842	5645.57
669.033	5528.83
669.224	5367.04
669.416	5526.78
669.607	5612.8
669.798	5219.59
669.989	5336.32
670.18	5367.04
670.371	5199.11
670.563	5330.18
670.754	5248.26
670.945	5233.93
671.136	5192.97
671.327	5219.59
671.518	5125.38
671.709	5223.69
671.9	5252.36
672.091	5102.86
672.282	4969.74
672.473	5086.47
672.664	5080.33
672.855	5096.71
673.046	4879.63
673.237	5035.27
673.428	4887.82
673.619	5018.89
673.809	5018.89
674	4906.25
674.191	5055.75
674.382	4887.82
674.573	4979.98
674.764	4723.98
674.954	4717.84
675.145	4711.69
675.336	4683.02
675.527	4695.31
675.717	4883.72
675.908	4660.49
676.099	4787.47
676.289	4621.58
676.48	4742.41
676.671	4613.39
676.861	4756.75
677.052	4529.42
677.243	4646.16
677.433	4433.17
677.624	4689.17
677.814	4621.58
678.005	4627.73
678.195	4601.1
678.386	4537.62
678.576	4472.08
678.767	4527.38
678.957	4463.89
679.148	4525.33
679.338	4592.91
679.529	4500.75
679.719	4554
679.909	4494.61
680.1	4461.84
680.29	4373.78
680.481	4422.93
680.671	4183.32
680.861	4324.63
681.052	4281.62
681.242	4365.59
681.432	4322.58
681.622	4351.25
681.813	4279.57
682.003	4330.77
682.193	4232.47
682.383	4388.11
682.573	4291.86
682.764	4330.77
682.954	4248.85
683.144	4166.93
683.334	4242.71
683.524	4144.41
683.714	4330.77
683.904	4142.36
684.094	3990.81
684.284	4150.55
684.474	4191.51
684.664	4232.47
684.854	4130.07
685.044	4185.37
685.234	4107.54
685.424	4152.6
685.614	4021.53
685.804	4029.72
685.994	4058.39
686.184	3994.9
686.374	4144.41
686.564	3962.14
686.753	3937.56
686.943	3904.79
687.133	3947.8
687.323	3841.31
687.513	3847.45
687.702	3814.68
687.892	3882.27
688.082	3912.99
688.272	3771.68
688.461	3745.05
688.651	3818.78
688.841	3706.14
689.03	3712.28
689.22	3804.44
689.41	3691.81
689.599	3718.43
689.789	3605.79
689.979	3661.09
690.168	3675.42
690.358	3579.17
690.547	3650.85
690.737	3650.85
690.926	3781.92
691.116	3480.86
691.305	3634.46
691.495	3521.82
691.684	3513.63
691.874	3511.58
692.063	3591.45
692.252	3503.39
692.442	3585.31
692.631	3388.71
692.82	3538.21
693.01	3446.05
693.199	3360.03
693.388	3378.47
693.578	3552.54
693.767	3388.71
693.956	3364.13
694.146	3396.9
694.335	3228.96
694.524	3253.54
694.713	3351.84
694.902	3128.61
695.092	3243.3
695.281	3306.79
695.47	3278.12
695.659	3116.33
695.848	3085.61
696.037	3202.34
696.226	3081.51
696.415	3124.52
696.604	3206.44
696.793	3165.48
696.982	3085.61
697.171	3267.88
697.36	3163.43
697.549	3083.56
697.738	3175.72
697.927	3169.57
698.116	3151.14
698.305	3200.29
698.494	3175.72
698.683	3126.57
698.872	3171.62
699.061	2985.26
699.25	3026.22
699.438	3183.91
699.627	3198.24
699.816	3077.41
700.005	3036.45
700.193	2954.54
700.382	3134.76
700.571	3077.41
700.76	3145
700.948	3079.46
701.137	3179.81
701.326	2989.35
701.514	2966.82
701.703	3005.74
701.892	2905.39
702.08	2981.16
702.269	3028.26
702.457	2889
702.646	3015.98
702.834	2923.82
703.023	2915.62
703.212	2831.66
703.4	2864.43
703.589	2815.27
703.777	2848.04
703.965	2956.58
704.154	2860.33
704.342	2872.62
704.531	2989.35
704.719	2884.91
704.907	2958.63
705.096	2891.05
705.284	2798.89
705.472	2802.99
705.661	2962.73
705.849	3013.93
706.037	2841.9
706.226	2954.54
706.414	2919.72
706.602	2932.01
706.79	2776.36
706.979	2897.19
707.167	2886.95
707.355	2858.28
707.543	2972.97
707.731	2850.09
707.919	2749.74
708.107	2692.4
708.296	2813.23
708.484	2854.19
708.672	2741.55
708.86	2764.08
709.048	2755.88
709.236	2749.74
709.424	2837.8
709.612	2766.12
709.8	2680.11
709.988	2704.68
710.176	2798.89
710.364	2823.47
710.551	2774.32
710.739	2721.07
710.927	2790.7
711.115	2757.93
711.303	2647.34
711.491	2770.22
711.679	2690.35
711.866	2626.86
712.054	2749.74
712.242	2546.99
712.43	2807.08
712.617	2702.64
712.805	2612.53
712.993	2604.33
713.181	2592.05
713.368	2782.51
713.556	2647.34
713.744	2676.01
713.931	2721.07
714.119	2745.64
714.306	2579.76
714.494	2659.63
714.682	2651.44
714.869	2643.25
715.057	2549.04
715.244	2690.35
715.432	2753.84
715.619	2563.37
715.807	2671.92
715.994	2600.24
716.182	2538.8
716.369	2678.06
716.556	2602.29
716.744	2661.68
716.931	2682.16
717.119	2585.9
717.306	2665.77
717.493	2692.4
717.681	2506.03
717.868	2481.46
718.055	2696.49
718.242	2520.37
718.43	2669.87
718.617	2585.9
718.804	2553.13
718.991	2577.71
719.179	2606.38
719.366	2563.37
719.553	2514.22
719.74	2452.78
719.927	2573.61
720.114	2559.28
720.301	2520.37
720.488	2512.18
720.676	2487.6
720.863	2530.61
721.05	2587.95
721.237	2465.07
721.424	2602.29
721.611	2575.66
721.798	2467.12
721.985	2522.41
722.172	2581.81
722.358	2590
722.545	2544.94
722.732	2458.93
722.919	2553.13
723.106	2495.79
723.293	2454.83
723.48	2491.7
723.667	2577.71
723.853	2555.18
724.04	2520.37
724.227	2487.6
724.414	2540.85
724.6	2475.31
724.787	2487.6
724.974	2522.41
725.161	2495.79
725.347	2420.02
725.534	2503.98
725.72	2524.46
725.907	2512.18
726.094	2555.18
726.28	2401.58
726.467	2544.94
726.653	2405.68
726.84	2399.54
727.027	2520.37
727.213	2411.82
727.4	2518.32
727.586	2374.96
727.773	2422.06
727.959	2456.88
728.145	2434.35
728.332	2530.61
728.518	2440.5
728.705	2422.06
728.891	2495.79
729.077	2407.73
729.264	2458.93
729.45	2471.22
729.636	2409.78
729.823	2463.02
730.009	2465.07
730.195	2405.68
730.382	2483.5
730.568	2377.01
730.754	2336.05
730.94	2456.88
731.126	2391.34
731.313	2526.51
731.499	2350.39
731.685	2467.12
731.871	2319.67
732.057	2512.18
732.243	2512.18
732.429	2405.68
732.615	2409.78
732.801	2387.25
732.987	2463.02
733.173	2428.21
733.359	2420.02
733.545	2284.85
733.731	2342.19
733.917	2409.78
734.103	2448.69
734.289	2377.01
734.475	2391.34
734.661	2432.3
734.847	2309.43
735.033	2397.49
735.219	2540.85
735.404	2366.77
735.59	2389.3
735.776	2317.62
735.962	2221.36
736.148	2260.27
736.333	2295.09
736.519	2356.53
736.705	2411.82
736.89	2430.26
737.076	2348.34
737.262	2356.53
737.447	2325.81
737.633	2354.48
737.819	2389.3
738.004	2256.18
738.19	2372.91
738.375	2393.39
738.561	2325.81
738.747	2256.18
738.932	2270.51
739.118	2342.19
739.303	2211.12
739.489	2164.02
739.674	2282.8
739.859	2147.64
740.045	2223.41
740.23	2352.43
740.416	2168.12
740.601	2299.19
740.786	2225.46
740.972	2268.47
741.157	2172.21
741.342	2139.44
741.528	2114.87
741.713	2213.17
741.898	2247.99
742.084	2219.32
742.269	2176.31
742.454	2147.64
742.639	2106.68
742.824	2161.97
743.01	2184.5
743.195	2178.36
743.38	2202.93
743.565	2102.58
743.75	2082.1
743.935	2135.35
744.12	2092.34
744.305	2012.47
744.49	1973.56
744.675	2053.43
744.86	2086.2
745.045	2086.2
745.23	1957.18
745.415	2032.95
745.6	2004.28
745.785	1967.42
745.97	2008.37
746.155	2008.37
746.34	1957.18
746.525	2065.72
746.71	1959.22
746.895	2086.2
747.079	1850.68
747.264	1852.73
747.449	1959.22
747.634	1867.06
747.819	1858.87
748.003	1830.2
748.188	1805.63
748.373	1725.76
748.557	1846.59
748.742	1844.54
748.927	1793.34
749.111	1688.89
749.296	1836.35
749.481	1832.25
749.665	1703.23
749.85	1752.38
750.034	1688.89
750.219	1662.27
750.404	1774.91
750.588	1660.22
750.773	1623.36
750.957	1652.03
751.141	1643.84
751.326	1645.88
751.51	1721.66
751.695	1662.27
751.879	1686.84
752.064	1676.6
752.248	1533.25
752.432	1684.8
752.617	1535.29
752.801	1668.41
752.985	1469.76
753.17	1570.11
753.354	1525.05
753.538	1518.91
753.722	1445.18
753.907	1541.44
754.091	1549.63
754.275	1439.04
754.459	1402.18
754.643	1504.57
754.828	1492.29
755.012	1512.77
755.196	1465.66
755.38	1434.94
755.564	1365.31
755.748	1340.74
755.932	1439.04
756.116	1365.31
756.3	1422.66
756.484	1295.68
756.668	1371.46
756.852	1267.01
757.036	1299.78
757.22	1289.54
757.404	1283.39
757.588	1336.64
757.772	1244.48
757.956	1246.53
758.14	1226.05
758.323	1226.05
758.507	1295.68
758.691	1195.33
758.875	1269.06
759.059	1226.05
759.242	1197.38
759.426	1258.82
759.61	1168.71
759.794	1228.1
759.977	1123.65
760.161	1185.09
760.345	1219.91
760.528	1269.06
760.712	1166.66
760.895	1152.32
761.079	1099.08
761.263	1060.17
761.446	1109.32
761.63	1154.37
761.813	1103.17
761.997	1115.46
762.18	1111.36
762.364	1140.04
762.547	1039.69
762.731	1072.45
762.914	1064.26
763.098	1047.88
763.281	1056.07
763.464	1015.11
763.648	1023.3
763.831	1086.79
764.015	1035.59
764.198	1017.16
764.381	972.1
764.564	1043.78
764.748	1074.5
764.931	957.77
765.114	1152.32
765.297	1006.92
765.481	992.58
765.664	996.68
765.847	1004.87
766.03	976.2
766.213	953.67
766.397	1039.69
766.58	949.57
766.763	951.62
766.946	890.18
767.129	998.73
767.312	918.86
767.495	972.1
767.678	851.27
767.861	927.05
768.044	929.1
768.227	972.1
768.41	963.91
768.593	1037.64
768.776	972.1
768.959	941.38
769.142	1019.21
769.324	873.8
769.507	912.71
769.69	931.14
769.873	791.88
770.056	965.96
770.239	881.99
770.421	826.7
770.604	881.99
770.787	957.77
770.97	894.28
771.152	849.22
771.335	857.42
771.518	845.13
771.7	931.14
771.883	857.42
772.066	847.18
772.248	900.42
772.431	795.98
772.613	838.98
772.796	816.46
772.978	750.92
773.161	810.31
773.343	802.12
773.526	718.15
773.708	763.21
773.891	777.55
774.073	755.02
774.256	718.15
774.438	824.65
774.621	798.03
774.803	744.78
774.985	752.97
775.168	816.46
775.35	693.58
775.532	771.4
775.715	814.41
775.897	669
776.079	685.39
776.261	662.86
776.444	705.87
776.626	644.43
776.808	759.11
776.99	736.59
777.173	701.77
777.355	726.35
777.537	660.81
777.719	636.24
777.901	714.06
778.083	683.34
778.265	578.89
778.447	724.3
778.629	640.33
778.811	685.39
778.993	632.14
779.175	595.28
779.357	648.52
779.539	628.04
779.721	580.94
779.903	632.14
780.085	613.71
780.267	621.9
780.449	499.02
780.631	574.8
780.812	595.28
780.994	599.37
781.176	582.99
781.358	539.98
781.54	595.28
781.721	623.95
781.903	578.89
782.085	611.66
782.267	558.41
782.448	464.21
782.63	566.6
782.812	615.76
782.993	529.74
783.175	507.21
783.357	490.83
783.538	513.36
783.72	472.4
783.901	390.48
784.083	466.25
784.264	554.32
784.446	456.01
784.627	433.49
784.809	505.17
784.99	474.45
785.172	482.64
785.353	496.97
785.535	410.96
785.716	425.29
785.897	439.63
786.079	488.78
786.26	488.78
786.441	384.34
786.623	374.1
786.804	439.63
786.985	417.1
787.167	439.63
787.348	501.07
787.529	415.06
787.71	480.59
787.891	474.45
788.073	447.82
788.254	400.72
788.435	398.67
788.616	384.34
788.797	406.86
788.978	351.57
789.159	329.04
789.34	363.86
789.522	400.72
789.703	384.34
789.884	357.71
790.065	343.38
790.246	400.72
790.427	337.23
790.607	378.19
790.788	349.52
790.969	365.9
791.15	357.71
791.331	251.22
791.512	382.29
791.693	302.42
791.874	345.42
792.054	267.6
792.235	353.62
792.416	431.44
792.597	333.14
792.778	269.65
792.958	398.67
793.139	351.57
793.32	390.48
793.5	355.66
793.681	374.1
793.862	308.56
794.042	269.65
794.223	222.55
794.404	193.87
794.584	288.08
794.765	283.99
794.945	292.18
795.126	316.75
795.306	273.75
795.487	234.83
795.667	347.47
795.848	349.52
796.028	337.23
796.209	279.89
796.389	279.89
796.57	324.94
796.75	337.23
796.93	238.93
797.111	300.37
797.291	236.88
797.471	236.88
797.652	189.78
797.832	267.6
798.012	251.22
798.192	148.82
798.373	249.17
798.553	245.07
798.733	230.74
798.913	314.7
799.093	189.78
799.274	267.6
799.454	296.27
799.634	296.27
799.814	312.66
799.994	208.21
800.174	210.26
800.354	290.13
800.534	193.87
800.714	232.79
800.894	226.64
801.074	185.68
801.254	210.26
801.434	232.79
801.614	210.26
801.794	259.41
801.974	851.27
802.154	185.68
802.334	202.07
802.514	318.8
802.693	281.94
802.873	193.87
803.053	267.6
803.233	283.99
803.413	210.26
803.592	208.21
803.772	290.13
803.952	220.5
804.131	169.3
804.311	210.26
804.491	136.53
804.67	193.87
804.85	206.16
805.03	189.78
805.209	214.35
805.389	177.49
805.568	171.35
805.748	210.26
805.928	179.54
806.107	150.87
806.287	161.11
806.466	161.11
806.646	165.2
806.825	152.92
807.004	171.35
807.184	216.4
807.363	177.49
807.543	222.55
807.722	247.12
807.901	169.3
808.081	216.4
808.26	140.63
808.439	165.2
808.619	136.53
808.798	165.2
808.977	154.96
809.156	144.72
809.336	114
809.515	163.15
809.694	181.59
809.873	165.2
810.052	208.21
810.231	179.54
810.411	204.11
810.59	181.59
810.769	114
810.948	234.83
811.127	157.01
811.306	114
811.485	189.78
811.664	230.74
811.843	202.07
812.022	202.07
812.201	146.77
812.38	87.38
812.559	116.05
812.737	122.2
812.916	95.57
813.095	177.49
813.274	175.44
813.453	165.2
813.632	177.49
813.811	222.55
813.989	120.15
814.168	130.39
814.347	159.06
814.526	105.81
814.704	165.2
814.883	173.39
815.062	118.1
815.24	138.58
815.419	79.19
815.598	124.24
815.776	136.53
815.955	169.3
816.133	38.23
816.312	179.54
816.49	114
816.669	230.74
816.847	95.57
817.026	163.15
817.204	36.18
817.383	202.07
817.561	132.44
817.74	134.48
817.918	103.76
818.097	204.11
818.275	91.48
818.453	150.87
818.632	185.68
818.81	97.62
818.988	103.76
819.167	103.76
819.345	175.44
819.523	105.81
819.701	95.57
819.879	144.72
820.058	148.82
820.236	81.24
820.414	97.62
820.592	99.67
820.77	46.42
820.948	161.11
821.127	163.15
821.305	105.81
821.483	95.57
821.661	95.57
821.839	99.67
822.017	154.96
822.195	87.38
822.373	171.35
822.551	99.67
822.729	73.04
822.907	85.33
823.085	105.81
823.262	95.57
823.44	118.1
823.618	54.61
823.796	126.29
823.974	103.76
824.152	75.09
824.329	50.52
824.507	83.28
824.685	138.58
824.863	105.81
825.04	122.2
825.218	48.47
825.396	62.8
825.574	85.33
825.751	81.24
825.929	66.9
826.107	27.99
826.284	87.38
826.462	73.04
826.639	103.76
826.817	23.89
826.994	99.67
827.172	48.47
827.349	193.87
827.527	144.72
827.704	42.32
827.882	122.2
828.059	95.57
828.237	60.76
828.414	124.24
828.591	71
828.769	25.94
828.946	95.57
829.124	107.86
829.301	91.48
829.478	79.19
829.655	81.24
829.833	13.65
830.01	60.76
830.187	111.96
830.364	50.52
830.542	116.05
830.719	38.23
830.896	54.61
831.073	77.14
831.25	128.34
831.427	46.42
831.604	17.75
831.782	17.75
831.959	66.9
832.136	87.38
832.313	128.34
832.49	40.28
832.667	89.43
832.844	95.57
833.021	50.52
833.198	148.82
833.374	21.85
833.551	118.1
833.728	128.34
833.905	95.57
834.082	48.47
834.259	89.43
834.436	91.48
834.612	79.19
834.789	36.18
834.966	-15.02
835.143	23.89
835.319	23.89
835.496	66.9
835.673	50.52
835.85	34.13
836.026	144.72
836.203	7.51
836.38	75.09
836.556	95.57
836.733	42.32
836.909	68.95
837.086	124.24
837.262	3.41
837.439	75.09
837.616	83.28
837.792	77.14
837.968	54.61
838.145	-10.92
838.321	71
838.498	181.59
838.674	109.91
838.851	1.37
839.027	68.95
839.203	83.28
839.38	40.28
839.556	-15.02
839.732	81.24
839.909	111.96
840.085	150.87
840.261	-0.68
840.437	97.62
840.614	5.46
840.79	114
840.966	17.75
841.142	103.76
841.318	23.89
841.494	62.8
841.671	83.28
841.847	114
842.023	52.56
842.199	54.61
842.375	-0.68
842.551	-41.64
842.727	23.89
842.903	17.75
843.079	52.56
843.255	42.32
843.431	81.24
843.607	38.23
843.783	-0.68
843.959	30.04
844.134	48.47
844.31	136.53
844.486	75.09
844.662	42.32
844.838	144.72
845.013	30.04
845.189	21.85
845.365	46.42
845.541	62.8
845.716	120.15
845.892	5.46
846.068	87.38
846.244	-17.07
846.419	3.41
846.595	-47.79
846.77	9.56
846.946	-0.68
847.122	15.7
847.297	-6.83
847.473	89.43
847.648	19.8
847.824	75.09
847.999	5.46
848.175	25.94
848.35	-68.27
848.526	60.76
848.701	99.67
848.876	99.67
849.052	58.71
849.227	27.99
849.403	-10.92
849.578	13.65
849.753	-15.02
849.929	1.37
850.104	1.37
850.279	27.99
850.454	-33.45
850.63	97.62
850.805	-43.69
850.98	64.85
851.155	-0.68
851.33	7.51
851.505	17.75
851.681	91.48
851.856	27.99
852.031	91.48
852.206	36.18
852.381	-19.11
852.556	64.85
852.731	-15.02
852.906	34.13
853.081	64.85
853.256	50.52
853.431	13.65
853.606	7.51
853.781	7.51
853.956	-31.4
854.131	9.56
854.305	62.8
854.48	13.65
854.655	-12.97
854.83	71
855.005	38.23
855.18	-0.68
855.354	3.41
855.529	40.28
855.704	103.76
855.879	23.89
856.053	-27.31
856.228	40.28
856.403	42.32
856.577	7.51
856.752	15.7
856.926	-41.64
857.101	54.61
857.276	56.66
857.45	32.08
857.625	15.7
857.799	17.75
857.974	40.28
858.148	17.75
858.323	-35.5
858.497	-2.73
858.672	-4.78
858.846	13.65
859.02	17.75
859.195	-17.07
859.369	7.51
859.543	7.51
859.718	15.7
859.892	-19.11
860.066	103.76
860.241	17.75
860.415	-19.11
860.589	32.08
860.763	52.56
860.938	-8.87
861.112	75.09
861.286	21.85
861.46	7.51
861.634	-29.35
861.808	30.04
861.982	7.51
862.157	-33.45
862.331	50.52
862.505	-64.17
862.679	-51.88
862.853	17.75
863.027	-39.59
863.201	15.7
863.375	-0.68
863.549	-12.97
863.722	13.65
863.896	40.28
864.07	-43.69
864.244	44.37
864.418	7.51
864.592	32.08
864.766	-23.21
864.939	7.51
865.113	5.46
865.287	62.8
865.461	-8.87
865.634	107.86
865.808	-8.87
865.982	-15.02
866.156	-21.16
866.329	-58.03
866.503	-58.03
866.676	30.04
866.85	36.18
867.024	71
867.197	21.85
867.371	-10.92
867.544	-2.73
867.718	-8.87
867.891	42.32
868.065	30.04
868.238	15.7
868.412	48.47
868.585	-27.31
868.759	23.89
868.932	7.51
869.105	9.56
869.279	27.99
869.452	5.46
869.625	73.04
869.799	-8.87
869.972	-47.79
870.145	25.94
870.319	-23.21
870.492	17.75
870.665	42.32
870.838	7.51
871.011	-27.31
871.185	-17.07
871.358	-70.31
871.531	40.28
871.704	58.71
871.877	71
872.05	-123.56
872.223	-76.46
872.396	30.04
872.569	-2.73
872.742	13.65
872.915	-27.31
873.088	19.8
873.261	-10.92
873.434	73.04
873.607	36.18
873.78	66.9
873.953	-2.73
874.126	54.61
874.299	54.61
874.471	-6.83
874.644	-0.68
874.817	-2.73
874.99	13.65
875.163	-6.83
875.335	-25.26
875.508	25.94
875.681	15.7
875.853	-25.26
876.026	83.28
876.199	17.75
876.371	30.04
876.544	-60.07
876.717	11.61
876.889	62.8
877.062	50.52
877.234	-29.35
877.407	-10.92
877.579	23.89
877.752	-58.03
877.924	11.61
878.097	30.04
878.269	-10.92
878.442	11.61
878.614	-43.69
878.786	19.8
878.959	91.48
879.131	58.71
879.303	-49.83
879.476	-51.88
879.648	73.04
879.82	-51.88
879.993	32.08
880.165	34.13
880.337	34.13
880.509	32.08
880.681	-33.45
880.854	62.8
881.026	-8.87
881.198	97.62
881.37	1.37
881.542	13.65
881.714	-66.22
881.886	38.23
882.058	-35.5
882.23	54.61
882.402	-4.78
882.574	64.85
882.746	13.65
882.918	-2.73
883.09	9.56
883.262	-60.07
883.434	-29.35
883.606	-15.02
883.778	62.8
883.95	-35.5
884.122	-2.73
884.293	107.86
884.465	58.71
884.637	-8.87
884.809	-2.73
884.98	-76.46
885.152	-66.22
885.324	-8.87
885.496	-35.5
885.667	62.8
885.839	-29.35
886.011	85.33
886.182	21.85
886.354	-31.4
886.525	-2.73
886.697	11.61
886.869	-68.27
887.04	-19.11
887.212	3.41
887.383	54.61
887.555	30.04
887.726	19.8
887.897	-6.83
888.069	56.66
888.24	81.24
888.412	-6.83
888.583	27.99
888.754	-10.92
888.926	5.46
889.097	-58.03
889.268	30.04
889.44	17.75
889.611	-47.79
889.782	9.56
889.953	-31.4
890.125	21.85
890.296	-47.79
890.467	-19.11
890.638	30.04
890.809	3.41
890.98	79.19
891.151	-15.02
891.323	-78.51
891.494	-2.73
891.665	-8.87
891.836	21.85
892.007	-8.87
892.178	34.13
892.349	-8.87
892.52	7.51
892.691	17.75
892.862	-10.92
893.032	17.75
893.203	-10.92
893.374	-29.35
893.545	-2.73
893.716	-8.87
893.887	58.71
894.057	-6.83
894.228	-35.5
894.399	50.52
894.57	40.28
894.74	13.65
894.911	48.47
895.082	-0.68
895.253	5.46
895.423	-25.26
895.594	-45.74
895.764	-21.16
895.935	3.41
896.106	7.51
896.276	-51.88
896.447	-43.69
896.617	-35.5
896.788	-33.45
896.958	-33.45
897.129	-8.87
897.299	46.42
897.47	23.89
897.64	-4.78
897.81	-35.5
897.981	-10.92
898.151	11.61
898.322	-25.26
898.492	5.46
898.662	3.41
898.832	-41.64
899.003	-33.45
899.173	-23.21
899.343	15.7
899.513	-17.07
