Data from USB4F104151__56__14-17-05-460.txt Node

Date: Thu Mar 13 14:17:05 EDT 2025
User: louis
Spectrometer: USB4F10415
Trigger mode: 4
Integration Time (sec): 2.000000E-2
Scans to average: 1
Electric dark correction enabled: true
Nonlinearity correction enabled: false
Boxcar width: 0
XAxis mode: Wavelengths
Number of Pixels in Spectrum: 3648
>>>>>Begin Spectral Data<<<<<
178.204	-134.82
178.424	-134.82
178.644	-134.82
178.864	-54.95
179.084	-77.48
179.304	31.06
179.524	-20.14
179.744	29.01
179.964	20.82
180.184	33.11
180.404	16.73
180.624	12.63
180.844	12.63
181.064	6.49
181.283	-52.91
181.503	-22.19
181.723	-67.24
181.943	12.63
182.163	84.31
182.383	-44.71
182.602	-5.8
182.822	12.63
183.042	33.11
183.262	-3.75
183.482	-3.75
183.701	61.78
183.921	94.55
184.141	-3.75
184.361	65.88
184.58	47.44
184.8	53.59
185.02	0.34
185.239	65.88
185.459	-11.95
185.679	12.63
185.898	65.88
186.118	4.44
186.338	24.92
186.557	84.31
186.777	14.68
186.997	94.55
187.216	6.49
187.436	41.3
187.655	72.02
187.875	37.2
188.095	-20.14
188.314	88.4
188.534	49.49
188.753	6.49
188.973	63.83
189.192	29.01
189.412	8.53
189.631	33.11
189.851	-3.75
190.07	94.55
190.29	39.25
190.509	39.25
190.729	94.55
190.948	20.82
191.168	137.56
191.387	78.16
191.607	80.21
191.826	-1.71
192.045	33.11
192.265	20.82
192.484	-3.75
192.704	63.83
192.923	-22.19
193.142	96.6
193.362	47.44
193.581	149.84
193.8	55.64
194.02	61.78
194.239	-36.52
194.458	47.44
194.678	43.35
194.897	49.49
195.116	61.78
195.335	61.78
195.555	72.02
195.774	26.96
195.993	35.16
196.212	104.79
196.432	-40.62
196.651	33.11
196.87	20.82
197.089	110.93
197.308	29.01
197.528	78.16
197.747	4.44
197.966	-18.09
198.185	121.17
198.404	12.63
198.623	94.55
198.842	59.73
199.062	67.92
199.281	45.4
199.5	20.82
199.719	53.59
199.938	61.78
200.157	29.01
200.376	84.31
200.595	127.32
200.814	31.06
201.033	37.2
201.252	14.68
201.471	-26.28
201.69	137.56
201.909	29.01
202.128	47.44
202.347	-28.33
202.566	98.64
202.785	98.64
203.004	-28.33
203.223	4.44
203.442	57.68
203.661	12.63
203.879	26.96
204.098	69.97
204.317	2.39
204.536	29.01
204.755	22.87
204.974	12.63
205.193	4.44
205.411	86.36
205.63	-38.57
205.849	74.07
206.068	-20.14
206.287	-3.75
206.505	45.4
206.724	90.45
206.943	14.68
207.162	18.77
207.381	14.68
207.599	-3.75
207.818	-32.43
208.037	119.12
208.255	-9.9
208.474	53.59
208.693	8.53
208.911	-16.04
209.13	53.59
209.349	55.64
209.567	98.64
209.786	39.25
210.005	55.64
210.223	69.97
210.442	-87.72
210.661	8.53
210.879	22.87
211.098	37.2
211.316	-28.33
211.535	129.36
211.753	106.84
211.972	-18.09
212.191	6.49
212.409	12.63
212.628	8.53
212.846	20.82
213.065	102.74
213.283	96.6
213.502	20.82
213.72	47.44
213.938	31.06
214.157	49.49
214.375	20.82
214.594	-63.15
214.812	104.79
215.031	20.82
215.249	45.4
215.467	45.4
215.686	-9.9
215.904	76.12
216.122	45.4
216.341	63.83
216.559	12.63
216.778	6.49
216.996	94.55
217.214	41.3
217.432	63.83
217.651	-11.95
217.869	24.92
218.087	53.59
218.306	127.32
218.524	-24.23
218.742	-9.9
218.96	24.92
219.179	53.59
219.397	94.55
219.615	49.49
219.833	61.78
220.051	-1.71
220.27	39.25
220.488	145.75
220.706	22.87
220.924	-36.52
221.142	-22.19
221.36	43.35
221.578	63.83
221.796	-3.75
222.015	84.31
222.233	35.16
222.451	55.64
222.669	-11.95
222.887	14.68
223.105	20.82
223.323	78.16
223.541	-65.19
223.759	6.49
223.977	-28.33
224.195	-26.28
224.413	78.16
224.631	6.49
224.849	29.01
225.067	47.44
225.285	-20.14
225.503	41.3
225.721	-9.9
225.939	-75.43
226.157	88.4
226.375	29.01
226.592	-24.23
226.81	-44.71
227.028	-13.99
227.246	94.55
227.464	-1.71
227.682	57.68
227.9	45.4
228.117	53.59
228.335	82.26
228.553	-9.9
228.771	69.97
228.989	-36.52
229.206	18.77
229.424	4.44
229.642	14.68
229.86	49.49
230.077	49.49
230.295	2.39
230.513	112.98
230.731	78.16
230.948	135.51
231.166	47.44
231.384	47.44
231.601	53.59
231.819	100.69
232.037	6.49
232.254	-1.71
232.472	80.21
232.689	10.58
232.907	8.53
233.125	45.4
233.342	29.01
233.56	20.82
233.777	-3.75
233.995	22.87
234.213	-11.95
234.43	61.78
234.648	18.77
234.865	10.58
235.083	-28.33
235.3	-24.23
235.518	39.25
235.735	57.68
235.953	53.59
236.17	-3.75
236.388	69.97
236.605	22.87
236.822	-18.09
237.04	86.36
237.257	-75.43
237.475	8.53
237.692	102.74
237.909	82.26
238.127	86.36
238.344	69.97
238.562	41.3
238.779	6.49
238.996	-57
239.214	8.53
239.431	110.93
239.648	22.87
239.865	78.16
240.083	-7.85
240.3	29.01
240.517	37.2
240.735	-5.8
240.952	72.02
241.169	39.25
241.386	8.53
241.603	29.01
241.821	-28.33
242.038	22.87
242.255	78.16
242.472	8.53
242.689	94.55
242.907	102.74
243.124	37.2
243.341	33.11
243.558	6.49
243.775	29.01
243.992	-73.39
244.209	-1.71
244.426	31.06
244.643	-9.9
244.86	-20.14
245.078	47.44
245.295	37.2
245.512	39.25
245.729	-3.75
245.946	8.53
246.163	0.34
246.38	141.65
246.597	6.49
246.814	12.63
247.031	0.34
247.248	41.3
247.464	-18.09
247.681	29.01
247.898	57.68
248.115	18.77
248.332	-46.76
248.549	39.25
248.766	110.93
248.983	51.54
249.2	8.53
249.417	67.92
249.633	49.49
249.85	94.55
250.067	-42.67
250.284	76.12
250.501	18.77
250.717	86.36
250.934	4.44
251.151	31.06
251.368	-26.28
251.585	24.92
251.801	14.68
252.018	-18.09
252.235	110.93
252.451	12.63
252.668	0.34
252.885	-9.9
253.102	26.96
253.318	80.21
253.535	-11.95
253.752	12.63
253.968	-11.95
254.185	-18.09
254.401	57.68
254.618	90.45
254.835	31.06
255.051	55.64
255.268	43.35
255.484	29.01
255.701	55.64
255.917	-3.75
256.134	-54.95
256.351	39.25
256.567	-26.28
256.784	22.87
257	0.34
257.217	69.97
257.433	96.6
257.65	57.68
257.866	35.16
258.082	-26.28
258.299	-40.62
258.515	29.01
258.732	14.68
258.948	45.4
259.165	33.11
259.381	57.68
259.597	63.83
259.814	76.12
260.03	35.16
260.246	-1.71
260.463	51.54
260.679	12.63
260.895	72.02
261.112	47.44
261.328	39.25
261.544	4.44
261.761	86.36
261.977	-20.14
262.193	-28.33
262.409	51.54
262.626	35.16
262.842	76.12
263.058	-9.9
263.274	41.3
263.49	24.92
263.707	20.82
263.923	14.68
264.139	-24.23
264.355	20.82
264.571	45.4
264.787	-32.43
265.004	61.78
265.22	47.44
265.436	-67.24
265.652	-30.38
265.868	39.25
266.084	72.02
266.3	78.16
266.516	41.3
266.732	78.16
266.948	-61.1
267.164	55.64
267.38	57.68
267.596	-18.09
267.812	57.68
268.028	61.78
268.244	-9.9
268.46	22.87
268.676	35.16
268.892	90.45
269.108	63.83
269.324	0.34
269.54	22.87
269.756	84.31
269.972	6.49
270.188	29.01
270.403	-11.95
270.619	20.82
270.835	-16.04
271.051	-18.09
271.267	20.82
271.483	61.78
271.698	8.53
271.914	53.59
272.13	20.82
272.346	98.64
272.562	53.59
272.777	24.92
272.993	-1.71
273.209	86.36
273.425	4.44
273.64	-24.23
273.856	110.93
274.072	63.83
274.287	-38.57
274.503	29.01
274.719	8.53
274.934	86.36
275.15	-24.23
275.366	35.16
275.581	43.35
275.797	39.25
276.012	0.34
276.228	45.4
276.444	33.11
276.659	47.44
276.875	67.92
277.09	0.34
277.306	41.3
277.521	16.73
277.737	-50.86
277.952	18.77
278.168	57.68
278.383	-3.75
278.599	69.97
278.814	37.2
279.03	-7.85
279.245	57.68
279.461	12.63
279.676	94.55
279.892	53.59
280.107	12.63
280.322	2.39
280.538	12.63
280.753	6.49
280.969	37.2
281.184	20.82
281.399	45.4
281.615	35.16
281.83	59.73
282.045	33.11
282.26	-13.99
282.476	12.63
282.691	20.82
282.906	26.96
283.122	29.01
283.337	53.59
283.552	92.5
283.767	74.07
283.983	41.3
284.198	78.16
284.413	-30.38
284.628	-1.71
284.843	41.3
285.058	39.25
285.274	-32.43
285.489	-83.63
285.704	6.49
285.919	47.44
286.134	-3.75
286.349	4.44
286.564	24.92
286.779	53.59
286.995	22.87
287.21	-3.75
287.425	90.45
287.64	65.88
287.855	69.97
288.07	-7.85
288.285	37.2
288.5	72.02
288.715	22.87
288.93	69.97
289.145	-20.14
289.36	-7.85
289.575	39.25
289.79	119.12
290.004	86.36
290.219	117.08
290.434	20.82
290.649	110.93
290.864	43.35
291.079	29.01
291.294	49.49
291.509	37.2
291.724	4.44
291.938	29.01
292.153	57.68
292.368	-18.09
292.583	-1.71
292.798	-3.75
293.012	74.07
293.227	65.88
293.442	65.88
293.657	129.36
293.871	86.36
294.086	29.01
294.301	45.4
294.516	90.45
294.73	14.68
294.945	-3.75
295.16	47.44
295.374	47.44
295.589	22.87
295.804	90.45
296.018	55.64
296.233	39.25
296.447	-13.99
296.662	61.78
296.877	22.87
297.091	4.44
297.306	110.93
297.52	-3.75
297.735	127.32
297.949	41.3
298.164	-11.95
298.378	37.2
298.593	45.4
298.807	69.97
299.022	57.68
299.236	55.64
299.451	-7.85
299.665	86.36
299.88	-7.85
300.094	51.54
300.309	14.68
300.523	12.63
300.737	-18.09
300.952	31.06
301.166	78.16
301.381	102.74
301.595	10.58
301.809	51.54
302.024	67.92
302.238	-1.71
302.452	90.45
302.667	65.88
302.881	57.68
303.095	94.55
303.309	4.44
303.524	14.68
303.738	80.21
303.952	78.16
304.166	53.59
304.381	14.68
304.595	131.41
304.809	12.63
305.023	55.64
305.237	153.94
305.452	18.77
305.666	90.45
305.88	67.92
306.094	61.78
306.308	137.56
306.522	37.2
306.736	78.16
306.95	29.01
307.164	33.11
307.379	-9.9
307.593	53.59
307.807	61.78
308.021	12.63
308.235	39.25
308.449	49.49
308.663	29.01
308.877	22.87
309.091	0.34
309.305	29.01
309.519	-7.85
309.733	108.88
309.947	45.4
310.161	20.82
310.374	4.44
310.588	98.64
310.802	22.87
311.016	57.68
311.23	41.3
311.444	-16.04
311.658	26.96
311.872	96.6
312.085	65.88
312.299	10.58
312.513	102.74
312.727	29.01
312.941	26.96
313.154	102.74
313.368	6.49
313.582	72.02
313.796	61.78
314.009	45.4
314.223	24.92
314.437	-24.23
314.651	94.55
314.864	53.59
315.078	-7.85
315.292	-1.71
315.505	33.11
315.719	20.82
315.933	-3.75
316.146	-24.23
316.36	12.63
316.573	24.92
316.787	0.34
317.001	33.11
317.214	10.58
317.428	69.97
317.641	-28.33
317.855	57.68
318.068	78.16
318.282	51.54
318.495	96.6
318.709	43.35
318.922	41.3
319.136	123.22
319.349	80.21
319.563	20.82
319.776	55.64
319.99	24.92
320.203	-28.33
320.417	65.88
320.63	53.59
320.843	33.11
321.057	-9.9
321.27	53.59
321.483	53.59
321.697	59.73
321.91	-7.85
322.124	82.26
322.337	-24.23
322.55	47.44
322.763	2.39
322.977	33.11
323.19	61.78
323.403	78.16
323.617	0.34
323.83	72.02
324.043	53.59
324.256	69.97
324.469	-46.76
324.683	33.11
324.896	-36.52
325.109	72.02
325.322	16.73
325.535	6.49
325.748	57.68
325.962	51.54
326.175	61.78
326.388	6.49
326.601	86.36
326.814	49.49
327.027	41.3
327.24	162.13
327.453	69.97
327.666	0.34
327.879	143.7
328.092	37.2
328.305	106.84
328.518	-1.71
328.731	14.68
328.944	108.88
329.157	96.6
329.37	53.59
329.583	80.21
329.796	53.59
330.009	-9.9
330.222	88.4
330.435	67.92
330.648	31.06
330.861	-20.14
331.073	82.26
331.286	72.02
331.499	80.21
331.712	78.16
331.925	47.44
332.138	61.78
332.35	76.12
332.563	55.64
332.776	78.16
332.989	86.36
333.202	51.54
333.414	63.83
333.627	18.77
333.84	127.32
334.053	53.59
334.265	12.63
334.478	69.97
334.691	-9.9
334.903	43.35
335.116	72.02
335.329	24.92
335.541	65.88
335.754	102.74
335.966	4.44
336.179	29.01
336.392	88.4
336.604	6.49
336.817	88.4
337.029	147.8
337.242	4.44
337.454	78.16
337.667	65.88
337.88	63.83
338.092	88.4
338.305	78.16
338.517	29.01
338.729	20.82
338.942	-1.71
339.154	61.78
339.367	-24.23
339.579	31.06
339.792	84.31
340.004	86.36
340.217	86.36
340.429	121.17
340.641	49.49
340.854	55.64
341.066	-65.19
341.278	22.87
341.491	61.78
341.703	16.73
341.915	-5.8
342.128	82.26
342.34	14.68
342.552	115.03
342.764	10.58
342.977	102.74
343.189	31.06
343.401	100.69
343.613	-36.52
343.826	22.87
344.038	-22.19
344.25	63.83
344.462	12.63
344.674	39.25
344.886	31.06
345.099	24.92
345.311	45.4
345.523	49.49
345.735	67.92
345.947	29.01
346.159	-24.23
346.371	37.2
346.583	49.49
346.795	121.17
347.007	29.01
347.219	12.63
347.431	10.58
347.643	90.45
347.855	57.68
348.067	92.5
348.279	22.87
348.491	2.39
348.703	45.4
348.915	-24.23
349.127	51.54
349.339	69.97
349.551	-7.85
349.763	86.36
349.975	-3.75
350.187	65.88
350.399	92.5
350.61	78.16
350.822	-7.85
351.034	41.3
351.246	29.01
351.458	84.31
351.669	88.4
351.881	123.22
352.093	96.6
352.305	22.87
352.517	88.4
352.728	65.88
352.94	35.16
353.152	102.74
353.363	14.68
353.575	-9.9
353.787	41.3
353.999	41.3
354.21	84.31
354.422	-24.23
354.633	45.4
354.845	127.32
355.057	127.32
355.268	53.59
355.48	74.07
355.692	-20.14
355.903	86.36
356.115	37.2
356.326	14.68
356.538	80.21
356.749	53.59
356.961	8.53
357.172	43.35
357.384	37.2
357.595	129.36
357.807	55.64
358.018	-36.52
358.23	63.83
358.441	96.6
358.653	37.2
358.864	37.2
359.075	61.78
359.287	-11.95
359.498	74.07
359.709	-32.43
359.921	119.12
360.132	61.78
360.344	63.83
360.555	-13.99
360.766	-22.19
360.977	35.16
361.189	135.51
361.4	67.92
361.611	82.26
361.823	65.88
362.034	20.82
362.245	14.68
362.456	2.39
362.667	106.84
362.879	78.16
363.09	61.78
363.301	49.49
363.512	41.3
363.723	47.44
363.935	61.78
364.146	45.4
364.357	2.39
364.568	123.22
364.779	20.82
364.99	78.16
365.201	-5.8
365.412	78.16
365.623	45.4
365.834	119.12
366.045	33.11
366.256	24.92
366.467	59.73
366.678	39.25
366.889	104.79
367.1	37.2
367.311	119.12
367.522	8.53
367.733	39.25
367.944	20.82
368.155	-28.33
368.366	82.26
368.577	135.51
368.788	72.02
368.999	-3.75
369.209	86.36
369.42	102.74
369.631	153.94
369.842	78.16
370.053	6.49
370.264	65.88
370.474	10.58
370.685	12.63
370.896	102.74
371.107	41.3
371.317	63.83
371.528	51.54
371.739	24.92
371.95	-13.99
372.16	69.97
372.371	-48.81
372.582	74.07
372.792	69.97
373.003	22.87
373.214	14.68
373.424	72.02
373.635	12.63
373.846	158.03
374.056	78.16
374.267	-7.85
374.477	-32.43
374.688	41.3
374.898	-13.99
375.109	35.16
375.319	20.82
375.53	147.8
375.74	125.27
375.951	41.3
376.161	16.73
376.372	78.16
376.582	33.11
376.793	94.55
377.003	45.4
377.214	69.97
377.424	-18.09
377.635	31.06
377.845	53.59
378.055	49.49
378.266	-3.75
378.476	69.97
378.686	112.98
378.897	88.4
379.107	110.93
379.317	72.02
379.528	74.07
379.738	59.73
379.948	47.44
380.158	16.73
380.369	26.96
380.579	69.97
380.789	51.54
380.999	112.98
381.21	78.16
381.42	82.26
381.63	63.83
381.84	96.6
382.05	94.55
382.261	131.41
382.471	78.16
382.681	39.25
382.891	72.02
383.101	74.07
383.311	33.11
383.521	45.4
383.731	110.93
383.941	98.64
384.151	45.4
384.361	51.54
384.571	90.45
384.781	29.01
384.991	29.01
385.201	117.08
385.411	53.59
385.621	29.01
385.831	96.6
386.041	29.01
386.251	88.4
386.461	102.74
386.671	37.2
386.881	35.16
387.091	69.97
387.301	139.6
387.511	119.12
387.72	57.68
387.93	94.55
388.14	12.63
388.35	119.12
388.56	53.59
388.769	37.2
388.979	102.74
389.189	24.92
389.399	82.26
389.609	88.4
389.818	90.45
390.028	168.27
390.238	29.01
390.447	115.03
390.657	125.27
390.867	0.34
391.076	102.74
391.286	115.03
391.496	47.44
391.705	74.07
391.915	65.88
392.125	78.16
392.334	51.54
392.544	153.94
392.753	33.11
392.963	102.74
393.172	53.59
393.382	110.93
393.591	86.36
393.801	186.71
394.01	88.4
394.22	102.74
394.429	61.78
394.639	80.21
394.848	10.58
395.058	119.12
395.267	37.2
395.477	53.59
395.686	117.08
395.895	135.51
396.105	127.32
396.314	123.22
396.524	106.84
396.733	51.54
396.942	102.74
397.152	127.32
397.361	119.12
397.57	121.17
397.78	121.17
397.989	104.79
398.198	164.18
398.407	84.31
398.617	22.87
398.826	78.16
399.035	55.64
399.244	153.94
399.453	96.6
399.663	143.7
399.872	129.36
400.081	112.98
400.29	153.94
400.499	137.56
400.708	123.22
400.917	72.02
401.127	16.73
401.336	98.64
401.545	239.95
401.754	164.18
401.963	178.51
402.172	100.69
402.381	90.45
402.59	86.36
402.799	147.8
403.008	164.18
403.217	131.41
403.426	82.26
403.635	143.7
403.844	162.13
404.053	143.7
404.262	119.12
404.471	223.57
404.68	149.84
404.888	188.75
405.097	184.66
405.306	192.85
405.515	135.51
405.724	192.85
405.933	160.08
406.142	127.32
406.35	201.04
406.559	268.63
406.768	293.2
406.977	225.62
407.185	227.67
407.394	242
407.603	217.43
407.812	235.86
408.02	315.73
408.229	235.86
408.438	297.3
408.646	299.34
408.855	225.62
409.064	268.63
409.272	297.3
409.481	323.92
409.69	354.64
409.898	387.41
410.107	403.79
410.315	368.98
410.524	348.5
410.733	381.26
410.941	383.31
411.15	407.89
411.358	479.57
411.567	465.23
411.775	428.37
411.984	520.53
412.192	536.91
412.401	504.14
412.609	624.97
412.818	536.91
413.026	590.16
413.234	618.83
413.443	602.44
413.651	549.2
413.86	686.41
414.068	667.98
414.276	741.71
414.485	708.94
414.693	807.24
414.901	850.25
415.11	821.58
415.318	801.1
415.526	790.86
415.734	786.76
415.943	844.1
416.151	940.36
416.359	1012.04
416.567	966.98
416.776	993.61
416.984	1073.48
417.192	1046.85
417.4	1081.67
417.608	1055.05
417.817	1102.15
418.025	1159.49
418.233	1352
418.441	1265.99
418.649	1245.51
418.857	1349.95
419.065	1433.92
419.273	1395.01
419.481	1515.84
419.689	1603.9
419.897	1700.16
420.105	1732.92
420.313	1782.07
420.521	1700.16
420.729	1863.99
420.937	1863.99
421.145	2113.85
421.353	1997.11
421.561	2183.48
421.769	2228.53
421.977	2273.59
422.185	2308.4
422.393	2486.58
422.601	2625.84
422.809	2482.48
423.017	2543.92
423.224	2674.99
423.432	2818.35
423.64	2842.92
423.848	3123.49
424.056	3000.62
424.263	3150.12
424.471	3176.74
424.679	3217.7
424.887	3422.5
425.094	3414.31
425.302	3395.87
425.51	3619.1
425.718	3858.71
425.925	3934.49
426.133	4053.27
426.341	4237.59
426.548	4323.6
426.756	4376.85
426.964	4481.3
427.171	4636.94
427.379	4841.74
427.586	4911.37
427.794	4925.71
428.001	5280
428.209	5445.89
428.417	5456.13
428.624	5800.19
428.832	5769.47
429.039	5738.75
429.247	5751.04
429.454	6271.22
429.662	6670.58
429.869	6410.48
430.076	6818.03
430.284	6476.02
430.491	6914.28
430.699	7219.43
430.906	7344.36
431.114	7250.15
431.321	7590.11
431.528	7758.05
431.736	8163.54
431.943	8589.52
432.15	8331.48
432.358	8579.28
432.565	9076.94
432.772	9015.5
432.979	9291.98
433.187	9588.93
433.394	9605.31
433.601	10289.34
433.808	10399.93
434.016	10027.2
434.223	10453.17
434.43	11030.7
434.637	11030.7
434.844	11571.36
435.052	11933.86
435.259	11940
435.466	11710.63
435.673	11827.36
435.88	12478.61
436.087	13392.01
436.294	13240.46
436.501	13187.21
436.708	13250.7
436.915	13586.57
437.122	14282.88
437.329	14065.79
437.537	14512.25
437.743	14987.38
437.95	14927.99
438.157	15519.85
438.364	15888.48
438.571	15769.7
438.778	15964.26
438.985	17354.83
439.192	16752.73
439.399	17502.28
439.606	16937.04
439.813	18198.59
440.02	19267.63
440.227	18823.22
440.433	18608.19
440.64	19126.32
440.847	19075.12
441.054	19654.7
441.261	20867.09
441.467	20592.67
441.674	21047.32
441.881	21391.37
442.088	21600.27
442.294	21461.01
442.501	22030.34
442.708	22022.15
442.914	23259.12
443.121	24432.61
443.328	23521.26
443.534	25466.83
443.741	24567.77
443.948	23990.25
444.154	25939.91
444.361	25823.18
444.568	26011.59
444.774	26144.71
444.981	26437.57
445.187	26738.62
445.394	28129.19
445.6	27811.76
445.807	30302.09
446.013	29255.57
446.22	29599.63
446.426	30891.9
446.633	30852.99
446.839	32053.1
447.046	30900.09
447.252	32671.59
447.459	32436.07
447.665	32491.37
447.871	33580.88
448.078	35143.49
448.284	33621.84
448.491	34590.53
448.697	35682.1
448.903	36372.27
449.11	36351.79
449.316	35927.86
449.522	36620.07
449.728	37355.29
449.935	37984.02
450.141	37728.02
450.347	38561.54
450.553	37584.66
450.76	38053.65
450.966	39282.43
451.172	38569.74
451.378	39780.09
451.584	38702.85
451.791	40044.27
451.997	40128.24
452.203	40417
452.409	40261.36
452.615	40292.08
452.821	38541.07
453.027	38444.81
453.233	40255.22
453.44	38559.5
453.646	39374.59
453.852	39415.55
454.058	40099.57
454.264	38770.44
454.47	39644.92
454.676	38737.67
454.882	39810.81
455.088	36370.22
455.294	37189.41
455.5	37713.69
455.705	38270.73
455.911	36409.13
456.117	35860.27
456.323	35020.61
456.529	33337.18
456.735	34750.28
456.941	33939.28
457.147	33580.88
457.352	32548.71
457.558	32030.57
457.764	32388.97
457.97	31655.79
458.176	31207.29
458.381	30703.49
458.587	29376.41
458.793	29282.2
458.999	27920.3
459.204	29806.48
459.41	29067.16
459.616	27320.24
459.821	27486.13
460.027	27504.56
460.233	26658.75
460.438	25319.38
460.644	25743.31
460.85	24381.41
461.055	24156.13
461.261	24137.7
461.466	22421.5
461.672	21651.47
461.878	23109.62
462.083	21520.4
462.289	21194.77
462.494	21127.19
462.7	19968.04
462.905	19636.27
463.111	20221.98
463.316	20289.57
463.522	19945.51
463.727	19759.14
463.932	19898.41
464.138	19322.93
464.343	19890.21
464.549	19222.58
464.754	19679.27
464.959	19497
465.165	19609.64
465.37	18751.54
465.575	18348.09
465.781	18847.8
465.986	18804.79
466.191	18405.44
466.397	18184.26
466.602	17139.79
466.807	17848.39
467.012	17811.53
467.218	17625.16
467.423	17127.5
467.628	17647.69
467.833	18157.63
468.038	17619.02
468.244	16994.39
468.449	18026.56
468.654	17395.79
468.859	17012.82
469.064	16961.62
469.269	16271.45
469.474	16568.41
469.679	16824.4
469.885	16197.73
470.09	16369.76
470.295	16533.59
470.5	15919.2
470.705	16253.02
470.91	15861.86
471.115	15652.97
471.32	15865.96
471.525	16093.28
471.73	15437.93
471.935	15454.31
472.139	14872.69
472.344	15052.91
472.549	14766.2
472.754	14973.04
472.959	14342.27
473.164	14055.55
473.369	14092.41
473.574	14262.4
473.778	14172.29
473.983	14063.74
474.188	14051.45
474.393	13482.12
474.598	13688.96
474.802	13340.81
475.007	13105.29
475.212	13312.14
475.417	12902.54
475.621	13064.33
475.826	12910.74
476.031	12562.58
476.235	12406.94
476.44	12845.2
476.645	12314.78
476.849	12267.67
477.054	12363.93
477.259	12210.33
477.463	12075.17
477.668	11616.42
477.872	11862.18
478.077	11677.86
478.282	11526.31
478.486	11296.94
478.691	11262.12
478.895	11442.34
479.1	11145.39
479.304	11245.74
479.509	10735.79
479.713	11110.57
479.918	10834.1
480.122	10592.44
480.326	10997.93
480.531	10891.44
480.735	10580.15
480.94	10408.12
481.144	10879.15
481.348	10399.93
481.553	10698.93
481.757	10125.5
481.961	10473.65
482.166	10514.61
482.37	10696.88
482.574	10447.03
482.778	10328.25
482.983	10424.5
483.187	10473.65
483.391	10371.26
483.595	10379.45
483.8	10326.2
484.004	10283.19
484.208	10330.3
484.412	10344.63
484.616	10436.79
484.821	10281.14
485.025	10277.05
485.229	10563.76
485.433	10510.52
485.637	10531
485.841	10236.09
486.045	10211.51
486.249	10361.02
486.453	10270.9
486.657	10383.54
486.861	10383.54
487.065	10168.51
487.269	10264.76
487.473	10178.75
487.677	10469.56
487.881	10539.19
488.085	10465.46
488.289	10582.2
488.493	10160.31
488.697	10541.24
488.901	10338.49
489.105	10162.36
489.309	10416.31
489.512	10557.62
489.716	10348.73
489.92	10485.94
490.124	10369.21
490.328	10737.84
490.531	10432.69
490.735	10647.73
490.939	10756.27
491.143	10764.47
491.346	10608.82
491.55	10776.75
491.754	10692.79
491.958	10721.46
492.161	11143.34
492.365	10913.97
492.569	10754.23
492.772	10965.17
492.976	11239.59
493.18	10961.07
493.383	11253.93
493.587	11196.59
493.79	11335.85
493.994	11137.2
494.197	11088.04
494.401	11612.32
494.605	11421.86
494.808	11653.28
495.012	11665.57
495.215	11581.6
495.419	11858.08
495.622	11743.39
495.825	12046.49
496.029	11964.57
496.232	12451.99
496.436	12040.35
496.639	12408.98
496.843	12529.81
497.046	12837.01
497.249	12875.92
497.453	12810.39
497.656	12857.49
497.859	13209.74
498.063	13164.68
498.266	13256.84
498.469	13181.07
498.673	13441.16
498.876	13719.68
499.079	13867.14
499.282	13916.29
499.485	14327.93
499.689	14348.41
499.892	14446.71
500.095	14516.34
500.298	14706.8
500.501	14911.6
500.705	15110.25
500.908	15278.19
501.111	15450.22
501.314	15419.5
501.517	15700.07
501.72	15761.51
501.923	15917.15
502.126	16384.09
502.329	16519.26
502.532	16482.39
502.735	16586.84
502.938	17012.82
503.141	17094.74
503.344	17262.67
503.547	17242.19
503.75	17487.95
503.953	18042.95
504.156	17969.22
504.359	18026.56
504.562	18051.14
504.765	18675.77
504.968	18843.7
505.17	19042.35
505.373	18905.14
505.576	19284.02
505.779	19484.72
505.982	19591.21
506.185	19968.04
506.387	20090.91
506.59	20320.29
506.793	20465.69
506.996	20682.78
507.198	21127.19
507.401	20645.91
507.604	21209.11
507.807	21512.21
508.009	21884.94
508.212	22202.37
508.415	22161.41
508.617	22288.39
508.82	22925.3
509.022	22329.34
509.225	23097.33
509.428	23412.72
509.63	23382
509.833	23724.01
510.035	24184.8
510.238	24186.85
510.44	24424.42
510.643	24809.43
510.845	24883.16
511.048	24823.77
511.25	25243.6
511.453	25309.14
511.655	26320.84
511.858	25866.19
512.06	26128.33
512.262	26632.13
512.465	26271.68
512.667	26935.23
512.87	26871.74
513.072	27375.54
513.274	27860.91
513.477	28276.65
513.679	28059.56
513.881	28610.46
514.084	28741.53
514.286	28673.95
514.488	28989.34
514.69	29925.26
514.893	29718.42
515.095	29704.08
515.297	30414.73
515.499	30357.38
515.701	30801.79
515.904	31405.94
516.106	31330.17
516.308	31582.07
516.51	31901.55
516.712	31960.94
516.914	32169.83
517.116	33021.79
517.318	32835.42
517.52	32800.61
517.722	32989.02
517.925	33900.37
518.127	33918.8
518.329	34432.84
518.531	33746.77
518.733	34944.83
518.935	34807.62
519.136	34928.45
519.338	35462.97
519.54	35548.98
519.742	36501.29
519.944	36286.25
520.146	36759.33
520.348	36941.6
520.55	36996.9
520.752	36828.96
520.954	37545.75
521.155	37310.24
521.357	38233.87
521.559	38596.36
521.761	39173.89
521.963	39237.37
522.164	39001.86
522.366	39378.68
522.568	39722.74
522.77	39601.91
522.971	40310.51
523.173	40072.95
523.375	40699.62
523.576	40787.69
523.778	40361.71
523.98	41156.32
524.181	41352.93
524.383	41402.08
524.584	41950.93
524.786	42063.57
524.988	41928.41
525.189	42458.83
525.391	42153.68
525.592	42759.88
525.794	42925.77
525.995	42976.97
526.197	42972.87
526.398	42933.96
526.6	43398.85
526.801	43165.38
527.003	43992.76
527.204	44033.72
527.406	43886.26
527.607	44164.79
527.808	44644.01
528.01	43779.77
528.211	44334.77
528.412	45043.37
528.614	44824.23
528.815	44775.08
529.016	45102.76
529.218	44887.72
529.419	44906.15
529.62	45282.98
529.822	45213.35
530.023	45303.46
530.224	45588.13
530.425	45606.56
530.626	45051.56
530.828	45131.43
531.029	46065.3
531.23	45461.15
531.431	45797.02
531.632	45864.6
531.833	45956.76
532.035	45508.25
532.236	46247.57
532.437	46194.32
532.638	45565.6
532.839	46687.88
533.04	46392.98
533.241	46048.92
533.442	46843.53
533.643	46251.67
533.844	46286.48
534.045	46626.45
534.246	46280.34
534.447	46362.26
534.648	46415.51
534.849	46464.66
535.05	46188.18
535.251	46327.44
535.451	46341.78
535.652	46491.28
535.853	46302.87
536.054	46376.59
536.255	46648.97
536.456	46481.04
536.657	46882.44
536.857	46296.72
537.058	46075.54
537.259	46679.69
537.46	46456.46
537.66	46442.13
537.861	46771.85
538.062	46382.74
538.263	46433.94
538.463	46403.22
538.664	46081.69
538.865	46483.09
539.065	46845.58
539.266	45938.33
539.466	46290.58
539.667	45856.41
539.868	46505.62
540.068	46053.01
540.269	46528.14
540.469	46562.96
540.67	46087.83
540.87	46368.4
541.071	46186.13
541.271	46515.86
541.472	46419.6
541.672	45995.67
541.873	45967
542.073	45977.24
542.274	46491.28
542.474	46435.98
542.675	45952.66
542.875	46392.98
543.075	46464.66
543.276	45907.61
543.476	46589.58
543.676	46247.57
543.877	46026.39
544.077	46425.74
544.277	46327.44
544.478	46077.59
544.678	46139.03
544.878	45602.46
545.078	46225.04
545.279	45964.95
545.479	45948.57
545.679	46136.98
545.879	45758.11
546.079	45979.29
546.28	45905.56
546.48	45483.68
546.68	45801.11
546.88	45866.65
547.08	45829.79
547.28	45874.84
547.48	45637.28
547.68	45958.81
547.88	45950.62
548.081	45858.46
548.281	45643.42
548.481	45651.61
548.681	45987.48
548.881	46057.11
549.081	45737.63
549.28	45375.14
549.48	45926.04
549.68	45782.68
549.88	46235.28
550.08	45555.36
550.28	46046.87
550.48	45444.77
550.68	46143.13
550.88	45428.38
551.08	45688.48
551.279	45702.81
551.479	45704.86
551.679	45635.23
551.879	45430.43
552.079	46030.49
552.278	45371.04
552.478	45528.73
552.678	45668
552.878	45491.87
553.077	45336.23
553.277	45133.48
553.477	46190.23
553.676	45448.86
553.876	44879.53
554.076	44881.58
554.275	45291.17
554.475	44906.15
554.674	45149.86
554.874	45399.71
555.074	44664.49
555.273	45747.87
555.473	45604.51
555.672	45008.55
555.872	44887.72
556.071	45328.03
556.271	45174.44
556.47	44879.53
556.67	44459.69
556.869	44803.75
557.068	45024.93
557.268	44543.66
557.467	44695.21
557.667	44897.96
557.866	44490.41
558.065	44979.88
558.265	44267.19
558.464	44607.15
558.663	45041.32
558.863	43816.63
559.062	44826.28
559.261	43988.66
559.461	44533.42
559.66	43806.39
559.859	43970.23
560.058	44179.12
560.258	44041.91
560.457	43966.13
560.656	44185.27
560.855	43941.56
561.054	44226.23
561.253	43519.68
561.453	43519.68
561.652	44170.93
561.851	43939.51
562.05	43275.97
562.249	43441.85
562.448	43734.71
562.647	43562.68
562.846	43601.6
563.045	43509.44
563.244	43089.6
563.443	43835.06
563.642	43030.21
563.841	43116.23
564.04	43093.7
564.239	43448
564.438	42962.63
564.637	42981.06
564.836	43058.88
565.035	42378.96
565.234	42575.56
565.432	42686.15
565.631	42352.34
565.83	42796.74
566.029	42290.9
566.228	41981.65
566.427	42315.47
566.625	42143.44
566.824	41682.65
567.023	41950.93
567.222	41332.45
567.42	41959.13
567.619	42084.05
567.818	41508.57
568.016	41778.9
568.215	42501.84
568.414	41764.57
568.612	42149.59
568.811	41064.16
569.01	41549.53
569.208	40810.21
569.407	41361.12
569.605	40793.83
569.804	41232.1
570.002	40906.47
570.201	40990.44
570.4	40580.84
570.598	40670.95
570.797	40029.94
570.995	40836.84
571.193	39870.2
571.392	40963.81
571.59	40138.48
571.789	40480.49
571.987	40017.65
572.186	40181.49
572.384	39872.24
572.582	40046.32
572.781	40089.33
572.979	39479.03
573.177	40130.29
573.376	39999.22
573.574	39331.58
573.772	39796.47
573.971	39339.77
574.169	39239.42
574.367	38817.54
574.565	39065.35
574.763	39208.7
574.962	38733.57
575.16	38846.21
575.358	38706.95
575.556	38149.9
575.754	38958.85
575.952	38092.56
576.151	38756.1
576.349	37926.67
576.547	38137.62
576.745	38344.46
576.943	38440.71
577.141	37803.8
577.339	37844.76
577.537	37785.36
577.735	37701.4
577.933	37654.29
578.131	37820.18
578.329	37433.11
578.527	37105.44
578.725	37537.56
578.923	37340.96
579.121	37263.13
579.319	37170.97
579.516	37158.69
579.714	37318.43
579.912	36917.03
580.11	36728.61
580.308	36871.97
580.506	36783.91
580.704	36427.56
580.901	36691.75
581.099	36851.49
581.297	36077.36
581.495	36445.99
581.692	36464.42
581.89	35962.67
582.088	36179.76
582.285	35870.51
582.483	36136.75
582.681	35503.93
582.878	35755.83
583.076	35241.79
583.274	35391.29
583.471	35196.73
583.669	35583.8
583.866	35233.6
584.064	35405.63
584.262	35163.96
584.459	35362.62
584.657	34977.6
584.854	34715.46
585.052	34279.24
585.249	35348.28
585.447	34676.55
585.644	34551.62
585.841	34273.1
586.039	34774.85
586.236	34654.02
586.434	34211.66
586.631	33814.35
586.828	33943.38
587.026	33853.26
587.223	33707.86
587.42	33976.14
587.618	33689.43
587.815	33316.7
588.012	33273.69
588.21	33415
588.407	33390.42
588.604	33345.37
588.801	32747.36
588.999	33212.25
589.196	32397.16
589.393	32796.51
589.59	33025.89
589.787	32644.96
589.984	32268.14
590.182	32452.45
590.379	32632.68
590.576	32036.72
590.773	32640.87
590.97	31975.28
591.167	32251.75
591.364	31788.91
591.561	31948.65
591.758	31741.81
591.955	31623.03
592.152	32055.15
592.349	31709.04
592.546	31414.13
592.743	31631.22
592.94	30898.05
593.137	31137.66
593.334	31592.31
593.531	30887.81
593.727	30879.61
593.924	30955.39
594.121	30629.76
594.318	30664.58
594.515	30361.48
594.712	30738.3
594.908	30254.98
595.105	30435.2
595.302	30154.63
595.499	29986.7
595.696	30171.02
595.892	30078.86
596.089	30218.12
596.286	30224.26
596.482	29898.64
596.679	29810.57
596.876	29544.34
597.072	29497.24
597.269	29609.87
597.466	29321.11
597.662	29450.13
597.859	29321.11
598.055	29233.05
598.252	28911.52
598.448	29097.88
598.645	29001.63
598.841	28966.81
599.038	28880.8
599.234	28858.27
599.431	28688.29
599.627	28540.83
599.824	28344.23
600.02	28368.8
600.217	28213.16
600.413	28047.27
600.609	28039.08
600.806	27869.1
601.002	28151.72
601.198	27944.87
601.395	27676.59
601.591	27776.94
601.787	27674.54
601.984	27830.19
602.18	27948.97
602.376	27391.92
602.572	27375.54
602.769	27297.72
602.965	27058.1
603.161	27076.54
603.357	26714.05
603.553	26922.94
603.75	26863.55
603.946	26451.91
604.142	26488.77
604.338	26273.73
604.534	26542.02
604.73	26277.83
604.926	26185.67
605.122	26412.99
605.318	26208.2
605.514	26396.61
605.71	25923.53
605.906	25751.5
606.102	25970.63
606.298	25855.95
606.494	25743.31
606.69	25700.3
606.886	25853.9
607.082	25348.05
607.278	25745.36
607.474	25339.86
607.67	25522.13
607.866	25190.36
608.062	25395.15
608.257	25038.81
608.453	24895.45
608.649	25137.11
608.845	25075.67
609.041	24940.5
609.236	25382.87
609.432	24901.59
609.628	24698.84
609.824	24770.52
610.019	24489.95
610.215	24971.22
610.411	24788.96
610.606	24405.98
610.802	24451.04
610.998	24539.1
611.193	24448.99
611.389	24242.15
611.584	24539.1
611.78	24309.73
611.976	24133.61
612.171	24125.41
612.367	24098.79
612.562	24088.55
612.758	23951.34
612.953	24076.26
613.149	24084.45
613.344	23982.06
613.539	24078.31
613.735	23861.23
613.93	23740.4
614.126	23597.04
614.321	24205.28
614.517	23719.92
614.712	23654.38
614.907	23416.82
615.103	23515.12
615.298	23564.27
615.493	23529.45
615.688	23261.17
615.884	23648.24
616.079	23197.68
616.274	23338.99
616.47	23027.7
616.665	23285.75
616.86	22810.62
617.055	22937.59
617.25	23085.05
617.445	23121.91
617.641	22337.54
617.836	23349.23
618.031	22650.88
618.226	22796.28
618.421	22798.33
618.616	22618.11
618.811	22497.28
619.006	22679.55
619.201	22337.54
619.396	22605.82
619.591	21874.7
619.786	22259.71
619.981	21917.7
620.176	22487.04
620.371	21762.06
620.566	21737.48
620.761	21694.47
620.956	21708.81
621.151	21303.31
621.346	21301.26
621.541	21188.63
621.735	21528.59
621.93	21108.76
622.125	21024.79
622.32	20879.38
622.515	20908.05
622.709	20455.45
622.904	20602.91
623.099	20545.56
623.294	20344.86
623.488	20391.97
623.683	20318.24
623.878	19791.91
624.072	20095.01
624.267	19910.69
624.462	19687.46
624.656	19591.21
624.851	19890.21
625.046	19472.43
625.24	19628.07
625.435	19329.07
625.629	19398.7
625.824	19011.64
626.018	18933.81
626.213	18610.23
626.407	18935.86
626.602	18452.54
626.796	18849.85
626.991	18690.1
627.185	18602.04
627.38	18274.37
627.574	18153.54
627.768	18067.52
627.963	18055.23
628.157	18092.1
628.352	18075.71
628.546	17543.24
628.74	17745.99
628.935	17694.79
629.129	17514.57
629.323	17690.7
629.517	17313.87
629.712	17203.28
629.906	17076.3
630.1	16910.42
630.294	16861.27
630.489	16801.88
630.683	16947.28
630.877	16490.59
631.071	16547.93
631.265	16707.67
631.459	16652.38
631.653	16502.87
631.848	16250.97
632.042	16126.05
632.236	15954.02
632.43	15784.04
632.624	15962.21
632.818	15847.52
633.012	15448.17
633.206	15683.69
633.4	15812.71
633.594	15315.05
633.788	15659.11
633.982	15544.42
634.176	15446.12
634.369	15212.65
634.563	15237.23
634.757	15040.62
634.951	15265.9
635.145	14954.61
635.339	15118.45
635.533	14608.5
635.726	14561.4
635.92	14528.63
636.114	14655.61
636.308	14520.44
636.501	14448.76
636.695	14438.52
636.889	14491.77
637.083	14020.74
637.276	13955.2
637.47	14098.56
637.664	14141.57
637.857	13860.99
638.051	14006.4
638.244	13787.27
638.438	13682.82
638.632	13803.65
638.825	13676.68
639.019	13758.6
639.212	13445.26
639.406	13344.91
639.599	13353.1
639.793	13320.33
639.986	13154.44
640.18	13017.23
640.373	13039.76
640.567	12875.92
640.76	12890.26
640.954	12861.59
641.147	12673.17
641.34	12695.7
641.534	12611.73
641.727	12634.26
641.92	12546.2
642.114	12275.87
642.307	12578.97
642.5	12411.03
642.694	11966.62
642.887	11970.72
643.08	12288.15
643.273	12038.3
643.467	11989.15
643.66	12120.22
643.853	11671.72
644.046	11526.31
644.239	11591.84
644.432	11585.7
644.626	11677.86
644.819	11475.11
645.012	11591.84
645.205	11452.58
645.398	11368.62
645.591	11294.89
645.784	11358.38
645.977	11133.1
646.17	11200.68
646.363	10913.97
646.556	11022.51
646.749	10934.45
646.942	10969.26
647.135	10809.52
647.328	10811.57
647.521	10924.21
647.714	10518.71
647.907	10684.59
648.099	10598.58
648.292	10502.33
648.485	10754.23
648.678	10375.35
648.871	10369.21
649.064	10219.71
649.256	10285.24
649.449	10293.43
649.642	10227.9
649.835	10014.91
650.027	9892.03
650.22	9836.74
650.413	9892.03
650.605	9953.47
650.798	9881.79
650.991	9638.08
651.183	9967.81
651.376	9507.01
651.568	9625.79
651.761	9631.94
651.954	9689.28
652.146	9676.99
652.339	9480.39
652.531	9466.05
652.724	9525.44
652.916	9433.29
653.109	9095.37
653.301	9322.7
653.494	9404.61
653.686	8966.35
653.879	9105.61
654.071	8937.68
654.263	8988.88
654.456	8913.1
654.648	8851.66
654.84	8913.1
655.033	8919.25
655.225	8755.41
655.417	8679.63
655.61	8661.2
655.802	8743.12
655.994	8704.21
656.186	8405.21
656.379	8716.5
656.571	8444.12
656.763	8382.68
656.955	8304.85
657.148	8427.73
657.34	8296.66
657.532	8206.55
657.724	8184.02
657.916	8016.09
658.108	8089.82
658.3	8044.76
658.492	8165.59
658.684	8022.23
658.876	8093.91
659.068	7934.17
659.26	7774.43
659.452	7766.24
659.644	7678.18
659.836	7774.43
660.028	7854.3
660.22	7735.52
660.412	7526.63
660.604	7657.7
660.796	7657.7
660.988	7631.07
661.18	7483.62
661.372	7518.43
661.563	7352.55
661.755	7346.41
661.947	7241.96
662.139	7295.21
662.331	7174.38
662.522	7395.56
662.714	7221.48
662.906	7098.6
663.097	7151.85
663.289	7088.36
663.481	7012.59
663.673	7020.78
663.864	7008.49
664.056	6910.19
664.247	6752.49
664.439	6899.95
664.631	6787.31
664.822	6828.27
665.014	6689.01
665.205	6553.84
665.397	6717.68
665.588	6680.82
665.78	6508.79
665.971	6639.86
666.163	6586.61
666.354	6557.94
666.546	6611.18
666.737	6510.83
666.929	6459.63
667.12	6344.95
667.311	6385.91
667.503	6336.76
667.694	6383.86
667.885	6267.13
668.077	6273.27
668.268	6248.69
668.459	6236.41
668.651	6256.89
668.842	6107.38
669.033	6127.86
669.224	5945.59
669.416	6191.35
669.607	6095.1
669.798	6091
669.989	6078.71
670.18	6156.54
670.371	5888.25
670.563	6009.08
670.754	5953.79
670.945	5888.25
671.136	5941.5
671.327	5921.02
671.518	5740.8
671.709	5886.2
671.9	6007.03
672.091	5738.75
672.282	5599.49
672.473	5669.12
672.664	5669.12
672.855	5720.32
673.046	5638.4
673.237	5650.69
673.428	5470.47
673.619	5656.83
673.809	5566.72
674	5361.92
674.191	5630.21
674.382	5488.9
674.573	5501.19
674.764	5624.06
674.954	5634.3
675.145	5339.4
675.336	5656.83
675.527	5396.74
675.717	5441.79
675.908	5400.83
676.099	5466.37
676.289	5370.12
676.48	5247.24
676.671	5237
676.861	5339.4
677.052	5191.94
677.243	5247.24
677.433	5298.44
677.624	5222.66
677.814	5058.82
678.005	5327.11
678.195	5300.48
678.386	5175.56
678.576	5241.09
678.767	5306.63
678.957	5026.06
679.148	5210.37
679.338	5130.5
679.529	5052.68
679.719	5058.82
679.909	5026.06
680.1	4935.95
680.29	5167.37
680.481	4978.95
680.671	5058.82
680.861	4954.38
681.052	5024.01
681.242	5017.86
681.432	5007.62
681.622	5009.67
681.813	4860.17
682.003	4833.55
682.193	4952.33
682.383	4829.45
682.573	4872.46
682.764	4956.43
682.954	4673.81
683.144	4722.96
683.334	4946.19
683.524	4747.53
683.714	4829.45
683.904	4755.72
684.094	4790.54
684.284	4755.72
684.474	4989.19
684.664	4708.62
684.854	4839.69
685.044	4604.18
685.234	4817.16
685.424	4776.2
685.614	4665.61
685.804	4602.13
685.994	4600.08
686.184	4688.14
686.374	4448.53
686.564	4469.01
686.753	4540.69
686.943	4614.41
687.133	4593.94
687.323	4454.67
687.513	4600.08
687.702	4579.6
687.892	4436.24
688.082	4307.22
688.272	4450.58
688.461	4428.05
688.651	4436.24
688.841	4231.44
689.03	4243.73
689.22	4272.4
689.41	4389.14
689.599	4387.09
689.789	4436.24
689.979	4266.26
690.168	4172.05
690.358	4231.44
690.547	4129.05
690.737	4258.07
690.926	4186.39
691.116	4143.38
691.305	4165.91
691.495	4165.91
691.684	4151.57
691.874	3944.73
692.063	3895.58
692.252	4022.55
692.442	3920.15
692.631	3879.19
692.82	3967.26
693.01	4002.07
693.199	3889.43
693.388	3946.78
693.578	3864.86
693.767	3823.9
693.956	3823.9
694.146	3836.19
694.335	3807.52
694.524	3840.28
694.713	3866.91
694.902	3838.23
695.092	3848.47
695.281	3670.3
695.47	3809.56
695.659	3723.55
695.848	3764.51
696.037	3748.12
696.226	3776.8
696.415	3612.96
696.604	3658.01
696.793	3653.92
696.982	3674.4
697.171	3694.88
697.36	3617.05
697.549	3535.14
697.738	3535.14
697.927	3748.12
698.116	3686.69
698.305	3649.82
698.494	3623.2
698.683	3653.92
698.872	3627.29
699.061	3604.77
699.25	3672.35
699.438	3668.25
699.627	3682.59
699.816	3543.33
700.005	3504.42
700.193	3703.07
700.382	3508.51
700.571	3408.16
700.76	3543.33
700.948	3428.64
701.137	3518.75
701.326	3584.29
701.514	3430.69
701.703	3479.84
701.892	3318.05
702.08	3490.08
702.269	3389.73
702.457	3297.57
702.646	3350.82
702.834	3258.66
703.023	3313.95
703.212	3520.8
703.4	3397.92
703.589	3465.5
703.777	3485.98
703.965	3371.3
704.154	3273
704.342	3273
704.531	3385.63
704.719	3332.39
704.907	3330.34
705.096	3262.76
705.284	3240.23
705.472	3225.89
705.661	3215.65
705.849	3348.77
706.037	3270.95
706.226	3260.71
706.414	3377.44
706.602	3184.93
706.79	3289.38
706.979	3232.04
707.167	3211.56
707.355	3146.02
707.543	3146.02
707.731	3178.79
707.919	3107.11
708.107	3080.49
708.296	3215.65
708.484	3123.49
708.672	3014.95
708.86	3275.04
709.048	3234.08
709.236	3146.02
709.424	3174.69
709.612	2920.74
709.8	3158.31
709.988	3168.55
710.176	3125.54
710.364	3170.6
710.551	3060.01
710.739	3193.12
710.927	3193.12
711.115	3193.12
711.303	3162.41
711.491	3182.88
711.679	3062.05
711.866	3080.49
712.054	2998.57
712.242	3086.63
712.43	3131.69
712.617	2988.33
712.805	3076.39
712.993	3031.34
713.181	2949.42
713.368	3057.96
713.556	3084.58
713.744	2941.22
713.931	3072.29
714.119	3060.01
714.306	2971.94
714.494	3006.76
714.682	2990.38
714.869	2834.73
715.057	2955.56
715.244	2894.12
715.432	2963.75
715.619	3027.24
715.807	2986.28
715.994	3111.21
716.182	2908.46
716.369	3037.48
716.556	2973.99
716.744	2865.45
716.931	2994.47
717.119	2902.31
717.306	2847.02
717.493	2922.79
717.681	2902.31
717.868	2832.68
718.055	2947.37
718.242	2916.65
718.43	2857.26
718.617	2996.52
718.804	2894.12
718.991	2849.07
719.179	2853.16
719.366	2881.83
719.553	2867.5
719.74	2939.18
719.927	2965.8
720.114	2806.06
720.301	2707.76
720.488	2726.19
720.676	2806.06
720.863	2758.96
721.05	2916.65
721.237	2783.53
721.424	2875.69
721.611	2928.94
721.798	2806.06
721.985	2816.3
722.172	2789.67
722.358	2697.52
722.545	2683.18
722.732	2783.53
722.919	2814.25
723.106	2763.05
723.293	2789.67
723.48	2775.34
723.667	2674.99
723.853	2650.41
724.04	2830.63
724.227	2791.72
724.414	2742.57
724.6	2707.76
724.787	2765.1
724.974	2724.14
725.161	2672.94
725.347	2640.17
725.534	2791.72
725.72	2689.32
725.907	2660.65
726.094	2816.3
726.28	2660.65
726.467	2707.76
726.653	2736.43
726.84	2679.08
727.027	2650.41
727.213	2631.98
727.4	2646.32
727.586	2722.09
727.773	2767.15
727.959	2601.26
728.145	2619.69
728.332	2519.34
728.518	2713.9
728.705	2691.37
728.891	2664.75
729.077	2554.16
729.264	2586.93
729.45	2627.89
729.636	2564.4
729.823	2490.67
730.009	2601.26
730.195	2486.58
730.382	2541.87
730.568	2562.35
730.754	2662.7
730.94	2554.16
731.126	2552.11
731.313	2683.18
731.499	2650.41
731.685	2636.08
731.871	2629.93
732.057	2644.27
732.243	2556.21
732.429	2496.82
732.615	2527.53
732.801	2621.74
732.987	2484.53
733.173	2511.15
733.359	2621.74
733.545	2484.53
733.731	2431.28
733.917	2488.62
734.103	2443.57
734.289	2578.73
734.475	2496.82
734.661	2607.41
734.847	2425.14
735.033	2603.31
735.219	2527.53
735.404	2644.27
735.59	2421.04
735.776	2519.34
735.962	2380.08
736.148	2625.84
736.333	2480.43
736.519	2459.95
736.705	2490.67
736.89	2451.76
737.076	2560.3
737.262	2373.94
737.447	2507.06
737.633	2398.51
737.819	2378.03
738.004	2412.85
738.19	2349.36
738.375	2394.42
738.561	2404.66
738.747	2328.88
738.932	2363.7
739.118	2322.74
739.303	2351.41
739.489	2464.05
739.674	2349.36
739.859	2289.97
740.045	2322.74
740.23	2359.6
740.416	2292.02
740.601	2300.21
740.786	2312.5
740.972	2251.06
741.157	2449.71
741.342	2232.63
741.528	2195.76
741.713	2294.07
741.898	2343.22
742.084	2251.06
742.269	2251.06
742.454	2298.16
742.639	2224.44
742.824	2083.13
743.01	2230.58
743.195	2230.58
743.38	2226.48
743.565	2220.34
743.75	2228.53
743.935	2167.09
744.12	2240.82
744.305	2068.79
744.49	2132.28
744.675	2167.09
744.86	2234.68
745.045	2005.3
745.23	2105.65
745.415	2138.42
745.6	2072.89
745.785	2058.55
745.97	2076.98
746.155	1972.54
746.34	2126.13
746.525	2021.69
746.71	2134.32
746.895	1986.87
747.079	1976.63
747.264	1870.14
747.449	1919.29
747.634	1980.73
747.819	1966.39
748.003	1833.27
748.188	1861.94
748.373	1978.68
748.557	1898.81
748.742	1909.05
748.927	1808.7
749.111	1839.42
749.296	1825.08
749.481	1923.38
749.665	1866.04
749.85	1741.11
750.034	1851.71
750.219	1687.87
750.404	1823.03
750.588	1636.67
750.773	1751.35
750.957	1726.78
751.141	1771.83
751.326	1642.81
751.51	1769.79
751.695	1728.83
751.879	1745.21
752.064	1708.35
752.248	1755.45
752.432	1630.52
752.617	1544.51
752.801	1589.57
752.985	1646.91
753.17	1597.76
753.354	1612.09
753.538	1675.58
753.722	1544.51
753.907	1550.65
754.091	1528.13
754.275	1476.93
754.459	1505.6
754.643	1442.11
754.828	1472.83
755.012	1519.93
755.196	1409.34
755.38	1392.96
755.564	1444.16
755.748	1438.02
755.932	1530.17
756.116	1491.26
756.3	1407.3
756.484	1335.62
756.668	1470.78
756.852	1431.87
757.036	1270.08
757.22	1237.31
757.404	1405.25
757.588	1282.37
757.772	1341.76
757.956	1472.83
758.14	1265.99
758.323	1317.19
758.507	1339.71
758.691	1151.3
758.875	1313.09
759.059	1315.14
759.242	1249.6
759.426	1235.27
759.61	1253.7
759.794	1208.64
759.977	1200.45
760.161	1298.75
760.345	1202.5
760.528	1235.27
760.712	1208.64
760.895	1276.23
761.079	1208.64
761.263	1251.65
761.446	1218.88
761.63	1153.35
761.813	1194.31
761.997	1169.73
762.18	1081.67
762.364	1081.67
762.547	1163.59
762.731	1208.64
762.914	1134.92
763.098	987.46
763.281	1063.24
763.464	1122.63
763.648	1114.44
763.831	1007.94
764.015	1108.29
764.198	1087.81
764.381	1067.33
764.564	1200.45
764.748	1030.47
764.931	1065.29
765.114	966.98
765.297	1022.28
765.481	1026.37
765.664	954.69
765.847	1063.24
766.03	948.55
766.213	1089.86
766.397	1038.66
766.58	975.17
766.763	964.93
766.946	936.26
767.129	979.27
767.312	956.74
767.495	954.69
767.678	956.74
767.861	1069.38
768.044	897.35
768.227	999.75
768.41	1063.24
768.593	971.08
768.776	1032.52
768.959	919.88
769.142	966.98
769.324	952.65
769.507	983.37
769.69	883.02
769.873	807.24
770.056	979.27
770.239	995.65
770.421	987.46
770.604	872.78
770.787	799.05
770.97	901.45
771.152	868.68
771.335	905.54
771.518	880.97
771.7	934.22
771.883	878.92
772.066	872.78
772.248	893.26
772.431	995.65
772.613	948.55
772.796	864.58
772.978	874.82
773.161	901.45
773.343	872.78
773.526	739.66
773.708	860.49
773.891	768.33
774.073	805.19
774.256	815.43
774.438	897.35
774.621	745.8
774.803	696.65
774.985	684.36
775.168	743.75
775.35	756.04
775.532	823.62
775.715	751.95
775.897	717.13
776.079	727.37
776.261	778.57
776.444	741.71
776.626	774.47
776.808	737.61
776.99	657.74
777.173	598.35
777.355	776.52
777.537	659.79
777.719	676.17
777.901	672.08
778.083	643.4
778.265	684.36
778.447	710.99
778.629	659.79
778.811	760.14
778.993	659.79
779.175	651.6
779.357	594.25
779.539	655.69
779.721	676.17
779.903	594.25
780.085	579.92
780.267	696.65
780.449	536.91
780.631	647.5
780.812	635.21
780.994	530.77
781.176	627.02
781.358	616.78
781.54	561.48
781.721	637.26
781.903	508.24
782.085	512.33
782.267	620.88
782.448	571.72
782.63	522.57
782.812	491.85
782.993	602.44
783.175	555.34
783.357	530.77
783.538	565.58
783.72	481.61
783.901	448.85
784.083	563.53
784.264	463.18
784.446	450.89
784.627	541.01
784.809	493.9
784.99	430.41
785.172	522.57
785.353	579.92
785.535	520.53
785.716	522.57
785.897	432.46
786.079	414.03
786.26	495.95
786.441	569.68
786.623	461.13
786.804	467.28
786.985	457.04
787.167	528.72
787.348	448.85
787.529	424.27
787.71	446.8
787.891	407.89
788.073	356.69
788.254	373.07
788.435	399.7
788.616	438.61
788.797	426.32
788.978	397.65
789.159	430.41
789.34	385.36
789.522	360.78
789.703	432.46
789.884	373.07
790.065	411.98
790.246	446.8
790.427	428.37
790.607	434.51
790.788	346.45
790.969	393.55
791.15	407.89
791.331	383.31
791.512	321.87
791.693	377.17
791.874	428.37
792.054	379.22
792.235	336.21
792.416	399.7
792.597	383.31
792.778	301.39
792.958	360.78
793.139	366.93
793.32	334.16
793.5	307.54
793.681	303.44
793.862	385.36
794.042	336.21
794.223	278.87
794.404	270.67
794.584	278.87
794.765	317.78
794.945	311.63
795.126	358.74
795.306	340.3
795.487	291.15
795.667	336.21
795.848	325.97
796.028	246.1
796.209	317.78
796.389	258.39
796.57	379.22
796.75	260.43
796.93	291.15
797.111	278.87
797.291	282.96
797.471	315.73
797.652	334.16
797.832	227.67
798.012	346.45
798.192	258.39
798.373	287.06
798.553	299.34
798.733	217.43
798.913	192.85
799.093	325.97
799.274	332.11
799.454	282.96
799.634	330.06
799.814	315.73
799.994	250.19
800.174	250.19
800.354	246.1
800.534	217.43
800.714	211.28
800.894	254.29
801.074	192.85
801.254	242
801.434	301.39
801.614	233.81
801.794	278.87
801.974	833.86
802.154	207.19
802.334	303.44
802.514	194.9
802.693	211.28
802.873	299.34
803.053	274.77
803.233	229.71
803.413	276.82
803.592	242
803.772	192.85
803.952	201.04
804.131	282.96
804.311	201.04
804.491	239.95
804.67	217.43
804.85	133.46
805.03	244.05
805.209	227.67
805.389	201.04
805.568	176.47
805.748	178.51
805.928	289.1
806.107	225.62
806.287	231.76
806.466	180.56
806.646	237.91
806.825	219.47
807.004	178.51
807.184	196.95
807.363	285.01
807.543	194.9
807.722	168.27
807.901	151.89
808.081	192.85
808.26	166.23
808.439	209.23
808.619	217.43
808.798	221.52
808.977	217.43
809.156	158.03
809.336	198.99
809.515	225.62
809.694	151.89
809.873	160.08
810.052	192.85
810.231	192.85
810.411	115.03
810.59	203.09
810.769	213.33
810.948	213.33
811.127	112.98
811.306	162.13
811.485	235.86
811.664	178.51
811.843	170.32
812.022	160.08
812.201	188.75
812.38	155.99
812.559	86.36
812.737	233.81
812.916	117.08
813.095	209.23
813.274	102.74
813.453	178.51
813.632	164.18
813.811	162.13
813.989	158.03
814.168	162.13
814.347	158.03
814.526	129.36
814.704	258.39
814.883	162.13
815.062	153.94
815.24	188.75
815.419	65.88
815.598	110.93
815.776	162.13
815.955	129.36
816.133	117.08
816.312	203.09
816.49	176.47
816.669	110.93
816.847	158.03
817.026	137.56
817.204	153.94
817.383	125.27
817.561	86.36
817.74	149.84
817.918	110.93
818.097	94.55
818.275	100.69
818.453	123.22
818.632	151.89
818.81	151.89
818.988	123.22
819.167	102.74
819.345	180.56
819.523	158.03
819.701	164.18
819.879	188.75
820.058	172.37
820.236	153.94
820.414	98.64
820.592	127.32
820.77	131.41
820.948	94.55
821.127	98.64
821.305	119.12
821.483	115.03
821.661	168.27
821.839	147.8
822.017	172.37
822.195	92.5
822.373	153.94
822.551	203.09
822.729	121.17
822.907	186.71
823.085	176.47
823.262	98.64
823.44	127.32
823.618	55.64
823.796	115.03
823.974	147.8
824.152	164.18
824.329	88.4
824.507	131.41
824.685	137.56
824.863	76.12
825.04	139.6
825.218	110.93
825.396	123.22
825.574	145.75
825.751	147.8
825.929	121.17
826.107	119.12
826.284	135.51
826.462	80.21
826.639	121.17
826.817	47.44
826.994	147.8
827.172	29.01
827.349	108.88
827.527	53.59
827.704	108.88
827.882	145.75
828.059	80.21
828.237	119.12
828.414	102.74
828.591	72.02
828.769	102.74
828.946	26.96
829.124	102.74
829.301	143.7
829.478	49.49
829.655	123.22
829.833	88.4
830.01	45.4
830.187	104.79
830.364	108.88
830.542	63.83
830.719	110.93
830.896	125.27
831.073	143.7
831.25	112.98
831.427	135.51
831.604	86.36
831.782	72.02
831.959	90.45
832.136	115.03
832.313	72.02
832.49	74.07
832.667	49.49
832.844	92.5
833.021	90.45
833.198	123.22
833.374	78.16
833.551	57.68
833.728	86.36
833.905	61.78
834.082	84.31
834.259	14.68
834.436	110.93
834.612	33.11
834.789	98.64
834.966	162.13
835.143	55.64
835.319	88.4
835.496	119.12
835.673	86.36
835.85	86.36
836.026	80.21
836.203	106.84
836.38	72.02
836.556	37.2
836.733	31.06
836.909	135.51
837.086	6.49
837.262	37.2
837.439	39.25
837.616	72.02
837.792	41.3
837.968	-18.09
838.145	26.96
838.321	110.93
838.498	16.73
838.674	131.41
838.851	-5.8
839.027	29.01
839.203	20.82
839.38	49.49
839.556	45.4
839.732	80.21
839.909	69.97
840.085	55.64
840.261	20.82
840.437	74.07
840.614	49.49
840.79	86.36
840.966	53.59
841.142	76.12
841.318	82.26
841.494	106.84
841.671	45.4
841.847	53.59
842.023	82.26
842.199	151.89
842.375	47.44
842.551	49.49
842.727	29.01
842.903	151.89
843.079	61.78
843.255	4.44
843.431	20.82
843.607	127.32
843.783	47.44
843.959	76.12
844.134	29.01
844.31	80.21
844.486	119.12
844.662	-40.62
844.838	29.01
845.013	65.88
845.189	86.36
845.365	69.97
845.541	37.2
845.716	82.26
845.892	110.93
846.068	45.4
846.244	-36.52
846.419	16.73
846.595	57.68
846.77	31.06
846.946	14.68
847.122	94.55
847.297	92.5
847.473	123.22
847.648	16.73
847.824	104.79
847.999	33.11
848.175	29.01
848.35	78.16
848.526	110.93
848.701	74.07
848.876	106.84
849.052	80.21
849.227	12.63
849.403	82.26
849.578	137.56
849.753	98.64
849.929	22.87
850.104	45.4
850.279	65.88
850.454	74.07
850.63	43.35
850.805	86.36
850.98	12.63
851.155	47.44
851.33	33.11
851.505	82.26
851.681	61.78
851.856	61.78
852.031	55.64
852.206	14.68
852.381	12.63
852.556	29.01
852.731	55.64
852.906	-11.95
853.081	94.55
853.256	115.03
853.431	41.3
853.606	4.44
853.781	108.88
853.956	53.59
854.131	121.17
854.305	45.4
854.48	24.92
854.655	8.53
854.83	45.4
855.005	4.44
855.18	86.36
855.354	41.3
855.529	72.02
855.704	69.97
855.879	33.11
856.053	110.93
856.228	69.97
856.403	78.16
856.577	31.06
856.752	4.44
856.926	65.88
857.101	31.06
857.276	33.11
857.45	49.49
857.625	65.88
857.799	47.44
857.974	33.11
858.148	-28.33
858.323	90.45
858.497	-20.14
858.672	-18.09
858.846	-36.52
859.02	12.63
859.195	55.64
859.369	49.49
859.543	57.68
859.718	16.73
859.892	119.12
860.066	-20.14
860.241	37.2
860.415	65.88
860.589	-30.38
860.763	88.4
860.938	29.01
861.112	14.68
861.286	-93.87
861.46	96.6
861.634	16.73
861.808	45.4
861.982	45.4
862.157	29.01
862.331	-22.19
862.505	29.01
862.679	16.73
862.853	63.83
863.027	43.35
863.201	78.16
863.375	29.01
863.549	61.78
863.722	102.74
863.896	29.01
864.07	-59.05
864.244	-13.99
864.418	-65.19
864.592	47.44
864.766	20.82
864.939	22.87
865.113	55.64
865.287	80.21
865.461	20.82
865.634	110.93
865.808	26.96
865.982	69.97
866.156	55.64
866.329	39.25
866.503	98.64
866.676	4.44
866.85	33.11
867.024	-52.91
867.197	18.77
867.371	51.54
867.544	16.73
867.718	12.63
867.891	80.21
868.065	-16.04
868.238	8.53
868.412	57.68
868.585	-44.71
868.759	0.34
868.932	-32.43
869.105	33.11
869.279	45.4
869.452	61.78
869.625	-9.9
869.799	12.63
869.972	-77.48
870.145	82.26
870.319	14.68
870.492	45.4
870.665	12.63
870.838	45.4
871.011	45.4
871.185	45.4
871.358	-5.8
871.531	49.49
871.704	41.3
871.877	-11.95
872.05	8.53
872.223	-28.33
872.396	-20.14
872.569	49.49
872.742	22.87
872.915	72.02
873.088	90.45
873.261	-24.23
873.434	63.83
873.607	-1.71
873.78	31.06
873.953	37.2
874.126	-52.91
874.299	53.59
874.471	39.25
874.644	0.34
874.817	45.4
874.99	31.06
875.163	41.3
875.335	69.97
875.508	-67.24
875.681	4.44
875.853	-11.95
876.026	4.44
876.199	47.44
876.371	61.78
876.544	8.53
876.717	-42.67
876.889	41.3
877.062	18.77
877.234	-81.58
877.407	-7.85
877.579	-52.91
877.752	-13.99
877.924	-3.75
878.097	86.36
878.269	-20.14
878.442	16.73
878.614	43.35
878.786	-36.52
878.959	-18.09
879.131	86.36
879.303	-59.05
879.476	96.6
879.648	-11.95
879.82	78.16
879.993	-9.9
880.165	-52.91
880.337	12.63
880.509	12.63
880.681	14.68
880.854	80.21
881.026	14.68
881.198	53.59
881.37	-26.28
881.542	4.44
881.714	2.39
881.886	-42.67
882.058	-20.14
882.23	26.96
882.402	53.59
882.574	-34.47
882.746	31.06
882.918	59.73
883.09	4.44
883.262	16.73
883.434	53.59
883.606	4.44
883.778	22.87
883.95	76.12
884.122	-16.04
884.293	12.63
884.465	45.4
884.637	26.96
884.809	0.34
884.98	12.63
885.152	16.73
885.324	16.73
885.496	-3.75
885.667	-13.99
885.839	-57
886.011	49.49
886.182	24.92
886.354	-3.75
886.525	43.35
886.697	-34.47
886.869	-28.33
887.04	-36.52
887.212	20.82
887.383	4.44
887.555	-3.75
887.726	4.44
887.897	-48.81
888.069	-3.75
888.24	65.88
888.412	-44.71
888.583	37.2
888.754	31.06
888.926	-38.57
889.097	-61.1
889.268	14.68
889.44	-11.95
889.611	-57
889.782	-69.29
889.953	86.36
890.125	18.77
890.296	-63.15
890.467	-48.81
890.638	-30.38
890.809	14.68
890.98	41.3
891.151	29.01
891.323	16.73
891.494	6.49
891.665	-20.14
891.836	-24.23
892.007	45.4
892.178	-1.71
892.349	39.25
892.52	31.06
892.691	-26.28
892.862	-7.85
893.032	-3.75
893.203	37.2
893.374	14.68
893.545	53.59
893.716	4.44
893.887	14.68
894.057	-73.39
894.228	16.73
894.399	-9.9
894.57	12.63
894.74	-18.09
894.911	45.4
895.082	4.44
895.253	-73.39
895.423	-9.9
895.594	69.97
895.764	41.3
895.935	39.25
896.106	-7.85
896.276	-52.91
896.447	2.39
896.617	39.25
896.788	0.34
896.958	16.73
897.129	-18.09
897.299	-22.19
897.47	49.49
897.64	37.2
897.81	6.49
897.981	-36.52
898.151	37.2
898.322	-9.9
898.492	-40.62
898.662	20.82
898.832	-34.47
899.003	-1.71
899.173	20.82
899.343	24.92
899.513	-16.04
