Data from USB4F104151__305__14-24-09-029.txt Node

Date: Thu Mar 13 14:24:09 EDT 2025
User: louis
Spectrometer: USB4F10415
Trigger mode: 4
Integration Time (sec): 2.000000E-2
Scans to average: 1
Electric dark correction enabled: true
Nonlinearity correction enabled: false
Boxcar width: 0
XAxis mode: Wavelengths
Number of Pixels in Spectrum: 3648
>>>>>Begin Spectral Data<<<<<
178.204	-124.76
178.424	-124.76
178.644	-124.76
178.864	-83.8
179.084	-141.14
179.304	22.7
179.524	8.36
179.744	-83.8
179.964	2.22
180.184	6.31
180.404	49.32
180.624	26.79
180.844	26.79
181.064	-48.98
181.283	59.56
181.503	-77.65
181.723	8.36
181.943	-73.56
182.163	-28.5
182.383	-10.07
182.602	61.61
182.822	14.51
183.042	24.75
183.262	-16.21
183.482	22.7
183.701	-61.27
183.921	22.7
184.141	34.99
184.361	-10.07
184.58	-55.12
184.8	65.71
185.02	-63.32
185.239	-46.93
185.459	14.51
185.679	30.89
185.898	-32.6
186.118	0.17
186.338	41.13
186.557	14.51
186.777	-51.03
186.997	41.13
187.216	90.28
187.436	32.94
187.655	80.04
187.875	30.89
188.095	34.99
188.314	-5.97
188.534	39.08
188.753	34.99
188.973	49.32
189.192	69.8
189.412	-18.26
189.631	34.99
189.851	4.27
190.07	-10.07
190.29	34.99
190.509	6.31
190.729	-5.97
190.948	14.51
191.168	114.86
191.387	75.95
191.607	18.6
191.826	59.56
192.045	63.66
192.265	55.47
192.484	47.27
192.704	32.94
192.923	-48.98
193.142	88.23
193.362	37.03
193.581	0.17
193.8	8.36
194.02	43.18
194.239	67.75
194.458	47.27
194.678	4.27
194.897	22.7
195.116	-1.88
195.335	-18.26
195.555	28.84
195.774	32.94
195.993	73.9
196.212	112.81
196.432	-26.45
196.651	6.31
196.87	37.03
197.089	90.28
197.308	24.75
197.528	-8.02
197.747	-91.99
197.966	39.08
198.185	18.6
198.404	-16.21
198.623	-55.12
198.842	96.43
199.062	-12.12
199.281	18.6
199.5	24.75
199.719	39.08
199.938	10.41
200.157	26.79
200.376	51.37
200.595	57.51
200.814	18.6
201.033	30.89
201.252	47.27
201.471	73.9
201.69	57.51
201.909	6.31
202.128	104.62
202.347	-1.88
202.566	-10.07
202.785	-10.07
203.004	-36.69
203.223	63.66
203.442	53.42
203.661	8.36
203.879	90.28
204.098	88.23
204.317	-75.6
204.536	20.65
204.755	39.08
204.974	6.31
205.193	-10.07
205.411	108.71
205.63	45.23
205.849	-32.6
206.068	84.14
206.287	-1.88
206.505	-3.93
206.724	26.79
206.943	-36.69
207.162	30.89
207.381	37.03
207.599	22.7
207.818	-12.12
208.037	2.22
208.255	-26.45
208.474	-10.07
208.693	10.41
208.911	22.7
209.13	-53.08
209.349	37.03
209.567	28.84
209.786	51.37
210.005	18.6
210.223	-14.17
210.442	-30.55
210.661	94.38
210.879	14.51
211.098	61.61
211.316	47.27
211.535	6.31
211.753	-1.88
211.972	55.47
212.191	16.55
212.409	-24.4
212.628	16.55
212.846	65.71
213.065	-5.97
213.283	112.81
213.502	16.55
213.72	34.99
213.938	-32.6
214.157	-8.02
214.375	69.8
214.594	-14.17
214.812	98.47
215.031	12.46
215.249	-16.21
215.467	-24.4
215.686	-79.7
215.904	0.17
216.122	-42.84
216.341	2.22
216.559	-42.84
216.778	96.43
216.996	18.6
217.214	22.7
217.432	18.6
217.651	-3.93
217.869	39.08
218.087	39.08
218.306	22.7
218.524	24.75
218.742	57.51
218.96	6.31
219.179	30.89
219.397	22.7
219.615	-18.26
219.833	10.41
220.051	34.99
220.27	73.9
220.488	47.27
220.706	100.52
220.924	24.75
221.142	-51.03
221.36	57.51
221.578	-10.07
221.796	55.47
222.015	8.36
222.233	-12.12
222.451	30.89
222.669	4.27
222.887	65.71
223.105	-18.26
223.323	-28.5
223.541	-10.07
223.759	73.9
223.977	49.32
224.195	-14.17
224.413	59.56
224.631	24.75
224.849	-12.12
225.067	43.18
225.285	-8.02
225.503	39.08
225.721	-46.93
225.939	-67.41
226.157	14.51
226.375	108.71
226.592	-10.07
226.81	2.22
227.028	30.89
227.246	55.47
227.464	32.94
227.682	37.03
227.9	32.94
228.117	39.08
228.335	98.47
228.553	18.6
228.771	116.9
228.989	-1.88
229.206	-42.84
229.424	-26.45
229.642	37.03
229.86	12.46
230.077	65.71
230.295	34.99
230.513	37.03
230.731	63.66
230.948	61.61
231.166	43.18
231.384	39.08
231.601	-18.26
231.819	77.99
232.037	-44.88
232.254	-46.93
232.472	32.94
232.689	-77.65
232.907	-5.97
233.125	67.75
233.342	6.31
233.56	41.13
233.777	2.22
233.995	30.89
234.213	63.66
234.43	-14.17
234.648	6.31
234.865	-16.21
235.083	84.14
235.3	104.62
235.518	24.75
235.735	32.94
235.953	84.14
236.17	32.94
236.388	34.99
236.605	4.27
236.822	24.75
237.04	0.17
237.257	-77.65
237.475	-16.21
237.692	98.47
237.909	55.47
238.127	-32.6
238.344	18.6
238.562	41.13
238.779	16.55
238.996	73.9
239.214	22.7
239.431	22.7
239.648	73.9
239.865	-22.36
240.083	0.17
240.3	2.22
240.517	16.55
240.735	-26.45
240.952	-14.17
241.169	94.38
241.386	16.55
241.603	-61.27
241.821	67.75
242.038	-8.02
242.255	53.42
242.472	22.7
242.689	71.85
242.907	28.84
243.124	-30.55
243.341	26.79
243.558	88.23
243.775	2.22
243.992	-132.95
244.209	12.46
244.426	137.38
244.643	10.41
244.86	-14.17
245.078	51.37
245.295	6.31
245.512	-48.98
245.729	43.18
245.946	22.7
246.163	37.03
246.38	14.51
246.597	59.56
246.814	82.09
247.031	-22.36
247.248	22.7
247.464	69.8
247.681	-48.98
247.898	8.36
248.115	16.55
248.332	65.71
248.549	92.33
248.766	82.09
248.983	75.95
249.2	16.55
249.417	80.04
249.633	18.6
249.85	49.32
250.067	-5.97
250.284	-57.17
250.501	26.79
250.717	6.31
250.934	-32.6
251.151	-34.64
251.368	63.66
251.585	10.41
251.801	-26.45
252.018	6.31
252.235	41.13
252.451	14.51
252.668	14.51
252.885	121
253.102	24.75
253.318	43.18
253.535	80.04
253.752	-26.45
253.968	16.55
254.185	6.31
254.401	61.61
254.618	0.17
254.835	-18.26
255.051	63.66
255.268	32.94
255.484	96.43
255.701	-8.02
255.917	41.13
256.134	18.6
256.351	30.89
256.567	-20.31
256.784	-48.98
257	-63.32
257.217	47.27
257.433	22.7
257.65	-26.45
257.866	45.23
258.082	-18.26
258.299	43.18
258.515	39.08
258.732	-48.98
258.948	6.31
259.165	-22.36
259.381	20.65
259.597	-8.02
259.814	47.27
260.03	80.04
260.246	43.18
260.463	16.55
260.679	104.62
260.895	24.75
261.112	92.33
261.328	24.75
261.544	39.08
261.761	41.13
261.977	55.47
262.193	37.03
262.409	73.9
262.626	37.03
262.842	73.9
263.058	-75.6
263.274	65.71
263.49	67.75
263.707	22.7
263.923	18.6
264.139	2.22
264.355	26.79
264.571	98.47
264.787	-32.6
265.004	6.31
265.22	51.37
265.436	-75.6
265.652	-3.93
265.868	26.79
266.084	-40.79
266.3	67.75
266.516	30.89
266.732	8.36
266.948	71.85
267.164	30.89
267.38	118.95
267.596	-48.98
267.812	75.95
268.028	114.86
268.244	-5.97
268.46	59.56
268.676	43.18
268.892	14.51
269.108	-59.22
269.324	-5.97
269.54	-8.02
269.756	104.62
269.972	61.61
270.188	-63.32
270.403	6.31
270.619	-34.64
270.835	65.71
271.051	-34.64
271.267	-18.26
271.483	47.27
271.698	32.94
271.914	63.66
272.13	-40.79
272.346	-67.41
272.562	20.65
272.777	32.94
272.993	57.51
273.209	8.36
273.425	39.08
273.64	-42.84
273.856	10.41
274.072	41.13
274.287	-38.74
274.503	-18.26
274.719	20.65
274.934	0.17
275.15	12.46
275.366	92.33
275.581	2.22
275.797	-67.41
276.012	30.89
276.228	90.28
276.444	16.55
276.659	77.99
276.875	-34.64
277.09	-5.97
277.306	-22.36
277.521	34.99
277.737	-3.93
277.952	67.75
278.168	49.32
278.383	57.51
278.599	24.75
278.814	47.27
279.03	14.51
279.245	55.47
279.461	30.89
279.676	24.75
279.892	26.79
280.107	34.99
280.322	-96.08
280.538	65.71
280.753	10.41
280.969	2.22
281.184	41.13
281.399	88.23
281.615	16.55
281.83	4.27
282.045	30.89
282.26	-36.69
282.476	-38.74
282.691	59.56
282.906	71.85
283.122	-48.98
283.337	-1.88
283.552	53.42
283.767	49.32
283.983	55.47
284.198	80.04
284.413	63.66
284.628	-59.22
284.843	106.67
285.058	24.75
285.274	65.71
285.489	-46.93
285.704	71.85
285.919	30.89
286.134	67.75
286.349	63.66
286.564	-20.31
286.779	53.42
286.995	-14.17
287.21	47.27
287.425	16.55
287.64	0.17
287.855	28.84
288.07	22.7
288.285	53.42
288.5	-5.97
288.715	80.04
288.93	34.99
289.145	16.55
289.36	112.81
289.575	-8.02
289.79	121
290.004	73.9
290.219	82.09
290.434	22.7
290.649	-51.03
290.864	39.08
291.079	-10.07
291.294	39.08
291.509	30.89
291.724	61.61
291.938	96.43
292.153	61.61
292.368	-42.84
292.583	-24.4
292.798	2.22
293.012	6.31
293.227	0.17
293.442	90.28
293.657	34.99
293.871	104.62
294.086	6.31
294.301	88.23
294.516	53.42
294.73	43.18
294.945	-12.12
295.16	22.7
295.374	65.71
295.589	32.94
295.804	-8.02
296.018	26.79
296.233	88.23
296.447	-18.26
296.662	-10.07
296.877	125.1
297.091	90.28
297.306	-36.69
297.52	57.51
297.735	39.08
297.949	-30.55
298.164	-22.36
298.378	-18.26
298.593	-42.84
298.807	24.75
299.022	-5.97
299.236	22.7
299.451	22.7
299.665	39.08
299.88	41.13
300.094	55.47
300.309	-32.6
300.523	-16.21
300.737	75.95
300.952	55.47
301.166	57.51
301.381	30.89
301.595	-5.97
301.809	-18.26
302.024	51.37
302.238	-79.7
302.452	98.47
302.667	67.75
302.881	51.37
303.095	88.23
303.309	24.75
303.524	77.99
303.738	47.27
303.952	-10.07
304.166	67.75
304.381	28.84
304.595	96.43
304.809	6.31
305.023	12.46
305.237	6.31
305.452	18.6
305.666	51.37
305.88	26.79
306.094	88.23
306.308	6.31
306.522	-42.84
306.736	-5.97
306.95	-16.21
307.164	-10.07
307.379	65.71
307.593	67.75
307.807	41.13
308.021	14.51
308.235	0.17
308.449	-20.31
308.663	-59.22
308.877	121
309.091	28.84
309.305	47.27
309.519	6.31
309.733	32.94
309.947	-10.07
310.161	-10.07
310.374	14.51
310.588	108.71
310.802	-1.88
311.016	-14.17
311.23	55.47
311.444	96.43
311.658	-16.21
311.872	26.79
312.085	73.9
312.299	26.79
312.513	73.9
312.727	34.99
312.941	30.89
313.154	-42.84
313.368	-8.02
313.582	-8.02
313.796	6.31
314.009	6.31
314.223	32.94
314.437	0.17
314.651	-42.84
314.864	8.36
315.078	-1.88
315.292	-5.97
315.505	-16.21
315.719	39.08
315.933	57.51
316.146	55.47
316.36	0.17
316.573	55.47
316.787	32.94
317.001	67.75
317.214	26.79
317.428	-3.93
317.641	32.94
317.855	39.08
318.068	0.17
318.282	61.61
318.495	43.18
318.709	61.61
318.922	-22.36
319.136	67.75
319.349	6.31
319.563	10.41
319.776	-12.12
319.99	26.79
320.203	8.36
320.417	98.47
320.63	71.85
320.843	-16.21
321.057	39.08
321.27	-38.74
321.483	90.28
321.697	63.66
321.91	-10.07
322.124	63.66
322.337	26.79
322.55	39.08
322.763	88.23
322.977	104.62
323.19	6.31
323.403	8.36
323.617	2.22
323.83	-38.74
324.043	-48.98
324.256	30.89
324.469	6.31
324.683	-10.07
324.896	8.36
325.109	0.17
325.322	80.04
325.535	80.04
325.748	-1.88
325.962	-40.79
326.175	-12.12
326.388	75.95
326.601	41.13
326.814	65.71
327.027	2.22
327.24	51.37
327.453	-75.6
327.666	41.13
327.879	32.94
328.092	59.56
328.305	30.89
328.518	14.51
328.731	26.79
328.944	6.31
329.157	-14.17
329.37	43.18
329.583	71.85
329.796	106.67
330.009	4.27
330.222	39.08
330.435	34.99
330.648	22.7
330.861	73.9
331.073	88.23
331.286	-26.45
331.499	-22.36
331.712	-46.93
331.925	63.66
332.138	67.75
332.35	34.99
332.563	28.84
332.776	73.9
332.989	-30.55
333.202	-38.74
333.414	8.36
333.627	16.55
333.84	2.22
334.053	10.41
334.265	22.7
334.478	14.51
334.691	75.95
334.903	-34.64
335.116	-22.36
335.329	28.84
335.541	14.51
335.754	121
335.966	39.08
336.179	51.37
336.392	-42.84
336.604	16.55
336.817	104.62
337.029	-3.93
337.242	49.32
337.454	6.31
337.667	47.27
337.88	24.75
338.092	32.94
338.305	80.04
338.517	-44.88
338.729	51.37
338.942	34.99
339.154	-5.97
339.367	8.36
339.579	73.9
339.792	-1.88
340.004	77.99
340.217	41.13
340.429	22.7
340.641	16.55
340.854	-42.84
341.066	-8.02
341.278	43.18
341.491	18.6
341.703	8.36
341.915	-67.41
342.128	30.89
342.34	43.18
342.552	28.84
342.764	24.75
342.977	8.36
343.189	-1.88
343.401	80.04
343.613	10.41
343.826	-10.07
344.038	-59.22
344.25	47.27
344.462	-32.6
344.674	34.99
344.886	-24.4
345.099	14.51
345.311	47.27
345.523	-42.84
345.735	-1.88
345.947	88.23
346.159	24.75
346.371	-16.21
346.583	45.23
346.795	59.56
347.007	-18.26
347.219	118.95
347.431	55.47
347.643	69.8
347.855	-42.84
348.067	94.38
348.279	39.08
348.491	-5.97
348.703	61.61
348.915	0.17
349.127	24.75
349.339	65.71
349.551	88.23
349.763	51.37
349.975	6.31
350.187	6.31
350.399	57.51
350.61	24.75
350.822	-24.4
351.034	34.99
351.246	53.42
351.458	16.55
351.669	10.41
351.881	39.08
352.093	73.9
352.305	80.04
352.517	-16.21
352.728	6.31
352.94	-5.97
353.152	59.56
353.363	32.94
353.575	57.51
353.787	-30.55
353.999	37.03
354.21	84.14
354.422	57.51
354.633	-3.93
354.845	30.89
355.057	-10.07
355.268	39.08
355.48	24.75
355.692	12.46
355.903	-1.88
356.115	22.7
356.326	-22.36
356.538	80.04
356.749	24.75
356.961	98.47
357.172	-5.97
357.384	-5.97
357.595	75.95
357.807	-18.26
358.018	-18.26
358.23	57.51
358.441	41.13
358.653	41.13
358.864	39.08
359.075	-10.07
359.287	86.19
359.498	86.19
359.709	63.66
359.921	-12.12
360.132	-28.5
360.344	45.23
360.555	22.7
360.766	47.27
360.977	88.23
361.189	47.27
361.4	-36.69
361.611	63.66
361.823	51.37
362.034	49.32
362.245	-22.36
362.456	22.7
362.667	24.75
362.879	-18.26
363.09	24.75
363.301	-40.79
363.512	65.71
363.723	-10.07
363.935	55.47
364.146	82.09
364.357	-32.6
364.568	153.77
364.779	59.56
364.99	10.41
365.201	6.31
365.412	90.28
365.623	-61.27
365.834	63.66
366.045	59.56
366.256	88.23
366.467	82.09
366.678	39.08
366.889	14.51
367.1	47.27
367.311	57.51
367.522	41.13
367.733	43.18
367.944	106.67
368.155	61.61
368.366	16.55
368.577	47.27
368.788	125.1
368.999	55.47
369.209	18.6
369.42	112.81
369.631	6.31
369.842	75.95
370.053	49.32
370.264	51.37
370.474	37.03
370.685	49.32
370.896	53.42
371.107	14.51
371.317	170.15
371.528	4.27
371.739	90.28
371.95	39.08
372.16	82.09
372.371	-75.6
372.582	47.27
372.792	8.36
373.003	4.27
373.214	-20.31
373.424	6.31
373.635	12.46
373.846	34.99
374.056	-14.17
374.267	45.23
374.477	-8.02
374.688	39.08
374.898	59.56
375.109	14.51
375.319	2.22
375.53	8.36
375.74	80.04
375.951	80.04
376.161	24.75
376.372	118.95
376.582	30.89
376.793	55.47
377.003	6.31
377.214	47.27
377.424	102.57
377.635	4.27
377.845	-59.22
378.055	88.23
378.266	-89.94
378.476	47.27
378.686	22.7
378.897	164.01
379.107	55.47
379.317	67.75
379.528	-10.07
379.738	82.09
379.948	32.94
380.158	-12.12
380.369	45.23
380.579	55.47
380.789	18.6
380.999	16.55
381.21	96.43
381.42	67.75
381.63	30.89
381.84	47.27
382.05	45.23
382.261	55.47
382.471	100.52
382.681	63.66
382.891	110.76
383.101	55.47
383.311	-8.02
383.521	-5.97
383.731	51.37
383.941	55.47
384.151	30.89
384.361	41.13
384.571	43.18
384.781	63.66
384.991	71.85
385.201	67.75
385.411	26.79
385.621	176.3
385.831	30.89
386.041	37.03
386.251	-30.55
386.461	71.85
386.671	8.36
386.881	22.7
387.091	0.17
387.301	92.33
387.511	-16.21
387.72	135.34
387.93	45.23
388.14	30.89
388.35	30.89
388.56	49.32
388.769	57.51
388.979	0.17
389.189	0.17
389.399	63.66
389.609	90.28
389.818	22.7
390.028	24.75
390.238	102.57
390.447	49.32
390.657	63.66
390.867	-8.02
391.076	30.89
391.286	47.27
391.496	41.13
391.705	51.37
391.915	121
392.125	90.28
392.334	96.43
392.544	82.09
392.753	88.23
392.963	22.7
393.172	80.04
393.382	24.75
393.591	108.71
393.801	22.7
394.01	84.14
394.22	0.17
394.429	49.32
394.639	65.71
394.848	153.77
395.058	-1.88
395.267	10.41
395.477	6.31
395.686	67.75
395.895	75.95
396.105	96.43
396.314	67.75
396.524	112.81
396.733	121
396.942	71.85
397.152	98.47
397.361	51.37
397.57	73.9
397.78	82.09
397.989	57.51
398.198	71.85
398.407	67.75
398.617	47.27
398.826	-18.26
399.035	47.27
399.244	135.34
399.453	129.19
399.663	22.7
399.872	63.66
400.081	26.79
400.29	88.23
400.499	133.29
400.708	82.09
400.917	63.66
401.127	71.85
401.336	18.6
401.545	161.96
401.754	16.55
401.963	92.33
402.172	59.56
402.381	65.71
402.59	92.33
402.799	106.67
403.008	90.28
403.217	131.24
403.426	55.47
403.635	41.13
403.844	63.66
404.053	133.29
404.262	135.34
404.471	145.58
404.68	151.72
404.888	51.37
405.097	164.01
405.306	94.38
405.515	188.58
405.724	143.53
405.933	153.77
406.142	104.62
406.35	104.62
406.559	123.05
406.768	112.81
406.977	192.68
407.185	82.09
407.394	235.69
407.603	108.71
407.812	178.34
408.02	170.15
408.229	125.1
408.438	121
408.646	157.86
408.855	153.77
409.064	221.35
409.272	174.25
409.481	268.45
409.69	207.02
409.898	202.92
410.107	231.59
410.315	176.3
410.524	161.96
410.733	256.17
410.941	309.41
411.15	264.36
411.358	247.97
411.567	389.28
411.775	274.6
411.984	256.17
412.192	272.55
412.401	366.76
412.609	370.85
412.818	354.47
413.026	325.8
413.234	432.29
413.443	407.72
413.651	399.52
413.86	401.57
414.068	417.96
414.276	512.16
414.485	450.72
414.693	481.44
414.901	622.75
415.11	481.44
415.318	477.35
415.526	501.92
415.734	553.12
415.943	643.23
416.151	682.14
416.359	702.62
416.567	665.76
416.776	676
416.984	706.72
417.192	731.3
417.4	710.82
417.608	680.1
417.817	725.15
418.025	837.79
418.233	821.41
418.441	854.17
418.649	833.69
418.857	981.15
419.065	977.05
419.273	958.62
419.481	1054.87
419.689	997.53
419.897	1083.55
420.105	1089.69
420.313	1112.22
420.521	1247.38
420.729	1120.41
420.937	1208.47
421.145	1216.66
421.353	1278.1
421.561	1487
421.769	1353.88
421.977	1476.76
422.185	1489.04
422.393	1530
422.601	1632.4
422.809	1640.59
423.017	1620.11
423.224	1804.43
423.432	1841.29
423.64	1783.95
423.848	1882.25
424.056	1783.95
424.263	2146.44
424.471	2070.67
424.679	2107.53
424.887	2203.79
425.094	2228.36
425.302	2201.74
425.51	2261.13
425.718	2392.2
425.925	2447.49
426.133	2537.6
426.341	2769.02
426.548	2877.57
426.756	2842.75
426.964	2740.35
427.171	3051.64
427.379	3063.93
427.586	3219.58
427.794	3129.47
428.001	3397.75
428.209	3422.33
428.417	3407.99
428.624	3635.32
428.832	3702.9
429.039	3668.08
429.247	3688.56
429.454	3917.93
429.662	4227.18
429.869	3981.42
430.076	4329.58
430.284	4200.55
430.491	4423.78
430.699	4532.33
430.906	4610.15
431.114	4726.88
431.321	4819.04
431.528	4913.25
431.736	5380.18
431.943	5363.8
432.15	5288.03
432.358	5249.11
432.565	5675.09
432.772	5541.97
432.979	6006.86
433.187	6035.53
433.394	6150.22
433.601	6504.52
433.808	6551.62
434.016	6504.52
434.223	6682.69
434.43	7024.7
434.637	7061.57
434.844	7358.52
435.052	7663.67
435.259	7397.43
435.466	7444.54
435.673	7497.78
435.88	8026.16
436.087	8155.18
436.294	8499.24
436.501	8067.12
436.708	8505.38
436.915	8661.03
437.122	9044
437.329	8996.9
437.537	9496.6
437.743	9590.81
437.95	9304.09
438.157	9879.57
438.364	10197.01
438.571	9967.63
438.778	10291.21
438.985	11145.22
439.192	10657.8
439.399	10928.13
439.606	10696.71
439.813	11339.77
440.02	12031.99
440.227	11872.25
440.433	11624.44
440.64	11970.55
440.847	11974.64
441.054	12173.3
441.261	13246.43
441.467	13076.45
441.674	13232.1
441.881	13506.52
442.088	13821.91
442.294	13498.33
442.501	13957.08
442.708	14276.56
442.914	14804.94
443.121	15513.53
443.328	15267.78
443.534	15728.57
443.741	15650.75
443.948	15171.52
444.154	16105.4
444.361	16275.38
444.568	16416.69
444.774	16426.93
444.981	16410.54
445.187	17164.2
445.394	17586.08
445.6	17467.3
445.807	19357.57
446.013	18495.38
446.22	18644.88
446.426	19427.2
446.633	19914.62
446.839	20074.36
447.046	19449.73
447.252	20569.97
447.459	20524.91
447.665	20455.28
447.871	21278.57
448.078	22361.94
448.284	21217.13
448.491	21870.43
448.697	22589.27
448.903	23164.75
449.11	23334.73
449.316	22814.54
449.522	23205.7
449.728	23547.72
449.935	23590.72
450.141	23998.27
450.347	24543.03
450.553	23537.48
450.76	24127.29
450.966	25009.97
451.172	24526.64
451.378	25425.7
451.584	24467.25
451.791	25130.8
451.997	24803.12
452.203	25892.64
452.409	25902.88
452.615	25507.62
452.821	24649.52
453.027	24495.92
453.233	25765.67
453.44	24522.55
453.646	24921.9
453.852	24721.2
454.058	25558.82
454.264	24776.5
454.47	25204.52
454.676	24491.83
454.882	25239.34
455.088	23301.96
455.294	23695.17
455.5	24090.43
455.705	24590.13
455.911	23308.1
456.117	22861.65
456.323	22615.89
456.529	21469.03
456.735	22499.16
456.941	21686.11
457.147	21428.07
457.352	20961.13
457.558	20563.82
457.764	20631.41
457.97	20273.01
458.176	19824.51
458.381	19808.12
458.587	18732.94
458.793	18911.11
458.999	17788.83
459.204	19267.46
459.41	18622.35
459.616	17432.48
459.821	17446.82
460.027	17205.16
460.233	16842.67
460.438	16269.23
460.644	16426.93
460.85	15566.78
461.055	15587.26
461.261	15474.62
461.466	14321.62
461.672	14014.42
461.878	14872.52
462.083	14006.23
462.289	13486.04
462.494	13553.63
462.7	12875.75
462.905	12374
463.111	12593.13
463.316	12769.26
463.522	12705.77
463.727	12640.23
463.932	12646.38
464.138	12468.2
464.343	12341.23
464.549	12343.28
464.754	12556.27
464.959	12554.22
465.165	12206.06
465.37	11896.82
465.575	11575.29
465.781	12130.29
465.986	11978.74
466.191	11724.79
466.397	11407.36
466.602	10856.45
466.807	11165.7
467.012	11266.05
467.218	11395.07
467.423	11220.99
467.628	11028.48
467.833	11393.02
468.038	11386.88
468.244	10874.88
468.449	11479.04
468.654	10764.29
468.859	10993.67
469.064	10835.97
469.269	10321.93
469.474	10573.83
469.679	10778.63
469.885	10301.45
470.09	10469.39
470.295	10414.09
470.5	10154
470.705	10348.56
470.91	9889.81
471.115	10014.74
471.32	9990.16
471.525	10012.69
471.73	9732.12
471.935	9840.66
472.139	9279.52
472.344	9361.44
472.549	9537.56
472.754	9461.79
472.959	9254.94
473.164	9041.95
473.369	8906.79
473.574	9259.04
473.778	9152.54
473.983	9044
474.188	8953.89
474.393	8484.91
474.598	8652.84
474.802	8491.05
475.007	8538.15
475.212	8568.87
475.417	8343.6
475.621	8372.27
475.826	8304.68
476.031	8013.87
476.235	7931.95
476.44	8091.7
476.645	7905.33
476.849	7911.47
477.054	7782.45
477.259	7632.95
477.463	7682.1
477.668	7508.02
477.872	7579.7
478.077	7370.81
478.282	7219.26
478.486	7501.88
478.691	7172.16
478.895	7110.72
479.1	7051.33
479.304	7313.47
479.509	6957.12
479.713	7233.6
479.918	6971.46
480.122	6668.36
480.326	6989.89
480.531	7008.32
480.735	6731.84
480.94	6742.08
481.144	6869.06
481.348	6498.38
481.553	6658.12
481.757	6514.76
481.961	6760.52
482.166	6772.8
482.37	6744.13
482.574	6535.24
482.778	6637.64
482.983	6781
483.187	6602.82
483.391	6555.72
483.595	6561.86
483.8	6490.18
484.004	6520.9
484.208	6635.59
484.412	6574.15
484.616	6518.86
484.821	6668.36
485.025	6494.28
485.229	6758.47
485.433	6582.34
485.637	6641.73
485.841	6572.1
486.045	6584.39
486.249	6537.29
486.453	6592.58
486.657	6504.52
486.861	6625.35
487.065	6568.01
487.269	6561.86
487.473	6289.48
487.677	6715.46
487.881	6797.38
488.085	6617.16
488.289	6699.08
488.493	6520.9
488.697	6645.83
488.901	6594.63
489.105	6445.13
489.309	6563.91
489.512	6748.23
489.716	6645.83
489.92	6737.99
490.124	6684.74
490.328	6905.92
490.531	6701.12
490.735	6858.82
490.939	6793.28
491.143	6703.17
491.346	6781
491.55	6903.87
491.754	6948.93
491.958	6830.15
492.161	7014.46
492.365	6979.65
492.569	7020.61
492.772	6924.35
492.976	7161.92
493.18	6987.84
493.383	7045.18
493.587	7262.27
493.79	7198.78
493.994	7249.98
494.197	7080
494.401	7274.56
494.605	7520.31
494.808	7495.74
495.012	7448.63
495.215	7512.12
495.419	7649.33
495.622	7430.2
495.825	7790.64
496.029	7643.19
496.232	7829.56
496.436	7776.31
496.639	7917.62
496.843	7936.05
497.046	8142.89
497.249	8151.09
497.453	8222.77
497.656	8251.44
497.859	8228.91
498.063	8329.26
498.266	8767.52
498.469	8652.84
498.673	8718.37
498.876	8945.7
499.079	8796.2
499.282	8814.63
499.485	8931.36
499.689	9117.73
499.892	9336.86
500.095	9152.54
500.298	9383.96
500.501	9373.72
500.705	9740.31
500.908	9570.33
501.111	9779.22
501.314	9836.56
501.517	9873.43
501.72	10123.28
501.923	10053.65
502.126	10182.67
502.329	10403.85
502.532	10688.52
502.735	10512.39
502.938	10911.75
503.141	10840.07
503.344	10766.34
503.547	11137.02
503.75	11044.87
503.953	11460.6
504.156	11261.95
504.359	11427.84
504.562	11829.24
504.765	11872.25
504.968	12009.46
505.17	12113.91
505.373	11986.93
505.576	12439.53
505.779	12640.23
505.982	12523.5
506.185	12689.39
506.387	12820.46
506.59	12799.98
506.793	13193.19
506.996	13023.2
507.198	13561.82
507.401	13277.15
507.604	13645.79
507.807	13803.48
508.009	13754.33
508.212	14092.24
508.415	14172.11
508.617	14294.99
508.82	14297.04
509.022	14366.67
509.225	14739.4
509.428	14602.19
509.63	14886.86
509.833	14927.81
510.035	15515.58
510.238	15339.46
510.44	15615.93
510.643	15740.86
510.845	15886.26
511.048	15710.14
511.25	15992.76
511.453	16390.06
511.655	16820.14
511.858	16404.4
512.06	16644.01
512.262	17031.08
512.465	16861.1
512.667	17313.7
512.87	17446.82
513.072	17463.2
513.274	17715.1
513.477	17979.29
513.679	18093.97
513.881	18225.04
514.084	18415.51
514.286	18431.89
514.488	18665.36
514.69	19142.53
514.893	19435.39
515.095	19244.93
515.297	19249.03
515.499	19509.12
515.701	19779.45
515.904	19953.53
516.106	19969.91
516.308	20146.04
516.51	20572.02
516.712	20377.46
516.914	20739.95
517.116	21391.2
517.318	21147.5
517.52	21204.84
517.722	21469.03
517.925	21743.45
518.127	21841.76
518.329	21884.76
518.531	21970.78
518.733	22476.63
518.935	22335.32
519.136	22576.98
519.338	22849.36
519.54	23125.83
519.742	23353.16
519.944	23269.19
520.146	23652.16
520.348	23840.57
520.55	24031.04
520.752	23717.7
520.954	24586.04
521.155	24506.16
521.357	24631.09
521.559	24891.18
521.761	25243.43
521.963	25181.99
522.164	25333.54
522.366	25650.98
522.568	25788.19
522.77	25831.2
522.971	26068.76
523.173	25859.87
523.375	26423.06
523.576	26361.62
523.778	26318.62
523.98	27049.74
524.181	26679.06
524.383	26885.9
524.584	27373.32
524.786	27291.4
524.988	27279.11
525.189	27383.56
525.391	27883.27
525.592	27768.58
525.794	27766.53
525.995	28120.83
526.197	28135.17
526.398	28190.46
526.6	28430.07
526.801	28288.76
527.003	28456.7
527.204	28509.94
527.406	28778.23
527.607	28854
527.808	28978.93
528.01	28856.05
528.211	28800.76
528.412	29329.13
528.614	29349.61
528.815	29304.56
529.016	29740.77
529.218	29128.43
529.419	29359.85
529.62	29769.44
529.822	29611.75
530.023	30088.93
530.224	29730.53
530.425	29785.83
530.626	29613.8
530.828	29740.77
531.029	30416.6
531.23	30093.02
531.431	29990.63
531.632	29978.34
531.833	30146.27
532.035	29929.19
532.236	29738.72
532.437	30021.34
532.638	29980.39
532.839	30174.94
533.04	30066.4
533.241	30064.35
533.442	30631.64
533.643	30430.94
533.844	30144.22
534.045	30484.19
534.246	30045.92
534.447	30330.59
534.648	30471.9
534.849	30322.4
535.05	30228.19
535.251	30193.37
535.451	30414.55
535.652	30471.9
535.853	30396.12
536.054	30482.14
536.255	30711.51
536.456	30164.7
536.657	30625.5
536.857	30183.13
537.058	30144.22
537.259	30283.48
537.46	30406.36
537.66	29863.65
537.861	30357.21
538.062	30310.11
538.263	30385.88
538.463	30088.93
538.664	30189.28
538.865	30494.43
539.065	30263
539.266	29767.4
539.466	30344.92
539.667	29884.13
539.868	30605.02
540.068	30303.96
540.269	30064.35
540.469	30019.3
540.67	30375.64
540.87	30146.27
541.071	30414.55
541.271	30545.62
541.472	30023.39
541.672	29908.71
541.873	30060.26
542.073	29687.53
542.274	30353.12
542.474	30084.83
542.675	29675.24
542.875	30121.7
543.075	29931.23
543.276	29804.26
543.476	30054.11
543.676	29830.88
543.877	30086.88
544.077	30183.13
544.277	29908.71
544.478	29597.42
544.678	29933.28
544.878	29853.41
545.078	29820.64
545.279	29748.96
545.479	29751.01
545.679	29779.68
545.879	30142.17
546.079	29794.02
546.28	30027.49
546.48	29613.8
546.68	29726.44
546.88	30076.64
547.08	29972.19
547.28	29931.23
547.48	29562.6
547.68	29961.95
547.88	29771.49
548.081	29828.84
548.281	29693.67
548.481	29775.59
548.681	30152.41
548.881	29701.86
549.081	30013.15
549.28	29861.6
549.48	29994.72
549.68	29935.33
549.88	29906.66
550.08	29802.21
550.28	29863.65
550.48	29740.77
550.68	29935.33
550.88	29761.25
551.08	29462.25
551.279	29824.74
551.479	29542.12
551.679	29699.81
551.879	29638.37
552.079	29859.56
552.278	29495.02
552.478	29789.92
552.678	29347.56
552.878	29814.5
553.077	29712.1
553.277	29552.36
553.477	29681.38
553.676	29406.95
553.876	29757.16
554.076	29685.48
554.275	29535.98
554.475	29132.53
554.674	29595.37
554.874	29523.69
555.074	29288.17
555.273	29122.29
555.473	29415.15
555.672	29488.87
555.872	29396.71
556.071	29212.4
556.271	29435.63
556.47	29308.65
556.67	28968.69
556.869	29247.21
557.068	29585.13
557.268	29157.1
557.467	29015.79
557.667	29034.22
557.866	28974.83
558.065	29331.18
558.265	28870.39
558.464	28802.8
558.663	29247.21
558.863	28946.16
559.062	29165.29
559.261	28823.28
559.461	29095.66
559.66	28753.65
559.859	28733.17
560.058	28894.96
560.258	28911.35
560.457	28536.57
560.656	28847.86
560.855	28567.29
561.054	28583.67
561.253	28557.05
561.453	28595.96
561.652	28458.74
561.851	28511.99
562.05	28167.93
562.249	28075.77
562.448	28696.31
562.647	28387.07
562.846	28311.29
563.045	28192.51
563.244	27623.17
563.443	28448.5
563.642	27975.42
563.841	27701
564.04	27696.9
564.239	28061.44
564.438	27600.65
564.637	27868.93
564.836	27862.79
565.035	27791.11
565.234	27598.6
565.432	27109.13
565.631	27719.43
565.83	27707.14
566.029	27453.19
566.228	27518.73
566.427	27592.45
566.625	27434.76
566.824	26896.14
567.023	27270.92
567.222	26674.96
567.42	27270.92
567.619	26853.14
567.818	27236.11
568.016	26732.31
568.215	26838.8
568.414	26797.84
568.612	26777.36
568.811	26623.76
569.01	26609.43
569.208	26214.17
569.407	26572.57
569.605	26177.31
569.804	26492.69
570.002	25872.16
570.201	26410.78
570.4	26269.47
570.598	26228.51
570.797	25937.69
570.995	25800.48
571.193	25868.06
571.392	26017.57
571.59	25726.75
571.789	25689.89
571.987	25575.2
572.186	25655.08
572.384	25136.94
572.582	25401.13
572.781	25456.42
572.979	25136.94
573.177	25362.22
573.376	25311.02
573.574	25161.51
573.772	25683.75
573.971	24753.97
574.169	25085.74
574.367	24893.23
574.565	24930.09
574.763	24645.43
574.962	24829.74
575.16	24680.24
575.358	24481.59
575.556	24571.7
575.754	24524.6
575.952	24442.68
576.151	24579.89
576.349	24078.14
576.547	24069.95
576.745	24373.05
576.943	24250.17
577.141	24260.41
577.339	24125.24
577.537	23668.55
577.735	23875.39
577.933	23895.87
578.131	23721.79
578.329	23838.53
578.527	23574.34
578.725	23650.11
578.923	23664.45
579.121	23621.44
579.319	23435.08
579.516	23662.4
579.714	23639.87
579.912	23363.4
580.11	23265.1
580.308	23463.75
580.506	23273.29
580.704	22929.23
580.901	23115.59
581.099	23082.83
581.297	22708.05
581.495	22724.43
581.692	22957.9
581.89	22738.77
582.088	22998.86
582.285	22581.07
582.483	22583.12
582.681	22576.98
582.878	22435.67
583.076	22187.86
583.274	22509.4
583.471	22181.72
583.669	22407
583.866	22064.99
584.064	22255.45
584.262	22148.95
584.459	22214.49
584.657	21792.61
584.854	22325.08
585.052	21526.37
585.249	22028.12
585.447	22040.41
585.644	21720.93
585.841	21596
586.039	21784.41
586.236	21503.84
586.434	21493.6
586.631	21380.96
586.828	21264.23
587.026	21639.01
587.223	21317.48
587.42	21215.08
587.618	21374.82
587.815	21057.39
588.012	21002.09
588.21	20969.32
588.407	21301.09
588.604	20979.56
588.801	20801.39
588.999	20895.6
589.196	20744.05
589.393	20854.64
589.59	20598.64
589.787	20361.08
589.984	20195.19
590.182	20346.74
590.379	20410.23
590.576	20295.54
590.773	20248.44
590.97	20418.42
591.167	20248.44
591.364	19924.86
591.561	19996.54
591.758	19920.76
591.955	19910.52
592.152	19949.43
592.349	19685.25
592.546	19945.34
592.743	19980.15
592.94	19462.02
593.137	19636.1
593.334	19836.8
593.531	19181.45
593.727	19523.46
593.924	19613.57
594.121	19457.92
594.318	19302.28
594.515	19148.68
594.712	19453.83
594.908	19093.38
595.105	19324.8
595.302	19031.94
595.499	19120.01
595.696	19156.87
595.892	18573.2
596.089	18974.6
596.286	18806.67
596.482	18741.13
596.679	18493.33
596.876	18814.86
597.072	18333.59
597.269	18720.65
597.466	18390.93
597.662	18317.2
597.859	18292.63
598.055	18462.61
598.252	18294.68
598.448	18175.89
598.645	17942.42
598.841	18216.85
599.038	17993.62
599.234	18136.98
599.431	17790.88
599.627	17792.92
599.824	18073.49
600.02	17956.76
600.217	17563.55
600.413	17823.64
600.609	17528.74
600.806	17661.85
601.002	17498.02
601.198	17500.06
601.395	17276.84
601.591	17231.78
601.787	17584.03
601.984	17182.63
602.18	17233.83
602.376	17332.13
602.572	17244.07
602.769	17174.44
602.965	16992.17
603.161	17041.32
603.357	17133.48
603.553	16906.15
603.75	16842.67
603.946	16967.59
604.142	17162.15
604.338	16662.44
604.534	16695.21
604.73	16492.46
604.926	16558
605.122	16539.57
605.318	16433.07
605.514	16580.53
605.71	16367.54
605.906	16185.27
606.102	16187.32
606.298	16291.76
606.494	16230.32
606.69	16029.62
606.886	16498.61
607.082	15826.87
607.278	16316.34
607.474	15896.5
607.67	16164.79
607.866	15636.41
608.062	16062.39
608.257	16062.39
608.453	15853.5
608.649	15687.61
608.845	15939.51
609.041	15738.81
609.236	15839.16
609.432	15822.78
609.628	15673.28
609.824	15595.45
610.019	15480.77
610.215	15538.11
610.411	15753.15
610.606	15538.11
610.802	15407.04
610.998	15355.84
611.193	15468.48
611.389	15665.08
611.584	15386.56
611.78	15280.07
611.976	15251.39
612.171	15310.79
612.367	15347.65
612.562	15173.57
612.758	15005.64
612.953	15171.52
613.149	15073.22
613.344	15032.26
613.539	15304.64
613.735	15308.74
613.93	15009.73
614.126	14905.29
614.321	15261.63
614.517	14950.34
614.712	15062.98
614.907	14690.25
615.103	15185.86
615.298	14714.83
615.493	14972.87
615.688	14620.62
615.884	15007.69
616.079	14612.43
616.274	14907.34
616.47	14563.28
616.665	14536.65
616.86	14550.99
617.055	14843.85
617.25	14512.08
617.445	14604.24
617.641	14487.5
617.836	14507.98
618.031	14358.48
618.226	14364.62
618.421	14229.46
618.616	14407.63
618.811	14047.19
619.006	14237.65
619.201	13924.31
619.396	14110.68
619.591	13836.25
619.786	13836.25
619.981	13690.84
620.176	13914.07
620.371	13492.19
620.566	13666.27
620.761	13617.11
620.956	13813.72
621.151	13434.85
621.346	13465.57
621.541	13342.69
621.735	13633.5
621.93	13203.43
622.125	13213.67
622.32	13244.38
622.515	13064.16
622.709	12926.95
622.904	13129.7
623.099	13047.78
623.294	12804.07
623.488	12836.84
623.683	12611.56
623.878	12554.22
624.072	12693.48
624.267	12703.72
624.462	12603.37
624.656	12353.52
624.851	12457.96
625.046	12255.22
625.24	12017.65
625.435	12130.29
625.629	12064.75
625.824	12007.41
626.018	11757.56
626.213	11843.57
626.407	11393.02
626.602	11812.85
626.796	11638.78
626.991	11620.35
627.185	11515.9
627.38	11483.13
627.574	11352.06
627.768	11233.28
627.963	11368.45
628.157	11200.51
628.352	11141.12
628.546	11147.26
628.74	11102.21
628.935	11028.48
629.129	10991.62
629.323	10758.15
629.517	10825.73
629.712	10729.48
629.906	10741.77
630.1	10516.49
630.294	10504.2
630.489	10342.41
630.683	10633.22
630.877	10426.38
631.071	10508.3
631.265	10436.62
631.459	10221.58
631.653	9998.35
631.848	10090.51
632.042	10154
632.236	10160.14
632.43	9996.31
632.624	10067.99
632.818	9975.83
633.012	9715.73
633.206	9656.34
633.4	9893.91
633.594	9529.37
633.788	9693.21
633.982	9627.67
634.176	9568.28
634.369	9549.85
634.563	9420.83
634.757	9459.74
634.951	9392.16
635.145	9381.92
635.339	9320.48
635.533	9261.09
635.726	9134.11
635.92	9181.21
636.114	9130.02
636.308	9084.96
636.501	9066.53
636.695	9009.19
636.889	8747.05
637.083	8994.85
637.276	8722.47
637.47	8765.48
637.664	8747.05
637.857	8765.48
638.051	8542.25
638.244	8575.02
638.438	8478.76
638.632	8620.07
638.825	8415.27
639.019	8433.71
639.212	8206.38
639.406	8558.63
639.599	8241.2
639.793	8214.57
639.986	8101.94
640.18	8308.78
640.373	8095.79
640.567	7850.03
640.76	8040.5
640.954	7870.51
641.147	7764.02
641.34	7659.57
641.534	7931.95
641.727	7649.33
641.92	7708.73
642.114	7725.11
642.307	7675.96
642.5	7569.46
642.694	7465.02
642.887	7417.91
643.08	7608.37
643.273	7462.97
643.467	7465.02
643.66	7452.73
643.853	7221.31
644.046	7313.47
644.239	7348.28
644.432	7125.05
644.626	7088.19
644.819	7194.68
645.012	7127.1
645.205	7123.01
645.398	7131.2
645.591	6948.93
645.784	7026.75
645.977	6856.77
646.17	6756.42
646.363	6830.15
646.556	6815.81
646.749	6881.35
646.942	6873.15
647.135	6774.85
647.328	6705.22
647.521	6625.35
647.714	6494.28
647.907	6592.58
648.099	6570.05
648.292	6459.46
648.485	6510.66
648.678	6461.51
648.871	6371.4
649.064	6395.98
649.256	6416.46
649.449	6350.92
649.642	6293.58
649.835	6146.12
650.027	6185.04
650.22	6117.45
650.413	5951.57
650.605	6150.22
650.798	6010.96
650.991	5974.1
651.183	5955.66
651.376	6062.16
651.568	5890.13
651.761	5853.27
651.954	5765.2
652.146	5855.31
652.339	5777.49
652.531	5814.35
652.724	5730.39
652.916	5875.79
653.109	5552.21
653.301	5681.24
653.494	5693.52
653.686	5527.64
653.879	5752.91
654.071	5609.56
654.263	5455.96
654.456	5505.11
654.648	5380.18
654.84	5511.25
655.033	5324.89
655.225	5466.2
655.417	5316.7
655.61	5423.19
655.802	5445.72
655.994	5314.65
656.186	5310.55
656.379	5236.83
656.571	5195.87
656.763	5140.57
656.955	5066.85
657.148	5089.37
657.34	4966.49
657.532	5044.32
657.724	5021.79
657.916	4980.83
658.108	5083.23
658.3	4933.73
658.492	5060.7
658.684	4880.48
658.876	4956.26
659.068	4835.42
659.26	4788.32
659.452	4956.26
659.644	4849.76
659.836	4804.71
660.028	4743.27
660.22	4749.41
660.412	4677.73
660.604	4618.34
660.796	4638.82
660.988	4681.83
661.18	4569.19
661.372	4493.41
661.563	4571.24
661.755	4520.04
661.947	4434.02
662.139	4522.09
662.331	4450.41
662.522	4395.11
662.714	4429.93
662.906	4485.22
663.097	4327.53
663.289	4280.43
663.481	4300.91
663.673	4358.25
663.864	4247.66
664.056	4237.42
664.247	4366.44
664.439	4202.6
664.631	4298.86
664.822	4184.17
665.014	4214.89
665.205	4159.6
665.397	4216.94
665.588	4110.44
665.78	4120.68
665.971	4124.78
666.163	3946.61
666.354	4092.01
666.546	4053.1
666.737	4014.19
666.929	3981.42
667.12	3938.41
667.311	4085.87
667.503	3893.36
667.694	3905.65
667.885	3876.98
668.077	3879.02
668.268	3723.38
668.459	3815.54
668.651	3831.92
668.842	3645.56
669.033	3653.75
669.224	3784.82
669.416	3815.54
669.607	3764.34
669.798	3864.69
669.989	3768.43
670.18	3780.72
670.371	3659.89
670.563	3659.89
670.754	3770.48
670.945	3645.56
671.136	3604.6
671.327	3676.27
671.518	3659.89
671.709	3782.77
671.9	3713.14
672.091	3692.66
672.282	3551.35
672.473	3553.4
672.664	3530.87
672.855	3545.2
673.046	3481.72
673.237	3553.4
673.428	3520.63
673.619	3547.25
673.809	3385.46
674	3377.27
674.191	3547.25
674.382	3508.34
674.573	3528.82
674.764	3381.37
674.954	3473.53
675.145	3448.95
675.336	3463.29
675.527	3385.46
675.717	3379.32
675.908	3416.18
676.099	3471.48
676.289	3364.98
676.48	3407.99
676.671	3356.79
676.861	3352.7
677.052	3342.46
677.243	3225.72
677.433	3233.91
677.624	3438.71
677.814	3371.13
678.005	3270.78
678.195	3342.46
678.386	3283.06
678.576	3416.18
678.767	3176.57
678.957	3209.34
679.148	3178.62
679.338	3463.29
679.529	3244.15
679.719	3233.91
679.909	3309.69
680.1	3326.07
680.29	3254.39
680.481	3266.68
680.671	3209.34
680.861	3188.86
681.052	3192.95
681.242	3037.31
681.432	3178.62
681.622	3217.53
681.813	3104.89
682.003	3096.7
682.193	3164.28
682.383	3319.93
682.573	3192.95
682.764	3078.27
682.954	3102.84
683.144	3233.91
683.334	3190.91
683.524	3076.22
683.714	3162.23
683.904	3190.91
684.094	3094.65
684.284	3141.75
684.474	3168.38
684.664	3082.36
684.854	3143.8
685.044	2969.73
685.234	3090.56
685.424	3057.79
685.614	3041.4
685.804	3072.12
685.994	3072.12
686.184	3201.15
686.374	3057.79
686.564	3078.27
686.753	2908.29
686.943	2959.49
687.133	2979.97
687.323	2912.38
687.513	3006.59
687.702	2889.85
687.892	3006.59
688.082	2779.26
688.272	2916.48
688.461	2824.32
688.651	3002.49
688.841	2957.44
689.03	2918.53
689.22	2939.01
689.41	2840.7
689.599	2857.09
689.789	2859.14
689.979	2760.83
690.168	2832.51
690.358	2744.45
690.547	2781.31
690.737	2672.77
690.926	2793.6
691.116	2816.13
691.305	2867.33
691.495	2721.92
691.684	2697.35
691.874	2697.35
692.063	2629.76
692.252	2693.25
692.442	2646.15
692.631	2664.58
692.82	2685.06
693.01	2693.25
693.199	2623.62
693.388	2533.51
693.578	2683.01
693.767	2609.28
693.956	2689.15
694.146	2553.99
694.335	2607.23
694.524	2619.52
694.713	2656.39
694.902	2549.89
695.092	2678.91
695.281	2564.23
695.47	2504.84
695.659	2513.03
695.848	2500.74
696.037	2515.08
696.226	2574.47
696.415	2498.69
696.604	2410.63
696.793	2515.08
696.982	2582.66
697.171	2570.37
697.36	2678.91
697.549	2476.16
697.738	2373.77
697.927	2504.84
698.116	2537.6
698.305	2539.65
698.494	2570.37
698.683	2390.15
698.872	2490.5
699.061	2498.69
699.25	2515.08
699.438	2443.4
699.627	2472.07
699.816	2455.69
700.005	2357.38
700.193	2513.03
700.382	2537.6
700.571	2422.92
700.76	2371.72
700.948	2646.15
701.137	2371.72
701.326	2416.77
701.514	2365.57
701.703	2427.01
701.892	2453.64
702.08	2482.31
702.269	2484.36
702.457	2480.26
702.646	2347.14
702.834	2416.77
703.023	2470.02
703.212	2453.64
703.4	2328.71
703.589	2320.52
703.777	2369.67
703.965	2367.62
704.154	2439.3
704.342	2478.21
704.531	2447.49
704.719	2447.49
704.907	2433.16
705.096	2332.81
705.284	2433.16
705.472	2427.01
705.661	2537.6
705.849	2398.34
706.037	2398.34
706.226	2480.26
706.414	2326.66
706.602	2422.92
706.79	2420.87
706.979	2322.57
707.167	2326.66
707.355	2279.56
707.543	2506.88
707.731	2443.4
707.919	2267.27
708.107	2386.05
708.296	2275.46
708.484	2427.01
708.672	2349.19
708.86	2406.53
709.048	2214.02
709.236	2306.18
709.424	2357.38
709.612	2285.7
709.8	2422.92
709.988	2341
710.176	2341
710.364	2375.81
710.551	2316.42
710.739	2312.33
710.927	2414.73
711.115	2390.15
711.303	2406.53
711.491	2302.09
711.679	2259.08
711.866	2420.87
712.054	2349.19
712.242	2271.37
712.43	2238.6
712.617	2351.24
712.805	2300.04
712.993	2365.57
713.181	2336.9
713.368	2504.84
713.556	2410.63
713.744	2250.89
713.931	2422.92
714.119	2275.46
714.306	2357.38
714.494	2345.09
714.682	2357.38
714.869	2205.83
715.057	2343.05
715.244	2271.37
715.432	2273.42
715.619	2130.06
715.807	2283.66
715.994	2316.42
716.182	2345.09
716.369	2341
716.556	2232.46
716.744	2242.7
716.931	2334.86
717.119	2289.8
717.306	2211.98
717.493	2381.96
717.681	2341
717.868	2201.74
718.055	2343.05
718.242	2211.98
718.43	2359.43
718.617	2267.27
718.804	2240.65
718.991	2326.66
719.179	2242.7
719.366	2357.38
719.553	2343.05
719.74	2377.86
719.927	2209.93
720.114	2343.05
720.301	2218.12
720.488	2291.85
720.676	2250.89
720.863	2283.66
721.05	2113.67
721.237	2277.51
721.424	2240.65
721.611	2277.51
721.798	2252.94
721.985	2306.18
722.172	2226.31
722.358	2205.83
722.545	2263.18
722.732	2205.83
722.919	2336.9
723.106	2177.16
723.293	2263.18
723.48	2218.12
723.667	2078.86
723.853	2271.37
724.04	2250.89
724.227	2187.4
724.414	2218.12
724.6	2271.37
724.787	2248.84
724.974	2216.07
725.161	2195.59
725.347	2203.79
725.534	2246.79
725.72	2201.74
725.907	2226.31
726.094	2240.65
726.28	2072.72
726.467	2185.35
726.653	2193.55
726.84	2257.03
727.027	2193.55
727.213	2181.26
727.4	2281.61
727.586	2244.74
727.773	2308.23
727.959	2250.89
728.145	2267.27
728.332	2103.43
728.518	2177.16
728.705	2271.37
728.891	2136.2
729.077	2267.27
729.264	2279.56
729.45	2277.51
729.636	2220.17
729.823	2271.37
730.009	2287.75
730.195	2259.08
730.382	2259.08
730.568	2160.78
730.754	2185.35
730.94	2136.2
731.126	2191.5
731.313	2228.36
731.499	2277.51
731.685	2097.29
731.871	2281.61
732.057	2232.46
732.243	2222.22
732.429	2078.86
732.615	2226.31
732.801	2123.91
732.987	2187.4
733.173	2179.21
733.359	2154.63
733.545	2156.68
733.731	2226.31
733.917	2162.83
734.103	2203.79
734.289	2130.06
734.475	2089.1
734.661	2138.25
734.847	2070.67
735.033	2054.28
735.219	2087.05
735.404	2039.95
735.59	2091.15
735.776	2070.67
735.962	2123.91
736.148	2171.02
736.333	2099.34
736.519	2117.77
736.705	2115.72
736.89	2128.01
737.076	2091.15
737.262	2025.61
737.447	2140.3
737.633	2115.72
737.819	1994.89
738.004	2140.3
738.19	2128.01
738.375	2025.61
738.561	2099.34
738.747	2113.67
738.932	1984.65
739.118	2103.43
739.303	1970.32
739.489	1980.56
739.674	1990.8
739.859	1988.75
740.045	2037.9
740.23	2015.37
740.416	2015.37
740.601	2076.81
740.786	1894.54
740.972	1890.45
741.157	2056.33
741.342	1933.45
741.528	1990.8
741.713	1857.68
741.898	1869.97
742.084	1915.02
742.269	1878.16
742.454	1874.06
742.639	1980.56
742.824	1947.79
743.01	1917.07
743.195	1843.34
743.38	1898.64
743.565	1859.73
743.75	1896.59
743.935	1886.35
744.12	1884.3
744.305	1894.54
744.49	1890.45
744.675	1837.2
744.86	1919.12
745.045	1886.35
745.23	1876.11
745.415	1921.17
745.6	1906.83
745.785	1896.59
745.97	1898.64
746.155	1849.49
746.34	1740.94
746.525	1826.96
746.71	1777.81
746.895	1685.65
747.079	1773.71
747.264	1687.7
747.449	1767.57
747.634	1699.98
747.819	1687.7
748.003	1693.84
748.188	1609.87
748.373	1642.64
748.557	1720.46
748.742	1513.62
748.927	1611.92
749.111	1699.98
749.296	1595.54
749.481	1667.22
749.665	1517.72
749.85	1493.14
750.034	1644.69
750.219	1532.05
750.404	1532.05
750.588	1575.06
750.773	1577.11
750.957	1532.05
751.141	1476.76
751.326	1505.43
751.51	1538.2
751.695	1353.88
751.879	1441.94
752.064	1480.85
752.248	1396.89
752.432	1546.39
752.617	1409.17
752.801	1446.04
752.985	1378.45
753.17	1450.13
753.354	1360.02
753.538	1441.94
753.722	1384.6
753.907	1339.54
754.091	1286.3
754.275	1235.1
754.459	1257.62
754.643	1343.64
754.828	1382.55
755.012	1284.25
755.196	1304.73
755.38	1357.97
755.564	1290.39
755.748	1214.62
755.932	1267.86
756.116	1181.85
756.3	1235.1
756.484	1171.61
756.668	1202.33
756.852	1259.67
757.036	1216.66
757.22	1192.09
757.404	1214.62
757.588	1169.56
757.772	1226.9
757.956	1210.52
758.14	1126.55
758.323	1161.37
758.507	1046.68
758.691	1120.41
758.875	1185.94
759.059	1110.17
759.242	1204.38
759.426	1112.22
759.61	1028.25
759.794	1054.87
759.977	1075.35
760.161	1038.49
760.345	1015.96
760.528	1067.16
760.712	1054.87
760.895	1071.26
761.079	1048.73
761.263	966.81
761.446	940.19
761.63	972.96
761.813	964.76
761.997	981.15
762.18	1040.54
762.364	987.29
762.547	932
762.731	956.57
762.914	1034.39
763.098	858.27
763.281	1009.82
763.464	972.96
763.648	956.57
763.831	895.13
764.015	952.48
764.198	1020.06
764.381	958.62
764.564	899.23
764.748	901.28
764.931	923.8
765.114	876.7
765.297	964.76
765.481	831.65
765.664	807.07
765.847	934.04
766.03	878.75
766.213	809.12
766.397	809.12
766.58	843.93
766.763	950.43
766.946	893.09
767.129	870.56
767.312	868.51
767.495	876.7
767.678	884.89
767.861	878.75
768.044	721.06
768.227	782.49
768.41	835.74
768.593	868.51
768.776	790.69
768.959	858.27
769.142	841.89
769.324	790.69
769.507	737.44
769.69	714.91
769.873	825.5
770.056	798.88
770.239	759.97
770.421	788.64
770.604	823.45
770.787	729.25
770.97	741.54
771.152	690.34
771.335	811.17
771.518	802.97
771.7	809.12
771.883	839.84
772.066	628.9
772.248	845.98
772.431	739.49
772.613	759.97
772.796	682.14
772.978	721.06
773.161	796.83
773.343	692.38
773.526	663.71
773.708	704.67
773.891	729.25
774.073	721.06
774.256	698.53
774.438	649.38
774.621	620.71
774.803	645.28
774.985	706.72
775.168	663.71
775.35	694.43
775.532	632.99
775.715	546.98
775.897	581.79
776.079	579.75
776.261	645.28
776.444	676
776.626	563.36
776.808	608.42
776.99	600.23
777.173	532.64
777.355	589.99
777.537	555.17
777.719	538.79
777.901	596.13
778.083	579.75
778.265	534.69
778.447	686.24
778.629	493.73
778.811	530.59
778.993	567.46
779.175	565.41
779.357	510.11
779.539	530.59
779.721	524.45
779.903	514.21
780.085	479.4
780.267	606.37
780.449	516.26
780.631	501.92
780.812	546.98
780.994	522.4
781.176	489.64
781.358	440.48
781.54	503.97
781.721	403.62
781.903	467.11
782.085	473.25
782.267	540.83
782.448	465.06
782.63	407.72
782.812	549.03
782.993	454.82
783.175	489.64
783.357	379.04
783.538	458.92
783.72	467.11
783.901	411.81
784.083	463.01
784.264	479.4
784.446	397.48
784.627	358.57
784.809	368.81
784.99	420
785.172	415.91
785.353	336.04
785.535	374.95
785.716	387.24
785.897	399.52
786.079	356.52
786.26	420
786.441	342.18
786.623	319.65
786.804	344.23
786.985	393.38
787.167	391.33
787.348	325.8
787.529	352.42
787.71	393.38
787.891	313.51
788.073	303.27
788.254	366.76
788.435	377
788.616	385.19
788.797	252.07
788.978	352.42
789.159	391.33
789.34	297.13
789.522	366.76
789.703	286.89
789.884	325.8
790.065	313.51
790.246	276.65
790.427	221.35
790.607	329.89
790.788	415.91
790.969	301.22
791.15	303.27
791.331	293.03
791.512	207.02
791.693	247.97
791.874	311.46
792.054	393.38
792.235	256.17
792.416	229.54
792.597	211.11
792.778	243.88
792.958	307.37
793.139	264.36
793.32	319.65
793.5	313.51
793.681	317.61
793.862	348.33
794.042	227.5
794.223	235.69
794.404	264.36
794.584	225.45
794.765	207.02
794.945	270.5
795.126	297.13
795.306	293.03
795.487	166.06
795.667	331.94
795.848	252.07
796.028	231.59
796.209	254.12
796.389	209.06
796.57	258.21
796.75	237.74
796.93	301.22
797.111	209.06
797.291	290.98
797.471	182.44
797.652	270.5
797.832	180.39
798.012	262.31
798.192	223.4
798.373	153.77
798.553	237.74
798.733	211.11
798.913	198.82
799.093	231.59
799.274	161.96
799.454	219.3
799.634	237.74
799.814	245.93
799.994	170.15
800.174	235.69
800.354	213.16
800.534	178.34
800.714	155.82
800.894	151.72
801.074	141.48
801.254	157.86
801.434	243.88
801.614	196.78
801.794	184.49
801.974	815.26
802.154	174.25
802.334	207.02
802.514	116.9
802.693	129.19
802.873	207.02
803.053	252.07
803.233	217.26
803.413	235.69
803.592	114.86
803.772	159.91
803.952	135.34
804.131	188.58
804.311	221.35
804.491	241.83
804.67	133.29
804.85	217.26
805.03	215.21
805.209	235.69
805.389	96.43
805.568	121
805.748	188.58
805.928	166.06
806.107	213.16
806.287	166.06
806.466	168.1
806.646	125.1
806.825	139.43
807.004	229.54
807.184	227.5
807.363	174.25
807.543	104.62
807.722	153.77
807.901	182.44
808.081	186.54
808.26	71.85
808.439	184.49
808.619	153.77
808.798	170.15
808.977	131.24
809.156	166.06
809.336	139.43
809.515	112.81
809.694	164.01
809.873	127.14
810.052	168.1
810.231	225.45
810.411	204.97
810.59	166.06
810.769	147.62
810.948	141.48
811.127	164.01
811.306	104.62
811.485	112.81
811.664	174.25
811.843	182.44
812.022	196.78
812.201	184.49
812.38	129.19
812.559	108.71
812.737	219.3
812.916	53.42
813.095	178.34
813.274	172.2
813.453	116.9
813.632	131.24
813.811	164.01
813.989	96.43
814.168	90.28
814.347	137.38
814.526	106.67
814.704	186.54
814.883	125.1
815.062	102.57
815.24	100.52
815.419	41.13
815.598	172.2
815.776	26.79
815.955	137.38
816.133	67.75
816.312	153.77
816.49	125.1
816.669	155.82
816.847	96.43
817.026	182.44
817.204	112.81
817.383	145.58
817.561	88.23
817.74	137.38
817.918	88.23
818.097	86.19
818.275	69.8
818.453	96.43
818.632	129.19
818.81	161.96
818.988	131.24
819.167	104.62
819.345	102.57
819.523	88.23
819.701	77.99
819.879	106.67
820.058	153.77
820.236	172.2
820.414	6.31
820.592	88.23
820.77	51.37
820.948	63.66
821.127	71.85
821.305	155.82
821.483	47.27
821.661	110.76
821.839	141.48
822.017	55.47
822.195	88.23
822.373	164.01
822.551	65.71
822.729	188.58
822.907	94.38
823.085	92.33
823.262	65.71
823.44	98.47
823.618	121
823.796	22.7
823.974	67.75
824.152	114.86
824.329	118.95
824.507	139.43
824.685	28.84
824.863	96.43
825.04	55.47
825.218	161.96
825.396	49.32
825.574	75.95
825.751	114.86
825.929	104.62
826.107	20.65
826.284	98.47
826.462	6.31
826.639	22.7
826.817	0.17
826.994	90.28
827.172	65.71
827.349	49.32
827.527	63.66
827.704	112.81
827.882	94.38
828.059	65.71
828.237	86.19
828.414	129.19
828.591	59.56
828.769	65.71
828.946	47.27
829.124	96.43
829.301	88.23
829.478	63.66
829.655	170.15
829.833	108.71
830.01	112.81
830.187	57.51
830.364	71.85
830.542	55.47
830.719	98.47
830.896	98.47
831.073	18.6
831.25	49.32
831.427	45.23
831.604	98.47
831.782	6.31
831.959	121
832.136	123.05
832.313	82.09
832.49	34.99
832.667	147.62
832.844	49.32
833.021	104.62
833.198	82.09
833.374	49.32
833.551	-40.79
833.728	92.33
833.905	47.27
834.082	32.94
834.259	61.61
834.436	88.23
834.612	30.89
834.789	22.7
834.966	41.13
835.143	88.23
835.319	-18.26
835.496	149.67
835.673	137.38
835.85	53.42
836.026	28.84
836.203	88.23
836.38	30.89
836.556	47.27
836.733	114.86
836.909	49.32
837.086	57.51
837.262	14.51
837.439	41.13
837.616	47.27
837.792	51.37
837.968	92.33
838.145	32.94
838.321	14.51
838.498	26.79
838.674	63.66
838.851	88.23
839.027	67.75
839.203	39.08
839.38	22.7
839.556	51.37
839.732	18.6
839.909	47.27
840.085	39.08
840.261	32.94
840.437	98.47
840.614	80.04
840.79	55.47
840.966	53.42
841.142	125.1
841.318	49.32
841.494	4.27
841.671	20.65
841.847	-14.17
842.023	47.27
842.199	71.85
842.375	63.66
842.551	57.51
842.727	14.51
842.903	102.57
843.079	6.31
843.255	82.09
843.431	67.75
843.607	67.75
843.783	24.75
843.959	-46.93
844.134	34.99
844.31	100.52
844.486	69.8
844.662	-18.26
844.838	71.85
845.013	65.71
845.189	47.27
845.365	43.18
845.541	30.89
845.716	67.75
845.892	88.23
846.068	-16.21
846.244	32.94
846.419	80.04
846.595	32.94
846.77	47.27
846.946	18.6
847.122	-5.97
847.297	55.47
847.473	96.43
847.648	73.9
847.824	65.71
847.999	-69.46
848.175	55.47
848.35	0.17
848.526	84.14
848.701	8.36
848.876	92.33
849.052	92.33
849.227	39.08
849.403	41.13
849.578	67.75
849.753	73.9
849.929	39.08
850.104	-18.26
850.279	6.31
850.454	10.41
850.63	49.32
850.805	26.79
850.98	63.66
851.155	47.27
851.33	94.38
851.505	80.04
851.681	80.04
851.856	2.22
852.031	-20.31
852.206	30.89
852.381	0.17
852.556	8.36
852.731	88.23
852.906	-1.88
853.081	75.95
853.256	104.62
853.431	-34.64
853.606	-1.88
853.781	39.08
853.956	41.13
854.131	96.43
854.305	-53.08
854.48	57.51
854.655	30.89
854.83	-59.22
855.005	-12.12
855.18	-51.03
855.354	-5.97
855.529	39.08
855.704	65.71
855.879	-3.93
856.053	-5.97
856.228	75.95
856.403	-1.88
856.577	37.03
856.752	-1.88
856.926	63.66
857.101	-16.21
857.276	39.08
857.45	16.55
857.625	12.46
857.799	-12.12
857.974	96.43
858.148	14.51
858.323	6.31
858.497	80.04
858.672	-59.22
858.846	37.03
859.02	53.42
859.195	14.51
859.369	26.79
859.543	10.41
859.718	63.66
859.892	75.95
860.066	-22.36
860.241	6.31
860.415	10.41
860.589	-8.02
860.763	39.08
860.938	-46.93
861.112	-14.17
861.286	-38.74
861.46	20.65
861.634	10.41
861.808	77.99
861.982	37.03
862.157	80.04
862.331	20.65
862.505	-48.98
862.679	-36.69
862.853	-5.97
863.027	26.79
863.201	10.41
863.375	73.9
863.549	0.17
863.722	82.09
863.896	80.04
864.07	-1.88
864.244	-1.88
864.418	94.38
864.592	65.71
864.766	39.08
864.939	-1.88
865.113	51.37
865.287	6.31
865.461	0.17
865.634	34.99
865.808	57.51
865.982	-16.21
866.156	-8.02
866.329	14.51
866.503	-42.84
866.676	6.31
866.85	-20.31
867.024	30.89
867.197	8.36
867.371	39.08
867.544	-10.07
867.718	-18.26
867.891	57.51
868.065	6.31
868.238	-18.26
868.412	-10.07
868.585	80.04
868.759	-40.79
868.932	-1.88
869.105	-8.02
869.279	2.22
869.452	-24.4
869.625	-1.88
869.799	-34.64
869.972	32.94
870.145	2.22
870.319	30.89
870.492	8.36
870.665	73.9
870.838	-46.93
871.011	6.31
871.185	-8.02
871.358	-34.64
871.531	73.9
871.704	-28.5
871.877	57.51
872.05	-5.97
872.223	14.51
872.396	6.31
872.569	24.75
872.742	32.94
872.915	-14.17
873.088	10.41
873.261	24.75
873.434	59.56
873.607	-28.5
873.78	14.51
873.953	-1.88
874.126	43.18
874.299	14.51
874.471	-1.88
874.644	-28.5
874.817	51.37
874.99	94.38
875.163	-75.6
875.335	-91.99
875.508	20.65
875.681	55.47
875.853	8.36
876.026	-3.93
876.199	-34.64
876.371	10.41
876.544	-24.4
876.717	30.89
876.889	-42.84
877.062	6.31
877.234	24.75
877.407	69.8
877.579	2.22
877.752	18.6
877.924	-5.97
878.097	-10.07
878.269	-22.36
878.442	6.31
878.614	-22.36
878.786	47.27
878.959	55.47
879.131	12.46
879.303	-59.22
879.476	6.31
879.648	30.89
879.82	6.31
879.993	34.99
880.165	-10.07
880.337	-55.12
880.509	0.17
880.681	-98.13
880.854	-59.22
881.026	4.27
881.198	43.18
881.37	-36.69
881.542	-14.17
881.714	-26.45
881.886	-59.22
882.058	-42.84
882.23	-18.26
882.402	14.51
882.574	123.05
882.746	55.47
882.918	28.84
883.09	-59.22
883.262	39.08
883.434	-16.21
883.606	-32.6
883.778	-5.97
883.95	57.51
884.122	16.55
884.293	2.22
884.465	47.27
884.637	57.51
884.809	-83.8
884.98	43.18
885.152	28.84
885.324	65.71
885.496	-57.17
885.667	-10.07
885.839	-24.4
886.011	16.55
886.182	0.17
886.354	2.22
886.525	-14.17
886.697	-10.07
886.869	63.66
887.04	-1.88
887.212	20.65
887.383	90.28
887.555	6.31
887.726	12.46
887.897	-67.41
888.069	-28.5
888.24	-34.64
888.412	-1.88
888.583	-8.02
888.754	-24.4
888.926	39.08
889.097	-38.74
889.268	14.51
889.44	6.31
889.611	20.65
889.782	22.7
889.953	-1.88
890.125	96.43
890.296	-26.45
890.467	39.08
890.638	-40.79
890.809	57.51
890.98	-5.97
891.151	-1.88
891.323	32.94
891.494	26.79
891.665	12.46
891.836	-26.45
892.007	-59.22
892.178	30.89
892.349	30.89
892.52	6.31
892.691	43.18
892.862	-34.64
893.032	-8.02
893.203	-36.69
893.374	16.55
893.545	4.27
893.716	-26.45
893.887	67.75
894.057	-22.36
894.228	6.31
894.399	-48.98
894.57	49.32
894.74	26.79
894.911	-34.64
895.082	-79.7
895.253	34.99
895.423	65.71
895.594	-26.45
895.764	-28.5
895.935	-32.6
896.106	32.94
896.276	6.31
896.447	18.6
896.617	-22.36
896.788	-46.93
896.958	53.42
897.129	55.47
897.299	26.79
897.47	6.31
897.64	6.31
897.81	-42.84
897.981	57.51
898.151	14.51
898.322	47.27
898.492	45.23
898.662	12.46
898.832	39.08
899.003	51.37
899.173	2.22
899.343	-65.36
899.513	-38.74
