Data from USB4F104151__93__14-17-58-261.txt Node

Date: Thu Mar 13 14:17:58 EDT 2025
User: louis
Spectrometer: USB4F10415
Trigger mode: 4
Integration Time (sec): 2.000000E-2
Scans to average: 1
Electric dark correction enabled: true
Nonlinearity correction enabled: false
Boxcar width: 0
XAxis mode: Wavelengths
Number of Pixels in Spectrum: 3648
>>>>>Begin Spectral Data<<<<<
178.204	-83.63
178.424	-83.63
178.644	-83.63
178.864	-202.41
179.084	-89.77
179.304	24.92
179.524	-9.9
179.744	-20.14
179.964	18.77
180.184	14.68
180.404	-26.28
180.624	-7.85
180.844	35.16
181.064	-24.23
181.283	-11.95
181.503	-22.19
181.723	29.01
181.943	-28.33
182.163	119.12
182.383	4.44
182.602	37.2
182.822	53.59
183.042	76.12
183.262	78.16
183.482	12.63
183.701	45.4
183.921	39.25
184.141	6.49
184.361	12.63
184.58	37.2
184.8	41.3
185.02	0.34
185.239	37.2
185.459	61.78
185.679	63.83
185.898	-40.62
186.118	86.36
186.338	-44.71
186.557	78.16
186.777	49.49
186.997	65.88
187.216	0.34
187.436	6.49
187.655	94.55
187.875	47.44
188.095	4.44
188.314	129.36
188.534	-11.95
188.753	47.44
188.973	18.77
189.192	143.7
189.412	-34.47
189.631	53.59
189.851	63.83
190.07	63.83
190.29	14.68
190.509	82.26
190.729	10.58
190.948	96.6
191.168	127.32
191.387	12.63
191.607	18.77
191.826	-34.47
192.045	22.87
192.265	-57
192.484	37.2
192.704	-46.76
192.923	4.44
193.142	170.32
193.362	59.73
193.581	57.68
193.8	53.59
194.02	59.73
194.239	31.06
194.458	63.83
194.678	63.83
194.897	4.44
195.116	69.97
195.335	37.2
195.555	47.44
195.774	12.63
195.993	39.25
196.212	-20.14
196.432	20.82
196.651	78.16
196.87	78.16
197.089	20.82
197.308	96.6
197.528	8.53
197.747	-18.09
197.966	55.64
198.185	61.78
198.404	-13.99
198.623	26.96
198.842	47.44
199.062	24.92
199.281	47.44
199.5	69.97
199.719	82.26
199.938	49.49
200.157	69.97
200.376	45.4
200.595	67.92
200.814	69.97
201.033	-3.75
201.252	112.98
201.471	121.17
201.69	127.32
201.909	24.92
202.128	69.97
202.347	135.51
202.566	-11.95
202.785	-3.75
203.004	20.82
203.223	194.9
203.442	65.88
203.661	12.63
203.879	88.4
204.098	98.64
204.317	-22.19
204.536	4.44
204.755	57.68
204.974	43.35
205.193	24.92
205.411	74.07
205.63	57.68
205.849	96.6
206.068	69.97
206.287	45.4
206.505	47.44
206.724	63.83
206.943	-40.62
207.162	94.55
207.381	49.49
207.599	-1.71
207.818	35.16
208.037	16.73
208.255	18.77
208.474	43.35
208.693	-48.81
208.911	49.49
209.13	22.87
209.349	76.12
209.567	24.92
209.786	63.83
210.005	78.16
210.223	14.68
210.442	-18.09
210.661	45.4
210.879	41.3
211.098	65.88
211.316	29.01
211.535	55.64
211.753	0.34
211.972	53.59
212.191	20.82
212.409	10.58
212.628	0.34
212.846	12.63
213.065	53.59
213.283	45.4
213.502	-1.71
213.72	-48.81
213.938	-24.23
214.157	61.78
214.375	72.02
214.594	96.6
214.812	22.87
215.031	37.2
215.249	45.4
215.467	29.01
215.686	100.69
215.904	51.54
216.122	63.83
216.341	94.55
216.559	49.49
216.778	47.44
216.996	86.36
217.214	82.26
217.432	22.87
217.651	6.49
217.869	14.68
218.087	112.98
218.306	-3.75
218.524	12.63
218.742	14.68
218.96	53.59
219.179	35.16
219.397	22.87
219.615	76.12
219.833	-52.91
220.051	8.53
220.27	86.36
220.488	16.73
220.706	29.01
220.924	76.12
221.142	43.35
221.36	26.96
221.578	78.16
221.796	57.68
222.015	76.12
222.233	49.49
222.451	72.02
222.669	4.44
222.887	94.55
223.105	31.06
223.323	-118.44
223.541	-18.09
223.759	84.31
223.977	12.63
224.195	76.12
224.413	-20.14
224.631	125.27
224.849	102.74
225.067	72.02
225.285	37.2
225.503	16.73
225.721	78.16
225.939	0.34
226.157	22.87
226.375	94.55
226.592	20.82
226.81	82.26
227.028	24.92
227.246	143.7
227.464	8.53
227.682	84.31
227.9	-16.04
228.117	74.07
228.335	6.49
228.553	4.44
228.771	92.5
228.989	53.59
229.206	65.88
229.424	37.2
229.642	4.44
229.86	8.53
230.077	65.88
230.295	-20.14
230.513	94.55
230.731	37.2
230.948	76.12
231.166	86.36
231.384	14.68
231.601	-7.85
231.819	127.32
232.037	33.11
232.254	10.58
232.472	47.44
232.689	18.77
232.907	-1.71
233.125	37.2
233.342	33.11
233.56	-13.99
233.777	18.77
233.995	10.58
234.213	61.78
234.43	59.73
234.648	78.16
234.865	16.73
235.083	67.92
235.3	0.34
235.518	69.97
235.735	115.03
235.953	39.25
236.17	80.21
236.388	16.73
236.605	10.58
236.822	100.69
237.04	72.02
237.257	6.49
237.475	8.53
237.692	72.02
237.909	53.59
238.127	26.96
238.344	31.06
238.562	84.31
238.779	-28.33
238.996	37.2
239.214	-7.85
239.431	51.54
239.648	14.68
239.865	96.6
240.083	39.25
240.3	41.3
240.517	2.39
240.735	-3.75
240.952	69.97
241.169	37.2
241.386	8.53
241.603	0.34
241.821	110.93
242.038	57.68
242.255	22.87
242.472	12.63
242.689	53.59
242.907	39.25
243.124	-26.28
243.341	37.2
243.558	33.11
243.775	69.97
243.992	-20.14
244.209	63.83
244.426	78.16
244.643	33.11
244.86	-50.86
245.078	94.55
245.295	33.11
245.512	61.78
245.729	14.68
245.946	47.44
246.163	45.4
246.38	37.2
246.597	12.63
246.814	22.87
247.031	-18.09
247.248	24.92
247.464	-5.8
247.681	29.01
247.898	65.88
248.115	78.16
248.332	61.78
248.549	14.68
248.766	147.8
248.983	57.68
249.2	14.68
249.417	80.21
249.633	61.78
249.85	-1.71
250.067	0.34
250.284	45.4
250.501	147.8
250.717	61.78
250.934	39.25
251.151	49.49
251.368	45.4
251.585	94.55
251.801	67.92
252.018	106.84
252.235	0.34
252.451	-24.23
252.668	12.63
252.885	67.92
253.102	-36.52
253.318	33.11
253.535	37.2
253.752	20.82
253.968	4.44
254.185	-26.28
254.401	4.44
254.618	53.59
254.835	37.2
255.051	102.74
255.268	86.36
255.484	14.68
255.701	65.88
255.917	33.11
256.134	41.3
256.351	4.44
256.567	-1.71
256.784	24.92
257	20.82
257.217	47.44
257.433	98.64
257.65	29.01
257.866	61.78
258.082	61.78
258.299	72.02
258.515	61.78
258.732	49.49
258.948	47.44
259.165	41.3
259.381	61.78
259.597	53.59
259.814	12.63
260.03	0.34
260.246	31.06
260.463	47.44
260.679	90.45
260.895	37.2
261.112	47.44
261.328	-32.43
261.544	31.06
261.761	86.36
261.977	69.97
262.193	-28.33
262.409	45.4
262.626	92.5
262.842	-34.47
263.058	49.49
263.274	57.68
263.49	69.97
263.707	72.02
263.923	45.4
264.139	-11.95
264.355	29.01
264.571	20.82
264.787	102.74
265.004	-1.71
265.22	20.82
265.436	88.4
265.652	51.54
265.868	16.73
266.084	43.35
266.3	37.2
266.516	-36.52
266.732	33.11
266.948	-20.14
267.164	78.16
267.38	43.35
267.596	8.53
267.812	184.66
268.028	84.31
268.244	37.2
268.46	4.44
268.676	29.01
268.892	37.2
269.108	53.59
269.324	-32.43
269.54	33.11
269.756	39.25
269.972	57.68
270.188	29.01
270.403	-61.1
270.619	61.78
270.835	33.11
271.051	-11.95
271.267	20.82
271.483	12.63
271.698	31.06
271.914	168.27
272.13	51.54
272.346	92.5
272.562	119.12
272.777	76.12
272.993	18.77
273.209	37.2
273.425	69.97
273.64	45.4
273.856	86.36
274.072	22.87
274.287	-3.75
274.503	94.55
274.719	67.92
274.934	6.49
275.15	-30.38
275.366	18.77
275.581	61.78
275.797	20.82
276.012	14.68
276.228	29.01
276.444	53.59
276.659	24.92
276.875	29.01
277.09	8.53
277.306	51.54
277.521	102.74
277.737	31.06
277.952	51.54
278.168	33.11
278.383	86.36
278.599	45.4
278.814	16.73
279.03	82.26
279.245	55.64
279.461	37.2
279.676	88.4
279.892	-3.75
280.107	82.26
280.322	-48.81
280.538	59.73
280.753	47.44
280.969	-1.71
281.184	55.64
281.399	127.32
281.615	31.06
281.83	119.12
282.045	-46.76
282.26	41.3
282.476	47.44
282.691	4.44
282.906	24.92
283.122	22.87
283.337	12.63
283.552	78.16
283.767	61.78
283.983	31.06
284.198	47.44
284.413	74.07
284.628	4.44
284.843	24.92
285.058	14.68
285.274	-11.95
285.489	59.73
285.704	102.74
285.919	4.44
286.134	53.59
286.349	78.16
286.564	6.49
286.779	127.32
286.995	12.63
287.21	10.58
287.425	112.98
287.64	43.35
287.855	29.01
288.07	33.11
288.285	-3.75
288.5	94.55
288.715	55.64
288.93	102.74
289.145	94.55
289.36	41.3
289.575	20.82
289.79	-28.33
290.004	14.68
290.219	90.45
290.434	74.07
290.649	74.07
290.864	-16.04
291.079	39.25
291.294	74.07
291.509	57.68
291.724	96.6
291.938	37.2
292.153	88.4
292.368	39.25
292.583	47.44
292.798	100.69
293.012	47.44
293.227	37.2
293.442	39.25
293.657	37.2
293.871	82.26
294.086	53.59
294.301	92.5
294.516	160.08
294.73	65.88
294.945	6.49
295.16	84.31
295.374	149.84
295.589	102.74
295.804	31.06
296.018	57.68
296.233	80.21
296.447	90.45
296.662	6.49
296.877	39.25
297.091	80.21
297.306	-69.29
297.52	-32.43
297.735	24.92
297.949	51.54
298.164	96.6
298.378	82.26
298.593	0.34
298.807	35.16
299.022	49.49
299.236	41.3
299.451	24.92
299.665	-7.85
299.88	16.73
300.094	72.02
300.309	49.49
300.523	69.97
300.737	4.44
300.952	16.73
301.166	69.97
301.381	63.83
301.595	78.16
301.809	76.12
302.024	8.53
302.238	31.06
302.452	86.36
302.667	53.59
302.881	141.65
303.095	78.16
303.309	82.26
303.524	94.55
303.738	16.73
303.952	45.4
304.166	12.63
304.381	-3.75
304.595	104.79
304.809	12.63
305.023	39.25
305.237	-28.33
305.452	63.83
305.666	74.07
305.88	86.36
306.094	6.49
306.308	-1.71
306.522	69.97
306.736	41.3
306.95	-26.28
307.164	35.16
307.379	29.01
307.593	125.27
307.807	76.12
308.021	-26.28
308.235	18.77
308.449	57.68
308.663	143.7
308.877	55.64
309.091	53.59
309.305	53.59
309.519	37.2
309.733	37.2
309.947	100.69
310.161	-22.19
310.374	-3.75
310.588	37.2
310.802	22.87
311.016	37.2
311.23	78.16
311.444	61.78
311.658	69.97
311.872	57.68
312.085	49.49
312.299	61.78
312.513	49.49
312.727	57.68
312.941	14.68
313.154	65.88
313.368	29.01
313.582	129.36
313.796	-9.9
314.009	80.21
314.223	47.44
314.437	86.36
314.651	72.02
314.864	72.02
315.078	12.63
315.292	29.01
315.505	35.16
315.719	22.87
315.933	39.25
316.146	18.77
316.36	-42.67
316.573	94.55
316.787	69.97
317.001	78.16
317.214	31.06
317.428	33.11
317.641	6.49
317.855	41.3
318.068	102.74
318.282	61.78
318.495	129.36
318.709	24.92
318.922	88.4
319.136	119.12
319.349	155.99
319.563	14.68
319.776	24.92
319.99	59.73
320.203	80.21
320.417	63.83
320.63	72.02
320.843	72.02
321.057	49.49
321.27	86.36
321.483	84.31
321.697	33.11
321.91	29.01
322.124	29.01
322.337	49.49
322.55	39.25
322.763	16.73
322.977	63.83
323.19	4.44
323.403	53.59
323.617	74.07
323.83	65.88
324.043	59.73
324.256	69.97
324.469	65.88
324.683	53.59
324.896	-59.05
325.109	39.25
325.322	47.44
325.535	6.49
325.748	51.54
325.962	20.82
326.175	29.01
326.388	16.73
326.601	86.36
326.814	45.4
327.027	49.49
327.24	78.16
327.453	33.11
327.666	80.21
327.879	63.83
328.092	10.58
328.305	-50.86
328.518	39.25
328.731	24.92
328.944	31.06
329.157	69.97
329.37	69.97
329.583	63.83
329.796	90.45
330.009	39.25
330.222	12.63
330.435	65.88
330.648	-9.9
330.861	43.35
331.073	14.68
331.286	-9.9
331.499	72.02
331.712	26.96
331.925	-52.91
332.138	63.83
332.35	86.36
332.563	43.35
332.776	53.59
332.989	-20.14
333.202	74.07
333.414	90.45
333.627	22.87
333.84	39.25
334.053	69.97
334.265	37.2
334.478	80.21
334.691	31.06
334.903	22.87
335.116	20.82
335.329	29.01
335.541	-7.85
335.754	78.16
335.966	106.84
336.179	129.36
336.392	119.12
336.604	67.92
336.817	86.36
337.029	100.69
337.242	4.44
337.454	-3.75
337.667	121.17
337.88	90.45
338.092	55.64
338.305	45.4
338.517	45.4
338.729	57.68
338.942	102.74
339.154	29.01
339.367	20.82
339.579	102.74
339.792	84.31
340.004	96.6
340.217	16.73
340.429	74.07
340.641	-11.95
340.854	18.77
341.066	72.02
341.278	104.79
341.491	86.36
341.703	98.64
341.915	45.4
342.128	45.4
342.34	61.78
342.552	10.58
342.764	4.44
342.977	84.31
343.189	-34.47
343.401	69.97
343.613	4.44
343.826	72.02
344.038	-5.8
344.25	90.45
344.462	31.06
344.674	123.22
344.886	57.68
345.099	53.59
345.311	74.07
345.523	51.54
345.735	45.4
345.947	-11.95
346.159	90.45
346.371	16.73
346.583	29.01
346.795	94.55
347.007	20.82
347.219	-7.85
347.431	45.4
347.643	123.22
347.855	-3.75
348.067	65.88
348.279	-24.23
348.491	78.16
348.703	-40.62
348.915	14.68
349.127	67.92
349.339	72.02
349.551	86.36
349.763	86.36
349.975	61.78
350.187	96.6
350.399	12.63
350.61	80.21
350.822	-9.9
351.034	47.44
351.246	41.3
351.458	57.68
351.669	20.82
351.881	33.11
352.093	10.58
352.305	53.59
352.517	53.59
352.728	47.44
352.94	29.01
353.152	45.4
353.363	-13.99
353.575	88.4
353.787	69.97
353.999	47.44
354.21	43.35
354.422	-20.14
354.633	92.5
354.845	41.3
355.057	100.69
355.268	55.64
355.48	59.73
355.692	82.26
355.903	12.63
356.115	102.74
356.326	-1.71
356.538	106.84
356.749	47.44
356.961	65.88
357.172	69.97
357.384	8.53
357.595	117.08
357.807	65.88
358.018	26.96
358.23	14.68
358.441	203.09
358.653	57.68
358.864	12.63
359.075	110.93
359.287	2.39
359.498	45.4
359.709	53.59
359.921	94.55
360.132	80.21
360.344	45.4
360.555	43.35
360.766	78.16
360.977	72.02
361.189	119.12
361.4	57.68
361.611	41.3
361.823	94.55
362.034	90.45
362.245	33.11
362.456	33.11
362.667	110.93
362.879	33.11
363.09	90.45
363.301	69.97
363.512	94.55
363.723	29.01
363.935	57.68
364.146	86.36
364.357	69.97
364.568	63.83
364.779	37.2
364.99	96.6
365.201	8.53
365.412	106.84
365.623	-34.47
365.834	57.68
366.045	18.77
366.256	14.68
366.467	88.4
366.678	49.49
366.889	61.78
367.1	92.5
367.311	94.55
367.522	29.01
367.733	47.44
367.944	45.4
368.155	67.92
368.366	63.83
368.577	53.59
368.788	65.88
368.999	20.82
369.209	61.78
369.42	100.69
369.631	276.82
369.842	47.44
370.053	55.64
370.264	139.6
370.474	57.68
370.685	-7.85
370.896	72.02
371.107	74.07
371.317	94.55
371.528	63.83
371.739	31.06
371.95	69.97
372.16	69.97
372.371	4.44
372.582	69.97
372.792	90.45
373.003	117.08
373.214	31.06
373.424	108.88
373.635	49.49
373.846	129.36
374.056	135.51
374.267	78.16
374.477	41.3
374.688	43.35
374.898	90.45
375.109	-16.04
375.319	45.4
375.53	106.84
375.74	29.01
375.951	24.92
376.161	65.88
376.372	88.4
376.582	37.2
376.793	57.68
377.003	57.68
377.214	69.97
377.424	67.92
377.635	102.74
377.845	24.92
378.055	110.93
378.266	51.54
378.476	82.26
378.686	31.06
378.897	90.45
379.107	69.97
379.317	104.79
379.528	88.4
379.738	96.6
379.948	-11.95
380.158	-40.62
380.369	47.44
380.579	115.03
380.789	57.68
380.999	55.64
381.21	45.4
381.42	166.23
381.63	143.7
381.84	69.97
382.05	88.4
382.261	110.93
382.471	88.4
382.681	12.63
382.891	80.21
383.101	55.64
383.311	-26.28
383.521	61.78
383.731	135.51
383.941	139.6
384.151	127.32
384.361	20.82
384.571	-3.75
384.781	69.97
384.991	125.27
385.201	65.88
385.411	20.82
385.621	92.5
385.831	108.88
386.041	57.68
386.251	65.88
386.461	22.87
386.671	121.17
386.881	18.77
387.091	65.88
387.301	102.74
387.511	26.96
387.72	39.25
387.93	53.59
388.14	22.87
388.35	6.49
388.56	104.79
388.769	16.73
388.979	22.87
389.189	16.73
389.399	69.97
389.609	76.12
389.818	55.64
390.028	47.44
390.238	24.92
390.447	100.69
390.657	94.55
390.867	39.25
391.076	-40.62
391.286	74.07
391.496	49.49
391.705	-26.28
391.915	94.55
392.125	33.11
392.334	45.4
392.544	127.32
392.753	72.02
392.963	39.25
393.172	110.93
393.382	69.97
393.591	117.08
393.801	94.55
394.01	139.6
394.22	59.73
394.429	55.64
394.639	37.2
394.848	131.41
395.058	106.84
395.267	67.92
395.477	80.21
395.686	117.08
395.895	94.55
396.105	153.94
396.314	43.35
396.524	74.07
396.733	104.79
396.942	129.36
397.152	37.2
397.361	168.27
397.57	123.22
397.78	16.73
397.989	100.69
398.198	110.93
398.407	94.55
398.617	18.77
398.826	98.64
399.035	106.84
399.244	37.2
399.453	92.5
399.663	110.93
399.872	96.6
400.081	147.8
400.29	100.69
400.499	72.02
400.708	100.69
400.917	90.45
401.127	115.03
401.336	112.98
401.545	155.99
401.754	155.99
401.963	135.51
402.172	94.55
402.381	115.03
402.59	131.41
402.799	119.12
403.008	110.93
403.217	20.82
403.426	145.75
403.635	90.45
403.844	219.47
404.053	151.89
404.262	162.13
404.471	143.7
404.68	158.03
404.888	127.32
405.097	143.7
405.306	39.25
405.515	112.98
405.724	178.51
405.933	203.09
406.142	145.75
406.35	164.18
406.559	135.51
406.768	246.1
406.977	196.95
407.185	246.1
407.394	278.87
407.603	72.02
407.812	198.99
408.02	217.43
408.229	219.47
408.438	223.57
408.646	176.47
408.855	207.19
409.064	213.33
409.272	225.62
409.481	188.75
409.69	221.52
409.898	270.67
410.107	209.23
410.315	305.49
410.524	305.49
410.733	307.54
410.941	285.01
411.15	299.34
411.358	348.5
411.567	385.36
411.775	315.73
411.984	334.16
412.192	364.88
412.401	399.7
412.609	457.04
412.818	467.28
413.026	405.84
413.234	495.95
413.443	407.89
413.651	479.57
413.86	487.76
414.068	465.23
414.276	536.91
414.485	502.09
414.693	520.53
414.901	616.78
415.11	618.83
415.318	602.44
415.526	641.36
415.734	606.54
415.943	659.79
416.151	708.94
416.359	674.12
416.567	725.32
416.776	780.62
416.984	823.62
417.192	883.02
417.4	813.38
417.608	688.46
417.817	823.62
418.025	897.35
418.233	1028.42
418.441	1036.61
418.649	1126.72
418.857	1085.76
419.065	1116.48
419.273	1069.38
419.481	1169.73
419.689	1118.53
419.897	1227.07
420.105	1329.47
420.313	1298.75
420.521	1233.22
420.729	1403.2
420.937	1370.43
421.145	1446.21
421.353	1626.43
421.561	1640.76
421.769	1612.09
421.977	1704.25
422.185	1671.48
422.393	1784.12
422.601	1972.54
422.809	1954.1
423.017	1902.9
423.224	1945.91
423.432	2023.73
423.64	2113.85
423.848	2199.86
424.056	2224.44
424.263	2337.07
424.471	2306.35
424.679	2492.72
424.887	2418.99
425.094	2505.01
425.302	2597.17
425.51	2697.52
425.718	2887.98
425.925	2810.15
426.133	3068.2
426.341	3133.73
426.548	3273
426.756	3227.94
426.964	3287.33
427.171	3430.69
427.379	3502.37
427.586	3582.24
427.794	3686.69
428.001	3885.34
428.209	3985.69
428.417	4030.74
428.624	4268.31
428.832	4251.92
429.039	4299.03
429.247	4223.25
429.454	4645.13
429.662	4962.57
429.869	4679.95
430.076	5099.78
430.284	4813.07
430.491	5128.46
430.699	5230.85
430.906	5372.16
431.114	5468.42
431.321	5644.54
431.528	5757.18
431.736	5953.79
431.943	6383.86
432.15	6181.11
432.358	6140.15
432.565	6433.01
432.772	6578.42
432.979	6811.89
433.187	6854.89
433.394	6904.04
433.601	7604.45
433.808	7448.8
434.016	7649.5
434.223	7835.87
434.43	8313.05
434.637	8073.43
434.844	8593.62
435.052	8722.64
435.259	8788.18
435.466	8663.25
435.673	8575.19
435.88	9302.22
436.087	9732.29
436.294	9648.32
436.501	9662.66
436.708	9672.9
436.915	10066.11
437.122	10451.13
437.329	10625.2
437.537	10803.38
437.743	11008.17
437.95	10664.11
438.157	11339.94
438.364	11894.94
438.571	11868.32
438.778	11761.83
438.985	13127.82
439.192	12386.46
439.399	12896.4
439.606	12314.78
439.813	13455.5
440.02	14030.98
440.227	13643.91
440.433	13676.68
440.64	14178.43
440.847	14194.81
441.054	14246.01
441.261	15151.21
441.467	15294.57
441.674	15349.87
441.881	15904.87
442.088	16083.04
442.294	15562.86
442.501	16072.8
442.708	16420.95
442.914	17213.52
443.121	17770.57
443.328	17375.31
443.534	18536.51
443.741	18126.91
443.948	18055.23
444.154	19107.89
444.361	18792.5
444.568	19234.86
444.774	19044.4
444.981	19410.99
445.187	19949.6
445.394	20723.74
445.6	20439.07
445.807	22431.74
446.013	21510.16
446.22	22122.5
446.426	22663.16
446.633	23050.23
446.839	23791.59
447.046	22790.14
447.252	23850.99
447.459	23924.71
447.665	24119.27
447.871	24987.61
448.078	25851.85
448.284	24852.44
448.491	25567.18
448.697	26546.11
448.903	26732.48
449.11	27307.96
449.316	26580.93
449.522	27029.43
449.728	28016.55
449.935	27914.16
450.141	27824.04
450.347	28342.18
450.553	27656.11
450.76	27953.07
450.966	29300.63
451.172	28907.42
451.378	29472.66
451.584	28833.69
451.791	29431.7
451.997	29347.73
452.203	30078.86
452.409	30125.96
452.615	29968.27
452.821	28843.93
453.027	28381.09
453.233	30142.35
453.44	29046.68
453.646	29149.08
453.852	29249.43
454.058	29925.26
454.264	28741.53
454.47	29728.66
454.676	28854.17
454.882	30115.72
455.088	27213.75
455.294	27473.84
455.5	28227.49
455.705	28377
455.911	27000.76
456.117	27011
456.323	26644.41
456.529	25139.16
456.735	25980.87
456.941	25145.3
457.147	25243.6
457.352	24051.69
457.558	23955.43
457.764	24186.85
457.97	23642.09
458.176	23091.19
458.381	23205.88
458.587	21817.35
458.793	22153.22
458.999	20924.44
459.204	22237.19
459.41	21710.86
459.616	20471.84
459.821	20264.99
460.027	20574.24
460.233	19855.4
460.438	19120.18
460.644	19091.51
460.85	18477.12
461.055	17934.4
461.261	17856.58
461.466	16691.29
461.672	15992.93
461.878	17109.07
462.083	16269.41
462.289	15886.43
462.494	15642.73
462.7	15097.97
462.905	14671.99
463.111	15020.14
463.316	15132.78
463.522	14823.54
463.727	14774.39
463.932	14962.8
464.138	14608.5
464.343	14745.72
464.549	14133.37
464.754	14706.8
464.959	14555.26
465.165	14567.54
465.37	13930.62
465.575	13840.51
465.781	14203
465.986	14536.82
466.191	13623.43
466.397	13228.17
466.602	12789.91
466.807	13015.18
467.012	13252.75
467.218	13160.59
467.423	12710.04
467.628	13230.22
467.833	13682.82
468.038	13234.32
468.244	12912.78
468.449	13508.74
468.654	12882.06
468.859	12679.32
469.064	12804.24
469.269	12056.73
469.474	12224.67
469.679	12695.7
469.885	12234.91
470.09	12615.83
470.295	12140.7
470.5	12286.11
470.705	12048.54
470.91	11845.79
471.115	11729.06
471.32	11808.93
471.525	11784.35
471.73	11628.71
471.935	11675.81
472.139	11126.96
472.344	11382.95
472.549	11194.54
472.754	10977.45
472.959	10758.32
473.164	10600.63
473.369	10651.83
473.574	10809.52
473.778	10735.79
473.983	10547.38
474.188	10758.32
474.393	10059.96
474.598	10152.12
474.802	10195.13
475.007	10033.34
475.212	10092.73
475.417	9791.68
475.621	9738.43
475.826	9771.2
476.031	9531.59
476.235	9427.14
476.44	9441.48
476.645	9345.22
476.849	9474.24
477.054	9265.35
477.259	9287.88
477.463	9005.26
477.668	9093.32
477.872	8956.11
478.077	8736.98
478.282	8634.58
478.486	8759.5
478.691	8659.15
478.895	8528.08
479.1	8626.39
479.304	8581.33
479.509	8272.09
479.713	8478.93
479.918	8138.97
480.122	8175.83
480.326	8206.55
480.531	8341.72
480.735	8108.25
480.94	7934.17
481.144	8370.39
481.348	7780.57
481.553	7846.11
481.757	7796.96
481.961	7878.88
482.166	7979.23
482.37	7899.36
482.574	7778.53
482.778	7790.81
482.983	8061.15
483.187	7776.48
483.391	7753.95
483.595	7925.98
483.8	7887.07
484.004	7774.43
484.208	7717.09
484.412	7860.45
484.616	8063.19
484.821	7827.68
485.025	7698.66
485.229	7690.46
485.433	7913.69
485.637	7860.45
485.841	7846.11
486.045	7715.04
486.249	7835.87
486.453	7874.78
486.657	7780.57
486.861	7813.34
487.065	7700.7
487.269	7753.95
487.473	7780.57
487.677	7971.04
487.881	8128.73
488.085	7942.36
488.289	7829.73
488.493	7882.97
488.697	7903.45
488.901	7940.32
489.105	7928.03
489.309	7887.07
489.512	7913.69
489.716	7911.64
489.92	7862.49
490.124	7979.23
490.328	8081.63
490.531	8157.4
490.735	8128.73
490.939	8188.12
491.143	8091.87
491.346	8018.14
491.55	8321.24
491.754	8224.98
491.958	8253.66
492.161	8179.93
492.365	8378.58
492.569	8163.54
492.772	8308.95
492.976	8468.69
493.18	8251.61
493.383	8583.38
493.587	8435.92
493.79	8779.98
493.994	8712.4
494.197	8745.17
494.401	8786.13
494.605	8896.72
494.808	8890.57
495.012	8935.63
495.215	8806.61
495.419	9054.41
495.622	9031.88
495.825	9384.13
496.029	9367.75
496.232	9337.03
496.436	9244.87
496.639	9433.29
496.843	9511.11
497.046	9679.04
497.249	9627.84
497.453	9763.01
497.656	10019
497.859	10059.96
498.063	10154.17
498.266	10258.62
498.469	10379.45
498.673	10502.33
498.876	10711.22
499.079	10844.34
499.282	10590.39
499.485	10969.26
499.689	10780.85
499.892	10981.55
500.095	10981.55
500.298	11526.31
500.501	11413.67
500.705	11655.33
500.908	11677.86
501.111	11923.62
501.314	12048.54
501.517	12392.6
501.72	12251.29
501.923	12001.44
502.126	12437.66
502.329	12624.02
502.532	12824.72
502.735	12746.9
502.938	12894.35
503.141	13392.01
503.344	13252.75
503.547	13447.3
503.75	13465.74
503.953	13852.8
504.156	13799.55
504.359	14020.74
504.562	14205.05
504.765	14289.02
504.968	14545.02
505.17	14620.79
505.373	14698.61
505.576	15032.43
505.779	15153.26
505.982	15257.71
506.185	15177.84
506.387	15601.77
506.59	15718.5
506.793	15997.03
506.996	15837.28
507.198	16439.39
507.401	16406.62
507.604	16482.39
507.807	16902.23
508.009	16789.59
508.212	17027.15
508.415	17285.2
508.617	17295.44
508.82	17410.12
509.022	17510.47
509.225	17895.49
509.428	18231.36
509.63	18294.85
509.833	18270.27
510.035	18845.75
510.238	18718.78
510.44	18929.72
510.643	19507.24
510.845	19353.65
511.048	19347.5
511.25	19666.99
511.453	19714.09
511.655	20590.62
511.858	20375.58
512.06	20234.27
512.262	20873.24
512.465	20895.77
512.667	20863
512.87	21250.07
513.072	21395.47
513.274	21719.05
513.477	21956.61
513.679	21973
513.881	22278.15
514.084	22677.5
514.286	22306.82
514.488	23031.8
514.69	23316.47
514.893	23271.41
515.095	23304.18
515.297	23910.38
515.499	23896.04
515.701	24231.91
515.904	24494.05
516.106	24512.48
516.308	24985.56
516.51	25120.73
516.712	25040.86
516.914	25182.17
517.116	25735.12
517.318	25814.99
517.52	26288.07
517.722	26333.12
517.925	26443.71
518.127	26939.32
518.329	26771.39
518.531	26873.79
518.733	27189.17
518.935	27516.85
519.136	27477.94
519.338	27953.07
519.54	28123.05
519.742	28878.75
519.944	28589.99
520.146	28858.27
520.348	29327.25
520.55	29058.97
520.752	29140.89
520.954	30025.61
521.155	29564.82
521.357	30261.13
521.559	30494.6
521.761	30599.04
521.963	30625.67
522.164	30857.09
522.366	31031.16
522.568	31438.71
522.77	31741.81
522.971	31725.43
523.173	31713.14
523.375	32255.85
523.576	31981.42
523.778	32294.76
523.98	32507.75
524.181	32563.04
524.383	32986.97
524.584	33261.4
524.786	32898.91
524.988	32966.49
525.189	33623.89
525.391	33822.55
525.592	33779.54
525.794	33716.05
525.995	33769.3
526.197	33886.03
526.398	34455.37
526.6	34289.48
526.801	34428.74
527.003	34690.88
527.204	34684.74
527.406	35063.61
527.607	34824
527.808	35137.34
528.01	34877.25
528.211	34987.84
528.412	35551.03
528.614	35522.36
528.815	35598.13
529.016	36134.7
529.218	35759.92
529.419	35721.01
529.62	35628.85
529.822	35761.97
530.023	36007.73
530.224	35985.2
530.425	35893.04
530.626	35786.55
530.828	35827.51
531.029	36767.52
531.23	36202.28
531.431	36136.75
531.632	36405.03
531.833	36337.45
532.035	36773.67
532.236	36294.44
532.437	36697.89
532.638	36511.53
532.839	36880.16
533.04	36790.05
533.241	36415.27
533.442	37228.32
533.643	36990.75
533.844	36847.4
534.045	36886.31
534.246	36595.49
534.447	36960.03
534.648	36876.07
534.849	36876.07
535.05	36683.56
535.251	36642.6
535.451	36908.83
535.652	36906.79
535.853	36953.89
536.054	36706.09
536.255	36964.13
536.456	36472.62
536.657	37265.18
536.857	37066.53
537.058	36779.81
537.259	37029.66
537.46	36892.45
537.66	36747.04
537.861	36726.56
538.062	37013.28
538.263	37326.62
538.463	36771.62
538.664	36876.07
538.865	37044
539.065	36986.66
539.266	36345.64
539.466	37285.66
539.667	36515.62
539.868	36964.13
540.068	36589.35
540.269	36939.55
540.469	37246.75
540.67	36505.38
540.87	36957.99
541.071	36773.67
541.271	37195.55
541.472	37138.21
541.672	36493.1
541.873	36785.96
542.073	36638.5
542.274	37105.44
542.474	36640.55
542.675	36532.01
542.875	37029.66
543.075	36828.96
543.276	35872.56
543.476	37127.97
543.676	36851.49
543.877	37029.66
544.077	36910.88
544.277	37080.86
544.478	36771.62
544.678	36753.19
544.878	36790.05
545.078	36534.06
545.279	36441.9
545.479	36505.38
545.679	36601.64
545.879	36622.12
546.079	36800.29
546.28	36650.79
546.48	36286.25
546.68	36716.33
546.88	36994.85
547.08	36308.78
547.28	36814.63
547.48	36429.61
547.68	36464.42
547.88	36687.65
548.081	36708.13
548.281	36554.54
548.481	36308.78
548.681	36542.25
548.881	36646.69
549.081	36654.89
549.28	36828.96
549.48	36785.96
549.68	36513.58
549.88	36974.37
550.08	36411.18
550.28	36726.56
550.48	36302.64
550.68	36728.61
550.88	36556.58
551.08	36497.19
551.279	36585.26
551.479	36212.52
551.679	36390.7
551.879	36624.17
552.079	36552.49
552.278	36153.13
552.478	36382.51
552.678	36626.21
552.878	36740.9
553.077	36695.85
553.277	36298.54
553.477	36781.86
553.676	36425.51
553.876	36468.52
554.076	36138.8
554.275	36222.76
554.475	36056.88
554.674	36054.83
554.874	36032.3
555.074	36292.4
555.273	36466.47
555.473	36153.13
555.672	36044.59
555.872	36095.79
556.071	36233
556.271	36376.36
556.47	36128.56
556.67	35446.58
556.869	35911.47
557.068	36222.76
557.268	35823.41
557.467	36005.68
557.667	35915.57
557.866	36175.66
558.065	36108.08
558.265	36028.21
558.464	35989.3
558.663	36429.61
558.863	35354.43
559.062	36261.68
559.261	35385.15
559.461	35907.38
559.66	35428.15
559.859	35665.72
560.058	35411.77
560.258	36058.93
560.457	35393.34
560.656	35817.27
560.855	35794.74
561.054	35743.54
561.253	35489.59
561.453	35512.12
561.652	35364.67
561.851	35649.33
562.05	35170.11
562.249	35211.07
562.448	35630.9
562.647	35272.51
562.846	35241.79
563.045	35335.99
563.244	34817.86
563.443	35311.42
563.642	34459.46
563.841	35133.25
564.04	34615.11
564.239	35426.1
564.438	34828.1
564.637	34879.3
564.836	34465.61
565.035	34221.9
565.234	34867.01
565.432	34686.79
565.631	34479.94
565.83	34717.51
566.029	34142.03
566.228	34279.24
566.427	33793.87
566.625	34096.97
566.824	33945.42
567.023	34236.23
567.222	33697.62
567.42	34137.93
567.619	34043.73
567.818	33736.53
568.016	33681.24
568.215	34316.11
568.414	33722.19
568.612	34201.42
568.811	33515.35
569.01	33761.11
569.208	33349.46
569.407	33455.96
569.605	33349.46
569.804	33505.11
570.002	32970.59
570.201	32980.83
570.4	33021.79
570.598	32937.82
570.797	32726.88
570.995	33154.91
571.193	32448.36
571.392	32921.44
571.59	32331.62
571.789	32726.88
571.987	32687.97
572.186	32182.12
572.384	32501.61
572.582	32665.44
572.781	32450.41
572.979	31948.65
573.177	32132.97
573.376	32268.14
573.574	32175.98
573.772	32040.81
573.971	31881.07
574.169	31928.17
574.367	31698.8
574.565	31958.89
574.763	31893.36
574.962	31690.61
575.16	31291.26
575.358	31549.3
575.556	31084.41
575.754	31651.7
575.952	31516.53
576.151	31432.57
576.349	30941.05
576.547	31147.9
576.745	31014.78
576.943	31248.25
577.141	30582.66
577.339	31012.73
577.537	30842.75
577.735	30760.83
577.933	30601.09
578.131	30599.04
578.329	30623.62
578.527	30357.38
578.725	30279.56
578.923	30355.33
579.121	29837.2
579.319	29896.59
579.516	29941.64
579.714	30275.46
579.912	30019.47
580.11	29886.35
580.308	30021.52
580.506	29796.24
580.704	29331.35
580.901	29448.08
581.099	29890.45
581.297	29620.11
581.495	29228.95
581.692	29534.1
581.89	28977.05
582.088	29304.73
582.285	29220.76
582.483	29296.53
582.681	29034.39
582.878	29194.14
583.076	28800.93
583.274	29026.2
583.471	28817.31
583.669	28739.49
583.866	28747.68
584.064	28731.29
584.262	28252.07
584.459	28458.92
584.657	28209.06
584.854	28458.92
585.052	27725.74
585.249	28262.31
585.447	28407.72
585.644	27860.91
585.841	27924.4
586.039	28196.78
586.236	27449.27
586.434	27750.32
586.631	27443.12
586.828	27221.94
587.026	27533.23
587.223	27619.25
587.42	26967.99
587.618	27080.63
587.815	26630.08
588.012	27109.3
588.21	27350.96
588.407	27318.2
588.604	27045.82
588.801	26417.09
588.999	26666.94
589.196	26863.55
589.393	26595.26
589.59	26353.6
589.787	26597.31
589.984	26568.64
590.182	26097.61
590.379	26445.76
590.576	26267.59
590.773	26152.9
590.97	26046.41
591.167	26126.28
591.364	25841.61
591.561	25989.06
591.758	25767.88
591.955	25728.97
592.152	25960.39
592.349	25743.31
592.546	25565.14
592.743	25857.99
592.94	25049.05
593.137	25237.46
593.334	25532.37
593.531	25184.21
593.727	25253.84
593.924	25323.47
594.121	24885.21
594.318	25012.18
594.515	24920.03
594.712	24829.91
594.908	24610.78
595.105	24834.01
595.302	24424.42
595.499	24766.43
595.696	24365.03
595.892	24260.58
596.089	24768.48
596.286	24598.49
596.482	24190.95
596.679	24455.14
596.876	24295.39
597.072	23695.34
597.269	24080.36
597.466	24037.35
597.662	23943.14
597.859	23713.77
598.055	23939.05
598.252	23728.11
598.448	23810.03
598.645	23490.54
598.841	23445.49
599.038	23556.08
599.234	23179.25
599.431	23357.42
599.627	23246.83
599.824	22835.19
600.02	23019.51
600.217	23042.04
600.413	22804.47
600.609	22796.28
600.806	22583.29
601.002	22644.73
601.198	22587.39
601.395	22573.05
601.591	22534.14
601.787	22525.95
601.984	22611.96
602.18	22870.01
602.376	22454.27
602.572	22173.7
602.769	22480.89
602.965	22013.96
603.161	22091.78
603.357	21997.57
603.553	21798.92
603.75	22052.87
603.946	21680.14
604.142	21948.42
604.338	21501.97
604.534	22059.01
604.73	21510.16
604.926	21530.64
605.122	21514.25
605.318	21336.08
605.514	21401.61
605.71	21303.31
605.906	21286.93
606.102	21067.8
606.298	21413.9
606.494	21147.67
606.69	21372.94
606.886	20863
607.082	20822.04
607.278	20838.42
607.474	20768.79
607.67	20830.23
607.866	20617.24
608.062	21020.69
608.257	20779.03
608.453	20647.96
608.649	20774.94
608.845	20557.85
609.041	20477.98
609.236	20729.88
609.432	20422.69
609.628	20555.8
609.824	20432.93
610.019	20377.63
610.215	20312.1
610.411	20451.36
610.606	20269.09
610.802	20357.15
610.998	20123.68
611.193	20056.1
611.389	19914.79
611.584	20043.81
611.78	19851.3
611.976	19933.22
612.171	20013.09
612.367	20148.26
612.562	19826.73
612.758	19531.82
612.953	19615.79
613.149	19984.42
613.344	19513.39
613.539	19857.45
613.735	19529.77
613.93	19961.89
614.126	19335.21
614.321	19535.92
614.517	19607.59
614.712	19773.48
614.907	19232.82
615.103	19666.99
615.298	19107.89
615.493	19447.85
615.688	19222.58
615.884	19906.6
616.079	19169.33
616.274	19363.89
616.47	19372.08
616.665	19263.54
616.86	18985.01
617.055	19247.15
617.25	19263.54
617.445	18815.03
617.641	18968.63
617.836	18905.14
618.031	18595.9
618.226	18858.04
618.421	18444.35
618.616	19087.41
618.811	18440.25
619.006	18550.84
619.201	18337.85
619.396	18630.71
619.591	17907.78
619.786	18616.38
619.981	17813.57
620.176	18384.96
620.371	17825.86
620.566	17954.88
620.761	18006.08
620.956	18174.02
621.151	17907.78
621.346	17768.52
621.541	17305.68
621.735	17899.59
621.93	17440.84
622.125	17375.31
622.32	17129.55
622.515	17172.56
622.709	17367.12
622.904	16928.85
623.099	16685.14
623.294	17027.15
623.488	16885.84
623.683	16785.49
623.878	16670.81
624.072	16576.6
624.267	16609.37
624.462	16431.19
624.656	16382.04
624.851	16568.41
625.046	16298.08
625.24	16169.05
625.435	15767.65
625.629	15949.92
625.824	15876.2
626.018	15532.14
626.213	15366.25
626.407	15669.35
626.602	15372.39
626.796	15386.73
626.991	15315.05
627.185	15478.89
627.38	15085.68
627.574	14919.79
627.768	14997.62
627.963	15091.82
628.157	14991.47
628.352	14831.73
628.546	14667.89
628.74	14776.44
628.935	14514.3
629.129	14407.8
629.323	14225.53
629.517	14266.49
629.712	14311.55
629.906	14110.85
630.1	13893.76
630.294	14078.08
630.489	13947.01
630.683	14170.24
630.877	13752.45
631.071	13860.99
631.265	13793.41
631.459	13637.77
631.653	13467.78
631.848	13443.21
632.042	13459.59
632.236	13463.69
632.43	13146.25
632.624	13174.92
632.818	13316.23
633.012	13002.89
633.206	13084.81
633.4	13031.57
633.594	12753.04
633.788	12824.72
633.982	12920.98
634.176	12609.68
634.369	12808.34
634.563	12472.47
634.757	12374.17
634.951	12484.76
635.145	12423.32
635.339	12501.14
635.533	12255.39
635.726	12308.63
635.92	11933.86
636.114	12105.88
636.308	12163.23
636.501	12054.69
636.695	11870.37
636.889	11956.38
637.083	11757.73
637.276	11907.23
637.47	11706.53
637.664	11516.07
637.857	11589.8
638.051	11554.98
638.244	11479.21
638.438	11327.66
638.632	11356.33
638.825	11036.84
639.019	11210.92
639.212	11106.48
639.406	10934.45
639.599	11020.46
639.793	11145.39
639.986	10803.38
640.18	10942.64
640.373	10924.21
640.567	10610.87
640.76	10715.31
640.954	10531
641.147	10414.26
641.34	10490.04
641.534	10711.22
641.727	10334.39
641.92	10318.01
642.114	10254.52
642.307	10256.57
642.5	10322.1
642.694	9937.09
642.887	9803.97
643.08	10166.46
643.273	10057.92
643.467	10012.86
643.66	9789.63
643.853	9724.1
644.046	9613.51
644.239	9717.95
644.432	9664.71
644.626	9654.47
644.819	9558.21
645.012	9490.63
645.205	9380.04
645.398	9353.41
645.591	9433.29
645.784	9332.93
645.977	9111.75
646.17	9228.49
646.363	9242.82
646.556	9121.99
646.749	8923.34
646.942	9117.9
647.135	8831.18
647.328	8796.37
647.521	8775.89
647.714	8728.78
647.907	8822.99
648.099	8868.05
648.292	8642.77
648.485	8644.82
648.678	8573.14
648.871	8444.12
649.064	8392.92
649.256	8642.77
649.449	8413.4
649.642	8311
649.835	8319.19
650.027	8255.7
650.22	8212.7
650.413	8057.05
650.605	8188.12
650.798	8046.81
650.991	7995.61
651.183	8018.14
651.376	7805.15
651.568	8005.85
651.761	7893.21
651.954	7799.01
652.146	7745.76
652.339	7833.82
652.531	7674.08
652.724	7731.42
652.916	7514.34
653.109	7540.96
653.301	7721.18
653.494	7614.69
653.686	7289.06
653.879	7534.82
654.071	7450.85
654.263	7368.93
654.456	7479.52
654.648	7196.9
654.84	7164.14
655.033	7244.01
655.225	7184.62
655.417	7090.41
655.61	7098.6
655.802	7082.22
655.994	7121.13
656.186	6926.57
656.379	7002.35
656.571	6945
656.763	6815.98
656.955	6768.88
657.148	6926.57
657.34	6824.17
657.532	6785.26
657.724	6576.37
657.916	6676.72
658.108	6570.23
658.3	6660.34
658.492	6652.14
658.684	6426.87
658.876	6543.6
659.068	6404.34
659.26	6385.91
659.452	6404.34
659.644	6271.22
659.836	6306.04
660.028	6258.93
660.22	6254.84
660.412	6197.49
660.604	6217.97
660.796	6185.21
660.988	6134.01
661.18	6119.67
661.372	6017.27
661.563	5894.4
661.755	5972.22
661.947	5927.16
662.139	5857.53
662.331	6019.32
662.522	5611.78
662.714	5808.38
662.906	5849.34
663.097	5781.76
663.289	5722.37
663.481	5804.28
663.673	5822.72
663.864	5658.88
664.056	5468.42
664.247	5652.74
664.439	5624.06
664.631	5626.11
664.822	5505.28
665.014	5415.17
665.205	5681.41
665.397	5198.09
665.588	5484.8
665.78	5427.46
665.971	5429.51
666.163	5478.66
666.354	5200.13
666.546	5290.24
666.737	5144.84
666.929	5280
667.12	5150.98
667.311	5134.6
667.503	5296.39
667.694	5243.14
667.885	5067.02
668.077	4983.05
668.268	4968.71
668.459	4903.18
668.651	5069.06
668.842	4993.29
669.033	4827.4
669.224	5005.58
669.416	4911.37
669.607	4804.88
669.798	4716.81
669.989	4815.12
670.18	4800.78
670.371	4940.04
670.563	4686.09
670.754	4725.01
670.945	4682
671.136	4587.79
671.327	4634.89
671.518	4669.71
671.709	4604.18
671.9	4512.02
672.091	4530.45
672.282	4632.85
672.473	4612.37
672.664	4593.94
672.855	4548.88
673.046	4497.68
673.237	4419.86
673.428	4419.86
673.619	4477.2
673.809	4503.82
674	4305.17
674.191	4436.24
674.382	4280.6
674.573	4327.7
674.764	4434.19
674.954	4266.26
675.145	4346.13
675.336	4235.54
675.527	4299.03
675.717	4133.14
675.908	4223.25
676.099	4321.56
676.289	4239.64
676.48	4092.18
676.671	4088.09
676.861	4288.79
677.052	4118.81
677.243	4305.17
677.433	3971.35
677.624	4075.8
677.814	4006.17
678.005	4086.04
678.195	4092.18
678.386	4051.22
678.576	3989.78
678.767	3959.06
678.957	3961.11
679.148	4026.65
679.338	4112.66
679.529	3973.4
679.719	4002.07
679.909	3936.54
680.1	3897.63
680.29	3903.77
680.481	3871
680.671	3805.47
680.861	3797.28
681.052	3911.96
681.242	3848.47
681.432	3899.67
681.622	3887.39
681.813	3668.25
682.003	3733.79
682.193	3750.17
682.383	3787.04
682.573	3789.08
682.764	3791.13
682.954	3807.52
683.144	3764.51
683.334	3619.1
683.524	3776.8
683.714	3680.54
683.904	3664.16
684.094	3717.4
684.284	3500.32
684.474	3744.03
684.664	3621.15
684.854	3635.49
685.044	3576.09
685.234	3559.71
685.424	3569.95
685.614	3506.46
685.804	3574.05
685.994	3535.14
686.184	3516.7
686.374	3494.18
686.564	3522.85
686.753	3602.72
686.943	3414.31
687.133	3551.52
687.323	3469.6
687.513	3453.22
687.702	3445.02
687.892	3424.55
688.082	3422.5
688.272	3471.65
688.461	3322.15
688.651	3313.95
688.841	3260.71
689.03	3451.17
689.22	3336.48
689.41	3273
689.599	3322.15
689.789	3215.65
689.979	3336.48
690.168	3264.8
690.358	3209.51
690.547	3201.32
690.737	3119.4
690.926	3164.45
691.116	3203.36
691.305	3129.64
691.495	3070.25
691.684	3019.05
691.874	3137.83
692.063	3129.64
692.252	3162.41
692.442	3117.35
692.631	3092.77
692.82	3068.2
693.01	3039.53
693.199	3021.1
693.388	3117.35
693.578	3002.66
693.767	2947.37
693.956	3105.06
694.146	3049.77
694.335	3045.67
694.524	3010.86
694.713	3035.43
694.902	2928.94
695.092	3000.62
695.281	2937.13
695.47	2908.46
695.659	2842.92
695.848	2930.98
696.037	2930.98
696.226	2797.87
696.415	2890.03
696.604	2875.69
696.793	2736.43
696.982	2865.45
697.171	2855.21
697.36	2873.64
697.549	2871.59
697.738	2761
697.927	2808.11
698.116	2824.49
698.305	2797.87
698.494	2781.48
698.683	2785.58
698.872	2720.04
699.061	2699.56
699.25	2697.52
699.438	2812.2
699.627	2877.74
699.816	2765.1
700.005	2652.46
700.193	2732.33
700.382	2752.81
700.571	2699.56
700.76	2634.03
700.948	2666.8
701.137	2756.91
701.326	2644.27
701.514	2629.93
701.703	2687.28
701.892	2728.24
702.08	2681.13
702.269	2674.99
702.457	2558.25
702.646	2640.17
702.834	2607.41
703.023	2584.88
703.212	2701.61
703.4	2640.17
703.589	2597.17
703.777	2500.91
703.965	2593.07
704.154	2552.11
704.342	2527.53
704.531	2623.79
704.719	2588.97
704.907	2507.06
705.096	2552.11
705.284	2406.7
705.472	2564.4
705.661	2527.53
705.849	2539.82
706.037	2679.08
706.226	2527.53
706.414	2496.82
706.602	2396.46
706.79	2470.19
706.979	2355.51
707.167	2568.49
707.355	2421.04
707.543	2470.19
707.731	2400.56
707.919	2511.15
708.107	2425.14
708.296	2462
708.484	2429.23
708.672	2480.43
708.86	2412.85
709.048	2462
709.236	2396.46
709.424	2267.44
709.612	2390.32
709.8	2351.41
709.988	2316.59
710.176	2367.79
710.364	2345.27
710.551	2318.64
710.739	2386.22
710.927	2394.42
711.115	2275.63
711.303	2429.23
711.491	2265.39
711.679	2316.59
711.866	2357.55
712.054	2251.06
712.242	2316.59
712.43	2285.87
712.617	2396.46
712.805	2339.12
712.993	2345.27
713.181	2136.37
713.368	2199.86
713.556	2253.11
713.744	2337.07
713.931	2330.93
714.119	2269.49
714.306	2369.84
714.494	2191.67
714.682	2144.56
714.869	2109.75
715.057	2142.52
715.244	2230.58
715.432	2175.28
715.619	2134.32
715.807	2019.64
715.994	2216.24
716.182	2158.9
716.369	2249.01
716.556	2167.09
716.744	2111.8
716.931	2113.85
717.119	2142.52
717.306	2185.52
717.493	2093.37
717.681	2132.28
717.868	2138.42
718.055	2163
718.242	2003.25
718.43	2101.56
718.617	2011.45
718.804	2060.6
718.991	2122.04
719.179	1923.38
719.366	2052.41
719.553	2185.52
719.74	2146.61
719.927	2122.04
720.114	1972.54
720.301	2070.84
720.488	1958.2
720.676	2029.88
720.863	1962.3
721.05	2056.5
721.237	1980.73
721.424	2003.25
721.611	2001.21
721.798	1884.47
721.985	2079.03
722.172	1943.86
722.358	1872.18
722.545	1974.58
722.732	1909.05
722.919	1876.28
723.106	1972.54
723.293	1966.39
723.48	1880.38
723.667	1980.73
723.853	1884.47
724.04	1954.1
724.227	1837.37
724.414	2007.35
724.6	1925.43
724.787	1941.82
724.974	1888.57
725.161	1843.51
725.347	1796.41
725.534	1886.52
725.72	1929.53
725.907	1898.81
726.094	1868.09
726.28	1855.8
726.467	1931.58
726.653	1786.17
726.84	1827.13
727.027	1890.62
727.213	1788.22
727.4	1796.41
727.586	1814.84
727.773	1841.47
727.959	1825.08
728.145	1788.22
728.332	1677.63
728.518	1702.2
728.705	1767.74
728.891	1786.17
729.077	1696.06
729.264	1839.42
729.45	1782.07
729.636	1800.51
729.823	1773.88
730.009	1851.71
730.195	1741.11
730.382	1790.27
730.568	1687.87
730.754	1687.87
730.94	1677.63
731.126	1677.63
731.313	1700.16
731.499	1679.68
731.685	1720.64
731.871	1775.93
732.057	1714.49
732.243	1659.2
732.429	1696.06
732.615	1622.33
732.801	1775.93
732.987	1698.11
733.173	1651
733.359	1726.78
733.545	1648.96
733.731	1657.15
733.917	1626.43
734.103	1761.59
734.289	1677.63
734.475	1540.41
734.661	1732.92
734.847	1612.09
735.033	1622.33
735.219	1536.32
735.404	1659.2
735.59	1659.2
735.776	1618.24
735.962	1671.48
736.148	1655.1
736.333	1616.19
736.519	1569.09
736.705	1610.04
736.89	1614.14
737.076	1454.4
737.262	1601.85
737.447	1546.56
737.633	1562.94
737.819	1599.8
738.004	1366.34
738.19	1526.08
738.375	1444.16
738.561	1554.75
738.747	1458.5
738.932	1388.86
739.118	1534.27
739.303	1435.97
739.489	1538.37
739.674	1440.06
739.859	1487.17
740.045	1464.64
740.23	1456.45
740.416	1468.73
740.601	1405.25
740.786	1478.97
740.972	1456.45
741.157	1528.13
741.342	1464.64
741.528	1415.49
741.713	1450.3
741.898	1364.29
742.084	1372.48
742.269	1511.74
742.454	1352
742.639	1489.21
742.824	1415.49
743.01	1327.43
743.195	1405.25
743.38	1423.68
743.565	1356.1
743.75	1405.25
743.935	1284.42
744.12	1440.06
744.305	1339.71
744.49	1405.25
744.675	1274.18
744.86	1265.99
745.045	1331.52
745.23	1249.6
745.415	1259.84
745.6	1347.9
745.785	1290.56
745.97	1186.12
746.155	1308.99
746.34	1308.99
746.525	1341.76
746.71	1339.71
746.895	1204.55
747.079	1200.45
747.264	1216.83
747.449	1255.75
747.634	1329.47
747.819	1290.56
748.003	1192.26
748.188	1212.74
748.373	1251.65
748.557	1171.78
748.742	1159.49
748.927	1163.59
749.111	1118.53
749.296	1182.02
749.481	1143.11
749.665	1096
749.85	1081.67
750.034	1141.06
750.219	1108.29
750.404	1089.86
750.588	1081.67
750.773	1075.52
750.957	1083.72
751.141	1026.37
751.326	1012.04
751.51	1020.23
751.695	1046.85
751.879	995.65
752.064	999.75
752.248	1040.71
752.432	1069.38
752.617	1028.42
752.801	1040.71
752.985	936.26
753.17	1005.89
753.354	999.75
753.538	1012.04
753.722	971.08
753.907	971.08
754.091	905.54
754.275	1003.85
754.459	905.54
754.643	872.78
754.828	944.45
755.012	913.74
755.196	864.58
755.38	897.35
755.564	852.3
755.748	872.78
755.932	897.35
756.116	883.02
756.3	940.36
756.484	880.97
756.668	905.54
756.852	735.56
757.036	858.44
757.22	840.01
757.404	801.1
757.588	899.4
757.772	852.3
757.956	827.72
758.14	948.55
758.323	840.01
758.507	842.06
758.691	778.57
758.875	815.43
759.059	825.67
759.242	803.15
759.426	801.1
759.61	827.72
759.794	731.47
759.977	778.57
760.161	782.67
760.345	753.99
760.528	792.91
760.712	792.91
760.895	686.41
761.079	794.95
761.263	776.52
761.446	731.47
761.63	741.71
761.813	678.22
761.997	745.8
762.18	727.37
762.364	776.52
762.547	686.41
762.731	733.51
762.914	751.95
763.098	713.03
763.281	729.42
763.464	670.03
763.648	713.03
763.831	622.92
764.015	713.03
764.198	737.61
764.381	710.99
764.564	758.09
764.748	647.5
764.931	764.23
765.114	670.03
765.297	721.23
765.481	586.06
765.664	680.27
765.847	710.99
766.03	725.32
766.213	618.83
766.397	692.55
766.58	680.27
766.763	717.13
766.946	651.6
767.129	702.79
767.312	682.31
767.495	590.16
767.678	622.92
767.861	665.93
768.044	629.07
768.227	688.46
768.41	620.88
768.593	643.4
768.776	594.25
768.959	618.83
769.142	708.94
769.324	577.87
769.507	702.79
769.69	579.92
769.873	598.35
770.056	612.68
770.239	616.78
770.421	700.75
770.604	610.64
770.787	639.31
770.97	631.12
771.152	606.54
771.335	588.11
771.518	524.62
771.7	553.29
771.883	598.35
772.066	555.34
772.248	637.26
772.431	573.77
772.613	618.83
772.796	471.37
772.978	577.87
773.161	547.15
773.343	532.81
773.526	518.48
773.708	403.79
773.891	487.76
774.073	541.01
774.256	553.29
774.438	547.15
774.621	557.39
774.803	590.16
774.985	516.43
775.168	446.8
775.35	485.71
775.532	545.1
775.715	446.8
775.897	457.04
776.079	500.05
776.261	563.53
776.444	489.81
776.626	504.14
776.808	475.47
776.99	442.7
777.173	381.26
777.355	510.29
777.537	409.94
777.719	510.29
777.901	547.15
778.083	414.03
778.265	454.99
778.447	444.75
778.629	411.98
778.811	371.02
778.993	446.8
779.175	422.22
779.357	424.27
779.539	418.13
779.721	479.57
779.903	475.47
780.085	440.65
780.267	446.8
780.449	487.76
780.631	471.37
780.812	483.66
780.994	414.03
781.176	325.97
781.358	426.32
781.54	381.26
781.721	463.18
781.903	395.6
782.085	336.21
782.267	438.61
782.448	358.74
782.63	430.41
782.812	332.11
782.993	459.09
783.175	418.13
783.357	354.64
783.538	348.5
783.72	332.11
783.901	401.74
784.083	426.32
784.264	368.98
784.446	362.83
784.627	227.67
784.809	379.22
784.99	340.3
785.172	381.26
785.353	323.92
785.535	366.93
785.716	405.84
785.897	276.82
786.079	325.97
786.26	305.49
786.441	287.06
786.623	211.28
786.804	289.1
786.985	309.58
787.167	356.69
787.348	323.92
787.529	342.35
787.71	307.54
787.891	293.2
788.073	321.87
788.254	194.9
788.435	332.11
788.616	342.35
788.797	229.71
788.978	244.05
789.159	252.24
789.34	317.78
789.522	258.39
789.703	274.77
789.884	287.06
790.065	299.34
790.246	293.2
790.427	266.58
790.607	332.11
790.788	350.54
790.969	237.91
791.15	301.39
791.331	233.81
791.512	235.86
791.693	301.39
791.874	237.91
792.054	272.72
792.235	366.93
792.416	266.58
792.597	258.39
792.778	250.19
792.958	287.06
793.139	258.39
793.32	315.73
793.5	229.71
793.681	227.67
793.862	270.67
794.042	252.24
794.223	201.04
794.404	217.43
794.584	244.05
794.765	184.66
794.945	145.75
795.126	258.39
795.306	168.27
795.487	246.1
795.667	246.1
795.848	291.15
796.028	217.43
796.209	225.62
796.389	198.99
796.57	215.38
796.75	233.81
796.93	282.96
797.111	194.9
797.291	237.91
797.471	233.81
797.652	184.66
797.832	209.23
798.012	211.28
798.192	164.18
798.373	229.71
798.553	231.76
798.733	145.75
798.913	92.5
799.093	155.99
799.274	188.75
799.454	250.19
799.634	215.38
799.814	168.27
799.994	168.27
800.174	256.34
800.354	221.52
800.534	180.56
800.714	205.14
800.894	297.3
801.074	166.23
801.254	160.08
801.434	186.71
801.614	162.13
801.794	168.27
801.974	762.19
802.154	242
802.334	106.84
802.514	119.12
802.693	256.34
802.873	160.08
803.053	129.36
803.233	184.66
803.413	176.47
803.592	192.85
803.772	84.31
803.952	141.65
804.131	188.75
804.311	143.7
804.491	215.38
804.67	131.41
804.85	104.79
805.03	186.71
805.209	174.42
805.389	121.17
805.568	231.76
805.748	178.51
805.928	217.43
806.107	121.17
806.287	194.9
806.466	170.32
806.646	164.18
806.825	162.13
807.004	92.5
807.184	110.93
807.363	145.75
807.543	119.12
807.722	121.17
807.901	162.13
808.081	172.37
808.26	72.02
808.439	127.32
808.619	104.79
808.798	153.94
808.977	125.27
809.156	186.71
809.336	115.03
809.515	106.84
809.694	90.45
809.873	217.43
810.052	106.84
810.231	166.23
810.411	121.17
810.59	143.7
810.769	164.18
810.948	123.22
811.127	172.37
811.306	125.27
811.485	139.6
811.664	201.04
811.843	176.47
812.022	104.79
812.201	96.6
812.38	137.56
812.559	112.98
812.737	160.08
812.916	129.36
813.095	61.78
813.274	57.68
813.453	180.56
813.632	123.22
813.811	137.56
813.989	119.12
814.168	88.4
814.347	49.49
814.526	16.73
814.704	49.49
814.883	96.6
815.062	72.02
815.24	129.36
815.419	168.27
815.598	76.12
815.776	61.78
815.955	69.97
816.133	92.5
816.312	127.32
816.49	102.74
816.669	129.36
816.847	86.36
817.026	137.56
817.204	158.03
817.383	94.55
817.561	88.4
817.74	137.56
817.918	121.17
818.097	96.6
818.275	110.93
818.453	53.59
818.632	110.93
818.81	94.55
818.988	135.51
819.167	76.12
819.345	59.73
819.523	72.02
819.701	-11.95
819.879	110.93
820.058	137.56
820.236	155.99
820.414	65.88
820.592	92.5
820.77	178.51
820.948	110.93
821.127	53.59
821.305	153.94
821.483	110.93
821.661	65.88
821.839	98.64
822.017	24.92
822.195	78.16
822.373	139.6
822.551	45.4
822.729	139.6
822.907	69.97
823.085	86.36
823.262	61.78
823.44	74.07
823.618	69.97
823.796	49.49
823.974	61.78
824.152	143.7
824.329	117.08
824.507	119.12
824.685	57.68
824.863	80.21
825.04	104.79
825.218	74.07
825.396	135.51
825.574	49.49
825.751	119.12
825.929	172.37
826.107	24.92
826.284	82.26
826.462	143.7
826.639	78.16
826.817	82.26
826.994	127.32
827.172	41.3
827.349	106.84
827.527	69.97
827.704	82.26
827.882	127.32
828.059	39.25
828.237	94.55
828.414	59.73
828.591	53.59
828.769	143.7
828.946	78.16
829.124	102.74
829.301	37.2
829.478	45.4
829.655	63.83
829.833	106.84
830.01	90.45
830.187	94.55
830.364	98.64
830.542	65.88
830.719	78.16
830.896	119.12
831.073	63.83
831.25	129.36
831.427	102.74
831.604	47.44
831.782	94.55
831.959	88.4
832.136	22.87
832.313	61.78
832.49	51.54
832.667	41.3
832.844	57.68
833.021	78.16
833.198	24.92
833.374	78.16
833.551	123.22
833.728	115.03
833.905	78.16
834.082	20.82
834.259	-44.71
834.436	53.59
834.612	31.06
834.789	82.26
834.966	-16.04
835.143	90.45
835.319	69.97
835.496	110.93
835.673	96.6
835.85	92.5
836.026	12.63
836.203	102.74
836.38	31.06
836.556	78.16
836.733	24.92
836.909	86.36
837.086	43.35
837.262	-34.47
837.439	121.17
837.616	43.35
837.792	90.45
837.968	86.36
838.145	16.73
838.321	65.88
838.498	112.98
838.674	63.83
838.851	82.26
839.027	53.59
839.203	74.07
839.38	61.78
839.556	33.11
839.732	145.75
839.909	49.49
840.085	55.64
840.261	49.49
840.437	55.64
840.614	31.06
840.79	78.16
840.966	67.92
841.142	33.11
841.318	65.88
841.494	20.82
841.671	115.03
841.847	69.97
842.023	57.68
842.199	82.26
842.375	63.83
842.551	12.63
842.727	24.92
842.903	72.02
843.079	61.78
843.255	59.73
843.431	-20.14
843.607	102.74
843.783	119.12
843.959	47.44
844.134	102.74
844.31	119.12
844.486	53.59
844.662	16.73
844.838	24.92
845.013	45.4
845.189	69.97
845.365	78.16
845.541	80.21
845.716	72.02
845.892	45.4
846.068	47.44
846.244	51.54
846.419	86.36
846.595	49.49
846.77	8.53
846.946	41.3
847.122	45.4
847.297	29.01
847.473	94.55
847.648	-20.14
847.824	4.44
847.999	98.64
848.175	90.45
848.35	67.92
848.526	94.55
848.701	88.4
848.876	65.88
849.052	29.01
849.227	53.59
849.403	-32.43
849.578	-40.62
849.753	-7.85
849.929	20.82
850.104	4.44
850.279	16.73
850.454	22.87
850.63	33.11
850.805	33.11
850.98	6.49
851.155	117.08
851.33	74.07
851.505	94.55
851.681	98.64
851.856	20.82
852.031	143.7
852.206	20.82
852.381	65.88
852.556	-26.28
852.731	72.02
852.906	29.01
853.081	55.64
853.256	31.06
853.431	29.01
853.606	26.96
853.781	47.44
853.956	8.53
854.131	55.64
854.305	2.39
854.48	-26.28
854.655	53.59
854.83	51.54
855.005	53.59
855.18	39.25
855.354	-20.14
855.529	-22.19
855.704	37.2
855.879	45.4
856.053	-7.85
856.228	65.88
856.403	37.2
856.577	98.64
856.752	-44.71
856.926	37.2
857.101	8.53
857.276	6.49
857.45	16.73
857.625	78.16
857.799	-9.9
857.974	78.16
858.148	35.16
858.323	69.97
858.497	-13.99
858.672	119.12
858.846	-26.28
859.02	72.02
859.195	37.2
859.369	35.16
859.543	45.4
859.718	-7.85
859.892	112.98
860.066	24.92
860.241	31.06
860.415	20.82
860.589	16.73
860.763	53.59
860.938	29.01
861.112	131.41
861.286	59.73
861.46	37.2
861.634	31.06
861.808	53.59
861.982	39.25
862.157	59.73
862.331	22.87
862.505	72.02
862.679	14.68
862.853	47.44
863.027	31.06
863.201	151.89
863.375	12.63
863.549	26.96
863.722	69.97
863.896	117.08
864.07	35.16
864.244	-42.67
864.418	-20.14
864.592	63.83
864.766	61.78
864.939	-26.28
865.113	33.11
865.287	41.3
865.461	-40.62
865.634	0.34
865.808	-36.52
865.982	-3.75
866.156	29.01
866.329	-7.85
866.503	41.3
866.676	-28.33
866.85	-18.09
867.024	39.25
867.197	78.16
867.371	12.63
867.544	0.34
867.718	57.68
867.891	31.06
868.065	59.73
868.238	51.54
868.412	39.25
868.585	-61.1
868.759	8.53
868.932	78.16
869.105	14.68
869.279	35.16
869.452	18.77
869.625	59.73
869.799	29.01
869.972	78.16
870.145	-13.99
870.319	-34.47
870.492	-3.75
870.665	14.68
870.838	31.06
871.011	-42.67
871.185	29.01
871.358	31.06
871.531	51.54
871.704	14.68
871.877	45.4
872.05	-50.86
872.223	22.87
872.396	121.17
872.569	-9.9
872.742	-91.82
872.915	74.07
873.088	0.34
873.261	29.01
873.434	41.3
873.607	-9.9
873.78	106.84
873.953	-3.75
874.126	-48.81
874.299	20.82
874.471	10.58
874.644	45.4
874.817	12.63
874.99	35.16
875.163	-1.71
875.335	0.34
875.508	33.11
875.681	14.68
875.853	20.82
876.026	22.87
876.199	94.55
876.371	12.63
876.544	20.82
876.717	10.58
876.889	14.68
877.062	33.11
877.234	35.16
877.407	55.64
877.579	-5.8
877.752	-18.09
877.924	26.96
878.097	65.88
878.269	63.83
878.442	33.11
878.614	55.64
878.786	69.97
878.959	31.06
879.131	-7.85
879.303	69.97
879.476	-20.14
879.648	29.01
879.82	53.59
879.993	4.44
880.165	22.87
880.337	-18.09
880.509	14.68
880.681	-18.09
880.854	12.63
881.026	8.53
881.198	29.01
881.37	55.64
881.542	22.87
881.714	0.34
881.886	-40.62
882.058	29.01
882.23	33.11
882.402	-46.76
882.574	20.82
882.746	26.96
882.918	14.68
883.09	61.78
883.262	22.87
883.434	-26.28
883.606	-28.33
883.778	12.63
883.95	78.16
884.122	-30.38
884.293	-42.67
884.465	-18.09
884.637	86.36
884.809	-7.85
884.98	-32.43
885.152	-3.75
885.324	80.21
885.496	41.3
885.667	4.44
885.839	-11.95
886.011	65.88
886.182	61.78
886.354	47.44
886.525	26.96
886.697	61.78
886.869	24.92
887.04	20.82
887.212	20.82
887.383	-11.95
887.555	-32.43
887.726	-28.33
887.897	-16.04
888.069	6.49
888.24	0.34
888.412	29.01
888.583	-16.04
888.754	-9.9
888.926	6.49
889.097	65.88
889.268	24.92
889.44	57.68
889.611	-16.04
889.782	63.83
889.953	-44.71
890.125	29.01
890.296	-7.85
890.467	29.01
890.638	47.44
890.809	-1.71
890.98	24.92
891.151	-5.8
891.323	20.82
891.494	55.64
891.665	-20.14
891.836	-44.71
892.007	-34.47
892.178	-1.71
892.349	-85.67
892.52	37.2
892.691	86.36
892.862	37.2
893.032	-7.85
893.203	49.49
893.374	12.63
893.545	82.26
893.716	37.2
893.887	90.45
894.057	10.58
894.228	26.96
894.399	-3.75
894.57	29.01
894.74	12.63
894.911	6.49
895.082	2.39
895.253	16.73
895.423	-3.75
895.594	61.78
895.764	20.82
895.935	8.53
896.106	47.44
896.276	-28.33
896.447	33.11
896.617	4.44
896.788	12.63
896.958	-40.62
897.129	-40.62
897.299	-11.95
897.47	16.73
897.64	18.77
897.81	76.12
897.981	49.49
898.151	49.49
898.322	12.63
898.492	-28.33
898.662	31.06
898.832	61.78
899.003	49.49
899.173	47.44
899.343	-18.09
899.513	-48.81
