Data from USB4F104151__125__14-18-55-440.txt Node

Date: Thu Mar 13 14:18:55 EDT 2025
User: louis
Spectrometer: USB4F10415
Trigger mode: 4
Integration Time (sec): 2.000000E-2
Scans to average: 1
Electric dark correction enabled: true
Nonlinearity correction enabled: false
Boxcar width: 0
XAxis mode: Wavelengths
Number of Pixels in Spectrum: 3648
>>>>>Begin Spectral Data<<<<<
178.204	-160.77
178.424	-160.77
178.644	-160.77
178.864	-33.79
179.084	-74.75
179.304	-48.13
179.524	50.18
179.744	-33.79
179.964	-5.12
180.184	17.41
180.404	-7.17
180.624	11.26
180.844	-15.36
181.064	-27.65
181.283	9.22
181.503	-25.6
181.723	74.75
181.943	-97.28
182.163	33.79
182.383	-1.02
182.602	1.02
182.822	84.99
183.042	1.02
183.262	-29.7
183.482	27.65
183.701	-15.36
183.921	-58.37
184.141	15.36
184.361	1.02
184.58	-15.36
184.8	-41.98
185.02	29.7
185.239	48.13
185.459	-58.37
185.679	56.32
185.898	48.13
186.118	76.8
186.338	115.71
186.557	25.6
186.777	31.74
186.997	-1.02
187.216	-7.17
187.436	64.51
187.655	17.41
187.875	19.46
188.095	-13.31
188.314	31.74
188.534	64.51
188.753	11.26
188.973	109.57
189.192	5.12
189.412	39.94
189.631	-7.17
189.851	7.17
190.07	-9.22
190.29	19.46
190.509	1.02
190.729	33.79
190.948	87.04
191.168	130.05
191.387	97.28
191.607	-9.22
191.826	-9.22
192.045	-15.36
192.265	-11.26
192.484	7.17
192.704	39.94
192.923	-1.02
193.142	76.8
193.362	25.6
193.581	101.37
193.8	66.56
194.02	56.32
194.239	-17.41
194.458	52.22
194.678	-46.08
194.897	-3.07
195.116	70.65
195.335	25.6
195.555	56.32
195.774	31.74
195.993	15.36
196.212	7.17
196.432	-58.37
196.651	-41.98
196.87	89.09
197.089	97.28
197.308	-50.18
197.528	27.65
197.747	33.79
197.966	-33.79
198.185	54.27
198.404	15.36
198.623	31.74
198.842	72.7
199.062	15.36
199.281	111.61
199.5	15.36
199.719	31.74
199.938	-3.07
200.157	13.31
200.376	-13.31
200.595	-25.6
200.814	56.32
201.033	41.98
201.252	105.47
201.471	105.47
201.69	25.6
201.909	-17.41
202.128	23.55
202.347	162.81
202.566	58.37
202.785	-1.02
203.004	-41.98
203.223	35.84
203.442	-25.6
203.661	7.17
203.879	29.7
204.098	-9.22
204.317	-33.79
204.536	9.22
204.755	-17.41
204.974	17.41
205.193	-17.41
205.411	150.53
205.63	66.56
205.849	-5.12
206.068	39.94
206.287	15.36
206.505	41.98
206.724	23.55
206.943	-23.55
207.162	-3.07
207.381	-58.37
207.599	-7.17
207.818	17.41
208.037	27.65
208.255	39.94
208.474	11.26
208.693	142.33
208.911	97.28
209.13	-7.17
209.349	27.65
209.567	70.65
209.786	-5.12
210.005	33.79
210.223	-7.17
210.442	89.09
210.661	50.18
210.879	82.94
211.098	-41.98
211.316	-13.31
211.535	54.27
211.753	56.32
211.972	7.17
212.191	29.7
212.409	19.46
212.628	74.75
212.846	15.36
213.065	-7.17
213.283	64.51
213.502	-41.98
213.72	19.46
213.938	15.36
214.157	66.56
214.375	11.26
214.594	7.17
214.812	7.17
215.031	64.51
215.249	44.03
215.467	25.6
215.686	23.55
215.904	7.17
216.122	9.22
216.341	15.36
216.559	27.65
216.778	15.36
216.996	-11.26
217.214	-58.37
217.432	-46.08
217.651	-9.22
217.869	-7.17
218.087	-25.6
218.306	52.22
218.524	37.89
218.742	64.51
218.96	-31.74
219.179	-41.98
219.397	87.04
219.615	13.31
219.833	33.79
220.051	9.22
220.27	25.6
220.488	48.13
220.706	-97.28
220.924	-31.74
221.142	23.55
221.36	-23.55
221.578	-17.41
221.796	9.22
222.015	72.7
222.233	31.74
222.451	-13.31
222.669	15.36
222.887	27.65
223.105	1.02
223.323	-23.55
223.541	-37.89
223.759	-1.02
223.977	-17.41
224.195	33.79
224.413	15.36
224.631	80.89
224.849	-37.89
225.067	56.32
225.285	-41.98
225.503	-41.98
225.721	-29.7
225.939	-50.18
226.157	-1.02
226.375	84.99
226.592	19.46
226.81	-21.5
227.028	39.94
227.246	130.05
227.464	41.98
227.682	25.6
227.9	-1.02
228.117	46.08
228.335	60.42
228.553	17.41
228.771	39.94
228.989	-9.22
229.206	-27.65
229.424	5.12
229.642	7.17
229.86	-15.36
230.077	41.98
230.295	35.84
230.513	80.89
230.731	-19.46
230.948	44.03
231.166	84.99
231.384	1.02
231.601	-58.37
231.819	13.31
232.037	19.46
232.254	27.65
232.472	64.51
232.689	25.6
232.907	50.18
233.125	35.84
233.342	5.12
233.56	-3.07
233.777	-7.17
233.995	-33.79
234.213	27.65
234.43	-17.41
234.648	62.46
234.865	11.26
235.083	25.6
235.3	7.17
235.518	87.04
235.735	64.51
235.953	25.6
236.17	-5.12
236.388	25.6
236.605	80.89
236.822	58.37
237.04	-33.79
237.257	52.22
237.475	-66.56
237.692	9.22
237.909	78.85
238.127	115.71
238.344	9.22
238.562	107.52
238.779	11.26
238.996	48.13
239.214	52.22
239.431	-1.02
239.648	1.02
239.865	35.84
240.083	39.94
240.3	48.13
240.517	-23.55
240.735	-15.36
240.952	48.13
241.169	-13.31
241.386	3.07
241.603	-9.22
241.821	25.6
242.038	31.74
242.255	-9.22
242.472	-19.46
242.689	7.17
242.907	17.41
243.124	-41.98
243.341	9.22
243.558	44.03
243.775	-33.79
243.992	7.17
244.209	56.32
244.426	1.02
244.643	99.33
244.86	27.65
245.078	76.8
245.295	-3.07
245.512	58.37
245.729	-15.36
245.946	-3.07
246.163	31.74
246.38	1.02
246.597	-29.7
246.814	23.55
247.031	-44.03
247.248	138.24
247.464	-17.41
247.681	25.6
247.898	-25.6
248.115	23.55
248.332	-56.32
248.549	25.6
248.766	23.55
248.983	72.7
249.2	23.55
249.417	-9.22
249.633	-37.89
249.85	56.32
250.067	-17.41
250.284	-7.17
250.501	23.55
250.717	68.61
250.934	11.26
251.151	15.36
251.368	-7.17
251.585	64.51
251.801	-17.41
252.018	-37.89
252.235	9.22
252.451	21.5
252.668	-19.46
252.885	39.94
253.102	7.17
253.318	29.7
253.535	27.65
253.752	21.5
253.968	-13.31
254.185	-91.13
254.401	7.17
254.618	113.66
254.835	7.17
255.051	31.74
255.268	-15.36
255.484	60.42
255.701	33.79
255.917	78.85
256.134	74.75
256.351	56.32
256.567	7.17
256.784	7.17
257	-37.89
257.217	72.7
257.433	31.74
257.65	80.89
257.866	46.08
258.082	1.02
258.299	-64.51
258.515	72.7
258.732	-21.5
258.948	-1.02
259.165	1.02
259.381	7.17
259.597	-1.02
259.814	7.17
260.03	-48.13
260.246	27.65
260.463	15.36
260.679	105.47
260.895	-31.74
261.112	46.08
261.328	74.75
261.544	48.13
261.761	3.07
261.977	-37.89
262.193	-15.36
262.409	-1.02
262.626	76.8
262.842	39.94
263.058	50.18
263.274	-25.6
263.49	27.65
263.707	72.7
263.923	46.08
264.139	-97.28
264.355	39.94
264.571	56.32
264.787	-11.26
265.004	-21.5
265.22	17.41
265.436	3.07
265.652	15.36
265.868	35.84
266.084	27.65
266.3	64.51
266.516	-39.94
266.732	7.17
266.948	-9.22
267.164	-23.55
267.38	-48.13
267.596	11.26
267.812	66.56
268.028	54.27
268.244	31.74
268.46	15.36
268.676	-19.46
268.892	76.8
269.108	-41.98
269.324	9.22
269.54	48.13
269.756	136.19
269.972	48.13
270.188	78.85
270.403	-31.74
270.619	103.42
270.835	3.07
271.051	64.51
271.267	-13.31
271.483	15.36
271.698	56.32
271.914	35.84
272.13	-9.22
272.346	-15.36
272.562	76.8
272.777	46.08
272.993	37.89
273.209	-54.27
273.425	1.02
273.64	31.74
273.856	64.51
274.072	-33.79
274.287	19.46
274.503	74.75
274.719	37.89
274.934	-41.98
275.15	41.98
275.366	-13.31
275.581	-25.6
275.797	23.55
276.012	-5.12
276.228	-23.55
276.444	64.51
276.659	58.37
276.875	-31.74
277.09	-13.31
277.306	-64.51
277.521	7.17
277.737	-7.17
277.952	138.24
278.168	-7.17
278.383	56.32
278.599	-9.22
278.814	80.89
279.03	52.22
279.245	-1.02
279.461	-74.75
279.676	3.07
279.892	44.03
280.107	-21.5
280.322	-27.65
280.538	-31.74
280.753	37.89
280.969	15.36
281.184	9.22
281.399	33.79
281.615	5.12
281.83	9.22
282.045	25.6
282.26	-13.31
282.476	31.74
282.691	19.46
282.906	13.31
283.122	-25.6
283.337	7.17
283.552	-50.18
283.767	-29.7
283.983	-17.41
284.198	-15.36
284.413	31.74
284.628	9.22
284.843	-29.7
285.058	-41.98
285.274	15.36
285.489	-21.5
285.704	-1.02
285.919	31.74
286.134	5.12
286.349	62.46
286.564	-31.74
286.779	72.7
286.995	-1.02
287.21	-13.31
287.425	1.02
287.64	-56.32
287.855	23.55
288.07	11.26
288.285	27.65
288.5	-3.07
288.715	15.36
288.93	19.46
289.145	-25.6
289.36	72.7
289.575	56.32
289.79	7.17
290.004	74.75
290.219	72.7
290.434	-29.7
290.649	-9.22
290.864	-17.41
291.079	-50.18
291.294	41.98
291.509	7.17
291.724	-89.09
291.938	72.7
292.153	31.74
292.368	-1.02
292.583	31.74
292.798	105.47
293.012	31.74
293.227	39.94
293.442	25.6
293.657	64.51
293.871	48.13
294.086	15.36
294.301	64.51
294.516	48.13
294.73	29.7
294.945	-13.31
295.16	-13.31
295.374	60.42
295.589	31.74
295.804	5.12
296.018	97.28
296.233	41.98
296.447	15.36
296.662	23.55
296.877	7.17
297.091	72.7
297.306	23.55
297.52	31.74
297.735	64.51
297.949	-23.55
298.164	31.74
298.378	-3.07
298.593	-9.22
298.807	27.65
299.022	64.51
299.236	84.99
299.451	15.36
299.665	-15.36
299.88	-1.02
300.094	-15.36
300.309	58.37
300.523	17.41
300.737	15.36
300.952	23.55
301.166	39.94
301.381	-33.79
301.595	56.32
301.809	54.27
302.024	7.17
302.238	-72.7
302.452	25.6
302.667	46.08
302.881	44.03
303.095	48.13
303.309	17.41
303.524	-23.55
303.738	27.65
303.952	-13.31
304.166	58.37
304.381	-29.7
304.595	23.55
304.809	-46.08
305.023	23.55
305.237	-1.02
305.452	56.32
305.666	27.65
305.88	-66.56
306.094	72.7
306.308	1.02
306.522	68.61
306.736	27.65
306.95	11.26
307.164	7.17
307.379	33.79
307.593	7.17
307.807	66.56
308.021	31.74
308.235	21.5
308.449	-7.17
308.663	15.36
308.877	44.03
309.091	-5.12
309.305	48.13
309.519	-3.07
309.733	58.37
309.947	1.02
310.161	-3.07
310.374	97.28
310.588	52.22
310.802	1.02
311.016	3.07
311.23	105.47
311.444	-13.31
311.658	52.22
311.872	25.6
312.085	68.61
312.299	31.74
312.513	-15.36
312.727	1.02
312.941	-25.6
313.154	70.65
313.368	-19.46
313.582	-39.94
313.796	17.41
314.009	74.75
314.223	-19.46
314.437	68.61
314.651	-50.18
314.864	-3.07
315.078	-33.79
315.292	5.12
315.505	-37.89
315.719	35.84
315.933	48.13
316.146	19.46
316.36	-74.75
316.573	25.6
316.787	15.36
317.001	33.79
317.214	3.07
317.428	-1.02
317.641	13.31
317.855	15.36
318.068	19.46
318.282	25.6
318.495	-29.7
318.709	23.55
318.922	11.26
319.136	-11.26
319.349	25.6
319.563	-9.22
319.776	23.55
319.99	-37.89
320.203	64.51
320.417	41.98
320.63	23.55
320.843	31.74
321.057	91.13
321.27	27.65
321.483	17.41
321.697	31.74
321.91	5.12
322.124	-15.36
322.337	-39.94
322.55	-13.31
322.763	-31.74
322.977	-58.37
323.19	-15.36
323.403	41.98
323.617	-84.99
323.83	1.02
324.043	25.6
324.256	7.17
324.469	58.37
324.683	39.94
324.896	-72.7
325.109	-1.02
325.322	33.79
325.535	-44.03
325.748	-27.65
325.962	15.36
326.175	46.08
326.388	91.13
326.601	-1.02
326.814	33.79
327.027	39.94
327.24	31.74
327.453	-1.02
327.666	50.18
327.879	-37.89
328.092	82.94
328.305	93.18
328.518	46.08
328.731	-11.26
328.944	7.17
329.157	101.37
329.37	19.46
329.583	74.75
329.796	23.55
330.009	19.46
330.222	13.31
330.435	-35.84
330.648	72.7
330.861	58.37
331.073	-33.79
331.286	-25.6
331.499	72.7
331.712	-37.89
331.925	9.22
332.138	17.41
332.35	74.75
332.563	-13.31
332.776	93.18
332.989	-9.22
333.202	-56.32
333.414	-66.56
333.627	-15.36
333.84	11.26
334.053	82.94
334.265	1.02
334.478	-1.02
334.691	15.36
334.903	48.13
335.116	-11.26
335.329	-29.7
335.541	23.55
335.754	-56.32
335.966	23.55
336.179	-3.07
336.392	15.36
336.604	-9.22
336.817	74.75
337.029	46.08
337.242	-1.02
337.454	15.36
337.667	66.56
337.88	29.7
338.092	-29.7
338.305	128
338.517	-60.42
338.729	54.27
338.942	-41.98
339.154	-56.32
339.367	13.31
339.579	64.51
339.792	-62.46
340.004	-7.17
340.217	93.18
340.429	39.94
340.641	35.84
340.854	-5.12
341.066	23.55
341.278	9.22
341.491	105.47
341.703	-41.98
341.915	-25.6
342.128	9.22
342.34	-25.6
342.552	-82.94
342.764	13.31
342.977	50.18
343.189	11.26
343.401	74.75
343.613	-25.6
343.826	89.09
344.038	-23.55
344.25	64.51
344.462	-1.02
344.674	37.89
344.886	56.32
345.099	48.13
345.311	5.12
345.523	-29.7
345.735	-27.65
345.947	25.6
346.159	48.13
346.371	52.22
346.583	9.22
346.795	33.79
347.007	-31.74
347.219	41.98
347.431	1.02
347.643	60.42
347.855	39.94
348.067	52.22
348.279	62.46
348.491	-17.41
348.703	78.85
348.915	82.94
349.127	-17.41
349.339	48.13
349.551	-11.26
349.763	-13.31
349.975	35.84
350.187	-15.36
350.399	35.84
350.61	39.94
350.822	29.7
351.034	66.56
351.246	-13.31
351.458	1.02
351.669	13.31
351.881	60.42
352.093	33.79
352.305	66.56
352.517	107.52
352.728	97.28
352.94	39.94
353.152	23.55
353.363	27.65
353.575	-9.22
353.787	39.94
353.999	56.32
354.21	27.65
354.422	-15.36
354.633	-17.41
354.845	23.55
355.057	31.74
355.268	64.51
355.48	-21.5
355.692	-23.55
355.903	31.74
356.115	52.22
356.326	-1.02
356.538	21.5
356.749	52.22
356.961	-56.32
357.172	7.17
357.384	1.02
357.595	41.98
357.807	31.74
358.018	-25.6
358.23	15.36
358.441	56.32
358.653	74.75
358.864	11.26
359.075	-1.02
359.287	60.42
359.498	72.7
359.709	62.46
359.921	7.17
360.132	31.74
360.344	41.98
360.555	-1.02
360.766	60.42
360.977	11.26
361.189	89.09
361.4	-54.27
361.611	68.61
361.823	54.27
362.034	41.98
362.245	-1.02
362.456	27.65
362.667	66.56
362.879	3.07
363.09	29.7
363.301	76.8
363.512	74.75
363.723	101.37
363.935	76.8
364.146	56.32
364.357	3.07
364.568	58.37
364.779	25.6
364.99	72.7
365.201	-13.31
365.412	62.46
365.623	11.26
365.834	37.89
366.045	35.84
366.256	80.89
366.467	15.36
366.678	11.26
366.889	31.74
367.1	31.74
367.311	44.03
367.522	78.85
367.733	9.22
367.944	23.55
368.155	37.89
368.366	60.42
368.577	-21.5
368.788	39.94
368.999	33.79
369.209	33.79
369.42	66.56
369.631	23.55
369.842	33.79
370.053	70.65
370.264	48.13
370.474	7.17
370.685	37.89
370.896	-54.27
371.107	58.37
371.317	44.03
371.528	-11.26
371.739	25.6
371.95	74.75
372.16	31.74
372.371	-91.13
372.582	76.8
372.792	25.6
373.003	15.36
373.214	130.05
373.424	15.36
373.635	56.32
373.846	70.65
374.056	-35.84
374.267	132.09
374.477	48.13
374.688	44.03
374.898	-27.65
375.109	9.22
375.319	27.65
375.53	39.94
375.74	64.51
375.951	44.03
376.161	-13.31
376.372	132.09
376.582	3.07
376.793	-17.41
377.003	105.47
377.214	1.02
377.424	44.03
377.635	7.17
377.845	31.74
378.055	72.7
378.266	-9.22
378.476	-25.6
378.686	72.7
378.897	80.89
379.107	33.79
379.317	91.13
379.528	-21.5
379.738	7.17
379.948	60.42
380.158	3.07
380.369	23.55
380.579	39.94
380.789	72.7
380.999	-1.02
381.21	-66.56
381.42	82.94
381.63	-27.65
381.84	56.32
382.05	50.18
382.261	66.56
382.471	82.94
382.681	60.42
382.891	82.94
383.101	148.48
383.311	-7.17
383.521	39.94
383.731	23.55
383.941	107.52
384.151	25.6
384.361	19.46
384.571	-7.17
384.781	19.46
384.991	50.18
385.201	70.65
385.411	-41.98
385.621	46.08
385.831	-23.55
386.041	52.22
386.251	58.37
386.461	27.65
386.671	76.8
386.881	89.09
387.091	7.17
387.301	19.46
387.511	11.26
387.72	84.99
387.93	9.22
388.14	21.5
388.35	113.66
388.56	39.94
388.769	80.89
388.979	31.74
389.189	-25.6
389.399	11.26
389.609	97.28
389.818	56.32
390.028	39.94
390.238	97.28
390.447	5.12
390.657	-17.41
390.867	54.27
391.076	3.07
391.286	48.13
391.496	29.7
391.705	23.55
391.915	41.98
392.125	70.65
392.334	74.75
392.544	101.37
392.753	41.98
392.963	56.32
393.172	15.36
393.382	27.65
393.591	123.9
393.801	17.41
394.01	68.61
394.22	105.47
394.429	64.51
394.639	39.94
394.848	76.8
395.058	70.65
395.267	39.94
395.477	31.74
395.686	48.13
395.895	9.22
396.105	166.91
396.314	123.9
396.524	17.41
396.733	35.84
396.942	60.42
397.152	66.56
397.361	72.7
397.57	54.27
397.78	56.32
397.989	39.94
398.198	72.7
398.407	64.51
398.617	121.85
398.826	58.37
399.035	89.09
399.244	148.48
399.453	50.18
399.663	27.65
399.872	148.48
400.081	-27.65
400.29	109.57
400.499	72.7
400.708	144.38
400.917	142.33
401.127	72.7
401.336	19.46
401.545	150.53
401.754	19.46
401.963	91.13
402.172	123.9
402.381	41.98
402.59	125.95
402.799	48.13
403.008	105.47
403.217	148.48
403.426	152.57
403.635	54.27
403.844	158.72
404.053	58.37
404.262	123.9
404.471	171.01
404.68	123.9
404.888	21.5
405.097	27.65
405.306	-9.22
405.515	119.81
405.724	113.66
405.933	162.81
406.142	84.99
406.35	236.54
406.559	136.19
406.768	76.8
406.977	48.13
407.185	97.28
407.394	154.62
407.603	125.95
407.812	164.86
408.02	171.01
408.229	187.39
408.438	164.86
408.646	173.05
408.855	168.96
409.064	162.81
409.272	146.43
409.481	240.64
409.69	121.85
409.898	207.87
410.107	209.92
410.315	230.4
410.524	197.63
410.733	343.03
410.941	252.92
411.15	238.59
411.358	263.16
411.567	349.18
411.775	271.36
411.984	269.31
412.192	345.08
412.401	334.84
412.609	359.42
412.818	424.95
413.026	383.99
413.234	414.71
413.443	451.58
413.651	377.85
413.86	394.23
414.068	508.92
414.276	465.91
414.485	402.43
414.693	461.82
414.901	551.93
415.11	513.02
415.318	531.45
415.526	523.26
415.734	605.17
415.943	631.8
416.151	590.84
416.359	654.33
416.567	619.51
416.776	662.52
416.984	687.09
417.192	746.48
417.4	746.48
417.608	740.34
417.817	746.48
418.025	822.26
418.233	832.5
418.441	850.93
418.649	826.36
418.857	1025.01
419.065	965.62
419.273	990.19
419.481	975.86
419.689	1088.5
419.897	1055.73
420.105	1207.28
420.313	1209.33
420.521	1207.28
420.729	1227.76
420.937	1149.93
421.145	1338.35
421.353	1385.45
421.561	1424.36
421.769	1391.59
421.977	1573.86
422.185	1475.56
422.393	1547.24
422.601	1842.15
422.809	1704.93
423.017	1735.65
423.224	1735.65
423.432	1926.11
423.64	1852.39
423.848	2030.56
424.056	1915.87
424.263	2030.56
424.471	2169.82
424.679	2169.82
424.887	2218.97
425.094	2315.23
425.302	2243.55
425.51	2384.86
425.718	2563.03
425.925	2489.31
426.133	2669.53
426.341	2859.99
426.548	2855.89
426.756	2972.63
426.964	2859.99
427.171	3027.92
427.379	3165.14
427.586	3320.78
427.794	3333.07
428.001	3535.82
428.209	3681.22
428.417	3568.59
428.624	3767.24
428.832	3828.68
429.039	3834.82
429.247	3777.48
429.454	4174.78
429.662	4553.66
429.869	4078.53
430.076	4576.19
430.284	4414.4
430.491	4432.83
430.699	4731.83
430.906	4680.63
431.114	4934.58
431.321	4901.81
431.528	5151.67
431.736	5409.71
431.943	5694.38
432.15	5561.26
432.358	5634.99
432.565	5946.28
432.772	5876.65
432.979	6259.62
433.187	6288.29
433.394	6230.94
433.601	6769.56
433.808	6763.42
434.016	6677.4
434.223	7154.58
434.43	7463.82
434.637	7261.07
434.844	7676.81
435.052	7758.73
435.259	7852.94
435.466	7846.79
435.673	7820.17
435.88	8473.47
436.087	8960.89
436.294	8756.09
436.501	8395.65
436.708	8670.08
436.915	8874.87
437.122	9403.25
437.329	9452.4
437.537	9591.66
437.743	9755.5
437.95	9825.13
438.157	10347.36
438.364	10515.3
438.571	10550.11
438.778	10750.81
438.985	11664.21
439.192	11221.84
439.399	11490.13
439.606	11225.94
439.813	11881.29
440.02	12626.75
440.227	12440.39
440.433	12122.95
440.64	12634.94
440.847	12559.17
441.054	12970.81
441.261	13740.85
441.467	13517.62
441.674	13765.42
441.881	14383.91
442.088	14457.64
442.294	14205.74
442.501	14672.67
442.708	15063.83
442.914	15272.73
443.121	16007.95
443.328	15545.11
443.534	16708.35
443.741	16472.84
443.948	15932.17
444.154	17558.26
444.361	16919.29
444.568	17208.06
444.774	17201.91
444.981	17552.12
445.187	17767.15
445.394	18701.03
445.6	18393.83
445.807	20523.72
446.013	19004.13
446.22	19661.52
446.426	20447.94
446.633	20609.73
446.839	21058.24
447.046	20388.55
447.252	21629.62
447.459	21787.32
447.665	21611.19
447.871	22530.73
448.078	23478.94
448.284	22381.23
448.491	22946.47
448.697	23992.98
448.903	24433.29
449.11	24042.13
449.316	23937.68
449.522	24355.47
449.728	25197.18
449.935	25246.33
450.141	25279.1
450.347	25731.7
450.553	25240.19
450.76	25197.18
450.966	26225.26
451.172	25825.91
451.378	26491.5
451.584	25901.68
451.791	26591.85
451.997	26686.06
452.203	27021.92
452.409	27331.17
452.615	27339.36
452.821	25696.89
453.027	25721.46
453.233	27329.12
453.44	25981.56
453.646	26460.78
453.852	26129.01
454.058	26972.77
454.264	26249.84
454.47	27077.22
454.676	25995.89
454.882	27073.12
455.088	24484.49
455.294	25029.25
455.5	25428.6
455.705	26042.99
455.911	24750.73
456.117	24150.67
456.323	23712.41
456.529	22747.81
456.735	23659.16
456.941	22987.43
457.147	22786.72
457.352	22110.89
457.558	21818.04
457.764	21750.45
457.97	21404.35
458.176	20937.41
458.381	21084.86
458.587	20220.62
458.793	20124.36
458.999	18764.51
459.204	20437.7
459.41	19559.13
459.616	18264.81
459.821	18524.9
460.027	18488.04
460.233	18316.01
460.438	17140.47
460.644	17496.82
460.85	16384.77
461.055	16003.85
461.261	16341.77
461.466	15043.35
461.672	14484.26
461.878	15768.34
462.083	14822.17
462.289	14424.87
462.494	14215.98
462.7	13628.21
462.905	13163.32
463.111	13607.73
463.316	13654.83
463.522	13435.7
463.727	13519.67
463.932	13351.73
464.138	13304.63
464.343	13304.63
464.549	12757.82
464.754	13482.8
464.959	13253.43
465.165	13165.37
465.37	12522.3
465.575	12297.03
465.781	12708.67
465.986	12751.68
466.191	12168.01
466.397	12049.22
466.602	11303.76
466.807	12125
467.012	11948.87
467.218	11967.31
467.423	11742.03
467.628	11746.12
467.833	12122.95
468.038	11844.43
468.244	11563.86
468.449	12049.22
468.654	11526.99
468.859	11656.01
469.064	11354.96
469.269	10902.36
469.474	11131.73
469.679	11264.85
469.885	10820.44
470.09	11049.82
470.295	11084.63
470.5	10648.41
470.705	10832.73
470.91	10593.12
471.115	10513.25
471.32	10564.45
471.525	10455.9
471.73	10462.05
471.935	10287.97
472.139	9818.99
472.344	9956.2
472.549	9952.1
472.754	9960.3
472.959	9501.55
473.164	9618.29
473.369	9333.62
473.574	9522.03
473.778	9536.37
473.983	9591.66
474.188	9444.21
474.393	8973.18
474.598	9096.05
474.802	8985.46
475.007	8969.08
475.212	9028.47
475.417	8733.56
475.621	8489.85
475.826	8586.11
476.031	8403.84
476.235	8182.66
476.44	8397.7
476.645	8295.3
476.849	8254.34
477.054	8403.84
477.259	8174.47
477.463	8268.67
477.668	7975.81
477.872	7865.22
478.077	7682.95
478.282	7601.04
478.486	7535.5
478.691	7584.65
478.895	7543.69
479.1	7584.65
479.304	7431.05
479.509	7240.59
479.713	7396.24
479.918	7240.59
480.122	7109.52
480.326	7408.53
480.531	7199.63
480.735	7119.76
480.94	7019.41
481.144	7357.33
481.348	6904.73
481.553	7152.53
481.757	6814.62
481.961	6994.84
482.166	7109.52
482.37	6890.39
482.574	6724.51
482.778	7007.13
482.983	7148.43
483.187	6917.01
483.391	6863.77
483.595	6769.56
483.8	6880.15
484.004	6802.33
484.208	6941.59
484.412	6814.62
484.616	6892.44
484.821	6937.49
485.025	6742.94
485.229	7035.8
485.433	6937.49
485.637	6957.97
485.841	6693.79
486.045	6826.9
486.249	6833.05
486.453	6757.27
486.657	6943.64
486.861	6749.08
487.065	6706.07
487.269	6874.01
487.473	6636.44
487.677	7019.41
487.881	7097.24
488.085	6826.9
488.289	6955.93
488.493	6644.63
488.697	7039.89
488.901	7035.8
489.105	7099.28
489.309	6855.58
489.512	7052.18
489.716	6962.07
489.92	6982.55
490.124	6939.54
490.328	7027.6
490.531	6923.16
490.735	7136.15
490.939	7080.85
491.143	7240.59
491.346	7074.71
491.55	7072.66
491.754	7138.2
491.958	7265.17
492.161	6996.89
492.365	7140.24
492.569	7265.17
492.772	7164.82
492.976	7228.31
493.18	7515.02
493.383	7465.87
493.587	7547.79
493.79	7512.97
493.994	7601.04
494.197	7451.53
494.401	7586.7
494.605	7644.04
494.808	7609.23
495.012	7748.49
495.215	7748.49
495.419	8059.78
495.622	7842.7
495.825	7951.24
496.029	7977.86
496.232	8213.38
496.436	8020.87
496.639	8174.47
496.843	8250.24
497.046	8432.51
497.249	8420.22
497.453	8567.68
497.656	8649.6
497.859	8532.86
498.063	8805.24
498.266	9036.66
498.469	8733.56
498.673	8971.13
498.876	8977.27
499.079	9108.34
499.282	9198.45
499.485	9327.47
499.689	9397.1
499.892	9546.61
500.095	9571.18
500.298	9849.71
500.501	9833.32
500.705	10079.08
500.908	10089.32
501.111	10021.74
501.314	10265.44
501.517	10517.34
501.72	10333.03
501.923	10505.06
502.126	10779.48
502.329	10879.83
502.532	10838.87
502.735	10849.11
502.938	11158.36
503.141	11397.97
503.344	11357.01
503.547	11438.93
503.75	11410.26
503.953	11840.33
504.156	12188.49
504.359	12110.66
504.562	12190.53
504.765	12286.79
504.968	12360.52
505.17	12602.18
505.373	12559.17
505.576	12809.02
505.779	12972.86
505.982	12874.56
506.185	13427.51
506.387	13353.78
506.59	13411.12
506.793	13572.91
506.996	13421.36
507.198	14218.02
507.401	13843.24
507.604	13873.96
507.807	14195.5
508.009	14596.9
508.212	14459.68
508.415	14850.85
508.617	14816.03
508.82	14830.37
509.022	14865.18
509.225	15561.49
509.428	15323.93
509.63	15604.5
509.833	15727.38
510.035	16186.12
510.238	15782.67
510.44	16265.99
510.643	16575.24
510.845	16390.92
511.048	16595.71
511.25	16818.94
511.453	16773.89
511.655	17335.03
511.858	17310.46
512.06	17220.35
512.262	17609.46
512.465	17523.44
512.667	17986.29
512.87	18060.01
513.072	18217.71
513.274	18393.83
513.477	18662.12
513.679	18791.14
513.881	18881.25
514.084	19055.33
514.286	19106.52
514.488	19253.98
514.69	19847.89
514.893	19778.26
515.095	19903.18
515.297	19925.71
515.499	20331.21
515.701	20548.29
515.904	20533.96
516.106	20646.6
516.308	21078.72
516.51	21217.98
516.712	21211.84
516.914	21248.7
517.116	22039.22
517.318	21881.52
517.52	21912.24
517.722	22061.74
517.925	22297.26
518.127	22977.19
518.329	23089.82
518.531	22553.26
518.733	23333.53
518.935	23263.9
519.136	23288.48
519.338	23648.92
519.54	23845.52
519.742	23698.07
519.944	24111.76
520.146	24728.2
520.348	24552.07
520.55	24619.66
520.752	24631.94
520.954	25344.64
521.155	25080.45
521.357	25424.51
521.559	25664.12
521.761	26137.2
521.963	26225.26
522.164	26176.11
522.366	26237.55
522.568	26309.23
522.77	26655.34
522.971	26772.07
523.173	26731.11
523.375	26790.5
523.576	27093.6
523.778	27097.7
523.98	27558.49
524.181	27832.92
524.383	27736.66
524.584	28150.35
524.786	27996.76
524.988	28056.15
525.189	28269.14
525.391	28607.05
525.592	28418.64
525.794	28688.97
525.995	28435.02
526.197	28680.78
526.398	28994.12
526.6	29125.19
526.801	29475.39
527.003	29401.66
527.204	29389.38
527.406	29819.45
527.607	29487.68
527.808	29772.35
528.01	29577.79
528.211	29846.07
528.412	30210.61
528.614	30192.18
528.815	30390.83
529.016	30763.56
529.218	30151.22
529.419	30519.85
529.62	30491.18
529.822	30675.5
530.023	30554.67
530.224	30626.35
530.425	30437.94
530.626	30485.04
530.828	30532.14
531.029	31066.66
531.23	30890.54
531.431	30616.11
531.632	30829.1
531.833	31316.51
532.035	31044.13
532.236	30874.15
532.437	31115.81
532.638	30999.08
532.839	30814.76
533.04	30939.69
533.241	31052.33
533.442	31603.23
533.643	31402.53
533.844	31302.18
534.045	31478.3
534.246	31078.95
534.447	31418.91
534.648	31107.62
534.849	31308.32
535.05	30829.1
535.251	31287.84
535.451	31242.79
535.652	31265.31
535.853	31486.5
536.054	31463.97
536.255	31238.69
536.456	31371.81
536.657	31818.27
536.857	31781.4
537.058	30970.41
537.259	31650.33
537.46	31547.93
537.66	31150.63
537.861	31500.83
538.062	31535.65
538.263	31406.62
538.463	31205.92
538.664	31654.43
538.865	31566.37
539.065	31443.49
539.266	31142.44
539.466	31623.71
539.667	31414.82
539.868	31590.94
540.068	31091.24
540.269	31015.46
540.469	31171.11
540.67	31330.85
540.87	31328.8
541.071	31250.98
541.271	31302.18
541.472	31064.61
541.672	31191.59
541.873	31181.35
542.073	30919.21
542.274	31351.33
542.474	30861.87
542.675	31085.09
542.875	31400.48
543.075	31195.68
543.276	30655.02
543.476	31496.74
543.676	31078.95
543.877	31195.68
544.077	31265.31
544.277	31023.65
544.478	30837.29
544.678	31388.19
544.878	31078.95
545.078	31203.88
545.279	30743.08
545.479	30884.39
545.679	31078.95
545.879	31132.2
546.079	30736.94
546.28	30931.5
546.48	30679.6
546.68	31134.24
546.88	31048.23
547.08	30849.58
547.28	30825
547.48	30677.55
547.68	31423.01
547.88	30644.78
548.081	30853.67
548.281	31099.43
548.481	31001.13
548.681	31140.39
548.881	31060.52
549.081	31056.42
549.28	30767.66
549.48	31001.13
549.68	30722.6
549.88	31025.7
550.08	30607.92
550.28	30890.54
550.48	30683.69
550.68	31064.61
550.88	30775.85
551.08	30579.25
551.279	31007.27
551.479	30485.04
551.679	30499.37
551.879	30876.2
552.079	30781.99
552.278	30888.49
552.478	30859.82
552.678	30515.76
552.878	30366.26
553.077	30468.66
553.277	30362.16
553.477	30941.74
553.676	30591.53
553.876	30657.07
554.076	30462.51
554.275	30597.68
554.475	30691.88
554.674	30515.76
554.874	30216.75
555.074	30204.47
555.273	30470.7
555.473	30552.62
555.672	30153.27
555.872	30337.59
556.071	30280.24
556.271	30495.28
556.47	30390.83
556.67	29876.79
556.869	30325.3
557.068	30456.37
557.268	29977.14
557.467	30437.94
557.667	30188.08
557.866	29844.02
558.065	29833.78
558.265	30317.11
558.464	29717.05
558.663	30100.02
558.863	29798.97
559.062	30368.3
559.261	29426.24
559.461	29923.9
559.66	29332.03
559.859	29719.1
560.058	29344.32
560.258	29497.92
560.457	29133.38
560.656	29510.21
560.855	29467.2
561.054	29293.12
561.253	29346.37
561.453	29499.97
561.652	29258.31
561.851	29616.7
562.05	29192.77
562.249	29352.51
562.448	29270.59
562.647	29147.72
562.846	28973.64
563.045	29184.58
563.244	28529.23
563.443	29018.69
563.642	28813.9
563.841	29041.22
564.04	28731.98
564.239	29270.59
564.438	28774.98
564.637	28838.47
564.836	29051.46
565.035	28512.84
565.234	28682.83
565.432	28518.99
565.631	28799.56
565.83	28605
566.029	28150.35
566.228	28107.35
566.427	28250.7
566.625	27941.46
566.824	28125.78
567.023	28498.51
567.222	27429.47
567.42	28260.94
567.619	27974.23
567.818	27945.56
568.016	27882.07
568.215	28027.48
568.414	27738.71
568.612	27822.68
568.811	27783.77
569.01	27722.33
569.208	27026.02
569.407	27703.9
569.605	27306.59
569.804	27802.2
570.002	27058.79
570.201	27159.14
570.4	27296.35
570.598	26933.86
570.797	27001.44
570.995	26853.99
571.193	26612.33
571.392	27128.42
571.59	26866.28
571.789	27112.03
571.987	26700.39
572.186	26522.22
572.384	26511.98
572.582	26894.95
572.781	26454.64
572.979	26245.74
573.177	26466.92
573.376	26524.27
573.574	26358.38
573.772	26493.55
573.971	26370.67
574.169	25879.16
574.367	25778.81
574.565	26053.23
574.763	26049.14
574.962	25819.77
575.16	25694.84
575.358	25961.08
575.556	25399.93
575.754	26088.05
575.952	25590.39
576.151	25832.05
576.349	25131.65
576.547	25127.55
576.745	25447.04
576.943	25254.53
577.141	25307.77
577.339	25180.8
577.537	25164.42
577.735	24935.04
577.933	24904.32
578.131	24918.66
578.329	24855.17
578.527	24533.64
578.725	25188.99
578.923	24758.92
579.121	24621.7
579.319	24607.37
579.516	24611.46
579.714	24482.44
579.912	24515.21
580.11	24355.47
580.308	24386.19
580.506	24095.38
580.704	23820.95
580.901	24359.56
581.099	24060.56
581.297	23747.22
581.495	23972.5
581.692	23968.4
581.89	23661.21
582.088	23900.82
582.285	23872.15
582.483	23841.43
582.681	24033.94
582.878	23667.35
583.076	23960.21
583.274	23534.23
583.471	23337.63
583.669	23263.9
583.866	23270.04
584.064	23487.13
584.262	23040.67
584.459	23253.66
584.657	23081.63
584.854	23161.5
585.052	22520.49
585.249	22844.07
585.447	22993.57
585.644	22676.13
585.841	22946.47
586.039	22837.92
586.236	22577.83
586.434	22393.51
586.631	22624.93
586.828	22457
587.026	22379.18
587.223	22174.38
587.42	22262.44
587.618	22166.19
587.815	22106.8
588.012	21801.65
588.21	21879.47
588.407	22428.33
588.604	22139.57
588.801	21666.49
588.999	21643.96
589.196	22088.37
589.393	21809.84
589.59	21490.36
589.787	21572.28
589.984	21576.37
590.182	21240.51
590.379	21580.47
590.576	21299.9
590.773	21197.5
590.97	21144.25
591.167	21320.38
591.364	20884.16
591.561	21187.26
591.758	20662.98
591.955	20863.68
592.152	21039.81
592.349	20816.58
592.546	20738.76
592.743	20667.08
592.94	20593.35
593.137	20662.98
593.334	20648.64
593.531	20441.8
593.727	20568.77
593.924	20161.23
594.121	20288.2
594.318	20202.19
594.515	20118.22
594.712	20026.06
594.908	19780.31
595.105	20054.73
595.302	20007.63
595.499	20054.73
595.696	19786.45
595.892	19802.83
596.089	19755.73
596.286	19825.36
596.482	19667.67
596.679	19682
596.876	19641.04
597.072	19239.64
597.269	19163.87
597.466	19350.23
597.662	19303.13
597.859	18969.31
598.055	19309.27
598.252	19090.14
598.448	19075.8
598.645	18707.17
598.841	18756.32
599.038	19028.7
599.234	18848.48
599.431	18711.27
599.627	18741.99
599.824	19012.32
600.02	18485.99
600.217	18965.21
600.413	18438.89
600.609	18350.82
600.806	18191.08
601.002	18565.86
601.198	18037.48
601.395	18094.83
601.591	18094.83
601.787	18395.88
601.984	17963.76
602.18	18129.64
602.376	18123.5
602.572	17816.3
602.769	17726.19
602.965	17822.45
603.161	17738.48
603.357	17431.29
603.553	17613.56
603.75	17912.56
603.946	17201.91
604.142	17636.08
604.338	17021.69
604.534	17224.44
604.73	17115.9
604.926	17222.39
605.122	17390.33
605.318	17261.3
605.514	16952.06
605.71	16947.97
605.906	16962.3
606.102	17189.63
606.298	16812.8
606.494	16849.66
606.69	16870.14
606.886	16888.57
607.082	16626.43
607.278	17033.98
607.474	16659.2
607.67	16687.87
607.866	16524.04
608.062	16734.98
608.257	16368.39
608.453	16347.91
608.649	16714.5
608.845	16501.51
609.041	16495.36
609.236	16417.54
609.432	16175.88
609.628	16499.46
609.824	16036.62
610.019	15999.76
610.215	16270.09
610.411	16386.82
610.606	16118.54
610.802	16018.19
610.998	16145.16
611.193	16302.86
611.389	15751.95
611.584	15956.75
611.78	15842.06
611.976	16016.14
612.171	15926.03
612.367	15747.86
612.562	15725.33
612.758	15688.46
612.953	15813.39
613.149	15870.73
613.344	15561.49
613.539	16030.48
613.735	15700.75
613.93	15637.27
614.126	15860.49
614.321	15618.83
614.517	15731.47
614.712	15864.59
614.907	15473.43
615.103	15362.84
615.298	15295.25
615.493	15498
615.688	15246.1
615.884	15563.54
616.079	15137.56
616.274	15481.62
616.47	15170.33
616.665	15313.69
616.86	15217.43
617.055	15199
617.25	15057.69
617.445	15276.82
617.641	14908.19
617.836	15031.07
618.031	14893.85
618.226	15043.35
618.421	14918.43
618.616	14850.85
618.811	14600.99
619.006	14959.39
619.201	14644
619.396	14564.13
619.591	14412.58
619.786	14619.42
619.981	14123.82
620.176	14457.64
620.371	14265.13
620.566	14283.56
620.761	14150.44
620.956	14172.97
621.151	14017.32
621.346	14152.49
621.541	14105.38
621.735	13988.65
621.93	13646.64
622.125	13906.73
622.32	13718.32
622.515	13488.95
622.709	13525.81
622.904	13724.46
623.099	13474.61
623.294	13476.66
623.488	13417.27
623.683	13544.24
623.878	13130.55
624.072	13392.69
624.267	13142.84
624.462	13116.22
624.656	12976.95
624.851	13048.63
625.046	12854.08
625.24	12776.25
625.435	12614.46
625.629	12743.49
625.824	12565.31
626.018	12440.39
626.213	12221.25
626.407	12297.03
626.602	12223.3
626.796	12102.47
626.991	12215.11
627.185	11991.88
627.38	12120.9
627.574	11883.34
627.768	11979.59
627.963	11789.13
628.157	11690.83
628.352	11809.61
628.546	11574.1
628.74	11967.31
628.935	11563.86
629.129	11461.46
629.323	11443.03
629.517	11326.29
629.712	11389.78
629.906	11107.16
630.1	11090.77
630.294	11074.39
630.489	10885.98
630.683	11033.43
630.877	11025.24
631.071	10951.51
631.265	10943.32
631.459	10650.46
631.653	10818.39
631.848	10605.41
632.042	10629.98
632.236	10574.69
632.43	10607.45
632.624	10486.62
632.818	10462.05
633.012	10380.13
633.206	10378.08
633.4	10337.12
633.594	10150.76
633.788	10079.08
633.982	10060.65
634.176	10259.3
634.369	10199.91
634.563	10009.45
634.757	9823.08
634.951	9933.67
635.145	9773.93
635.339	9972.58
635.533	9663.34
635.726	9642.86
635.92	9519.98
636.114	9657.2
636.308	9669.48
636.501	9587.57
636.695	9323.38
636.889	9233.27
637.083	9259.89
637.276	9165.68
637.47	9190.26
637.664	9169.78
637.857	9120.63
638.051	9108.34
638.244	9069.43
638.438	8985.46
638.632	8977.27
638.825	8878.97
639.019	8895.35
639.212	8668.03
639.406	8780.67
639.599	8618.88
639.793	8698.75
639.986	8614.78
640.18	8647.55
640.373	8508.29
640.567	8405.89
640.76	8641.4
640.954	8383.36
641.147	8346.5
641.34	8321.92
641.534	8369.02
641.727	8356.74
641.92	8307.59
642.114	8143.75
642.307	8158.08
642.5	8110.98
642.694	7924.62
642.887	8020.87
643.08	8043.4
643.273	7994.25
643.467	7932.81
643.66	7818.12
643.853	7674.76
644.046	7766.92
644.239	7574.41
644.432	7525.26
644.626	7603.08
644.819	7586.7
645.012	7713.67
645.205	7621.52
645.398	7494.54
645.591	7490.45
645.784	7273.36
645.977	7437.2
646.17	7170.96
646.363	7316.37
646.556	7144.34
646.749	7256.98
646.942	7306.13
647.135	7218.07
647.328	7209.87
647.521	7166.87
647.714	6925.21
647.907	7043.99
648.099	6871.96
648.292	6951.83
648.485	7082.9
648.678	6687.64
648.871	6814.62
649.064	6857.62
649.256	6769.56
649.449	6691.74
649.642	6433.69
649.835	6634.39
650.027	6663.07
650.22	6650.78
650.413	6536.09
650.605	6450.08
650.798	6245.28
650.991	6587.29
651.183	6523.8
651.376	6300.58
651.568	6370.21
651.761	6376.35
651.954	6245.28
652.146	6232.99
652.339	6259.62
652.531	6153.12
652.724	6093.73
652.916	6056.87
653.109	6089.64
653.301	6056.87
653.494	6050.72
653.686	6142.88
653.879	6132.64
654.071	6032.29
654.263	5946.28
654.456	5923.75
654.648	5970.85
654.84	5749.67
655.033	5804.97
655.225	5694.38
655.417	5792.68
655.61	5520.3
655.802	5768.1
655.994	5671.85
656.186	5907.37
656.379	5620.65
656.571	5544.88
656.763	5479.34
656.955	5432.24
657.148	5401.52
657.34	5462.96
657.532	5364.65
657.724	5147.57
657.916	5366.7
658.108	5344.17
658.3	5186.48
658.492	5508.01
658.684	5190.58
658.876	5292.98
659.068	5166
659.26	5233.58
659.452	5129.14
659.644	5155.76
659.836	4991.92
660.028	5100.47
660.22	5032.88
660.412	4969.4
660.604	5012.4
660.796	5018.55
660.988	4942.77
661.18	4955.06
661.372	4844.47
661.563	4826.04
661.755	4897.72
661.947	4809.65
662.139	4750.26
662.331	4791.22
662.522	4774.84
662.714	4615.1
662.906	4797.37
663.097	4703.16
663.289	4682.68
663.481	4432.83
663.673	4565.95
663.864	4574.14
664.056	4578.23
664.247	4541.37
664.439	4447.16
664.631	4471.74
664.822	4400.06
665.014	4283.33
665.205	4357.05
665.397	4410.3
665.588	4336.57
665.78	4299.71
665.971	4438.97
666.163	4385.73
666.354	4230.08
666.546	4252.61
666.737	4158.4
666.929	4027.33
667.12	4187.07
667.311	4228.03
667.503	4139.97
667.694	4070.34
667.885	3959.75
668.077	4133.82
668.268	3906.5
668.459	4088.77
668.651	3984.32
668.842	4082.63
669.033	4047.81
669.224	3963.84
669.416	4111.3
669.607	3863.49
669.798	3859.4
669.989	3863.49
670.18	4006.85
670.371	3824.58
670.563	3988.42
670.754	3718.09
670.945	3849.16
671.136	3713.99
671.327	3787.72
671.518	3806.15
671.709	3668.94
671.9	3785.67
672.091	3734.47
672.282	3609.54
672.473	3513.29
672.664	3578.83
672.855	3718.09
673.046	3599.31
673.237	3685.32
673.428	3677.13
673.619	3521.48
673.809	3550.15
674	3521.48
674.191	3484.62
674.382	3509.19
674.573	3587.02
674.764	3312.59
674.954	3541.96
675.145	3511.24
675.336	3417.04
675.527	3324.88
675.717	3505.1
675.908	3365.84
676.099	3406.8
676.289	3464.14
676.48	3376.08
676.671	3267.53
676.861	3474.38
677.052	3294.16
677.243	3294.16
677.433	3283.92
677.624	3402.7
677.814	3277.77
678.005	3208.14
678.195	3197.9
678.386	3230.67
678.576	3312.59
678.767	3234.77
678.957	3210.19
679.148	3376.08
679.338	3206.1
679.529	3173.33
679.719	3171.28
679.909	3189.71
680.1	3148.75
680.29	3179.47
680.481	3187.66
680.671	3021.78
680.861	3150.8
681.052	3038.16
681.242	2941.91
681.432	3081.17
681.622	2966.48
681.813	3013.59
682.003	3079.12
682.193	2872.28
682.383	3097.55
682.573	3101.65
682.764	3013.59
682.954	3091.41
683.144	2917.33
683.334	2989.01
683.524	3046.35
683.714	2890.71
683.904	2878.42
684.094	2915.28
684.284	2954.19
684.474	3066.83
684.664	2941.91
684.854	2915.28
685.044	2921.43
685.234	2808.79
685.424	2786.26
685.614	2923.48
685.804	2859.99
685.994	2798.55
686.184	2859.99
686.374	2796.5
686.564	2759.64
686.753	2718.68
686.943	2704.34
687.133	2804.69
687.323	2788.31
687.513	2726.87
687.702	2601.94
687.892	2710.49
688.082	2739.16
688.272	2708.44
688.461	2694.1
688.651	2698.2
688.841	2640.86
689.03	2690.01
689.22	2606.04
689.41	2620.38
689.599	2563.03
689.789	2456.54
689.979	2577.37
690.168	2603.99
690.358	2546.65
690.547	2509.79
690.737	2546.65
690.926	2608.09
691.116	2372.57
691.305	2526.17
691.495	2491.35
691.684	2548.7
691.874	2540.51
692.063	2411.48
692.252	2538.46
692.442	2526.17
692.631	2309.08
692.82	2378.72
693.01	2372.57
693.199	2425.82
693.388	2407.39
693.578	2452.44
693.767	2440.15
693.956	2335.71
694.146	2311.13
694.335	2227.17
694.524	2362.33
694.713	2237.41
694.902	2311.13
695.092	2362.33
695.281	2233.31
695.47	2253.79
695.659	2157.54
695.848	2155.49
696.037	2186.21
696.226	2212.83
696.415	2190.3
696.604	2350.04
696.793	2145.25
696.982	2198.49
697.171	2169.82
697.36	2339.8
697.549	2186.21
697.738	2106.34
697.927	2120.67
698.116	2192.35
698.305	2235.36
698.494	2184.16
698.683	2173.92
698.872	2214.88
699.061	2112.48
699.25	2178.01
699.438	2225.12
699.627	2145.25
699.816	2235.36
700.005	2108.38
700.193	2139.1
700.382	2171.87
700.571	1993.7
700.76	2114.53
700.948	2147.3
701.137	2126.82
701.326	2112.48
701.514	2098.14
701.703	2094.05
701.892	2137.06
702.08	2087.9
702.269	2147.3
702.457	2065.38
702.646	2112.48
702.834	2067.42
703.023	2065.38
703.212	2104.29
703.4	2001.89
703.589	1991.65
703.777	2149.34
703.965	2087.9
704.154	1958.88
704.342	2092
704.531	2071.52
704.719	2114.53
704.907	2108.38
705.096	2077.66
705.284	2038.75
705.472	2014.18
705.661	1942.5
705.849	2063.33
706.037	2100.19
706.226	2030.56
706.414	2057.18
706.602	1905.63
706.79	2053.09
706.979	1991.65
707.167	2032.61
707.355	1950.69
707.543	1993.7
707.731	2083.81
707.919	1967.07
708.107	1993.7
708.296	1965.03
708.484	1965.03
708.672	2003.94
708.86	2081.76
709.048	1915.87
709.236	1965.03
709.424	1977.31
709.612	2057.18
709.8	1932.26
709.988	2116.58
710.176	1915.87
710.364	1965.03
710.551	1993.7
710.739	1993.7
710.927	1905.63
711.115	1989.6
711.303	1854.44
711.491	2030.56
711.679	1850.34
711.866	2001.89
712.054	1985.51
712.242	2034.66
712.43	1954.79
712.617	1977.31
712.805	1983.46
712.993	1934.31
713.181	1829.86
713.368	2005.99
713.556	1958.88
713.744	1870.82
713.931	1948.64
714.119	2032.61
714.306	1928.16
714.494	1899.49
714.682	1915.87
714.869	1833.96
715.057	1858.53
715.244	1860.58
715.432	1997.79
715.619	1932.26
715.807	1981.41
715.994	1948.64
716.182	1752.04
716.369	1928.16
716.556	1940.45
716.744	1842.15
716.931	1940.45
717.119	1915.87
717.306	1936.35
717.493	1954.79
717.681	1932.26
717.868	1958.88
718.055	1860.58
718.242	1905.63
718.43	1901.54
718.617	1909.73
718.804	1784.8
718.991	1860.58
719.179	1831.91
719.366	1981.41
719.553	1850.34
719.74	1870.82
719.927	1899.49
720.114	1885.16
720.301	1862.63
720.488	1723.37
720.676	1795.04
720.863	1854.44
721.05	1850.34
721.237	1809.38
721.424	1842.15
721.611	1876.96
721.798	1737.7
721.985	1844.2
722.172	1891.3
722.358	1741.8
722.545	1827.81
722.732	1776.61
722.919	1911.78
723.106	1938.4
723.293	1840.1
723.48	1831.91
723.667	1762.28
723.853	1842.15
724.04	1801.19
724.227	1727.46
724.414	1833.96
724.6	1821.67
724.787	1844.2
724.974	1844.2
725.161	1797.09
725.347	1801.19
725.534	1811.43
725.72	1821.67
725.907	1956.83
726.094	1764.33
726.28	1858.53
726.467	1793
726.653	1817.57
726.84	1889.25
727.027	1776.61
727.213	1745.89
727.4	1825.76
727.586	1776.61
727.773	1747.94
727.959	1788.9
728.145	1655.78
728.332	1743.85
728.518	1645.54
728.705	1733.61
728.891	1729.51
729.077	1782.76
729.264	1780.71
729.45	1637.35
729.636	1790.95
729.823	1745.89
730.009	1817.57
730.195	1881.06
730.382	1836
730.568	1663.97
730.754	1614.82
730.94	1797.09
731.126	1795.04
731.313	1739.75
731.499	1700.84
731.685	1793
731.871	1706.98
732.057	1784.8
732.243	1680.36
732.429	1762.28
732.615	1772.52
732.801	1690.6
732.987	1719.27
733.173	1807.33
733.359	1729.51
733.545	1688.55
733.731	1786.85
733.917	1838.05
734.103	1721.32
734.289	1776.61
734.475	1655.78
734.661	1727.46
734.847	1657.83
735.033	1663.97
735.219	1754.09
735.404	1682.41
735.59	1600.49
735.776	1745.89
735.962	1754.09
736.148	1784.8
736.333	1727.46
736.519	1690.6
736.705	1706.98
736.89	1797.09
737.076	1682.41
737.262	1571.82
737.447	1629.16
737.633	1598.44
737.819	1666.02
738.004	1614.82
738.19	1657.83
738.375	1657.83
738.561	1733.61
738.747	1596.39
738.932	1620.97
739.118	1620.97
739.303	1633.26
739.489	1563.62
739.674	1672.17
739.859	1569.77
740.045	1616.87
740.23	1620.97
740.416	1663.97
740.601	1594.34
740.786	1618.92
740.972	1453.03
741.157	1598.44
741.342	1491.95
741.528	1547.24
741.713	1633.26
741.898	1563.62
742.084	1514.47
742.269	1508.33
742.454	1549.29
742.639	1520.62
742.824	1491.95
743.01	1577.96
743.195	1530.86
743.38	1553.38
743.565	1475.56
743.75	1555.43
743.935	1479.66
744.12	1645.54
744.305	1508.33
744.49	1530.86
744.675	1512.42
744.86	1508.33
745.045	1416.17
745.23	1328.11
745.415	1453.03
745.6	1442.79
745.785	1405.93
745.97	1477.61
746.155	1381.35
746.34	1430.51
746.525	1354.73
746.71	1295.34
746.895	1424.36
747.079	1385.45
747.264	1369.07
747.449	1463.27
747.634	1358.83
747.819	1424.36
748.003	1334.25
748.188	1258.48
748.373	1326.06
748.557	1252.33
748.742	1336.3
748.927	1321.96
749.111	1244.14
749.296	1283.05
749.481	1246.19
749.665	1360.88
749.85	1270.76
750.034	1194.99
750.219	1176.56
750.404	1199.09
750.588	1215.47
750.773	1194.99
750.957	1186.8
751.141	1088.5
751.326	1207.28
751.51	1137.65
751.695	1151.98
751.879	1088.5
752.064	1170.41
752.248	1197.04
752.432	1254.38
752.617	1113.07
752.801	1172.46
752.985	1076.21
753.17	1137.65
753.354	1086.45
753.538	1225.71
753.722	1074.16
753.907	1014.77
754.091	973.81
754.275	1065.97
754.459	998.38
754.643	982
754.828	1065.97
755.012	1033.2
755.196	984.05
755.38	965.62
755.564	1078.26
755.748	945.14
755.932	1008.62
756.116	920.56
756.3	957.43
756.484	990.19
756.668	957.43
756.852	965.62
757.036	984.05
757.22	893.94
757.404	973.81
757.588	955.38
757.772	928.75
757.956	998.38
758.14	924.66
758.323	887.79
758.507	859.12
758.691	836.6
758.875	914.42
759.059	850.93
759.242	949.23
759.426	842.74
759.61	844.79
759.794	838.64
759.977	891.89
760.161	895.99
760.345	846.84
760.528	797.68
760.712	865.27
760.895	818.16
761.079	717.81
761.263	801.78
761.446	869.36
761.63	865.27
761.813	791.54
761.997	830.45
762.18	777.2
762.364	801.78
762.547	762.87
762.731	855.03
762.914	832.5
763.098	787.44
763.281	871.41
763.464	822.26
763.648	826.36
763.831	779.25
764.015	846.84
764.198	801.78
764.381	793.59
764.564	736.24
764.748	795.64
764.931	793.59
765.114	830.45
765.297	787.44
765.481	637.94
765.664	730.1
765.847	691.19
766.03	721.91
766.213	744.44
766.397	709.62
766.58	654.33
766.763	711.67
766.946	705.53
767.129	732.15
767.312	719.86
767.495	607.22
767.678	676.85
767.861	656.37
768.044	701.43
768.227	676.85
768.41	633.85
768.593	728.05
768.776	617.46
768.959	678.9
769.142	642.04
769.324	582.65
769.507	703.48
769.69	658.42
769.873	689.14
770.056	637.94
770.239	601.08
770.421	607.22
770.604	633.85
770.787	637.94
770.97	670.71
771.152	629.75
771.335	683
771.518	619.51
771.7	592.89
771.883	693.24
772.066	582.65
772.248	650.23
772.431	728.05
772.613	588.79
772.796	590.84
772.978	672.76
773.161	537.59
773.343	588.79
773.526	621.56
773.708	558.07
773.891	547.83
774.073	580.6
774.256	601.08
774.438	623.61
774.621	525.3
774.803	547.83
774.985	529.4
775.168	556.02
775.35	556.02
775.532	609.27
775.715	506.87
775.897	517.11
776.079	510.97
776.261	545.78
776.444	515.06
776.626	539.64
776.808	490.49
776.99	412.67
777.173	564.22
777.355	515.06
777.537	476.15
777.719	547.83
777.901	492.54
778.083	558.07
778.265	427
778.447	543.74
778.629	465.91
778.811	437.24
778.993	510.97
779.175	609.27
779.357	383.99
779.539	416.76
779.721	541.69
779.903	433.15
780.085	388.09
780.267	455.67
780.449	472.06
780.631	427
780.812	402.43
780.994	424.95
781.176	424.95
781.358	433.15
781.54	474.1
781.721	392.19
781.903	482.3
782.085	429.05
782.267	457.72
782.448	345.08
782.63	429.05
782.812	433.15
782.993	396.28
783.175	459.77
783.357	410.62
783.538	394.23
783.72	355.32
783.901	400.38
784.083	386.04
784.264	404.47
784.446	345.08
784.627	334.84
784.809	418.81
784.99	326.65
785.172	371.71
785.353	375.8
785.535	330.75
785.716	328.7
785.897	383.99
786.079	418.81
786.26	302.08
786.441	263.16
786.623	363.51
786.804	359.42
786.985	240.64
787.167	394.23
787.348	267.26
787.529	343.03
787.71	316.41
787.891	361.47
788.073	351.23
788.254	302.08
788.435	334.84
788.616	314.36
788.797	226.3
788.978	285.69
789.159	271.36
789.34	355.32
789.522	209.92
789.703	293.88
789.884	261.12
790.065	326.65
790.246	289.79
790.427	281.6
790.607	318.46
790.788	310.27
790.969	281.6
791.15	291.84
791.331	250.88
791.512	211.96
791.693	218.11
791.874	252.92
792.054	246.78
792.235	320.51
792.416	189.44
792.597	261.12
792.778	273.4
792.958	195.58
793.139	209.92
793.32	254.97
793.5	226.3
793.681	277.5
793.862	293.88
794.042	248.83
794.223	199.68
794.404	191.49
794.584	224.25
794.765	191.49
794.945	226.3
795.126	185.34
795.306	263.16
795.487	295.93
795.667	150.53
795.848	218.11
796.028	197.63
796.209	336.89
796.389	318.46
796.57	261.12
796.75	175.1
796.93	269.31
797.111	117.76
797.291	240.64
797.471	183.29
797.652	148.48
797.832	150.53
798.012	181.25
798.192	150.53
798.373	300.03
798.553	197.63
798.733	187.39
798.913	252.92
799.093	230.4
799.274	263.16
799.454	246.78
799.634	230.4
799.814	197.63
799.994	130.05
800.174	216.06
800.354	140.29
800.534	142.33
800.714	232.44
800.894	136.19
801.074	91.13
801.254	146.43
801.434	107.52
801.614	162.81
801.794	162.81
801.974	730.1
802.154	130.05
802.334	175.1
802.514	181.25
802.693	134.14
802.873	164.86
803.053	199.68
803.233	162.81
803.413	121.85
803.592	173.05
803.772	181.25
803.952	191.49
804.131	183.29
804.311	205.82
804.491	164.86
804.67	175.1
804.85	179.2
805.03	244.73
805.209	138.24
805.389	187.39
805.568	117.76
805.748	207.87
805.928	74.75
806.107	156.67
806.287	89.09
806.466	148.48
806.646	166.91
806.825	140.29
807.004	160.77
807.184	166.91
807.363	97.28
807.543	175.1
807.722	130.05
807.901	140.29
808.081	187.39
808.26	125.95
808.439	148.48
808.619	74.75
808.798	185.34
808.977	136.19
809.156	150.53
809.336	111.61
809.515	123.9
809.694	113.66
809.873	162.81
810.052	146.43
810.231	140.29
810.411	111.61
810.59	148.48
810.769	113.66
810.948	91.13
811.127	121.85
811.306	162.81
811.485	130.05
811.664	130.05
811.843	130.05
812.022	97.28
812.201	97.28
812.38	72.7
812.559	97.28
812.737	134.14
812.916	138.24
813.095	66.56
813.274	179.2
813.453	123.9
813.632	154.62
813.811	101.37
813.989	7.17
814.168	99.33
814.347	136.19
814.526	87.04
814.704	162.81
814.883	150.53
815.062	125.95
815.24	136.19
815.419	97.28
815.598	105.47
815.776	72.7
815.955	72.7
816.133	50.18
816.312	48.13
816.49	123.9
816.669	93.18
816.847	33.79
817.026	101.37
817.204	64.51
817.383	101.37
817.561	68.61
817.74	82.94
817.918	39.94
818.097	95.23
818.275	35.84
818.453	134.14
818.632	91.13
818.81	107.52
818.988	99.33
819.167	76.8
819.345	136.19
819.523	1.02
819.701	23.55
819.879	105.47
820.058	68.61
820.236	87.04
820.414	76.8
820.592	93.18
820.77	74.75
820.948	-15.36
821.127	31.74
821.305	91.13
821.483	103.42
821.661	72.7
821.839	62.46
822.017	-54.27
822.195	-17.41
822.373	82.94
822.551	113.66
822.729	105.47
822.907	89.09
823.085	76.8
823.262	35.84
823.44	21.5
823.618	52.22
823.796	50.18
823.974	17.41
824.152	41.98
824.329	-9.22
824.507	113.66
824.685	-21.5
824.863	76.8
825.04	140.29
825.218	142.33
825.396	31.74
825.574	52.22
825.751	52.22
825.929	97.28
826.107	29.7
826.284	80.89
826.462	84.99
826.639	91.13
826.817	19.46
826.994	70.65
827.172	52.22
827.349	17.41
827.527	119.81
827.704	130.05
827.882	37.89
828.059	68.61
828.237	31.74
828.414	62.46
828.591	60.42
828.769	31.74
828.946	7.17
829.124	44.03
829.301	134.14
829.478	97.28
829.655	101.37
829.833	11.26
830.01	-23.55
830.187	56.32
830.364	35.84
830.542	41.98
830.719	31.74
830.896	7.17
831.073	48.13
831.25	39.94
831.427	64.51
831.604	44.03
831.782	64.51
831.959	111.61
832.136	66.56
832.313	68.61
832.49	54.27
832.667	50.18
832.844	17.41
833.021	50.18
833.198	64.51
833.374	33.79
833.551	48.13
833.728	21.5
833.905	9.22
834.082	52.22
834.259	109.57
834.436	130.05
834.612	1.02
834.789	-9.22
834.966	17.41
835.143	46.08
835.319	87.04
835.496	54.27
835.673	60.42
835.85	93.18
836.026	66.56
836.203	31.74
836.38	19.46
836.556	113.66
836.733	29.7
836.909	97.28
837.086	52.22
837.262	27.65
837.439	72.7
837.616	48.13
837.792	93.18
837.968	33.79
838.145	103.42
838.321	91.13
838.498	48.13
838.674	89.09
838.851	37.89
839.027	52.22
839.203	17.41
839.38	68.61
839.556	15.36
839.732	87.04
839.909	35.84
840.085	31.74
840.261	64.51
840.437	25.6
840.614	64.51
840.79	58.37
840.966	39.94
841.142	74.75
841.318	46.08
841.494	50.18
841.671	27.65
841.847	72.7
842.023	-1.02
842.199	56.32
842.375	107.52
842.551	25.6
842.727	41.98
842.903	44.03
843.079	-41.98
843.255	162.81
843.431	66.56
843.607	25.6
843.783	-11.26
843.959	76.8
844.134	64.51
844.31	23.55
844.486	7.17
844.662	17.41
844.838	-44.03
845.013	-3.07
845.189	82.94
845.365	-66.56
845.541	44.03
845.716	21.5
845.892	97.28
846.068	39.94
846.244	9.22
846.419	121.85
846.595	9.22
846.77	84.99
846.946	64.51
847.122	25.6
847.297	35.84
847.473	68.61
847.648	-29.7
847.824	66.56
847.999	17.41
848.175	-15.36
848.35	52.22
848.526	91.13
848.701	17.41
848.876	15.36
849.052	-11.26
849.227	84.99
849.403	19.46
849.578	-17.41
849.753	95.23
849.929	-1.02
850.104	35.84
850.279	23.55
850.454	9.22
850.63	11.26
850.805	11.26
850.98	15.36
851.155	60.42
851.33	35.84
851.505	-91.13
851.681	-9.22
851.856	-37.89
852.031	44.03
852.206	19.46
852.381	-29.7
852.556	-56.32
852.731	15.36
852.906	27.65
853.081	17.41
853.256	82.94
853.431	-46.08
853.606	93.18
853.781	13.31
853.956	-9.22
854.131	84.99
854.305	-60.42
854.48	19.46
854.655	-41.98
854.83	-23.55
855.005	-17.41
855.18	3.07
855.354	80.89
855.529	-7.17
855.704	-19.46
855.879	80.89
856.053	33.79
856.228	72.7
856.403	-31.74
856.577	-21.5
856.752	-64.51
856.926	-29.7
857.101	-9.22
857.276	19.46
857.45	29.7
857.625	70.65
857.799	-5.12
857.974	-15.36
858.148	-121.85
858.323	58.37
858.497	35.84
858.672	25.6
858.846	3.07
859.02	68.61
859.195	-9.22
859.369	50.18
859.543	3.07
859.718	-37.89
859.892	-13.31
860.066	-23.55
860.241	-1.02
860.415	27.65
860.589	29.7
860.763	31.74
860.938	-21.5
861.112	-39.94
861.286	3.07
861.46	11.26
861.634	21.5
861.808	50.18
861.982	-46.08
862.157	-56.32
862.331	-1.02
862.505	-7.17
862.679	-25.6
862.853	66.56
863.027	-5.12
863.201	103.42
863.375	3.07
863.549	107.52
863.722	-5.12
863.896	39.94
864.07	9.22
864.244	35.84
864.418	37.89
864.592	31.74
864.766	50.18
864.939	25.6
865.113	1.02
865.287	89.09
865.461	7.17
865.634	50.18
865.808	15.36
865.982	93.18
866.156	35.84
866.329	31.74
866.503	-39.94
866.676	31.74
866.85	-33.79
867.024	-3.07
867.197	9.22
867.371	66.56
867.544	-1.02
867.718	1.02
867.891	23.55
868.065	-46.08
868.238	-13.31
868.412	58.37
868.585	44.03
868.759	-17.41
868.932	-11.26
869.105	-56.32
869.279	35.84
869.452	-29.7
869.625	-5.12
869.799	9.22
869.972	5.12
870.145	5.12
870.319	39.94
870.492	-3.07
870.665	23.55
870.838	15.36
871.011	-15.36
871.185	17.41
871.358	7.17
871.531	1.02
871.704	-7.17
871.877	7.17
872.05	1.02
872.223	56.32
872.396	3.07
872.569	27.65
872.742	7.17
872.915	15.36
873.088	48.13
873.261	-48.13
873.434	44.03
873.607	-5.12
873.78	-33.79
873.953	-41.98
874.126	-13.31
874.299	33.79
874.471	7.17
874.644	-1.02
874.817	48.13
874.99	93.18
875.163	15.36
875.335	21.5
875.508	56.32
875.681	1.02
875.853	-41.98
876.026	7.17
876.199	33.79
876.371	-17.41
876.544	19.46
876.717	7.17
876.889	15.36
877.062	52.22
877.234	-1.02
877.407	15.36
877.579	64.51
877.752	-58.37
877.924	35.84
878.097	15.36
878.269	-5.12
878.442	5.12
878.614	-48.13
878.786	-17.41
878.959	-19.46
879.131	39.94
879.303	-72.7
879.476	-17.41
879.648	-48.13
879.82	-39.94
879.993	-1.02
880.165	46.08
880.337	-62.46
880.509	48.13
880.681	-33.79
880.854	-41.98
881.026	56.32
881.198	-29.7
881.37	-29.7
881.542	-31.74
881.714	33.79
881.886	27.65
882.058	-3.07
882.23	-33.79
882.402	19.46
882.574	-5.12
882.746	-15.36
882.918	37.89
883.09	-9.22
883.262	48.13
883.434	-80.89
883.606	-41.98
883.778	-1.02
883.95	33.79
884.122	21.5
884.293	48.13
884.465	33.79
884.637	-41.98
884.809	3.07
884.98	-13.31
885.152	-44.03
885.324	41.98
885.496	-17.41
885.667	-66.56
885.839	-39.94
886.011	-3.07
886.182	17.41
886.354	-25.6
886.525	-41.98
886.697	-27.65
886.869	-5.12
887.04	-68.61
887.212	46.08
887.383	74.75
887.555	-1.02
887.726	-9.22
887.897	48.13
888.069	-9.22
888.24	15.36
888.412	-17.41
888.583	-9.22
888.754	87.04
888.926	-5.12
889.097	23.55
889.268	-11.26
889.44	-7.17
889.611	-56.32
889.782	15.36
889.953	-115.71
890.125	31.74
890.296	-62.46
890.467	41.98
890.638	-29.7
890.809	-58.37
890.98	-60.42
891.151	-25.6
891.323	7.17
891.494	-76.8
891.665	37.89
891.836	-66.56
892.007	33.79
892.178	1.02
892.349	-37.89
892.52	1.02
892.691	7.17
892.862	-1.02
893.032	-13.31
893.203	41.98
893.374	19.46
893.545	19.46
893.716	-15.36
893.887	-7.17
894.057	-39.94
894.228	-3.07
894.399	-27.65
894.57	66.56
894.74	-25.6
894.911	11.26
895.082	41.98
895.253	-23.55
895.423	-15.36
895.594	-17.41
895.764	-21.5
895.935	-54.27
896.106	39.94
896.276	39.94
896.447	7.17
896.617	-58.37
896.788	68.61
896.958	-33.79
897.129	15.36
897.299	-31.74
897.47	-7.17
897.64	72.7
897.81	-89.09
897.981	64.51
898.151	-23.55
898.322	31.74
898.492	13.31
898.662	-25.6
898.832	-33.79
899.003	-9.22
899.173	-62.46
899.343	-23.55
899.513	-9.22
