Data from USB4F104151__152__14-19-29-108.txt Node

Date: Thu Mar 13 14:19:29 EDT 2025
User: louis
Spectrometer: USB4F10415
Trigger mode: 4
Integration Time (sec): 2.000000E-2
Scans to average: 1
Electric dark correction enabled: true
Nonlinearity correction enabled: false
Boxcar width: 0
XAxis mode: Wavelengths
Number of Pixels in Spectrum: 3648
>>>>>Begin Spectral Data<<<<<
178.204	-127.14
178.424	-127.14
178.644	-127.14
178.864	-104.62
179.084	-71.85
179.304	-0.17
179.524	-12.46
179.744	-92.33
179.964	46.93
180.184	63.32
180.404	-47.27
180.624	-57.51
180.844	48.98
181.064	3.93
181.283	53.08
181.503	-45.23
181.723	38.74
181.943	30.55
182.163	44.88
182.383	22.36
182.602	71.51
182.822	77.65
183.042	22.36
183.262	-45.23
183.482	-39.08
183.701	-4.27
183.921	8.02
184.141	-6.31
184.361	38.74
184.58	-18.6
184.8	-77.99
185.02	-8.36
185.239	36.69
185.459	-22.7
185.679	53.08
185.898	-41.13
186.118	-4.27
186.338	36.69
186.557	36.69
186.777	38.74
186.997	30.55
187.216	57.17
187.436	65.36
187.655	5.97
187.875	53.08
188.095	12.12
188.314	73.56
188.534	-6.31
188.753	-2.22
188.973	112.47
189.192	122.71
189.412	-12.46
189.631	28.5
189.851	20.31
190.07	65.36
190.29	-16.55
190.509	-49.32
190.729	77.65
190.948	20.31
191.168	77.65
191.387	98.13
191.607	-51.37
191.826	36.69
192.045	18.26
192.265	46.93
192.484	106.32
192.704	30.55
192.923	26.45
193.142	120.66
193.362	12.12
193.581	-8.36
193.8	61.27
194.02	8.02
194.239	3.93
194.458	20.31
194.678	-20.65
194.897	61.27
195.116	32.6
195.335	79.7
195.555	16.21
195.774	79.7
195.993	-18.6
196.212	63.32
196.432	57.17
196.651	65.36
196.87	3.93
197.089	100.18
197.308	-26.79
197.528	-26.79
197.747	-12.46
197.966	26.45
198.185	65.36
198.404	116.56
198.623	63.32
198.842	44.88
199.062	69.46
199.281	61.27
199.5	22.36
199.719	1.88
199.938	79.7
200.157	53.08
200.376	5.97
200.595	65.36
200.814	48.98
201.033	40.79
201.252	20.31
201.471	51.03
201.69	-26.79
201.909	61.27
202.128	-0.17
202.347	28.5
202.566	-34.99
202.785	98.13
203.004	1.88
203.223	83.8
203.442	-61.61
203.661	-4.27
203.879	65.36
204.098	38.74
204.317	61.27
204.536	44.88
204.755	3.93
204.974	53.08
205.193	63.32
205.411	77.65
205.63	-2.22
205.849	55.12
206.068	53.08
206.287	18.26
206.505	34.64
206.724	69.46
206.943	-10.41
207.162	94.04
207.381	24.4
207.599	-34.99
207.818	28.5
208.037	34.64
208.255	-12.46
208.474	46.93
208.693	30.55
208.911	-12.46
209.13	85.84
209.349	20.31
209.567	44.88
209.786	69.46
210.005	40.79
210.223	34.64
210.442	38.74
210.661	61.27
210.879	-45.23
211.098	-47.27
211.316	42.84
211.535	36.69
211.753	-10.41
211.972	3.93
212.191	20.31
212.409	69.46
212.628	10.07
212.846	-8.36
213.065	-24.75
213.283	65.36
213.502	26.45
213.72	26.45
213.938	26.45
214.157	-10.41
214.375	67.41
214.594	36.69
214.812	57.17
215.031	16.21
215.249	38.74
215.467	55.12
215.686	-0.17
215.904	79.7
216.122	89.94
216.341	12.12
216.559	-10.41
216.778	28.5
216.996	-18.6
217.214	-18.6
217.432	12.12
217.651	-61.61
217.869	59.22
218.087	40.79
218.306	65.36
218.524	106.32
218.742	20.31
218.96	106.32
219.179	16.21
219.397	87.89
219.615	94.04
219.833	28.5
220.051	-88.23
220.27	94.04
220.488	40.79
220.706	28.5
220.924	-4.27
221.142	28.5
221.36	96.08
221.578	-37.03
221.796	57.17
222.015	42.84
222.233	85.84
222.451	59.22
222.669	30.55
222.887	61.27
223.105	44.88
223.323	61.27
223.541	3.93
223.759	22.36
223.977	20.31
224.195	36.69
224.413	24.4
224.631	20.31
224.849	63.32
225.067	130.9
225.285	-10.41
225.503	69.46
225.721	3.93
225.939	79.7
226.157	38.74
226.375	94.04
226.592	10.07
226.81	81.75
227.028	22.36
227.246	65.36
227.464	44.88
227.682	71.51
227.9	57.17
228.117	40.79
228.335	85.84
228.553	77.65
228.771	36.69
228.989	110.42
229.206	77.65
229.424	20.31
229.642	18.26
229.86	73.56
230.077	-18.6
230.295	48.98
230.513	44.88
230.731	24.4
230.948	65.36
231.166	55.12
231.384	-10.41
231.601	28.5
231.819	46.93
232.037	-32.94
232.254	59.22
232.472	79.7
232.689	-47.27
232.907	12.12
233.125	14.17
233.342	-39.08
233.56	20.31
233.777	20.31
233.995	36.69
234.213	30.55
234.43	71.51
234.648	36.69
234.865	24.4
235.083	-51.37
235.3	77.65
235.518	89.94
235.735	102.23
235.953	-20.65
236.17	102.23
236.388	53.08
236.605	8.02
236.822	145.24
237.04	44.88
237.257	20.31
237.475	-53.42
237.692	100.18
237.909	-26.79
238.127	20.31
238.344	32.6
238.562	77.65
238.779	44.88
238.996	-0.17
239.214	87.89
239.431	14.17
239.648	57.17
239.865	30.55
240.083	40.79
240.3	16.21
240.517	-0.17
240.735	53.08
240.952	-2.22
241.169	94.04
241.386	3.93
241.603	147.28
241.821	10.07
242.038	73.56
242.255	75.6
242.472	32.6
242.689	46.93
242.907	59.22
243.124	-10.41
243.341	63.32
243.558	22.36
243.775	32.6
243.992	65.36
244.209	48.98
244.426	73.56
244.643	-2.22
244.86	-4.27
245.078	124.76
245.295	-12.46
245.512	-12.46
245.729	46.93
245.946	102.23
246.163	79.7
246.38	12.12
246.597	57.17
246.814	38.74
247.031	28.5
247.248	104.28
247.464	-8.36
247.681	12.12
247.898	81.75
248.115	87.89
248.332	38.74
248.549	46.93
248.766	10.07
248.983	20.31
249.2	61.27
249.417	65.36
249.633	48.98
249.85	36.69
250.067	-28.84
250.284	57.17
250.501	110.42
250.717	79.7
250.934	-28.84
251.151	20.31
251.368	63.32
251.585	44.88
251.801	79.7
252.018	81.75
252.235	14.17
252.451	-30.89
252.668	67.41
252.885	89.94
253.102	44.88
253.318	36.69
253.535	55.12
253.752	53.08
253.968	-26.79
254.185	-26.79
254.401	77.65
254.618	85.84
254.835	53.08
255.051	55.12
255.268	-8.36
255.484	53.08
255.701	44.88
255.917	96.08
256.134	44.88
256.351	38.74
256.567	85.84
256.784	53.08
257	-8.36
257.217	55.12
257.433	-4.27
257.65	34.64
257.866	63.32
258.082	-18.6
258.299	-18.6
258.515	8.02
258.732	48.98
258.948	-20.65
259.165	-28.84
259.381	-0.17
259.597	53.08
259.814	14.17
260.03	98.13
260.246	69.46
260.463	20.31
260.679	-0.17
260.895	12.12
261.112	77.65
261.328	-8.36
261.544	69.46
261.761	118.61
261.977	-28.84
262.193	20.31
262.409	-8.36
262.626	-22.7
262.842	-8.36
263.058	98.13
263.274	145.24
263.49	85.84
263.707	61.27
263.923	-63.66
264.139	28.5
264.355	-8.36
264.571	30.55
264.787	-18.6
265.004	-24.75
265.22	36.69
265.436	28.5
265.652	-34.99
265.868	20.31
266.084	-14.51
266.3	14.17
266.516	44.88
266.732	102.23
266.948	61.27
267.164	28.5
267.38	-41.13
267.596	75.6
267.812	96.08
268.028	12.12
268.244	-61.61
268.46	-0.17
268.676	73.56
268.892	65.36
269.108	-18.6
269.324	30.55
269.54	-10.41
269.756	94.04
269.972	26.45
270.188	61.27
270.403	-45.23
270.619	85.84
270.835	122.71
271.051	77.65
271.267	63.32
271.483	48.98
271.698	-8.36
271.914	3.93
272.13	-32.94
272.346	28.5
272.562	3.93
272.777	36.69
272.993	48.98
273.209	24.4
273.425	116.56
273.64	12.12
273.856	57.17
274.072	16.21
274.287	71.51
274.503	3.93
274.719	22.36
274.934	38.74
275.15	-53.42
275.366	85.84
275.581	34.64
275.797	-2.22
276.012	40.79
276.228	-4.27
276.444	14.17
276.659	81.75
276.875	-16.55
277.09	65.36
277.306	34.64
277.521	102.23
277.737	12.12
277.952	100.18
278.168	22.36
278.383	-6.31
278.599	75.6
278.814	73.56
279.03	63.32
279.245	53.08
279.461	-37.03
279.676	46.93
279.892	8.02
280.107	28.5
280.322	18.26
280.538	36.69
280.753	-4.27
280.969	59.22
281.184	-26.79
281.399	61.27
281.615	16.21
281.83	91.99
282.045	-4.27
282.26	-20.65
282.476	-10.41
282.691	67.41
282.906	-2.22
283.122	24.4
283.337	-22.7
283.552	98.13
283.767	89.94
283.983	104.28
284.198	-18.6
284.413	14.17
284.628	-34.99
284.843	3.93
285.058	122.71
285.274	36.69
285.489	106.32
285.704	36.69
285.919	5.97
286.134	53.08
286.349	122.71
286.564	65.36
286.779	34.64
286.995	38.74
287.21	38.74
287.425	87.89
287.64	20.31
287.855	18.26
288.07	-41.13
288.285	65.36
288.5	57.17
288.715	-12.46
288.93	-2.22
289.145	12.12
289.36	67.41
289.575	22.36
289.79	-8.36
290.004	55.12
290.219	155.47
290.434	20.31
290.649	-37.03
290.864	40.79
291.079	10.07
291.294	40.79
291.509	-0.17
291.724	57.17
291.938	57.17
292.153	122.71
292.368	61.27
292.583	40.79
292.798	28.5
293.012	44.88
293.227	85.84
293.442	53.08
293.657	108.37
293.871	32.6
294.086	-41.13
294.301	12.12
294.516	36.69
294.73	-4.27
294.945	28.5
295.16	44.88
295.374	85.84
295.589	69.46
295.804	3.93
296.018	46.93
296.233	106.32
296.447	12.12
296.662	44.88
296.877	110.42
297.091	94.04
297.306	36.69
297.52	-24.75
297.735	46.93
297.949	-26.79
298.164	112.47
298.378	51.03
298.593	-18.6
298.807	3.93
299.022	44.88
299.236	77.65
299.451	32.6
299.665	46.93
299.88	-59.56
300.094	61.27
300.309	3.93
300.523	63.32
300.737	73.56
300.952	3.93
301.166	63.32
301.381	36.69
301.595	57.17
301.809	10.07
302.024	77.65
302.238	46.93
302.452	85.84
302.667	44.88
302.881	48.98
303.095	-34.99
303.309	42.84
303.524	-37.03
303.738	5.97
303.952	128.85
304.166	-4.27
304.381	3.93
304.595	75.6
304.809	55.12
305.023	-2.22
305.237	69.46
305.452	67.41
305.666	20.31
305.88	57.17
306.094	42.84
306.308	55.12
306.522	46.93
306.736	71.51
306.95	79.7
307.164	126.8
307.379	30.55
307.593	12.12
307.807	83.8
308.021	79.7
308.235	38.74
308.449	69.46
308.663	-26.79
308.877	81.75
309.091	79.7
309.305	44.88
309.519	20.31
309.733	55.12
309.947	36.69
310.161	61.27
310.374	42.84
310.588	87.89
310.802	-14.51
311.016	57.17
311.23	-28.84
311.444	-0.17
311.658	91.99
311.872	46.93
312.085	110.42
312.299	-10.41
312.513	36.69
312.727	28.5
312.941	-45.23
313.154	48.98
313.368	-26.79
313.582	22.36
313.796	20.31
314.009	-18.6
314.223	94.04
314.437	63.32
314.651	38.74
314.864	1.88
315.078	16.21
315.292	73.56
315.505	81.75
315.719	44.88
315.933	3.93
316.146	46.93
316.36	-53.42
316.573	22.36
316.787	34.64
317.001	8.02
317.214	-14.51
317.428	42.84
317.641	14.17
317.855	51.03
318.068	34.64
318.282	96.08
318.495	69.46
318.709	69.46
318.922	12.12
319.136	61.27
319.349	46.93
319.563	108.37
319.776	16.21
319.99	55.12
320.203	71.51
320.417	53.08
320.63	30.55
320.843	98.13
321.057	57.17
321.27	14.17
321.483	57.17
321.697	24.4
321.91	87.89
322.124	126.8
322.337	-12.46
322.55	40.79
322.763	75.6
322.977	-41.13
323.19	53.08
323.403	61.27
323.617	55.12
323.83	32.6
324.043	-2.22
324.256	40.79
324.469	-90.28
324.683	106.32
324.896	22.36
325.109	36.69
325.322	-12.46
325.535	-2.22
325.748	79.7
325.962	40.79
326.175	48.98
326.388	85.84
326.601	96.08
326.814	-24.75
327.027	-18.6
327.24	96.08
327.453	38.74
327.666	85.84
327.879	40.79
328.092	34.64
328.305	69.46
328.518	53.08
328.731	46.93
328.944	20.31
329.157	91.99
329.37	67.41
329.583	108.37
329.796	89.94
330.009	22.36
330.222	71.51
330.435	46.93
330.648	40.79
330.861	30.55
331.073	126.8
331.286	32.6
331.499	44.88
331.712	40.79
331.925	26.45
332.138	63.32
332.35	48.98
332.563	53.08
332.776	24.4
332.989	26.45
333.202	16.21
333.414	61.27
333.627	30.55
333.84	-16.55
334.053	145.24
334.265	-2.22
334.478	44.88
334.691	53.08
334.903	12.12
335.116	44.88
335.329	-51.37
335.541	61.27
335.754	26.45
335.966	81.75
336.179	79.7
336.392	-26.79
336.604	81.75
336.817	3.93
337.029	10.07
337.242	-16.55
337.454	14.17
337.667	40.79
337.88	128.85
338.092	32.6
338.305	104.28
338.517	20.31
338.729	67.41
338.942	61.27
339.154	61.27
339.367	32.6
339.579	77.65
339.792	22.36
340.004	94.04
340.217	65.36
340.429	61.27
340.641	5.97
340.854	14.17
341.066	61.27
341.278	73.56
341.491	106.32
341.703	30.55
341.915	46.93
342.128	87.89
342.34	71.51
342.552	-2.22
342.764	94.04
342.977	20.31
343.189	46.93
343.401	122.71
343.613	22.36
343.826	139.09
344.038	42.84
344.25	77.65
344.462	14.17
344.674	83.8
344.886	-18.6
345.099	14.17
345.311	22.36
345.523	-20.65
345.735	-18.6
345.947	102.23
346.159	89.94
346.371	28.5
346.583	18.26
346.795	120.66
347.007	36.69
347.219	44.88
347.431	3.93
347.643	61.27
347.855	71.51
348.067	87.89
348.279	32.6
348.491	46.93
348.703	22.36
348.915	-20.65
349.127	57.17
349.339	104.28
349.551	53.08
349.763	89.94
349.975	48.98
350.187	112.47
350.399	26.45
350.61	118.61
350.822	40.79
351.034	112.47
351.246	-0.17
351.458	30.55
351.669	55.12
351.881	151.38
352.093	77.65
352.305	63.32
352.517	48.98
352.728	73.56
352.94	-12.46
353.152	61.27
353.363	-6.31
353.575	-24.75
353.787	20.31
353.999	44.88
354.21	63.32
354.422	102.23
354.633	48.98
354.845	-43.18
355.057	16.21
355.268	71.51
355.48	96.08
355.692	89.94
355.903	77.65
356.115	5.97
356.326	61.27
356.538	61.27
356.749	91.99
356.961	102.23
357.172	110.42
357.384	-12.46
357.595	102.23
357.807	69.46
358.018	16.21
358.23	102.23
358.441	89.94
358.653	75.6
358.864	-24.75
359.075	-22.7
359.287	30.55
359.498	81.75
359.709	46.93
359.921	18.26
360.132	40.79
360.344	71.51
360.555	30.55
360.766	69.46
360.977	-2.22
361.189	108.37
361.4	-18.6
361.611	89.94
361.823	81.75
362.034	69.46
362.245	-22.7
362.456	38.74
362.667	-43.18
362.879	22.36
363.09	34.64
363.301	61.27
363.512	81.75
363.723	-16.55
363.935	63.32
364.146	112.47
364.357	91.99
364.568	63.32
364.779	-16.55
364.99	32.6
365.201	30.55
365.412	46.93
365.623	12.12
365.834	77.65
366.045	-26.79
366.256	61.27
366.467	63.32
366.678	94.04
366.889	20.31
367.1	65.36
367.311	71.51
367.522	48.98
367.733	-12.46
367.944	110.42
368.155	79.7
368.366	63.32
368.577	94.04
368.788	12.12
368.999	36.69
369.209	40.79
369.42	112.47
369.631	122.71
369.842	38.74
370.053	65.36
370.264	104.28
370.474	-51.37
370.685	55.12
370.896	30.55
371.107	48.98
371.317	120.66
371.528	38.74
371.739	24.4
371.95	63.32
372.16	53.08
372.371	67.41
372.582	57.17
372.792	16.21
373.003	3.93
373.214	85.84
373.424	77.65
373.635	12.12
373.846	61.27
374.056	-14.51
374.267	40.79
374.477	77.65
374.688	36.69
374.898	81.75
375.109	38.74
375.319	77.65
375.53	36.69
375.74	-0.17
375.951	12.12
376.161	48.98
376.372	102.23
376.582	51.03
376.793	44.88
377.003	3.93
377.214	85.84
377.424	79.7
377.635	28.5
377.845	137.04
378.055	14.17
378.266	32.6
378.476	69.46
378.686	53.08
378.897	40.79
379.107	44.88
379.317	24.4
379.528	94.04
379.738	36.69
379.948	63.32
380.158	110.42
380.369	55.12
380.579	46.93
380.789	69.46
380.999	71.51
381.21	102.23
381.42	98.13
381.63	61.27
381.84	81.75
382.05	59.22
382.261	91.99
382.471	26.45
382.681	63.32
382.891	79.7
383.101	79.7
383.311	24.4
383.521	8.02
383.731	98.13
383.941	40.79
384.151	126.8
384.361	112.47
384.571	40.79
384.781	61.27
384.991	171.86
385.201	104.28
385.411	118.61
385.621	102.23
385.831	36.69
386.041	-12.46
386.251	69.46
386.461	122.71
386.671	5.97
386.881	61.27
387.091	55.12
387.301	55.12
387.511	94.04
387.72	61.27
387.93	57.17
388.14	69.46
388.35	79.7
388.56	12.12
388.769	57.17
388.979	87.89
389.189	110.42
389.399	79.7
389.609	94.04
389.818	175.95
390.028	36.69
390.238	114.52
390.447	30.55
390.657	61.27
390.867	67.41
391.076	46.93
391.286	28.5
391.496	122.71
391.705	44.88
391.915	26.45
392.125	141.14
392.334	69.46
392.544	192.34
392.753	77.65
392.963	83.8
393.172	53.08
393.382	71.51
393.591	14.17
393.801	53.08
394.01	44.88
394.22	69.46
394.429	69.46
394.639	77.65
394.848	94.04
395.058	22.36
395.267	94.04
395.477	63.32
395.686	178
395.895	186.19
396.105	126.8
396.314	141.14
396.524	130.9
396.733	40.79
396.942	122.71
397.152	102.23
397.361	102.23
397.57	63.32
397.78	167.76
397.989	147.28
398.198	110.42
398.407	67.41
398.617	73.56
398.826	171.86
399.035	137.04
399.244	147.28
399.453	79.7
399.663	141.14
399.872	114.52
400.081	102.23
400.29	126.8
400.499	116.56
400.708	175.95
400.917	110.42
401.127	110.42
401.336	32.6
401.545	218.96
401.754	169.81
401.963	184.15
402.172	159.57
402.381	126.8
402.59	94.04
402.799	106.32
403.008	135
403.217	182.1
403.426	139.09
403.635	180.05
403.844	81.75
404.053	169.81
404.262	48.98
404.471	249.68
404.68	233.3
404.888	169.81
405.097	206.67
405.306	175.95
405.515	208.72
405.724	151.38
405.933	192.34
406.142	214.87
406.35	212.82
406.559	135
406.768	196.43
406.977	196.43
407.185	239.44
407.394	241.49
407.603	202.58
407.812	198.48
408.02	327.5
408.229	261.97
408.438	298.83
408.646	313.17
408.855	259.92
409.064	251.73
409.272	218.96
409.481	319.31
409.69	323.41
409.898	360.27
410.107	397.14
410.315	419.66
410.524	358.22
410.733	352.08
410.941	464.72
411.15	421.71
411.358	470.86
411.567	524.11
411.775	546.64
411.984	472.91
412.192	599.88
412.401	520.01
412.609	565.07
412.818	624.46
413.026	683.85
413.234	608.08
413.443	696.14
413.651	560.97
413.86	659.28
414.068	737.1
414.276	782.15
414.485	722.76
414.693	851.78
414.901	937.8
415.11	819.02
415.318	792.39
415.526	948.04
415.734	888.65
415.943	929.61
416.151	1003.33
416.359	1032.01
416.567	1005.38
416.776	1036.1
416.984	1044.29
417.192	1156.93
417.4	1183.56
417.608	1212.23
417.817	1238.85
418.025	1351.49
418.233	1404.74
418.441	1314.63
418.649	1535.81
418.857	1589.05
419.065	1503.04
419.273	1492.8
419.481	1634.11
419.689	1744.7
419.897	1867.58
420.105	1761.08
420.313	1873.72
420.521	1945.4
420.729	2043.7
420.937	1969.98
421.145	2049.85
421.353	2232.12
421.561	2264.88
421.769	2299.7
421.977	2420.53
422.185	2553.65
422.393	2567.98
422.601	2666.28
422.809	2649.9
423.017	2670.38
423.224	2793.26
423.432	2998.06
423.64	3002.15
423.848	3204.9
424.056	3280.68
424.263	3358.5
424.471	3421.99
424.679	3370.79
424.887	3659.55
425.094	3673.89
425.302	3661.6
425.51	3970.84
425.718	4083.48
425.925	4085.53
426.133	4306.71
426.341	4329.24
426.548	4665.1
426.756	4710.16
426.964	4771.6
427.171	5060.36
427.379	5111.56
427.586	5158.66
427.794	5216.01
428.001	5682.94
428.209	5904.12
428.417	5799.68
428.624	5971.71
428.832	6260.47
429.039	6252.28
429.247	6070.01
429.454	6618.86
429.662	7206.63
429.869	6659.82
430.076	7118.57
430.284	6924.01
430.491	7290.6
430.699	7630.56
430.906	7673.57
431.114	7655.14
431.321	8003.29
431.528	8089.31
431.736	8771.28
431.943	9266.89
432.15	8799.95
432.358	8896.21
432.565	9324.23
432.772	9483.97
432.979	9899.71
433.187	10143.42
433.394	10022.59
433.601	10628.79
433.808	10968.75
434.016	10725.04
434.223	11237.03
434.43	11847.33
434.637	11407.02
434.844	12246.68
435.052	12422.81
435.259	12347.03
435.466	12848.79
435.673	12512.92
435.88	13188.75
436.087	13987.46
436.294	14134.91
436.501	13741.7
436.708	13923.97
436.915	14423.67
437.122	14794.36
437.329	14863.99
437.537	15523.43
437.743	15734.37
437.95	15425.13
438.157	16412.25
438.364	16967.25
438.571	16608.86
438.778	16916.05
438.985	18734.65
439.192	18052.67
439.399	18300.48
439.606	18058.82
439.813	18845.24
440.02	19834.41
440.227	19760.68
440.433	19590.7
440.64	20264.48
440.847	19990.05
441.054	20602.39
441.261	22083.08
441.467	21603.85
441.674	22187.52
441.881	22877.69
442.088	22631.93
442.294	22455.81
442.501	23070.2
442.708	23834.09
442.914	24514.02
443.121	25562.58
443.328	24929.75
443.534	26451.39
443.741	25789.9
443.948	25310.68
444.154	27524.53
444.361	27221.43
444.568	27164.09
444.774	27329.97
444.981	27733.42
445.187	28450.21
445.394	29283.73
445.6	29214.1
445.807	32025.96
446.013	30762.37
446.22	31329.66
446.426	32542.05
446.633	32449.89
446.839	33391.96
447.046	32111.98
447.252	34106.7
447.459	33934.67
447.665	34055.5
447.871	35267.9
448.078	36971.81
448.284	35183.93
448.491	36177.2
448.697	37635.35
448.903	38065.42
449.11	37895.44
449.316	37512.47
449.522	38083.86
449.728	39243.01
449.935	39625.98
450.141	39507.19
450.347	40512.75
450.553	39453.95
450.76	39623.93
450.966	40715.5
451.172	40166.64
451.378	41479.39
451.584	40752.36
451.791	41755.86
451.997	41557.21
452.203	42069.2
452.409	42075.35
452.615	41919.7
452.821	40316.14
453.027	40103.15
453.233	42212.56
453.44	40373.49
453.646	41026.79
453.852	40854.76
454.058	41835.73
454.264	40453.36
454.47	41555.16
454.676	40301.81
454.882	41796.82
455.088	38257.93
455.294	38755.59
455.5	39562.49
455.705	39759.09
455.911	38171.92
456.117	37377.31
456.323	36928.8
456.529	34796.87
456.735	36621.61
456.941	35636.53
457.147	35061.05
457.352	34084.17
457.558	33502.55
457.764	33713.49
457.97	32974.17
458.176	32327.02
458.381	32540
458.587	30797.18
458.793	30942.59
458.999	29322.65
459.204	31358.33
459.41	30522.76
459.616	28233.13
459.821	28487.07
460.027	28343.72
460.233	27725.23
460.438	26416.58
460.644	26648
460.85	25726.41
461.055	25228.76
461.261	25023.96
461.466	23346.67
461.672	22439.42
461.878	23854.57
462.083	22498.81
462.289	22109.7
462.494	21825.03
462.7	20809.24
462.905	20418.08
463.111	21239.31
463.316	21120.53
463.522	20616.73
463.727	20723.23
463.932	20719.13
464.138	20530.72
464.343	20475.42
464.549	19781.16
464.754	20723.23
464.959	20344.35
465.165	20149.79
465.37	19602.99
465.575	18888.25
465.781	19820.07
465.986	19738.15
466.191	18990.64
466.397	18787.89
466.602	17567.31
466.807	18560.57
467.012	18437.69
467.218	18333.25
467.423	18171.46
467.628	18384.44
467.833	19199.54
468.038	18394.68
468.244	17655.37
468.449	18523.71
468.654	17880.64
468.859	17569.35
469.064	17681.99
469.269	17049.17
469.474	17192.53
469.679	17305.17
469.885	16637.53
470.09	16844.37
470.295	17184.34
470.5	16463.45
470.705	16528.99
470.91	16371.29
471.115	15978.08
471.32	16236.13
471.525	16176.73
471.73	16100.96
471.935	15834.72
472.139	15308.4
472.344	15621.73
472.549	15423.08
472.754	15337.07
472.959	14786.16
473.164	14530.17
473.369	14466.68
473.574	14939.76
473.778	14696.05
473.983	14657.14
474.188	14481.02
474.393	14153.34
474.598	13856.39
474.802	13981.31
475.007	13665.92
475.212	13813.38
475.417	13215.37
475.621	13246.09
475.826	13215.37
476.031	12795.54
476.235	12977.81
476.44	12922.51
476.645	12469.91
476.849	12799.63
477.054	12682.9
477.259	12570.26
477.463	12275.35
477.668	12062.37
477.872	12132
478.077	11826.85
478.282	11722.4
478.486	11763.36
478.691	11392.68
478.895	11556.52
479.1	11501.22
479.304	11458.21
479.509	11177.64
479.713	11472.55
479.918	11210.41
480.122	10770.1
480.326	11120.3
480.531	11210.41
480.735	10876.59
480.94	10858.16
481.144	11177.64
481.348	10682.03
481.553	10749.62
481.757	10528.44
481.961	10768.05
482.166	10868.4
482.37	10903.21
482.574	10526.39
482.778	10598.07
482.983	10768.05
483.187	10514.1
483.391	10550.96
483.595	10682.03
483.8	10546.87
484.004	10624.69
484.208	10768.05
484.412	10600.12
484.616	10751.67
484.821	10520.24
485.025	10479.29
485.229	10585.78
485.433	10647.22
485.637	10489.53
485.841	10489.53
486.045	10483.38
486.249	10669.75
486.453	10520.24
486.657	10522.29
486.861	10761.91
487.065	10133.18
487.269	10548.92
487.473	10299.06
487.677	10684.08
487.881	10661.55
488.085	10333.88
488.289	10616.5
488.493	10536.63
488.697	10677.94
488.901	10481.33
489.105	10383.03
489.309	10610.36
489.512	10622.64
489.716	10520.24
489.92	10698.42
490.124	10739.38
490.328	10854.06
490.531	10626.74
490.735	10729.14
490.939	10759.86
491.143	10788.53
491.346	10657.46
491.55	10991.28
491.754	11017.9
491.958	11065
492.161	11017.9
492.365	11044.52
492.569	11177.64
492.772	11112.11
492.976	11353.77
493.18	11359.91
493.383	11402.92
493.587	11380.39
493.79	11515.56
493.994	11255.47
494.197	11472.55
494.401	11620
494.605	11652.77
494.808	12005.02
495.012	11925.15
495.215	12037.79
495.419	12048.03
495.622	11873.95
495.825	12168.86
496.029	12138.14
496.232	12383.9
496.436	12250.78
496.639	12883.6
496.843	12635.8
497.046	12996.24
497.249	12811.92
497.453	13059.73
497.656	12949.14
497.859	13237.9
498.063	13135.5
498.266	13725.32
498.469	13694.6
498.673	13622.92
498.876	14050.94
499.079	14245.5
499.282	14300.8
499.485	14620.28
499.689	14401.15
499.892	14536.31
500.095	14536.31
500.298	15124.08
500.501	14722.68
500.705	15435.37
500.908	15363.69
501.111	15435.37
501.314	15679.08
501.517	15918.69
501.72	15785.57
501.923	15941.22
502.126	16131.68
502.329	16711.25
502.532	16778.84
502.735	16776.79
502.938	16873.04
503.141	17190.48
503.344	17393.23
503.547	17624.65
503.75	17796.68
503.953	17899.08
504.156	18085.44
504.359	18271.81
504.562	18343.49
504.765	19050.03
504.968	18939.44
505.17	19326.51
505.373	19111.47
505.576	19496.49
505.779	19633.71
505.982	19914.28
506.185	20057.64
506.387	20182.56
506.59	20069.92
506.793	20805.14
506.996	20620.83
507.198	21104.15
507.401	20928.02
507.604	21483.02
507.807	21753.35
508.009	21833.22
508.212	21999.11
508.415	22511.1
508.617	22449.66
508.82	22785.53
509.022	22613.5
509.225	23072.25
509.428	23453.17
509.63	23762.41
509.833	23442.93
510.035	24217.06
510.238	24120.81
510.44	24808.92
510.643	24698.33
510.845	24784.35
511.048	25009.62
511.25	25437.65
511.453	25476.56
511.655	26324.42
511.858	25714.12
512.06	26033.61
512.262	26557.89
512.465	26435.01
512.667	26766.78
512.87	27276.73
513.072	27123.13
513.274	27919.79
513.477	28005.8
513.679	28171.69
513.881	28683.68
514.084	28962.2
514.286	28497.31
514.488	29007.26
514.69	29769.1
514.893	29941.13
515.095	30133.64
515.297	30397.83
515.499	30150.03
515.701	30797.18
515.904	31079.8
516.106	31341.94
516.308	31499.64
516.51	32021.87
516.712	31468.92
516.914	32363.88
517.116	32554.34
517.318	32728.42
517.52	32865.63
517.722	33082.72
517.925	33414.49
518.127	33781.07
518.329	33922.38
518.531	33846.61
518.733	34583.88
518.935	35069.25
519.136	34669.89
519.338	35407.16
519.54	35493.18
519.742	36154.67
519.944	35861.81
520.146	36441.39
520.348	36502.82
520.55	36908.32
520.752	36767.01
520.954	37774.61
521.155	37145.89
521.357	37989.65
521.559	37948.69
521.761	38696.2
521.963	38395.15
522.164	38683.91
522.366	38497.55
522.568	38982.91
522.77	39386.36
522.971	39789.81
523.173	39484.67
523.375	40338.67
523.576	40062.19
523.778	39927.03
523.98	40672.49
524.181	40821.99
524.383	40475.88
524.584	41407.71
524.786	41657.56
524.988	41385.18
525.189	41463
525.391	41692.38
525.592	41897.17
525.794	42474.7
525.995	42345.68
526.197	42730.7
526.398	42335.44
526.6	42814.66
526.801	43185.35
527.003	43162.82
527.204	43259.07
527.406	43340.99
527.607	43822.26
527.808	43877.56
528.01	43271.36
528.211	43297.98
528.412	44209.33
528.614	43891.9
528.815	44145.84
529.016	44653.74
529.218	44049.59
529.419	44131.51
529.62	44233.91
529.822	43975.86
530.023	44438.7
530.224	44670.12
530.425	44694.7
530.626	44453.04
530.828	44547.25
531.029	45233.32
531.23	44813.48
531.431	44868.78
531.632	44862.63
531.833	44887.21
532.035	44694.7
532.236	44948.65
532.437	45685.92
532.638	45026.47
532.839	45266.08
533.04	45456.54
533.241	44674.22
533.442	45534.37
533.643	45429.92
533.844	45348
534.045	45245.6
534.246	44897.45
534.447	45368.48
534.648	45049
534.849	45614.24
535.05	45204.64
535.251	45200.55
535.451	45005.99
535.652	44962.98
535.853	45132.96
536.054	45366.43
536.255	45571.23
536.456	45014.18
536.657	45438.11
536.857	45057.19
537.058	44895.4
537.259	45425.82
537.46	45556.89
537.66	44848.3
537.861	45556.89
538.062	45474.98
538.263	45515.93
538.463	44885.16
538.664	45178.02
538.865	45376.67
539.065	45595.81
539.266	45073.57
539.466	45194.4
539.667	44569.77
539.868	45460.64
540.068	44940.46
540.269	45077.67
540.469	45163.68
540.67	45030.57
540.87	45468.83
541.071	45196.45
541.271	44997.8
541.472	45159.59
541.672	45147.3
541.873	44555.44
542.073	44602.54
542.274	44999.85
542.474	44721.32
542.675	44866.73
542.875	44907.69
543.075	44569.77
543.276	44479.66
543.476	45180.07
543.676	44700.84
543.877	44725.42
544.077	44776.62
544.277	44450.99
544.478	44778.67
544.678	45114.53
544.878	44491.95
545.078	44899.5
545.279	44270.77
545.479	44391.6
545.679	44788.91
545.879	44651.69
546.079	44385.46
546.28	44192.95
546.48	44090.55
546.68	44520.62
546.88	44371.12
547.08	44786.86
547.28	44483.76
547.48	44248.24
547.68	44410.03
547.88	44104.88
548.081	44803.24
548.281	44248.24
548.481	44582.06
548.681	44793
548.881	44551.34
549.081	44434.61
549.28	44108.98
549.48	44190.9
549.68	44367.02
549.88	44909.74
550.08	44029.11
550.28	44569.77
550.48	43967.67
550.68	44278.96
550.88	44326.06
551.08	44336.3
551.279	44002.49
551.479	44182.71
551.679	44078.26
551.879	43836.6
552.079	43992.25
552.278	43787.45
552.478	43992.25
552.678	44240.05
552.878	44190.9
553.077	44227.76
553.277	43764.92
553.477	44614.83
553.676	43523.26
553.876	43926.71
554.076	43842.74
554.275	43486.4
554.475	43183.3
554.674	43789.5
554.874	43902.14
555.074	43334.85
555.273	43599.04
555.473	43654.33
555.672	43220.16
555.872	43646.14
556.071	43400.38
556.271	44027.06
556.47	43465.92
556.67	42908.87
556.869	43267.27
557.068	43625.66
557.268	42755.27
557.467	43422.91
557.667	42777.8
557.866	43033.8
558.065	42812.62
558.265	43132.1
558.464	42966.21
558.663	43031.75
558.863	42816.71
559.062	43388.1
559.261	42691.79
559.461	43207.87
559.66	42253.52
559.859	42691.79
560.058	42556.62
560.258	42949.83
560.457	42276.05
560.656	42687.69
560.855	42169.55
561.054	42675.4
561.253	41987.28
561.453	42036.44
561.652	42228.94
561.851	42112.21
562.05	42120.4
562.249	41764.06
562.448	42321.1
562.647	42095.83
562.846	42030.29
563.045	41915.61
563.244	41618.65
563.443	41985.24
563.642	41272.54
563.841	41270.5
564.04	41387.23
564.239	41407.71
564.438	41086.18
564.637	41444.57
564.836	41598.17
565.035	41065.7
565.234	41311.45
565.432	40889.57
565.631	40948.96
565.83	40887.53
566.029	40686.82
566.228	40404.2
566.427	40381.68
566.625	40262.89
566.824	39881.97
567.023	40697.06
567.222	39415.04
567.42	40398.06
567.619	40133.87
567.818	40068.34
568.016	39994.61
568.215	40074.48
568.414	39843.06
568.612	40101.11
568.811	39871.73
569.01	39421.18
569.208	39363.84
569.407	39415.04
569.605	39224.57
569.804	39845.11
570.002	39042.31
570.201	39255.29
570.4	39230.72
570.598	38597.9
570.797	39154.94
570.995	39021.83
571.193	38589.7
571.392	38456.59
571.59	38626.57
571.789	38735.11
571.987	38501.64
572.186	38505.74
572.384	38436.11
572.582	38223.12
572.781	38552.84
572.979	37997.84
573.177	38237.45
573.376	38112.53
573.574	37721.37
573.772	38182.16
573.971	37362.97
574.169	37365.02
574.367	37248.28
574.565	37405.98
574.763	37641.49
574.962	37489.95
575.16	36994.34
575.358	37440.79
575.556	36961.57
575.754	37340.44
575.952	36721.96
576.151	37135.65
576.349	36349.23
576.547	37014.82
576.745	36889.89
576.943	36807.97
577.141	36381.99
577.339	36496.68
577.537	36324.65
577.735	35925.3
577.933	36003.12
578.131	35956.02
578.329	36101.42
578.527	35571
578.725	35841.33
578.923	35919.15
579.121	35650.87
579.319	35652.92
579.516	35941.68
579.714	35427.64
579.912	35097.92
580.11	35292.47
580.308	35300.67
580.506	34966.85
580.704	34280.78
580.901	35124.54
581.099	34954.56
581.297	34938.18
581.495	34389.32
581.692	34372.94
581.89	34372.94
582.088	34673.99
582.285	34100.56
582.483	34432.33
582.681	34512.2
582.878	33981.77
583.076	33588.56
583.274	34223.44
583.471	33600.85
583.669	33666.39
583.866	33437.02
584.064	33903.95
584.262	33230.17
584.459	33674.58
584.657	33269.08
584.854	33207.64
585.052	33066.33
585.249	32941.41
585.447	33373.53
585.644	33033.57
585.841	32849.25
586.039	32947.55
586.236	32660.83
586.434	32535.91
586.631	32408.93
586.828	32472.42
587.026	32324.97
587.223	32365.93
587.42	31759.73
587.618	32298.34
587.815	32200.04
588.012	31810.93
588.21	31487.35
588.407	31935.85
588.604	31550.84
588.801	31432.05
588.999	31438.2
589.196	31309.18
589.393	31102.33
589.59	31221.11
589.787	31112.57
589.984	30954.88
590.182	30643.59
590.379	30795.14
590.576	31053.18
590.773	30633.35
590.97	30479.75
591.167	30473.6
591.364	30240.14
591.561	30449.03
591.758	29963.66
591.955	29967.76
592.152	30289.29
592.349	30158.22
592.546	30010.76
592.743	29908.36
592.94	29054.36
593.137	29951.37
593.334	29797.77
593.531	29302.17
593.727	29382.04
593.924	29306.26
594.121	29189.53
594.318	29283.73
594.515	28917.15
594.712	29185.43
594.908	28911
595.105	29089.18
595.302	28700.06
595.499	28982.68
595.696	28591.52
595.892	28120.49
596.089	28468.64
596.286	28781.98
596.482	28399.01
596.679	28300.71
596.876	28196.26
597.072	28126.63
597.269	27979.18
597.466	27835.82
597.662	27966.89
597.859	27809.2
598.055	27864.49
598.252	27463.09
598.448	27708.85
598.645	27426.23
598.841	27131.32
599.038	27276.73
599.234	27463.09
599.431	26985.91
599.627	27338.16
599.824	27106.74
600.02	26693.05
600.217	26592.7
600.413	26897.85
600.609	26359.24
600.806	26529.22
601.002	26478.02
601.198	26443.2
601.395	26082.76
601.591	26242.5
601.787	26070.47
601.984	25957.83
602.18	26308.04
602.376	25640.4
602.572	26025.42
602.769	25689.55
602.965	25566.67
603.161	25634.25
603.357	25437.65
603.553	25476.56
603.75	25681.36
603.946	25097.69
604.142	25540.05
604.338	25114.07
604.534	24921.56
604.73	24919.51
604.926	24866.27
605.122	24935.9
605.318	24704.48
605.514	24446.43
605.71	24815.07
605.906	24360.42
606.102	24370.66
606.298	24606.17
606.494	24212.96
606.69	24368.61
606.886	24493.54
607.082	24153.57
607.278	24294.88
607.474	23879.14
607.67	24317.41
607.866	23907.82
608.062	24194.53
608.257	23952.87
608.453	23600.62
608.649	23868.91
608.845	23557.61
609.041	23729.64
609.236	23741.93
609.432	23379.44
609.628	23631.34
609.824	23514.61
610.019	23643.63
610.215	23430.64
610.411	23252.47
610.606	23213.56
610.802	23420.4
610.998	23156.21
611.193	23129.59
611.389	22986.23
611.584	22990.33
611.78	22949.37
611.976	22904.31
612.171	22863.35
612.367	22816.25
612.562	22955.51
612.758	22801.91
612.953	22695.42
613.149	23008.76
613.344	22697.47
613.539	23004.66
613.735	22801.91
613.93	22674.94
614.126	22259.2
614.321	22640.12
614.517	22572.54
614.712	22423.04
614.907	22486.53
615.103	22449.66
615.298	22244.87
615.493	22437.37
615.688	21859.85
615.884	22578.68
616.079	21870.09
616.274	22173.19
616.47	21829.13
616.665	22007.3
616.86	21868.04
617.055	21691.91
617.25	21845.51
617.445	21761.55
617.641	21571.08
617.836	21755.4
618.031	21315.09
618.226	21765.64
618.421	21581.32
618.616	21474.83
618.811	20876.82
619.006	21517.84
619.201	20868.63
619.396	20979.22
619.591	20966.93
619.786	21263.89
619.981	20835.86
620.176	20893.21
620.371	20504.09
620.566	20655.64
620.761	20334.11
620.956	20637.21
621.151	20024.87
621.346	20137.51
621.541	19854.89
621.735	20315.68
621.93	20016.68
622.125	19797.54
622.32	19541.55
622.515	19545.64
622.709	19598.89
622.904	19598.89
623.099	19328.56
623.294	19428.91
623.488	19174.96
623.683	19084.85
623.878	18527.8
624.072	19228.21
624.267	18959.92
624.462	18806.33
624.656	18722.36
624.851	18658.87
625.046	18607.67
625.24	18400.83
625.435	18224.7
625.629	18146.88
625.824	17901.12
626.018	17856.07
626.213	17606.22
626.407	17894.98
626.602	17616.46
626.796	17538.63
626.991	17333.84
627.185	17346.12
627.38	17233.49
627.574	17434.19
627.768	17108.56
627.963	17034.83
628.157	16916.05
628.352	16735.83
628.546	16608.86
628.74	16827.99
628.935	16676.44
629.129	16430.68
629.323	16477.79
629.517	16397.92
629.712	16084.58
629.906	16070.24
630.1	15861.35
630.294	16193.12
630.489	15930.98
630.683	15906.4
630.877	15527.53
631.071	15742.57
631.265	15644.26
631.459	15300.2
631.653	15218.29
631.848	15210.09
632.042	15201.9
632.236	15113.84
632.43	14888.56
632.624	15158.89
632.818	14757.49
633.012	14884.47
633.206	14388.86
633.4	14763.64
633.594	14325.37
633.788	14587.51
633.982	14429.82
634.176	14405.24
634.369	14374.52
634.563	14122.62
634.757	14251.64
634.951	14302.84
635.145	13960.83
635.339	14009.98
635.533	13655.68
635.726	13614.73
635.92	13807.23
636.114	13622.92
636.308	13379.21
636.501	13510.28
636.695	13530.76
636.889	12902.03
637.083	13094.54
637.276	13049.49
637.47	13192.84
637.664	13014.67
637.857	12867.22
638.051	13094.54
638.244	13088.4
638.438	12889.74
638.632	12760.72
638.825	12758.67
639.019	12627.6
639.212	12467.86
639.406	12535.45
639.599	12435.1
639.793	12334.75
639.986	12121.76
640.18	12326.55
640.373	12033.69
640.567	12144.28
640.76	11962.01
640.954	11744.93
641.147	11789.99
641.34	11792.03
641.534	11822.75
641.727	11591.33
641.92	11656.87
642.114	11755.17
642.307	11693.73
642.5	11628.2
642.694	11390.63
642.887	11380.39
643.08	11417.26
643.273	11062.96
643.467	11212.46
643.66	11038.38
643.853	10991.28
644.046	10858.16
644.239	11165.35
644.432	10839.73
644.626	10784.43
644.819	10806.96
645.012	10688.18
645.205	10753.71
645.398	10655.41
645.591	10456.76
645.784	10464.95
645.977	10434.23
646.17	10483.38
646.363	10286.78
646.556	10079.93
646.749	10288.82
646.942	10247.86
647.135	10114.75
647.328	10088.12
647.521	10145.47
647.714	9969.34
647.907	9914.05
648.099	9793.22
648.292	9901.76
648.485	9815.74
648.678	9666.24
648.871	9506.5
649.064	9584.32
649.256	9596.61
649.449	9400.01
649.642	9418.44
649.835	9418.44
650.027	9219.78
650.22	9189.07
650.413	9287.37
650.605	9268.94
650.798	9219.78
650.991	9090.76
651.183	9166.54
651.376	8978.12
651.568	8967.88
651.761	8998.6
651.954	8961.74
652.146	8998.6
652.339	8892.11
652.531	8797.9
652.724	8808.14
652.916	8507.09
653.109	8513.24
653.301	8533.72
653.494	8599.25
653.686	8425.17
653.879	8466.13
654.071	8433.36
654.263	8355.54
654.456	8353.49
654.648	8265.43
654.84	8242.9
655.033	8072.92
655.225	8195.8
655.417	8036.06
655.61	8046.3
655.802	7941.85
655.994	8089.31
656.186	7954.14
656.379	7769.82
656.571	7843.55
656.763	7638.75
656.955	7786.21
657.148	7921.37
657.34	7749.34
657.532	7440.1
657.724	7560.93
657.916	7464.68
658.108	7352.04
658.3	7436
658.492	7532.26
658.684	7214.82
658.876	7306.98
659.068	7241.45
659.26	7108.33
659.452	7302.89
659.644	7304.93
659.836	7085.8
660.028	7147.24
660.22	6938.35
660.412	7081.71
660.604	6838
660.796	6983.4
660.988	6864.62
661.18	6942.44
661.372	6881
661.563	6868.72
661.755	6643.44
661.947	6721.26
662.139	6674.16
662.331	6778.61
662.522	6594.29
662.714	6532.85
662.906	6541.04
663.097	6672.11
663.289	6510.32
663.481	6579.95
663.673	6557.43
663.864	6381.3
664.056	6379.25
664.247	6303.48
664.439	6371.06
664.631	6264.57
664.822	6473.46
665.014	6330.1
665.205	6360.82
665.397	6350.58
665.588	6188.79
665.78	6121.21
665.971	6080.25
666.163	6135.54
666.354	5902.08
666.546	6045.43
666.737	5947.13
666.929	6074.1
667.12	6016.76
667.311	5773.05
667.503	5893.88
667.694	5916.41
667.885	5805.82
668.077	5893.88
668.268	5684.99
668.459	5822.2
668.651	5797.63
668.842	5744.38
669.033	5738.24
669.224	5574.4
669.416	5598.98
669.607	5617.41
669.798	5586.69
669.989	5449.47
670.18	5648.13
670.371	5584.64
670.563	5519.11
670.754	5484.29
670.945	5424.9
671.136	5484.29
671.327	5345.03
671.518	5437.19
671.709	5222.15
671.9	5267.2
672.091	5388.04
672.282	5209.86
672.473	5211.91
672.664	5332.74
672.855	5222.15
673.046	5220.1
673.237	5103.37
673.428	5265.16
673.619	5017.35
673.809	5084.94
674	5089.03
674.191	5093.13
674.382	5041.93
674.573	4976.39
674.764	5064.46
674.954	5105.42
675.145	4964.11
675.336	4837.13
675.527	5035.78
675.717	4841.23
675.908	4708.11
676.099	4730.64
676.289	4873.99
676.48	5019.4
676.671	4796.17
676.861	4820.75
677.052	4837.13
677.243	4865.8
677.433	4714.25
677.624	4853.52
677.814	4675.34
678.005	4859.66
678.195	4771.6
678.386	4708.11
678.576	4613.9
678.767	4734.73
678.957	4845.32
679.148	4738.83
679.338	4634.38
679.529	4527.89
679.719	4566.8
679.909	4579.09
680.1	4699.92
680.29	4570.9
680.481	4669.2
680.671	4566.8
680.861	4521.74
681.052	4513.55
681.242	4650.77
681.432	4646.67
681.622	4462.35
681.813	4439.83
682.003	4544.27
682.193	4333.33
682.383	4464.4
682.573	4362
682.764	4482.83
682.954	4384.53
683.144	4372.24
683.334	4388.63
683.524	4271.89
683.714	4503.31
683.904	4417.3
684.094	4366.1
684.284	4314.9
684.474	4312.85
684.664	4302.61
684.854	4255.51
685.044	4257.56
685.234	4106.01
685.424	4161.3
685.614	4087.57
685.804	4353.81
685.994	4220.69
686.184	4224.79
686.374	4189.97
686.564	4237.08
686.753	4210.45
686.943	4239.12
687.133	4013.85
687.323	3972.89
687.513	4015.9
687.702	3979.03
687.892	4116.25
688.082	3872.54
688.272	3948.31
688.461	4122.39
688.651	3993.37
688.841	3829.53
689.03	3962.65
689.22	3872.54
689.41	3995.42
689.599	3802.91
689.789	3944.22
689.979	3854.11
690.168	3825.43
690.358	3841.82
690.547	3675.93
690.737	3827.48
690.926	3813.15
691.116	3534.62
691.305	3807
691.495	3536.67
691.684	3583.77
691.874	3645.21
692.063	3634.97
692.252	3675.93
692.442	3637.02
692.631	3438.37
692.82	3585.82
693.01	3602.21
693.199	3464.99
693.388	3528.48
693.578	3548.96
693.767	3458.85
693.956	3514.14
694.146	3460.9
694.335	3489.57
694.524	3313.44
694.713	3469.09
694.902	3362.59
695.092	3514.14
695.281	3391.27
695.47	3499.81
695.659	3370.79
695.848	3391.27
696.037	3395.36
696.226	3348.26
696.415	3284.77
696.604	3391.27
696.793	3290.92
696.982	3297.06
697.171	3280.68
697.36	3346.21
697.549	3321.63
697.738	3239.72
697.927	3231.52
698.116	3209
698.305	3329.83
698.494	3239.72
698.683	3090.21
698.872	3149.61
699.061	3161.89
699.25	3276.58
699.438	3163.94
699.627	3153.7
699.816	3131.17
700.005	3084.07
700.193	3174.18
700.382	3217.19
700.571	3143.46
700.76	3219.24
700.948	3047.21
701.137	3176.23
701.326	3147.56
701.514	2946.86
701.703	3288.87
701.892	3100.45
702.08	3034.92
702.269	3041.06
702.457	3022.63
702.646	3020.58
702.834	2979.62
703.023	2996.01
703.212	3116.84
703.4	3018.54
703.589	3022.63
703.777	2998.06
703.965	2965.29
704.154	2985.77
704.342	2897.71
704.531	2979.62
704.719	2983.72
704.907	2985.77
705.096	2866.99
705.284	2965.29
705.472	2920.23
705.661	2807.59
705.849	2953
706.037	3018.54
706.226	2766.64
706.414	2879.27
706.602	2881.32
706.79	2944.81
706.979	2832.17
707.167	2950.95
707.355	2856.75
707.543	2860.84
707.731	2989.86
707.919	2799.4
708.107	2697
708.296	2785.07
708.484	2854.7
708.672	2866.99
708.86	2840.36
709.048	2815.79
709.236	2809.64
709.424	2733.87
709.612	2860.84
709.8	2776.87
709.988	2684.72
710.176	2766.64
710.364	2785.07
710.551	2799.4
710.739	2871.08
710.927	2852.65
711.115	2756.4
711.303	2715.44
711.491	2807.59
711.679	2731.82
711.866	2754.35
712.054	2709.29
712.242	2737.96
712.43	2764.59
712.617	2733.87
712.805	2674.48
712.993	2694.96
713.181	2600.75
713.368	2690.86
713.556	2758.44
713.744	2688.81
713.931	2680.62
714.119	2680.62
714.306	2619.18
714.494	2682.67
714.682	2592.56
714.869	2549.55
715.057	2682.67
715.244	2539.31
715.432	2709.29
715.619	2656.04
715.807	2660.14
715.994	2592.56
716.182	2477.87
716.369	2627.37
716.556	2520.88
716.744	2590.51
716.931	2643.76
717.119	2594.61
717.306	2567.98
717.493	2535.21
717.681	2578.22
717.868	2492.21
718.055	2576.17
718.242	2537.26
718.43	2584.37
718.617	2510.64
718.804	2488.11
718.991	2539.31
719.179	2430.77
719.366	2471.73
719.553	2637.61
719.74	2473.78
719.927	2586.41
720.114	2576.17
720.301	2504.5
720.488	2432.82
720.676	2428.72
720.863	2518.83
721.05	2561.84
721.237	2613.04
721.424	2406.19
721.611	2479.92
721.798	2408.24
721.985	2441.01
722.172	2463.54
722.358	2412.34
722.545	2576.17
722.732	2426.67
722.919	2481.97
723.106	2438.96
723.293	2479.92
723.48	2291.51
723.667	2547.5
723.853	2434.86
724.04	2494.26
724.227	2512.69
724.414	2398
724.6	2438.96
724.787	2344.75
724.974	2389.81
725.161	2385.71
725.347	2385.71
725.534	2338.61
725.72	2322.23
725.907	2443.06
726.094	2420.53
726.28	2371.38
726.467	2271.03
726.653	2387.76
726.84	2379.57
727.027	2432.82
727.213	2357.04
727.4	2330.42
727.586	2404.14
727.773	2318.13
727.959	2314.03
728.145	2395.95
728.332	2191.16
728.518	2322.23
728.705	2348.85
728.891	2281.27
729.077	2303.79
729.264	2215.73
729.45	2381.62
729.636	2389.81
729.823	2264.88
730.009	2285.36
730.195	2273.07
730.382	2344.75
730.568	2275.12
730.754	2242.36
730.94	2215.73
731.126	2367.28
731.313	2191.16
731.499	2236.21
731.685	2176.82
731.871	2166.58
732.057	2248.5
732.243	2279.22
732.429	2283.31
732.615	2320.18
732.801	2305.84
732.987	2260.79
733.173	2240.31
733.359	2215.73
733.545	2277.17
733.731	2264.88
733.917	2221.88
734.103	2234.16
734.289	2199.35
734.475	2244.4
734.661	2260.79
734.847	2211.64
735.033	2252.59
735.219	2236.21
735.404	2137.91
735.59	2191.16
735.776	2086.71
735.962	2307.89
736.148	2264.88
736.333	2166.58
736.519	2109.24
736.705	2099
736.89	2133.81
737.076	2125.62
737.262	1996.6
737.447	2207.54
737.633	2176.82
737.819	2187.06
738.004	2109.24
738.19	2142
738.375	2129.72
738.561	2133.81
738.747	2109.24
738.932	2170.68
739.118	2002.74
739.303	2150.2
739.489	2055.99
739.674	2105.14
739.859	2078.52
740.045	2015.03
740.23	2109.24
740.416	1967.93
740.601	2029.37
740.786	2191.16
740.972	2027.32
741.157	2039.61
741.342	1965.88
741.528	2025.27
741.713	2029.37
741.898	1972.02
742.084	1926.97
742.269	2109.24
742.454	1916.73
742.639	1929.02
742.824	1945.4
743.01	1982.26
743.195	1957.69
743.38	2051.89
743.565	1914.68
743.75	1978.17
743.935	1929.02
744.12	1994.55
744.305	1855.29
744.49	1879.86
744.675	1967.93
744.86	1804.09
745.045	1857.34
745.23	1890.1
745.415	1773.37
745.6	1888.06
745.785	1793.85
745.97	1890.1
746.155	1703.74
746.34	1918.78
746.525	1838.91
746.71	1804.09
746.895	1744.7
747.079	1701.69
747.264	1701.69
747.449	1677.12
747.634	1644.35
747.819	1713.98
748.003	1697.6
748.188	1806.14
748.373	1642.3
748.557	1605.44
748.742	1652.54
748.927	1535.81
749.111	1675.07
749.296	1605.44
749.481	1724.22
749.665	1593.15
749.85	1519.42
750.034	1675.07
750.219	1570.62
750.404	1515.33
750.588	1529.66
750.773	1519.42
750.957	1568.57
751.141	1492.8
751.326	1582.91
751.51	1486.65
751.695	1470.27
751.879	1470.27
752.064	1488.7
752.248	1537.85
752.432	1412.93
752.617	1412.93
752.801	1488.7
752.985	1363.78
753.17	1396.54
753.354	1351.49
753.538	1484.61
753.722	1359.68
753.907	1316.67
754.091	1328.96
754.275	1398.59
754.459	1363.78
754.643	1308.48
754.828	1427.26
755.012	1238.85
755.196	1261.38
755.38	1355.58
755.564	1324.87
755.748	1253.19
755.932	1265.47
756.116	1333.06
756.3	1191.75
756.484	1183.56
756.668	1175.36
756.852	1269.57
757.036	1142.6
757.22	1158.98
757.404	1130.31
757.588	1093.44
757.772	1230.66
757.956	1177.41
758.14	1093.44
758.323	1113.92
758.507	1199.94
758.691	1191.75
758.875	1109.83
759.059	1199.94
759.242	1011.53
759.426	1134.4
759.61	995.14
759.794	1109.83
759.977	1068.87
760.161	1193.8
760.345	1095.49
760.528	1072.96
760.712	1126.21
760.895	1072.96
761.079	1089.35
761.263	1046.34
761.446	1077.06
761.63	1032.01
761.813	1036.1
761.997	1013.57
762.18	1087.3
762.364	970.57
762.547	948.04
762.731	1038.15
762.914	1050.44
763.098	943.94
763.281	907.08
763.464	962.37
763.648	1001.29
763.831	931.66
764.015	851.78
764.198	1070.92
764.381	898.89
764.564	954.18
764.748	876.36
764.931	989
765.114	849.74
765.297	839.5
765.481	952.13
765.664	939.85
765.847	923.46
766.03	933.7
766.213	866.12
766.397	991.05
766.58	909.13
766.763	896.84
766.946	814.92
767.129	933.7
767.312	929.61
767.495	831.3
767.678	896.84
767.861	855.88
768.044	825.16
768.227	870.22
768.41	802.63
768.593	890.7
768.776	771.91
768.959	905.03
769.142	810.82
769.324	849.74
769.507	862.02
769.69	831.3
769.873	790.35
770.056	884.55
770.239	773.96
770.421	841.54
770.604	831.3
770.787	816.97
770.97	829.26
771.152	759.63
771.335	829.26
771.518	683.85
771.7	812.87
771.883	819.02
772.066	771.91
772.248	708.43
772.431	849.74
772.613	749.39
772.796	757.58
772.978	773.96
773.161	765.77
773.343	692.04
773.526	659.28
773.708	726.86
773.891	626.51
774.073	747.34
774.256	669.52
774.438	689.99
774.621	659.28
774.803	634.7
774.985	692.04
775.168	704.33
775.35	651.08
775.532	569.16
775.715	634.7
775.897	642.89
776.079	677.71
776.261	634.7
776.444	622.41
776.626	687.95
776.808	556.88
776.99	599.88
777.173	702.28
777.355	544.59
777.537	642.89
777.719	599.88
777.901	581.45
778.083	581.45
778.265	499.53
778.447	554.83
778.629	636.75
778.811	597.84
778.993	548.68
779.175	618.32
779.357	585.55
779.539	528.21
779.721	558.92
779.903	603.98
780.085	567.12
780.267	636.75
780.449	540.49
780.631	565.07
780.812	472.91
780.994	528.21
781.176	479.05
781.358	520.01
781.54	511.82
781.721	524.11
781.903	532.3
782.085	497.49
782.267	524.11
782.448	491.34
782.63	454.48
782.812	571.21
782.993	491.34
783.175	470.86
783.357	431.95
783.538	405.33
783.72	421.71
783.901	339.79
784.083	409.42
784.264	407.38
784.446	413.52
784.627	415.57
784.809	483.15
784.99	413.52
785.172	413.52
785.353	464.72
785.535	356.18
785.716	368.46
785.897	347.98
786.079	366.42
786.26	458.57
786.441	388.94
786.623	372.56
786.804	390.99
786.985	470.86
787.167	360.27
787.348	364.37
787.529	390.99
787.71	446.29
787.891	382.8
788.073	337.74
788.254	409.42
788.435	409.42
788.616	390.99
788.797	384.85
788.978	257.87
789.159	331.6
789.34	442.19
789.522	296.78
789.703	276.31
789.884	409.42
790.065	390.99
790.246	401.23
790.427	235.35
790.607	266.07
790.788	307.02
790.969	300.88
791.15	300.88
791.331	345.94
791.512	227.15
791.693	270.16
791.874	323.41
792.054	311.12
792.235	419.66
792.416	323.41
792.597	339.79
792.778	362.32
792.958	325.46
793.139	259.92
793.32	175.95
793.5	284.5
793.681	378.7
793.862	315.22
794.042	300.88
794.223	311.12
794.404	268.11
794.584	231.25
794.765	241.49
794.945	274.26
795.126	253.78
795.306	319.31
795.487	229.2
795.667	282.45
795.848	257.87
796.028	227.15
796.209	200.53
796.389	307.02
796.57	292.69
796.75	259.92
796.93	309.07
797.111	307.02
797.291	225.11
797.471	241.49
797.652	270.16
797.832	178
798.012	304.98
798.192	225.11
798.373	241.49
798.553	180.05
798.733	245.59
798.913	313.17
799.093	249.68
799.274	253.78
799.454	307.02
799.634	233.3
799.814	243.54
799.994	190.29
800.174	212.82
800.354	235.35
800.534	245.59
800.714	298.83
800.894	196.43
801.074	135
801.254	184.15
801.434	200.53
801.614	282.45
801.794	190.29
801.974	761.67
802.154	192.34
802.334	231.25
802.514	192.34
802.693	282.45
802.873	161.62
803.053	221.01
803.233	227.15
803.413	169.81
803.592	225.11
803.772	196.43
803.952	126.8
804.131	206.67
804.311	200.53
804.491	216.91
804.67	184.15
804.85	188.24
805.03	163.67
805.209	257.87
805.389	223.06
805.568	225.11
805.748	175.95
805.928	163.67
806.107	225.11
806.287	208.72
806.466	218.96
806.646	216.91
806.825	135
807.004	167.76
807.184	210.77
807.363	147.28
807.543	126.8
807.722	153.43
807.901	89.94
808.081	229.2
808.26	110.42
808.439	192.34
808.619	175.95
808.798	184.15
808.977	253.78
809.156	233.3
809.336	237.39
809.515	163.67
809.694	163.67
809.873	126.8
810.052	202.58
810.231	169.81
810.411	221.01
810.59	151.38
810.769	155.47
810.948	89.94
811.127	85.84
811.306	204.63
811.485	175.95
811.664	192.34
811.843	251.73
812.022	171.86
812.201	194.39
812.38	175.95
812.559	137.04
812.737	153.43
812.916	112.47
813.095	106.32
813.274	225.11
813.453	182.1
813.632	180.05
813.811	143.19
813.989	167.76
814.168	188.24
814.347	128.85
814.526	112.47
814.704	126.8
814.883	180.05
815.062	114.52
815.24	161.62
815.419	73.56
815.598	112.47
815.776	128.85
815.955	157.52
816.133	126.8
816.312	157.52
816.49	61.27
816.669	110.42
816.847	167.76
817.026	188.24
817.204	139.09
817.383	167.76
817.561	110.42
817.74	73.56
817.918	104.28
818.097	135
818.275	83.8
818.453	141.14
818.632	48.98
818.81	167.76
818.988	132.95
819.167	116.56
819.345	151.38
819.523	104.28
819.701	175.95
819.879	153.43
820.058	91.99
820.236	147.28
820.414	85.84
820.592	87.89
820.77	120.66
820.948	75.6
821.127	77.65
821.305	159.57
821.483	114.52
821.661	151.38
821.839	116.56
822.017	32.6
822.195	44.88
822.373	149.33
822.551	118.61
822.729	126.8
822.907	128.85
823.085	184.15
823.262	110.42
823.44	89.94
823.618	118.61
823.796	98.13
823.974	69.46
824.152	171.86
824.329	135
824.507	116.56
824.685	126.8
824.863	57.17
825.04	112.47
825.218	102.23
825.396	81.75
825.574	159.57
825.751	143.19
825.929	159.57
826.107	89.94
826.284	71.51
826.462	130.9
826.639	79.7
826.817	28.5
826.994	77.65
827.172	69.46
827.349	157.52
827.527	79.7
827.704	122.71
827.882	110.42
828.059	118.61
828.237	32.6
828.414	169.81
828.591	53.08
828.769	96.08
828.946	75.6
829.124	85.84
829.301	104.28
829.478	94.04
829.655	130.9
829.833	104.28
830.01	20.31
830.187	96.08
830.364	106.32
830.542	69.46
830.719	102.23
830.896	153.43
831.073	151.38
831.25	120.66
831.427	53.08
831.604	94.04
831.782	69.46
831.959	79.7
832.136	75.6
832.313	126.8
832.49	96.08
832.667	79.7
832.844	114.52
833.021	102.23
833.198	59.22
833.374	12.12
833.551	48.98
833.728	40.79
833.905	178
834.082	73.56
834.259	77.65
834.436	112.47
834.612	-12.46
834.789	63.32
834.966	22.36
835.143	40.79
835.319	96.08
835.496	63.32
835.673	85.84
835.85	161.62
836.026	122.71
836.203	67.41
836.38	79.7
836.556	-28.84
836.733	100.18
836.909	102.23
837.086	18.26
837.262	53.08
837.439	20.31
837.616	44.88
837.792	65.36
837.968	63.32
838.145	5.97
838.321	30.55
838.498	128.85
838.674	143.19
838.851	22.36
839.027	77.65
839.203	36.69
839.38	73.56
839.556	34.64
839.732	77.65
839.909	1.88
840.085	79.7
840.261	-14.51
840.437	51.03
840.614	-43.18
840.79	85.84
840.966	114.52
841.142	-10.41
841.318	28.5
841.494	18.26
841.671	48.98
841.847	77.65
842.023	20.31
842.199	85.84
842.375	120.66
842.551	28.5
842.727	-2.22
842.903	94.04
843.079	-28.84
843.255	61.27
843.431	36.69
843.607	44.88
843.783	-41.13
843.959	59.22
844.134	32.6
844.31	159.57
844.486	53.08
844.662	73.56
844.838	-4.27
845.013	75.6
845.189	20.31
845.365	24.4
845.541	36.69
845.716	12.12
845.892	20.31
846.068	89.94
846.244	-20.65
846.419	-10.41
846.595	14.17
846.77	36.69
846.946	79.7
847.122	124.76
847.297	46.93
847.473	118.61
847.648	-6.31
847.824	22.36
847.999	46.93
848.175	40.79
848.35	30.55
848.526	118.61
848.701	55.12
848.876	12.12
849.052	28.5
849.227	-6.31
849.403	-41.13
849.578	8.02
849.753	135
849.929	69.46
850.104	-20.65
850.279	63.32
850.454	77.65
850.63	-4.27
850.805	85.84
850.98	36.69
851.155	51.03
851.33	89.94
851.505	46.93
851.681	132.95
851.856	53.08
852.031	65.36
852.206	98.13
852.381	28.5
852.556	38.74
852.731	28.5
852.906	26.45
853.081	61.27
853.256	69.46
853.431	32.6
853.606	83.8
853.781	89.94
853.956	-37.03
854.131	69.46
854.305	67.41
854.48	30.55
854.655	-10.41
854.83	-32.94
855.005	-39.08
855.18	28.5
855.354	-28.84
855.529	57.17
855.704	38.74
855.879	12.12
856.053	48.98
856.228	73.56
856.403	-39.08
856.577	-4.27
856.752	-43.18
856.926	89.94
857.101	5.97
857.276	12.12
857.45	48.98
857.625	69.46
857.799	59.22
857.974	24.4
858.148	12.12
858.323	8.02
858.497	-22.7
858.672	30.55
858.846	24.4
859.02	24.4
859.195	-28.84
859.369	5.97
859.543	-2.22
859.718	85.84
859.892	-26.79
860.066	36.69
860.241	-4.27
860.415	94.04
860.589	-12.46
860.763	8.02
860.938	3.93
861.112	44.88
861.286	26.45
861.46	-20.65
861.634	61.27
861.808	-16.55
861.982	16.21
862.157	-2.22
862.331	-2.22
862.505	3.93
862.679	16.21
862.853	5.97
863.027	18.26
863.201	53.08
863.375	-28.84
863.549	14.17
863.722	12.12
863.896	71.51
864.07	-4.27
864.244	44.88
864.418	42.84
864.592	-8.36
864.766	12.12
864.939	40.79
865.113	44.88
865.287	69.46
865.461	20.31
865.634	48.98
865.808	44.88
865.982	30.55
866.156	5.97
866.329	-8.36
866.503	34.64
866.676	32.6
866.85	44.88
867.024	-4.27
867.197	36.69
867.371	57.17
867.544	55.12
867.718	-16.55
867.891	71.51
868.065	-4.27
868.238	18.26
868.412	38.74
868.585	34.64
868.759	32.6
868.932	3.93
869.105	-4.27
869.279	16.21
869.452	59.22
869.625	-20.65
869.799	-26.79
869.972	-86.19
870.145	22.36
870.319	46.93
870.492	-24.75
870.665	94.04
870.838	20.31
871.011	30.55
871.185	10.07
871.358	67.41
871.531	42.84
871.704	120.66
871.877	3.93
872.05	22.36
872.223	-65.71
872.396	40.79
872.569	28.5
872.742	-2.22
872.915	46.93
873.088	36.69
873.261	5.97
873.434	63.32
873.607	-37.03
873.78	28.5
873.953	-28.84
874.126	20.31
874.299	85.84
874.471	-32.94
874.644	-12.46
874.817	85.84
874.99	63.32
875.163	85.84
875.335	-49.32
875.508	28.5
875.681	114.52
875.853	-24.75
876.026	36.69
876.199	-20.65
876.371	61.27
876.544	-41.13
876.717	-20.65
876.889	14.17
877.062	53.08
877.234	8.02
877.407	83.8
877.579	12.12
877.752	71.51
877.924	5.97
878.097	-37.03
878.269	36.69
878.442	63.32
878.614	22.36
878.786	-24.75
878.959	-4.27
879.131	53.08
879.303	28.5
879.476	28.5
879.648	12.12
879.82	40.79
879.993	30.55
880.165	-28.84
880.337	-37.03
880.509	18.26
880.681	-20.65
880.854	67.41
881.026	40.79
881.198	87.89
881.37	-10.41
881.542	30.55
881.714	12.12
881.886	12.12
882.058	-16.55
882.23	53.08
882.402	-10.41
882.574	-4.27
882.746	-24.75
882.918	3.93
883.09	12.12
883.262	-2.22
883.434	16.21
883.606	38.74
883.778	30.55
883.95	22.36
884.122	-12.46
884.293	59.22
884.465	-39.08
884.637	38.74
884.809	-41.13
884.98	-10.41
885.152	46.93
885.324	65.36
885.496	-12.46
885.667	71.51
885.839	63.32
886.011	-4.27
886.182	28.5
886.354	-37.03
886.525	38.74
886.697	-45.23
886.869	28.5
887.04	-47.27
887.212	-2.22
887.383	24.4
887.555	-24.75
887.726	5.97
887.897	16.21
888.069	-10.41
888.24	73.56
888.412	102.23
888.583	8.02
888.754	61.27
888.926	-10.41
889.097	-53.42
889.268	16.21
889.44	40.79
889.611	-12.46
889.782	-28.84
889.953	28.5
890.125	69.46
890.296	-4.27
890.467	12.12
890.638	55.12
890.809	-61.61
890.98	40.79
891.151	-2.22
891.323	-6.31
891.494	30.55
891.665	69.46
891.836	-18.6
892.007	-26.79
892.178	-41.13
892.349	-8.36
892.52	-28.84
892.691	26.45
892.862	40.79
893.032	-28.84
893.203	32.6
893.374	-30.89
893.545	-2.22
893.716	77.65
893.887	36.69
894.057	8.02
894.228	59.22
894.399	-12.46
894.57	34.64
894.74	24.4
894.911	-43.18
895.082	-22.7
895.253	-4.27
895.423	-2.22
895.594	75.6
895.764	-37.03
895.935	-28.84
896.106	3.93
896.276	22.36
896.447	22.36
896.617	-55.47
896.788	-45.23
896.958	12.12
897.129	-45.23
897.299	-41.13
897.47	-6.31
897.64	44.88
897.81	-53.42
897.981	14.17
898.151	85.84
898.322	46.93
898.492	-57.51
898.662	8.02
898.832	-6.31
899.003	-32.94
899.173	63.32
899.343	-24.75
899.513	-106.67
