Data from USB4F104151__279__14-23-26-484.txt Node

Date: Thu Mar 13 14:23:26 EDT 2025
User: louis
Spectrometer: USB4F10415
Trigger mode: 4
Integration Time (sec): 2.000000E-2
Scans to average: 1
Electric dark correction enabled: true
Nonlinearity correction enabled: false
Boxcar width: 0
XAxis mode: Wavelengths
Number of Pixels in Spectrum: 3648
>>>>>Begin Spectral Data<<<<<
178.204	-64.85
178.424	-64.85
178.644	-64.85
178.864	-124.24
179.084	-177.49
179.304	-17.75
179.524	0.68
179.744	41.64
179.964	10.92
180.184	8.87
180.404	-25.94
180.624	-42.32
180.844	-9.56
181.064	33.45
181.283	6.83
181.503	-21.85
181.723	15.02
181.943	-71
182.163	6.83
182.383	0.68
182.602	51.88
182.822	66.22
183.042	-36.18
183.262	64.17
183.482	-25.94
183.701	6.83
183.921	80.55
184.141	27.31
184.361	23.21
184.58	37.55
184.8	31.4
185.02	-5.46
185.239	0.68
185.459	58.03
185.679	55.98
185.898	-75.09
186.118	47.79
186.338	62.12
186.557	78.51
186.777	-3.41
186.997	19.11
187.216	-25.94
187.436	15.02
187.655	23.21
187.875	55.98
188.095	49.83
188.314	72.36
188.534	74.41
188.753	-21.85
188.973	33.45
189.192	-21.85
189.412	23.21
189.631	17.07
189.851	4.78
190.07	25.26
190.29	15.02
190.509	68.27
190.729	64.17
190.948	74.41
191.168	111.27
191.387	72.36
191.607	4.78
191.826	72.36
192.045	-56.66
192.265	37.55
192.484	92.84
192.704	55.98
192.923	47.79
193.142	152.23
193.362	55.98
193.581	-5.46
193.8	49.83
194.02	58.03
194.239	31.4
194.458	37.55
194.678	41.64
194.897	115.37
195.116	29.35
195.335	76.46
195.555	0.68
195.774	31.4
195.993	92.84
196.212	2.73
196.432	23.21
196.651	-1.37
196.87	-9.56
197.089	125.61
197.308	-3.41
197.528	31.4
197.747	-21.85
197.966	8.87
198.185	121.51
198.404	62.12
198.623	-40.28
198.842	27.31
199.062	88.75
199.281	39.59
199.5	64.17
199.719	74.41
199.938	29.35
200.157	72.36
200.376	-66.9
200.595	58.03
200.814	45.74
201.033	37.55
201.252	74.41
201.471	51.88
201.69	105.13
201.909	15.02
202.128	43.69
202.347	107.18
202.566	25.26
202.785	-58.71
203.004	-34.13
203.223	55.98
203.442	-48.47
203.661	64.17
203.879	88.75
204.098	60.07
204.317	-1.37
204.536	-1.37
204.755	55.98
204.974	115.37
205.193	80.55
205.411	90.79
205.63	-1.37
205.849	19.11
206.068	43.69
206.287	-23.89
206.505	4.78
206.724	80.55
206.943	6.83
207.162	-1.37
207.381	6.83
207.599	12.97
207.818	15.02
208.037	47.79
208.255	31.4
208.474	15.02
208.693	15.02
208.911	-9.56
209.13	-21.85
209.349	15.02
209.567	0.68
209.786	43.69
210.005	135.85
210.223	55.98
210.442	35.5
210.661	29.35
210.879	27.31
211.098	86.7
211.316	-13.65
211.535	53.93
211.753	12.97
211.972	58.03
212.191	19.11
212.409	27.31
212.628	49.83
212.846	41.64
213.065	76.46
213.283	47.79
213.502	-54.61
213.72	8.87
213.938	43.69
214.157	6.83
214.375	-25.94
214.594	19.11
214.812	90.79
215.031	15.02
215.249	-11.61
215.467	-25.94
215.686	-17.75
215.904	-25.94
216.122	47.79
216.341	121.51
216.559	39.59
216.778	25.26
216.996	88.75
217.214	23.21
217.432	-5.46
217.651	19.11
217.869	2.73
218.087	47.79
218.306	51.88
218.524	51.88
218.742	82.6
218.96	74.41
219.179	25.26
219.397	39.59
219.615	62.12
219.833	121.51
220.051	31.4
220.27	178.86
220.488	72.36
220.706	23.21
220.924	6.83
221.142	-15.7
221.36	60.07
221.578	-1.37
221.796	55.98
222.015	10.92
222.233	31.4
222.451	68.27
222.669	8.87
222.887	55.98
223.105	33.45
223.323	-17.75
223.541	55.98
223.759	115.37
223.977	-17.75
224.195	-9.56
224.413	82.6
224.631	0.68
224.849	35.5
225.067	17.07
225.285	117.42
225.503	39.59
225.721	55.98
225.939	58.03
226.157	15.02
226.375	35.5
226.592	-5.46
226.81	-58.71
227.028	4.78
227.246	111.27
227.464	51.88
227.682	49.83
227.9	8.87
228.117	60.07
228.335	35.5
228.553	12.97
228.771	68.27
228.989	53.93
229.206	47.79
229.424	-42.32
229.642	80.55
229.86	17.07
230.077	31.4
230.295	0.68
230.513	49.83
230.731	43.69
230.948	80.55
231.166	47.79
231.384	10.92
231.601	12.97
231.819	98.99
232.037	27.31
232.254	23.21
232.472	17.07
232.689	47.79
232.907	66.22
233.125	72.36
233.342	-50.52
233.56	0.68
233.777	178.86
233.995	-17.75
234.213	23.21
234.43	76.46
234.648	-9.56
234.865	6.83
235.083	47.79
235.3	33.45
235.518	125.61
235.735	146.09
235.953	-17.75
236.17	12.97
236.388	55.98
236.605	-54.61
236.822	105.13
237.04	58.03
237.257	55.98
237.475	-30.04
237.692	15.02
237.909	55.98
238.127	-23.89
238.344	117.42
238.562	-25.94
238.779	25.26
238.996	-11.61
239.214	74.41
239.431	109.22
239.648	55.98
239.865	64.17
240.083	55.98
240.3	117.42
240.517	25.26
240.735	-23.89
240.952	76.46
241.169	64.17
241.386	76.46
241.603	33.45
241.821	17.07
242.038	25.26
242.255	70.31
242.472	0.68
242.689	0.68
242.907	31.4
243.124	-32.08
243.341	31.4
243.558	51.88
243.775	31.4
243.992	-23.89
244.209	27.31
244.426	12.97
244.643	35.5
244.86	17.07
245.078	19.11
245.295	19.11
245.512	113.32
245.729	49.83
245.946	55.98
246.163	35.5
246.38	31.4
246.597	-27.99
246.814	6.83
247.031	19.11
247.248	55.98
247.464	47.79
247.681	35.5
247.898	12.97
248.115	17.07
248.332	8.87
248.549	15.02
248.766	86.7
248.983	76.46
249.2	25.26
249.417	68.27
249.633	68.27
249.85	64.17
250.067	25.26
250.284	64.17
250.501	51.88
250.717	94.89
250.934	15.02
251.151	-5.46
251.368	47.79
251.585	0.68
251.801	39.59
252.018	-30.04
252.235	27.31
252.451	25.26
252.668	76.46
252.885	55.98
253.102	2.73
253.318	96.94
253.535	-1.37
253.752	-9.56
253.968	35.5
254.185	39.59
254.401	58.03
254.618	12.97
254.835	-7.51
255.051	64.17
255.268	-1.37
255.484	-25.94
255.701	39.59
255.917	66.22
256.134	-40.28
256.351	90.79
256.567	-15.7
256.784	-30.04
257	31.4
257.217	-1.37
257.433	92.84
257.65	15.02
257.866	74.41
258.082	90.79
258.299	-34.13
258.515	113.32
258.732	33.45
258.948	-1.37
259.165	39.59
259.381	-23.89
259.597	49.83
259.814	51.88
260.03	17.07
260.246	15.02
260.463	27.31
260.679	51.88
260.895	-36.18
261.112	17.07
261.328	58.03
261.544	8.87
261.761	125.61
261.977	31.4
262.193	-15.7
262.409	29.35
262.626	80.55
262.842	-15.7
263.058	-42.32
263.274	33.45
263.49	17.07
263.707	86.7
263.923	-25.94
264.139	90.79
264.355	101.03
264.571	66.22
264.787	10.92
265.004	60.07
265.22	103.08
265.436	47.79
265.652	-19.8
265.868	33.45
266.084	6.83
266.3	10.92
266.516	-79.19
266.732	55.98
266.948	6.83
267.164	8.87
267.38	62.12
267.596	-9.56
267.812	35.5
268.028	41.64
268.244	17.07
268.46	8.87
268.676	80.55
268.892	-1.37
269.108	37.55
269.324	98.99
269.54	23.21
269.756	64.17
269.972	64.17
270.188	72.36
270.403	-5.46
270.619	55.98
270.835	74.41
271.051	49.83
271.267	4.78
271.483	37.55
271.698	115.37
271.914	84.65
272.13	41.64
272.346	88.75
272.562	17.07
272.777	64.17
272.993	70.31
273.209	23.21
273.425	72.36
273.64	-7.51
273.856	62.12
274.072	58.03
274.287	29.35
274.503	6.83
274.719	15.02
274.934	45.74
275.15	62.12
275.366	68.27
275.581	-30.04
275.797	39.59
276.012	109.22
276.228	92.84
276.444	47.79
276.659	58.03
276.875	-13.65
277.09	41.64
277.306	47.79
277.521	8.87
277.737	86.7
277.952	82.6
278.168	-44.37
278.383	33.45
278.599	33.45
278.814	23.21
279.03	60.07
279.245	39.59
279.461	-30.04
279.676	92.84
279.892	-44.37
280.107	76.46
280.322	88.75
280.538	64.17
280.753	-46.42
280.969	8.87
281.184	35.5
281.399	64.17
281.615	49.83
281.83	37.55
282.045	-21.85
282.26	8.87
282.476	68.27
282.691	60.07
282.906	51.88
283.122	15.02
283.337	-42.32
283.552	51.88
283.767	-19.8
283.983	80.55
284.198	43.69
284.413	8.87
284.628	-9.56
284.843	-1.37
285.058	117.42
285.274	43.69
285.489	-1.37
285.704	74.41
285.919	4.78
286.134	49.83
286.349	27.31
286.564	-32.08
286.779	84.65
286.995	74.41
287.21	96.94
287.425	74.41
287.64	-7.51
287.855	33.45
288.07	15.02
288.285	55.98
288.5	27.31
288.715	82.6
288.93	-13.65
289.145	-17.75
289.36	94.89
289.575	45.74
289.79	4.78
290.004	8.87
290.219	35.5
290.434	-25.94
290.649	15.02
290.864	68.27
291.079	-3.41
291.294	10.92
291.509	31.4
291.724	55.98
291.938	51.88
292.153	55.98
292.368	64.17
292.583	55.98
292.798	35.5
293.012	80.55
293.227	76.46
293.442	0.68
293.657	86.7
293.871	72.36
294.086	43.69
294.301	68.27
294.516	58.03
294.73	31.4
294.945	-7.51
295.16	27.31
295.374	43.69
295.589	64.17
295.804	62.12
296.018	64.17
296.233	125.61
296.447	37.55
296.662	109.22
296.877	74.41
297.091	15.02
297.306	58.03
297.52	-15.7
297.735	0.68
297.949	80.55
298.164	25.26
298.378	74.41
298.593	15.02
298.807	103.08
299.022	10.92
299.236	152.23
299.451	-1.37
299.665	76.46
299.88	15.02
300.094	84.65
300.309	19.11
300.523	78.51
300.737	37.55
300.952	25.26
301.166	139.94
301.381	-46.42
301.595	72.36
301.809	64.17
302.024	17.07
302.238	-3.41
302.452	68.27
302.667	6.83
302.881	113.32
303.095	17.07
303.309	17.07
303.524	31.4
303.738	55.98
303.952	23.21
304.166	2.73
304.381	-15.7
304.595	70.31
304.809	43.69
305.023	76.46
305.237	-32.08
305.452	58.03
305.666	-23.89
305.88	15.02
306.094	88.75
306.308	49.83
306.522	25.26
306.736	103.08
306.95	47.79
307.164	2.73
307.379	66.22
307.593	78.51
307.807	98.99
308.021	72.36
308.235	55.98
308.449	-11.61
308.663	35.5
308.877	76.46
309.091	-5.46
309.305	80.55
309.519	25.26
309.733	15.02
309.947	55.98
310.161	27.31
310.374	49.83
310.588	121.51
310.802	8.87
311.016	0.68
311.23	80.55
311.444	-15.7
311.658	82.6
311.872	96.94
312.085	21.16
312.299	17.07
312.513	125.61
312.727	55.98
312.941	-71
313.154	23.21
313.368	19.11
313.582	33.45
313.796	55.98
314.009	6.83
314.223	64.17
314.437	31.4
314.651	123.56
314.864	98.99
315.078	92.84
315.292	6.83
315.505	72.36
315.719	68.27
315.933	117.42
316.146	33.45
316.36	58.03
316.573	62.12
316.787	6.83
317.001	43.69
317.214	88.75
317.428	-32.08
317.641	35.5
317.855	35.5
318.068	2.73
318.282	80.55
318.495	25.26
318.709	68.27
318.922	-34.13
319.136	82.6
319.349	39.59
319.563	25.26
319.776	60.07
319.99	27.31
320.203	64.17
320.417	47.79
320.63	47.79
320.843	113.32
321.057	64.17
321.27	31.4
321.483	19.11
321.697	31.4
321.91	-3.41
322.124	49.83
322.337	51.88
322.55	41.64
322.763	58.03
322.977	27.31
323.19	-36.18
323.403	92.84
323.617	25.26
323.83	64.17
324.043	-17.75
324.256	6.83
324.469	-48.47
324.683	90.79
324.896	141.99
325.109	60.07
325.322	-21.85
325.535	96.94
325.748	21.16
325.962	-1.37
326.175	31.4
326.388	15.02
326.601	-32.08
326.814	31.4
327.027	39.59
327.24	127.66
327.453	-3.41
327.666	55.98
327.879	43.69
328.092	121.51
328.305	80.55
328.518	82.6
328.731	119.46
328.944	-9.56
329.157	74.41
329.37	47.79
329.583	19.11
329.796	53.93
330.009	2.73
330.222	109.22
330.435	76.46
330.648	15.02
330.861	47.79
331.073	113.32
331.286	21.16
331.499	6.83
331.712	107.18
331.925	21.16
332.138	39.59
332.35	105.13
332.563	39.59
332.776	115.37
332.989	19.11
333.202	2.73
333.414	-23.89
333.627	105.13
333.84	27.31
334.053	72.36
334.265	25.26
334.478	25.26
334.691	47.79
334.903	55.98
335.116	82.6
335.329	31.4
335.541	60.07
335.754	80.55
335.966	70.31
336.179	23.21
336.392	33.45
336.604	64.17
336.817	80.55
337.029	64.17
337.242	6.83
337.454	105.13
337.667	109.22
337.88	88.75
338.092	23.21
338.305	64.17
338.517	-21.85
338.729	41.64
338.942	17.07
339.154	-56.66
339.367	12.97
339.579	51.88
339.792	68.27
340.004	98.99
340.217	19.11
340.429	74.41
340.641	49.83
340.854	23.21
341.066	15.02
341.278	88.75
341.491	103.08
341.703	64.17
341.915	64.17
342.128	60.07
342.34	39.59
342.552	-3.41
342.764	70.31
342.977	80.55
343.189	-13.65
343.401	76.46
343.613	-58.71
343.826	6.83
344.038	-9.56
344.25	84.65
344.462	19.11
344.674	47.79
344.886	-5.46
345.099	90.79
345.311	96.94
345.523	66.22
345.735	37.55
345.947	66.22
346.159	43.69
346.371	-11.61
346.583	51.88
346.795	88.75
347.007	27.31
347.219	51.88
347.431	55.98
347.643	96.94
347.855	58.03
348.067	135.85
348.279	31.4
348.491	-27.99
348.703	35.5
348.915	96.94
349.127	-3.41
349.339	49.83
349.551	49.83
349.763	156.33
349.975	23.21
350.187	53.93
350.399	43.69
350.61	121.51
350.822	10.92
351.034	60.07
351.246	96.94
351.458	41.64
351.669	27.31
351.881	66.22
352.093	41.64
352.305	23.21
352.517	-17.75
352.728	43.69
352.94	62.12
353.152	62.12
353.363	17.07
353.575	92.84
353.787	98.99
353.999	25.26
354.21	121.51
354.422	23.21
354.633	49.83
354.845	-15.7
355.057	47.79
355.268	51.88
355.48	-1.37
355.692	96.94
355.903	60.07
356.115	6.83
356.326	-75.09
356.538	92.84
356.749	21.16
356.961	88.75
357.172	64.17
357.384	60.07
357.595	74.41
357.807	53.93
358.018	49.83
358.23	49.83
358.441	51.88
358.653	35.5
358.864	47.79
359.075	-30.04
359.287	121.51
359.498	84.65
359.709	31.4
359.921	37.55
360.132	0.68
360.344	25.26
360.555	23.21
360.766	96.94
360.977	121.51
361.189	72.36
361.4	47.79
361.611	55.98
361.823	152.23
362.034	47.79
362.245	-25.94
362.456	-21.85
362.667	-21.85
362.879	47.79
363.09	68.27
363.301	-7.51
363.512	66.22
363.723	39.59
363.935	23.21
364.146	150.18
364.357	23.21
364.568	66.22
364.779	15.02
364.99	117.42
365.201	58.03
365.412	-5.46
365.623	41.64
365.834	47.79
366.045	66.22
366.256	98.99
366.467	62.12
366.678	17.07
366.889	27.31
367.1	49.83
367.311	19.11
367.522	15.02
367.733	101.03
367.944	107.18
368.155	2.73
368.366	78.51
368.577	72.36
368.788	117.42
368.999	49.83
369.209	45.74
369.42	27.31
369.631	88.75
369.842	66.22
370.053	39.59
370.264	55.98
370.474	72.36
370.685	125.61
370.896	55.98
371.107	45.74
371.317	115.37
371.528	21.16
371.739	88.75
371.95	78.51
372.16	64.17
372.371	31.4
372.582	125.61
372.792	113.32
373.003	66.22
373.214	58.03
373.424	41.64
373.635	43.69
373.846	92.84
374.056	60.07
374.267	164.52
374.477	60.07
374.688	64.17
374.898	84.65
375.109	2.73
375.319	96.94
375.53	74.41
375.74	55.98
375.951	-17.75
376.161	88.75
376.372	109.22
376.582	-11.61
376.793	55.98
377.003	-25.94
377.214	53.93
377.424	76.46
377.635	47.79
377.845	-17.75
378.055	88.75
378.266	27.31
378.476	23.21
378.686	8.87
378.897	80.55
379.107	94.89
379.317	31.4
379.528	23.21
379.738	41.64
379.948	55.98
380.158	68.27
380.369	68.27
380.579	60.07
380.789	29.35
380.999	101.03
381.21	88.75
381.42	170.66
381.63	33.45
381.84	84.65
382.05	62.12
382.261	58.03
382.471	6.83
382.681	47.79
382.891	17.07
383.101	88.75
383.311	58.03
383.521	74.41
383.731	72.36
383.941	139.94
384.151	47.79
384.361	74.41
384.571	90.79
384.781	35.5
384.991	45.74
385.201	39.59
385.411	33.45
385.621	84.65
385.831	74.41
386.041	96.94
386.251	80.55
386.461	47.79
386.671	8.87
386.881	70.31
387.091	64.17
387.301	80.55
387.511	33.45
387.72	141.99
387.93	47.79
388.14	31.4
388.35	29.35
388.56	170.66
388.769	31.4
388.979	72.36
389.189	-23.89
389.399	39.59
389.609	33.45
389.818	129.7
390.028	21.16
390.238	60.07
390.447	12.97
390.657	76.46
390.867	35.5
391.076	-25.94
391.286	43.69
391.496	88.75
391.705	84.65
391.915	94.89
392.125	182.95
392.334	58.03
392.544	131.75
392.753	115.37
392.963	55.98
393.172	88.75
393.382	-7.51
393.591	121.51
393.801	23.21
394.01	172.71
394.22	121.51
394.429	17.07
394.639	119.46
394.848	164.52
395.058	-1.37
395.267	82.6
395.477	53.93
395.686	88.75
395.895	115.37
396.105	84.65
396.314	105.13
396.524	172.71
396.733	8.87
396.942	137.9
397.152	90.79
397.361	107.18
397.57	107.18
397.78	62.12
397.989	154.28
398.198	96.94
398.407	92.84
398.617	168.62
398.826	15.02
399.035	150.18
399.244	178.86
399.453	123.56
399.663	131.75
399.872	55.98
400.081	92.84
400.29	156.33
400.499	41.64
400.708	189.1
400.917	125.61
401.127	80.55
401.336	111.27
401.545	271.01
401.754	168.62
401.963	170.66
402.172	150.18
402.381	58.03
402.59	168.62
402.799	96.94
403.008	117.42
403.217	125.61
403.426	260.77
403.635	182.95
403.844	113.32
404.053	105.13
404.262	178.86
404.471	228.01
404.68	158.38
404.888	170.66
405.097	160.42
405.306	234.15
405.515	137.9
405.724	168.62
405.933	174.76
406.142	297.64
406.35	166.57
406.559	205.48
406.768	205.48
406.977	268.97
407.185	195.24
407.394	236.2
407.603	201.38
407.812	248.49
408.02	281.25
408.229	336.55
408.438	365.22
408.646	246.44
408.855	242.34
409.064	289.45
409.272	297.64
409.481	375.46
409.69	342.69
409.898	328.36
410.107	350.89
410.315	430.76
410.524	375.46
410.733	318.12
410.941	395.94
411.15	432.8
411.358	430.76
411.567	432.8
411.775	453.28
411.984	500.39
412.192	576.16
412.401	522.91
412.609	621.22
412.818	610.98
413.026	629.41
413.234	533.15
413.443	604.83
413.651	596.64
413.86	627.36
414.068	680.61
414.276	772.77
414.485	699.04
414.693	688.8
414.901	813.73
415.11	711.33
415.318	797.34
415.526	811.68
415.734	846.49
415.943	903.84
416.151	897.69
416.359	944.8
416.567	1002.14
416.776	1063.58
416.984	1024.67
417.192	1147.55
417.4	1172.12
417.608	1163.93
417.817	1170.07
418.025	1301.14
418.233	1278.62
418.441	1264.28
418.649	1309.33
418.857	1467.03
419.065	1491.6
419.273	1407.64
419.481	1581.71
419.689	1573.52
419.897	1628.82
420.105	1690.26
420.313	1723.02
420.521	1897.1
420.729	1976.97
420.937	1948.3
421.145	1997.45
421.353	2048.65
421.561	2114.19
421.769	2218.63
421.977	2386.57
422.185	2253.45
422.393	2398.85
422.601	2538.12
422.809	2587.27
423.017	2564.74
423.224	2663.04
423.432	2757.25
423.64	2882.17
423.848	2996.86
424.056	3037.82
424.263	3269.24
424.471	3166.84
424.679	3199.61
424.887	3437.17
425.094	3678.83
425.302	3578.48
425.51	3639.92
425.718	3805.81
425.925	3885.68
426.133	4020.85
426.341	4110.96
426.548	4336.23
426.756	4356.71
426.964	4391.53
427.171	4805.22
427.379	4760.16
427.586	4878.94
427.794	5112.41
428.001	5208.67
428.209	5528.15
428.417	5454.42
428.624	5818.96
428.832	5687.89
429.039	5784.15
429.247	5780.05
429.454	6308.43
429.662	6793.79
429.869	6484.55
430.076	6771.27
430.284	6523.46
430.491	6867.52
430.699	7166.53
430.906	7248.44
431.114	7367.23
431.321	7637.56
431.528	7819.83
431.736	8358.44
431.943	8641.06
432.15	8133.17
432.358	8389.16
432.565	9005.6
432.772	8802.85
432.979	9488.92
433.187	9333.28
433.394	9370.14
433.601	10105.36
433.808	10293.77
434.016	9959.95
434.223	10486.28
434.43	11262.46
434.637	10822.15
434.844	11622.91
435.052	12063.22
435.259	11698.68
435.466	11850.23
435.673	11817.46
435.88	12442.09
436.087	13177.31
436.294	13183.46
436.501	12794.34
436.708	13234.66
436.915	13568.48
437.122	14338.51
437.329	14205.39
437.537	14643.66
437.743	14883.27
437.95	14901.7
438.157	15460.8
438.364	16048.57
438.571	16095.67
438.778	16163.25
438.985	17439.14
439.192	16726.44
439.399	17131.94
439.606	16779.69
439.813	17856.92
440.02	18942.35
440.227	18610.57
440.433	18377.11
440.64	18858.38
440.847	18979.21
441.054	19292.55
441.261	20582.77
441.467	20287.86
441.674	20812.14
441.881	21479.78
442.088	21524.83
442.294	21160.3
442.501	21780.83
442.708	22266.2
442.914	23251.27
443.121	23980.35
443.328	23460.16
443.534	25110.83
443.741	24525.11
443.948	23990.59
444.154	25790.75
444.361	25508.13
444.568	25973.02
444.774	25760.03
444.981	26261.79
445.187	26726.67
445.394	28141.82
445.6	27558.15
445.807	30419.16
446.013	28911.86
446.22	29724.9
446.426	30628.06
446.633	30900.44
446.839	31908.04
447.046	30566.62
447.252	32268.48
447.459	32374.97
447.665	32100.54
447.871	33783.98
448.078	34912.41
448.284	33118.39
448.491	34199.71
448.697	35465.36
448.903	36497.53
449.11	36311.17
449.316	35713.16
449.522	36194.43
449.728	37453.94
449.935	37107.83
450.141	37470.32
450.347	38453.34
450.553	37437.55
450.76	37726.31
450.966	39254.1
451.172	38695
451.378	39612.49
451.584	38303.84
451.791	39802.96
451.997	39522.38
452.203	39856.2
452.409	40192.07
452.615	39805
452.821	38387.81
453.027	38195.3
453.233	40140.87
453.44	38662.24
453.646	39170.13
453.852	39028.82
454.058	39915.59
454.264	38541.41
454.47	39792.72
454.676	38420.58
454.882	39442.51
455.088	36735.1
455.294	36952.18
455.5	37421.17
455.705	37916.78
455.911	36253.83
456.117	36098.18
456.323	35543.18
456.529	33573.03
456.735	34687.13
456.941	34457.76
457.147	33601.71
457.352	32774.33
457.558	32309.44
457.764	32671.93
457.97	31801.54
458.176	30943.44
458.381	31033.55
458.587	29817.06
458.793	29884.64
458.999	27908.35
459.204	30320.86
459.41	29178.09
459.616	27484.42
459.821	27664.64
460.027	27320.59
460.233	26589.46
460.438	25497.89
460.644	25878.82
460.85	24535.35
461.055	24064.32
461.261	24092.99
461.466	22612.31
461.672	21752.16
461.878	23462.21
462.083	21662.05
462.289	21305.7
462.494	21029.23
462.7	20244.85
462.905	19577.22
463.111	20347.25
463.316	20760.94
463.522	19880.32
463.727	19876.22
463.932	19820.92
464.138	19751.29
464.343	19675.52
464.549	19108.23
464.754	20040.06
464.959	19833.21
465.165	19538.3
465.37	18798.99
465.575	18098.58
465.781	19112.33
465.986	19063.18
466.191	18375.06
466.397	17944.98
466.602	17232.29
466.807	18037.14
467.012	17869.21
467.218	17703.32
467.423	17222.05
467.628	17510.82
467.833	18180.5
468.038	17947.03
468.244	16998.82
468.449	17973.66
468.654	17037.73
468.859	16980.39
469.064	17062.31
469.269	16437.68
469.474	16640.43
469.679	16593.33
469.885	16275.89
470.09	16724.4
470.295	16552.37
470.5	16005.56
470.705	16169.4
470.91	16048.57
471.115	15546.81
471.32	16058.81
471.525	15800.76
471.73	15387.07
471.935	15321.54
472.139	14985.67
472.344	14997.96
472.549	14727.63
472.754	14711.24
472.959	14326.22
473.164	14213.59
473.369	13930.97
473.574	14424.53
473.778	14291.41
473.983	14178.77
474.188	14199.25
474.393	13705.69
474.598	13810.14
474.802	13439.45
475.007	13466.08
475.212	13437.41
475.417	12804.58
475.621	12894.69
475.826	12823.01
476.031	12769.77
476.235	12640.75
476.44	12564.97
476.645	12286.45
476.849	12384.75
477.054	12313.07
477.259	12001.78
477.463	12141.04
477.668	11858.42
477.872	11905.52
478.077	11653.62
478.282	11403.77
478.486	11348.48
478.691	11209.22
478.895	11309.57
479.1	11092.48
479.304	11164.16
479.509	10828.29
479.713	11155.97
479.918	10723.85
480.122	10748.42
480.326	10754.57
480.531	10691.08
480.735	10508.81
480.94	10660.36
481.144	10811.91
481.348	10445.32
481.553	10459.66
481.757	10414.6
481.961	10574.35
482.166	10789.38
482.37	10412.56
482.574	10150.42
482.778	10201.61
482.983	10717.7
483.187	10324.49
483.391	10517
483.595	10418.7
483.8	10091.02
484.004	10555.91
484.208	10557.96
484.412	10379.79
484.616	10447.37
484.821	10213.9
485.025	10023.44
485.229	10381.84
485.433	10172.94
485.637	10320.4
485.841	10205.71
486.045	10275.34
486.249	10209.81
486.453	10234.38
486.657	10478.09
486.861	10428.94
487.065	10142.22
487.269	10365.45
487.473	10232.33
487.677	10365.45
487.881	10197.52
488.085	10316.3
488.289	10592.78
488.493	10353.16
488.697	10424.84
488.901	10320.4
489.105	10254.86
489.309	10367.5
489.512	10603.02
489.716	10605.06
489.92	10414.6
490.124	10508.81
490.328	10637.83
490.531	10433.04
490.735	10648.07
490.939	10660.36
491.143	10801.67
491.346	10504.71
491.55	10840.58
491.754	10738.18
491.958	10846.73
492.161	10762.76
492.365	10811.91
492.569	10918.4
492.772	11117.06
492.976	10971.65
493.18	11174.4
493.383	11303.42
493.587	11295.23
493.79	11248.13
493.994	11360.77
494.197	11461.12
494.401	11450.88
494.605	11502.08
494.808	11573.75
495.012	11588.09
495.215	11641.34
495.419	11817.46
495.622	11817.46
495.825	12073.46
496.029	12069.36
496.232	12476.91
496.436	12128.75
496.639	12560.88
496.843	12366.32
497.046	12663.27
497.249	12835.3
497.453	12933.61
497.656	12909.03
497.859	13119.97
498.063	13208.03
498.266	13478.36
498.469	13402.59
498.673	13361.63
498.876	13806.04
499.079	13799.9
499.282	13885.91
499.485	14154.19
499.689	14057.94
499.892	14303.7
500.095	14420.43
500.298	14936.52
500.501	14698.95
500.705	15092.16
500.908	15227.33
501.111	15438.27
501.314	15555.01
501.517	15714.75
501.72	15854.01
501.923	15880.63
502.126	16296.37
502.329	16507.31
502.532	16576.94
502.735	16581.04
502.938	16820.65
503.141	17021.35
503.344	17324.45
503.547	17451.42
503.75	17725.85
503.953	18114.97
504.156	17987.99
504.359	18250.13
504.562	18104.73
504.765	18434.45
504.968	18655.63
505.17	18842
505.373	19147.14
505.576	19143.05
505.779	19505.54
505.982	19732.86
506.185	20177.27
506.387	19945.85
506.59	20425.07
506.793	20748.65
506.996	20513.14
507.198	21141.86
507.401	21016.94
507.604	21408.1
507.807	21772.64
508.009	21807.45
508.212	22186.33
508.415	22245.72
508.617	22509.91
508.82	22815.05
509.022	22464.85
509.225	23443.78
509.428	23429.45
509.63	23691.59
509.833	23824.7
510.035	24097.08
510.238	24258.87
510.44	24449.33
510.643	24944.94
510.845	24899.89
511.048	24637.75
511.25	25377.06
511.453	25571.62
511.655	26706.2
511.858	26198.3
512.06	26462.49
512.262	26716.43
512.465	26689.81
512.667	26915.09
512.87	27584.77
513.072	27279.63
513.274	27980.03
513.477	28424.44
513.679	28457.21
513.881	29034.74
514.084	29079.79
514.286	28983.54
514.488	29153.52
514.69	30304.48
514.893	29978.85
515.095	30300.38
515.297	30695.64
515.499	30699.73
515.701	31051.98
515.904	31383.76
516.106	31846.6
516.308	31588.55
516.51	32239.81
516.712	32280.77
516.914	32598.2
517.116	33013.94
517.318	33089.71
517.52	33654.95
517.722	33589.42
517.925	34785.43
518.127	34650.27
518.329	34750.62
518.531	34787.48
518.733	35270.8
518.935	35215.51
519.136	35362.96
519.338	35678.35
519.54	36343.94
519.742	36644.99
519.944	36520.06
520.146	37042.29
520.348	37318.77
520.55	37765.23
520.752	37308.53
520.954	38606.94
521.155	38183.01
521.357	38766.68
521.559	39047.25
521.761	39694.41
521.963	38981.72
522.164	39530.58
522.366	39506
522.568	39979.08
522.77	39917.64
522.971	41398.32
523.173	40517.7
523.375	41396.27
523.576	41228.34
523.778	41549.87
523.98	41889.84
524.181	41846.83
524.383	42197.03
524.584	42461.22
524.786	42401.83
524.988	42276.9
525.189	43145.24
525.391	43231.25
525.592	43233.3
525.794	42862.62
525.995	43266.07
526.197	43436.05
526.398	43626.51
526.6	44054.54
526.801	44255.24
527.003	44220.42
527.204	44302.34
527.406	44599.3
527.607	44593.15
527.808	44926.97
528.01	44527.62
528.211	44363.78
528.412	45465.59
528.614	44779.52
528.815	45498.36
529.016	45606.9
529.218	45490.16
529.419	45279.22
529.62	45731.82
529.822	45750.26
530.023	45527.03
530.224	46075.88
530.425	45252.6
530.626	45207.54
530.828	45402.1
531.029	46239.72
531.23	45621.23
531.431	45586.42
531.632	45748.21
531.833	46280.68
532.035	46063.6
532.236	45832.18
532.437	46671.84
532.638	45719.54
532.839	46182.38
533.04	46045.16
533.241	45813.74
533.442	47253.47
533.643	46256.1
533.844	46256.1
534.045	46407.65
534.246	46284.78
534.447	46229.48
534.648	46495.72
534.849	46319.59
535.05	46051.31
535.251	46661.6
535.451	45938.67
535.652	46383.08
535.853	46088.17
536.054	46452.71
536.255	46188.52
536.456	46219.24
536.657	46798.82
536.857	46131.18
537.058	45727.73
537.259	46155.75
537.46	45852.65
537.66	45881.33
537.861	46262.25
538.062	45928.43
538.263	46467.05
538.463	45744.11
538.664	45871.09
538.865	45776.88
539.065	45891.57
539.266	45836.27
539.466	46231.53
539.667	45367.29
539.868	46510.05
540.068	45740.02
540.269	45613.04
540.469	46059.5
540.67	45740.02
540.87	45428.73
541.071	45754.35
541.271	46034.92
541.472	45907.95
541.672	45252.6
541.873	45350.9
542.073	44957.69
542.274	45647.86
542.474	45271.03
542.675	45264.89
542.875	45645.81
543.075	45142.01
543.276	45238.26
543.476	45778.93
543.676	45076.47
543.877	45494.26
544.077	45160.44
544.277	44982.27
544.478	45567.99
544.678	45619.19
544.878	45449.21
545.078	45518.84
545.279	45289.46
545.479	45260.79
545.679	45062.14
545.879	45469.68
546.079	45279.22
546.28	45236.22
546.48	45139.96
546.68	45447.16
546.88	45406.2
547.08	45074.43
547.28	45479.92
547.48	44603.39
547.68	45391.86
547.88	44734.46
548.081	45406.2
548.281	45060.09
548.481	44912.64
548.681	45424.63
548.881	45424.63
549.081	44845.05
549.28	45094.91
549.48	45076.47
549.68	44945.4
549.88	45527.03
550.08	44544
550.28	44914.69
550.48	45056
550.68	45082.62
550.88	44478.47
551.08	44924.93
551.279	45395.96
551.479	44404.74
551.679	44744.7
551.879	44556.29
552.079	44863.49
552.278	44902.4
552.478	44793.86
552.678	44765.18
552.878	45336.57
553.077	44707.84
553.277	44427.27
553.477	44752.9
553.676	44441.6
553.876	44617.73
554.076	44683.26
554.275	44517.38
554.475	44605.44
554.674	44689.41
554.874	44734.46
555.074	44449.8
555.273	44750.85
555.473	44713.98
555.672	44345.35
555.872	44429.32
556.071	44314.63
556.271	44898.3
556.47	43921.42
556.67	43984.91
556.869	44109.83
557.068	44290.05
557.268	44007.44
557.467	44230.66
557.667	43814.93
557.866	44570.63
558.065	43954.19
558.265	44048.39
558.464	44060.68
558.663	44406.79
558.863	43710.48
559.062	44425.22
559.261	43515.92
559.461	44433.41
559.66	43407.38
559.859	44228.62
560.058	43374.61
560.258	43735.06
560.457	43479.06
560.656	43915.28
560.855	43405.33
561.054	43499.54
561.253	43163.67
561.453	43339.8
561.652	43454.48
561.851	43460.63
562.05	42885.15
562.249	42887.2
562.448	43438.1
562.647	43188.25
562.846	43081.75
563.045	43261.97
563.244	43120.66
563.443	43108.38
563.642	42700.83
563.841	42967.07
564.04	42688.54
564.239	43200.54
564.438	42688.54
564.637	42526.75
564.836	42616.86
565.035	42037.29
565.234	42663.97
565.432	42035.24
565.631	42281
565.83	42272.81
566.029	42018.86
566.228	42123.3
566.427	42061.86
566.625	42043.43
566.824	41623.6
567.023	41818.16
567.222	41166.9
567.42	41816.11
567.619	41832.49
567.818	41478.19
568.016	41470
568.215	41771.05
568.414	40960.06
568.612	41564.21
568.811	41418.8
569.01	41367.6
569.208	40802.36
569.407	41400.37
569.605	40360
569.804	41078.84
570.002	40534.08
570.201	40878.14
570.4	40521.79
570.598	40247.36
570.797	40116.29
570.995	40282.18
571.193	39723.08
571.392	40435.78
571.59	39856.2
571.789	39972.94
571.987	39708.75
572.186	39798.86
572.384	39538.77
572.582	39858.25
572.781	39893.07
572.979	39489.62
573.177	39444.56
573.376	39258.2
573.574	39116.89
573.772	39227.48
573.971	38852.7
574.169	38703.2
574.367	38828.12
574.565	38926.42
574.763	38598.75
574.962	38445.15
575.16	38103.14
575.358	38418.53
575.556	37992.55
575.754	38910.04
575.952	38084.71
576.151	38404.19
576.349	37709.93
576.547	37806.19
576.745	37740.65
576.943	37843.05
577.141	37488.75
577.339	37439.6
577.537	37275.76
577.735	37378.16
577.933	37308.53
578.131	37245.04
578.329	37023.86
578.527	36622.46
578.725	36644.99
578.923	37337.2
579.121	36933.75
579.319	36716.67
579.516	36548.73
579.714	36745.34
579.912	36065.41
580.11	36259.97
580.308	36239.49
580.506	36219.01
580.704	35879.05
580.901	35987.59
581.099	36266.11
581.297	35702.92
581.495	35539.08
581.692	35635.34
581.89	35358.86
582.088	35596.43
582.285	35235.98
582.483	35541.13
582.681	35176.59
582.878	34910.36
583.076	35055.76
583.274	34963.61
583.471	34560.16
583.669	34767
583.866	34846.87
584.064	34361.5
584.262	34011.3
584.459	34535.58
584.657	34255.01
584.854	34707.61
585.052	33769.64
585.249	34228.38
585.447	34080.93
585.644	33370.29
585.841	33650.86
586.039	33953.96
586.236	33345.71
586.434	33685.67
586.631	33333.42
586.828	33435.82
587.026	33126.58
587.223	33327.28
587.42	33181.87
587.618	33360.05
587.815	32929.97
588.012	32678.07
588.21	32487.61
588.407	33030.32
588.604	32598.2
588.801	32430.27
588.999	32520.38
589.196	32225.47
589.393	32493.75
589.59	32116.93
589.787	32219.33
589.984	32010.43
590.182	31899.84
590.379	32037.06
590.576	31729.86
590.773	31625.42
590.97	31740.1
591.167	31625.42
591.364	30943.44
591.561	31625.42
591.758	31021.27
591.955	30886.1
592.152	31090.9
592.349	31119.57
592.546	31037.65
592.743	31084.75
592.94	30320.86
593.137	30550.23
593.334	30841.04
593.531	30310.62
593.727	30550.23
593.924	30542.04
594.121	30253.28
594.318	30748.89
594.515	29901.03
594.712	30226.65
594.908	29966.56
595.105	30058.72
595.302	29708.52
595.499	29794.53
595.696	29567.21
595.892	29188.33
596.089	29843.68
596.286	29341.93
596.482	29714.66
596.679	29325.55
596.876	29303.02
597.072	28991.73
597.269	28813.55
597.466	28729.59
597.662	28752.12
597.859	28670.2
598.055	28795.12
598.252	28481.78
598.448	28844.27
598.645	28328.19
598.841	28287.23
599.038	28459.26
599.234	28528.89
599.431	28117.25
599.627	27779.33
599.824	28182.78
600.02	28096.77
600.217	28002.56
600.413	27652.36
600.609	27826.43
600.806	27578.63
601.002	27803.91
601.198	27468.04
601.395	27519.24
601.591	27166.99
601.787	27269.39
601.984	27324.68
602.18	27293.96
602.376	27175.18
602.572	26544.41
602.769	26796.31
602.965	26679.57
603.161	27126.03
603.357	26454.29
603.553	26458.39
603.75	26417.43
603.946	26192.15
604.142	26351.9
604.338	26081.56
604.534	26190.11
604.73	26065.18
604.926	25835.81
605.122	25975.07
605.318	25960.73
605.514	25577.76
605.71	25532.71
605.906	25809.18
606.102	25829.66
606.298	25956.64
606.494	25764.13
606.69	25438.5
606.886	25368.87
607.082	25170.22
607.278	25364.78
607.474	24908.08
607.67	25213.23
607.866	24682.8
608.062	25442.6
608.257	24871.22
608.453	25073.96
608.649	25018.67
608.845	24662.32
609.041	24443.19
609.236	24813.87
609.432	24660.27
609.628	24559.92
609.824	24598.84
610.019	24551.73
610.215	24326.46
610.411	24602.93
610.606	24631.6
610.802	24664.37
610.998	24471.86
611.193	24312.12
611.389	24281.4
611.584	24172.86
611.78	24252.73
611.976	24047.93
612.171	24049.98
612.367	24297.78
612.562	24054.08
612.758	23841.09
612.953	23621.95
613.149	24408.37
613.344	23877.95
613.539	24082.75
613.735	23875.9
613.93	23943.49
614.126	23638.34
614.321	23951.68
614.517	23908.67
614.712	23714.11
614.907	23300.42
615.103	23384.39
615.298	23468.36
615.493	23492.93
615.688	23374.15
615.884	23705.92
616.079	23105.87
616.274	23380.29
616.47	23062.86
616.665	23208.26
616.86	23208.26
617.055	22982.99
617.25	22964.56
617.445	23370.05
617.641	22632.79
617.836	22987.08
618.031	22380.89
618.226	22853.97
618.421	22696.27
618.616	22749.52
618.811	22298.97
619.006	22786.38
619.201	22163.8
619.396	22217.05
619.591	21784.93
619.786	22215
619.981	21606.75
620.176	22096.22
620.371	21428.58
620.566	21453.16
620.761	21608.8
620.956	21612.9
621.151	21178.73
621.346	21264.74
621.541	20990.31
621.735	21397.86
621.93	20855.15
622.125	20724.08
622.32	20719.98
622.515	20527.47
622.709	20242.81
622.904	20578.67
623.099	20343.16
623.294	20455.79
623.488	20144.5
623.683	20220.28
623.878	19782.01
624.072	19872.12
624.267	19595.65
624.462	19347.84
624.656	19470.72
624.851	19642.75
625.046	19261.83
625.24	19278.21
625.435	18997.64
625.629	19018.12
625.824	18835.85
626.018	18864.52
626.213	18227.6
626.407	18440.59
626.602	18430.35
626.796	18311.57
626.991	18413.97
627.185	18102.68
627.38	18217.36
627.574	17887.64
627.768	17797.53
627.963	17811.87
628.157	17537.44
628.352	17701.28
628.546	17523.1
628.74	17582.49
628.935	17191.33
629.129	17324.45
629.323	17150.37
629.517	17033.64
629.712	17172.9
629.906	17080.74
630.1	16665
630.294	17037.73
630.489	16515.5
630.683	16697.77
630.877	16189.88
631.071	16282.03
631.265	16320.95
631.459	16144.82
631.653	15956.41
631.848	15989.17
632.042	15903.16
632.236	15948.22
632.43	15796.67
632.624	16112.05
632.818	15727.03
633.012	15671.74
633.206	15243.71
633.4	15210.95
633.594	15296.96
633.788	15133.12
633.982	15292.87
634.176	15311.3
634.369	15008.2
634.563	14870.98
634.757	15000.01
634.951	14797.26
635.145	14393.81
635.339	14678.47
635.533	14330.32
635.726	14391.76
635.92	14332.37
636.114	14563.79
636.308	14283.22
636.501	14262.74
636.695	14092.76
636.889	14219.73
637.083	14105.04
637.276	14014.93
637.47	13699.55
637.664	13578.72
637.857	13521.37
638.051	13605.34
638.244	13453.79
638.438	13384.16
638.632	13396.45
638.825	13367.77
639.019	13187.55
639.212	12882.41
639.406	13072.87
639.599	12847.59
639.793	12939.75
639.986	12761.58
640.18	12970.47
640.373	12540.4
640.567	12530.16
640.76	12657.13
640.954	12626.41
641.147	12370.41
641.34	12339.69
641.534	12378.61
641.727	12093.94
641.92	12249.58
642.114	12182
642.307	12202.48
642.5	12001.78
642.694	11620.86
642.887	12034.55
643.08	11946.48
643.273	11667.96
643.467	11631.1
643.66	11473.4
643.853	11534.84
644.046	11266.56
644.239	11282.94
644.432	11344.38
644.626	11278.85
644.819	11371.01
645.012	11123.2
645.205	11264.51
645.398	11090.43
645.591	10793.48
645.784	10996.23
645.977	10709.51
646.17	10766.85
646.363	10650.12
646.556	10451.47
646.749	10652.17
646.942	10609.16
647.135	10541.58
647.328	10246.67
647.521	10430.99
647.714	10379.79
647.907	10392.08
648.099	10304.01
648.292	10168.85
648.485	10242.57
648.678	9878.04
648.871	9972.24
649.064	10054.16
649.256	9933.33
649.449	9980.43
649.642	9665.05
649.835	9714.2
650.027	9669.14
650.22	9484.83
650.413	9581.08
650.605	9447.96
650.798	9632.28
650.991	9394.72
651.183	9357.85
651.376	9267.74
651.568	9288.22
651.761	9073.18
651.954	9165.34
652.146	9366.04
652.339	9167.39
652.531	9019.94
652.724	8942.11
652.916	8905.25
653.109	8704.55
653.301	8780.32
653.494	8944.16
653.686	8669.73
653.879	8804.9
654.071	8581.67
654.263	8503.85
654.456	8673.83
654.648	8460.84
654.84	8399.4
655.033	8321.58
655.225	8512.04
655.417	8442.41
655.61	8170.03
655.802	8249.9
655.994	8350.25
656.186	8167.98
656.379	8024.62
656.571	8258.09
656.763	7965.23
656.955	7850.55
657.148	8090.16
657.34	8038.96
657.532	7809.59
657.724	7729.72
657.916	7762.48
658.108	7713.33
658.3	7842.35
658.492	7629.37
658.684	7701.05
658.876	7690.81
659.068	7633.46
659.26	7326.27
659.452	7305.79
659.644	7346.75
659.836	7416.38
660.028	7408.19
660.22	7100.99
660.412	7451.19
660.604	7205.44
660.796	7180.86
660.988	7326.27
661.18	6982.21
661.372	7283.26
661.563	6969.92
661.755	7094.85
661.947	6965.82
662.139	6877.76
662.331	7004.74
662.522	6808.13
662.714	6859.33
662.906	6658.63
663.097	6724.16
663.289	6658.63
663.481	6658.63
663.673	6822.47
663.864	6685.25
664.056	6488.65
664.247	6593.09
664.439	6558.28
664.631	6611.53
664.822	6527.56
665.014	6384.2
665.205	6419.02
665.397	6226.51
665.588	6468.17
665.78	6249.04
665.971	6191.69
666.163	6165.07
666.354	6238.8
666.546	6152.78
666.737	6077.01
666.929	6167.12
667.12	6060.62
667.311	5904.98
667.503	6095.44
667.694	6109.77
667.885	5982.8
668.077	5988.94
668.268	5823.06
668.459	5843.54
668.651	5792.34
668.842	5861.97
669.033	5853.78
669.224	5839.44
669.416	5818.96
669.607	5519.96
669.798	5644.88
669.989	5657.17
670.18	5546.58
670.371	5630.55
670.563	5601.88
670.754	5657.17
670.945	5610.07
671.136	5579.35
671.327	5440.09
671.518	5511.77
671.709	5501.53
671.9	5513.81
672.091	5280.35
672.282	5425.75
672.473	5311.07
672.664	5552.73
672.855	5259.87
673.046	5315.16
673.237	5382.74
673.428	5278.3
673.619	5134.94
673.809	5304.92
674	5040.73
674.191	5333.59
674.382	5274.2
674.573	5104.22
674.764	5180
674.954	5182.04
675.145	5108.32
675.336	5048.93
675.527	5003.87
675.717	5120.6
675.908	4962.91
676.099	5020.25
676.289	5012.06
676.48	5163.61
676.671	4979.29
676.861	5089.88
677.052	4872.8
677.243	4856.42
677.433	4938.34
677.624	4893.28
677.814	4924
678.005	4741.73
678.195	4897.38
678.386	4852.32
678.576	4889.18
678.767	4766.31
678.957	4784.74
679.148	4766.31
679.338	4741.73
679.529	4663.91
679.719	4655.72
679.909	4817.51
680.1	4764.26
680.29	4717.15
680.481	4604.52
680.671	4690.53
680.861	4668
681.052	4745.83
681.242	4676.2
681.432	4717.15
681.622	4655.72
681.813	4719.2
682.003	4586.08
682.193	4573.8
682.383	4622.95
682.573	4659.81
682.764	4704.87
682.954	4532.84
683.144	4688.48
683.334	4543.08
683.524	4483.69
683.714	4428.39
683.904	4416.1
684.094	4655.72
684.284	4538.98
684.474	4309.61
684.664	4436.58
684.854	4483.69
685.044	4274.79
685.234	4364.9
685.424	4498.02
685.614	4315.75
685.804	4418.15
685.994	4242.03
686.184	4512.36
686.374	4371.05
686.564	4233.83
686.753	4143.72
686.943	4301.42
687.133	4328.04
687.323	4244.07
687.513	4299.37
687.702	4266.6
687.892	4168.3
688.082	4082.28
688.272	4127.34
688.461	4110.96
688.651	4213.35
688.841	4053.61
689.03	4141.68
689.22	4121.2
689.41	4035.18
689.599	4022.89
689.789	4094.57
689.979	4012.65
690.168	3914.35
690.358	4143.72
690.547	4020.85
690.737	3930.73
690.926	3893.87
691.116	3900.02
691.305	3895.92
691.495	3857.01
691.684	3863.15
691.874	3910.25
692.063	3760.75
692.252	3930.73
692.442	3844.72
692.631	3781.23
692.82	3910.25
693.01	3801.71
693.199	3832.43
693.388	3854.96
693.578	3785.33
693.767	3736.18
693.956	3646.07
694.146	3787.38
694.335	3701.36
694.524	3744.37
694.713	3721.84
694.902	3809.9
695.092	3701.36
695.281	3693.17
695.47	3787.38
695.659	3596.92
695.848	3676.79
696.037	3621.49
696.226	3617.4
696.415	3637.88
696.604	3684.98
696.793	3652.21
696.982	3615.35
697.171	3646.07
697.36	3668.59
697.549	3607.16
697.738	3566.2
697.927	3482.23
698.116	3727.99
698.305	3484.28
698.494	3709.55
698.683	3603.06
698.872	3711.6
699.061	3545.72
699.25	3457.65
699.438	3535.48
699.627	3504.76
699.816	3484.28
700.005	3377.78
700.193	3465.85
700.382	3555.96
700.571	3484.28
700.76	3525.24
700.948	3539.57
701.137	3392.12
701.326	3406.45
701.514	3498.61
701.703	3492.47
701.892	3455.61
702.08	3373.69
702.269	3543.67
702.457	3447.41
702.646	3408.5
702.834	3381.88
703.023	3402.36
703.212	3334.78
703.4	3365.5
703.589	3398.26
703.777	3416.69
703.965	3322.49
704.154	3363.45
704.342	3480.18
704.531	3322.49
704.719	3332.73
704.907	3398.26
705.096	3226.23
705.284	3383.93
705.472	3340.92
705.661	3287.67
705.849	3310.2
706.037	3193.47
706.226	3385.97
706.414	3281.53
706.602	3299.96
706.79	3371.64
706.979	3269.24
707.167	3238.52
707.355	3209.85
707.543	3289.72
707.731	3232.38
707.919	3312.25
708.107	3271.29
708.296	3312.25
708.484	3150.46
708.672	3220.09
708.86	3172.99
709.048	3048.06
709.236	3152.51
709.424	3187.32
709.612	3144.31
709.8	3168.89
709.988	3152.51
710.176	3187.32
710.364	3095.16
710.551	3185.27
710.739	3226.23
710.927	2996.86
711.115	3136.12
711.303	3132.03
711.491	3220.09
711.679	3031.68
711.866	3091.07
712.054	3127.93
712.242	2939.52
712.43	3039.87
712.617	3062.4
712.805	2964.09
712.993	3119.74
713.181	3023.48
713.368	3033.72
713.556	2984.57
713.744	3023.48
713.931	3007.1
714.119	3007.1
714.306	3091.07
714.494	3056.25
714.682	2900.61
714.869	2914.94
715.057	2880.13
715.244	2943.61
715.432	3052.16
715.619	3009.15
715.807	2882.17
715.994	2910.85
716.182	2878.08
716.369	2898.56
716.556	2884.22
716.744	2882.17
716.931	2855.55
717.119	2976.38
717.306	2945.66
717.493	2826.88
717.681	2841.22
717.868	2794.11
718.055	2822.78
718.242	2828.93
718.43	2824.83
718.617	2945.66
718.804	2810.5
718.991	2833.02
719.179	2853.5
719.366	2742.91
719.553	2783.87
719.74	2882.17
719.927	2824.83
720.114	2828.93
720.301	2804.35
720.488	2718.34
720.676	2689.67
720.863	2749.06
721.05	2906.75
721.237	2667.14
721.424	2830.98
721.611	2638.47
721.798	2587.27
721.985	2677.38
722.172	2790.02
722.358	2665.09
722.545	2677.38
722.732	2642.56
722.919	2687.62
723.106	2644.61
723.293	2554.5
723.48	2599.55
723.667	2607.75
723.853	2546.31
724.04	2615.94
724.227	2632.32
724.414	2667.14
724.6	2538.12
724.787	2759.3
724.974	2587.27
725.161	2564.74
725.347	2415.24
725.534	2566.79
725.72	2515.59
725.907	2609.79
726.094	2497.16
726.28	2546.31
726.467	2554.5
726.653	2546.31
726.84	2570.88
727.027	2581.12
727.213	2488.96
727.4	2564.74
727.586	2495.11
727.773	2513.54
727.959	2505.35
728.145	2601.6
728.332	2466.44
728.518	2480.77
728.705	2540.16
728.891	2443.91
729.077	2484.87
729.264	2534.02
729.45	2454.15
729.636	2488.96
729.823	2486.92
730.009	2507.4
730.195	2443.91
730.382	2452.1
730.568	2368.13
730.754	2413.19
730.94	2581.12
731.126	2407.05
731.313	2308.74
731.499	2443.91
731.685	2390.66
731.871	2409.09
732.057	2460.29
732.243	2407.05
732.429	2357.89
732.615	2353.8
732.801	2400.9
732.987	2458.25
733.173	2357.89
733.359	2345.61
733.545	2327.18
733.731	2296.46
733.917	2341.51
734.103	2335.37
734.289	2312.84
734.475	2222.73
734.661	2398.85
734.847	2337.41
735.033	2333.32
735.219	2413.19
735.404	2323.08
735.59	2257.54
735.776	2304.65
735.962	2316.94
736.148	2386.57
736.333	2335.37
736.519	2261.64
736.705	2251.4
736.89	2232.97
737.076	2222.73
737.262	2120.33
737.447	2144.91
737.633	2169.48
737.819	2116.23
738.004	2206.34
738.19	2220.68
738.375	2132.62
738.561	2194.06
738.747	2163.34
738.932	2079.37
739.118	2136.71
739.303	2144.91
739.489	2210.44
739.674	2181.77
739.859	2001.55
740.045	2120.33
740.23	2181.77
740.416	2056.84
740.601	2136.71
740.786	1979.02
740.972	2060.94
741.157	2112.14
741.342	2058.89
741.528	1976.97
741.713	2120.33
741.898	2030.22
742.084	2026.12
742.269	1985.16
742.454	2050.7
742.639	2042.51
742.824	1979.02
743.01	1923.73
743.195	2028.17
743.38	1950.35
743.565	2009.74
743.75	1983.12
743.935	1841.81
744.12	1976.97
744.305	1860.24
744.49	1991.31
744.675	1903.25
744.86	1882.77
745.045	1852.05
745.23	1983.12
745.415	1858.19
745.6	1907.34
745.785	1919.63
745.97	1917.58
746.155	1800.85
746.34	1825.42
746.525	1739.41
746.71	1876.62
746.895	1770.13
747.079	1741.46
747.264	1802.9
747.449	1723.02
747.634	1702.54
747.819	1768.08
748.003	1723.02
748.188	1575.57
748.373	1647.25
748.557	1661.59
748.742	1690.26
748.927	1669.78
749.111	1667.73
749.296	1647.25
749.481	1673.87
749.665	1596.05
749.85	1581.71
750.034	1569.43
750.219	1569.43
750.404	1583.76
750.588	1571.47
750.773	1456.79
750.957	1483.41
751.141	1526.42
751.326	1460.88
751.51	1493.65
751.695	1460.88
751.879	1467.03
752.064	1510.04
752.248	1507.99
752.432	1456.79
752.617	1395.35
752.801	1432.21
752.985	1432.21
753.17	1505.94
753.354	1372.82
753.538	1399.45
753.722	1499.8
753.907	1415.83
754.091	1374.87
754.275	1385.11
754.459	1405.59
754.643	1368.73
754.828	1338.01
755.012	1342.1
755.196	1276.57
755.38	1260.18
755.564	1333.91
755.748	1260.18
755.932	1174.17
756.116	1286.81
756.3	1225.37
756.484	1272.47
756.668	1235.61
756.852	1184.41
757.036	1184.41
757.22	1227.42
757.404	1129.11
757.588	1221.27
757.772	1163.93
757.956	1147.55
758.14	1116.83
758.323	1159.83
758.507	1233.56
758.691	1178.26
758.875	1239.7
759.059	1036.95
759.242	1079.96
759.426	1129.11
759.61	1174.17
759.794	1084.06
759.977	1206.94
760.161	1145.5
760.345	1145.5
760.528	1014.43
760.712	1073.82
760.895	1055.39
761.079	1065.63
761.263	1120.92
761.446	1006.24
761.63	971.42
761.813	1071.77
761.997	1014.43
762.18	961.18
762.364	1051.29
762.547	877.21
762.731	1104.54
762.914	1002.14
763.098	969.37
763.281	916.12
763.464	1006.24
763.648	952.99
763.831	989.85
764.015	983.71
764.198	961.18
764.381	993.95
764.564	973.47
764.748	907.93
764.931	955.04
765.114	952.99
765.297	955.04
765.481	948.89
765.664	944.8
765.847	1020.57
766.03	860.83
766.213	891.55
766.397	803.49
766.58	920.22
766.763	924.32
766.946	920.22
767.129	795.29
767.312	932.51
767.495	836.25
767.678	862.88
767.861	1002.14
768.044	944.8
768.227	862.88
768.41	916.12
768.593	909.98
768.776	844.45
768.959	813.73
769.142	871.07
769.324	787.1
769.507	721.57
769.69	914.08
769.873	791.2
770.056	871.07
770.239	817.82
770.421	760.48
770.604	768.67
770.787	756.38
770.97	834.21
771.152	846.49
771.335	821.92
771.518	834.21
771.7	850.59
771.883	869.02
772.066	735.9
772.248	709.28
772.431	836.25
772.613	744.1
772.796	729.76
772.978	795.29
773.161	776.86
773.343	801.44
773.526	713.38
773.708	694.94
773.891	670.37
774.073	746.14
774.256	621.22
774.438	764.58
774.621	703.14
774.803	678.56
774.985	774.81
775.168	719.52
775.35	653.98
775.532	705.18
775.715	645.79
775.897	770.72
776.079	660.13
776.261	680.61
776.444	639.65
776.626	776.86
776.808	660.13
776.99	580.26
777.173	678.56
777.355	653.98
777.537	606.88
777.719	643.74
777.901	576.16
778.083	688.8
778.265	617.12
778.447	615.07
778.629	662.18
778.811	621.22
778.993	584.35
779.175	635.55
779.357	596.64
779.539	604.83
779.721	543.39
779.903	623.27
780.085	598.69
780.267	572.07
780.449	623.27
780.631	604.83
780.812	578.21
780.994	549.54
781.176	639.65
781.358	492.2
781.54	502.43
781.721	588.45
781.903	531.11
782.085	588.45
782.267	570.02
782.448	424.61
782.63	465.57
782.812	422.56
782.993	467.62
783.175	492.2
783.357	352.93
783.538	533.15
783.72	412.32
783.901	486.05
784.083	469.67
784.264	457.38
784.446	481.96
784.627	443.04
784.809	461.48
784.99	359.08
785.172	481.96
785.353	418.47
785.535	490.15
785.716	502.43
785.897	434.85
786.079	481.96
786.26	434.85
786.441	408.23
786.623	486.05
786.804	367.27
786.985	391.84
787.167	438.95
787.348	420.52
787.529	387.75
787.71	445.09
787.891	410.28
788.073	393.89
788.254	424.61
788.435	400.04
788.616	408.23
788.797	342.69
788.978	379.56
789.159	303.78
789.34	344.74
789.522	318.12
789.703	336.55
789.884	432.8
790.065	395.94
790.246	393.89
790.427	352.93
790.607	402.08
790.788	377.51
790.969	328.36
791.15	377.51
791.331	342.69
791.512	287.4
791.693	273.06
791.874	375.46
792.054	314.02
792.235	387.75
792.416	344.74
792.597	244.39
792.778	301.73
792.958	342.69
793.139	258.73
793.32	273.06
793.5	354.98
793.681	287.4
793.862	281.25
794.042	309.93
794.223	336.55
794.404	369.32
794.584	248.49
794.765	264.87
794.945	262.82
795.126	320.17
795.306	283.3
795.487	271.01
795.667	309.93
795.848	309.93
796.028	303.78
796.209	307.88
796.389	309.93
796.57	246.44
796.75	215.72
796.93	305.83
797.111	277.16
797.291	236.2
797.471	215.72
797.652	244.39
797.832	178.86
798.012	246.44
798.192	330.41
798.373	250.53
798.553	205.48
798.733	187.05
798.913	285.35
799.093	262.82
799.274	242.34
799.454	258.73
799.634	197.29
799.814	293.54
799.994	285.35
800.174	180.9
800.354	230.06
800.534	203.43
800.714	215.72
800.894	223.91
801.074	162.47
801.254	211.62
801.434	287.4
801.614	203.43
801.794	207.53
801.974	754.34
802.154	275.11
802.334	275.11
802.514	141.99
802.693	168.62
802.873	135.85
803.053	279.21
803.233	189.1
803.413	219.82
803.592	154.28
803.772	201.38
803.952	228.01
804.131	203.43
804.311	258.73
804.491	244.39
804.67	193.19
804.85	139.94
805.03	219.82
805.209	195.24
805.389	172.71
805.568	109.22
805.748	180.9
805.928	232.1
806.107	172.71
806.287	137.9
806.466	221.86
806.646	203.43
806.825	182.95
807.004	260.77
807.184	178.86
807.363	154.28
807.543	185
807.722	176.81
807.901	225.96
808.081	225.96
808.26	158.38
808.439	228.01
808.619	168.62
808.798	154.28
808.977	131.75
809.156	137.9
809.336	101.03
809.515	154.28
809.694	96.94
809.873	162.47
810.052	180.9
810.231	146.09
810.411	113.32
810.59	199.34
810.769	125.61
810.948	158.38
811.127	170.66
811.306	170.66
811.485	135.85
811.664	238.25
811.843	156.33
812.022	129.7
812.201	162.47
812.38	232.1
812.559	133.8
812.737	191.14
812.916	39.59
813.095	80.55
813.274	125.61
813.453	135.85
813.632	119.46
813.811	178.86
813.989	150.18
814.168	189.1
814.347	203.43
814.526	170.66
814.704	150.18
814.883	156.33
815.062	121.51
815.24	103.08
815.419	90.79
815.598	148.14
815.776	146.09
815.955	180.9
816.133	154.28
816.312	96.94
816.49	162.47
816.669	189.1
816.847	131.75
817.026	115.37
817.204	146.09
817.383	189.1
817.561	135.85
817.74	182.95
817.918	92.84
818.097	166.57
818.275	119.46
818.453	148.14
818.632	162.47
818.81	103.08
818.988	96.94
819.167	141.99
819.345	125.61
819.523	123.56
819.701	135.85
819.879	41.64
820.058	90.79
820.236	133.8
820.414	139.94
820.592	152.23
820.77	127.66
820.948	15.02
821.127	84.65
821.305	123.56
821.483	76.46
821.661	158.38
821.839	47.79
822.017	10.92
822.195	90.79
822.373	76.46
822.551	113.32
822.729	137.9
822.907	131.75
823.085	113.32
823.262	160.42
823.44	80.55
823.618	49.83
823.796	129.7
823.974	148.14
824.152	109.22
824.329	90.79
824.507	113.32
824.685	121.51
824.863	80.55
825.04	103.08
825.218	164.52
825.396	133.8
825.574	156.33
825.751	146.09
825.929	137.9
826.107	41.64
826.284	109.22
826.462	43.69
826.639	123.56
826.817	96.94
826.994	129.7
827.172	127.66
827.349	105.13
827.527	51.88
827.704	146.09
827.882	103.08
828.059	90.79
828.237	121.51
828.414	129.7
828.591	125.61
828.769	72.36
828.946	49.83
829.124	66.22
829.301	170.66
829.478	64.17
829.655	98.99
829.833	51.88
830.01	84.65
830.187	92.84
830.364	55.98
830.542	66.22
830.719	86.7
830.896	58.03
831.073	58.03
831.25	150.18
831.427	49.83
831.604	64.17
831.782	12.97
831.959	72.36
832.136	2.73
832.313	105.13
832.49	137.9
832.667	55.98
832.844	74.41
833.021	146.09
833.198	92.84
833.374	70.31
833.551	80.55
833.728	88.75
833.905	115.37
834.082	43.69
834.259	78.51
834.436	90.79
834.612	17.07
834.789	121.51
834.966	53.93
835.143	113.32
835.319	74.41
835.496	131.75
835.673	27.31
835.85	51.88
836.026	119.46
836.203	146.09
836.38	47.79
836.556	33.45
836.733	146.09
836.909	129.7
837.086	90.79
837.262	39.59
837.439	64.17
837.616	80.55
837.792	23.21
837.968	25.26
838.145	70.31
838.321	2.73
838.498	84.65
838.674	98.99
838.851	64.17
839.027	49.83
839.203	8.87
839.38	92.84
839.556	72.36
839.732	51.88
839.909	123.56
840.085	82.6
840.261	4.78
840.437	25.26
840.614	10.92
840.79	6.83
840.966	105.13
841.142	23.21
841.318	25.26
841.494	-32.08
841.671	86.7
841.847	37.55
842.023	137.9
842.199	72.36
842.375	111.27
842.551	68.27
842.727	35.5
842.903	103.08
843.079	25.26
843.255	25.26
843.431	23.21
843.607	98.99
843.783	-44.37
843.959	131.75
844.134	90.79
844.31	55.98
844.486	121.51
844.662	-7.51
844.838	96.94
845.013	105.13
845.189	25.26
845.365	55.98
845.541	86.7
845.716	23.21
845.892	84.65
846.068	55.98
846.244	43.69
846.419	31.4
846.595	66.22
846.77	-38.23
846.946	115.37
847.122	101.03
847.297	8.87
847.473	90.79
847.648	-13.65
847.824	17.07
847.999	15.02
848.175	58.03
848.35	37.55
848.526	39.59
848.701	98.99
848.876	103.08
849.052	35.5
849.227	-9.56
849.403	35.5
849.578	-11.61
849.753	80.55
849.929	80.55
850.104	82.6
850.279	15.02
850.454	27.31
850.63	82.6
850.805	55.98
850.98	68.27
851.155	53.93
851.33	15.02
851.505	-42.32
851.681	154.28
851.856	58.03
852.031	80.55
852.206	53.93
852.381	72.36
852.556	10.92
852.731	103.08
852.906	-9.56
853.081	39.59
853.256	96.94
853.431	-34.13
853.606	4.78
853.781	-13.65
853.956	-11.61
854.131	-7.51
854.305	55.98
854.48	-3.41
854.655	-1.37
854.83	37.55
855.005	39.59
855.18	35.5
855.354	8.87
855.529	35.5
855.704	35.5
855.879	51.88
856.053	31.4
856.228	8.87
856.403	39.59
856.577	107.18
856.752	6.83
856.926	33.45
857.101	49.83
857.276	-17.75
857.45	55.98
857.625	74.41
857.799	84.65
857.974	0.68
858.148	-17.75
858.323	23.21
858.497	72.36
858.672	37.55
858.846	-7.51
859.02	-1.37
859.195	-36.18
859.369	39.59
859.543	-7.51
859.718	-13.65
859.892	12.97
860.066	80.55
860.241	2.73
860.415	55.98
860.589	19.11
860.763	35.5
860.938	25.26
861.112	-42.32
861.286	62.12
861.46	31.4
861.634	10.92
861.808	25.26
861.982	-34.13
862.157	84.65
862.331	2.73
862.505	39.59
862.679	6.83
862.853	41.64
863.027	41.64
863.201	82.6
863.375	8.87
863.549	123.56
863.722	-32.08
863.896	64.17
864.07	-1.37
864.244	35.5
864.418	8.87
864.592	19.11
864.766	19.11
864.939	-5.46
865.113	39.59
865.287	70.31
865.461	25.26
865.634	29.35
865.808	17.07
865.982	15.02
866.156	17.07
866.329	-7.51
866.503	41.64
866.676	21.16
866.85	-44.37
867.024	41.64
867.197	80.55
867.371	43.69
867.544	15.02
867.718	15.02
867.891	55.98
868.065	-17.75
868.238	-9.56
868.412	84.65
868.585	35.5
868.759	2.73
868.932	88.75
869.105	-40.28
869.279	37.55
869.452	4.78
869.625	55.98
869.799	49.83
869.972	27.31
870.145	55.98
870.319	-3.41
870.492	0.68
870.665	15.02
870.838	33.45
871.011	-15.7
871.185	-9.56
871.358	-17.75
871.531	4.78
871.704	-17.75
871.877	-1.37
872.05	33.45
872.223	-38.23
872.396	-25.94
872.569	-1.37
872.742	-34.13
872.915	47.79
873.088	0.68
873.261	-46.42
873.434	72.36
873.607	15.02
873.78	41.64
873.953	-21.85
874.126	-1.37
874.299	47.79
874.471	2.73
874.644	80.55
874.817	-23.89
874.99	117.42
875.163	8.87
875.335	-17.75
875.508	51.88
875.681	-3.41
875.853	-25.94
876.026	19.11
876.199	35.5
876.371	15.02
876.544	-5.46
876.717	-30.04
876.889	-64.85
877.062	15.02
877.234	37.55
877.407	19.11
877.579	-23.89
877.752	51.88
877.924	64.17
878.097	88.75
878.269	8.87
878.442	84.65
878.614	-17.75
878.786	-27.99
878.959	21.16
879.131	10.92
879.303	-5.46
879.476	53.93
879.648	68.27
879.82	25.26
879.993	23.21
880.165	37.55
880.337	-50.52
880.509	111.27
880.681	-40.28
880.854	23.21
881.026	10.92
881.198	88.75
881.37	-1.37
881.542	45.74
881.714	43.69
881.886	-58.71
882.058	-1.37
882.23	92.84
882.402	12.97
882.574	-25.94
882.746	23.21
882.918	47.79
883.09	-17.75
883.262	-81.24
883.434	31.4
883.606	-15.7
883.778	-21.85
883.95	121.51
884.122	-44.37
884.293	66.22
884.465	-9.56
884.637	49.83
884.809	-11.61
884.98	47.79
885.152	8.87
885.324	6.83
885.496	19.11
885.667	15.02
885.839	23.21
886.011	76.46
886.182	35.5
886.354	105.13
886.525	-9.56
886.697	27.31
886.869	-75.09
887.04	-11.61
887.212	6.83
887.383	43.69
887.555	64.17
887.726	-32.08
887.897	64.17
888.069	41.64
888.24	55.98
888.412	8.87
888.583	-3.41
888.754	19.11
888.926	-21.85
889.097	25.26
889.268	0.68
889.44	2.73
889.611	-5.46
889.782	-54.61
889.953	6.83
890.125	33.45
890.296	-50.52
890.467	-7.51
890.638	-25.94
890.809	19.11
890.98	-50.52
891.151	10.92
891.323	-46.42
891.494	-23.89
891.665	23.21
891.836	8.87
892.007	6.83
892.178	27.31
892.349	39.59
892.52	-7.51
892.691	107.18
892.862	49.83
893.032	-15.7
893.203	-25.94
893.374	62.12
893.545	41.64
893.716	72.36
893.887	15.02
894.057	-34.13
894.228	2.73
894.399	31.4
894.57	0.68
894.74	8.87
894.911	96.94
895.082	-9.56
895.253	31.4
895.423	-62.8
895.594	33.45
895.764	0.68
895.935	10.92
896.106	41.64
896.276	15.02
896.447	-60.76
896.617	-13.65
896.788	60.07
896.958	-21.85
897.129	0.68
897.299	19.11
897.47	-42.32
897.64	17.07
897.81	-1.37
897.981	55.98
898.151	25.26
898.322	47.79
898.492	76.46
898.662	2.73
898.832	58.03
899.003	21.16
899.173	33.45
899.343	58.03
899.513	17.07
