Data from USB4F104151__254__14-22-41-300.txt Node

Date: Thu Mar 13 14:22:41 EDT 2025
User: louis
Spectrometer: USB4F10415
Trigger mode: 4
Integration Time (sec): 2.000000E-2
Scans to average: 1
Electric dark correction enabled: true
Nonlinearity correction enabled: false
Boxcar width: 0
XAxis mode: Wavelengths
Number of Pixels in Spectrum: 3648
>>>>>Begin Spectral Data<<<<<
178.204	-65.19
178.424	-65.19
178.644	-65.19
178.864	-97.96
179.084	-93.87
179.304	-5.8
179.524	-89.77
179.744	-79.53
179.964	57.68
180.184	49.49
180.404	90.45
180.624	18.77
180.844	18.77
181.064	-40.62
181.283	-36.52
181.503	16.73
181.723	0.34
181.943	-18.09
182.163	76.12
182.383	35.16
182.602	-30.38
182.822	29.01
183.042	29.01
183.262	24.92
183.482	8.53
183.701	16.73
183.921	90.45
184.141	76.12
184.361	61.78
184.58	33.11
184.8	-7.85
185.02	0.34
185.239	8.53
185.459	-16.04
185.679	-18.09
185.898	-11.95
186.118	-38.57
186.338	-30.38
186.557	-7.85
186.777	84.31
186.997	31.06
187.216	26.96
187.436	82.26
187.655	45.4
187.875	16.73
188.095	41.3
188.314	24.92
188.534	94.55
188.753	-1.71
188.973	51.54
189.192	104.79
189.412	43.35
189.631	2.39
189.851	-44.71
190.07	115.03
190.29	41.3
190.509	65.88
190.729	59.73
190.948	90.45
191.168	147.8
191.387	24.92
191.607	-18.09
191.826	76.12
192.045	-30.38
192.265	24.92
192.484	-1.71
192.704	-7.85
192.923	-11.95
193.142	49.49
193.362	-5.8
193.581	37.2
193.8	65.88
194.02	61.78
194.239	82.26
194.458	20.82
194.678	26.96
194.897	26.96
195.116	57.68
195.335	82.26
195.555	-20.14
195.774	74.07
195.993	33.11
196.212	-16.04
196.432	14.68
196.651	49.49
196.87	33.11
197.089	137.56
197.308	-28.33
197.528	18.77
197.747	41.3
197.966	2.39
198.185	16.73
198.404	-22.19
198.623	10.58
198.842	57.68
199.062	57.68
199.281	49.49
199.5	16.73
199.719	41.3
199.938	59.73
200.157	51.54
200.376	24.92
200.595	16.73
200.814	37.2
201.033	37.2
201.252	141.65
201.471	8.53
201.69	0.34
201.909	0.34
202.128	37.2
202.347	33.11
202.566	37.2
202.785	-1.71
203.004	2.39
203.223	51.54
203.442	-20.14
203.661	4.44
203.879	47.44
204.098	57.68
204.317	-22.19
204.536	74.07
204.755	35.16
204.974	63.83
205.193	-13.99
205.411	98.64
205.63	-24.23
205.849	-28.33
206.068	-34.47
206.287	78.16
206.505	74.07
206.724	0.34
206.943	-30.38
207.162	-7.85
207.381	31.06
207.599	82.26
207.818	-16.04
208.037	33.11
208.255	-13.99
208.474	26.96
208.693	65.88
208.911	-52.91
209.13	43.35
209.349	-7.85
209.567	43.35
209.786	41.3
210.005	53.59
210.223	49.49
210.442	-11.95
210.661	-32.43
210.879	49.49
211.098	4.44
211.316	-26.28
211.535	26.96
211.753	-48.81
211.972	33.11
212.191	-32.43
212.409	16.73
212.628	29.01
212.846	0.34
213.065	24.92
213.283	20.82
213.502	110.93
213.72	-5.8
213.938	10.58
214.157	0.34
214.375	84.31
214.594	33.11
214.812	41.3
215.031	43.35
215.249	24.92
215.467	-5.8
215.686	47.44
215.904	29.01
216.122	67.92
216.341	69.97
216.559	8.53
216.778	115.03
216.996	37.2
217.214	49.49
217.432	-16.04
217.651	-22.19
217.869	59.73
218.087	-32.43
218.306	26.96
218.524	65.88
218.742	10.58
218.96	-9.9
219.179	33.11
219.397	98.64
219.615	115.03
219.833	18.77
220.051	67.92
220.27	82.26
220.488	8.53
220.706	29.01
220.924	74.07
221.142	24.92
221.36	16.73
221.578	16.73
221.796	65.88
222.015	33.11
222.233	-40.62
222.451	106.84
222.669	12.63
222.887	65.88
223.105	-32.43
223.323	-3.75
223.541	-36.52
223.759	18.77
223.977	33.11
224.195	131.41
224.413	-7.85
224.631	41.3
224.849	16.73
225.067	80.21
225.285	37.2
225.503	98.64
225.721	-61.1
225.939	53.59
226.157	119.12
226.375	90.45
226.592	-69.29
226.81	-16.04
227.028	49.49
227.246	104.79
227.464	6.49
227.682	57.68
227.9	39.25
228.117	43.35
228.335	18.77
228.553	47.44
228.771	24.92
228.989	8.53
229.206	-7.85
229.424	-7.85
229.642	-16.04
229.86	-9.9
230.077	37.2
230.295	117.08
230.513	29.01
230.731	-11.95
230.948	-5.8
231.166	49.49
231.384	69.97
231.601	33.11
231.819	59.73
232.037	37.2
232.254	0.34
232.472	16.73
232.689	0.34
232.907	67.92
233.125	51.54
233.342	67.92
233.56	-30.38
233.777	2.39
233.995	49.49
234.213	86.36
234.43	2.39
234.648	10.58
234.865	35.16
235.083	76.12
235.3	-3.75
235.518	24.92
235.735	98.64
235.953	-16.04
236.17	12.63
236.388	-13.99
236.605	78.16
236.822	155.99
237.04	78.16
237.257	-28.33
237.475	-28.33
237.692	-7.85
237.909	0.34
238.127	41.3
238.344	41.3
238.562	-7.85
238.779	-63.15
238.996	26.96
239.214	63.83
239.431	65.88
239.648	-63.15
239.865	-36.52
240.083	37.2
240.3	43.35
240.517	16.73
240.735	33.11
240.952	57.68
241.169	84.31
241.386	43.35
241.603	43.35
241.821	4.44
242.038	98.64
242.255	8.53
242.472	29.01
242.689	49.49
242.907	-42.67
243.124	8.53
243.341	45.4
243.558	49.49
243.775	-24.23
243.992	-30.38
244.209	37.2
244.426	74.07
244.643	35.16
244.86	74.07
245.078	-7.85
245.295	8.53
245.512	74.07
245.729	41.3
245.946	2.39
246.163	74.07
246.38	39.25
246.597	-7.85
246.814	-73.39
247.031	10.58
247.248	-5.8
247.464	-18.09
247.681	82.26
247.898	129.36
248.115	90.45
248.332	-16.04
248.549	43.35
248.766	53.59
248.983	10.58
249.2	61.78
249.417	82.26
249.633	4.44
249.85	41.3
250.067	-9.9
250.284	45.4
250.501	63.83
250.717	-13.99
250.934	51.54
251.151	57.68
251.368	33.11
251.585	51.54
251.801	14.68
252.018	-16.04
252.235	2.39
252.451	61.78
252.668	41.3
252.885	65.88
253.102	49.49
253.318	29.01
253.535	-24.23
253.752	33.11
253.968	20.82
254.185	-26.28
254.401	0.34
254.618	108.88
254.835	-38.57
255.051	117.08
255.268	16.73
255.484	12.63
255.701	2.39
255.917	45.4
256.134	49.49
256.351	65.88
256.567	-20.14
256.784	-11.95
257	-71.34
257.217	10.58
257.433	12.63
257.65	-7.85
257.866	59.73
258.082	24.92
258.299	26.96
258.515	33.11
258.732	-7.85
258.948	117.08
259.165	-32.43
259.381	24.92
259.597	4.44
259.814	86.36
260.03	6.49
260.246	16.73
260.463	37.2
260.679	55.64
260.895	49.49
261.112	90.45
261.328	4.44
261.544	49.49
261.761	76.12
261.977	69.97
262.193	-61.1
262.409	-26.28
262.626	0.34
262.842	4.44
263.058	16.73
263.274	22.87
263.49	59.73
263.707	45.4
263.923	49.49
264.139	-13.99
264.355	49.49
264.571	-13.99
264.787	94.55
265.004	51.54
265.22	35.16
265.436	39.25
265.652	63.83
265.868	102.74
266.084	29.01
266.3	84.31
266.516	-3.75
266.732	69.97
266.948	-34.47
267.164	67.92
267.38	57.68
267.596	0.34
267.812	59.73
268.028	82.26
268.244	-13.99
268.46	33.11
268.676	33.11
268.892	51.54
269.108	-11.95
269.324	-11.95
269.54	33.11
269.756	57.68
269.972	-34.47
270.188	49.49
270.403	20.82
270.619	45.4
270.835	20.82
271.051	69.97
271.267	16.73
271.483	-3.75
271.698	72.02
271.914	33.11
272.13	20.82
272.346	18.77
272.562	49.49
272.777	78.16
272.993	24.92
273.209	-24.23
273.425	-3.75
273.64	51.54
273.856	65.88
274.072	43.35
274.287	-32.43
274.503	43.35
274.719	90.45
274.934	69.97
275.15	43.35
275.366	43.35
275.581	22.87
275.797	10.58
276.012	-7.85
276.228	-3.75
276.444	-40.62
276.659	69.97
276.875	14.68
277.09	24.92
277.306	-38.57
277.521	51.54
277.737	10.58
277.952	-46.76
278.168	49.49
278.383	-13.99
278.599	24.92
278.814	-5.8
279.03	-22.19
279.245	82.26
279.461	10.58
279.676	51.54
279.892	-16.04
280.107	-7.85
280.322	-48.81
280.538	61.78
280.753	26.96
280.969	-3.75
281.184	-11.95
281.399	33.11
281.615	55.64
281.83	110.93
282.045	33.11
282.26	-32.43
282.476	35.16
282.691	57.68
282.906	90.45
283.122	8.53
283.337	24.92
283.552	82.26
283.767	33.11
283.983	49.49
284.198	41.3
284.413	67.92
284.628	2.39
284.843	102.74
285.058	-5.8
285.274	57.68
285.489	-46.76
285.704	57.68
285.919	84.31
286.134	51.54
286.349	-40.62
286.564	59.73
286.779	67.92
286.995	33.11
287.21	-42.67
287.425	24.92
287.64	29.01
287.855	-36.52
288.07	8.53
288.285	59.73
288.5	39.25
288.715	51.54
288.93	16.73
289.145	4.44
289.36	-36.52
289.575	2.39
289.79	18.77
290.004	35.16
290.219	10.58
290.434	74.07
290.649	-46.76
290.864	57.68
291.079	65.88
291.294	10.58
291.509	76.12
291.724	31.06
291.938	61.78
292.153	-57
292.368	33.11
292.583	74.07
292.798	61.78
293.012	74.07
293.227	2.39
293.442	65.88
293.657	26.96
293.871	80.21
294.086	-5.8
294.301	59.73
294.516	29.01
294.73	63.83
294.945	-9.9
295.16	43.35
295.374	100.69
295.589	47.44
295.804	12.63
296.018	43.35
296.233	84.31
296.447	86.36
296.662	78.16
296.877	76.12
297.091	72.02
297.306	14.68
297.52	8.53
297.735	90.45
297.949	98.64
298.164	39.25
298.378	-3.75
298.593	26.96
298.807	-30.38
299.022	31.06
299.236	20.82
299.451	33.11
299.665	26.96
299.88	24.92
300.094	22.87
300.309	33.11
300.523	8.53
300.737	18.77
300.952	16.73
301.166	57.68
301.381	-77.48
301.595	-3.75
301.809	-13.99
302.024	14.68
302.238	-28.33
302.452	86.36
302.667	8.53
302.881	100.69
303.095	74.07
303.309	6.49
303.524	20.82
303.738	8.53
303.952	20.82
304.166	86.36
304.381	10.58
304.595	82.26
304.809	74.07
305.023	4.44
305.237	24.92
305.452	-11.95
305.666	2.39
305.88	14.68
306.094	-24.23
306.308	47.44
306.522	67.92
306.736	43.35
306.95	92.5
307.164	37.2
307.379	59.73
307.593	69.97
307.807	8.53
308.021	-5.8
308.235	51.54
308.449	24.92
308.663	82.26
308.877	90.45
309.091	-22.19
309.305	37.2
309.519	-24.23
309.733	65.88
309.947	-18.09
310.161	49.49
310.374	67.92
310.588	53.59
310.802	-38.57
311.016	-13.99
311.23	24.92
311.444	-1.71
311.658	6.49
311.872	51.54
312.085	29.01
312.299	35.16
312.513	18.77
312.727	20.82
312.941	-20.14
313.154	43.35
313.368	-24.23
313.582	51.54
313.796	49.49
314.009	51.54
314.223	115.03
314.437	110.93
314.651	39.25
314.864	51.54
315.078	45.4
315.292	12.63
315.505	-22.19
315.719	-9.9
315.933	61.78
316.146	53.59
316.36	51.54
316.573	65.88
316.787	4.44
317.001	82.26
317.214	41.3
317.428	-5.8
317.641	-22.19
317.855	-16.04
318.068	10.58
318.282	24.92
318.495	53.59
318.709	4.44
318.922	78.16
319.136	78.16
319.349	-36.52
319.563	-5.8
319.776	-22.19
319.99	59.73
320.203	-85.67
320.417	96.6
320.63	74.07
320.843	74.07
321.057	41.3
321.27	39.25
321.483	-48.81
321.697	45.4
321.91	104.79
322.124	76.12
322.337	112.98
322.55	29.01
322.763	16.73
322.977	-5.8
323.19	18.77
323.403	33.11
323.617	69.97
323.83	16.73
324.043	22.87
324.256	-16.04
324.469	6.49
324.683	86.36
324.896	33.11
325.109	-3.75
325.322	-5.8
325.535	76.12
325.748	104.79
325.962	100.69
326.175	-11.95
326.388	10.58
326.601	35.16
326.814	31.06
327.027	16.73
327.24	84.31
327.453	16.73
327.666	90.45
327.879	88.4
328.092	18.77
328.305	65.88
328.518	6.49
328.731	-5.8
328.944	57.68
329.157	22.87
329.37	8.53
329.583	106.84
329.796	84.31
330.009	-30.38
330.222	65.88
330.435	69.97
330.648	33.11
330.861	37.2
331.073	-7.85
331.286	102.74
331.499	47.44
331.712	0.34
331.925	4.44
332.138	55.64
332.35	115.03
332.563	-7.85
332.776	102.74
332.989	-34.47
333.202	57.68
333.414	-26.28
333.627	74.07
333.84	8.53
334.053	-22.19
334.265	-13.99
334.478	-13.99
334.691	69.97
334.903	82.26
335.116	49.49
335.329	24.92
335.541	24.92
335.754	69.97
335.966	-5.8
336.179	90.45
336.392	-24.23
336.604	16.73
336.817	24.92
337.029	108.88
337.242	22.87
337.454	35.16
337.667	0.34
337.88	63.83
338.092	59.73
338.305	29.01
338.517	-5.8
338.729	33.11
338.942	55.64
339.154	16.73
339.367	53.59
339.579	-38.57
339.792	35.16
340.004	57.68
340.217	22.87
340.429	2.39
340.641	-30.38
340.854	-3.75
341.066	49.49
341.278	74.07
341.491	-16.04
341.703	65.88
341.915	35.16
342.128	26.96
342.34	-59.05
342.552	-11.95
342.764	0.34
342.977	43.35
343.189	18.77
343.401	59.73
343.613	-9.9
343.826	14.68
344.038	106.84
344.25	41.3
344.462	74.07
344.674	74.07
344.886	8.53
345.099	29.01
345.311	43.35
345.523	10.58
345.735	59.73
345.947	104.79
346.159	0.34
346.371	20.82
346.583	57.68
346.795	26.96
347.007	39.25
347.219	18.77
347.431	33.11
347.643	22.87
347.855	12.63
348.067	41.3
348.279	37.2
348.491	76.12
348.703	88.4
348.915	53.59
349.127	-42.67
349.339	26.96
349.551	35.16
349.763	74.07
349.975	-24.23
350.187	90.45
350.399	57.68
350.61	74.07
350.822	84.31
351.034	49.49
351.246	31.06
351.458	37.2
351.669	57.68
351.881	57.68
352.093	61.78
352.305	67.92
352.517	-57
352.728	72.02
352.94	45.4
353.152	84.31
353.363	37.2
353.575	90.45
353.787	65.88
353.999	47.44
354.21	37.2
354.422	39.25
354.633	-11.95
354.845	31.06
355.057	18.77
355.268	26.96
355.48	106.84
355.692	0.34
355.903	-9.9
356.115	106.84
356.326	-48.81
356.538	129.36
356.749	2.39
356.961	92.5
357.172	-30.38
357.384	0.34
357.595	84.31
357.807	115.03
358.018	82.26
358.23	37.2
358.441	53.59
358.653	88.4
358.864	106.84
359.075	2.39
359.287	26.96
359.498	49.49
359.709	35.16
359.921	-24.23
360.132	74.07
360.344	78.16
360.555	92.5
360.766	86.36
360.977	-22.19
361.189	8.53
361.4	-11.95
361.611	24.92
361.823	35.16
362.034	39.25
362.245	-16.04
362.456	41.3
362.667	115.03
362.879	74.07
363.09	112.98
363.301	-5.8
363.512	-16.04
363.723	-3.75
363.935	84.31
364.146	86.36
364.357	-28.33
364.568	76.12
364.779	29.01
364.99	123.22
365.201	45.4
365.412	37.2
365.623	39.25
365.834	4.44
366.045	76.12
366.256	127.32
366.467	67.92
366.678	-5.8
366.889	0.34
367.1	2.39
367.311	45.4
367.522	41.3
367.733	29.01
367.944	98.64
368.155	26.96
368.366	123.22
368.577	16.73
368.788	117.08
368.999	-5.8
369.209	33.11
369.42	112.98
369.631	135.51
369.842	84.31
370.053	49.49
370.264	26.96
370.474	22.87
370.685	2.39
370.896	8.53
371.107	86.36
371.317	74.07
371.528	41.3
371.739	41.3
371.95	49.49
372.16	90.45
372.371	35.16
372.582	-13.99
372.792	41.3
373.003	-16.04
373.214	96.6
373.424	-9.9
373.635	22.87
373.846	76.12
374.056	6.49
374.267	117.08
374.477	-20.14
374.688	49.49
374.898	72.02
375.109	76.12
375.319	24.92
375.53	72.02
375.74	65.88
375.951	16.73
376.161	47.44
376.372	-3.75
376.582	2.39
376.793	123.22
377.003	20.82
377.214	-44.71
377.424	16.73
377.635	45.4
377.845	18.77
378.055	88.4
378.266	57.68
378.476	-13.99
378.686	18.77
378.897	110.93
379.107	22.87
379.317	74.07
379.528	94.55
379.738	37.2
379.948	0.34
380.158	20.82
380.369	94.55
380.579	8.53
380.789	8.53
380.999	69.97
381.21	137.56
381.42	129.36
381.63	51.54
381.84	98.64
382.05	98.64
382.261	86.36
382.471	59.73
382.681	84.31
382.891	41.3
383.101	39.25
383.311	-40.62
383.521	33.11
383.731	33.11
383.941	86.36
384.151	10.58
384.361	37.2
384.571	98.64
384.781	10.58
384.991	72.02
385.201	16.73
385.411	65.88
385.621	78.16
385.831	16.73
386.041	49.49
386.251	37.2
386.461	72.02
386.671	98.64
386.881	51.54
387.091	49.49
387.301	41.3
387.511	45.4
387.72	108.88
387.93	49.49
388.14	8.53
388.35	53.59
388.56	69.97
388.769	22.87
388.979	98.64
389.189	51.54
389.399	16.73
389.609	82.26
389.818	106.84
390.028	41.3
390.238	12.63
390.447	102.74
390.657	2.39
390.867	41.3
391.076	-16.04
391.286	74.07
391.496	0.34
391.705	61.78
391.915	98.64
392.125	74.07
392.334	49.49
392.544	106.84
392.753	39.25
392.963	117.08
393.172	39.25
393.382	-24.23
393.591	-16.04
393.801	110.93
394.01	145.75
394.22	41.3
394.429	98.64
394.639	84.31
394.848	108.88
395.058	55.64
395.267	-20.14
395.477	106.84
395.686	69.97
395.895	51.54
396.105	53.59
396.314	29.01
396.524	78.16
396.733	-11.95
396.942	139.6
397.152	53.59
397.361	110.93
397.57	41.3
397.78	147.8
397.989	49.49
398.198	117.08
398.407	119.12
398.617	127.32
398.826	108.88
399.035	18.77
399.244	98.64
399.453	76.12
399.663	108.88
399.872	78.16
400.081	33.11
400.29	155.99
400.499	106.84
400.708	131.41
400.917	155.99
401.127	33.11
401.336	0.34
401.545	155.99
401.754	147.8
401.963	39.25
402.172	20.82
402.381	49.49
402.59	133.46
402.799	74.07
403.008	119.12
403.217	129.36
403.426	76.12
403.635	108.88
403.844	94.55
404.053	90.45
404.262	115.03
404.471	158.03
404.68	158.03
404.888	127.32
405.097	125.27
405.306	119.12
405.515	174.42
405.724	188.75
405.933	158.03
406.142	90.45
406.35	180.56
406.559	65.88
406.768	131.41
406.977	229.71
407.185	217.43
407.394	151.89
407.603	115.03
407.812	141.65
408.02	192.85
408.229	221.52
408.438	172.37
408.646	166.23
408.855	168.27
409.064	239.95
409.272	168.27
409.481	231.76
409.69	215.38
409.898	192.85
410.107	215.38
410.315	221.52
410.524	311.63
410.733	330.06
410.941	223.57
411.15	246.1
411.358	256.34
411.567	254.29
411.775	311.63
411.984	313.68
412.192	299.34
412.401	289.1
412.609	432.46
412.818	389.46
413.026	393.55
413.234	348.5
413.443	328.02
413.651	414.03
413.86	371.02
414.068	418.13
414.276	454.99
414.485	385.36
414.693	512.33
414.901	483.66
415.11	508.24
415.318	541.01
415.526	512.33
415.734	639.31
415.943	547.15
416.151	657.74
416.359	541.01
416.567	627.02
416.776	667.98
416.984	692.55
417.192	680.27
417.4	747.85
417.608	733.51
417.817	764.23
418.025	883.02
418.233	803.15
418.441	745.8
418.649	936.26
418.857	938.31
419.065	864.58
419.273	1007.94
419.481	938.31
419.689	1083.72
419.897	1098.05
420.105	1012.04
420.313	1130.82
420.521	1188.16
420.729	1255.75
420.937	1186.12
421.145	1286.47
421.353	1319.23
421.561	1333.57
421.769	1425.73
421.977	1380.67
422.185	1421.63
422.393	1573.18
422.601	1622.33
422.809	1706.3
423.017	1534.27
423.224	1671.48
423.432	1765.69
423.64	1827.13
423.848	1841.47
424.056	1990.97
424.263	2044.21
424.471	2056.5
424.679	2087.22
424.887	2222.39
425.094	2226.48
425.302	2351.41
425.51	2332.98
425.718	2365.75
425.925	2500.91
426.133	2429.23
426.341	2693.42
426.548	2769.2
426.756	2720.04
426.964	2871.59
427.171	3008.81
427.379	3109.16
427.586	2969.9
427.794	3146.02
428.001	3297.57
428.209	3535.14
428.417	3385.63
428.624	3645.73
428.832	3572
429.039	3655.97
429.247	3717.4
429.454	3967.26
429.662	4223.25
429.869	3965.21
430.076	4112.66
430.284	4186.39
430.491	4380.95
430.699	4704.53
430.906	4526.35
431.114	4518.16
431.321	4727.05
431.528	4827.4
431.736	5224.71
431.943	5409.03
432.15	5325.06
432.358	5187.85
432.565	5640.45
432.772	5619.97
432.979	5906.68
433.187	5955.83
433.394	5998.84
433.601	6490.35
433.808	6359.28
434.016	6308.09
434.223	6607.09
434.43	7035.11
434.637	6963.44
434.844	7348.45
435.052	7344.36
435.259	7510.24
435.466	7528.67
435.673	7356.65
435.88	7956.7
436.087	8192.22
436.294	8298.71
436.501	8038.62
436.708	8372.44
436.915	8614.1
437.122	8954.06
437.329	8681.68
437.537	9060.56
437.743	9353.41
437.95	9167.05
438.157	9857.21
438.364	10002.62
438.571	10137.79
438.778	10166.46
438.985	11032.75
439.192	10752.18
439.399	10766.51
439.606	10815.66
439.813	11528.36
440.02	11813.03
440.227	11813.03
440.433	11485.35
440.64	11915.42
440.847	11919.52
441.054	12239
441.261	12828.82
441.467	12744.85
441.674	12992.66
441.881	13729.92
442.088	13408.39
442.294	13271.18
442.501	13607.05
442.708	14135.42
442.914	14508.15
443.121	15159.41
443.328	14723.19
443.534	15872.1
443.741	15415.4
443.948	15054.96
444.154	16205.92
444.361	16105.57
444.568	16146.53
444.774	16291.93
444.981	16404.57
445.187	16762.97
445.394	17551.43
445.6	17322.06
445.807	18870.33
446.013	18073.67
446.22	18563.13
446.426	19234.86
446.633	19619.88
446.839	20293.66
447.046	19120.18
447.252	20240.42
447.459	20391.97
447.665	20193.31
447.871	21190.67
448.078	22091.78
448.284	20803.61
448.491	21538.83
448.697	22241.28
448.903	22884.34
449.11	23107.57
449.316	22794.23
449.522	22824.95
449.728	23877.61
449.935	23820.27
450.141	23742.44
450.347	23967.72
450.553	23502.83
450.76	23707.63
450.966	24410.08
451.172	24027.11
451.378	24807.39
451.584	24293.35
451.791	24975.32
451.997	24913.88
452.203	25417.68
452.409	25262.04
452.615	25352.15
452.821	24467.42
453.027	23850.99
453.233	25393.11
453.44	24311.78
453.646	24752.09
453.852	25059.29
454.058	25278.42
454.264	24297.44
454.47	24932.31
454.676	24227.81
454.882	25063.38
455.088	23171.06
455.294	23179.25
455.5	23586.8
455.705	23988.2
455.911	22804.47
456.117	22681.6
456.323	22509.57
456.529	21248.02
456.735	22134.79
456.941	21575.69
457.147	21223.44
457.352	20467.74
457.558	20236.32
457.764	20406.3
457.97	19965.99
458.176	19585.07
458.381	19456.04
458.587	18755.64
458.793	18643
458.999	17557.58
459.204	19005.49
459.41	18378.81
459.616	17254.48
459.821	17272.91
460.027	16957.52
460.233	16918.61
460.438	16234.59
460.644	16152.67
460.85	15302.76
461.055	15439.98
461.261	15210.61
461.466	14030.98
461.672	13805.7
461.878	14647.41
462.083	13772.93
462.289	13478.02
462.494	13166.73
462.7	12730.52
462.905	12296.35
463.111	13013.13
463.316	12877.97
463.522	12279.96
463.727	12599.45
463.932	12437.66
464.138	12359.83
464.343	12517.53
464.549	12028.06
464.754	12501.14
464.959	12306.59
465.165	12386.46
465.37	11792.55
465.575	11225.26
465.781	11847.84
465.986	11913.38
466.191	11753.63
466.397	11301.03
466.602	10774.7
466.807	11178.15
467.012	11264.17
467.218	10987.69
467.423	10989.74
467.628	11073.71
467.833	11409.58
468.038	10875.06
468.244	10930.35
468.449	11057.32
468.654	10834.1
468.859	10766.51
469.064	10748.08
469.269	10352.82
469.474	10432.69
469.679	10576.05
469.885	10209.47
470.09	10379.45
470.295	10428.6
470.5	10002.62
470.705	9994.43
470.91	10008.76
471.115	9806.02
471.32	9887.93
471.525	9910.46
471.73	9789.63
471.935	9658.56
472.139	9300.17
472.344	9502.92
472.549	9355.46
472.754	9070.79
472.959	8947.92
473.164	8816.85
473.369	8806.61
473.574	9175.24
473.778	9085.13
473.983	8841.42
474.188	8968.4
474.393	8519.89
474.598	8444.12
474.802	8378.58
475.007	8329.43
475.212	8343.77
475.417	8052.95
475.621	8253.66
475.826	8067.29
476.031	7971.04
476.235	7700.7
476.44	8030.43
476.645	7901.4
476.849	7876.83
477.054	7633.12
477.259	7747.81
477.463	7555.3
477.668	7442.66
477.872	7573.73
478.077	7323.88
478.282	7051.5
478.486	7155.94
478.691	7121.13
478.895	7217.38
479.1	7145.7
479.304	7071.98
479.509	6797.55
479.713	7108.84
479.918	6729.97
480.122	6686.96
480.326	6942.96
480.531	6760.69
480.735	6775.02
480.94	6652.14
481.144	6975.72
481.348	6775.02
481.553	6600.94
481.757	6480.11
481.961	6586.61
482.166	6705.39
482.37	6484.21
482.574	6441.2
482.778	6471.92
482.983	6586.61
483.187	6523.12
483.391	6428.92
483.595	6357.24
483.8	6433.01
484.004	6586.61
484.208	6516.98
484.412	6609.14
484.616	6461.68
484.821	6439.16
485.025	6451.44
485.229	6543.6
485.433	6496.5
485.637	6365.43
485.841	6586.61
486.045	6519.03
486.249	6379.76
486.453	6461.68
486.657	6494.45
486.861	6463.73
487.065	6342.9
487.269	6422.77
487.473	6408.44
487.677	6611.18
487.881	6631.66
488.085	6455.54
488.289	6537.46
488.493	6332.66
488.697	6510.83
488.901	6496.5
489.105	6412.53
489.309	6508.79
489.512	6652.14
489.716	6607.09
489.92	6529.27
490.124	6639.86
490.328	6541.55
490.531	6506.74
490.735	6660.34
490.939	6574.32
491.143	6719.73
491.346	6713.58
491.55	6678.77
491.754	6707.44
491.958	6627.57
492.161	6832.37
492.365	6893.8
492.569	6631.66
492.772	6727.92
492.976	6961.39
493.18	6922.48
493.383	7160.04
493.587	6992.11
493.79	7045.35
493.994	6957.29
494.197	6979.82
494.401	7268.58
494.605	7233.77
494.808	7366.88
495.012	7219.43
495.215	7309.54
495.419	7401.7
495.622	7442.66
495.825	7432.42
496.029	7518.43
496.232	7669.98
496.436	7512.29
496.639	7780.57
496.843	7856.35
497.046	7864.54
497.249	7964.89
497.453	8016.09
497.656	8016.09
497.859	8048.86
498.063	8284.37
498.266	8321.24
498.469	8308.95
498.673	8364.25
498.876	8405.21
499.079	8661.2
499.282	8610
499.485	8863.95
499.689	8839.37
499.892	8964.3
500.095	8812.75
500.298	9169.1
500.501	9072.84
500.705	9341.13
500.908	9523.4
501.111	9464
501.314	9464
501.517	9734.34
501.72	9810.11
501.923	9986.24
502.126	10016.96
502.329	10348.73
502.532	10262.71
502.735	10438.84
502.938	10584.24
503.141	10537.14
503.344	10731.7
503.547	10623.16
503.75	10832.05
503.953	11090.09
504.156	11086
504.359	11202.73
504.562	11258.03
504.765	11362.47
504.968	11567.27
505.17	11722.91
505.373	11804.83
505.576	11839.65
505.779	12079.26
505.982	12277.91
506.185	12413.08
506.387	12263.58
506.59	12509.33
506.793	12863.63
506.996	12916.88
507.198	13033.61
507.401	12994.7
507.604	13213.84
507.807	13471.88
508.009	13424.78
508.212	13656.2
508.415	13768.84
508.617	13914.24
508.82	13774.98
509.022	14045.31
509.225	14123.13
509.428	14436.47
509.63	14684.28
509.833	14819.44
510.035	14858.35
510.238	14807.16
510.44	15114.35
510.643	15235.18
510.845	15224.94
511.048	15421.55
511.25	15630.44
511.453	15655.01
511.655	16293.98
511.858	16394.33
512.06	16220.25
512.262	16375.9
512.465	16390.24
512.667	16547.93
512.87	16793.69
513.072	16861.27
513.274	16855.12
513.477	17311.82
513.679	17348.68
513.881	17735.75
514.084	17641.54
514.286	17670.22
514.488	17735.75
514.69	18452.54
514.893	18372.67
515.095	18413.63
515.297	18651.19
515.499	18542.65
515.701	19062.83
515.904	19226.67
516.106	19169.33
516.308	19607.59
516.51	19841.06
516.712	19855.4
516.914	19800.1
517.116	20240.42
517.318	20066.34
517.52	20617.24
517.722	20459.55
517.925	21051.41
518.127	21082.13
518.329	21291.02
518.531	21153.81
518.733	21475.34
518.935	21532.68
519.136	21547.02
519.338	21821.45
519.54	21919.75
519.742	21876.74
519.944	22149.12
520.146	22675.45
520.348	22820.86
520.55	22661.12
520.752	22775.8
520.954	23230.45
521.155	23255.03
521.357	23717.87
521.559	23773.16
521.761	23822.31
521.963	24158.18
522.164	24023.01
522.366	24186.85
522.568	24494.05
522.77	24748
522.971	25130.97
523.173	24831.96
523.375	25028.57
523.576	25139.16
523.778	25341.91
523.98	25454.54
524.181	25556.94
524.383	25405.39
524.584	25806.8
524.786	26034.12
524.988	25810.89
525.189	26386.37
525.391	26255.3
525.592	26619.84
525.794	26597.31
525.995	26740.67
526.197	26335.17
526.398	26773.44
526.6	26974.14
526.801	27172.79
527.003	27103.16
527.204	26924.99
527.406	27520.95
527.607	27150.26
527.808	27488.18
528.01	27129.78
528.211	27254.71
528.412	27723.69
528.614	28002.22
528.815	27930.54
529.016	27631.54
529.218	28094.38
529.419	28153.77
529.62	28022.7
529.822	28145.58
530.023	27910.06
530.224	28247.97
530.425	28213.16
530.626	27938.73
530.828	28045.23
531.029	28538.79
531.23	28377
531.431	28397.48
531.632	28350.37
531.833	28268.45
532.035	28475.3
532.236	28055.47
532.437	28891.04
532.638	28454.82
532.839	28778.4
533.04	28608.42
533.241	28303.27
533.442	28862.36
533.643	28807.07
533.844	28555.17
534.045	28579.75
534.246	28473.25
534.447	29120.41
534.648	28643.23
534.849	28893.08
535.05	28362.66
535.251	28823.45
535.451	28534.69
535.652	28540.83
535.853	28600.22
536.054	28602.27
536.255	28762.01
536.456	28508.07
536.657	29028.25
536.857	28530.59
537.058	28594.08
537.259	28549.03
537.46	28882.84
537.66	28501.92
537.861	28688.29
538.062	28581.79
538.263	28960.67
538.463	28704.67
538.664	28473.25
538.865	28845.98
539.065	28768.16
539.266	28352.42
539.466	28864.41
539.667	28202.92
539.868	29013.91
540.068	28805.02
540.269	28309.41
540.469	28530.59
540.67	28344.23
540.87	28772.25
541.071	28069.8
541.271	28630.94
541.472	28723.1
541.672	28374.95
541.873	28176.3
542.073	28069.8
542.274	28362.66
542.474	28309.41
542.675	28297.13
542.875	28721.06
543.075	28600.22
543.276	28250.02
543.476	28626.85
543.676	28469.15
543.877	28649.38
544.077	28520.35
544.277	28452.77
544.478	28303.27
544.678	28559.27
544.878	28211.11
545.078	28207.01
545.279	28245.93
545.479	28145.58
545.679	28141.48
545.879	28362.66
546.079	28245.93
546.28	27840.43
546.48	28088.23
546.68	28405.67
546.88	28358.56
547.08	28184.49
547.28	28123.05
547.48	28098.47
547.68	28151.72
547.88	27774.89
548.081	28063.66
548.281	27836.33
548.481	28039.08
548.681	28350.37
548.881	28258.21
549.081	28037.03
549.28	27910.06
549.48	28098.47
549.68	28168.1
549.88	28495.78
550.08	27940.78
550.28	28161.96
550.48	28057.51
550.68	28256.17
550.88	27738.03
551.08	27666.35
551.279	28047.27
551.479	27746.22
551.679	28061.61
551.879	27621.3
552.079	27910.06
552.278	27979.69
552.478	27852.72
552.678	27998.12
552.878	27981.74
553.077	27770.8
553.277	27695.02
553.477	28141.48
553.676	27809.71
553.876	27924.4
554.076	27412.4
554.275	27643.82
554.475	27584.43
554.674	27584.43
554.874	27770.8
555.074	27783.09
555.273	27983.79
555.473	27811.76
555.672	27469.75
555.872	27512.75
556.071	27733.93
556.271	27381.68
556.47	27373.49
556.67	27512.75
556.869	27899.82
557.068	27623.34
557.268	27176.89
557.467	27103.16
557.667	27123.64
557.866	27371.44
558.065	27385.78
558.265	27090.87
558.464	27080.63
558.663	27643.82
558.863	27312.05
559.062	27441.07
559.261	26904.51
559.461	26937.27
559.66	26814.4
559.859	27099.06
560.058	26931.13
560.258	27140.02
560.457	26677.18
560.656	26992.57
560.855	26953.66
561.054	26660.8
561.253	26617.79
561.453	27158.45
561.652	26658.75
561.851	27117.5
562.05	26709.95
562.249	26369.99
562.448	26527.68
562.647	26564.54
562.846	26427.33
563.045	26507.2
563.244	26310.6
563.443	26320.84
563.642	26107.85
563.841	26292.16
564.04	26265.54
564.239	26421.19
564.438	26003.4
564.637	26300.36
564.836	26157
565.035	25984.97
565.234	25767.88
565.432	26044.36
565.631	25794.51
565.83	25944.01
566.029	25759.69
566.228	25690.06
566.427	25864.14
566.625	25569.23
566.824	25270.23
567.023	25579.47
567.222	25348.05
567.42	25716.68
567.619	25800.65
567.818	25415.63
568.016	25188.31
568.215	25358.29
568.414	25133.01
568.612	25190.36
568.811	25044.95
569.01	24911.83
569.208	24778.72
569.407	25198.55
569.605	24569.82
569.804	24913.88
570.002	24764.38
570.201	24625.12
570.4	24317.92
570.598	24528.86
570.797	24420.32
570.995	24412.13
571.193	24143.84
571.392	24457.18
571.59	24276.96
571.789	24174.56
571.987	23988.2
572.186	24231.91
572.384	24010.73
572.582	24203.24
572.781	24219.62
572.979	23820.27
573.177	23934.95
573.376	24301.54
573.574	23654.38
573.772	23740.4
573.971	23580.65
574.169	23764.97
574.367	23562.22
574.565	23699.44
574.763	23687.15
574.962	23338.99
575.16	23316.47
575.358	23310.32
575.556	23236.59
575.754	23601.13
575.952	23117.81
576.151	23119.86
576.349	23019.51
576.547	22847.48
576.745	23105.52
576.943	22937.59
577.141	22837.24
577.339	22818.81
577.537	22700.03
577.735	22794.23
577.933	22548.48
578.131	22380.54
578.329	22460.41
578.527	22216.71
578.725	22497.28
578.923	22607.87
579.121	22439.93
579.319	22228.99
579.516	22429.7
579.714	22306.82
579.912	21993.48
580.11	22067.2
580.308	21827.59
580.506	22026.25
580.704	21536.78
580.901	21876.74
581.099	21809.16
581.297	21708.81
581.495	21813.26
581.692	21536.78
581.89	21374.99
582.088	21673.99
582.285	21450.77
582.483	21254.16
582.681	21430.29
582.878	21405.71
583.076	21184.53
583.274	21370.9
583.471	21000.21
583.669	21026.84
583.866	20764.7
584.064	21037.08
584.262	20656.15
584.459	20975.64
584.657	20758.55
584.854	20850.71
585.052	20480.03
585.249	20985.88
585.447	20787.22
585.644	20676.63
585.841	20416.54
586.039	20895.77
586.236	20213.79
586.434	20365.34
586.631	20396.06
586.828	20420.64
587.026	20049.96
587.223	20322.34
587.42	19863.59
587.618	20119.59
587.815	20056.1
588.012	19820.58
588.21	19941.41
588.407	19810.34
588.604	19793.96
588.801	19730.47
588.999	19755.05
589.196	19759.14
589.393	19449.9
589.59	19478.57
589.787	19540.01
589.984	19564.59
590.182	19124.27
590.379	19474.48
590.576	19310.64
590.773	19333.17
590.97	18931.76
591.167	18958.39
591.364	18739.26
591.561	19058.74
591.758	18929.72
591.955	18643
592.152	18901.04
592.349	18866.23
592.546	19103.79
592.743	18839.61
592.94	18425.92
593.137	18604.09
593.334	18786.36
593.531	18268.22
593.727	18348.09
593.924	18292.8
594.121	18159.68
594.318	18477.12
594.515	17782.85
594.712	18546.75
594.908	18051.14
595.105	18016.32
595.302	17977.41
595.499	17993.79
595.696	18042.95
595.892	17930.31
596.089	17926.21
596.286	18032.71
596.482	17623.11
596.679	17795.14
596.876	17709.13
597.072	17897.54
597.269	17807.43
597.466	17270.86
597.662	17424.46
597.859	17434.7
598.055	17240.14
598.252	17291.34
598.448	17174.61
598.645	17436.75
598.841	17061.97
599.038	17078.35
599.234	17221.71
599.431	16687.19
599.627	17145.94
599.824	16900.18
600.02	16877.65
600.217	16816.21
600.413	16547.93
600.609	16914.52
600.806	16230.49
601.002	16679
601.198	16535.64
601.395	16394.33
601.591	16519.26
601.787	16306.27
601.984	16244.83
602.18	16357.47
602.376	16326.75
602.572	16261.21
602.769	16134.24
602.965	15884.39
603.161	16144.48
603.357	15919.2
603.553	15968.35
603.75	15904.87
603.946	15880.29
604.142	15917.15
604.338	15499.37
604.534	15800.42
604.73	15507.56
604.926	15614.06
605.122	15603.82
605.318	15622.25
605.514	15663.21
605.71	15370.35
605.906	15224.94
606.102	15308.91
606.298	15296.62
606.494	15329.39
606.69	15159.41
606.886	15220.85
607.082	15071.34
607.278	15235.18
607.474	14913.65
607.67	15048.82
607.866	15089.78
608.062	15249.52
608.257	15085.68
608.453	14989.42
608.649	14661.75
608.845	14874.74
609.041	14901.36
609.236	15175.79
609.432	14700.66
609.628	14854.26
609.824	14786.68
610.019	14825.59
610.215	14657.65
610.411	14542.97
610.606	14618.74
610.802	14764.15
610.998	14745.72
611.193	14700.66
611.389	14418.04
611.584	14596.21
611.78	14262.4
611.976	14360.7
612.171	14440.57
612.367	14407.8
612.562	14393.47
612.758	14190.72
612.953	14125.18
613.149	14477.43
613.344	14233.72
613.539	14338.17
613.735	14270.59
613.93	14211.2
614.126	14137.47
614.321	14420.09
614.517	14311.55
614.712	13863.04
614.907	14110.85
615.103	14176.38
615.298	13994.11
615.493	13947.01
615.688	13838.47
615.884	14067.84
616.079	13828.23
616.274	13858.95
616.47	13729.92
616.665	13783.17
616.86	13752.45
617.055	13611.14
617.25	13770.88
617.445	13607.05
617.641	13488.26
617.836	13867.14
618.031	13484.17
618.226	13691.01
618.421	13324.43
618.616	13621.38
618.811	13162.64
619.006	13260.94
619.201	13076.62
619.396	13334.67
619.591	13224.08
619.786	13277.32
619.981	12970.13
620.176	13150.35
620.371	13017.23
620.566	13119.63
620.761	12796.05
620.956	12957.84
621.151	12624.02
621.346	12810.39
621.541	12509.33
621.735	12886.16
621.93	12355.74
622.125	12660.88
622.32	12335.26
622.515	12458.14
622.709	12296.35
622.904	12159.13
623.099	12028.06
623.294	12408.98
623.488	11948.19
623.683	12085.4
623.878	12028.06
624.072	11972.77
624.267	11903.14
624.462	11643.04
624.656	11636.9
624.851	11636.9
625.046	11415.72
625.24	11524.26
625.435	11532.45
625.629	11528.36
625.824	11311.27
626.018	11313.32
626.213	10875.06
626.407	11258.03
626.602	10954.93
626.796	10954.93
626.991	10975.41
627.185	10823.86
627.38	10768.56
627.574	10854.58
627.768	10719.41
627.963	10520.76
628.157	10588.34
628.352	10551.48
628.546	10457.27
628.74	10379.45
628.935	10559.67
629.129	10459.32
629.323	10440.89
629.517	10152.12
629.712	10309.82
629.906	10008.76
630.1	9863.36
630.294	9971.9
630.489	10045.63
630.683	9963.71
630.877	9744.58
631.071	9670.85
631.265	9803.97
631.459	9625.79
631.653	9564.36
631.848	9588.93
632.042	9529.54
632.236	9609.41
632.43	9421
632.624	9308.36
632.818	9294.02
633.012	9382.09
633.206	9251.02
633.4	9373.89
633.594	9197.77
633.788	8947.92
633.982	9136.33
634.176	8990.92
634.369	8876.24
634.563	8966.35
634.757	8751.31
634.951	8937.68
635.145	8642.77
635.339	8966.35
635.533	8800.46
635.726	8876.24
635.92	8671.44
636.114	8599.76
636.308	8394.97
636.501	8450.26
636.695	8569.04
636.889	8528.08
637.083	8319.19
637.276	8270.04
637.47	8349.91
637.664	8235.22
637.857	8218.84
638.051	8270.04
638.244	8153.3
638.438	8165.59
638.632	7880.93
638.825	7987.42
639.019	7932.12
639.212	7659.74
639.406	7932.12
639.599	7577.83
639.793	7573.73
639.986	7596.26
640.18	7698.66
640.373	7567.59
640.567	7561.44
640.76	7624.93
640.954	7577.83
641.147	7506.15
641.34	7524.58
641.534	7577.83
641.727	7504.1
641.92	7368.93
642.114	7270.63
642.307	7287.01
642.5	7160.04
642.694	7088.36
642.887	7078.12
643.08	7311.59
643.273	7024.87
643.467	6922.48
643.66	6844.65
643.853	7012.59
644.046	6727.92
644.239	6893.8
644.432	6826.22
644.626	6582.51
644.819	6629.62
645.012	6891.76
645.205	6799.6
645.398	6648.05
645.591	6650.1
645.784	6439.16
645.977	6633.71
646.17	6463.73
646.363	6447.35
646.556	6465.78
646.749	6394.1
646.942	6375.67
647.135	6349.04
647.328	6404.34
647.521	6308.09
647.714	6236.41
647.907	6418.68
648.099	6359.28
648.292	6306.04
648.485	6140.15
648.678	6088.95
648.871	6121.72
649.064	6103.29
649.256	6217.97
649.449	5964.03
649.642	5998.84
649.835	5875.96
650.027	5972.22
650.22	5669.12
650.413	5853.44
650.605	5703.93
650.798	5624.06
650.991	5652.74
651.183	5865.72
651.376	5579.01
651.568	5675.26
651.761	5552.38
651.954	5517.57
652.146	5511.43
652.339	5603.58
652.531	5558.53
652.724	5298.44
652.916	5376.26
653.109	5263.62
653.301	5523.71
653.494	5546.24
653.686	5325.06
653.879	5398.79
654.071	5185.8
654.263	5259.53
654.456	5294.34
654.648	5308.68
654.84	5064.97
655.033	4952.33
655.225	5120.26
655.417	5026.06
655.61	5044.49
655.802	5048.58
655.994	4882.7
656.186	5099.78
656.379	5040.39
656.571	4886.79
656.763	4913.42
656.955	4813.07
657.148	4782.35
657.34	4946.19
657.532	4862.22
657.724	4604.18
657.916	4727.05
658.108	4827.4
658.3	4696.33
658.492	4714.77
658.684	4647.18
658.876	4628.75
659.068	4628.75
659.26	4567.31
659.452	4548.88
659.644	4604.18
659.836	4636.94
660.028	4638.99
660.22	4350.23
660.412	4413.71
660.604	4385.04
660.796	4438.29
660.988	4399.38
661.18	4477.2
661.372	4440.34
661.563	4407.57
661.755	4491.54
661.947	4395.28
662.139	4292.88
662.331	4403.47
662.522	4174.1
662.714	4268.31
662.906	4202.77
663.097	4235.54
663.289	4112.66
663.481	4071.7
663.673	4229.4
663.864	4141.33
664.056	4180.25
664.247	4002.07
664.439	3993.88
664.631	3918.11
664.822	3901.72
665.014	3985.69
665.205	3899.67
665.397	3946.78
665.588	3989.78
665.78	3903.77
665.971	3850.52
666.163	3893.53
666.354	3932.44
666.546	3760.41
666.737	3942.68
666.929	3920.15
667.12	3760.41
667.311	3752.22
667.503	3805.47
667.694	3588.38
667.885	3744.03
668.077	3729.69
668.268	3731.74
668.459	3721.5
668.651	3694.88
668.842	3707.16
669.033	3631.39
669.224	3438.88
669.416	3612.96
669.607	3522.85
669.798	3492.13
669.989	3612.96
670.18	3449.12
670.371	3494.18
670.563	3524.9
670.754	3420.45
670.945	3508.51
671.136	3477.79
671.327	3496.22
671.518	3402.02
671.709	3426.59
671.9	3526.94
672.091	3483.94
672.282	3418.4
672.473	3254.56
672.664	3514.66
672.855	3299.62
673.046	3473.7
673.237	3418.4
673.428	3354.91
673.619	3367.2
673.809	3285.28
674	3359.01
674.191	3211.56
674.382	3236.13
674.573	3295.52
674.764	3334.43
674.954	3363.11
675.145	3260.71
675.336	3172.64
675.527	3090.73
675.717	3203.36
675.908	3221.8
676.099	3146.02
676.289	3170.6
676.48	3131.69
676.671	3084.58
676.861	3256.61
677.052	3287.33
677.243	2982.18
677.433	3146.02
677.624	3100.97
677.814	3012.9
678.005	3180.84
678.195	3225.89
678.386	3207.46
678.576	3062.05
678.767	3115.3
678.957	3068.2
679.148	3055.91
679.338	3066.15
679.529	3037.48
679.719	3113.25
679.909	3006.76
680.1	3066.15
680.29	2910.5
680.481	2961.7
680.671	3023.14
680.861	3068.2
681.052	2906.41
681.242	2943.27
681.432	2994.47
681.622	2924.84
681.813	2973.99
682.003	3010.86
682.193	2838.83
682.383	3033.38
682.573	2935.08
682.764	2879.79
682.954	2957.61
683.144	2986.28
683.334	3010.86
683.524	2967.85
683.714	2894.12
683.904	2908.46
684.094	2973.99
684.284	2892.07
684.474	2943.27
684.664	2990.38
684.854	2924.84
685.044	2793.77
685.234	2859.31
685.424	2928.94
685.614	2736.43
685.804	2857.26
685.994	2920.74
686.184	2900.27
686.374	2761
686.564	2732.33
686.753	2744.62
686.943	2799.91
687.133	2795.82
687.323	2648.36
687.513	2683.18
687.702	2761
687.892	2773.29
688.082	2777.39
688.272	2697.52
688.461	2732.33
688.651	2599.21
688.841	2781.48
689.03	2631.98
689.22	2695.47
689.41	2570.54
689.599	2642.22
689.789	2552.11
689.979	2672.94
690.168	2545.97
690.358	2629.93
690.547	2613.55
690.737	2476.34
690.926	2494.77
691.116	2494.77
691.305	2638.13
691.495	2613.55
691.684	2468.14
691.874	2502.96
692.063	2361.65
692.252	2470.19
692.442	2484.53
692.631	2380.08
692.82	2457.9
693.01	2396.46
693.199	2453.81
693.388	2427.18
693.578	2367.79
693.767	2378.03
693.956	2435.38
694.146	2384.18
694.335	2380.08
694.524	2330.93
694.713	2343.22
694.902	2292.02
695.092	2363.7
695.281	2378.03
695.47	2449.71
695.659	2232.63
695.848	2353.46
696.037	2394.42
696.226	2294.07
696.415	2359.6
696.604	2306.35
696.793	2206
696.982	2273.59
697.171	2230.58
697.36	2222.39
697.549	2234.68
697.738	2216.24
697.927	2171.19
698.116	2287.92
698.305	2281.78
698.494	2179.38
698.683	2246.96
698.872	2197.81
699.061	2222.39
699.25	2091.32
699.438	2236.72
699.627	2181.43
699.816	2277.68
700.005	2195.76
700.193	2175.28
700.382	2195.76
700.571	2163
700.76	2195.76
700.948	2230.58
701.137	2191.67
701.326	2183.48
701.514	2158.9
701.703	2150.71
701.892	2101.56
702.08	2183.48
702.269	2220.34
702.457	2036.02
702.646	2218.29
702.834	2105.65
703.023	2179.38
703.212	2103.61
703.4	2187.57
703.589	2165.04
703.777	2107.7
703.965	2056.5
704.154	2128.18
704.342	2128.18
704.531	2105.65
704.719	2015.54
704.907	2175.28
705.096	2007.35
705.284	2081.08
705.472	2066.74
705.661	2113.85
705.849	2134.32
706.037	2146.61
706.226	2050.36
706.414	2216.24
706.602	2064.69
706.79	2144.56
706.979	2007.35
707.167	2152.76
707.355	2081.08
707.543	2109.75
707.731	2154.8
707.919	2023.73
708.107	1995.06
708.296	2050.36
708.484	2038.07
708.672	2140.47
708.86	1999.16
709.048	2072.89
709.236	2050.36
709.424	2130.23
709.612	2023.73
709.8	2107.7
709.988	2074.93
710.176	2031.93
710.364	2011.45
710.551	2091.32
710.739	2085.17
710.927	2070.84
711.115	2001.21
711.303	2005.3
711.491	2033.97
711.679	1943.86
711.866	2142.52
712.054	2210.1
712.242	2091.32
712.43	2113.85
712.617	2064.69
712.805	1988.92
712.993	2113.85
713.181	1941.82
713.368	2158.9
713.556	2040.12
713.744	2087.22
713.931	2187.57
714.119	2058.55
714.306	2021.69
714.494	1945.91
714.682	2007.35
714.869	1990.97
715.057	2003.25
715.244	1974.58
715.432	1984.82
715.619	1921.34
715.807	1982.78
715.994	2117.94
716.182	2099.51
716.369	2009.4
716.556	2079.03
716.744	1966.39
716.931	2015.54
717.119	1984.82
717.306	1984.82
717.493	1950.01
717.681	2062.65
717.868	2007.35
718.055	2042.17
718.242	2083.13
718.43	2124.08
718.617	2089.27
718.804	2031.93
718.991	2048.31
719.179	2113.85
719.366	2021.69
719.553	2066.74
719.74	1958.2
719.927	2003.25
720.114	2066.74
720.301	1958.2
720.488	1966.39
720.676	1880.38
720.863	1968.44
721.05	1997.11
721.237	2009.4
721.424	1990.97
721.611	2031.93
721.798	1999.16
721.985	1886.52
722.172	1976.63
722.358	1966.39
722.545	2040.12
722.732	2052.41
722.919	2001.21
723.106	2050.36
723.293	1974.58
723.48	1900.86
723.667	1923.38
723.853	1960.25
724.04	2031.93
724.227	1984.82
724.414	1925.43
724.6	1956.15
724.787	1982.78
724.974	1968.44
725.161	2015.54
725.347	1960.25
725.534	2064.69
725.72	1941.82
725.907	2081.08
726.094	1976.63
726.28	1947.96
726.467	2007.35
726.653	1911.1
726.84	2001.21
727.027	1870.14
727.213	1820.99
727.4	2052.41
727.586	1995.06
727.773	1884.47
727.959	2038.07
728.145	1958.2
728.332	2017.59
728.518	1900.86
728.705	1954.1
728.891	2093.37
729.077	2072.89
729.264	1900.86
729.45	2007.35
729.636	2025.78
729.823	1909.05
730.009	2033.97
730.195	1958.2
730.382	2146.61
730.568	1950.01
730.754	2007.35
730.94	1941.82
731.126	1990.97
731.313	1999.16
731.499	2007.35
731.685	1995.06
731.871	1861.94
732.057	1941.82
732.243	2074.93
732.429	2005.3
732.615	1911.1
732.801	1976.63
732.987	1892.66
733.173	1945.91
733.359	1853.75
733.545	1919.29
733.731	1859.9
733.917	1900.86
734.103	1884.47
734.289	1933.62
734.475	2009.4
734.661	1913.14
734.847	1907
735.033	1933.62
735.219	1939.77
735.404	1878.33
735.59	1863.99
735.776	1952.06
735.962	1927.48
736.148	1902.9
736.333	1833.27
736.519	1933.62
736.705	1907
736.89	1868.09
737.076	1896.76
737.262	1859.9
737.447	1939.77
737.633	2046.26
737.819	1911.1
738.004	1833.27
738.19	1810.75
738.375	1990.97
738.561	1921.34
738.747	1900.86
738.932	1845.56
739.118	1843.51
739.303	1892.66
739.489	1935.67
739.674	1857.85
739.859	1876.28
740.045	1831.23
740.23	1855.8
740.416	1747.26
740.601	1849.66
740.786	1796.41
740.972	1706.3
741.157	1896.76
741.342	1775.93
741.528	1870.14
741.713	1984.82
741.898	1761.59
742.084	1757.5
742.269	1917.24
742.454	1745.21
742.639	1786.17
742.824	1718.59
743.01	1755.45
743.195	1741.11
743.38	1659.2
743.565	1737.02
743.75	1788.22
743.935	1696.06
744.12	1841.47
744.305	1626.43
744.49	1630.52
744.675	1591.61
744.86	1683.77
745.045	1624.38
745.23	1630.52
745.415	1634.62
745.6	1739.07
745.785	1597.76
745.97	1601.85
746.155	1687.87
746.34	1595.71
746.525	1548.61
746.71	1626.43
746.895	1569.09
747.079	1622.33
747.264	1599.8
747.449	1601.85
747.634	1567.04
747.819	1575.23
748.003	1476.93
748.188	1433.92
748.373	1464.64
748.557	1546.56
748.742	1483.07
748.927	1483.07
749.111	1487.17
749.296	1491.26
749.481	1536.32
749.665	1368.38
749.85	1466.69
750.034	1345.86
750.219	1386.82
750.404	1417.54
750.588	1442.11
750.773	1425.73
750.957	1466.69
751.141	1372.48
751.326	1327.43
751.51	1433.92
751.695	1315.14
751.879	1270.08
752.064	1401.15
752.248	1331.52
752.432	1433.92
752.617	1376.58
752.801	1368.38
752.985	1343.81
753.17	1354.05
753.354	1225.03
753.538	1276.23
753.722	1196.36
753.907	1171.78
754.091	1171.78
754.275	1245.51
754.459	1153.35
754.643	1151.3
754.828	1212.74
755.012	1163.59
755.196	1179.97
755.38	1165.64
755.564	1149.25
755.748	1028.42
755.932	1149.25
756.116	1153.35
756.3	1139.01
756.484	1147.2
756.668	1251.65
756.852	1040.71
757.036	1206.59
757.22	1065.29
757.404	1124.68
757.588	1030.47
757.772	1059.14
757.956	1122.63
758.14	1061.19
758.323	981.32
758.507	1020.23
758.691	936.26
758.875	962.89
759.059	958.79
759.242	985.41
759.426	1040.71
759.61	954.69
759.794	1034.57
759.977	1061.19
760.161	1040.71
760.345	938.31
760.528	872.78
760.712	1001.8
760.895	1009.99
761.079	1012.04
761.263	897.35
761.446	923.98
761.63	923.98
761.813	913.74
761.997	913.74
762.18	883.02
762.364	917.83
762.547	858.44
762.731	885.06
762.914	926.02
763.098	917.83
763.281	844.1
763.464	844.1
763.648	835.91
763.831	870.73
764.015	833.86
764.198	799.05
764.381	778.57
764.564	891.21
764.748	844.1
764.931	854.34
765.114	788.81
765.297	833.86
765.481	764.23
765.664	758.09
765.847	852.3
766.03	782.67
766.213	725.32
766.397	840.01
766.58	797
766.763	788.81
766.946	758.09
767.129	827.72
767.312	778.57
767.495	799.05
767.678	811.34
767.861	772.43
768.044	803.15
768.227	831.82
768.41	801.1
768.593	792.91
768.776	782.67
768.959	682.31
769.142	731.47
769.324	799.05
769.507	745.8
769.69	702.79
769.873	696.65
770.056	766.28
770.239	768.33
770.421	706.89
770.604	797
770.787	729.42
770.97	713.03
771.152	631.12
771.335	704.84
771.518	770.38
771.7	684.36
771.883	729.42
772.066	674.12
772.248	655.69
772.431	790.86
772.613	627.02
772.796	729.42
772.978	633.16
773.161	678.22
773.343	690.51
773.526	667.98
773.708	655.69
773.891	622.92
774.073	551.24
774.256	647.5
774.438	647.5
774.621	594.25
774.803	655.69
774.985	479.57
775.168	577.87
775.35	616.78
775.532	592.2
775.715	584.01
775.897	649.55
776.079	516.43
776.261	612.68
776.444	610.64
776.626	559.44
776.808	557.39
776.99	567.63
777.173	561.48
777.355	491.85
777.537	596.3
777.719	575.82
777.901	559.44
778.083	510.29
778.265	577.87
778.447	502.09
778.629	500.05
778.811	555.34
778.993	467.28
779.175	493.9
779.357	522.57
779.539	483.66
779.721	506.19
779.903	518.48
780.085	405.84
780.267	516.43
780.449	481.61
780.631	532.81
780.812	547.15
780.994	532.81
781.176	524.62
781.358	407.89
781.54	469.33
781.721	430.41
781.903	454.99
782.085	385.36
782.267	506.19
782.448	348.5
782.63	446.8
782.812	491.85
782.993	471.37
783.175	385.36
783.357	434.51
783.538	452.94
783.72	387.41
783.901	403.79
784.083	434.51
784.264	475.47
784.446	401.74
784.627	364.88
784.809	368.98
784.99	311.63
785.172	436.56
785.353	385.36
785.535	360.78
785.716	362.83
785.897	354.64
786.079	457.04
786.26	340.3
786.441	278.87
786.623	360.78
786.804	432.46
786.985	317.78
787.167	305.49
787.348	373.07
787.529	346.45
787.71	426.32
787.891	291.15
788.073	330.06
788.254	332.11
788.435	348.5
788.616	371.02
788.797	346.45
788.978	346.45
789.159	291.15
789.34	336.21
789.522	295.25
789.703	323.92
789.884	291.15
790.065	342.35
790.246	340.3
790.427	319.82
790.607	342.35
790.788	409.94
790.969	272.72
791.15	311.63
791.331	213.33
791.512	207.19
791.693	272.72
791.874	328.02
792.054	340.3
792.235	297.3
792.416	244.05
792.597	264.53
792.778	354.64
792.958	325.97
793.139	315.73
793.32	328.02
793.5	274.77
793.681	325.97
793.862	246.1
794.042	282.96
794.223	307.54
794.404	248.15
794.584	170.32
794.765	254.29
794.945	250.19
795.126	246.1
795.306	282.96
795.487	237.91
795.667	270.67
795.848	239.95
796.028	235.86
796.209	131.41
796.389	282.96
796.57	274.77
796.75	237.91
796.93	143.7
797.111	170.32
797.291	262.48
797.471	196.95
797.652	229.71
797.832	209.23
798.012	188.75
798.192	182.61
798.373	256.34
798.553	242
798.733	287.06
798.913	231.76
799.093	172.37
799.274	205.14
799.454	266.58
799.634	172.37
799.814	235.86
799.994	147.8
800.174	305.49
800.354	127.32
800.534	133.46
800.714	164.18
800.894	205.14
801.074	164.18
801.254	190.8
801.434	289.1
801.614	244.05
801.794	172.37
801.974	782.67
802.154	123.22
802.334	168.27
802.514	119.12
802.693	196.95
802.873	145.75
803.053	186.71
803.233	145.75
803.413	213.33
803.592	196.95
803.772	192.85
803.952	123.22
804.131	168.27
804.311	131.41
804.491	205.14
804.67	115.03
804.85	117.08
805.03	213.33
805.209	250.19
805.389	207.19
805.568	123.22
805.748	182.61
805.928	213.33
806.107	158.03
806.287	158.03
806.466	141.65
806.646	190.8
806.825	110.93
807.004	229.71
807.184	162.13
807.363	248.15
807.543	186.71
807.722	115.03
807.901	213.33
808.081	192.85
808.26	151.89
808.439	149.84
808.619	147.8
808.798	129.36
808.977	182.61
809.156	139.6
809.336	160.08
809.515	125.27
809.694	82.26
809.873	141.65
810.052	129.36
810.231	174.42
810.411	115.03
810.59	115.03
810.769	223.57
810.948	143.7
811.127	108.88
811.306	166.23
811.485	133.46
811.664	213.33
811.843	141.65
812.022	90.45
812.201	112.98
812.38	61.78
812.559	188.75
812.737	94.55
812.916	112.98
813.095	123.22
813.274	90.45
813.453	86.36
813.632	96.6
813.811	141.65
813.989	112.98
814.168	131.41
814.347	182.61
814.526	41.3
814.704	127.32
814.883	196.95
815.062	127.32
815.24	149.84
815.419	115.03
815.598	164.18
815.776	55.64
815.955	172.37
816.133	155.99
816.312	72.02
816.49	176.47
816.669	137.56
816.847	43.35
817.026	133.46
817.204	143.7
817.383	92.5
817.561	98.64
817.74	151.89
817.918	258.39
818.097	180.56
818.275	139.6
818.453	149.84
818.632	123.22
818.81	29.01
818.988	145.75
819.167	37.2
819.345	108.88
819.523	59.73
819.701	158.03
819.879	131.41
820.058	65.88
820.236	94.55
820.414	127.32
820.592	84.31
820.77	33.11
820.948	76.12
821.127	94.55
821.305	65.88
821.483	90.45
821.661	82.26
821.839	86.36
822.017	133.46
822.195	65.88
822.373	106.84
822.551	39.25
822.729	104.79
822.907	76.12
823.085	112.98
823.262	123.22
823.44	-5.8
823.618	98.64
823.796	119.12
823.974	82.26
824.152	16.73
824.329	72.02
824.507	117.08
824.685	100.69
824.863	22.87
825.04	98.64
825.218	125.27
825.396	35.16
825.574	102.74
825.751	67.92
825.929	151.89
826.107	141.65
826.284	133.46
826.462	94.55
826.639	117.08
826.817	155.99
826.994	92.5
827.172	94.55
827.349	74.07
827.527	166.23
827.704	88.4
827.882	69.97
828.059	37.2
828.237	127.32
828.414	90.45
828.591	47.44
828.769	61.78
828.946	82.26
829.124	92.5
829.301	57.68
829.478	43.35
829.655	8.53
829.833	49.49
830.01	92.5
830.187	22.87
830.364	-9.9
830.542	10.58
830.719	172.37
830.896	86.36
831.073	86.36
831.25	100.69
831.427	78.16
831.604	82.26
831.782	-30.38
831.959	121.17
832.136	65.88
832.313	88.4
832.49	61.78
832.667	8.53
832.844	16.73
833.021	82.26
833.198	86.36
833.374	100.69
833.551	69.97
833.728	-5.8
833.905	123.22
834.082	45.4
834.259	82.26
834.436	37.2
834.612	18.77
834.789	78.16
834.966	41.3
835.143	106.84
835.319	-5.8
835.496	65.88
835.673	102.74
835.85	88.4
836.026	22.87
836.203	49.49
836.38	59.73
836.556	51.54
836.733	41.3
836.909	92.5
837.086	61.78
837.262	51.54
837.439	84.31
837.616	41.3
837.792	59.73
837.968	115.03
838.145	49.49
838.321	82.26
838.498	49.49
838.674	106.84
838.851	55.64
839.027	67.92
839.203	117.08
839.38	59.73
839.556	10.58
839.732	108.88
839.909	-34.47
840.085	76.12
840.261	59.73
840.437	41.3
840.614	61.78
840.79	166.23
840.966	86.36
841.142	61.78
841.318	-13.99
841.494	-3.75
841.671	69.97
841.847	4.44
842.023	43.35
842.199	69.97
842.375	39.25
842.551	-32.43
842.727	45.4
842.903	16.73
843.079	53.59
843.255	82.26
843.431	20.82
843.607	139.6
843.783	-13.99
843.959	76.12
844.134	33.11
844.31	125.27
844.486	43.35
844.662	20.82
844.838	59.73
845.013	26.96
845.189	110.93
845.365	90.45
845.541	65.88
845.716	45.4
845.892	20.82
846.068	10.58
846.244	37.2
846.419	82.26
846.595	4.44
846.77	29.01
846.946	43.35
847.122	59.73
847.297	26.96
847.473	41.3
847.648	-57
847.824	78.16
847.999	55.64
848.175	45.4
848.35	-7.85
848.526	106.84
848.701	24.92
848.876	20.82
849.052	16.73
849.227	29.01
849.403	-30.38
849.578	-13.99
849.753	-26.28
849.929	33.11
850.104	10.58
850.279	29.01
850.454	-1.71
850.63	33.11
850.805	-36.52
850.98	67.92
851.155	4.44
851.33	65.88
851.505	35.16
851.681	-36.52
851.856	55.64
852.031	29.01
852.206	65.88
852.381	-30.38
852.556	59.73
852.731	82.26
852.906	2.39
853.081	24.92
853.256	80.21
853.431	12.63
853.606	-3.75
853.781	74.07
853.956	37.2
854.131	31.06
854.305	-9.9
854.48	82.26
854.655	57.68
854.83	72.02
855.005	10.58
855.18	53.59
855.354	55.64
855.529	33.11
855.704	26.96
855.879	16.73
856.053	-24.23
856.228	61.78
856.403	10.58
856.577	51.54
856.752	59.73
856.926	41.3
857.101	22.87
857.276	24.92
857.45	24.92
857.625	-11.95
857.799	8.53
857.974	59.73
858.148	-44.71
858.323	-3.75
858.497	41.3
858.672	-5.8
858.846	8.53
859.02	45.4
859.195	-13.99
859.369	90.45
859.543	-46.76
859.718	16.73
859.892	41.3
860.066	4.44
860.241	-40.62
860.415	24.92
860.589	45.4
860.763	8.53
860.938	16.73
861.112	49.49
861.286	-73.39
861.46	8.53
861.634	106.84
861.808	37.2
861.982	4.44
862.157	39.25
862.331	24.92
862.505	-40.62
862.679	-65.19
862.853	47.44
863.027	16.73
863.201	43.35
863.375	16.73
863.549	94.55
863.722	10.58
863.896	84.31
864.07	-11.95
864.244	-5.8
864.418	-13.99
864.592	33.11
864.766	65.88
864.939	59.73
865.113	4.44
865.287	65.88
865.461	20.82
865.634	26.96
865.808	22.87
865.982	39.25
866.156	0.34
866.329	-28.33
866.503	-16.04
866.676	100.69
866.85	69.97
867.024	-54.95
867.197	57.68
867.371	61.78
867.544	59.73
867.718	-16.04
867.891	47.44
868.065	-5.8
868.238	8.53
868.412	90.45
868.585	-18.09
868.759	53.59
868.932	2.39
869.105	96.6
869.279	-65.19
869.452	-48.81
869.625	-7.85
869.799	-16.04
869.972	6.49
870.145	26.96
870.319	57.68
870.492	16.73
870.665	35.16
870.838	-5.8
871.011	-48.81
871.185	-32.43
871.358	141.65
871.531	-11.95
871.704	37.2
871.877	16.73
872.05	0.34
872.223	43.35
872.396	-28.33
872.569	-28.33
872.742	0.34
872.915	65.88
873.088	8.53
873.261	10.58
873.434	-30.38
873.607	-5.8
873.78	31.06
873.953	8.53
874.126	4.44
874.299	18.77
874.471	33.11
874.644	-57
874.817	12.63
874.99	41.3
875.163	-54.95
875.335	37.2
875.508	-61.1
875.681	69.97
875.853	29.01
876.026	24.92
876.199	12.63
876.371	-11.95
876.544	10.58
876.717	-7.85
876.889	24.92
877.062	22.87
877.234	-48.81
877.407	18.77
877.579	20.82
877.752	33.11
877.924	55.64
878.097	67.92
878.269	61.78
878.442	47.44
878.614	-13.99
878.786	47.44
878.959	-36.52
879.131	-11.95
879.303	-106.15
879.476	37.2
879.648	4.44
879.82	24.92
879.993	14.68
880.165	2.39
880.337	-11.95
880.509	-18.09
880.681	26.96
880.854	18.77
881.026	53.59
881.198	92.5
881.37	45.4
881.542	16.73
881.714	-11.95
881.886	4.44
882.058	22.87
882.23	84.31
882.402	-7.85
882.574	16.73
882.746	18.77
882.918	2.39
883.09	16.73
883.262	-28.33
883.434	4.44
883.606	-24.23
883.778	20.82
883.95	49.49
884.122	0.34
884.293	41.3
884.465	-16.04
884.637	41.3
884.809	26.96
884.98	24.92
885.152	-13.99
885.324	-40.62
885.496	-67.24
885.667	-22.19
885.839	31.06
886.011	59.73
886.182	57.68
886.354	33.11
886.525	6.49
886.697	26.96
886.869	-7.85
887.04	59.73
887.212	65.88
887.383	-24.23
887.555	18.77
887.726	-7.85
887.897	20.82
888.069	-20.14
888.24	0.34
888.412	59.73
888.583	-52.91
888.754	-9.9
888.926	-22.19
889.097	-32.43
889.268	-44.71
889.44	-44.71
889.611	53.59
889.782	-5.8
889.953	18.77
890.125	-38.57
890.296	33.11
890.467	65.88
890.638	-9.9
890.809	-54.95
890.98	6.49
891.151	8.53
891.323	94.55
891.494	59.73
891.665	41.3
891.836	59.73
892.007	-11.95
892.178	14.68
892.349	6.49
892.52	-5.8
892.691	72.02
892.862	-11.95
893.032	-30.38
893.203	29.01
893.374	45.4
893.545	2.39
893.716	39.25
893.887	43.35
894.057	24.92
894.228	-13.99
894.399	-87.72
894.57	106.84
894.74	-32.43
894.911	31.06
895.082	51.54
895.253	-61.1
895.423	57.68
895.594	31.06
895.764	41.3
895.935	0.34
896.106	43.35
896.276	37.2
896.447	20.82
896.617	8.53
896.788	-52.91
896.958	8.53
897.129	-22.19
897.299	-11.95
897.47	65.88
897.64	-24.23
897.81	-22.19
897.981	110.93
898.151	51.54
898.322	59.73
898.492	112.98
898.662	35.16
898.832	-16.04
899.003	102.74
899.173	-5.8
899.343	-5.8
899.513	-20.14
