Data from USB4F104151__87__14-17-51-363.txt Node

Date: Thu Mar 13 14:17:51 EDT 2025
User: louis
Spectrometer: USB4F10415
Trigger mode: 4
Integration Time (sec): 2.000000E-2
Scans to average: 1
Electric dark correction enabled: true
Nonlinearity correction enabled: false
Boxcar width: 0
XAxis mode: Wavelengths
Number of Pixels in Spectrum: 3648
>>>>>Begin Spectral Data<<<<<
178.204	-173.05
178.424	-173.05
178.644	-173.05
178.864	-193.53
179.084	-152.57
179.304	-107.52
179.524	-37.89
179.744	84.99
179.964	3.07
180.184	-1.02
180.404	3.07
180.624	-44.03
180.844	37.89
181.064	-56.32
181.283	19.46
181.503	33.79
181.723	64.51
181.943	-25.6
182.163	84.99
182.383	-5.12
182.602	52.22
182.822	58.37
183.042	84.99
183.262	-41.98
183.482	52.22
183.701	3.07
183.921	-68.61
184.141	37.89
184.361	70.65
184.58	7.17
184.8	54.27
185.02	-21.5
185.239	27.65
185.459	25.6
185.679	46.08
185.898	-23.55
186.118	97.28
186.338	72.7
186.557	80.89
186.777	-46.08
186.997	9.22
187.216	13.31
187.436	27.65
187.655	-19.46
187.875	9.22
188.095	-29.7
188.314	60.42
188.534	48.13
188.753	19.46
188.973	132.09
189.192	-25.6
189.412	44.03
189.631	60.42
189.851	-37.89
190.07	39.94
190.29	15.36
190.509	23.55
190.729	7.17
190.948	33.79
191.168	177.15
191.387	84.99
191.607	44.03
191.826	76.8
192.045	-27.65
192.265	11.26
192.484	-27.65
192.704	-9.22
192.923	-60.42
193.142	101.37
193.362	-3.07
193.581	109.57
193.8	11.26
194.02	-25.6
194.239	-25.6
194.458	-13.31
194.678	37.89
194.897	27.65
195.116	-56.32
195.335	3.07
195.555	44.03
195.774	50.18
195.993	60.42
196.212	9.22
196.432	23.55
196.651	9.22
196.87	-21.5
197.089	-19.46
197.308	-15.36
197.528	19.46
197.747	-3.07
197.966	46.08
198.185	19.46
198.404	13.31
198.623	37.89
198.842	27.65
199.062	76.8
199.281	95.23
199.5	-19.46
199.719	62.46
199.938	-46.08
200.157	115.71
200.376	17.41
200.595	84.99
200.814	5.12
201.033	15.36
201.252	9.22
201.471	11.26
201.69	7.17
201.909	-13.31
202.128	46.08
202.347	52.22
202.566	62.46
202.785	11.26
203.004	-29.7
203.223	72.7
203.442	-9.22
203.661	27.65
203.879	93.18
204.098	76.8
204.317	-13.31
204.536	3.07
204.755	-13.31
204.974	46.08
205.193	35.84
205.411	48.13
205.63	13.31
205.849	76.8
206.068	11.26
206.287	41.98
206.505	23.55
206.724	19.46
206.943	-25.6
207.162	15.36
207.381	35.84
207.599	1.02
207.818	-3.07
208.037	31.74
208.255	-11.26
208.474	13.31
208.693	-19.46
208.911	68.61
209.13	11.26
209.349	113.66
209.567	-44.03
209.786	13.31
210.005	44.03
210.223	9.22
210.442	27.65
210.661	-37.89
210.879	27.65
211.098	56.32
211.316	68.61
211.535	54.27
211.753	31.74
211.972	46.08
212.191	-3.07
212.409	-3.07
212.628	-46.08
212.846	29.7
213.065	-11.26
213.283	35.84
213.502	60.42
213.72	19.46
213.938	-17.41
214.157	60.42
214.375	19.46
214.594	13.31
214.812	27.65
215.031	15.36
215.249	101.37
215.467	-54.27
215.686	29.7
215.904	19.46
216.122	21.5
216.341	15.36
216.559	9.22
216.778	66.56
216.996	52.22
217.214	15.36
217.432	41.98
217.651	-23.55
217.869	37.89
218.087	-25.6
218.306	52.22
218.524	1.02
218.742	11.26
218.96	29.7
219.179	-37.89
219.397	60.42
219.615	15.36
219.833	52.22
220.051	44.03
220.27	19.46
220.488	46.08
220.706	7.17
220.924	-70.65
221.142	-41.98
221.36	68.61
221.578	54.27
221.796	23.55
222.015	-9.22
222.233	72.7
222.451	29.7
222.669	-25.6
222.887	27.65
223.105	-13.31
223.323	13.31
223.541	19.46
223.759	44.03
223.977	25.6
224.195	134.14
224.413	5.12
224.631	-5.12
224.849	-54.27
225.067	72.7
225.285	-23.55
225.503	-33.79
225.721	-13.31
225.939	-5.12
226.157	44.03
226.375	76.8
226.592	-58.37
226.81	-13.31
227.028	35.84
227.246	121.85
227.464	64.51
227.682	-11.26
227.9	89.09
228.117	19.46
228.335	19.46
228.553	-33.79
228.771	89.09
228.989	62.46
229.206	-31.74
229.424	27.65
229.642	-11.26
229.86	-1.02
230.077	113.66
230.295	39.94
230.513	13.31
230.731	-35.84
230.948	9.22
231.166	80.89
231.384	-5.12
231.601	5.12
231.819	5.12
232.037	-27.65
232.254	-58.37
232.472	19.46
232.689	-3.07
232.907	37.89
233.125	82.94
233.342	-50.18
233.56	11.26
233.777	39.94
233.995	48.13
234.213	109.57
234.43	70.65
234.648	-3.07
234.865	-37.89
235.083	76.8
235.3	54.27
235.518	52.22
235.735	62.46
235.953	44.03
236.17	7.17
236.388	-33.79
236.605	48.13
236.822	58.37
237.04	52.22
237.257	31.74
237.475	11.26
237.692	54.27
237.909	19.46
238.127	3.07
238.344	13.31
238.562	-29.7
238.779	13.31
238.996	-21.5
239.214	-5.12
239.431	13.31
239.648	37.89
239.865	-5.12
240.083	27.65
240.3	72.7
240.517	50.18
240.735	11.26
240.952	13.31
241.169	19.46
241.386	50.18
241.603	-5.12
241.821	46.08
242.038	44.03
242.255	125.95
242.472	-64.51
242.689	-13.31
242.907	-29.7
243.124	-21.5
243.341	-35.84
243.558	-21.5
243.775	-41.98
243.992	-5.12
244.209	107.52
244.426	58.37
244.643	19.46
244.86	-19.46
245.078	19.46
245.295	25.6
245.512	-1.02
245.729	76.8
245.946	68.61
246.163	56.32
246.38	87.04
246.597	13.31
246.814	7.17
247.031	-5.12
247.248	13.31
247.464	-11.26
247.681	23.55
247.898	50.18
248.115	-3.07
248.332	44.03
248.549	39.94
248.766	62.46
248.983	41.98
249.2	46.08
249.417	91.13
249.633	5.12
249.85	87.04
250.067	58.37
250.284	-25.6
250.501	64.51
250.717	39.94
250.934	7.17
251.151	11.26
251.368	-3.07
251.585	39.94
251.801	29.7
252.018	-23.55
252.235	-13.31
252.451	37.89
252.668	-5.12
252.885	5.12
253.102	74.75
253.318	48.13
253.535	-7.17
253.752	11.26
253.968	52.22
254.185	33.79
254.401	29.7
254.618	44.03
254.835	11.26
255.051	62.46
255.268	54.27
255.484	-48.13
255.701	19.46
255.917	19.46
256.134	68.61
256.351	35.84
256.567	-19.46
256.784	60.42
257	-13.31
257.217	33.79
257.433	-1.02
257.65	46.08
257.866	-33.79
258.082	-50.18
258.299	-23.55
258.515	84.99
258.732	-7.17
258.948	-70.65
259.165	68.61
259.381	-31.74
259.597	52.22
259.814	-1.02
260.03	52.22
260.246	-27.65
260.463	-7.17
260.679	60.42
260.895	37.89
261.112	52.22
261.328	54.27
261.544	44.03
261.761	101.37
261.977	31.74
262.193	-3.07
262.409	46.08
262.626	23.55
262.842	13.31
263.058	-29.7
263.274	52.22
263.49	-11.26
263.707	-1.02
263.923	44.03
264.139	-1.02
264.355	-35.84
264.571	-54.27
264.787	39.94
265.004	11.26
265.22	89.09
265.436	60.42
265.652	-50.18
265.868	62.46
266.084	35.84
266.3	23.55
266.516	46.08
266.732	46.08
266.948	-1.02
267.164	52.22
267.38	-13.31
267.596	72.7
267.812	89.09
268.028	-5.12
268.244	-11.26
268.46	27.65
268.676	3.07
268.892	62.46
269.108	9.22
269.324	35.84
269.54	52.22
269.756	11.26
269.972	-74.75
270.188	37.89
270.403	-37.89
270.619	-5.12
270.835	37.89
271.051	62.46
271.267	3.07
271.483	48.13
271.698	29.7
271.914	48.13
272.13	-17.41
272.346	87.04
272.562	11.26
272.777	60.42
272.993	3.07
273.209	31.74
273.425	27.65
273.64	-29.7
273.856	3.07
274.072	76.8
274.287	66.56
274.503	-15.36
274.719	56.32
274.934	37.89
275.15	11.26
275.366	87.04
275.581	-76.8
275.797	3.07
276.012	21.5
276.228	27.65
276.444	21.5
276.659	107.52
276.875	52.22
277.09	-23.55
277.306	25.6
277.521	19.46
277.737	33.79
277.952	13.31
278.168	-9.22
278.383	-7.17
278.599	15.36
278.814	25.6
279.03	-60.42
279.245	48.13
279.461	62.46
279.676	-3.07
279.892	56.32
280.107	-1.02
280.322	3.07
280.538	7.17
280.753	11.26
280.969	46.08
281.184	64.51
281.399	68.61
281.615	70.65
281.83	3.07
282.045	27.65
282.26	-25.6
282.476	-3.07
282.691	68.61
282.906	50.18
283.122	3.07
283.337	23.55
283.552	56.32
283.767	93.18
283.983	-21.5
284.198	3.07
284.413	11.26
284.628	-46.08
284.843	29.7
285.058	-21.5
285.274	15.36
285.489	-13.31
285.704	19.46
285.919	46.08
286.134	35.84
286.349	44.03
286.564	62.46
286.779	-19.46
286.995	62.46
287.21	3.07
287.425	35.84
287.64	-60.42
287.855	7.17
288.07	1.02
288.285	19.46
288.5	7.17
288.715	68.61
288.93	-7.17
289.145	13.31
289.36	19.46
289.575	11.26
289.79	44.03
290.004	-15.36
290.219	39.94
290.434	54.27
290.649	19.46
290.864	7.17
291.079	-29.7
291.294	70.65
291.509	5.12
291.724	-11.26
291.938	-111.61
292.153	74.75
292.368	11.26
292.583	27.65
292.798	23.55
293.012	37.89
293.227	68.61
293.442	37.89
293.657	52.22
293.871	11.26
294.086	-35.84
294.301	87.04
294.516	3.07
294.73	23.55
294.945	-39.94
295.16	27.65
295.374	46.08
295.589	-21.5
295.804	-9.22
296.018	72.7
296.233	93.18
296.447	23.55
296.662	-58.37
296.877	52.22
297.091	25.6
297.306	-5.12
297.52	21.5
297.735	37.89
297.949	-21.5
298.164	54.27
298.378	-23.55
298.593	-44.03
298.807	-46.08
299.022	-25.6
299.236	33.79
299.451	87.04
299.665	7.17
299.88	87.04
300.094	3.07
300.309	17.41
300.523	19.46
300.737	-35.84
300.952	11.26
301.166	46.08
301.381	-64.51
301.595	-41.98
301.809	50.18
302.024	-3.07
302.238	46.08
302.452	54.27
302.667	27.65
302.881	27.65
303.095	48.13
303.309	23.55
303.524	-76.8
303.738	-1.02
303.952	23.55
304.166	60.42
304.381	-29.7
304.595	76.8
304.809	5.12
305.023	3.07
305.237	11.26
305.452	39.94
305.666	54.27
305.88	23.55
306.094	56.32
306.308	117.76
306.522	37.89
306.736	11.26
306.95	64.51
307.164	-1.02
307.379	52.22
307.593	44.03
307.807	54.27
308.021	103.42
308.235	11.26
308.449	46.08
308.663	27.65
308.877	117.76
309.091	19.46
309.305	44.03
309.519	-52.22
309.733	93.18
309.947	7.17
310.161	-31.74
310.374	91.13
310.588	66.56
310.802	-25.6
311.016	64.51
311.23	27.65
311.444	33.79
311.658	11.26
311.872	25.6
312.085	68.61
312.299	33.79
312.513	70.65
312.727	29.7
312.941	-27.65
313.154	-35.84
313.368	27.65
313.582	80.89
313.796	19.46
314.009	19.46
314.223	52.22
314.437	105.47
314.651	46.08
314.864	21.5
315.078	46.08
315.292	70.65
315.505	35.84
315.719	39.94
315.933	101.37
316.146	19.46
316.36	-25.6
316.573	52.22
316.787	39.94
317.001	80.89
317.214	-50.18
317.428	11.26
317.641	44.03
317.855	84.99
318.068	9.22
318.282	27.65
318.495	33.79
318.709	68.61
318.922	99.33
319.136	78.85
319.349	27.65
319.563	68.61
319.776	76.8
319.99	29.7
320.203	117.76
320.417	-3.07
320.63	11.26
320.843	105.47
321.057	74.75
321.27	11.26
321.483	-37.89
321.697	54.27
321.91	103.42
322.124	37.89
322.337	13.31
322.55	-13.31
322.763	5.12
322.977	76.8
323.19	41.98
323.403	-5.12
323.617	44.03
323.83	46.08
324.043	78.85
324.256	11.26
324.469	-15.36
324.683	-1.02
324.896	23.55
325.109	5.12
325.322	-41.98
325.535	103.42
325.748	13.31
325.962	-37.89
326.175	19.46
326.388	39.94
326.601	76.8
326.814	27.65
327.027	21.5
327.24	76.8
327.453	29.7
327.666	41.98
327.879	152.57
328.092	11.26
328.305	27.65
328.518	-27.65
328.731	27.65
328.944	-29.7
329.157	68.61
329.37	-3.07
329.583	19.46
329.796	80.89
330.009	-35.84
330.222	11.26
330.435	31.74
330.648	103.42
330.861	29.7
331.073	7.17
331.286	35.84
331.499	46.08
331.712	3.07
331.925	29.7
332.138	84.99
332.35	41.98
332.563	23.55
332.776	52.22
332.989	46.08
333.202	35.84
333.414	23.55
333.627	11.26
333.84	-5.12
334.053	46.08
334.265	-15.36
334.478	-3.07
334.691	46.08
334.903	3.07
335.116	27.65
335.329	62.46
335.541	-13.31
335.754	68.61
335.966	-60.42
336.179	5.12
336.392	29.7
336.604	11.26
336.817	84.99
337.029	70.65
337.242	-44.03
337.454	46.08
337.667	84.99
337.88	44.03
338.092	-9.22
338.305	-46.08
338.517	-15.36
338.729	-31.74
338.942	-15.36
339.154	31.74
339.367	109.57
339.579	44.03
339.792	62.46
340.004	19.46
340.217	-62.46
340.429	-29.7
340.641	-52.22
340.854	-7.17
341.066	31.74
341.278	35.84
341.491	15.36
341.703	48.13
341.915	-70.65
342.128	142.33
342.34	121.85
342.552	44.03
342.764	23.55
342.977	-21.5
343.189	44.03
343.401	21.5
343.613	-17.41
343.826	44.03
344.038	54.27
344.25	27.65
344.462	21.5
344.674	7.17
344.886	-29.7
345.099	3.07
345.311	31.74
345.523	48.13
345.735	-29.7
345.947	56.32
346.159	62.46
346.371	27.65
346.583	23.55
346.795	93.18
347.007	-13.31
347.219	84.99
347.431	58.37
347.643	-21.5
347.855	19.46
348.067	62.46
348.279	27.65
348.491	46.08
348.703	44.03
348.915	-21.5
349.127	56.32
349.339	-52.22
349.551	5.12
349.763	15.36
349.975	52.22
350.187	80.89
350.399	39.94
350.61	54.27
350.822	15.36
351.034	37.89
351.246	76.8
351.458	17.41
351.669	66.56
351.881	52.22
352.093	78.85
352.305	13.31
352.517	-19.46
352.728	76.8
352.94	84.99
353.152	7.17
353.363	54.27
353.575	103.42
353.787	91.13
353.999	44.03
354.21	58.37
354.422	82.94
354.633	-68.61
354.845	7.17
355.057	68.61
355.268	156.67
355.48	76.8
355.692	5.12
355.903	78.85
356.115	52.22
356.326	3.07
356.538	93.18
356.749	-3.07
356.961	52.22
357.172	-15.36
357.384	-5.12
357.595	97.28
357.807	23.55
358.018	-19.46
358.23	-23.55
358.441	72.7
358.653	62.46
358.864	62.46
359.075	-21.5
359.287	84.99
359.498	68.61
359.709	-11.26
359.921	48.13
360.132	31.74
360.344	11.26
360.555	-13.31
360.766	-27.65
360.977	60.42
361.189	54.27
361.4	103.42
361.611	72.7
361.823	21.5
362.034	3.07
362.245	-58.37
362.456	99.33
362.667	117.76
362.879	37.89
363.09	-17.41
363.301	39.94
363.512	41.98
363.723	19.46
363.935	-5.12
364.146	68.61
364.357	62.46
364.568	-50.18
364.779	17.41
364.99	46.08
365.201	7.17
365.412	146.43
365.623	9.22
365.834	48.13
366.045	13.31
366.256	87.04
366.467	66.56
366.678	-11.26
366.889	11.26
367.1	19.46
367.311	3.07
367.522	68.61
367.733	52.22
367.944	52.22
368.155	-3.07
368.366	66.56
368.577	19.46
368.788	48.13
368.999	9.22
369.209	37.89
369.42	52.22
369.631	117.76
369.842	37.89
370.053	29.7
370.264	3.07
370.474	-29.7
370.685	23.55
370.896	109.57
371.107	70.65
371.317	93.18
371.528	78.85
371.739	58.37
371.95	27.65
372.16	68.61
372.371	-3.07
372.582	-3.07
372.792	72.7
373.003	15.36
373.214	7.17
373.424	84.99
373.635	82.94
373.846	105.47
374.056	128
374.267	46.08
374.477	48.13
374.688	31.74
374.898	97.28
375.109	29.7
375.319	-25.6
375.53	117.76
375.74	44.03
375.951	25.6
376.161	27.65
376.372	-11.26
376.582	-5.12
376.793	-3.07
377.003	54.27
377.214	44.03
377.424	78.85
377.635	39.94
377.845	15.36
378.055	-52.22
378.266	35.84
378.476	19.46
378.686	27.65
378.897	54.27
379.107	-11.26
379.317	41.98
379.528	60.42
379.738	7.17
379.948	-62.46
380.158	78.85
380.369	89.09
380.579	80.89
380.789	-3.07
380.999	46.08
381.21	119.81
381.42	66.56
381.63	19.46
381.84	39.94
382.05	64.51
382.261	54.27
382.471	103.42
382.681	-33.79
382.891	134.14
383.101	29.7
383.311	46.08
383.521	13.31
383.731	146.43
383.941	84.99
384.151	31.74
384.361	3.07
384.571	11.26
384.781	117.76
384.991	130.05
385.201	44.03
385.411	52.22
385.621	-23.55
385.831	-19.46
386.041	60.42
386.251	68.61
386.461	97.28
386.671	119.81
386.881	48.13
387.091	29.7
387.301	95.23
387.511	19.46
387.72	33.79
387.93	80.89
388.14	50.18
388.35	46.08
388.56	66.56
388.769	54.27
388.979	89.09
389.189	23.55
389.399	19.46
389.609	52.22
389.818	46.08
390.028	29.7
390.238	35.84
390.447	13.31
390.657	101.37
390.867	64.51
391.076	3.07
391.286	5.12
391.496	46.08
391.705	35.84
391.915	29.7
392.125	103.42
392.334	44.03
392.544	101.37
392.753	80.89
392.963	62.46
393.172	64.51
393.382	60.42
393.591	115.71
393.801	19.46
394.01	78.85
394.22	84.99
394.429	13.31
394.639	103.42
394.848	76.8
395.058	5.12
395.267	19.46
395.477	29.7
395.686	117.76
395.895	89.09
396.105	150.53
396.314	70.65
396.524	93.18
396.733	33.79
396.942	105.47
397.152	-23.55
397.361	35.84
397.57	25.6
397.78	27.65
397.989	44.03
398.198	134.14
398.407	54.27
398.617	109.57
398.826	56.32
399.035	84.99
399.244	111.61
399.453	35.84
399.663	93.18
399.872	84.99
400.081	35.84
400.29	91.13
400.499	72.7
400.708	27.65
400.917	128
401.127	74.75
401.336	46.08
401.545	185.34
401.754	-15.36
401.963	158.72
402.172	109.57
402.381	109.57
402.59	35.84
402.799	103.42
403.008	177.15
403.217	68.61
403.426	142.33
403.635	64.51
403.844	21.5
404.053	125.95
404.262	128
404.471	154.62
404.68	125.95
404.888	93.18
405.097	136.19
405.306	117.76
405.515	60.42
405.724	140.29
405.933	183.29
406.142	103.42
406.35	125.95
406.559	146.43
406.768	189.44
406.977	183.29
407.185	199.68
407.394	191.49
407.603	160.77
407.812	136.19
408.02	187.39
408.229	171.01
408.438	166.91
408.646	177.15
408.855	121.85
409.064	224.25
409.272	257.02
409.481	201.72
409.69	209.92
409.898	236.54
410.107	273.4
410.315	257.02
410.524	332.79
410.733	324.6
410.941	207.87
411.15	287.74
411.358	277.5
411.567	363.51
411.775	371.71
411.984	314.36
412.192	297.98
412.401	336.89
412.609	318.46
412.818	416.76
413.026	353.27
413.234	375.8
413.443	353.27
413.651	416.76
413.86	457.72
414.068	539.64
414.276	504.82
414.485	439.29
414.693	539.64
414.901	529.4
415.11	560.12
415.318	568.31
415.526	562.17
415.734	629.75
415.943	578.55
416.151	637.94
416.359	728.05
416.567	644.09
416.776	740.34
416.984	683
417.192	789.49
417.4	738.29
417.608	852.98
417.817	863.22
418.025	932.85
418.233	994.29
418.441	969.71
418.649	977.91
418.857	1041.39
419.065	1125.36
419.273	1051.63
419.481	1078.26
419.689	1186.8
419.897	1184.75
420.105	1215.47
420.313	1250.28
420.521	1242.09
420.729	1348.59
420.937	1407.98
421.145	1416.17
421.353	1479.66
421.561	1600.49
421.769	1663.97
421.977	1635.3
422.185	1655.78
422.393	1760.23
422.601	1731.56
422.809	1829.86
423.017	1805.28
423.224	2087.9
423.432	1995.75
423.64	1989.6
423.848	2186.21
424.056	2173.92
424.263	2313.18
424.471	2323.42
424.679	2472.92
424.887	2472.92
425.094	2546.65
425.302	2657.24
425.51	2644.95
425.718	2657.24
425.925	2780.12
426.133	2808.79
426.341	3064.79
426.548	3224.53
426.756	3224.53
426.964	3275.73
427.171	3386.32
427.379	3435.47
427.586	3554.25
427.794	3771.33
428.001	3800.01
428.209	3967.94
428.417	3814.34
428.624	4281.28
428.832	4221.89
429.039	4139.97
429.247	4117.44
429.454	4529.08
429.662	4852.66
429.869	4369.34
430.076	4776.89
430.284	4797.37
430.491	5043.12
430.699	5188.53
430.906	5254.06
431.114	5438.38
431.321	5465
431.528	5698.47
431.736	5925.8
431.943	6247.33
432.15	6112.16
432.358	6138.79
432.565	6362.01
432.772	6572.96
432.979	6970.26
433.187	6939.54
433.394	6933.4
433.601	7312.27
433.808	7658.38
434.016	7447.44
434.223	7607.18
434.43	8063.88
434.637	8039.3
434.844	8524.67
435.052	8506.24
435.259	8485.76
435.466	8778.62
435.673	8651.64
435.88	9169.78
436.087	9622.38
436.294	9622.38
436.501	9393.01
436.708	9755.5
436.915	9894.76
437.122	10339.17
437.329	10562.4
437.537	10548.06
437.743	10949.46
437.95	10734.43
438.157	11385.68
438.364	11674.45
438.571	11467.6
438.778	11885.39
438.985	12690.24
439.192	12217.16
439.399	12645.18
439.606	12329.8
439.813	13065.02
440.02	14029.61
440.227	13628.21
440.433	13396.79
440.64	14080.81
440.847	13802.29
441.054	14203.69
441.261	15092.51
441.467	14844.7
441.674	15266.58
441.881	15803.15
442.088	15686.42
442.294	15710.99
442.501	15981.32
442.708	16376.58
442.914	17279.74
443.121	17627.89
443.328	17185.53
443.534	18649.83
443.741	17836.78
443.948	17894.13
444.154	18850.53
444.361	19018.46
444.568	19102.43
444.774	18932.45
444.981	19208.92
445.187	19759.83
445.394	20548.29
445.6	20376.27
445.807	22418.09
446.013	21084.86
446.22	21803.7
446.426	22782.63
446.633	23012
446.839	23323.29
447.046	22549.16
447.252	24064.66
447.459	24128.14
447.665	23898.77
447.871	24754.82
448.078	26077.81
448.284	24590.98
448.491	25295.49
448.697	26335.85
448.903	26700.39
449.11	26913.38
449.316	26417.77
449.522	26806.89
449.728	27671.13
449.935	28121.68
450.141	27804.25
450.347	28432.97
450.553	27675.23
450.76	27581.02
450.966	28602.96
451.172	28645.96
451.378	29248.07
451.584	28416.59
451.791	29469.25
451.997	29395.52
452.203	29792.83
452.409	30089.78
452.615	29588.03
452.821	28643.91
453.027	28224.08
453.233	29819.45
453.44	28779.08
453.646	29153.86
453.852	29528.64
454.058	29622.84
454.264	28287.57
454.47	29549.12
454.676	28705.35
454.882	29872.7
455.088	27075.17
455.294	27226.72
455.5	27859.54
455.705	28004.95
455.911	27134.56
456.117	26763.88
456.323	26339.95
456.529	24830.6
456.735	26466.92
456.941	25242.24
457.147	24865.41
457.352	24183.44
457.558	24044.18
457.764	24076.94
457.97	23624.34
458.176	22948.51
458.381	23026.34
458.587	21910.19
458.793	22114.99
458.999	20423.37
459.204	22633.13
459.41	21516.98
459.616	20007.63
459.821	20257.48
460.027	20325.07
460.233	19899.09
460.438	18991.84
460.644	19163.87
460.85	17996.53
461.055	17804.02
461.261	17869.55
461.466	16624.39
461.672	16118.54
461.878	17076.99
462.083	16046.86
462.289	15801.1
462.494	15561.49
462.7	14824.22
462.905	14631.71
463.111	15108.89
463.316	14998.3
463.522	14818.08
463.727	14795.55
463.932	14926.62
464.138	14443.3
464.343	14498.59
464.549	14285.61
464.754	14779.17
464.959	14461.73
465.165	14351.14
465.37	13941.55
465.575	13509.43
465.781	14093.1
465.986	14074.67
466.191	13560.63
466.397	13429.56
466.602	12550.98
466.807	13085.5
467.012	13159.22
467.218	13034.3
467.423	12915.51
467.628	13298.49
467.833	13577.01
468.038	13374.26
468.244	12800.83
468.449	13181.75
468.654	12634.94
468.859	12587.84
469.064	12475.2
469.269	12073.8
469.474	12407.62
469.679	12616.51
469.885	12219.21
470.09	12280.64
470.295	12272.45
470.5	12061.51
470.705	12059.46
470.91	11684.69
471.115	11653.97
471.32	11688.78
471.525	11883.34
471.73	11645.77
471.935	11393.87
472.139	11047.77
472.344	11238.23
472.549	11080.53
472.754	11187.03
472.959	10761.05
473.164	10505.06
473.369	10689.37
473.574	10885.98
473.778	10652.51
473.983	10679.13
474.188	10554.21
474.393	10103.65
474.598	10353.51
474.802	10206.05
475.007	9976.68
475.212	9890.67
475.417	9597.81
475.621	9745.26
475.826	9825.13
476.031	9397.1
476.235	9335.67
476.44	9436.02
476.645	9218.93
476.849	9393.01
477.054	9177.97
477.259	8905.59
477.463	8936.31
477.668	8764.28
477.872	8817.53
478.077	8704.89
478.282	8657.79
478.486	8553.34
478.691	8395.65
478.895	8438.66
479.1	8248.19
479.304	8657.79
479.509	7996.29
479.713	8328.06
479.918	8145.8
480.122	8031.11
480.326	8209.28
480.531	8067.97
480.735	8135.56
480.94	8018.82
481.144	8244.1
481.348	7908.23
481.553	7932.81
481.757	7900.04
481.961	7900.04
482.166	7908.23
482.37	7850.89
482.574	7857.03
482.778	7787.4
482.983	7824.26
483.187	7926.66
483.391	7887.75
483.595	7957.38
483.8	7748.49
484.004	7945.09
484.208	7871.37
484.412	7791.5
484.616	7725.96
484.821	7662.48
485.025	7752.59
485.229	8063.88
485.433	7891.85
485.637	7908.23
485.841	7748.49
486.045	7779.21
486.249	7875.46
486.453	7711.63
486.657	7924.62
486.861	7793.55
487.065	7658.38
487.269	7920.52
487.473	7682.95
487.677	7828.36
487.881	8014.73
488.085	7758.73
488.289	7754.63
488.493	7736.2
488.697	8029.06
488.901	8000.39
489.105	7814.02
489.309	7764.87
489.512	7836.55
489.716	7801.74
489.92	7844.74
490.124	7961.48
490.328	7883.66
490.531	7941
490.735	8147.84
490.939	8098.69
491.143	8031.11
491.346	8129.41
491.55	8246.15
491.754	8164.23
491.958	8364.93
492.161	8350.59
492.365	8309.63
492.569	8450.94
492.772	8377.22
492.976	8457.09
493.18	8459.13
493.383	8473.47
493.587	8491.9
493.79	8686.46
493.994	8561.53
494.197	8657.79
494.401	8655.74
494.605	8764.28
494.808	8795
495.012	8856.44
495.215	8899.45
495.419	8983.41
495.622	8964.98
495.825	9145.2
496.029	9218.93
496.232	9376.62
496.436	9251.7
496.639	9251.7
496.843	9485.17
497.046	9751.4
497.249	9925.48
497.453	9866.09
497.656	9837.42
497.859	10085.22
498.063	10126.18
498.266	9956.2
498.469	10161
498.673	10169.19
498.876	10349.41
499.079	10595.17
499.282	10769.24
499.485	10863.45
499.689	10943.32
499.892	11240.28
500.095	11250.52
500.298	11330.39
500.501	11275.09
500.705	11598.67
500.908	11651.92
501.111	11803.47
501.314	11991.88
501.517	12114.76
501.72	12127.05
501.923	12120.9
502.126	12421.95
502.329	12645.18
502.532	12573.5
502.735	12888.89
502.938	12989.24
503.141	13134.65
503.344	13253.43
503.547	13325.11
503.75	13378.36
503.953	13683.5
504.156	13933.36
504.359	13869.87
504.562	13822.77
504.765	14273.32
504.968	14365.48
505.17	14414.63
505.373	14609.19
505.576	14781.21
505.779	14822.17
505.982	15131.42
506.185	15647.51
506.387	15428.37
506.59	15618.83
506.793	15786.77
506.996	15870.73
507.198	16222.98
507.401	16020.24
507.604	16354.05
507.807	16571.14
508.009	16911.1
508.212	16849.66
508.415	16900.86
508.617	17304.31
508.82	17386.23
509.022	17232.63
509.225	17875.7
509.428	17988.33
509.63	18295.53
509.833	18232.04
510.035	18795.23
510.238	18578.15
510.44	18901.73
510.643	19135.2
510.845	18983.65
511.048	19313.37
511.25	19059.42
511.453	19655.38
511.655	20579.01
511.858	20153.04
512.06	20224.72
512.262	20740.8
512.465	20789.95
512.667	20916.93
512.87	20847.3
513.072	21015.23
513.274	21834.42
513.477	21918.39
513.679	22043.31
513.881	22098.61
514.084	22438.57
514.286	22188.72
514.488	22682.28
514.69	23081.63
514.893	23081.63
515.095	23401.11
515.297	23542.42
515.499	23665.3
515.701	24203.92
515.904	24218.25
516.106	24181.39
516.308	24797.83
516.51	25098.88
516.712	24818.31
516.914	25279.1
517.116	25606.78
517.318	25762.42
517.52	25502.33
517.722	26010.23
517.925	26401.39
518.127	26456.68
518.329	26696.3
518.531	26602.09
518.733	27533.92
518.935	27376.22
519.136	27417.18
519.338	27841.11
519.54	28064.34
519.742	28045.91
519.944	28351.06
520.146	28826.18
520.348	28869.19
520.55	29160
520.752	29076.04
520.954	29946.42
521.155	29387.33
521.357	30106.16
521.559	30200.37
521.761	30804.52
521.963	30409.26
522.164	30732.84
522.366	30853.67
522.568	30923.3
522.77	31160.87
522.971	31851.03
523.173	31459.87
523.375	32100.89
523.576	31885.85
523.778	32268.82
523.98	32365.07
524.181	32434.71
524.383	32160.28
524.584	32999.94
524.786	33192.45
524.988	32752.14
525.189	33401.35
525.391	33370.63
525.592	34050.55
525.794	33681.92
525.995	34038.26
526.197	34343.41
526.398	34226.68
526.6	34439.67
526.801	34839.02
527.003	34830.83
527.204	34595.31
527.406	34843.12
527.607	34867.69
527.808	35434.98
528.01	34849.26
528.211	35236.33
528.412	35609.06
528.614	34957.8
528.815	35508.71
529.016	36151.77
529.218	35254.76
529.419	35717.6
529.62	35930.59
529.822	35992.03
530.023	35707.36
530.224	36002.27
530.425	36028.89
530.626	35725.79
530.828	35727.84
531.029	36473.3
531.23	35996.12
531.431	36035.03
531.632	36147.67
531.833	36473.3
532.035	36420.05
532.236	36512.21
532.437	36413.91
532.638	36528.59
532.839	36516.31
533.04	36542.93
533.241	36176.34
533.442	36913.61
533.643	36774.35
533.844	36481.49
534.045	36540.88
534.246	36471.25
534.447	37126.6
534.648	36469.2
534.849	36979.15
535.05	36315.61
535.251	36293.08
535.451	36555.22
535.652	36829.65
535.853	36714.96
536.054	36692.43
536.255	36778.45
536.456	36573.65
536.657	37364.17
536.857	36547.03
537.058	36618.71
537.259	36757.97
537.46	36727.25
537.66	36614.61
537.861	37083.59
538.062	36948.43
538.263	36878.8
538.463	36661.71
538.664	36598.23
538.865	36223.45
539.065	36950.48
539.266	36379.09
539.466	36983.24
539.667	36395.48
539.868	37151.18
540.068	36796.88
540.269	36694.48
540.469	36995.53
540.67	36702.67
540.87	36512.21
541.071	36506.07
541.271	36456.92
541.472	36737.49
541.672	36846.03
541.873	36301.27
542.073	36139.48
542.274	36749.78
542.474	36463.06
542.675	36602.32
542.875	36626.9
543.075	36979.15
543.276	36372.95
543.476	37099.98
543.676	36794.83
543.877	36837.84
544.077	36755.92
544.277	36848.08
544.478	36504.02
544.678	37126.6
544.878	36495.83
545.078	36323.8
545.279	36256.21
545.479	36356.57
545.679	37071.31
545.879	36907.47
546.079	36477.4
546.28	36407.76
546.48	36043.23
546.68	36559.31
546.88	36901.32
547.08	36303.32
547.28	36063.71
547.48	36424.15
547.68	36688.34
547.88	36370.9
548.081	36694.48
548.281	36407.76
548.481	36225.5
548.681	36405.72
548.881	36547.03
549.081	36331.99
549.28	36088.28
549.48	36573.65
549.68	36510.16
549.88	36782.54
550.08	36352.47
550.28	36454.87
550.48	36530.64
550.68	36809.17
550.88	36143.58
551.08	36469.2
551.279	36573.65
551.479	36241.88
551.679	36299.22
551.879	36233.69
552.079	36614.61
552.278	36088.28
552.478	36485.59
552.678	36358.61
552.878	36508.11
553.077	36352.47
553.277	36356.57
553.477	36389.33
553.676	36182.49
553.876	36194.78
554.076	35891.68
554.275	36254.17
554.475	35811.81
554.674	36522.45
554.874	36327.89
555.074	36145.62
555.273	36311.51
555.473	36377.04
555.672	36084.19
555.872	36102.62
556.071	36186.58
556.271	36405.72
556.47	35873.24
556.67	35801.57
556.869	35860.96
557.068	36145.62
557.268	35586.53
557.467	36002.27
557.667	35822.05
557.866	36096.47
558.065	36041.18
558.265	35572.19
558.464	35490.27
558.663	36045.27
558.863	35559.91
559.062	35971.55
559.261	35701.22
559.461	35912.16
559.66	35305.96
559.859	35559.91
560.058	35783.13
560.258	35559.91
560.457	34955.75
560.656	35629.54
560.855	35140.07
561.054	35434.98
561.253	34744.81
561.453	35078.63
561.652	35625.44
561.851	35361.25
562.05	35133.93
562.249	35027.43
562.448	35086.82
562.647	35156.46
562.846	35101.16
563.045	35133.93
563.244	34877.93
563.443	35004.91
563.642	34324.98
563.841	34890.22
564.04	34476.53
564.239	35187.18
564.438	34658.8
564.637	34615.79
564.836	34847.21
565.035	34421.23
565.234	34245.11
565.432	34290.16
565.631	34300.4
565.83	34396.66
566.029	34292.21
566.228	33843.71
566.427	34359.8
566.625	33964.54
566.824	33554.94
567.023	34116.09
567.222	33497.6
567.42	34124.28
567.619	33997.31
567.818	33780.22
568.016	33384.96
568.215	33653.25
568.414	33450.5
568.612	33931.77
568.811	33311.24
569.01	33602.05
569.208	33202.69
569.407	33686.01
569.605	33128.97
569.804	33634.81
570.002	33133.06
570.201	33075.72
570.4	33167.88
570.598	32936.46
570.797	32762.38
570.995	33085.96
571.193	32573.97
571.392	32991.75
571.59	32690.7
571.789	32692.75
571.987	32277.01
572.186	32836.11
572.384	32307.73
572.582	32311.83
572.781	32469.52
572.979	31963.67
573.177	32066.07
573.376	32387.6
573.574	31576.61
573.772	31926.81
573.971	31701.53
574.169	31504.93
574.367	31621.66
574.565	32000.54
574.763	31380
574.962	31605.28
575.16	31267.36
575.358	31556.13
575.556	30986.79
575.754	31636
575.952	31128.1
576.151	31388.19
576.349	31072.81
576.547	30982.7
576.745	30890.54
576.943	30851.63
577.141	30997.03
577.339	30759.47
577.537	30489.13
577.735	30638.64
577.933	30069.3
578.131	30501.42
578.329	30444.08
578.527	29645.37
578.725	30050.87
578.923	30745.13
579.121	29964.85
579.319	29932.09
579.516	30042.68
579.714	30138.93
579.912	29641.28
580.11	29817.4
580.308	29784.63
580.506	29932.09
580.704	29432.38
580.901	29356.61
581.099	29368.9
581.297	29241.92
581.495	29162.05
581.692	29342.27
581.89	29278.79
582.088	29073.99
582.285	28840.52
582.483	29282.88
582.681	28768.84
582.878	28715.59
583.076	28645.96
583.274	28805.7
583.471	28340.82
583.669	28645.96
583.866	28531.28
584.064	28684.87
584.262	28140.11
584.459	28351.06
584.657	28121.68
584.854	28451.41
585.052	27697.75
585.249	28191.31
585.447	27959.89
585.644	27654.75
585.841	28015.19
586.039	27830.87
586.236	27732.57
586.434	27316.83
586.631	27599.45
586.828	27570.78
587.026	27638.36
587.223	27279.97
587.42	27284.06
587.618	27146.85
587.815	26878.57
588.012	26917.48
588.21	26862.18
588.407	27048.55
588.604	26952.29
588.801	26720.87
588.999	26901.09
589.196	26567.27
589.393	26765.93
589.59	26602.09
589.787	26673.77
589.984	26366.57
590.182	26262.13
590.379	26436.2
590.576	26212.98
590.773	26137.2
590.97	25715.32
591.167	26350.19
591.364	25815.67
591.561	26073.71
591.758	25664.12
591.955	25743.99
592.152	25461.37
592.349	25938.55
592.546	25485.95
592.743	25717.37
592.94	25023.11
593.137	25342.59
593.334	25277.05
593.531	24980.1
593.727	25262.72
593.924	25064.07
594.121	24703.62
594.318	25135.74
594.515	24441.48
594.712	24971.91
594.908	24590.98
595.105	24844.93
595.302	24343.18
595.499	24533.64
595.696	24554.12
595.892	24076.94
596.089	24279.69
596.286	24103.57
596.482	24416.91
596.679	23945.87
596.876	24115.86
597.072	24064.66
597.269	23904.92
597.466	23945.87
597.662	23681.69
597.859	23616.15
598.055	23675.54
598.252	23583.38
598.448	23532.18
598.645	23431.83
598.841	23300.76
599.038	23263.9
599.234	23317.15
599.431	22962.85
599.627	23284.38
599.824	22987.43
600.02	22925.99
600.217	23003.81
600.413	23061.15
600.609	23106.21
600.806	22823.59
601.002	22657.7
601.198	22618.79
601.395	22637.22
601.591	22592.17
601.787	22454.95
601.984	22418.09
602.18	22280.88
602.376	21942.96
602.572	22203.05
602.769	21848.75
602.965	21893.81
603.161	22024.88
603.357	21842.61
603.553	21904.05
603.75	21881.52
603.946	21793.46
604.142	21910.19
604.338	21629.62
604.534	21689.01
604.73	21519.03
604.926	21256.89
605.122	21478.07
605.318	21398.2
605.514	21408.44
605.71	20789.95
605.906	21168.83
606.102	21031.62
606.298	21123.77
606.494	21052.09
606.69	21207.74
606.886	21177.02
607.082	20679.36
607.278	20927.17
607.474	20540.1
607.67	20982.46
607.866	20558.53
608.062	20777.67
608.257	20507.34
608.453	20400.84
608.649	20576.97
608.845	20232.91
609.041	20425.42
609.236	20638.41
609.432	20486.86
609.628	20431.56
609.824	20171.47
610.019	20165.32
610.215	20574.92
610.411	20341.45
610.606	20046.54
610.802	20064.97
610.998	20114.13
611.193	20204.24
611.389	19718.87
611.584	19976.91
611.78	19792.59
611.976	20243.15
612.171	19794.64
612.367	20024.01
612.562	19825.36
612.758	19493.59
612.953	19458.78
613.149	20044.49
613.344	19477.21
613.539	19761.87
613.735	19655.38
613.93	19770.07
614.126	19417.82
614.321	19565.27
614.517	19509.97
614.712	19454.68
614.907	19313.37
615.103	19546.84
615.298	19112.67
615.493	19509.97
615.688	19032.8
615.884	19235.55
616.079	19000.03
616.274	19253.98
616.47	19186.4
616.665	19405.53
616.86	19022.56
617.055	18793.19
617.25	18983.65
617.445	19182.3
617.641	18725.6
617.836	18963.17
618.031	18606.82
618.226	18766.56
618.421	18617.06
618.616	18682.59
618.811	18150.12
619.006	18588.39
619.201	18307.82
619.396	18414.31
619.591	18139.88
619.786	18342.63
619.981	17748.72
620.176	18445.03
620.371	17736.43
620.566	18029.29
620.761	17863.41
620.956	17769.2
621.151	17679.09
621.346	17906.41
621.541	17226.49
621.735	17476.34
621.93	17343.22
622.125	17351.42
622.32	17347.32
622.515	17343.22
622.709	16974.59
622.904	17238.78
623.099	16900.86
623.294	17158.91
623.488	16616.19
623.683	16708.35
623.878	16495.36
624.072	16737.02
624.267	16556.8
624.462	16448.26
624.656	16202.5
624.851	15989.52
625.046	16163.59
625.24	15913.74
625.435	15624.98
625.629	15928.08
625.824	15825.68
626.018	15653.65
626.213	15375.13
626.407	15653.65
626.602	15219.48
626.796	15555.35
626.991	15303.45
627.185	15344.41
627.38	15223.58
627.574	15104.79
627.768	15108.89
627.963	14768.93
628.157	14623.52
628.352	14945.05
628.546	14555.94
628.74	14676.77
628.935	14306.09
629.129	14244.65
629.323	14234.41
629.517	14275.37
629.712	14007.08
629.906	13921.07
630.1	13841.2
630.294	14142.25
630.489	13626.16
630.683	14039.85
630.877	13679.41
631.071	13609.78
631.265	13890.35
631.459	13519.67
631.653	13579.06
631.848	13400.88
632.042	13398.84
632.236	13316.92
632.43	13157.18
632.624	13398.84
632.818	13134.65
633.012	12974.91
633.206	12888.89
633.4	13146.94
633.594	12809.02
633.788	12602.18
633.982	12655.42
634.176	12792.64
634.369	12454.72
634.563	12477.25
634.757	12487.49
634.951	12436.29
635.145	12448.58
635.339	12405.57
635.533	12139.33
635.726	12245.83
635.92	12038.98
636.114	12229.45
636.308	12038.98
636.501	11995.98
636.695	11856.72
636.889	11848.52
637.083	11504.46
637.276	11916.11
637.47	11580.24
637.664	11547.47
637.857	11475.79
638.051	11418.45
638.244	11256.66
638.438	11383.63
638.632	11357.01
638.825	11158.36
639.019	11135.83
639.212	11053.91
639.406	10971.99
639.599	10910.55
639.793	11064.15
639.986	10552.16
640.18	10920.79
640.373	10806.11
640.567	10695.52
640.76	10728.28
640.954	10672.99
641.147	10505.06
641.34	10390.37
641.534	10390.37
641.727	10431.33
641.92	10376.03
642.114	10373.99
642.307	10353.51
642.5	10115.94
642.694	9845.61
642.887	10034.02
643.08	10091.37
643.273	9810.79
643.467	9827.18
643.66	9714.54
643.853	9724.78
644.046	9550.7
644.239	9778.03
644.432	9487.22
644.626	9646.96
644.819	9718.64
645.012	9534.32
645.205	9501.55
645.398	9296.75
645.591	9231.22
645.784	9216.88
645.977	9104.25
646.17	9055.09
646.363	9034.61
646.556	9114.48
646.749	8838.01
646.942	9007.99
647.135	8770.43
647.328	8987.51
647.521	8891.26
647.714	8764.28
647.907	8817.53
648.099	8680.32
648.292	8745.85
648.485	8670.08
648.678	8401.79
648.871	8479.61
649.064	8377.22
649.256	8375.17
649.449	8332.16
649.642	8285.06
649.835	8049.54
650.027	8313.73
650.22	8059.78
650.413	8043.4
650.605	8139.65
650.798	7918.47
650.991	7877.51
651.183	7920.52
651.376	7719.82
651.568	7906.18
651.761	7742.35
651.954	7768.97
652.146	7762.83
652.339	7711.63
652.531	7601.04
652.724	7654.28
652.916	7461.77
653.109	7621.52
653.301	7568.27
653.494	7621.52
653.686	7226.26
653.879	7527.31
654.071	7424.91
654.263	7291.79
654.456	7326.61
654.648	7236.5
654.84	7252.88
655.033	7189.39
655.225	7177.11
655.417	7005.08
655.61	6925.21
655.802	7109.52
655.994	6935.45
656.186	6970.26
656.379	6976.41
656.571	6951.83
656.763	6863.77
656.955	6753.18
657.148	6728.6
657.34	6753.18
657.532	6679.45
657.724	6521.76
657.916	6605.72
658.108	6613.92
658.3	6517.66
658.492	6667.16
658.684	6540.19
658.876	6525.85
659.068	6648.73
659.26	6411.17
659.452	6362.01
659.644	6364.06
659.836	6323.1
660.028	6396.83
660.22	6230.94
660.412	6259.62
660.604	6126.5
660.796	6130.59
660.988	6183.84
661.18	6015.91
661.372	5974.95
661.563	6060.96
661.755	6138.79
661.947	6001.57
662.139	5819.3
662.331	5958.57
662.522	5966.76
662.714	5716.9
662.906	5725.1
663.097	5811.11
663.289	5501.87
663.481	5815.21
663.673	5768.1
663.864	5540.78
664.056	5553.07
664.247	5669.8
664.439	5405.61
664.631	5602.22
664.822	5493.68
665.014	5499.82
665.205	5477.29
665.397	5280.69
665.588	5387.18
665.78	5262.26
665.971	5508.01
666.163	5262.26
666.354	5172.15
666.546	5301.17
666.737	5163.95
666.929	5264.3
667.12	5161.91
667.311	5206.96
667.503	5045.17
667.694	5184.43
667.885	4981.68
668.077	5018.55
668.268	4973.49
668.459	5098.42
668.651	5053.36
668.842	5086.13
669.033	4895.67
669.224	4877.24
669.416	4877.24
669.607	4895.67
669.798	4905.91
669.989	4944.82
670.18	4860.85
670.371	4856.76
670.563	4705.21
670.754	4731.83
670.945	4742.07
671.136	4625.34
671.327	4645.82
671.518	4856.76
671.709	4748.22
671.9	4592.57
672.091	4703.16
672.282	4600.76
672.473	4600.76
672.664	4596.67
672.855	4574.14
673.046	4443.07
673.237	4549.56
673.428	4535.23
673.619	4598.71
673.809	4481.98
674	4371.39
674.191	4336.57
674.382	4330.43
674.573	4436.92
674.764	4324.29
674.954	4426.68
675.145	4418.49
675.336	4268.99
675.527	4275.13
675.717	4287.42
675.908	4166.59
676.099	4322.24
676.289	4178.88
676.48	4123.59
676.671	4240.32
676.861	4168.64
677.052	4105.15
677.243	4178.88
677.433	4162.5
677.624	4221.89
677.814	4131.78
678.005	4148.16
678.195	4115.39
678.386	4189.12
678.576	4254.66
678.767	4137.92
678.957	3986.37
679.148	4180.93
679.338	4066.24
679.529	4006.85
679.719	3859.4
679.909	4090.82
680.1	4010.95
680.29	3904.45
680.481	3957.7
680.671	3937.22
680.861	3902.4
681.052	3996.61
681.242	3939.27
681.432	4000.71
681.622	3904.45
681.813	3836.87
682.003	3976.13
682.193	3779.53
682.383	3886.02
682.573	3867.59
682.764	3757
682.954	3931.08
683.144	3699.66
683.334	3820.49
683.524	3843.01
683.714	3625.93
683.904	3814.34
684.094	3759.05
684.284	3722.18
684.474	3845.06
684.664	3761.09
684.854	3689.42
685.044	3644.36
685.234	3595.21
685.424	3865.54
685.614	3664.84
685.804	3599.31
685.994	3656.65
686.184	3800.01
686.374	3724.23
686.564	3718.09
686.753	3603.4
686.943	3625.93
687.133	3617.74
687.323	3443.66
687.513	3531.72
687.702	3632.07
687.892	3482.57
688.082	3470.28
688.272	3505.1
688.461	3455.95
688.651	3417.04
688.841	3414.99
689.03	3419.08
689.22	3398.6
689.41	3386.32
689.599	3365.84
689.789	3404.75
689.979	3333.07
690.168	3304.4
690.358	3363.79
690.547	3464.14
690.737	3288.01
690.926	3257.29
691.116	3230.67
691.305	3326.93
691.495	3218.38
691.684	3234.77
691.874	3283.92
692.063	3185.62
692.252	3165.14
692.442	3130.32
692.631	3156.94
692.82	3208.14
693.01	3230.67
693.199	3220.43
693.388	3099.6
693.578	3001.3
693.767	2997.2
693.956	3087.31
694.146	3093.46
694.335	3027.92
694.524	3021.78
694.713	3140.56
694.902	2935.76
695.092	3005.39
695.281	2986.96
695.47	3115.98
695.659	2976.72
695.848	2964.43
696.037	2960.34
696.226	3042.26
696.415	2927.57
696.604	2898.9
696.793	2843.6
696.982	3040.21
697.171	3021.78
697.36	2960.34
697.549	2864.08
697.738	2870.23
697.927	2792.41
698.116	2962.39
698.305	2868.18
698.494	2923.48
698.683	2829.27
698.872	2765.78
699.061	2767.83
699.25	2771.93
699.438	2769.88
699.627	2827.22
699.816	2853.84
700.005	2747.35
700.193	2757.59
700.382	2907.09
700.571	2788.31
700.76	2745.3
700.948	2874.32
701.137	2814.93
701.326	2798.55
701.514	2706.39
701.703	2755.54
701.892	2628.57
702.08	2853.84
702.269	2804.69
702.457	2667.48
702.646	2702.29
702.834	2685.91
703.023	2673.62
703.212	2735.06
703.4	2677.72
703.589	2661.34
703.777	2796.5
703.965	2667.48
704.154	2702.29
704.342	2603.99
704.531	2583.51
704.719	2587.61
704.907	2538.46
705.096	2501.59
705.284	2677.72
705.472	2489.31
705.661	2628.57
705.849	2626.52
706.037	2671.58
706.226	2722.77
706.414	2724.82
706.602	2583.51
706.79	2608.09
706.979	2567.13
707.167	2569.18
707.355	2501.59
707.543	2552.79
707.731	2550.75
707.919	2644.95
708.107	2456.54
708.296	2468.83
708.484	2472.92
708.672	2517.98
708.86	2438.11
709.048	2513.88
709.236	2436.06
709.424	2530.27
709.612	2419.68
709.8	2444.25
709.988	2350.04
710.176	2421.72
710.364	2563.03
710.551	2329.56
710.739	2413.53
710.927	2356.19
711.115	2442.2
711.303	2456.54
711.491	2530.27
711.679	2431.96
711.866	2391
712.054	2415.58
712.242	2456.54
712.43	2354.14
712.617	2358.24
712.805	2302.94
712.993	2333.66
713.181	2403.29
713.368	2264.03
713.556	2304.99
713.744	2282.46
713.931	2337.76
714.119	2296.8
714.306	2358.24
714.494	2354.14
714.682	2212.83
714.869	2272.22
715.057	2276.32
715.244	2257.89
715.432	2313.18
715.619	2339.8
715.807	2259.93
715.994	2223.07
716.182	2182.11
716.369	2282.46
716.556	2255.84
716.744	2083.81
716.931	2257.89
717.119	2165.73
717.306	2196.45
717.493	2163.68
717.681	2145.25
717.868	2190.3
718.055	2173.92
718.242	2227.17
718.43	2120.67
718.617	1995.75
718.804	2216.93
718.991	2214.88
719.179	2202.59
719.366	2061.28
719.553	2184.16
719.74	2120.67
719.927	2139.1
720.114	2087.9
720.301	2085.86
720.488	2030.56
720.676	2032.61
720.863	2141.15
721.05	2071.52
721.237	2122.72
721.424	2030.56
721.611	2061.28
721.798	2028.51
721.985	2053.09
722.172	2130.91
722.358	2083.81
722.545	2116.58
722.732	1905.63
722.919	2024.42
723.106	1985.51
723.293	1985.51
723.48	1995.75
723.667	2005.99
723.853	1985.51
724.04	1997.79
724.227	1991.65
724.414	1870.82
724.6	1989.6
724.787	2026.47
724.974	1909.73
725.161	1831.91
725.347	1948.64
725.534	1833.96
725.72	1913.83
725.907	1958.88
726.094	1889.25
726.28	1991.65
726.467	2038.75
726.653	1950.69
726.84	1909.73
727.027	1965.03
727.213	1928.16
727.4	1895.4
727.586	1997.79
727.773	1907.68
727.959	1909.73
728.145	1864.68
728.332	1903.59
728.518	1788.9
728.705	1864.68
728.891	1829.86
729.077	1856.48
729.264	1778.66
729.45	1799.14
729.636	1858.53
729.823	1874.92
730.009	1881.06
730.195	1766.37
730.382	1856.48
730.568	1870.82
730.754	1801.19
730.94	1848.29
731.126	1813.48
731.313	1856.48
731.499	1723.37
731.685	1756.13
731.871	1813.48
732.057	1850.34
732.243	1778.66
732.429	1784.8
732.615	1784.8
732.801	1868.77
732.987	1715.17
733.173	1690.6
733.359	1819.62
733.545	1737.7
733.731	1713.13
733.917	1784.8
734.103	1709.03
734.289	1737.7
734.475	1627.11
734.661	1799.14
734.847	1821.67
735.033	1698.79
735.219	1825.76
735.404	1715.17
735.59	1688.55
735.776	1625.06
735.962	1657.83
736.148	1749.99
736.333	1641.45
736.519	1678.31
736.705	1661.93
736.89	1749.99
737.076	1715.17
737.262	1659.88
737.447	1666.02
737.633	1657.83
737.819	1661.93
738.004	1555.43
738.19	1625.06
738.375	1668.07
738.561	1629.16
738.747	1602.54
738.932	1575.91
739.118	1635.3
739.303	1577.96
739.489	1635.3
739.674	1563.62
739.859	1635.3
740.045	1604.58
740.23	1637.35
740.416	1500.14
740.601	1569.77
740.786	1616.87
740.972	1551.34
741.157	1534.95
741.342	1543.14
741.528	1600.49
741.713	1526.76
741.898	1551.34
742.084	1551.34
742.269	1600.49
742.454	1522.66
742.639	1520.62
742.824	1512.42
743.01	1506.28
743.195	1545.19
743.38	1467.37
743.565	1422.31
743.75	1510.38
743.935	1477.61
744.12	1532.9
744.305	1354.73
744.49	1383.4
744.675	1356.78
744.86	1373.16
745.045	1358.83
745.23	1432.55
745.415	1608.68
745.6	1453.03
745.785	1364.97
745.97	1465.32
746.155	1444.84
746.34	1438.7
746.525	1330.16
746.71	1416.17
746.895	1334.25
747.079	1264.62
747.264	1205.23
747.449	1262.57
747.634	1526.76
747.819	1254.38
748.003	1260.52
748.188	1305.58
748.373	1285.1
748.557	1297.39
748.742	1274.86
748.927	1252.33
749.111	1231.85
749.296	1272.81
749.481	1295.34
749.665	1219.57
749.85	1215.47
750.034	1154.03
750.219	1137.65
750.404	1162.22
750.588	1190.89
750.773	1149.93
750.957	1178.61
751.141	1199.09
751.326	1133.55
751.51	1076.21
751.695	1108.98
751.879	1072.11
752.064	1154.03
752.248	1070.06
752.432	1166.32
752.617	1100.78
752.801	1111.02
752.985	1094.64
753.17	1010.67
753.354	1043.44
753.538	1051.63
753.722	1027.06
753.907	1061.87
754.091	1006.58
754.275	1086.45
754.459	986.1
754.643	881.65
754.828	1057.78
755.012	1020.91
755.196	990.19
755.38	1057.78
755.564	988.14
755.748	969.71
755.932	920.56
756.116	949.23
756.3	953.33
756.484	1016.82
756.668	977.91
756.852	912.37
757.036	895.99
757.22	1022.96
757.404	922.61
757.588	887.79
757.772	918.51
757.956	947.19
758.14	791.54
758.323	857.07
758.507	893.94
758.691	822.26
758.875	828.4
759.059	887.79
759.242	779.25
759.426	879.6
759.61	875.51
759.794	838.64
759.977	793.59
760.161	941.04
760.345	791.54
760.528	816.12
760.712	797.68
760.895	809.97
761.079	752.63
761.263	748.53
761.446	764.92
761.63	801.78
761.813	728.05
761.997	717.81
762.18	726
762.364	777.2
762.547	734.2
762.731	744.44
762.914	793.59
763.098	685.05
763.281	748.53
763.464	676.85
763.648	715.77
763.831	748.53
764.015	723.96
764.198	834.55
764.381	717.81
764.564	775.16
764.748	750.58
764.931	769.01
765.114	691.19
765.297	734.2
765.481	658.42
765.664	652.28
765.847	633.85
766.03	678.9
766.213	680.95
766.397	644.09
766.58	691.19
766.763	734.2
766.946	707.57
767.129	596.98
767.312	662.52
767.495	732.15
767.678	611.32
767.861	637.94
768.044	732.15
768.227	642.04
768.41	617.46
768.593	644.09
768.776	635.89
768.959	564.22
769.142	701.43
769.324	617.46
769.507	683
769.69	666.61
769.873	678.9
770.056	691.19
770.239	539.64
770.421	613.37
770.604	621.56
770.787	609.27
770.97	625.65
771.152	515.06
771.335	586.74
771.518	625.65
771.7	633.85
771.883	592.89
772.066	625.65
772.248	580.6
772.431	685.05
772.613	646.13
772.796	680.95
772.978	576.5
773.161	674.81
773.343	568.31
773.526	627.7
773.708	470.01
773.891	486.39
774.073	517.11
774.256	566.26
774.438	527.35
774.621	545.78
774.803	543.74
774.985	519.16
775.168	578.55
775.35	513.02
775.532	596.98
775.715	535.54
775.897	437.24
776.079	418.81
776.261	535.54
776.444	490.49
776.626	586.74
776.808	566.26
776.99	490.49
777.173	455.67
777.355	480.25
777.537	510.97
777.719	447.48
777.901	390.14
778.083	420.86
778.265	470.01
778.447	412.67
778.629	420.86
778.811	500.73
778.993	504.82
779.175	437.24
779.357	414.71
779.539	375.8
779.721	429.05
779.903	433.15
780.085	431.1
780.267	449.53
780.449	422.91
780.631	482.3
780.812	445.43
780.994	510.97
781.176	494.58
781.358	375.8
781.54	357.37
781.721	429.05
781.903	420.86
782.085	345.08
782.267	457.72
782.448	381.95
782.63	336.89
782.812	439.29
782.993	390.14
783.175	478.2
783.357	433.15
783.538	437.24
783.72	429.05
783.901	390.14
784.083	383.99
784.264	381.95
784.446	283.64
784.627	314.36
784.809	404.47
784.99	336.89
785.172	349.18
785.353	332.79
785.535	338.94
785.716	252.92
785.897	281.6
786.079	300.03
786.26	322.56
786.441	388.09
786.623	312.32
786.804	267.26
786.985	248.83
787.167	291.84
787.348	312.32
787.529	306.17
787.71	394.23
787.891	259.07
788.073	271.36
788.254	168.96
788.435	343.03
788.616	336.89
788.797	244.73
788.978	265.21
789.159	275.45
789.34	175.1
789.522	199.68
789.703	220.16
789.884	248.83
790.065	283.64
790.246	238.59
790.427	277.5
790.607	297.98
790.788	345.08
790.969	297.98
791.15	308.22
791.331	300.03
791.512	281.6
791.693	234.49
791.874	203.77
792.054	273.4
792.235	343.03
792.416	214.01
792.597	199.68
792.778	261.12
792.958	257.02
793.139	293.88
793.32	265.21
793.5	193.53
793.681	232.44
793.862	289.79
794.042	224.25
794.223	224.25
794.404	199.68
794.584	187.39
794.765	201.72
794.945	179.2
795.126	224.25
795.306	195.58
795.487	273.4
795.667	183.29
795.848	214.01
796.028	222.2
796.209	195.58
796.389	279.55
796.57	187.39
796.75	150.53
796.93	199.68
797.111	168.96
797.291	132.09
797.471	105.47
797.652	232.44
797.832	164.86
798.012	271.36
798.192	142.33
798.373	154.62
798.553	130.05
798.733	175.1
798.913	199.68
799.093	252.92
799.274	166.91
799.454	216.06
799.634	164.86
799.814	109.57
799.994	160.77
800.174	207.87
800.354	134.14
800.534	162.81
800.714	207.87
800.894	158.72
801.074	91.13
801.254	152.57
801.434	214.01
801.614	183.29
801.794	144.38
801.974	678.9
802.154	144.38
802.334	175.1
802.514	162.81
802.693	175.1
802.873	164.86
803.053	156.67
803.233	130.05
803.413	187.39
803.592	138.24
803.772	68.61
803.952	105.47
804.131	103.42
804.311	154.62
804.491	166.91
804.67	82.94
804.85	121.85
805.03	148.48
805.209	162.81
805.389	164.86
805.568	128
805.748	117.76
805.928	50.18
806.107	152.57
806.287	175.1
806.466	115.71
806.646	144.38
806.825	130.05
807.004	166.91
807.184	211.96
807.363	209.92
807.543	123.9
807.722	187.39
807.901	119.81
808.081	93.18
808.26	97.28
808.439	216.06
808.619	105.47
808.798	218.11
808.977	84.99
809.156	134.14
809.336	236.54
809.515	164.86
809.694	148.48
809.873	132.09
810.052	132.09
810.231	128
810.411	142.33
810.59	136.19
810.769	164.86
810.948	183.29
811.127	93.18
811.306	103.42
811.485	130.05
811.664	117.76
811.843	93.18
812.022	119.81
812.201	76.8
812.38	146.43
812.559	62.46
812.737	150.53
812.916	62.46
813.095	68.61
813.274	187.39
813.453	125.95
813.632	128
813.811	121.85
813.989	109.57
814.168	150.53
814.347	23.55
814.526	146.43
814.704	150.53
814.883	109.57
815.062	76.8
815.24	97.28
815.419	44.03
815.598	97.28
815.776	97.28
815.955	144.38
816.133	54.27
816.312	64.51
816.49	101.37
816.669	95.23
816.847	62.46
817.026	93.18
817.204	134.14
817.383	80.89
817.561	80.89
817.74	128
817.918	97.28
818.097	76.8
818.275	125.95
818.453	101.37
818.632	25.6
818.81	154.62
818.988	128
819.167	68.61
819.345	39.94
819.523	140.29
819.701	72.7
819.879	74.75
820.058	19.46
820.236	80.89
820.414	99.33
820.592	111.61
820.77	84.99
820.948	60.42
821.127	60.42
821.305	84.99
821.483	23.55
821.661	87.04
821.839	44.03
822.017	27.65
822.195	101.37
822.373	93.18
822.551	11.26
822.729	48.13
822.907	13.31
823.085	152.57
823.262	136.19
823.44	27.65
823.618	56.32
823.796	84.99
823.974	125.95
824.152	21.5
824.329	44.03
824.507	84.99
824.685	66.56
824.863	117.76
825.04	35.84
825.218	134.14
825.396	54.27
825.574	95.23
825.751	80.89
825.929	134.14
826.107	-21.5
826.284	144.38
826.462	107.52
826.639	39.94
826.817	44.03
826.994	93.18
827.172	119.81
827.349	130.05
827.527	97.28
827.704	35.84
827.882	13.31
828.059	76.8
828.237	78.85
828.414	119.81
828.591	-1.02
828.769	138.24
828.946	21.5
829.124	99.33
829.301	60.42
829.478	56.32
829.655	13.31
829.833	-1.02
830.01	37.89
830.187	68.61
830.364	11.26
830.542	23.55
830.719	64.51
830.896	89.09
831.073	70.65
831.25	48.13
831.427	52.22
831.604	111.61
831.782	68.61
831.959	80.89
832.136	109.57
832.313	35.84
832.49	62.46
832.667	70.65
832.844	11.26
833.021	119.81
833.198	76.8
833.374	54.27
833.551	101.37
833.728	68.61
833.905	39.94
834.082	39.94
834.259	-23.55
834.436	84.99
834.612	-29.7
834.789	54.27
834.966	105.47
835.143	52.22
835.319	27.65
835.496	48.13
835.673	70.65
835.85	78.85
836.026	76.8
836.203	68.61
836.38	52.22
836.556	146.43
836.733	62.46
836.909	62.46
837.086	23.55
837.262	68.61
837.439	11.26
837.616	-1.02
837.792	76.8
837.968	107.52
838.145	39.94
838.321	52.22
838.498	93.18
838.674	52.22
838.851	-9.22
839.027	17.41
839.203	58.37
839.38	64.51
839.556	11.26
839.732	60.42
839.909	35.84
840.085	-3.07
840.261	60.42
840.437	19.46
840.614	-33.79
840.79	35.84
840.966	76.8
841.142	-44.03
841.318	27.65
841.494	50.18
841.671	52.22
841.847	9.22
842.023	29.7
842.199	93.18
842.375	64.51
842.551	44.03
842.727	21.5
842.903	89.09
843.079	-27.65
843.255	68.61
843.431	37.89
843.607	56.32
843.783	-5.12
843.959	19.46
844.134	-46.08
844.31	93.18
844.486	44.03
844.662	60.42
844.838	52.22
845.013	7.17
845.189	66.56
845.365	3.07
845.541	-21.5
845.716	5.12
845.892	82.94
846.068	70.65
846.244	41.98
846.419	39.94
846.595	35.84
846.77	60.42
846.946	62.46
847.122	52.22
847.297	19.46
847.473	9.22
847.648	21.5
847.824	13.31
847.999	62.46
848.175	-11.26
848.35	7.17
848.526	105.47
848.701	68.61
848.876	39.94
849.052	66.56
849.227	39.94
849.403	29.7
849.578	23.55
849.753	31.74
849.929	31.74
850.104	-25.6
850.279	62.46
850.454	58.37
850.63	39.94
850.805	-21.5
850.98	66.56
851.155	72.7
851.33	21.5
851.505	35.84
851.681	52.22
851.856	15.36
852.031	62.46
852.206	68.61
852.381	41.98
852.556	-13.31
852.731	27.65
852.906	44.03
853.081	35.84
853.256	-29.7
853.431	23.55
853.606	-52.22
853.781	13.31
853.956	-3.07
854.131	1.02
854.305	1.02
854.48	3.07
854.655	-44.03
854.83	9.22
855.005	-23.55
855.18	21.5
855.354	23.55
855.529	68.61
855.704	19.46
855.879	84.99
856.053	-21.5
856.228	35.84
856.403	11.26
856.577	56.32
856.752	-35.84
856.926	78.85
857.101	15.36
857.276	39.94
857.45	11.26
857.625	13.31
857.799	39.94
857.974	-5.12
858.148	-21.5
858.323	160.77
858.497	-21.5
858.672	1.02
858.846	41.98
859.02	58.37
859.195	27.65
859.369	-5.12
859.543	15.36
859.718	3.07
859.892	-29.7
860.066	3.07
860.241	-21.5
860.415	50.18
860.589	23.55
860.763	-7.17
860.938	3.07
861.112	35.84
861.286	-19.46
861.46	60.42
861.634	37.89
861.808	82.94
861.982	23.55
862.157	44.03
862.331	35.84
862.505	68.61
862.679	76.8
862.853	76.8
863.027	29.7
863.201	19.46
863.375	15.36
863.549	3.07
863.722	3.07
863.896	39.94
864.07	11.26
864.244	5.12
864.418	-9.22
864.592	-11.26
864.766	-7.17
864.939	-3.07
865.113	52.22
865.287	66.56
865.461	13.31
865.634	19.46
865.808	60.42
865.982	-25.6
866.156	-21.5
866.329	-54.27
866.503	13.31
866.676	70.65
866.85	56.32
867.024	-54.27
867.197	64.51
867.371	-27.65
867.544	19.46
867.718	-9.22
867.891	-21.5
868.065	11.26
868.238	-3.07
868.412	64.51
868.585	5.12
868.759	21.5
868.932	-27.65
869.105	-7.17
869.279	-50.18
869.452	44.03
869.625	15.36
869.799	35.84
869.972	41.98
870.145	-13.31
870.319	-11.26
870.492	44.03
870.665	-54.27
870.838	1.02
871.011	-39.94
871.185	11.26
871.358	5.12
871.531	-25.6
871.704	-19.46
871.877	-37.89
872.05	-15.36
872.223	56.32
872.396	-56.32
872.569	19.46
872.742	-52.22
872.915	15.36
873.088	-5.12
873.261	39.94
873.434	-17.41
873.607	-41.98
873.78	-3.07
873.953	1.02
874.126	52.22
874.299	68.61
874.471	-21.5
874.644	60.42
874.817	-9.22
874.99	52.22
875.163	-64.51
875.335	105.47
875.508	29.7
875.681	97.28
875.853	-13.31
876.026	-13.31
876.199	31.74
876.371	52.22
876.544	19.46
876.717	-15.36
876.889	-17.41
877.062	11.26
877.234	-11.26
877.407	-3.07
877.579	29.7
877.752	27.65
877.924	60.42
878.097	-66.56
878.269	-19.46
878.442	60.42
878.614	-5.12
878.786	68.61
878.959	-3.07
879.131	-33.79
879.303	-58.37
879.476	15.36
879.648	19.46
879.82	19.46
879.993	-11.26
880.165	-7.17
880.337	-25.6
880.509	3.07
880.681	-70.65
880.854	-3.07
881.026	19.46
881.198	37.89
881.37	25.6
881.542	29.7
881.714	27.65
881.886	-37.89
882.058	23.55
882.23	-44.03
882.402	54.27
882.574	-3.07
882.746	-60.42
882.918	3.07
883.09	-11.26
883.262	-44.03
883.434	5.12
883.606	-13.31
883.778	-1.02
883.95	35.84
884.122	-29.7
884.293	54.27
884.465	-13.31
884.637	29.7
884.809	3.07
884.98	60.42
885.152	68.61
885.324	33.79
885.496	27.65
885.667	-37.89
885.839	7.17
886.011	91.13
886.182	-23.55
886.354	3.07
886.525	39.94
886.697	-11.26
886.869	-37.89
887.04	-23.55
887.212	-39.94
887.383	19.46
887.555	-27.65
887.726	-15.36
887.897	-54.27
888.069	-9.22
888.24	-15.36
888.412	11.26
888.583	-13.31
888.754	-9.22
888.926	-101.37
889.097	-78.85
889.268	-97.28
889.44	15.36
889.611	-5.12
889.782	-52.22
889.953	-17.41
890.125	-15.36
890.296	-23.55
890.467	27.65
890.638	-3.07
890.809	-13.31
890.98	-27.65
891.151	46.08
891.323	70.65
891.494	50.18
891.665	64.51
891.836	64.51
892.007	5.12
892.178	-9.22
892.349	-29.7
892.52	-1.02
892.691	35.84
892.862	74.75
893.032	-33.79
893.203	-35.84
893.374	-9.22
893.545	95.23
893.716	56.32
893.887	-21.5
894.057	-29.7
894.228	-7.17
894.399	54.27
894.57	87.04
894.74	-21.5
894.911	-21.5
895.082	-17.41
895.253	9.22
895.423	-19.46
895.594	-33.79
895.764	-23.55
895.935	-17.41
896.106	-23.55
896.276	-44.03
896.447	7.17
896.617	19.46
896.788	33.79
896.958	13.31
897.129	-39.94
897.299	35.84
897.47	31.74
897.64	-5.12
897.81	-27.65
897.981	-17.41
898.151	-1.02
898.322	-17.41
898.492	-54.27
898.662	27.65
898.832	-80.89
899.003	35.84
899.173	-23.55
899.343	23.55
899.513	-29.7
