Data from USB4F104151__63__14-17-11-957.txt Node

Date: Thu Mar 13 14:17:11 EDT 2025
User: louis
Spectrometer: USB4F10415
Trigger mode: 4
Integration Time (sec): 2.000000E-2
Scans to average: 1
Electric dark correction enabled: true
Nonlinearity correction enabled: false
Boxcar width: 0
XAxis mode: Wavelengths
Number of Pixels in Spectrum: 3648
>>>>>Begin Spectral Data<<<<<
178.204	-135.17
178.424	-135.17
178.644	-135.17
178.864	-106.49
179.084	-32.77
179.304	-2.05
179.524	-6.14
179.744	-32.77
179.964	-26.62
180.184	-6.14
180.404	34.82
180.624	-20.48
180.844	88.06
181.064	-40.96
181.283	-14.34
181.503	24.58
181.723	2.05
181.943	-43.01
182.163	6.14
182.383	-18.43
182.602	8.19
182.822	59.39
183.042	-63.49
183.262	-6.14
183.482	24.58
183.701	-24.58
183.921	26.62
184.141	10.24
184.361	53.25
184.58	14.34
184.8	-10.24
185.02	18.43
185.239	-26.62
185.459	-28.67
185.679	-2.05
185.898	-6.14
186.118	65.53
186.338	22.53
186.557	-10.24
186.777	43.01
186.997	14.34
187.216	47.1
187.436	81.92
187.655	79.87
187.875	47.1
188.095	-75.77
188.314	55.3
188.534	34.82
188.753	14.34
188.973	51.2
189.192	63.49
189.412	-24.58
189.631	-40.96
189.851	8.19
190.07	40.96
190.29	2.05
190.509	-26.62
190.729	-28.67
190.948	10.24
191.168	55.3
191.387	94.21
191.607	-2.05
191.826	38.91
192.045	30.72
192.265	4.1
192.484	49.15
192.704	30.72
192.923	16.38
193.142	45.06
193.362	59.39
193.581	47.1
193.8	10.24
194.02	71.68
194.239	-26.62
194.458	88.06
194.678	43.01
194.897	55.3
195.116	79.87
195.335	73.73
195.555	55.3
195.774	10.24
195.993	47.1
196.212	-18.43
196.432	30.72
196.651	-6.14
196.87	22.53
197.089	79.87
197.308	47.1
197.528	-34.82
197.747	-22.53
197.966	36.86
198.185	8.19
198.404	14.34
198.623	43.01
198.842	-53.25
199.062	34.82
199.281	45.06
199.5	88.06
199.719	22.53
199.938	49.15
200.157	30.72
200.376	6.14
200.595	-26.62
200.814	-75.77
201.033	-26.62
201.252	30.72
201.471	75.77
201.69	51.2
201.909	47.1
202.128	-8.19
202.347	51.2
202.566	14.34
202.785	-88.06
203.004	65.53
203.223	47.1
203.442	47.1
203.661	-79.87
203.879	-26.62
204.098	79.87
204.317	69.63
204.536	67.58
204.755	57.34
204.974	6.14
205.193	81.92
205.411	79.87
205.63	38.91
205.849	26.62
206.068	38.91
206.287	-0
206.505	6.14
206.724	104.45
206.943	8.19
207.162	-24.58
207.381	-12.29
207.599	106.49
207.818	-59.39
208.037	96.25
208.255	8.19
208.474	12.29
208.693	28.67
208.911	-47.1
209.13	22.53
209.349	51.2
209.567	18.43
209.786	16.38
210.005	71.68
210.223	32.77
210.442	-53.25
210.661	8.19
210.879	40.96
211.098	38.91
211.316	34.82
211.535	43.01
211.753	4.1
211.972	49.15
212.191	-22.53
212.409	-6.14
212.628	-26.62
212.846	-8.19
213.065	24.58
213.283	71.68
213.502	47.1
213.72	-26.62
213.938	34.82
214.157	-10.24
214.375	6.14
214.594	-22.53
214.812	30.72
215.031	-73.73
215.249	22.53
215.467	6.14
215.686	8.19
215.904	32.77
216.122	69.63
216.341	63.49
216.559	-14.34
216.778	24.58
216.996	-2.05
217.214	8.19
217.432	-14.34
217.651	16.38
217.869	32.77
218.087	124.93
218.306	28.67
218.524	45.06
218.742	-4.1
218.96	67.58
219.179	8.19
219.397	-0
219.615	94.21
219.833	20.48
220.051	22.53
220.27	55.3
220.488	18.43
220.706	-8.19
220.924	-18.43
221.142	-43.01
221.36	-12.29
221.578	77.82
221.796	49.15
222.015	57.34
222.233	104.45
222.451	34.82
222.669	-24.58
222.887	104.45
223.105	-0
223.323	14.34
223.541	8.19
223.759	14.34
223.977	24.58
224.195	79.87
224.413	10.24
224.631	43.01
224.849	-14.34
225.067	59.39
225.285	-45.06
225.503	-24.58
225.721	-12.29
225.939	57.34
226.157	-55.3
226.375	75.77
226.592	-47.1
226.81	-43.01
227.028	45.06
227.246	153.6
227.464	-73.73
227.682	24.58
227.9	-43.01
228.117	47.1
228.335	16.38
228.553	47.1
228.771	63.49
228.989	57.34
229.206	-14.34
229.424	-6.14
229.642	14.34
229.86	-18.43
230.077	2.05
230.295	-10.24
230.513	30.72
230.731	18.43
230.948	24.58
231.166	14.34
231.384	-6.14
231.601	-0
231.819	38.91
232.037	-59.39
232.254	10.24
232.472	65.53
232.689	2.05
232.907	88.06
233.125	51.2
233.342	98.3
233.56	8.19
233.777	-69.63
233.995	-0
234.213	126.97
234.43	-18.43
234.648	-2.05
234.865	38.91
235.083	47.1
235.3	6.14
235.518	28.67
235.735	6.14
235.953	38.91
236.17	59.39
236.388	14.34
236.605	57.34
236.822	16.38
237.04	40.96
237.257	26.62
237.475	-10.24
237.692	34.82
237.909	79.87
238.127	-22.53
238.344	12.29
238.562	49.15
238.779	22.53
238.996	24.58
239.214	71.68
239.431	24.58
239.648	43.01
239.865	24.58
240.083	73.73
240.3	30.72
240.517	-75.77
240.735	-92.16
240.952	63.49
241.169	73.73
241.386	22.53
241.603	16.38
241.821	-16.38
242.038	100.35
242.255	20.48
242.472	-4.1
242.689	28.67
242.907	10.24
243.124	90.11
243.341	-8.19
243.558	22.53
243.775	2.05
243.992	-51.2
244.209	-10.24
244.426	106.49
244.643	55.3
244.86	69.63
245.078	-14.34
245.295	22.53
245.512	30.72
245.729	-47.1
245.946	47.1
246.163	-40.96
246.38	59.39
246.597	24.58
246.814	34.82
247.031	45.06
247.248	-2.05
247.464	6.14
247.681	10.24
247.898	67.58
248.115	-38.91
248.332	-2.05
248.549	-8.19
248.766	14.34
248.983	6.14
249.2	24.58
249.417	75.77
249.633	47.1
249.85	73.73
250.067	38.91
250.284	55.3
250.501	16.38
250.717	-49.15
250.934	-0
251.151	30.72
251.368	30.72
251.585	-2.05
251.801	69.63
252.018	-0
252.235	6.14
252.451	14.34
252.668	-59.39
252.885	8.19
253.102	65.53
253.318	6.14
253.535	43.01
253.752	-18.43
253.968	-2.05
254.185	6.14
254.401	-24.58
254.618	-6.14
254.835	-22.53
255.051	43.01
255.268	-14.34
255.484	4.1
255.701	51.2
255.917	-10.24
256.134	16.38
256.351	14.34
256.567	90.11
256.784	73.73
257	-26.62
257.217	-6.14
257.433	79.87
257.65	32.77
257.866	32.77
258.082	-73.73
258.299	-2.05
258.515	30.72
258.732	-75.77
258.948	-16.38
259.165	47.1
259.381	43.01
259.597	-10.24
259.814	16.38
260.03	36.86
260.246	38.91
260.463	16.38
260.679	55.3
260.895	55.3
261.112	26.62
261.328	-98.3
261.544	-104.45
261.761	88.06
261.977	12.29
262.193	14.34
262.409	49.15
262.626	2.05
262.842	55.3
263.058	-10.24
263.274	30.72
263.49	10.24
263.707	49.15
263.923	-8.19
264.139	26.62
264.355	-71.68
264.571	47.1
264.787	22.53
265.004	-8.19
265.22	26.62
265.436	16.38
265.652	-34.82
265.868	24.58
266.084	-4.1
266.3	28.67
266.516	36.86
266.732	24.58
266.948	-40.96
267.164	69.63
267.38	14.34
267.596	49.15
267.812	61.44
268.028	4.1
268.244	36.86
268.46	20.48
268.676	30.72
268.892	57.34
269.108	-49.15
269.324	-0
269.54	55.3
269.756	92.16
269.972	-24.58
270.188	-8.19
270.403	22.53
270.619	73.73
270.835	-16.38
271.051	38.91
271.267	-10.24
271.483	-81.92
271.698	61.44
271.914	43.01
272.13	-14.34
272.346	22.53
272.562	24.58
272.777	-6.14
272.993	26.62
273.209	-0
273.425	47.1
273.64	-8.19
273.856	38.91
274.072	-30.72
274.287	18.43
274.503	14.34
274.719	96.25
274.934	47.1
275.15	-26.62
275.366	8.19
275.581	38.91
275.797	30.72
276.012	55.3
276.228	47.1
276.444	-18.43
276.659	77.82
276.875	6.14
277.09	6.14
277.306	61.44
277.521	6.14
277.737	34.82
277.952	34.82
278.168	2.05
278.383	-43.01
278.599	-0
278.814	38.91
279.03	-14.34
279.245	-6.14
279.461	8.19
279.676	-2.05
279.892	38.91
280.107	6.14
280.322	28.67
280.538	32.77
280.753	2.05
280.969	106.49
281.184	16.38
281.399	63.49
281.615	-57.34
281.83	-16.38
282.045	-24.58
282.26	-69.63
282.476	34.82
282.691	-16.38
282.906	-36.86
283.122	6.14
283.337	8.19
283.552	71.68
283.767	53.25
283.983	6.14
284.198	-18.43
284.413	-0
284.628	81.92
284.843	18.43
285.058	8.19
285.274	-8.19
285.489	36.86
285.704	63.49
285.919	40.96
286.134	47.1
286.349	-16.38
286.564	65.53
286.779	40.96
286.995	22.53
287.21	-47.1
287.425	-49.15
287.64	6.14
287.855	6.14
288.07	-26.62
288.285	47.1
288.5	12.29
288.715	73.73
288.93	63.49
289.145	-34.82
289.36	36.86
289.575	30.72
289.79	-34.82
290.004	-24.58
290.219	30.72
290.434	26.62
290.649	-57.34
290.864	-108.54
291.079	-22.53
291.294	45.06
291.509	10.24
291.724	-20.48
291.938	-10.24
292.153	86.01
292.368	47.1
292.583	73.73
292.798	28.67
293.012	-71.68
293.227	2.05
293.442	22.53
293.657	-61.44
293.871	65.53
294.086	51.2
294.301	49.15
294.516	6.14
294.73	28.67
294.945	-51.2
295.16	20.48
295.374	14.34
295.589	55.3
295.804	-10.24
296.018	-16.38
296.233	40.96
296.447	34.82
296.662	-14.34
296.877	71.68
297.091	-34.82
297.306	47.1
297.52	20.48
297.735	-18.43
297.949	26.62
298.164	40.96
298.378	51.2
298.593	59.39
298.807	-8.19
299.022	-34.82
299.236	8.19
299.451	6.14
299.665	22.53
299.88	40.96
300.094	51.2
300.309	6.14
300.523	75.77
300.737	22.53
300.952	32.77
301.166	98.3
301.381	-8.19
301.595	36.86
301.809	-2.05
302.024	-18.43
302.238	73.73
302.452	69.63
302.667	34.82
302.881	67.58
303.095	59.39
303.309	34.82
303.524	-10.24
303.738	-40.96
303.952	45.06
304.166	16.38
304.381	2.05
304.595	-16.38
304.809	-2.05
305.023	77.82
305.237	6.14
305.452	6.14
305.666	22.53
305.88	40.96
306.094	71.68
306.308	57.34
306.522	-92.16
306.736	-10.24
306.95	18.43
307.164	10.24
307.379	73.73
307.593	-10.24
307.807	-14.34
308.021	-12.29
308.235	110.59
308.449	-32.77
308.663	-24.58
308.877	32.77
309.091	55.3
309.305	96.25
309.519	40.96
309.733	-24.58
309.947	14.34
310.161	22.53
310.374	22.53
310.588	55.3
310.802	8.19
311.016	65.53
311.23	14.34
311.444	14.34
311.658	32.77
311.872	73.73
312.085	30.72
312.299	6.14
312.513	94.21
312.727	22.53
312.941	75.77
313.154	88.06
313.368	77.82
313.582	22.53
313.796	92.16
314.009	-116.73
314.223	112.64
314.437	-49.15
314.651	12.29
314.864	18.43
315.078	-67.58
315.292	-22.53
315.505	-71.68
315.719	38.91
315.933	8.19
316.146	53.25
316.36	-14.34
316.573	83.97
316.787	98.3
317.001	32.77
317.214	20.48
317.428	18.43
317.641	-18.43
317.855	57.34
318.068	-6.14
318.282	65.53
318.495	100.35
318.709	59.39
318.922	49.15
319.136	18.43
319.349	-28.67
319.563	22.53
319.776	-75.77
319.99	4.1
320.203	14.34
320.417	40.96
320.63	10.24
320.843	67.58
321.057	32.77
321.27	32.77
321.483	-34.82
321.697	83.97
321.91	-36.86
322.124	-49.15
322.337	8.19
322.55	-0
322.763	10.24
322.977	43.01
323.19	20.48
323.403	90.11
323.617	61.44
323.83	30.72
324.043	57.34
324.256	14.34
324.469	6.14
324.683	45.06
324.896	12.29
325.109	73.73
325.322	-59.39
325.535	77.82
325.748	6.14
325.962	-47.1
326.175	24.58
326.388	-2.05
326.601	104.45
326.814	67.58
327.027	10.24
327.24	63.49
327.453	-59.39
327.666	22.53
327.879	18.43
328.092	71.68
328.305	4.1
328.518	8.19
328.731	-2.05
328.944	34.82
329.157	4.1
329.37	-0
329.583	45.06
329.796	24.58
330.009	30.72
330.222	-18.43
330.435	47.1
330.648	43.01
330.861	71.68
331.073	40.96
331.286	61.44
331.499	6.14
331.712	10.24
331.925	38.91
332.138	32.77
332.35	79.87
332.563	57.34
332.776	24.58
332.989	26.62
333.202	-26.62
333.414	-40.96
333.627	30.72
333.84	32.77
334.053	-20.48
334.265	-32.77
334.478	43.01
334.691	-61.44
334.903	59.39
335.116	-6.14
335.329	57.34
335.541	-32.77
335.754	63.49
335.966	-47.1
336.179	65.53
336.392	-8.19
336.604	38.91
336.817	18.43
337.029	16.38
337.242	30.72
337.454	36.86
337.667	36.86
337.88	38.91
338.092	63.49
338.305	53.25
338.517	-2.05
338.729	96.25
338.942	22.53
339.154	55.3
339.367	6.14
339.579	153.6
339.792	10.24
340.004	63.49
340.217	-8.19
340.429	81.92
340.641	49.15
340.854	55.3
341.066	26.62
341.278	47.1
341.491	94.21
341.703	79.87
341.915	-30.72
342.128	-16.38
342.34	-28.67
342.552	-71.68
342.764	63.49
342.977	24.58
343.189	26.62
343.401	-67.58
343.613	-8.19
343.826	55.3
344.038	88.06
344.25	-8.19
344.462	65.53
344.674	14.34
344.886	24.58
345.099	61.44
345.311	-6.14
345.523	30.72
345.735	10.24
345.947	22.53
346.159	10.24
346.371	18.43
346.583	-14.34
346.795	30.72
347.007	47.1
347.219	73.73
347.431	-6.14
347.643	32.77
347.855	65.53
348.067	102.4
348.279	38.91
348.491	-22.53
348.703	18.43
348.915	40.96
349.127	8.19
349.339	45.06
349.551	-8.19
349.763	47.1
349.975	-16.38
350.187	32.77
350.399	55.3
350.61	22.53
350.822	-2.05
351.034	55.3
351.246	51.2
351.458	-43.01
351.669	30.72
351.881	-26.62
352.093	59.39
352.305	-26.62
352.517	26.62
352.728	40.96
352.94	65.53
353.152	14.34
353.363	-28.67
353.575	69.63
353.787	38.91
353.999	53.25
354.21	59.39
354.422	32.77
354.633	18.43
354.845	47.1
355.057	-10.24
355.268	100.35
355.48	63.49
355.692	-18.43
355.903	73.73
356.115	26.62
356.326	-57.34
356.538	40.96
356.749	20.48
356.961	28.67
357.172	14.34
357.384	24.58
357.595	79.87
357.807	34.82
358.018	-34.82
358.23	88.06
358.441	98.3
358.653	90.11
358.864	51.2
359.075	83.97
359.287	53.25
359.498	-2.05
359.709	49.15
359.921	16.38
360.132	-10.24
360.344	67.58
360.555	2.05
360.766	22.53
360.977	34.82
361.189	59.39
361.4	10.24
361.611	104.45
361.823	32.77
362.034	32.77
362.245	-30.72
362.456	30.72
362.667	75.77
362.879	90.11
363.09	28.67
363.301	14.34
363.512	38.91
363.723	-36.86
363.935	28.67
364.146	59.39
364.357	12.29
364.568	24.58
364.779	-40.96
364.99	10.24
365.201	22.53
365.412	90.11
365.623	40.96
365.834	34.82
366.045	-2.05
366.256	14.34
366.467	63.49
366.678	51.2
366.889	-0
367.1	22.53
367.311	32.77
367.522	-4.1
367.733	-2.05
367.944	22.53
368.155	26.62
368.366	114.69
368.577	120.83
368.788	120.83
368.999	-10.24
369.209	59.39
369.42	126.97
369.631	194.56
369.842	30.72
370.053	32.77
370.264	40.96
370.474	-2.05
370.685	-26.62
370.896	28.67
371.107	16.38
371.317	-14.34
371.528	8.19
371.739	45.06
371.95	114.69
372.16	14.34
372.371	14.34
372.582	40.96
372.792	24.58
373.003	-2.05
373.214	61.44
373.424	71.68
373.635	-0
373.846	126.97
374.056	6.14
374.267	-10.24
374.477	73.73
374.688	-22.53
374.898	-2.05
375.109	32.77
375.319	16.38
375.53	53.25
375.74	55.3
375.951	-18.43
376.161	86.01
376.372	-28.67
376.582	36.86
376.793	81.92
377.003	-16.38
377.214	112.64
377.424	88.06
377.635	63.49
377.845	34.82
378.055	90.11
378.266	-12.29
378.476	57.34
378.686	-28.67
378.897	67.58
379.107	73.73
379.317	73.73
379.528	55.3
379.738	36.86
379.948	38.91
380.158	6.14
380.369	75.77
380.579	16.38
380.789	49.15
380.999	73.73
381.21	71.68
381.42	108.54
381.63	88.06
381.84	81.92
382.05	47.1
382.261	14.34
382.471	47.1
382.681	6.14
382.891	30.72
383.101	79.87
383.311	-51.2
383.521	38.91
383.731	75.77
383.941	67.58
384.151	14.34
384.361	30.72
384.571	83.97
384.781	53.25
384.991	118.78
385.201	57.34
385.411	88.06
385.621	73.73
385.831	90.11
386.041	30.72
386.251	63.49
386.461	83.97
386.671	43.01
386.881	63.49
387.091	-10.24
387.301	32.77
387.511	38.91
387.72	-24.58
387.93	51.2
388.14	83.97
388.35	57.34
388.56	57.34
388.769	65.53
388.979	38.91
389.189	30.72
389.399	57.34
389.609	51.2
389.818	100.35
390.028	57.34
390.238	63.49
390.447	30.72
390.657	24.58
390.867	-2.05
391.076	30.72
391.286	-14.34
391.496	8.19
391.705	-2.05
391.915	116.73
392.125	55.3
392.334	57.34
392.544	-2.05
392.753	114.69
392.963	116.73
393.172	104.45
393.382	55.3
393.591	131.07
393.801	-14.34
394.01	55.3
394.22	77.82
394.429	71.68
394.639	40.96
394.848	133.12
395.058	22.53
395.267	-0
395.477	28.67
395.686	133.12
395.895	165.89
396.105	79.87
396.314	18.43
396.524	100.35
396.733	120.83
396.942	65.53
397.152	88.06
397.361	104.45
397.57	81.92
397.78	104.45
397.989	71.68
398.198	161.79
398.407	92.16
398.617	129.02
398.826	163.84
399.035	28.67
399.244	79.87
399.453	69.63
399.663	98.3
399.872	169.98
400.081	104.45
400.29	30.72
400.499	22.53
400.708	139.26
400.917	137.21
401.127	-26.62
401.336	126.97
401.545	235.52
401.754	102.4
401.963	163.84
402.172	122.88
402.381	47.1
402.59	59.39
402.799	112.64
403.008	129.02
403.217	71.68
403.426	96.25
403.635	55.3
403.844	61.44
404.053	129.02
404.262	129.02
404.471	133.12
404.68	165.89
404.888	161.79
405.097	122.88
405.306	157.69
405.515	172.03
405.724	92.16
405.933	143.36
406.142	172.03
406.35	174.08
406.559	131.07
406.768	180.22
406.977	188.41
407.185	161.79
407.394	174.08
407.603	135.17
407.812	153.6
408.02	167.93
408.229	212.99
408.438	294.91
408.646	235.52
408.855	210.94
409.064	301.05
409.272	292.86
409.481	309.24
409.69	178.17
409.898	223.23
410.107	278.52
410.315	301.05
410.524	296.96
410.733	346.11
410.941	337.91
411.15	368.63
411.358	360.44
411.567	397.31
411.775	423.93
411.984	438.27
412.192	380.92
412.401	374.78
412.609	419.83
412.818	505.85
413.026	452.6
413.234	532.47
413.443	538.62
413.651	483.32
413.86	518.14
414.068	686.07
414.276	653.3
414.485	522.23
414.693	540.66
414.901	692.21
415.11	661.49
415.318	661.49
415.526	700.41
415.734	763.89
415.943	796.66
416.151	901.11
416.359	778.23
416.567	833.52
416.776	915.44
416.984	870.39
417.192	915.44
417.4	999.41
417.608	1005.55
417.817	968.69
418.025	1161.2
418.233	1157.1
418.441	1038.32
418.649	1148.91
418.857	1112.05
419.065	1261.55
419.273	1112.05
419.481	1308.65
419.689	1417.19
419.897	1472.49
420.105	1390.57
420.313	1599.46
420.521	1613.8
420.729	1589.22
420.937	1693.67
421.145	1648.61
421.353	1777.64
421.561	1996.77
421.769	1951.71
421.977	1949.67
422.185	1974.24
422.393	2039.78
422.601	2152.42
422.809	2119.65
423.017	2258.91
423.224	2365.4
423.432	2492.38
423.64	2469.85
423.848	2678.74
424.056	2537.43
424.263	2832.34
424.471	2834.39
424.679	3012.56
424.887	3016.66
425.094	3037.14
425.302	3110.86
425.51	3241.93
425.718	3491.79
425.925	3307.47
426.133	3520.46
426.341	3643.34
426.548	3823.56
426.756	3798.98
426.964	3973.06
427.171	4085.7
427.379	4186.05
427.586	4310.97
427.794	4315.07
428.001	4446.14
428.209	4904.89
428.417	4736.95
428.624	5003.19
428.832	5007.28
429.039	5138.35
429.247	4997.04
429.454	5478.32
429.662	5785.51
429.869	5572.52
430.076	5969.83
430.284	5629.87
430.491	5879.72
430.699	6313.89
430.906	6258.59
431.114	6299.55
431.321	6518.68
431.528	6866.84
431.736	6965.14
431.943	7534.48
432.15	7247.76
432.358	7315.34
432.565	7757.71
432.772	7741.32
432.979	8288.13
433.187	8271.75
433.394	8327.04
433.601	8781.69
433.808	8908.66
434.016	8712.06
434.223	9140.08
434.43	9705.32
434.637	9586.54
434.844	10196.84
435.052	10233.7
435.259	10334.05
435.466	10293.09
435.673	10538.85
435.88	11073.37
436.087	11556.69
436.294	11517.78
436.501	11296.6
436.708	11478.86
436.915	11796.3
437.122	12334.92
437.329	12353.35
437.537	12830.52
437.743	12977.98
437.95	12971.83
438.157	13580.08
438.364	14001.96
438.571	14128.94
438.778	13948.72
438.985	15410.96
439.192	14516
439.399	15382.29
439.606	14726.94
439.813	15826.7
440.02	16828.16
440.227	16398.09
440.433	16072.46
440.64	16664.32
440.847	16819.97
441.054	17178.36
441.261	18138.86
441.467	17958.64
441.674	18136.81
441.881	18859.74
442.088	19197.66
442.294	18851.55
442.501	19261.15
442.708	19257.05
442.914	20438.73
443.121	21286.59
443.328	20625.09
443.534	21970.61
443.741	21331.64
443.948	21216.96
444.154	22884
444.361	22648.49
444.568	22738.6
444.774	22853.28
444.981	23094.94
445.187	23768.73
445.394	24811.14
445.6	24352.4
445.807	26879.59
446.013	25331.33
446.22	26003.06
446.426	26842.73
446.633	27295.33
446.839	28421.71
447.046	27072.1
447.252	28534.35
447.459	28763.72
447.665	28511.82
447.871	29744.7
448.078	31012.39
448.284	29404.74
448.491	30254.64
448.697	31430.18
448.903	31766.04
449.11	32128.53
449.316	31505.95
449.522	32099.86
449.728	33076.74
449.935	33271.3
450.141	33129.99
450.347	33719.81
450.553	32964.1
450.76	33019.4
450.966	34561.52
451.172	34090.49
451.378	35038.7
451.584	34393.59
451.791	34684.4
451.997	35034.6
452.203	35517.92
452.409	35751.39
452.615	35419.62
452.821	33998.33
453.027	33736.19
453.233	36031.96
453.44	33771
453.646	34334.2
453.852	34592.24
454.058	35165.67
454.264	34184.69
454.47	35036.65
454.676	33922.55
454.882	35102.18
455.088	32118.29
455.294	32611.85
455.5	33369.6
455.705	33502.72
455.911	32005.66
456.117	31559.2
456.323	31235.62
456.529	29488.7
456.735	30821.93
456.941	29969.97
457.147	29867.58
457.352	28845.64
457.558	28540.49
457.764	28343.89
457.97	28012.12
458.176	27502.17
458.381	27256.42
458.587	26238.58
458.793	25964.15
458.999	24729.22
459.204	26361.45
459.41	25749.11
459.616	24200.85
459.821	23840.4
460.027	24149.65
460.233	23649.94
460.438	22400.68
460.644	22681.25
460.85	21792.44
461.055	21130.94
461.261	21335.74
461.466	19732.18
461.672	19166.94
461.878	20391.62
462.083	19058.4
462.289	18820.83
462.494	18380.52
462.7	17823.47
462.905	17499.89
463.111	17913.58
463.316	17798.9
463.522	17450.74
463.727	17583.86
463.932	17571.57
464.138	17176.31
464.343	17301.24
464.549	16848.64
464.754	17323.77
464.959	17161.98
465.165	17059.58
465.37	16373.51
465.575	15884.05
465.781	16668.42
465.986	16656.13
466.191	16191.24
466.397	15802.13
466.602	15208.22
466.807	15841.04
467.012	15709.97
467.218	15623.95
467.423	15075.1
467.628	15304.47
467.833	16129.8
468.038	15425.3
468.244	14851.87
468.449	15628.05
468.654	15058.71
468.859	15167.26
469.064	14911.26
469.269	14300.97
469.474	14391.08
469.679	14772
469.885	14106.41
470.09	14473
470.295	14458.66
470.5	14186.28
470.705	14008.11
470.91	13842.22
471.115	13782.83
471.32	14202.66
471.525	13928.24
471.73	13483.83
471.935	13637.42
472.139	13066.04
472.344	13098.81
472.549	13051.7
472.754	12990.27
472.959	12838.72
473.164	12459.84
473.369	12023.62
473.574	12490.56
473.778	12676.93
473.983	12408.64
474.188	12371.78
474.393	11949.9
474.598	11913.03
474.802	11609.93
475.007	11751.24
475.212	11554.64
475.417	10950.49
475.621	11243.35
475.826	11374.42
476.031	10901.34
476.235	10823.51
476.44	11245.4
476.645	10772.32
476.849	10983.26
477.054	10622.81
477.259	10674.01
477.463	10686.3
477.668	10272.61
477.872	10426.21
478.077	10245.99
478.282	10248.04
478.486	9844.59
478.691	9815.91
478.895	9717.61
479.1	9713.52
479.304	9875.31
479.509	9336.69
479.713	9514.86
479.918	9342.83
480.122	9545.58
480.326	9645.93
480.531	9590.64
480.735	9488.24
480.94	9285.49
481.144	9508.72
481.348	9068.41
481.553	9105.27
481.757	9158.52
481.961	9097.08
482.166	9256.82
482.37	9353.07
482.574	9029.49
482.778	9176.95
482.983	9131.89
483.187	9107.32
483.391	9199.48
483.595	9070.45
483.8	9027.45
484.004	9006.97
484.208	9285.49
484.412	9156.47
484.616	9275.25
484.821	8931.19
485.025	8966.01
485.229	9043.83
485.433	9029.49
485.637	9123.7
485.841	9158.52
486.045	9135.99
486.249	9152.37
486.453	9172.85
486.657	9131.89
486.861	9234.29
487.065	8980.34
487.269	9097.08
487.473	8968.06
487.677	9181.04
487.881	9160.56
488.085	9273.2
488.289	9277.3
488.493	8986.49
488.697	9383.79
488.901	9082.74
489.105	9158.52
489.309	9400.18
489.512	9252.72
489.716	9389.94
489.92	9262.96
490.124	9160.56
490.328	9471.86
490.531	9295.73
490.735	9420.66
490.939	9308.02
491.143	9404.27
491.346	9377.65
491.55	9389.94
491.754	9400.18
491.958	9631.6
492.161	9693.04
492.365	9658.22
492.569	9697.13
492.772	9711.47
492.976	9797.48
493.18	9791.34
493.383	9846.63
493.587	9994.09
493.79	10123.11
493.994	9895.78
494.197	10061.67
494.401	10057.57
494.605	10053.48
494.808	10186.6
495.012	10452.83
495.215	10114.92
495.419	10571.61
495.622	10452.83
495.825	10524.51
496.029	10770.27
496.232	10805.08
496.436	10829.66
496.639	11177.81
496.843	10983.26
497.046	11210.58
497.249	11233.11
497.453	11161.43
497.656	11528.02
497.859	11474.77
498.063	11712.33
498.266	11941.71
498.469	11704.14
498.673	11984.71
498.876	12115.78
499.079	12224.33
499.282	12291.91
499.485	12658.49
499.689	12607.3
499.892	12715.84
500.095	12908.35
500.298	12969.79
500.501	13080.38
500.705	13072.18
500.908	13258.55
501.111	13541.17
501.314	13680.43
501.517	14067.5
501.72	14147.37
501.923	13944.62
502.126	14294.82
502.329	14741.28
502.532	14632.74
502.735	14716.7
502.938	15054.62
503.141	15157.02
503.344	15456.02
503.547	15398.68
503.75	15458.07
503.953	15677.2
504.156	15912.72
504.359	16109.32
504.562	16174.86
504.765	16672.51
504.968	16596.74
505.17	16715.52
505.373	16674.56
505.576	17250.04
505.779	17282.81
505.982	17422.07
506.185	17780.46
506.387	18013.93
506.59	17766.13
506.793	18618.08
506.996	18255.59
507.198	18523.88
507.401	18888.42
507.604	19027.68
507.807	19406.55
508.009	19168.99
508.212	19570.39
508.415	19459.8
508.617	20145.87
508.82	20166.35
509.022	20135.63
509.225	20541.13
509.428	20528.84
509.63	20907.71
509.833	21200.57
510.035	21581.49
510.238	21339.83
510.44	21657.27
510.643	21984.94
510.845	21972.66
511.048	21765.81
511.25	22451.88
511.453	22554.28
511.655	23088.8
511.858	22990.5
512.06	23537.3
512.262	23467.67
512.465	23453.34
512.667	24145.55
512.87	24112.78
513.072	24262.29
513.274	24829.57
513.477	24901.25
513.679	25114.24
513.881	25255.55
514.084	25740.92
514.286	25280.13
514.488	25816.69
514.69	26646.12
514.893	26433.13
515.095	26623.59
515.297	27010.66
515.499	26918.5
515.701	27338.33
515.904	27780.7
516.106	27950.68
516.308	27960.92
516.51	28134.99
516.712	28395.09
516.914	28515.92
517.116	29349.44
517.318	29490.75
517.52	29261.38
517.722	29494.85
517.925	30123.57
518.127	30170.68
518.329	30367.28
518.531	30244.4
518.733	31139.36
518.935	31346.21
519.136	31514.14
519.338	31544.86
519.54	31925.78
519.742	31974.94
519.944	32245.27
520.146	32632.33
520.348	33093.13
520.55	32984.58
520.752	33115.65
520.954	33549.82
521.155	33365.51
521.357	34377.2
521.559	34266.61
521.761	34766.32
521.963	34452.98
522.164	35089.9
522.366	34674.16
522.568	35515.87
522.77	35517.92
522.971	36152.79
523.173	35687.9
523.375	36281.81
523.576	36476.37
523.778	36396.5
523.98	37014.99
524.181	37088.71
524.383	36996.56
524.584	37567.94
524.786	37649.86
524.988	37230.02
525.189	37645.76
525.391	38057.4
525.592	38286.78
525.794	38303.16
525.995	38501.81
526.197	38297.02
526.398	38774.19
526.6	38989.23
526.801	39175.59
527.003	39226.79
527.204	39298.47
527.406	39630.24
527.607	39564.71
527.808	40228.25
528.01	39323.05
528.211	39644.58
528.412	40584.6
528.614	40449.43
528.815	40320.41
529.016	40717.71
529.218	40318.36
529.419	40768.91
529.62	40727.95
529.822	40527.25
530.023	40740.24
530.224	40852.88
530.425	40836.5
530.626	40596.88
530.828	40414.62
531.029	41618.82
531.23	41010.57
531.431	41350.54
531.632	41215.37
531.833	41338.25
532.035	41549.19
532.236	41725.32
532.437	42048.89
532.638	41436.55
532.839	41756.03
533.04	41870.72
533.241	41217.42
533.442	42124.67
533.643	41721.22
533.844	41422.22
534.045	41870.72
534.246	41557.38
534.447	41782.66
534.648	41993.6
534.849	42096
535.05	41573.77
535.251	42106.24
535.451	41733.51
535.652	42063.23
535.853	41799.04
536.054	42173.82
536.255	42179.96
536.456	41684.36
536.657	42257.79
536.857	42034.56
537.058	41422.22
537.259	42292.6
537.46	41954.69
537.66	41893.25
537.861	41938.3
538.062	41502.09
538.263	42112.38
538.463	41713.03
538.664	42038.65
538.865	41981.31
539.065	42020.22
539.266	41569.67
539.466	42200.44
539.667	42026.37
539.868	42132.86
540.068	41917.82
540.269	41815.43
540.469	41950.59
540.67	42065.28
540.87	41735.56
541.071	41856.39
541.271	41708.93
541.472	41794.95
541.672	41670.02
541.873	41553.29
542.073	41151.88
542.274	42175.87
542.474	41688.45
542.675	41495.94
542.875	42079.61
543.075	41586.05
543.276	41121.16
543.476	41983.36
543.676	41590.15
543.877	41569.67
544.077	41670.02
544.277	42087.81
544.478	41522.57
544.678	41899.39
544.878	41676.16
545.078	41358.73
545.279	41354.63
545.479	41266.57
545.679	41768.32
545.879	41686.4
546.079	41076.11
546.28	41510.28
546.48	41442.7
546.68	41627.01
546.88	41375.11
547.08	41184.65
547.28	41573.77
547.48	41143.69
547.68	41536.9
547.88	41198.99
548.081	41696.64
548.281	41584.01
548.481	41328.01
548.681	41665.92
548.881	41917.82
549.081	41661.83
549.28	41274.76
549.48	41801.09
549.68	41674.12
549.88	41825.67
550.08	41385.35
550.28	41680.26
550.48	41172.36
550.68	41426.31
550.88	41323.91
551.08	41604.49
551.279	41368.97
551.479	40904.08
551.679	41315.72
551.879	41016.72
552.079	41543.05
552.278	41065.87
552.478	41229.71
552.678	41377.16
552.878	41272.71
553.077	41305.48
553.277	41264.52
553.477	41534.85
553.676	40957.33
553.876	40865.17
554.076	41024.91
554.275	40877.46
554.475	40117.66
554.674	41055.63
554.874	40656.28
555.074	40750.48
555.273	40910.22
555.473	40854.93
555.672	40418.71
555.872	40598.93
556.071	41045.39
556.271	41061.77
556.47	40562.07
556.67	40412.57
556.869	40476.05
557.068	40443.29
557.268	40437.14
557.467	40267.16
557.667	40347.03
557.866	40396.18
558.065	40463.77
558.265	40019.36
558.464	40226.2
558.663	40455.57
558.863	40056.22
559.062	40605.08
559.261	39689.63
559.461	40664.47
559.66	39679.39
559.859	40093.08
560.058	39857.57
560.258	39677.35
560.457	39493.03
560.656	39937.44
560.855	39622.05
561.054	39832.99
561.253	39476.65
561.453	39282.09
561.652	39447.97
561.851	39433.64
562.05	39589.28
562.249	38671.79
562.448	39783.84
562.647	39439.78
562.846	39318.95
563.045	38913.45
563.244	38768.05
563.443	39128.49
563.642	39001.52
563.841	39222.7
564.04	38675.89
564.239	38886.83
564.438	38464.95
564.637	38485.43
564.836	38301.11
565.035	38383.03
565.234	38884.78
565.432	38241.72
565.631	37914.05
565.83	38221.24
566.029	38143.42
566.228	38038.97
566.427	38165.95
566.625	37813.69
566.824	37490.12
567.023	37934.53
567.222	37348.81
567.42	37946.81
567.619	38079.93
567.818	37340.61
568.016	37258.7
568.215	37629.38
568.414	37279.18
568.612	37678.53
568.811	37594.56
569.01	37168.58
569.208	36978.12
569.407	37031.37
569.605	36834.77
569.804	37144.01
570.002	36687.31
570.201	36840.91
570.4	36574.67
570.598	36410.84
570.797	36230.62
570.995	36419.03
571.193	35900.89
571.392	36253.14
571.59	35794.4
571.789	36042.2
571.987	36126.17
572.186	35825.12
572.384	35503.59
572.582	36007.39
572.781	35700.19
572.979	35239.4
573.177	35603.94
573.376	35515.87
573.574	35266.02
573.772	35456.48
573.971	35077.61
574.169	34975.21
574.367	35137
574.565	35048.94
574.763	34950.63
574.962	34631.15
575.16	34254.33
575.358	34668.01
575.556	34397.68
575.754	34768.37
575.952	34352.63
576.151	34366.96
576.349	33924.6
576.547	34248.18
576.745	34246.13
576.943	34104.82
577.141	34295.28
577.339	33795.58
577.537	33431.04
577.735	33678.85
577.933	33443.33
578.131	33629.69
578.329	33828.35
578.527	33267.2
578.725	32974.34
578.923	33240.58
579.121	32978.44
579.319	32951.82
579.516	33031.69
579.714	33179.14
579.912	32783.88
580.11	32730.64
580.308	32634.38
580.506	32550.42
580.704	32060.95
580.901	32497.17
581.099	32392.72
581.297	32257.56
581.495	32034.33
581.692	32380.43
581.89	31823.39
582.088	31856.15
582.285	31604.25
582.483	31704.6
582.681	31647.26
582.878	31761.95
583.076	31569.44
583.274	31794.71
583.471	31514.14
583.669	31663.64
583.866	30799.4
584.064	31460.9
584.262	30930.47
584.459	31135.27
584.657	30918.18
584.854	30858.79
585.052	30369.33
585.249	30752.3
585.447	30629.42
585.644	30357.04
585.841	30434.86
586.039	30393.9
586.236	30287.41
586.434	29838.9
586.631	29914.68
586.828	30217.78
587.026	30053.94
587.223	29775.42
587.42	29787.71
587.618	29875.77
587.815	29601.34
588.012	29353.54
588.21	29347.39
588.407	29806.14
588.604	29120.07
588.801	29138.5
588.999	29230.66
589.196	28894.79
589.393	29253.19
589.59	28743.24
589.787	28929.61
589.984	28931.65
590.182	28210.77
590.379	28868.17
590.576	28575.31
590.773	28624.46
590.97	28108.37
591.167	28532.3
591.364	28063.32
591.561	28524.11
591.758	28126.8
591.955	27956.82
592.152	28233.3
592.349	28130.9
592.546	27940.44
592.743	28087.89
592.94	27336.29
593.137	27612.76
593.334	27768.41
593.531	27201.12
593.727	27487.84
593.924	27264.61
594.121	26807.91
594.318	27217.5
594.515	27092.58
594.712	27446.88
594.908	26840.68
595.105	26945.12
595.302	26517.1
595.499	27084.39
595.696	26703.46
595.892	26488.43
596.089	26672.74
596.286	26465.9
596.482	26619.5
596.679	26470
596.876	26175.09
597.072	26199.66
597.269	26183.28
597.466	25853.56
597.662	25828.98
597.859	25755.25
598.055	25736.82
598.252	25341.57
598.448	25775.73
598.645	25415.29
598.841	25278.08
599.038	25392.76
599.234	25157.25
599.431	25038.47
599.627	25054.85
599.824	25382.52
600.02	24610.44
600.217	25003.65
600.413	24886.92
600.609	24751.75
600.806	24624.78
601.002	24774.28
601.198	24538.76
601.395	24362.64
601.591	24467.08
601.787	24495.75
601.984	24366.73
602.18	24395.4
602.376	24473.23
602.572	24243.85
602.769	23969.43
602.965	23895.7
603.161	23963.28
603.357	23764.63
603.553	23695
603.75	23615.13
603.946	23416.47
604.142	23791.25
604.338	23203.49
604.534	23453.34
604.73	23275.16
604.926	23074.46
605.122	23281.31
605.318	23066.27
605.514	23101.09
605.71	22970.02
605.906	22896.29
606.102	22658.73
606.298	22892.19
606.494	22754.98
606.69	22836.9
606.886	22884
607.082	22650.53
607.278	22718.12
607.474	22269.61
607.67	22591.14
607.866	22085.29
608.062	22546.09
608.257	22472.36
608.453	22242.99
608.649	22236.84
608.845	22140.59
609.041	21755.57
609.236	22079.15
609.432	22027.95
609.628	22019.76
609.824	21886.64
610.019	21960.37
610.215	21661.37
610.411	21982.9
610.606	21649.08
610.802	21757.62
610.998	21403.32
611.193	21839.54
611.389	21409.47
611.584	21311.16
611.78	21429.94
611.976	21460.66
612.171	21378.75
612.367	21200.57
612.562	21298.88
612.758	20809.41
612.953	21196.48
613.149	21348.03
613.344	20870.85
613.539	21184.19
613.735	21325.5
613.93	21139.13
614.126	20772.55
614.321	20997.82
614.517	20993.73
614.712	20762.31
614.907	20819.65
615.103	20817.6
615.298	20786.88
615.493	21016.26
615.688	20475.59
615.884	20920
616.079	20403.91
616.274	20457.16
616.47	20188.88
616.665	20399.82
616.86	20432.58
617.055	20272.84
617.25	20260.55
617.445	20524.74
617.641	19879.63
617.836	20289.23
618.031	19820.24
618.226	20250.31
618.421	19986.13
618.616	19869.39
618.811	19494.61
619.006	20035.28
619.201	19361.5
619.396	19554.01
619.591	19445.46
619.786	19418.84
619.981	19347.16
620.176	19525.33
620.371	19162.84
620.566	19175.13
620.761	19093.21
620.956	19449.56
621.151	18878.18
621.346	19003.1
621.541	18341.61
621.735	18839.26
621.93	18153.19
622.125	18448.1
622.32	18173.67
622.515	18257.64
622.709	18198.25
622.904	18130.67
623.099	17915.63
623.294	17596.15
623.488	17702.64
623.683	17751.79
623.878	17454.84
624.072	17596.15
624.267	17661.68
624.462	17247.99
624.656	17471.22
624.851	17075.96
625.046	17354.49
625.24	17086.2
625.435	16889.6
625.629	16887.55
625.824	16680.71
626.018	16779.01
626.213	16363.27
626.407	16525.06
626.602	16324.36
626.796	16568.07
626.991	16226.06
627.185	16207.62
627.38	16045.84
627.574	15929.1
627.768	15683.34
627.963	15865.61
628.157	15566.61
628.352	15634.19
628.546	15472.4
628.74	15574.8
628.935	15339.29
629.129	15595.28
629.323	15142.68
629.517	15015.71
629.712	15093.53
629.906	14786.33
630.1	14636.83
630.294	14718.75
630.489	14677.79
630.683	14960.41
630.877	14331.69
631.071	14249.77
631.265	14653.22
631.459	14448.42
631.653	14124.84
631.848	14427.94
632.042	13961
632.236	14059.31
632.43	13915.95
632.624	13961
632.818	13983.53
633.012	13578.03
633.206	13584.18
633.4	13772.59
633.594	13551.41
633.788	13616.94
633.982	13385.52
634.176	13547.31
634.369	13207.35
634.563	13295.41
634.757	13002.55
634.951	13190.97
635.145	13104.95
635.339	13352.76
635.533	12760.89
635.726	13049.66
635.92	12603.2
636.114	12791.61
636.308	12687.17
636.501	12494.66
636.695	12638.02
636.889	12275.52
637.083	12212.04
637.276	12470.08
637.47	12189.51
637.664	12230.47
637.857	12103.5
638.051	12064.58
638.244	11859.79
638.438	11941.71
638.632	11812.68
638.825	11743.05
639.019	11685.71
639.212	11747.15
639.406	11671.37
639.599	11597.65
639.793	11532.11
639.986	11155.29
640.18	11536.21
640.373	11413.33
640.567	11003.74
640.76	11229.01
640.954	11089.75
641.147	11155.29
641.34	10893.15
641.534	10940.25
641.727	10776.41
641.92	10934.11
642.114	10778.46
642.307	10891.1
642.5	10606.43
642.694	10471.26
642.887	10547.04
643.08	10651.49
643.273	10409.83
643.467	10391.39
643.66	10159.97
643.853	10223.46
644.046	10145.64
644.239	10033
644.432	10110.82
644.626	9914.22
644.819	9893.74
645.012	9842.54
645.205	9897.83
645.398	10047.33
645.591	9652.08
645.784	9871.21
645.977	9430.9
646.17	9654.12
646.363	9553.77
646.556	9391.98
646.749	9607.02
646.942	9525.1
647.135	9414.51
647.328	9383.79
647.521	9238.39
647.714	9234.29
647.907	9236.34
648.099	9197.43
648.292	9152.37
648.485	9234.29
648.678	8783.74
648.871	8947.58
649.064	8699.77
649.256	8857.46
649.449	8894.33
649.642	8820.6
649.835	8591.23
650.027	8703.87
650.22	8527.74
650.413	8580.99
650.605	8570.75
650.798	8505.21
650.991	8460.16
651.183	8572.8
651.376	8275.84
651.568	8273.79
651.761	8218.5
651.954	8394.62
652.146	8255.36
652.339	8069
652.531	8038.28
652.724	8048.52
652.916	7935.88
653.109	7829.38
653.301	7909.26
653.494	7985.03
653.686	7823.24
653.879	7937.93
654.071	7853.96
654.263	7776.14
654.456	7554.96
654.648	7677.83
654.84	7534.48
655.033	7653.26
655.225	7595.92
655.417	7550.86
655.61	7272.34
655.802	7520.14
655.994	7411.6
656.186	7348.11
656.379	7346.06
656.571	7374.74
656.763	7194.51
656.955	7110.55
657.148	7251.86
657.34	7214.99
657.532	6952.85
657.724	7063.44
657.916	7135.12
658.108	6772.63
658.3	6862.74
658.492	6952.85
658.684	6854.55
658.876	6938.52
659.068	6832.02
659.26	6594.46
659.452	6832.02
659.644	6731.67
659.836	6657.95
660.028	6813.59
660.22	6455.2
660.412	6518.68
660.604	6500.25
660.796	6471.58
660.988	6463.39
661.18	6223.78
661.372	6377.37
661.563	6543.26
661.755	6451.1
661.947	6246.3
662.139	6209.44
662.331	6305.7
662.522	6109.09
662.714	6100.9
662.906	6041.51
663.097	6064.04
663.289	5992.36
663.481	6018.98
663.673	5996.45
663.864	5926.82
664.056	5906.34
664.247	5926.82
664.439	5894.05
664.631	5898.15
664.822	5906.34
665.014	5838.76
665.205	5830.57
665.397	5791.66
665.588	5797.8
665.78	5777.32
665.971	5732.26
666.163	5883.81
666.354	5552.04
666.546	5457.84
666.737	5527.47
666.929	5521.32
667.12	5535.66
667.311	5527.47
667.503	5431.21
667.694	5314.48
667.885	5400.49
668.077	5347.25
668.268	5257.14
668.459	5351.34
668.651	5285.81
668.842	5375.92
669.033	5261.23
669.224	5185.46
669.416	5287.86
669.607	5207.98
669.798	5087.15
669.989	5162.93
670.18	5140.4
670.371	5070.77
670.563	4880.31
670.754	4947.89
670.945	5068.72
671.136	4986.8
671.327	4941.75
671.518	4972.47
671.709	5011.38
671.9	4915.12
672.091	5038
672.282	4954.04
672.473	4859.83
672.664	4999.09
672.855	4773.82
673.046	4835.25
673.237	4786.1
673.428	4749.24
673.619	4749.24
673.809	4800.44
674	4622.27
674.191	4663.22
674.382	4677.56
674.573	4659.13
674.764	4716.47
674.954	4683.7
675.145	4562.87
675.336	4593.59
675.527	4585.4
675.717	4577.21
675.908	4700.09
676.099	4440
676.289	4523.96
676.48	4456.38
676.671	4575.16
676.861	4487.1
677.052	4489.15
677.243	4372.41
677.433	4450.24
677.624	4493.24
677.814	4358.08
678.005	4415.42
678.195	4442.04
678.386	4345.79
678.576	4382.65
678.767	4386.75
678.957	4257.73
679.148	4200.38
679.338	4302.78
679.529	4380.61
679.719	4259.77
679.909	4380.61
680.1	4241.34
680.29	4245.44
680.481	4194.24
680.671	4411.32
680.861	4274.11
681.052	4231.1
681.242	4245.44
681.432	4073.41
681.622	4106.18
681.813	4085.7
682.003	4212.67
682.193	4118.47
682.383	4087.75
682.573	4134.85
682.764	4089.79
682.954	4161.47
683.144	4085.7
683.334	4061.12
683.524	4077.51
683.714	4108.23
683.904	3975.11
684.094	4151.23
684.284	4134.85
684.474	4018.11
684.664	4014.02
684.854	3919.81
685.044	3989.44
685.234	4011.97
685.424	3897.28
685.614	3880.9
685.804	4036.55
685.994	3852.23
686.184	3925.96
686.374	3921.86
686.564	3792.84
686.753	3885
686.943	3758.02
687.133	3819.46
687.323	3753.93
687.513	3786.69
687.702	3844.04
687.892	3753.93
688.082	3794.89
688.272	3737.54
688.461	3745.73
688.651	3768.26
688.841	3686.34
689.03	3717.06
689.22	3719.11
689.41	3571.66
689.599	3780.55
689.789	3602.38
689.979	3536.84
690.168	3676.1
690.358	3565.51
690.547	3559.37
690.737	3684.3
690.926	3399.63
691.116	3438.54
691.305	3577.8
691.495	3536.84
691.684	3465.16
691.874	3309.52
692.063	3393.48
692.252	3454.92
692.442	3401.68
692.631	3428.3
692.82	3479.5
693.01	3291.09
693.199	3342.28
693.388	3360.72
693.578	3250.13
693.767	3274.7
693.956	3323.85
694.146	3373
694.335	3219.41
694.524	3262.41
694.713	3340.24
694.902	3221.45
695.092	3317.71
695.281	3272.65
695.47	3147.73
695.659	3352.52
695.848	3170.26
696.037	3186.64
696.226	3168.21
696.415	3139.54
696.604	3313.61
696.793	3149.78
696.982	3145.68
697.171	3121.1
697.36	3233.74
697.549	3164.11
697.738	3170.26
697.927	3227.6
698.116	3069.91
698.305	3125.2
698.494	3123.15
698.683	3153.87
698.872	3033.04
699.061	3145.68
699.25	3096.53
699.438	3160.02
699.627	2930.64
699.816	3088.34
700.005	3094.48
700.193	3045.33
700.382	2959.31
700.571	2961.36
700.76	2981.84
700.948	3104.72
701.137	3114.96
701.326	3067.86
701.514	2942.93
701.703	2983.89
701.892	2934.74
702.08	2928.6
702.269	2979.79
702.457	3178.45
702.646	2815.96
702.834	3004.37
703.023	2893.78
703.212	2930.64
703.4	2887.64
703.589	2875.35
703.777	2987.99
703.965	2775
704.154	2799.57
704.342	3033.04
704.531	2938.84
704.719	2836.44
704.907	2914.26
705.096	2990.03
705.284	2897.88
705.472	2832.34
705.661	2834.39
705.849	2865.11
706.037	2828.24
706.226	2897.88
706.414	2889.68
706.602	2889.68
706.79	2885.59
706.979	2822.1
707.167	2881.49
707.355	2793.43
707.543	2775
707.731	2879.44
707.919	2865.11
708.107	2725.85
708.296	2744.28
708.484	2869.2
708.672	2828.24
708.86	2942.93
709.048	2762.71
709.236	2842.58
709.424	2607.06
709.612	2815.96
709.8	2787.29
709.988	2713.56
710.176	2693.08
710.364	2799.57
710.551	2815.96
710.739	2752.47
710.927	2795.48
711.115	2840.53
711.303	2621.4
711.491	2791.38
711.679	2670.55
711.866	2611.16
712.054	2693.08
712.242	2564.06
712.43	2701.27
712.617	2717.65
712.805	2617.3
712.993	2627.54
713.181	2543.58
713.368	2660.31
713.556	2680.79
713.744	2668.5
713.931	2668.5
714.119	2588.63
714.306	2641.88
714.494	2514.91
714.682	2676.7
714.869	2562.01
715.057	2629.59
715.244	2574.3
715.432	2586.58
715.619	2594.78
715.807	2463.71
715.994	2711.51
716.182	2488.28
716.369	2635.74
716.556	2693.08
716.744	2613.21
716.931	2594.78
717.119	2508.76
717.306	2580.44
717.493	2582.49
717.681	2596.82
717.868	2498.52
718.055	2529.24
718.242	2588.63
718.43	2459.61
718.617	2553.82
718.804	2512.86
718.991	2496.47
719.179	2469.85
719.366	2525.15
719.553	2562.01
719.74	2459.61
719.927	2482.14
720.114	2406.36
720.301	2455.51
720.488	2529.24
720.676	2416.6
720.863	2445.27
721.05	2383.84
721.237	2484.19
721.424	2482.14
721.611	2629.59
721.798	2334.68
721.985	2379.74
722.172	2475.99
722.358	2369.5
722.545	2420.7
722.732	2441.18
722.919	2410.46
723.106	2324.44
723.293	2205.66
723.48	2349.02
723.667	2392.03
723.853	2359.26
724.04	2402.27
724.227	2430.94
724.414	2375.64
724.6	2480.09
724.787	2463.71
724.974	2502.62
725.161	2385.88
725.347	2351.07
725.534	2349.02
725.72	2410.46
725.907	2293.72
726.094	2414.56
726.28	2275.29
726.467	2406.36
726.653	2279.39
726.84	2359.26
727.027	2469.85
727.213	2422.75
727.4	2340.83
727.586	2246.62
727.773	2303.96
727.959	2435.03
728.145	2250.72
728.332	2297.82
728.518	2232.29
728.705	2269.15
728.891	2166.75
729.077	2260.96
729.264	2353.12
729.45	2209.76
729.636	2326.49
729.823	2297.82
730.009	2424.79
730.195	2254.81
730.382	2377.69
730.568	2213.85
730.754	2285.53
730.94	2299.87
731.126	2195.42
731.313	2291.68
731.499	2217.95
731.685	2244.57
731.871	2154.46
732.057	2252.77
732.243	2267.1
732.429	2246.62
732.615	2201.57
732.801	2148.32
732.987	2271.2
733.173	2211.81
733.359	2230.24
733.545	2205.66
733.731	2285.53
733.917	2267.1
734.103	2144.22
734.289	2189.28
734.475	2148.32
734.661	2152.42
734.847	2250.72
735.033	2246.62
735.219	2209.76
735.404	2193.37
735.59	2205.66
735.776	2185.18
735.962	2355.16
736.148	2197.47
736.333	2086.88
736.519	2166.75
736.705	2138.08
736.89	2117.6
737.076	2035.68
737.262	2103.26
737.447	2158.56
737.633	2017.25
737.819	2215.9
738.004	2109.41
738.19	2054.11
738.375	2084.83
738.561	2074.59
738.747	2037.73
738.932	2082.78
739.118	2070.5
739.303	2119.65
739.489	2088.93
739.674	1982.43
739.859	2013.15
740.045	2086.88
740.23	2070.5
740.416	2004.96
740.601	2007.01
740.786	2039.78
740.972	2013.15
741.157	1943.52
741.342	1968.1
741.528	1947.62
741.713	2017.25
741.898	1955.81
742.084	1828.84
742.269	2033.63
742.454	2045.92
742.639	1974.24
742.824	1927.14
743.01	1875.94
743.195	1990.63
743.38	1970.15
743.565	1892.32
743.75	1908.71
743.935	1861.6
744.12	1884.13
744.305	1826.79
744.49	1810.4
744.675	1896.42
744.86	1744.87
745.045	1830.88
745.23	1851.36
745.415	1859.56
745.6	1861.6
745.785	1781.73
745.97	1857.51
746.155	1726.44
746.34	1783.78
746.525	1753.06
746.71	1787.88
746.895	1654.76
747.079	1767.4
747.264	1781.73
747.449	1828.84
747.634	1599.46
747.819	1626.09
748.003	1705.96
748.188	1722.34
748.373	1755.11
748.557	1714.15
748.742	1667.05
748.927	1615.85
749.111	1540.07
749.296	1628.14
749.481	1595.37
749.665	1648.61
749.85	1583.08
750.034	1499.11
750.219	1517.54
750.404	1486.83
750.588	1587.18
750.773	1411.05
750.957	1538.02
751.141	1515.5
751.326	1474.54
751.51	1464.3
751.695	1468.39
751.879	1482.73
752.064	1415.15
752.248	1417.19
752.432	1460.2
752.617	1429.48
752.801	1394.67
752.985	1433.58
753.17	1415.15
753.354	1380.33
753.538	1449.96
753.722	1325.04
753.907	1341.42
754.091	1228.78
754.275	1337.32
754.459	1333.23
754.643	1253.36
754.828	1220.59
755.012	1337.32
755.196	1185.77
755.38	1327.08
755.564	1228.78
755.748	1279.98
755.932	1292.27
756.116	1179.63
756.3	1202.16
756.484	1296.36
756.668	1290.22
756.852	1114.09
757.036	1259.5
757.22	1107.95
757.404	1157.1
757.588	1128.43
757.772	1210.35
757.956	1222.64
758.14	1124.33
758.323	1200.11
758.507	1155.05
758.691	1128.43
758.875	1118.19
759.059	1087.47
759.242	1124.33
759.426	1079.28
759.61	1089.52
759.794	1169.39
759.977	1134.57
760.161	1079.28
760.345	1157.1
760.528	1128.43
760.712	1073.14
760.895	983.02
761.079	989.17
761.263	1028.08
761.446	1011.7
761.63	1056.75
761.813	989.17
761.997	970.74
762.18	876.53
762.364	1052.66
762.547	960.5
762.731	972.79
762.914	968.69
763.098	870.39
763.281	989.17
763.464	892.91
763.648	917.49
763.831	858.1
764.015	905.2
764.198	972.79
764.381	970.74
764.564	894.96
764.748	880.63
764.931	882.67
765.114	862.19
765.297	933.87
765.481	897.01
765.664	894.96
765.847	872.43
766.03	892.91
766.213	888.82
766.397	940.02
766.58	772.08
766.763	907.25
766.946	800.76
767.129	839.67
767.312	772.08
767.495	888.82
767.678	897.01
767.861	829.43
768.044	854
768.227	862.19
768.41	817.14
768.593	804.85
768.776	749.56
768.959	811
769.142	874.48
769.324	827.38
769.507	784.37
769.69	786.42
769.873	729.08
770.056	788.47
770.239	784.37
770.421	788.47
770.604	759.8
770.787	786.42
770.97	878.58
771.152	704.5
771.335	739.32
771.518	749.56
771.7	702.45
771.883	813.04
772.066	733.17
772.248	718.84
772.431	692.21
772.613	790.52
772.796	688.12
772.978	708.6
773.161	772.08
773.343	704.5
773.526	729.08
773.708	782.32
773.891	620.53
774.073	624.63
774.256	634.87
774.438	743.41
774.621	653.3
774.803	686.07
774.985	651.25
775.168	696.31
775.35	524.28
775.532	702.45
775.715	604.15
775.897	679.93
776.079	600.05
776.261	679.93
776.444	632.82
776.626	632.82
776.808	620.53
776.99	557.05
777.173	649.21
777.355	598.01
777.537	581.62
777.719	608.25
777.901	516.09
778.083	550.9
778.265	587.77
778.447	630.77
778.629	507.9
778.811	532.47
778.993	563.19
779.175	579.58
779.357	651.25
779.539	571.38
779.721	595.96
779.903	524.28
780.085	583.67
780.267	460.79
780.449	544.76
780.631	563.19
780.812	487.42
780.994	505.85
781.176	509.94
781.358	434.17
781.54	493.56
781.721	581.62
781.903	507.9
782.085	516.09
782.267	546.81
782.448	458.74
782.63	475.13
782.812	423.93
782.993	534.52
783.175	546.81
783.357	440.31
783.538	475.13
783.72	423.93
783.901	421.88
784.083	417.79
784.264	460.79
784.446	362.49
784.627	385.02
784.809	380.92
784.99	346.11
785.172	366.59
785.353	417.79
785.535	434.17
785.716	483.32
785.897	448.51
786.079	337.91
786.26	403.45
786.441	409.59
786.623	327.67
786.804	327.67
786.985	411.64
787.167	358.39
787.348	368.63
787.529	370.68
787.71	376.83
787.891	417.79
788.073	360.44
788.254	321.53
788.435	366.59
788.616	368.63
788.797	337.91
788.978	374.78
789.159	317.44
789.34	358.39
789.522	253.95
789.703	307.2
789.884	342.01
790.065	372.73
790.246	415.74
790.427	284.67
790.607	387.07
790.788	317.44
790.969	219.13
791.15	276.48
791.331	311.29
791.512	290.81
791.693	264.19
791.874	253.95
792.054	350.2
792.235	382.97
792.416	276.48
792.597	417.79
792.778	243.71
792.958	344.06
793.139	360.44
793.32	290.81
793.5	186.37
793.681	313.34
793.862	237.56
794.042	239.61
794.223	270.33
794.404	270.33
794.584	202.75
794.765	288.76
794.945	274.43
795.126	368.63
795.306	284.67
795.487	284.67
795.667	186.37
795.848	264.19
796.028	243.71
796.209	276.48
796.389	241.66
796.57	317.44
796.75	192.51
796.93	190.46
797.111	202.75
797.291	202.75
797.471	178.17
797.652	264.19
797.832	147.45
798.012	256
798.192	270.33
798.373	182.27
798.553	133.12
798.733	262.14
798.913	219.13
799.093	169.98
799.274	200.7
799.454	309.24
799.634	180.22
799.814	186.37
799.994	233.47
800.174	282.62
800.354	188.41
800.534	264.19
800.714	151.55
800.894	174.08
801.074	172.03
801.254	190.46
801.434	317.44
801.614	172.03
801.794	131.07
801.974	792.56
802.154	131.07
802.334	178.17
802.514	178.17
802.693	237.56
802.873	178.17
803.053	202.75
803.233	161.79
803.413	178.17
803.592	178.17
803.772	227.32
803.952	178.17
804.131	106.49
804.311	196.6
804.491	145.41
804.67	110.59
804.85	219.13
805.03	167.93
805.209	200.7
805.389	139.26
805.568	186.37
805.748	190.46
805.928	233.47
806.107	165.89
806.287	169.98
806.466	165.89
806.646	178.17
806.825	169.98
807.004	180.22
807.184	129.02
807.363	153.6
807.543	188.41
807.722	129.02
807.901	212.99
808.081	161.79
808.26	120.83
808.439	120.83
808.619	153.6
808.798	172.03
808.977	165.89
809.156	129.02
809.336	165.89
809.515	120.83
809.694	88.06
809.873	147.45
810.052	235.52
810.231	196.6
810.411	147.45
810.59	96.25
810.769	133.12
810.948	139.26
811.127	186.37
811.306	129.02
811.485	163.84
811.664	157.69
811.843	90.11
812.022	145.41
812.201	71.68
812.38	190.46
812.559	137.21
812.737	184.32
812.916	26.62
813.095	131.07
813.274	182.27
813.453	120.83
813.632	131.07
813.811	14.34
813.989	141.31
814.168	137.21
814.347	147.45
814.526	186.37
814.704	145.41
814.883	133.12
815.062	92.16
815.24	147.45
815.419	75.77
815.598	51.2
815.776	122.88
815.955	131.07
816.133	102.4
816.312	124.93
816.49	135.17
816.669	129.02
816.847	126.97
817.026	116.73
817.204	57.34
817.383	227.32
817.561	106.49
817.74	131.07
817.918	104.45
818.097	110.59
818.275	145.41
818.453	83.97
818.632	108.54
818.81	94.21
818.988	34.82
819.167	106.49
819.345	182.27
819.523	71.68
819.701	51.2
819.879	71.68
820.058	59.39
820.236	155.65
820.414	124.93
820.592	61.44
820.77	12.29
820.948	114.69
821.127	104.45
821.305	96.25
821.483	34.82
821.661	131.07
821.839	100.35
822.017	63.49
822.195	90.11
822.373	124.93
822.551	110.59
822.729	161.79
822.907	157.69
823.085	137.21
823.262	104.45
823.44	40.96
823.618	98.3
823.796	88.06
823.974	81.92
824.152	112.64
824.329	86.01
824.507	96.25
824.685	55.3
824.863	73.73
825.04	30.72
825.218	79.87
825.396	141.31
825.574	104.45
825.751	-18.43
825.929	157.69
826.107	6.14
826.284	43.01
826.462	47.1
826.639	92.16
826.817	55.3
826.994	47.1
827.172	34.82
827.349	129.02
827.527	59.39
827.704	131.07
827.882	63.49
828.059	90.11
828.237	55.3
828.414	102.4
828.591	36.86
828.769	83.97
828.946	28.67
829.124	120.83
829.301	75.77
829.478	63.49
829.655	71.68
829.833	141.31
830.01	49.15
830.187	100.35
830.364	73.73
830.542	108.54
830.719	96.25
830.896	59.39
831.073	98.3
831.25	129.02
831.427	122.88
831.604	116.73
831.782	32.77
831.959	55.3
832.136	49.15
832.313	81.92
832.49	6.14
832.667	24.58
832.844	32.77
833.021	98.3
833.198	59.39
833.374	106.49
833.551	83.97
833.728	94.21
833.905	133.12
834.082	14.34
834.259	-14.34
834.436	147.45
834.612	32.77
834.789	88.06
834.966	114.69
835.143	96.25
835.319	98.3
835.496	133.12
835.673	57.34
835.85	145.41
836.026	-6.14
836.203	47.1
836.38	38.91
836.556	106.49
836.733	47.1
836.909	49.15
837.086	51.2
837.262	18.43
837.439	83.97
837.616	47.1
837.792	26.62
837.968	151.55
838.145	47.1
838.321	57.34
838.498	53.25
838.674	75.77
838.851	96.25
839.027	34.82
839.203	75.77
839.38	-18.43
839.556	57.34
839.732	63.49
839.909	26.62
840.085	120.83
840.261	-34.82
840.437	-2.05
840.614	-0
840.79	47.1
840.966	63.49
841.142	32.77
841.318	118.78
841.494	30.72
841.671	34.82
841.847	-14.34
842.023	8.19
842.199	71.68
842.375	57.34
842.551	55.3
842.727	16.38
842.903	57.34
843.079	-30.72
843.255	55.3
843.431	30.72
843.607	24.58
843.783	104.45
843.959	100.35
844.134	-24.58
844.31	-0
844.486	14.34
844.662	20.48
844.838	-0
845.013	-34.82
845.189	106.49
845.365	16.38
845.541	133.12
845.716	-40.96
845.892	63.49
846.068	55.3
846.244	-51.2
846.419	88.06
846.595	-53.25
846.77	104.45
846.946	67.58
847.122	47.1
847.297	69.63
847.473	51.2
847.648	14.34
847.824	-6.14
847.999	2.05
848.175	-2.05
848.35	49.15
848.526	104.45
848.701	59.39
848.876	-6.14
849.052	92.16
849.227	75.77
849.403	57.34
849.578	-24.58
849.753	-26.62
849.929	55.3
850.104	55.3
850.279	-28.67
850.454	18.43
850.63	49.15
850.805	14.34
850.98	-2.05
851.155	-16.38
851.33	24.58
851.505	26.62
851.681	75.77
851.856	-14.34
852.031	20.48
852.206	14.34
852.381	20.48
852.556	18.43
852.731	4.1
852.906	-24.58
853.081	49.15
853.256	69.63
853.431	-18.43
853.606	-6.14
853.781	18.43
853.956	24.58
854.131	10.24
854.305	14.34
854.48	30.72
854.655	-16.38
854.83	-53.25
855.005	43.01
855.18	-18.43
855.354	-24.58
855.529	59.39
855.704	16.38
855.879	26.62
856.053	-83.97
856.228	79.87
856.403	-38.91
856.577	102.4
856.752	-4.1
856.926	-0
857.101	61.44
857.276	20.48
857.45	71.68
857.625	-8.19
857.799	38.91
857.974	-18.43
858.148	-10.24
858.323	-2.05
858.497	4.1
858.672	6.14
858.846	63.49
859.02	-43.01
859.195	-36.86
859.369	22.53
859.543	-12.29
859.718	14.34
859.892	-26.62
860.066	-106.49
860.241	49.15
860.415	-38.91
860.589	-26.62
860.763	-2.05
860.938	-24.58
861.112	67.58
861.286	-16.38
861.46	-32.77
861.634	-0
861.808	96.25
861.982	36.86
862.157	-20.48
862.331	-73.73
862.505	14.34
862.679	22.53
862.853	-12.29
863.027	-53.25
863.201	38.91
863.375	-43.01
863.549	-0
863.722	-14.34
863.896	-26.62
864.07	-14.34
864.244	24.58
864.418	-10.24
864.592	14.34
864.766	65.53
864.939	16.38
865.113	40.96
865.287	63.49
865.461	-2.05
865.634	63.49
865.808	6.14
865.982	38.91
866.156	-30.72
866.329	-28.67
866.503	14.34
866.676	73.73
866.85	8.19
867.024	-16.38
867.197	88.06
867.371	2.05
867.544	49.15
867.718	-8.19
867.891	-34.82
868.065	24.58
868.238	-51.2
868.412	-30.72
868.585	14.34
868.759	-65.54
868.932	4.1
869.105	49.15
869.279	22.53
869.452	-0
869.625	-63.49
869.799	38.91
869.972	65.53
870.145	55.3
870.319	22.53
870.492	57.34
870.665	40.96
870.838	2.05
871.011	-30.72
871.185	-2.05
871.358	24.58
871.531	16.38
871.704	-47.1
871.877	40.96
872.05	-10.24
872.223	10.24
872.396	43.01
872.569	8.19
872.742	-47.1
872.915	-8.19
873.088	-57.34
873.261	77.82
873.434	8.19
873.607	57.34
873.78	-14.34
873.953	18.43
874.126	47.1
874.299	40.96
874.471	-14.34
874.644	-26.62
874.817	-26.62
874.99	49.15
875.163	63.49
875.335	63.49
875.508	-43.01
875.681	30.72
875.853	-8.19
876.026	26.62
876.199	-34.82
876.371	-8.19
876.544	28.67
876.717	59.39
876.889	55.3
877.062	43.01
877.234	-47.1
877.407	51.2
877.579	-26.62
877.752	49.15
877.924	6.14
878.097	12.29
878.269	45.06
878.442	-10.24
878.614	-8.19
878.786	47.1
878.959	22.53
879.131	-6.14
879.303	-83.97
879.476	34.82
879.648	-10.24
879.82	14.34
879.993	43.01
880.165	-4.1
880.337	-79.87
880.509	-6.14
880.681	-77.82
880.854	20.48
881.026	10.24
881.198	51.2
881.37	30.72
881.542	22.53
881.714	-38.91
881.886	-30.72
882.058	6.14
882.23	47.1
882.402	-79.87
882.574	24.58
882.746	12.29
882.918	26.62
883.09	-8.19
883.262	43.01
883.434	-14.34
883.606	-110.59
883.778	-2.05
883.95	55.3
884.122	-26.62
884.293	6.14
884.465	-2.05
884.637	-14.34
884.809	20.48
884.98	38.91
885.152	16.38
885.324	55.3
885.496	-71.68
885.667	14.34
885.839	14.34
886.011	96.25
886.182	-36.86
886.354	32.77
886.525	-49.15
886.697	-14.34
886.869	-55.3
887.04	-75.77
887.212	8.19
887.383	49.15
887.555	-40.96
887.726	43.01
887.897	-18.43
888.069	-38.91
888.24	40.96
888.412	-18.43
888.583	34.82
888.754	14.34
888.926	-79.87
889.097	55.3
889.268	-10.24
889.44	53.25
889.611	-83.97
889.782	-26.62
889.953	-45.06
890.125	26.62
890.296	43.01
890.467	-26.62
890.638	-59.39
890.809	32.77
890.98	-53.25
891.151	-0
891.323	30.72
891.494	-24.58
891.665	-40.96
891.836	-40.96
892.007	22.53
892.178	16.38
892.349	-10.24
892.52	10.24
892.691	16.38
892.862	28.67
893.032	-40.96
893.203	47.1
893.374	6.14
893.545	12.29
893.716	6.14
893.887	24.58
894.057	-30.72
894.228	-43.01
894.399	-30.72
894.57	22.53
894.74	-16.38
894.911	59.39
895.082	10.24
895.253	6.14
895.423	-67.58
895.594	-8.19
895.764	-18.43
895.935	-32.77
896.106	51.2
896.276	28.67
896.447	-10.24
896.617	-32.77
896.788	-63.49
896.958	-34.82
897.129	-40.96
897.299	-38.91
897.47	18.43
897.64	40.96
897.81	-26.62
897.981	22.53
898.151	-18.43
898.322	-4.1
898.492	47.1
898.662	8.19
898.832	-0
899.003	24.58
899.173	6.14
899.343	6.14
899.513	-69.63
