Data from USB4F104151__219__14-21-20-468.txt Node

Date: Thu Mar 13 14:21:20 EDT 2025
User: louis
Spectrometer: USB4F10415
Trigger mode: 4
Integration Time (sec): 2.000000E-2
Scans to average: 1
Electric dark correction enabled: true
Nonlinearity correction enabled: false
Boxcar width: 0
XAxis mode: Wavelengths
Number of Pixels in Spectrum: 3648
>>>>>Begin Spectral Data<<<<<
178.204	-85.67
178.424	-85.67
178.644	-85.67
178.864	-130.73
179.084	-73.39
179.304	-34.47
179.524	-16.04
179.744	-61.1
179.964	14.68
180.184	10.58
180.404	39.25
180.624	12.63
180.844	0.34
181.064	-7.85
181.283	-18.09
181.503	26.96
181.723	33.11
181.943	47.44
182.163	39.25
182.383	39.25
182.602	39.25
182.822	31.06
183.042	-9.9
183.262	-32.43
183.482	26.96
183.701	49.49
183.921	24.92
184.141	-18.09
184.361	94.55
184.58	84.31
184.8	49.49
185.02	39.25
185.239	112.98
185.459	18.77
185.679	69.97
185.898	31.06
186.118	-26.28
186.338	39.25
186.557	51.54
186.777	-9.9
186.997	14.68
187.216	6.49
187.436	147.8
187.655	39.25
187.875	98.64
188.095	-18.09
188.314	57.68
188.534	84.31
188.753	39.25
188.973	43.35
189.192	31.06
189.412	51.54
189.631	-18.09
189.851	133.46
190.07	92.5
190.29	22.87
190.509	49.49
190.729	-18.09
190.948	94.55
191.168	127.32
191.387	24.92
191.607	51.54
191.826	37.2
192.045	2.39
192.265	22.87
192.484	39.25
192.704	39.25
192.923	49.49
193.142	121.17
193.362	45.4
193.581	2.39
193.8	10.58
194.02	65.88
194.239	39.25
194.458	90.45
194.678	57.68
194.897	-5.8
195.116	-7.85
195.335	0.34
195.555	-40.62
195.774	43.35
195.993	16.73
196.212	61.78
196.432	-13.99
196.651	6.49
196.87	-26.28
197.089	121.17
197.308	55.64
197.528	39.25
197.747	33.11
197.966	4.44
198.185	69.97
198.404	29.01
198.623	59.73
198.842	90.45
199.062	86.36
199.281	121.17
199.5	-20.14
199.719	41.3
199.938	72.02
200.157	35.16
200.376	53.59
200.595	72.02
200.814	8.53
201.033	43.35
201.252	98.64
201.471	2.39
201.69	59.73
201.909	100.69
202.128	18.77
202.347	22.87
202.566	20.82
202.785	-40.62
203.004	-52.91
203.223	59.73
203.442	33.11
203.661	80.21
203.879	35.16
204.098	4.44
204.317	0.34
204.536	31.06
204.755	-13.99
204.974	14.68
205.193	43.35
205.411	63.83
205.63	74.07
205.849	-75.43
206.068	55.64
206.287	-40.62
206.505	110.93
206.724	-9.9
206.943	57.68
207.162	29.01
207.381	37.2
207.599	-11.95
207.818	26.96
208.037	22.87
208.255	98.64
208.474	57.68
208.693	-3.75
208.911	14.68
209.13	4.44
209.349	22.87
209.567	45.4
209.786	26.96
210.005	39.25
210.223	-28.33
210.442	33.11
210.661	-7.85
210.879	18.77
211.098	51.54
211.316	47.44
211.535	137.56
211.753	33.11
211.972	4.44
212.191	35.16
212.409	24.92
212.628	16.73
212.846	33.11
213.065	61.78
213.283	4.44
213.502	-48.81
213.72	35.16
213.938	16.73
214.157	-22.19
214.375	55.64
214.594	-3.75
214.812	82.26
215.031	90.45
215.249	63.83
215.467	-7.85
215.686	10.58
215.904	35.16
216.122	-9.9
216.341	133.46
216.559	6.49
216.778	47.44
216.996	65.88
217.214	49.49
217.432	88.4
217.651	-18.09
217.869	-16.04
218.087	-18.09
218.306	-24.23
218.524	-38.57
218.742	24.92
218.96	80.21
219.179	-48.81
219.397	76.12
219.615	45.4
219.833	33.11
220.051	-32.43
220.27	-16.04
220.488	14.68
220.706	0.34
220.924	-7.85
221.142	8.53
221.36	69.97
221.578	8.53
221.796	-34.47
222.015	0.34
222.233	49.49
222.451	43.35
222.669	2.39
222.887	8.53
223.105	51.54
223.323	-28.33
223.541	-16.04
223.759	53.59
223.977	10.58
224.195	24.92
224.413	6.49
224.631	53.59
224.849	29.01
225.067	100.69
225.285	8.53
225.503	22.87
225.721	-44.71
225.939	8.53
226.157	-5.8
226.375	24.92
226.592	-26.28
226.81	-1.71
227.028	65.88
227.246	110.93
227.464	16.73
227.682	90.45
227.9	47.44
228.117	33.11
228.335	69.97
228.553	39.25
228.771	33.11
228.989	39.25
229.206	2.39
229.424	4.44
229.642	41.3
229.86	31.06
230.077	0.34
230.295	-1.71
230.513	74.07
230.731	72.02
230.948	96.6
231.166	39.25
231.384	104.79
231.601	45.4
231.819	14.68
232.037	51.54
232.254	-1.71
232.472	-18.09
232.689	76.12
232.907	24.92
233.125	31.06
233.342	-32.43
233.56	55.64
233.777	6.49
233.995	-28.33
234.213	63.83
234.43	-16.04
234.648	67.92
234.865	-16.04
235.083	-18.09
235.3	51.54
235.518	55.64
235.735	43.35
235.953	57.68
236.17	-5.8
236.388	35.16
236.605	0.34
236.822	-36.52
237.04	112.98
237.257	43.35
237.475	2.39
237.692	47.44
237.909	51.54
238.127	-9.9
238.344	33.11
238.562	-24.23
238.779	-46.76
238.996	8.53
239.214	29.01
239.431	69.97
239.648	-1.71
239.865	35.16
240.083	33.11
240.3	-7.85
240.517	45.4
240.735	67.92
240.952	41.3
241.169	115.03
241.386	-54.95
241.603	35.16
241.821	-40.62
242.038	80.21
242.255	-20.14
242.472	59.73
242.689	88.4
242.907	63.83
243.124	14.68
243.341	80.21
243.558	55.64
243.775	35.16
243.992	-18.09
244.209	20.82
244.426	47.44
244.643	55.64
244.86	2.39
245.078	2.39
245.295	14.68
245.512	63.83
245.729	-22.19
245.946	20.82
246.163	18.77
246.38	-38.57
246.597	92.5
246.814	47.44
247.031	-30.38
247.248	-1.71
247.464	39.25
247.681	-16.04
247.898	55.64
248.115	72.02
248.332	-36.52
248.549	90.45
248.766	139.6
248.983	0.34
249.2	16.73
249.417	67.92
249.633	22.87
249.85	88.4
250.067	-5.8
250.284	69.97
250.501	26.96
250.717	-9.9
250.934	41.3
251.151	100.69
251.368	41.3
251.585	51.54
251.801	55.64
252.018	-44.71
252.235	12.63
252.451	8.53
252.668	-54.95
252.885	80.21
253.102	18.77
253.318	31.06
253.535	98.64
253.752	-18.09
253.968	47.44
254.185	41.3
254.401	90.45
254.618	-36.52
254.835	55.64
255.051	-26.28
255.268	39.25
255.484	24.92
255.701	-20.14
255.917	-9.9
256.134	31.06
256.351	14.68
256.567	-9.9
256.784	94.55
257	20.82
257.217	16.73
257.433	-1.71
257.65	39.25
257.866	39.25
258.082	-5.8
258.299	-7.85
258.515	80.21
258.732	55.64
258.948	55.64
259.165	53.59
259.381	35.16
259.597	2.39
259.814	2.39
260.03	10.58
260.246	49.49
260.463	31.06
260.679	33.11
260.895	90.45
261.112	2.39
261.328	47.44
261.544	59.73
261.761	20.82
261.977	-16.04
262.193	49.49
262.409	24.92
262.626	26.96
262.842	22.87
263.058	-26.28
263.274	-57
263.49	108.88
263.707	112.98
263.923	78.16
264.139	98.64
264.355	24.92
264.571	123.22
264.787	63.83
265.004	16.73
265.22	80.21
265.436	80.21
265.652	-1.71
265.868	33.11
266.084	-91.82
266.3	8.53
266.516	-5.8
266.732	37.2
266.948	-1.71
267.164	29.01
267.38	67.92
267.596	10.58
267.812	63.83
268.028	39.25
268.244	-16.04
268.46	102.74
268.676	55.64
268.892	82.26
269.108	-7.85
269.324	6.49
269.54	14.68
269.756	24.92
269.972	6.49
270.188	-26.28
270.403	26.96
270.619	104.79
270.835	49.49
271.051	59.73
271.267	43.35
271.483	51.54
271.698	129.36
271.914	43.35
272.13	86.36
272.346	84.31
272.562	-59.05
272.777	59.73
272.993	31.06
273.209	16.73
273.425	72.02
273.64	14.68
273.856	22.87
274.072	18.77
274.287	-11.95
274.503	98.64
274.719	74.07
274.934	53.59
275.15	-57
275.366	65.88
275.581	6.49
275.797	10.58
276.012	90.45
276.228	22.87
276.444	82.26
276.659	82.26
276.875	33.11
277.09	41.3
277.306	-24.23
277.521	26.96
277.737	47.44
277.952	96.6
278.168	22.87
278.383	39.25
278.599	20.82
278.814	65.88
279.03	43.35
279.245	49.49
279.461	-40.62
279.676	18.77
279.892	6.49
280.107	67.92
280.322	92.5
280.538	-26.28
280.753	22.87
280.969	26.96
281.184	49.49
281.399	29.01
281.615	-5.8
281.83	88.4
282.045	-34.47
282.26	31.06
282.476	51.54
282.691	31.06
282.906	2.39
283.122	31.06
283.337	-18.09
283.552	8.53
283.767	92.5
283.983	39.25
284.198	61.78
284.413	84.31
284.628	-57
284.843	55.64
285.058	61.78
285.274	55.64
285.489	-9.9
285.704	8.53
285.919	-34.47
286.134	18.77
286.349	63.83
286.564	39.25
286.779	26.96
286.995	8.53
287.21	39.25
287.425	80.21
287.64	57.68
287.855	47.44
288.07	14.68
288.285	31.06
288.5	57.68
288.715	63.83
288.93	72.02
289.145	20.82
289.36	86.36
289.575	39.25
289.79	22.87
290.004	26.96
290.219	112.98
290.434	8.53
290.649	6.49
290.864	-26.28
291.079	55.64
291.294	24.92
291.509	92.5
291.724	49.49
291.938	37.2
292.153	67.92
292.368	57.68
292.583	67.92
292.798	98.64
293.012	2.39
293.227	24.92
293.442	24.92
293.657	47.44
293.871	98.64
294.086	18.77
294.301	63.83
294.516	-5.8
294.73	55.64
294.945	61.78
295.16	26.96
295.374	117.08
295.589	74.07
295.804	49.49
296.018	51.54
296.233	26.96
296.447	96.6
296.662	-7.85
296.877	35.16
297.091	24.92
297.306	49.49
297.52	-81.58
297.735	0.34
297.949	31.06
298.164	-1.71
298.378	-1.71
298.593	35.16
298.807	-42.67
299.022	72.02
299.236	88.4
299.451	57.68
299.665	72.02
299.88	96.6
300.094	31.06
300.309	14.68
300.523	80.21
300.737	-13.99
300.952	-16.04
301.166	-16.04
301.381	-59.05
301.595	16.73
301.809	-22.19
302.024	-9.9
302.238	-13.99
302.452	131.41
302.667	10.58
302.881	129.36
303.095	92.5
303.309	104.79
303.524	51.54
303.738	-26.28
303.952	16.73
304.166	35.16
304.381	2.39
304.595	80.21
304.809	115.03
305.023	39.25
305.237	-71.34
305.452	31.06
305.666	51.54
305.88	72.02
306.094	-16.04
306.308	57.68
306.522	98.64
306.736	41.3
306.95	39.25
307.164	84.31
307.379	-1.71
307.593	53.59
307.807	63.83
308.021	-50.86
308.235	6.49
308.449	53.59
308.663	82.26
308.877	106.84
309.091	10.58
309.305	65.88
309.519	-26.28
309.733	43.35
309.947	14.68
310.161	74.07
310.374	76.12
310.588	74.07
310.802	4.44
311.016	59.73
311.23	67.92
311.444	47.44
311.658	55.64
311.872	47.44
312.085	2.39
312.299	63.83
312.513	14.68
312.727	98.64
312.941	-1.71
313.154	-40.62
313.368	-3.75
313.582	39.25
313.796	24.92
314.009	82.26
314.223	100.69
314.437	92.5
314.651	55.64
314.864	49.49
315.078	14.68
315.292	84.31
315.505	22.87
315.719	96.6
315.933	37.2
316.146	24.92
316.36	24.92
316.573	67.92
316.787	22.87
317.001	-5.8
317.214	69.97
317.428	-18.09
317.641	14.68
317.855	47.44
318.068	-26.28
318.282	117.08
318.495	45.4
318.709	59.73
318.922	55.64
319.136	125.27
319.349	31.06
319.563	6.49
319.776	22.87
319.99	-22.19
320.203	98.64
320.417	-1.71
320.63	59.73
320.843	88.4
321.057	-24.23
321.27	151.89
321.483	53.59
321.697	108.88
321.91	43.35
322.124	80.21
322.337	39.25
322.55	55.64
322.763	-5.8
322.977	47.44
323.19	88.4
323.403	0.34
323.617	4.44
323.83	123.22
324.043	22.87
324.256	158.03
324.469	-36.52
324.683	41.3
324.896	84.31
325.109	57.68
325.322	53.59
325.535	31.06
325.748	39.25
325.962	0.34
326.175	63.83
326.388	67.92
326.601	67.92
326.814	39.25
327.027	35.16
327.24	96.6
327.453	31.06
327.666	41.3
327.879	74.07
328.092	10.58
328.305	-3.75
328.518	80.21
328.731	-44.71
328.944	104.79
329.157	22.87
329.37	-24.23
329.583	139.6
329.796	53.59
330.009	26.96
330.222	108.88
330.435	24.92
330.648	22.87
330.861	31.06
331.073	39.25
331.286	98.64
331.499	37.2
331.712	106.84
331.925	16.73
332.138	0.34
332.35	119.12
332.563	78.16
332.776	53.59
332.989	43.35
333.202	59.73
333.414	96.6
333.627	110.93
333.84	20.82
334.053	106.84
334.265	10.58
334.478	63.83
334.691	51.54
334.903	-34.47
335.116	67.92
335.329	63.83
335.541	72.02
335.754	74.07
335.966	12.63
336.179	51.54
336.392	8.53
336.604	69.97
336.817	55.64
337.029	16.73
337.242	39.25
337.454	14.68
337.667	55.64
337.88	80.21
338.092	59.73
338.305	102.74
338.517	86.36
338.729	110.93
338.942	106.84
339.154	-18.09
339.367	-16.04
339.579	82.26
339.792	22.87
340.004	22.87
340.217	8.53
340.429	108.88
340.641	29.01
340.854	100.69
341.066	96.6
341.278	22.87
341.491	10.58
341.703	41.3
341.915	47.44
342.128	69.97
342.34	14.68
342.552	80.21
342.764	6.49
342.977	35.16
343.189	96.6
343.401	43.35
343.613	26.96
343.826	65.88
344.038	108.88
344.25	29.01
344.462	55.64
344.674	63.83
344.886	-22.19
345.099	102.74
345.311	72.02
345.523	57.68
345.735	33.11
345.947	63.83
346.159	49.49
346.371	2.39
346.583	22.87
346.795	65.88
347.007	14.68
347.219	47.44
347.431	-13.99
347.643	74.07
347.855	-18.09
348.067	78.16
348.279	33.11
348.491	39.25
348.703	22.87
348.915	6.49
349.127	18.77
349.339	59.73
349.551	47.44
349.763	41.3
349.975	26.96
350.187	104.79
350.399	14.68
350.61	63.83
350.822	76.12
351.034	100.69
351.246	94.55
351.458	31.06
351.669	33.11
351.881	86.36
352.093	8.53
352.305	90.45
352.517	104.79
352.728	104.79
352.94	80.21
353.152	24.92
353.363	-67.24
353.575	33.11
353.787	98.64
353.999	80.21
354.21	98.64
354.422	8.53
354.633	80.21
354.845	41.3
355.057	41.3
355.268	43.35
355.48	112.98
355.692	88.4
355.903	33.11
356.115	51.54
356.326	-13.99
356.538	129.36
356.749	80.21
356.961	55.64
357.172	20.82
357.384	-7.85
357.595	106.84
357.807	67.92
358.018	-34.47
358.23	61.78
358.441	74.07
358.653	-7.85
358.864	22.87
359.075	39.25
359.287	18.77
359.498	53.59
359.709	88.4
359.921	-40.62
360.132	112.98
360.344	76.12
360.555	43.35
360.766	18.77
360.977	41.3
361.189	57.68
361.4	43.35
361.611	59.73
361.823	104.79
362.034	88.4
362.245	33.11
362.456	22.87
362.667	63.83
362.879	0.34
363.09	151.89
363.301	121.17
363.512	16.73
363.723	-1.71
363.935	8.53
364.146	129.36
364.357	29.01
364.568	39.25
364.779	22.87
364.99	96.6
365.201	94.55
365.412	88.4
365.623	-52.91
365.834	112.98
366.045	-42.67
366.256	24.92
366.467	94.55
366.678	82.26
366.889	84.31
367.1	96.6
367.311	45.4
367.522	0.34
367.733	69.97
367.944	153.94
368.155	55.64
368.366	63.83
368.577	153.94
368.788	74.07
368.999	61.78
369.209	39.25
369.42	129.36
369.631	80.21
369.842	47.44
370.053	135.51
370.264	80.21
370.474	39.25
370.685	82.26
370.896	69.97
371.107	59.73
371.317	59.73
371.528	110.93
371.739	115.03
371.95	123.22
372.16	96.6
372.371	76.12
372.582	24.92
372.792	80.21
373.003	80.21
373.214	18.77
373.424	49.49
373.635	-9.9
373.846	112.98
374.056	43.35
374.267	84.31
374.477	106.84
374.688	26.96
374.898	67.92
375.109	96.6
375.319	96.6
375.53	80.21
375.74	57.68
375.951	29.01
376.161	43.35
376.372	47.44
376.582	-34.47
376.793	59.73
377.003	47.44
377.214	26.96
377.424	-5.8
377.635	67.92
377.845	37.2
378.055	90.45
378.266	-1.71
378.476	47.44
378.686	57.68
378.897	63.83
379.107	67.92
379.317	117.08
379.528	94.55
379.738	65.88
379.948	51.54
380.158	82.26
380.369	14.68
380.579	-7.85
380.789	22.87
380.999	39.25
381.21	18.77
381.42	121.17
381.63	72.02
381.84	145.75
382.05	98.64
382.261	96.6
382.471	41.3
382.681	61.78
382.891	74.07
383.101	63.83
383.311	-26.28
383.521	41.3
383.731	108.88
383.941	98.64
384.151	14.68
384.361	59.73
384.571	129.36
384.781	14.68
384.991	16.73
385.201	164.18
385.411	16.73
385.621	26.96
385.831	47.44
386.041	78.16
386.251	59.73
386.461	117.08
386.671	41.3
386.881	88.4
387.091	43.35
387.301	67.92
387.511	0.34
387.72	26.96
387.93	39.25
388.14	61.78
388.35	47.44
388.56	35.16
388.769	84.31
388.979	104.79
389.189	22.87
389.399	82.26
389.609	67.92
389.818	184.66
390.028	72.02
390.238	166.23
390.447	74.07
390.657	63.83
390.867	31.06
391.076	-1.71
391.286	31.06
391.496	82.26
391.705	131.41
391.915	180.56
392.125	59.73
392.334	-42.67
392.544	115.03
392.753	55.64
392.963	20.82
393.172	155.99
393.382	55.64
393.591	149.84
393.801	82.26
394.01	153.94
394.22	110.93
394.429	137.56
394.639	115.03
394.848	106.84
395.058	121.17
395.267	31.06
395.477	100.69
395.686	112.98
395.895	137.56
396.105	78.16
396.314	172.37
396.524	100.69
396.733	166.23
396.942	149.84
397.152	100.69
397.361	211.28
397.57	117.08
397.78	115.03
397.989	125.27
398.198	213.33
398.407	106.84
398.617	82.26
398.826	129.36
399.035	147.8
399.244	178.51
399.453	121.17
399.663	96.6
399.872	141.65
400.081	194.9
400.29	112.98
400.499	112.98
400.708	211.28
400.917	139.6
401.127	96.6
401.336	78.16
401.545	162.13
401.754	137.56
401.963	188.75
402.172	139.6
402.381	72.02
402.59	164.18
402.799	211.28
403.008	100.69
403.217	104.79
403.426	137.56
403.635	147.8
403.844	149.84
404.053	182.61
404.262	100.69
404.471	203.09
404.68	121.17
404.888	194.9
405.097	219.47
405.306	172.37
405.515	203.09
405.724	215.38
405.933	252.24
406.142	188.75
406.35	215.38
406.559	213.33
406.768	215.38
406.977	287.06
407.185	219.47
407.394	317.78
407.603	258.39
407.812	239.95
408.02	303.44
408.229	248.15
408.438	301.39
408.646	287.06
408.855	352.59
409.064	248.15
409.272	311.63
409.481	319.82
409.69	280.91
409.898	305.49
410.107	403.79
410.315	375.12
410.524	407.89
410.733	416.08
410.941	448.85
411.15	375.12
411.358	430.41
411.567	514.38
411.775	473.42
411.984	465.23
412.192	465.23
412.401	579.92
412.609	631.12
412.818	555.34
413.026	616.78
413.234	710.99
413.443	581.96
413.651	598.35
413.86	690.51
414.068	663.88
414.276	794.95
414.485	801.1
414.693	751.95
414.901	852.3
415.11	790.86
415.318	846.15
415.526	842.06
415.734	936.26
415.943	1026.37
416.151	923.98
416.359	1108.29
416.567	1071.43
416.776	1143.11
416.984	1182.02
417.192	1108.29
417.4	1124.68
417.608	1200.45
417.817	1177.92
418.025	1308.99
418.233	1370.43
418.441	1378.62
418.649	1431.87
418.857	1481.02
419.065	1558.85
419.273	1538.37
419.481	1679.68
419.689	1790.27
419.897	1804.6
420.105	1810.75
420.313	1843.51
420.521	1851.71
420.729	1931.58
420.937	2042.17
421.145	2160.95
421.353	2189.62
421.561	2357.55
421.769	2279.73
421.977	2480.43
422.185	2412.85
422.393	2611.5
422.601	2812.2
422.809	2736.43
423.017	2691.37
423.224	2883.88
423.432	3023.14
423.64	2922.79
423.848	3143.97
424.056	3168.55
424.263	3490.08
424.471	3496.22
424.679	3502.37
424.887	3594.53
425.094	3907.87
425.302	3701.02
425.51	3856.67
425.718	3971.35
425.925	4147.48
426.133	4243.73
426.341	4536.59
426.548	4598.03
426.756	4610.32
426.964	4806.92
427.171	4962.57
427.379	5249.29
427.586	5122.31
427.794	5431.55
428.001	5636.35
428.209	5847.29
428.417	5757.18
428.624	6318.32
428.832	6355.19
429.039	6170.87
429.247	6113.53
429.454	6770.93
429.662	7231.72
429.869	6793.45
430.076	7141.61
430.284	6908.14
430.491	7340.26
430.699	7735.52
430.906	7528.67
431.114	7887.07
431.321	8095.96
431.528	8419.54
431.736	8960.2
431.943	9246.92
432.15	8794.32
432.358	9103.56
432.565	9720
432.772	9697.47
432.979	9853.12
433.187	10150.07
433.394	10207.42
433.601	10913.97
433.808	10924.21
434.016	10662.07
434.223	11335.85
434.43	11804.83
434.637	11882.66
434.844	12396.7
435.052	12607.64
435.259	12451.99
435.466	12816.53
435.673	12652.69
435.88	13430.92
436.087	14116.99
436.294	13916.29
436.501	13707.4
436.708	14057.6
436.915	14764.15
437.122	15114.35
437.329	15085.68
437.537	15644.77
437.743	16015.46
437.95	15585.38
438.157	16308.32
438.364	16881.75
438.571	16898.13
438.778	17059.92
438.985	18526.27
439.192	17965.12
439.399	18466.88
439.606	17854.53
439.813	19292.21
440.02	20451.36
440.227	20166.69
440.433	19759.14
440.64	20348.96
440.847	20140.07
441.054	20895.77
441.261	22155.27
441.467	21757.96
441.674	22396.93
441.881	23267.31
442.088	23060.47
442.294	22724.6
442.501	23468.02
442.708	23674.86
442.914	24911.83
443.121	25878.47
443.328	25286.61
443.534	26671.04
443.741	26154.95
443.948	25757.64
444.154	27750.32
444.361	27461.55
444.568	27637.68
444.774	27910.06
444.981	28022.7
445.187	28606.37
445.394	30027.66
445.6	30011.28
445.807	32118.64
446.013	30613.38
446.22	31399.8
446.426	32860
446.633	33085.28
446.839	34389.83
447.046	32528.23
447.252	34293.58
447.459	34342.73
447.665	34776.9
447.871	36030.26
448.078	37410.59
448.284	35661.62
448.491	36689.7
448.697	38100.75
448.903	38907.65
449.11	38868.74
449.316	38188.81
449.522	38780.68
449.728	40206.06
449.935	39945.97
450.141	39950.07
450.347	40634.09
450.553	39630.58
450.76	40335.09
450.966	41436.89
451.172	41025.25
451.378	42235.6
451.584	41357.02
451.791	42510.03
451.997	42294.99
452.203	42880.71
452.409	43251.39
452.615	42909.38
452.821	41096.93
453.027	40412.91
453.233	42536.65
453.44	40898.28
453.646	41653.98
453.852	41830.1
454.058	42591.95
454.264	41189.09
454.47	42174.16
454.676	41000.68
454.882	42313.42
455.088	38926.08
455.294	39278.33
455.5	39784.18
455.705	40048.37
455.911	38592.26
456.117	37785.36
456.323	37621.53
456.529	35594.04
456.735	37355.29
456.941	36159.28
457.147	35307.32
457.352	34363.21
457.558	34088.78
457.764	34389.83
457.97	33511.25
458.176	32722.79
458.381	33062.75
458.587	31440.76
458.793	31270.78
458.999	29712.27
459.204	32171.88
459.41	31180.67
459.616	28878.75
459.821	29011.87
460.027	29251.48
460.233	28145.58
460.438	27025.34
460.644	27533.23
460.85	26005.45
461.055	25894.86
461.261	25604.05
461.466	23834.6
461.672	23056.37
461.878	24680.41
462.083	23162.87
462.289	22763.51
462.494	22056.96
462.7	21393.42
462.905	20707.35
463.111	21528.59
463.316	21673.99
463.522	21223.44
463.727	21164.05
463.932	21368.85
464.138	20879.38
464.343	21172.24
464.549	20322.34
464.754	21037.08
464.959	20815.9
465.165	20525.08
465.37	19888.17
465.575	19601.45
465.781	20127.78
465.986	20103.2
466.191	19267.63
466.397	19130.42
466.602	18305.09
466.807	19009.59
467.012	19048.5
467.218	18997.3
467.423	18585.66
467.628	18788.41
467.833	19433.52
468.038	18966.58
468.244	18300.99
468.449	18810.93
468.654	18200.64
468.859	18090.05
469.064	18020.42
469.269	17444.94
469.474	17549.39
469.679	17838.15
469.885	17356.88
470.09	17776.71
470.295	17485.9
470.5	16969.81
470.705	17393.74
470.91	16920.66
471.115	16384.09
471.32	17320.01
471.525	16914.52
471.73	16701.53
471.935	16222.3
472.139	15724.65
472.344	16111.71
472.549	15831.14
472.754	15931.49
472.959	15292.52
473.164	15110.25
473.369	14872.69
473.574	15511.66
473.778	15222.89
473.983	15030.38
474.188	15077.49
474.393	14563.45
474.598	14395.51
474.802	14430.33
475.007	14344.31
475.212	14372.99
475.417	13863.04
475.621	13826.18
475.826	13795.46
476.031	13596.81
476.235	13086.86
476.44	13549.7
476.645	13248.65
476.849	13230.22
477.054	13031.57
477.259	13011.09
477.463	12767.38
477.668	12511.38
477.872	12765.33
478.077	12368.02
478.282	12222.62
478.486	12273.82
478.691	12144.8
478.895	12198.04
479.1	12052.64
479.304	12077.21
479.509	11696.29
479.713	11860.13
479.918	11722.91
480.122	11243.69
480.326	11565.22
480.531	11436.2
480.735	11466.92
480.94	11362.47
481.144	11727.01
481.348	11110.57
481.553	11399.34
481.757	11004.08
481.961	11110.57
482.166	11597.99
482.37	11145.39
482.574	11036.84
482.778	11002.03
482.983	11362.47
483.187	11020.46
483.391	11229.35
483.595	11159.72
483.8	10895.54
484.004	10887.34
484.208	11344.04
484.412	11143.34
484.616	11098.28
484.821	11094.19
485.025	10981.55
485.229	11081.9
485.433	11092.14
485.637	11186.35
485.841	10934.45
486.045	11010.22
486.249	10961.07
486.453	11081.9
486.657	11196.59
486.861	11253.93
487.065	10852.53
487.269	11192.49
487.473	10834.1
487.677	11038.89
487.881	11122.86
488.085	11147.44
488.289	11081.9
488.493	11088.04
488.697	11231.4
488.901	11212.97
489.105	11147.44
489.309	11196.59
489.512	11034.8
489.716	11172.01
489.92	11139.24
490.124	11098.28
490.328	11452.58
490.531	11296.94
490.735	11536.55
490.939	11475.11
491.143	11290.79
491.346	11313.32
491.55	11466.92
491.754	11622.56
491.958	11638.95
492.161	11530.41
492.365	11641
492.569	11710.63
492.772	11784.35
492.976	11794.59
493.18	11784.35
493.383	11983.01
493.587	11983.01
493.79	12245.15
493.994	11987.1
494.197	12443.8
494.401	12134.56
494.605	12337.31
494.808	12419.22
495.012	12761.23
495.215	12712.08
495.419	12540.05
495.622	12687.51
495.825	12982.42
496.029	12791.95
496.232	13205.64
496.436	13308.04
496.639	13371.53
496.843	13435.02
497.046	13613.19
497.249	13883.52
497.453	13807.75
497.656	13856.9
497.859	13983.87
498.063	14096.51
498.266	14334.07
498.469	14106.75
498.673	14469.24
498.876	14665.85
499.079	15061.1
499.282	14938.23
499.485	15399.02
499.689	15280.24
499.892	15462.51
500.095	15583.34
500.298	16095.33
500.501	15886.43
500.705	16300.12
500.908	16480.35
501.111	16394.33
501.314	16595.03
501.517	16791.64
501.72	16969.81
501.923	17127.5
502.126	17573.96
502.329	17692.74
502.532	17580.11
502.735	17840.2
502.938	18120.77
503.141	18088
503.344	18634.81
503.547	18458.68
503.75	18741.3
503.953	19062.83
504.156	19251.25
504.359	19331.12
504.562	19531.82
504.765	20131.87
504.968	20017.19
505.17	20377.63
505.373	20363.29
505.576	20787.22
505.779	20877.33
505.982	21037.08
506.185	21327.89
506.387	21426.19
506.59	21577.74
506.793	22175.75
506.996	21977.09
507.198	22378.5
507.401	22544.38
507.604	22827
507.807	23164.92
508.009	23394.29
508.212	23525.36
508.415	23930.86
508.617	23830.51
508.82	24354.79
509.022	23988.2
509.225	24897.5
509.428	24940.5
509.63	25145.3
509.833	25276.37
510.035	25636.81
510.238	25583.57
510.44	25939.91
510.643	26529.73
510.845	26535.87
511.048	26462.15
511.25	26845.12
511.453	27310
511.655	27953.07
511.858	27572.14
512.06	27889.58
512.262	28473.25
512.465	28204.97
512.667	28589.99
512.87	28940.19
513.072	29081.5
513.274	29659.02
513.477	29853.58
513.679	30341
513.881	30611.33
514.084	31051.64
514.286	30732.16
514.488	30865.28
514.69	31637.36
514.893	31485.81
515.095	31526.77
515.297	32077.68
515.499	32456.55
515.701	32632.68
515.904	33052.51
516.106	33232.73
516.308	33451.86
516.51	33904.46
516.712	34203.47
516.914	34256.71
517.116	34463.56
517.318	34928.45
517.52	35376.95
517.722	35401.53
517.925	35651.38
518.127	36173.61
518.329	36460.33
518.531	35954.48
518.733	36800.29
518.935	36818.72
519.136	36757.28
519.338	37873.43
519.54	37771.03
519.742	38311.69
519.944	38459.15
520.146	38860.55
520.348	39384.83
520.55	39282.43
520.752	39440.12
520.954	39997.17
521.155	39862.01
521.357	40388.33
521.559	40531.69
521.761	40654.57
521.963	41107.17
522.164	41070.31
522.366	41647.83
522.568	41713.37
522.77	42118.87
522.971	42434.25
523.173	41840.34
523.375	42565.32
523.576	42434.25
523.778	42774.22
523.98	43525.82
524.181	43554.49
524.383	43501.25
524.584	43935.41
524.786	43699.9
524.988	43912.89
525.189	44627.63
525.391	44607.15
525.592	44830.38
525.794	45330.08
525.995	45307.55
526.197	45266.59
526.398	45229.73
526.6	45412
526.801	45844.12
527.003	45950.62
527.204	45960.86
527.406	46589.58
527.607	46100.12
527.808	46718.6
528.01	46110.36
528.211	46591.63
528.412	47165.06
528.614	46622.35
528.815	46995.08
529.016	47367.81
529.218	47122.05
529.419	47365.76
529.62	47521.41
529.822	47361.67
530.023	47824.51
530.224	47634.05
530.425	47756.92
530.626	47054.47
530.828	47371.91
531.029	48410.23
531.23	47410.82
531.431	47425.15
531.632	47847.04
531.833	48082.55
532.035	47799.93
532.236	47990.39
532.437	48092.79
532.638	47793.79
532.839	48395.89
533.04	48354.93
533.241	47824.51
533.442	48586.35
533.643	48211.57
533.844	48209.53
534.045	48295.54
534.246	47894.14
534.447	48539.25
534.648	48086.65
534.849	48778.86
535.05	48582.26
535.251	48279.16
535.451	47988.35
535.652	48060.02
535.853	48264.82
536.054	48545.39
536.255	48430.71
536.456	47990.39
536.657	49151.59
536.857	48187
537.058	48117.37
537.259	48551.54
537.46	48778.86
537.66	48156.28
537.861	48549.49
538.062	48434.8
538.263	48688.75
538.463	48498.29
538.664	48639.6
538.865	48367.22
539.065	48961.13
539.266	48254.58
539.466	48756.33
539.667	47955.58
539.868	48758.38
540.068	48420.47
540.269	48547.44
540.469	48762.48
540.67	48383.6
540.87	48234.1
541.071	48004.73
541.271	48254.58
541.472	48461.43
541.672	48137.85
541.873	48115.32
542.073	47746.68
542.274	48715.37
542.474	48250.49
542.675	48176.76
542.875	48467.57
543.075	48496.24
543.276	47769.21
543.476	48473.71
543.676	47924.86
543.877	48230.01
544.077	48017.02
544.277	47951.48
544.478	47916.67
544.678	48115.32
544.878	48285.3
545.078	48408.18
545.279	47795.84
545.479	47976.06
545.679	48356.98
545.879	47976.06
546.079	47937.15
546.28	47982.2
546.48	47550.08
546.68	47933.05
546.88	48389.75
547.08	48066.17
547.28	47918.71
547.48	47713.92
547.68	48152.18
547.88	47132.29
548.081	47844.99
548.281	47861.37
548.481	47822.46
548.681	47785.6
548.881	47586.94
549.081	47558.27
549.28	47711.87
549.48	47847.04
549.68	47842.94
549.88	48273.01
550.08	47273.6
550.28	47900.28
550.48	47525.5
550.68	47955.58
550.88	47478.4
551.08	47603.33
551.279	47806.08
551.479	47392.39
551.679	47582.85
551.879	47246.98
552.079	47730.3
552.278	47619.71
552.478	47715.97
552.678	47539.84
552.878	47408.77
553.077	47797.88
553.277	47163.01
553.477	47765.12
553.676	47148.68
553.876	47296.13
554.076	47195.78
554.275	47320.71
554.475	46745.23
554.674	47492.74
554.874	47410.82
555.074	46935.69
555.273	47552.13
555.473	47486.59
555.672	46802.57
555.872	46931.59
556.071	46816.91
556.271	47427.2
556.47	47046.28
556.67	46663.31
556.869	47117.96
557.068	46990.98
557.268	46888.59
557.467	47337.09
557.667	46759.56
557.866	46694.03
558.065	46409.36
558.265	46034.58
558.464	46468.75
558.663	46829.19
558.863	45764.25
559.062	46810.76
559.261	45821.59
559.461	46976.65
559.66	45557.41
559.859	46188.18
560.058	46337.68
560.258	46272.15
560.457	45674.14
560.656	46509.71
560.855	45813.4
561.054	45840.03
561.253	45596.32
561.453	46028.44
561.652	45862.55
561.851	45780.63
562.05	45289.12
562.249	45211.3
562.448	45612.7
562.647	45467.3
562.846	45479.58
563.045	45493.92
563.244	45022.89
563.443	45704.86
563.642	45088.42
563.841	45264.55
564.04	44562.09
564.239	45221.54
564.438	44566.19
564.637	45289.12
564.836	45178.53
565.035	44615.34
565.234	44377.78
565.432	44322.48
565.631	44148.4
565.83	44789.42
566.029	44525.23
566.228	44129.97
566.427	44465.84
566.625	44181.17
566.824	43634.36
567.023	44424.88
567.222	43484.86
567.42	44404.4
567.619	43785.91
567.818	43585.21
568.016	43472.57
568.215	43728.57
568.414	43415.23
568.612	44136.12
568.811	43591.36
569.01	43648.7
569.208	42796.74
569.407	43650.75
569.605	42895.05
569.804	43263.68
570.002	42727.11
570.201	43261.63
570.4	42794.7
570.598	42733.26
570.797	42217.17
570.995	42591.95
571.193	41858.77
571.392	42925.77
571.59	41860.82
571.789	42471.12
571.987	42065.62
572.186	42018.52
572.384	41834.2
572.582	42231.5
572.781	42043.09
572.979	41559.77
573.177	41277.15
573.376	41731.8
573.574	41348.83
573.772	41586.39
573.971	40974.05
574.169	40972
574.367	40929
574.565	41281.25
574.763	40834.79
574.962	40433.39
575.16	40296.17
575.358	40937.19
575.556	40496.88
575.754	41158.37
575.952	40152.82
576.151	40820.45
576.349	40466.16
576.547	39999.22
576.745	40242.93
576.943	40382.19
577.141	40181.49
577.339	40300.27
577.537	39743.22
577.735	39526.14
577.933	39522.04
578.131	39145.22
578.329	39057.15
578.527	39100.16
578.725	39216.89
578.923	39350.01
579.121	38813.45
579.319	38795.01
579.516	39067.39
579.714	38997.76
579.912	38561.54
580.11	38530.83
580.308	38524.68
580.506	38635.27
580.704	38008.59
580.901	38659.85
581.099	38725.38
581.297	38180.62
581.495	37920.53
581.692	38156.05
581.89	37760.79
582.088	38168.33
582.285	37521.18
582.483	37701.4
582.681	37623.58
582.878	37601.05
583.076	37273.37
583.274	37709.59
583.471	36831.01
583.669	37269.28
583.866	37066.53
584.064	37068.58
584.262	36194.09
584.459	37191.45
584.657	36321.07
584.854	37021.47
585.052	36224.81
585.249	36364.07
585.447	36364.07
585.644	36226.86
585.841	35952.43
586.039	36378.41
586.236	35706.68
586.434	36005.68
586.631	35565.37
586.828	35962.67
587.026	35579.7
587.223	35465.02
587.42	35295.03
587.618	35577.65
587.815	34907.97
588.012	35020.61
588.21	35143.49
588.407	35331.9
588.604	34924.35
588.801	34469.7
588.999	34574.15
589.196	34608.97
589.393	34727.75
589.59	34447.18
589.787	34260.81
589.984	34336.59
590.182	33947.47
590.379	34015.05
590.576	34082.64
590.773	33914.7
590.97	33529.69
591.167	33671
591.364	33175.39
591.561	33691.48
591.758	33361.75
591.955	33429.34
592.152	33376.09
592.349	32884.58
592.546	33410.9
592.743	33161.05
592.94	32446.31
593.137	32862.05
593.334	32618.34
593.531	32368.49
593.727	32708.45
593.924	32376.68
594.121	32249.71
594.318	32419.69
594.515	32126.83
594.712	32272.23
594.908	31942.51
595.105	32339.82
595.302	32003.95
595.499	31790.96
595.696	31629.17
595.892	31213.43
596.089	31405.94
596.286	31573.88
596.482	31520.63
596.679	31244.15
596.876	31061.88
597.072	31119.23
597.269	31336.31
597.466	30865.28
597.662	30646.15
597.859	31082.36
598.055	31162.23
598.252	30498.69
598.448	30492.55
598.645	30312.33
598.841	30332.81
599.038	30121.87
599.234	30404.49
599.431	29937.55
599.627	29874.06
599.824	30201.74
600.02	29751.18
600.217	29677.46
600.413	29505.43
600.609	29331.35
600.806	29302.68
601.002	29693.84
601.198	29036.44
601.395	28821.41
601.591	29056.92
601.787	28948.38
601.984	29067.16
602.18	29073.31
602.376	28897.18
602.572	28602.27
602.769	28643.23
602.965	28444.58
603.161	28585.89
603.357	28125.1
603.553	28290.98
603.75	28471.2
603.946	28123.05
604.142	28288.93
604.338	27602.86
604.534	27873.2
604.73	27817.9
604.926	27535.28
605.122	27459.51
605.318	27215.8
605.514	27498.42
605.71	27228.09
605.906	27219.89
606.102	27316.15
606.298	27207.61
606.494	26990.52
606.69	27129.78
606.886	27346.87
607.082	26912.7
607.278	26808.25
607.474	26851.26
607.67	26814.4
607.866	26437.57
608.062	26924.99
608.257	26195.91
608.453	26269.64
608.649	26611.65
608.845	26367.94
609.041	26304.45
609.236	26501.06
609.432	26507.2
609.628	26585.02
609.824	26529.73
610.019	25935.82
610.215	26316.74
610.411	26148.81
610.606	25991.11
610.802	26105.8
610.998	25913.29
611.193	26361.8
611.389	25450.45
611.584	25638.86
611.78	25602
611.976	25843.66
612.171	25855.95
612.367	25567.18
612.562	25305.04
612.758	25442.26
612.953	25120.73
613.149	25391.06
613.344	25337.81
613.539	25446.35
613.735	25282.52
613.93	25231.32
614.126	24895.45
614.321	25403.35
614.517	25085.91
614.712	25034.71
614.907	24707.04
615.103	25145.3
615.298	24633.31
615.493	25092.05
615.688	24440.8
615.884	25171.93
616.079	24553.44
616.274	24659.93
616.47	24442.85
616.665	24725.47
616.86	24305.63
617.055	24362.98
617.25	24500.19
617.445	24655.84
617.641	24291.3
617.836	24084.45
618.031	24205.28
618.226	24018.92
618.421	23928.81
618.616	24211.43
618.811	23691.24
619.006	24125.41
619.201	23576.56
619.396	23646.19
619.591	23275.51
619.786	23656.43
619.981	22988.79
620.176	23468.02
620.371	23085.05
620.566	23232.5
620.761	22845.43
620.956	23062.52
621.151	22718.46
621.346	23001.08
621.541	22282.24
621.735	22509.57
621.93	22108.16
622.125	22360.06
622.32	22185.99
622.515	22177.79
622.709	21893.13
622.904	21946.37
623.099	21950.47
623.294	21854.22
623.488	21483.53
623.683	21665.8
623.878	20846.62
624.072	21403.66
624.267	21307.41
624.462	21020.69
624.656	20650.01
624.851	20830.23
625.046	20594.72
625.24	20520.99
625.435	20379.68
625.629	20381.73
625.824	20396.06
626.018	20111.39
626.213	19707.94
626.407	19947.56
626.602	19509.29
626.796	19761.19
626.991	19527.72
627.185	19343.41
627.38	19271.73
627.574	19181.62
627.768	19089.46
627.963	19003.44
628.157	18950.2
628.352	19175.47
628.546	18567.23
628.74	18808.89
628.935	18602.04
629.129	18516.03
629.323	18313.28
629.517	18339.9
629.712	18131.01
629.906	17995.84
630.1	17801.29
630.294	18137.15
630.489	17594.44
630.683	17985.6
630.877	17313.87
631.071	17639.5
631.265	17508.43
631.459	17334.35
631.653	17174.61
631.848	17340.49
632.042	17127.5
632.236	17127.5
632.43	16742.49
632.624	17059.92
632.818	16855.12
633.012	16445.53
633.206	16699.48
633.4	16482.39
633.594	16339.04
633.788	16044.13
633.982	16474.2
634.176	16124
634.369	16064.61
634.563	15988.83
634.757	15888.48
634.951	15718.5
635.145	15853.67
635.339	15601.77
635.533	15607.91
635.726	15530.09
635.92	15372.39
636.114	15640.68
636.308	15478.89
636.501	15300.72
636.695	15358.06
636.889	15161.45
637.083	15104.11
637.276	14948.47
637.47	14866.55
637.664	14751.86
637.857	14846.07
638.051	14688.37
638.244	14473.34
638.438	14497.91
638.632	14151.81
638.825	14241.92
639.019	14346.36
639.212	14067.84
639.406	14325.88
639.599	13998.21
639.793	14076.03
639.986	13680.77
640.18	13940.86
640.373	13734.02
640.567	13596.81
640.76	13498.5
640.954	13662.34
641.147	13564.04
641.34	13351.05
641.534	13351.05
641.727	13416.58
641.92	13181.07
642.114	13115.53
642.307	13050
642.5	12935.31
642.694	12875.92
642.887	12802.19
643.08	12963.98
643.273	12857.49
643.467	12677.27
643.66	12667.03
643.853	12419.22
644.046	12370.07
644.239	12396.7
644.432	12230.81
644.626	12198.04
644.819	12116.12
645.012	12152.99
645.205	12069.02
645.398	12054.69
645.591	11827.36
645.784	12046.49
645.977	11632.8
646.17	11894.94
646.363	11655.33
646.556	11606.18
646.749	11692.19
646.942	11571.36
647.135	11239.59
647.328	11485.35
647.521	11221.16
647.714	11235.5
647.907	11243.69
648.099	11086
648.292	11100.33
648.485	11294.89
648.678	10928.3
648.871	10985.65
649.064	10916.01
649.256	10969.26
649.449	10764.47
649.642	10760.37
649.835	10731.7
650.027	10786.99
650.22	10516.66
650.413	10365.11
650.605	10344.63
650.798	10393.78
650.991	10102.97
651.183	10555.57
651.376	10098.88
651.568	10352.82
651.761	9955.52
651.954	10019
652.146	10111.16
652.339	9980.09
652.531	9996.48
652.724	9699.52
652.916	9959.61
653.109	9650.37
653.301	9795.78
653.494	9662.66
653.686	9484.48
653.879	9488.58
654.071	9636.03
654.263	9353.41
654.456	9394.37
654.648	9623.75
654.84	9359.56
655.033	9281.74
655.225	9173.19
655.417	9078.99
655.61	9347.27
655.802	9406.66
655.994	9144.52
656.186	8952.01
656.379	8988.88
656.571	8939.72
656.763	8732.88
656.955	8952.01
657.148	8872.14
657.34	8636.63
657.532	8648.91
657.724	8509.65
657.916	8575.19
658.108	8523.99
658.3	8493.27
658.492	8435.92
658.684	8376.53
658.876	8347.86
659.068	8255.7
659.26	8343.77
659.452	8276.18
659.644	8259.8
659.836	8184.02
660.028	8079.58
660.22	7991.52
660.412	7979.23
660.604	7860.45
660.796	7700.7
660.988	8057.05
661.18	7850.21
661.372	7823.58
661.563	7885.02
661.755	7821.53
661.947	7682.27
662.139	7651.55
662.331	7651.55
662.522	7655.65
662.714	7598.31
662.906	7379.17
663.097	7522.53
663.289	7430.37
663.481	7262.44
663.673	7364.84
663.864	7233.77
664.056	7334.12
664.247	7086.31
664.439	7127.27
664.631	7164.14
664.822	7028.97
665.014	7080.17
665.205	7016.68
665.397	7020.78
665.588	6942.96
665.78	6928.62
665.971	6904.04
666.163	6781.17
666.354	6742.25
666.546	6834.41
666.737	6781.17
666.929	6748.4
667.12	6566.13
667.311	6609.14
667.503	6588.66
667.694	6678.77
667.885	6525.17
668.077	6539.51
668.268	6490.35
668.459	6369.52
668.651	6525.17
668.842	6611.18
669.033	6326.52
669.224	6226.17
669.416	6205.69
669.607	6355.19
669.798	6185.21
669.989	6385.91
670.18	6244.6
670.371	6211.83
670.563	6115.58
670.754	6146.3
670.945	6027.51
671.136	6224.12
671.327	6103.29
671.518	5798.14
671.709	6002.94
671.9	6002.94
672.091	6043.9
672.282	5925.11
672.473	5835
672.664	5720.32
672.855	5812.48
673.046	5781.76
673.237	5855.48
673.428	5708.03
673.619	5697.79
673.809	5853.44
674	5658.88
674.191	5701.89
674.382	5630.21
674.573	5662.97
674.764	5613.82
674.954	5576.96
675.145	5429.51
675.336	5517.57
675.527	5499.14
675.717	5439.75
675.908	5273.86
676.099	5396.74
676.289	5398.79
676.48	5355.78
676.671	5177.61
676.861	5284.1
677.052	5214.47
677.243	5218.57
677.433	5206.28
677.624	5269.76
677.814	5099.78
678.005	5374.21
678.195	5159.17
678.386	5126.41
678.576	5230.85
678.767	4970.76
678.957	5212.42
679.148	5136.65
679.338	5132.55
679.529	5101.83
679.719	5056.78
679.909	4925.71
680.1	5089.54
680.29	4987.15
680.481	4837.64
680.671	4981
680.861	4985.1
681.052	4901.13
681.242	4765.96
681.432	4917.51
681.622	4833.55
681.813	4798.73
682.003	4825.36
682.193	4851.98
682.383	4739.34
682.573	4690.19
682.764	4569.36
682.954	4733.2
683.144	4692.24
683.334	4659.47
683.524	4610.32
683.714	4522.26
683.904	4526.35
684.094	4704.53
684.284	4591.89
684.474	4636.94
684.664	4364.56
684.854	4448.53
685.044	4641.04
685.234	4350.23
685.424	4561.17
685.614	4376.85
685.804	4569.36
685.994	4391.19
686.184	4327.7
686.374	4352.27
686.564	4397.33
686.753	4555.02
686.943	4284.69
687.133	4315.41
687.323	4290.84
687.513	4325.65
687.702	4266.26
687.892	4217.11
688.082	4268.31
688.272	4149.53
688.461	4170.01
688.651	4094.23
688.841	4122.9
689.03	3963.16
689.22	4012.31
689.41	4049.18
689.599	4129.05
689.789	4112.66
689.979	4012.31
690.168	4034.84
690.358	3864.86
690.547	4012.31
690.737	3971.35
690.926	3856.67
691.116	3778.84
691.305	3950.87
691.495	3832.09
691.684	3825.95
691.874	3856.67
692.063	3840.28
692.252	3803.42
692.442	3856.67
692.631	3809.56
692.82	3817.76
693.01	3664.16
693.199	3598.62
693.388	3643.68
693.578	3686.69
693.767	3569.95
693.956	3694.88
694.146	3690.78
694.335	3528.99
694.524	3635.49
694.713	3729.69
694.902	3586.33
695.092	3615.01
695.281	3588.38
695.47	3586.33
695.659	3471.65
695.848	3512.61
696.037	3432.74
696.226	3524.9
696.415	3434.78
696.604	3445.02
696.793	3344.67
696.982	3483.94
697.171	3377.44
697.36	3399.97
697.549	3381.54
697.738	3352.87
697.927	3369.25
698.116	3459.36
698.305	3330.34
698.494	3342.63
698.683	3344.67
698.872	3393.83
699.061	3299.62
699.25	3309.86
699.438	3293.48
699.627	3281.19
699.816	3258.66
700.005	3295.52
700.193	3211.56
700.382	3234.08
700.571	3256.61
700.76	3203.36
700.948	3250.47
701.137	3197.22
701.326	3289.38
701.514	3197.22
701.703	3236.13
701.892	3217.7
702.08	3283.24
702.269	3186.98
702.457	3152.17
702.646	3211.56
702.834	3096.87
703.023	3176.74
703.212	2990.38
703.4	3080.49
703.589	3162.41
703.777	3068.2
703.965	2988.33
704.154	3100.97
704.342	2922.79
704.531	3006.76
704.719	2949.42
704.907	3060.01
705.096	3029.29
705.284	2937.13
705.472	3014.95
705.661	2957.61
705.849	3029.29
706.037	3074.34
706.226	2973.99
706.414	3002.66
706.602	2941.22
706.79	3031.34
706.979	2980.14
707.167	3057.96
707.355	2906.41
707.543	2933.03
707.731	2978.09
707.919	2933.03
708.107	2939.18
708.296	2873.64
708.484	2842.92
708.672	2904.36
708.86	2904.36
709.048	2730.28
709.236	2857.26
709.424	2951.46
709.612	2804.01
709.8	2928.94
709.988	2685.23
710.176	2857.26
710.364	2853.16
710.551	2771.24
710.739	2763.05
710.927	2720.04
711.115	2824.49
711.303	2836.78
711.491	2763.05
711.679	2881.83
711.866	2900.27
712.054	2914.6
712.242	2726.19
712.43	2771.24
712.617	2777.39
712.805	2627.89
712.993	2896.17
713.181	2677.04
713.368	2795.82
713.556	2779.43
713.744	2605.36
713.931	2810.15
714.119	2668.84
714.306	2785.58
714.494	2761
714.682	2668.84
714.869	2631.98
715.057	2629.93
715.244	2670.89
715.432	2701.61
715.619	2679.08
715.807	2695.47
715.994	2767.15
716.182	2611.5
716.369	2595.12
716.556	2603.31
716.744	2623.79
716.931	2705.71
717.119	2652.46
717.306	2582.83
717.493	2629.93
717.681	2507.06
717.868	2556.21
718.055	2568.49
718.242	2644.27
718.43	2599.21
718.617	2537.77
718.804	2545.97
718.991	2488.62
719.179	2668.84
719.366	2517.29
719.553	2631.98
719.74	2537.77
719.927	2505.01
720.114	2453.81
720.301	2480.43
720.488	2521.39
720.676	2414.9
720.863	2597.17
721.05	2449.71
721.237	2529.58
721.424	2564.4
721.611	2474.29
721.798	2449.71
721.985	2427.18
722.172	2433.33
722.358	2433.33
722.545	2513.2
722.732	2423.09
722.919	2341.17
723.106	2365.75
723.293	2515.25
723.48	2435.38
723.667	2488.62
723.853	2455.86
724.04	2431.28
724.227	2277.68
724.414	2341.17
724.6	2398.51
724.787	2375.99
724.974	2414.9
725.161	2382.13
725.347	2347.31
725.534	2347.31
725.72	2378.03
725.907	2433.33
726.094	2373.94
726.28	2435.38
726.467	2355.51
726.653	2222.39
726.84	2341.17
727.027	2392.37
727.213	2300.21
727.4	2363.7
727.586	2308.4
727.773	2263.35
727.959	2335.03
728.145	2332.98
728.332	2246.96
728.518	2339.12
728.705	2345.27
728.891	2314.55
729.077	2193.72
729.264	2226.48
729.45	2318.64
729.636	2259.25
729.823	2210.1
730.009	2339.12
730.195	2300.21
730.382	2341.17
730.568	2177.33
730.754	2195.76
730.94	2259.25
731.126	2201.91
731.313	2238.77
731.499	2230.58
731.685	2185.52
731.871	2203.96
732.057	2158.9
732.243	2199.86
732.429	2119.99
732.615	2292.02
732.801	2238.77
732.987	2122.04
733.173	2160.95
733.359	2128.18
733.545	2079.03
733.731	2138.42
733.917	2140.47
734.103	2208.05
734.289	2197.81
734.475	2060.6
734.661	2148.66
734.847	2115.89
735.033	2224.44
735.219	2136.37
735.404	2195.76
735.59	2093.37
735.776	2015.54
735.962	2033.97
736.148	2197.81
736.333	2105.65
736.519	2165.04
736.705	2126.13
736.89	2087.22
737.076	2056.5
737.262	2001.21
737.447	2132.28
737.633	2105.65
737.819	2005.3
738.004	2031.93
738.19	2021.69
738.375	1968.44
738.561	2033.97
738.747	2013.49
738.932	2038.07
739.118	2126.13
739.303	1911.1
739.489	1956.15
739.674	1982.78
739.859	2042.17
740.045	1896.76
740.23	1952.06
740.416	1947.96
740.601	1753.4
740.786	1866.04
740.972	1872.18
741.157	1923.38
741.342	1921.34
741.528	1927.48
741.713	1904.95
741.898	1915.19
742.084	1857.85
742.269	1945.91
742.454	1902.9
742.639	1933.62
742.824	1907
743.01	1947.96
743.195	2005.3
743.38	1853.75
743.565	1904.95
743.75	1853.75
743.935	1841.47
744.12	1808.7
744.305	1702.2
744.49	1671.48
744.675	1808.7
744.86	1761.59
745.045	1745.21
745.23	1751.35
745.415	1687.87
745.6	1765.69
745.785	1788.22
745.97	1718.59
746.155	1734.97
746.34	1716.54
746.525	1655.1
746.71	1734.97
746.895	1620.28
747.079	1603.9
747.264	1595.71
747.449	1702.2
747.634	1624.38
747.819	1704.25
748.003	1564.99
748.188	1581.37
748.373	1622.33
748.557	1614.14
748.742	1608
748.927	1593.66
749.111	1591.61
749.296	1481.02
749.481	1567.04
749.665	1497.41
749.85	1501.5
750.034	1497.41
750.219	1509.69
750.404	1526.08
750.588	1524.03
750.773	1388.86
750.957	1538.37
751.141	1352
751.326	1417.54
751.51	1343.81
751.695	1413.44
751.879	1390.91
752.064	1491.26
752.248	1349.95
752.432	1450.3
752.617	1323.33
752.801	1427.78
752.985	1419.58
753.17	1333.57
753.354	1333.57
753.538	1349.95
753.722	1286.47
753.907	1390.91
754.091	1259.84
754.275	1286.47
754.459	1274.18
754.643	1229.12
754.828	1317.19
755.012	1356.1
755.196	1124.68
755.38	1179.97
755.564	1177.92
755.748	1202.5
755.932	1153.35
756.116	1255.75
756.3	1239.36
756.484	1128.77
756.668	1173.83
756.852	1100.1
757.036	1173.83
757.22	1167.68
757.404	1112.39
757.588	1147.2
757.772	1208.64
757.956	1145.16
758.14	1186.12
758.323	1114.44
758.507	1108.29
758.691	1087.81
758.875	1044.81
759.059	1077.57
759.242	1063.24
759.426	1079.62
759.61	1063.24
759.794	1083.72
759.977	1116.48
760.161	1126.72
760.345	1014.09
760.528	1040.71
760.712	1012.04
760.895	1046.85
761.079	1038.66
761.263	997.7
761.446	944.45
761.63	932.17
761.813	973.13
761.997	966.98
762.18	915.78
762.364	952.65
762.547	899.4
762.731	958.79
762.914	893.26
763.098	973.13
763.281	930.12
763.464	948.55
763.648	1046.85
763.831	915.78
764.015	913.74
764.198	962.89
764.381	897.35
764.564	932.17
764.748	944.45
764.931	964.93
765.114	829.77
765.297	901.45
765.481	899.4
765.664	887.11
765.847	923.98
766.03	907.59
766.213	895.3
766.397	866.63
766.58	856.39
766.763	952.65
766.946	805.19
767.129	870.73
767.312	852.3
767.495	899.4
767.678	827.72
767.861	854.34
768.044	846.15
768.227	850.25
768.41	831.82
768.593	809.29
768.776	799.05
768.959	878.92
769.142	854.34
769.324	786.76
769.507	801.1
769.69	749.9
769.873	708.94
770.056	801.1
770.239	760.14
770.421	893.26
770.604	801.1
770.787	809.29
770.97	762.19
771.152	827.72
771.335	842.06
771.518	792.91
771.7	852.3
771.883	852.3
772.066	715.08
772.248	874.82
772.431	764.23
772.613	758.09
772.796	751.95
772.978	817.48
773.161	727.37
773.343	772.43
773.526	614.73
773.708	682.31
773.891	661.84
774.073	717.13
774.256	629.07
774.438	784.71
774.621	741.71
774.803	678.22
774.985	653.64
775.168	653.64
775.35	670.03
775.532	719.18
775.715	608.59
775.897	678.22
776.079	645.45
776.261	579.92
776.444	645.45
776.626	667.98
776.808	563.53
776.99	622.92
777.173	629.07
777.355	661.84
777.537	665.93
777.719	610.64
777.901	690.51
778.083	604.49
778.265	575.82
778.447	588.11
778.629	657.74
778.811	514.38
778.993	614.73
779.175	616.78
779.357	588.11
779.539	602.44
779.721	600.4
779.903	620.88
780.085	565.58
780.267	532.81
780.449	500.05
780.631	643.4
780.812	586.06
780.994	559.44
781.176	559.44
781.358	520.53
781.54	477.52
781.721	567.63
781.903	473.42
782.085	489.81
782.267	473.42
782.448	452.94
782.63	448.85
782.812	432.46
782.993	547.15
783.175	469.33
783.357	436.56
783.538	520.53
783.72	432.46
783.901	418.13
784.083	549.2
784.264	516.43
784.446	434.51
784.627	430.41
784.809	444.75
784.99	457.04
785.172	526.67
785.353	473.42
785.535	411.98
785.716	368.98
785.897	440.65
786.079	401.74
786.26	368.98
786.441	465.23
786.623	424.27
786.804	368.98
786.985	348.5
787.167	473.42
787.348	411.98
787.529	428.37
787.71	475.47
787.891	348.5
788.073	385.36
788.254	317.78
788.435	391.5
788.616	383.31
788.797	368.98
788.978	342.35
789.159	385.36
789.34	428.37
789.522	358.74
789.703	276.82
789.884	354.64
790.065	366.93
790.246	315.73
790.427	346.45
790.607	358.74
790.788	409.94
790.969	348.5
791.15	444.75
791.331	315.73
791.512	317.78
791.693	321.87
791.874	375.12
792.054	350.54
792.235	340.3
792.416	196.95
792.597	270.67
792.778	350.54
792.958	411.98
793.139	268.63
793.32	280.91
793.5	293.2
793.681	383.31
793.862	293.2
794.042	342.35
794.223	317.78
794.404	248.15
794.584	217.43
794.765	229.71
794.945	342.35
795.126	276.82
795.306	282.96
795.487	287.06
795.667	301.39
795.848	235.86
796.028	289.1
796.209	256.34
796.389	338.26
796.57	264.53
796.75	262.48
796.93	209.23
797.111	180.56
797.291	244.05
797.471	315.73
797.652	227.67
797.832	205.14
798.012	278.87
798.192	291.15
798.373	235.86
798.553	211.28
798.733	221.52
798.913	239.95
799.093	256.34
799.274	239.95
799.454	272.72
799.634	262.48
799.814	285.01
799.994	180.56
800.174	229.71
800.354	192.85
800.534	254.29
800.714	219.47
800.894	246.1
801.074	178.51
801.254	231.76
801.434	235.86
801.614	231.76
801.794	164.18
801.974	809.29
802.154	198.99
802.334	153.94
802.514	149.84
802.693	207.19
802.873	172.37
803.053	342.35
803.233	180.56
803.413	170.32
803.592	248.15
803.772	170.32
803.952	244.05
804.131	188.75
804.311	137.56
804.491	260.43
804.67	213.33
804.85	129.36
805.03	188.75
805.209	270.67
805.389	252.24
805.568	207.19
805.748	260.43
805.928	223.57
806.107	252.24
806.287	166.23
806.466	164.18
806.646	198.99
806.825	180.56
807.004	160.08
807.184	176.47
807.363	164.18
807.543	170.32
807.722	207.19
807.901	135.51
808.081	178.51
808.26	110.93
808.439	147.8
808.619	217.43
808.798	188.75
808.977	158.03
809.156	211.28
809.336	170.32
809.515	211.28
809.694	125.27
809.873	219.47
810.052	129.36
810.231	196.95
810.411	221.52
810.59	194.9
810.769	155.99
810.948	112.98
811.127	143.7
811.306	188.75
811.485	137.56
811.664	221.52
811.843	151.89
812.022	80.21
812.201	149.84
812.38	137.56
812.559	131.41
812.737	213.33
812.916	96.6
813.095	186.71
813.274	151.89
813.453	213.33
813.632	227.67
813.811	166.23
813.989	55.64
814.168	129.36
814.347	186.71
814.526	162.13
814.704	211.28
814.883	176.47
815.062	57.68
815.24	162.13
815.419	31.06
815.598	174.42
815.776	72.02
815.955	149.84
816.133	51.54
816.312	112.98
816.49	121.17
816.669	123.22
816.847	121.17
817.026	96.6
817.204	203.09
817.383	112.98
817.561	110.93
817.74	145.75
817.918	174.42
818.097	55.64
818.275	145.75
818.453	90.45
818.632	94.55
818.81	153.94
818.988	129.36
819.167	106.84
819.345	145.75
819.523	61.78
819.701	125.27
819.879	47.44
820.058	119.12
820.236	137.56
820.414	117.08
820.592	121.17
820.77	133.46
820.948	33.11
821.127	117.08
821.305	182.61
821.483	31.06
821.661	121.17
821.839	123.22
822.017	86.36
822.195	182.61
822.373	96.6
822.551	102.74
822.729	96.6
822.907	94.55
823.085	72.02
823.262	123.22
823.44	26.96
823.618	63.83
823.796	121.17
823.974	153.94
824.152	72.02
824.329	51.54
824.507	98.64
824.685	90.45
824.863	57.68
825.04	125.27
825.218	82.26
825.396	63.83
825.574	125.27
825.751	63.83
825.929	123.22
826.107	84.31
826.284	47.44
826.462	119.12
826.639	43.35
826.817	33.11
826.994	55.64
827.172	22.87
827.349	164.18
827.527	31.06
827.704	104.79
827.882	92.5
828.059	141.65
828.237	72.02
828.414	53.59
828.591	78.16
828.769	80.21
828.946	72.02
829.124	84.31
829.301	74.07
829.478	104.79
829.655	104.79
829.833	129.36
830.01	88.4
830.187	129.36
830.364	33.11
830.542	55.64
830.719	147.8
830.896	80.21
831.073	49.49
831.25	155.99
831.427	72.02
831.604	72.02
831.782	47.44
831.959	98.64
832.136	84.31
832.313	162.13
832.49	90.45
832.667	63.83
832.844	72.02
833.021	104.79
833.198	67.92
833.374	74.07
833.551	51.54
833.728	108.88
833.905	55.64
834.082	51.54
834.259	49.49
834.436	33.11
834.612	4.44
834.789	141.65
834.966	51.54
835.143	139.6
835.319	65.88
835.496	86.36
835.673	84.31
835.85	92.5
836.026	96.6
836.203	55.64
836.38	96.6
836.556	67.92
836.733	22.87
836.909	76.12
837.086	80.21
837.262	80.21
837.439	74.07
837.616	61.78
837.792	47.44
837.968	47.44
838.145	31.06
838.321	20.82
838.498	69.97
838.674	59.73
838.851	67.92
839.027	33.11
839.203	90.45
839.38	22.87
839.556	8.53
839.732	117.08
839.909	33.11
840.085	104.79
840.261	74.07
840.437	37.2
840.614	35.16
840.79	129.36
840.966	65.88
841.142	31.06
841.318	26.96
841.494	145.75
841.671	106.84
841.847	45.4
842.023	-36.52
842.199	112.98
842.375	22.87
842.551	74.07
842.727	26.96
842.903	55.64
843.079	0.34
843.255	57.68
843.431	-22.19
843.607	22.87
843.783	20.82
843.959	86.36
844.134	78.16
844.31	133.46
844.486	-11.95
844.662	33.11
844.838	-28.33
845.013	22.87
845.189	47.44
845.365	129.36
845.541	78.16
845.716	14.68
845.892	76.12
846.068	39.25
846.244	76.12
846.419	16.73
846.595	14.68
846.77	47.44
846.946	55.64
847.122	18.77
847.297	-1.71
847.473	121.17
847.648	-9.9
847.824	18.77
847.999	88.4
848.175	59.73
848.35	59.73
848.526	125.27
848.701	-5.8
848.876	51.54
849.052	26.96
849.227	41.3
849.403	72.02
849.578	72.02
849.753	37.2
849.929	63.83
850.104	31.06
850.279	22.87
850.454	-26.28
850.63	33.11
850.805	55.64
850.98	39.25
851.155	10.58
851.33	49.49
851.505	55.64
851.681	121.17
851.856	-32.43
852.031	74.07
852.206	6.49
852.381	-1.71
852.556	33.11
852.731	-18.09
852.906	-7.85
853.081	65.88
853.256	115.03
853.431	80.21
853.606	69.97
853.781	-48.81
853.956	-34.47
854.131	108.88
854.305	35.16
854.48	80.21
854.655	-24.23
854.83	8.53
855.005	88.4
855.18	-5.8
855.354	41.3
855.529	-1.71
855.704	80.21
855.879	88.4
856.053	-13.99
856.228	8.53
856.403	-28.33
856.577	-24.23
856.752	39.25
856.926	84.31
857.101	39.25
857.276	90.45
857.45	108.88
857.625	45.4
857.799	14.68
857.974	-1.71
858.148	-26.28
858.323	24.92
858.497	29.01
858.672	31.06
858.846	35.16
859.02	141.65
859.195	-26.28
859.369	67.92
859.543	16.73
859.718	12.63
859.892	39.25
860.066	55.64
860.241	-24.23
860.415	-18.09
860.589	18.77
860.763	14.68
860.938	26.96
861.112	-24.23
861.286	-5.8
861.46	151.89
861.634	29.01
861.808	63.83
861.982	8.53
862.157	-87.72
862.331	2.39
862.505	31.06
862.679	55.64
862.853	16.73
863.027	16.73
863.201	108.88
863.375	-30.38
863.549	-13.99
863.722	-5.8
863.896	16.73
864.07	18.77
864.244	0.34
864.418	12.63
864.592	57.68
864.766	-26.28
864.939	82.26
865.113	69.97
865.287	14.68
865.461	31.06
865.634	24.92
865.808	-16.04
865.982	24.92
866.156	6.49
866.329	31.06
866.503	31.06
866.676	47.44
866.85	59.73
867.024	6.49
867.197	57.68
867.371	6.49
867.544	20.82
867.718	-81.58
867.891	8.53
868.065	2.39
868.238	-11.95
868.412	-46.76
868.585	18.77
868.759	16.73
868.932	8.53
869.105	-9.9
869.279	63.83
869.452	18.77
869.625	-26.28
869.799	-9.9
869.972	26.96
870.145	63.83
870.319	24.92
870.492	-1.71
870.665	14.68
870.838	-48.81
871.011	-1.71
871.185	31.06
871.358	31.06
871.531	72.02
871.704	-28.33
871.877	4.44
872.05	29.01
872.223	-40.62
872.396	-5.8
872.569	0.34
872.742	-1.71
872.915	67.92
873.088	-5.8
873.261	-9.9
873.434	35.16
873.607	74.07
873.78	51.54
873.953	-9.9
874.126	39.25
874.299	41.3
874.471	16.73
874.644	22.87
874.817	51.54
874.99	33.11
875.163	16.73
875.335	51.54
875.508	-46.76
875.681	76.12
875.853	-65.19
876.026	26.96
876.199	41.3
876.371	31.06
876.544	39.25
876.717	14.68
876.889	16.73
877.062	-18.09
877.234	-75.43
877.407	6.49
877.579	26.96
877.752	59.73
877.924	-42.67
878.097	47.44
878.269	-28.33
878.442	-50.86
878.614	72.02
878.786	10.58
878.959	-16.04
879.131	74.07
879.303	-63.15
879.476	-26.28
879.648	2.39
879.82	24.92
879.993	33.11
880.165	-16.04
880.337	-42.67
880.509	55.64
880.681	59.73
880.854	-1.71
881.026	-11.95
881.198	96.6
881.37	14.68
881.542	65.88
881.714	33.11
881.886	-42.67
882.058	-9.9
882.23	-13.99
882.402	65.88
882.574	18.77
882.746	31.06
882.918	-24.23
883.09	49.49
883.262	41.3
883.434	47.44
883.606	-46.76
883.778	-1.71
883.95	82.26
884.122	-24.23
884.293	104.79
884.465	-16.04
884.637	41.3
884.809	-18.09
884.98	47.44
885.152	63.83
885.324	24.92
885.496	53.59
885.667	-7.85
885.839	8.53
886.011	53.59
886.182	16.73
886.354	37.2
886.525	41.3
886.697	-9.9
886.869	-42.67
887.04	76.12
887.212	41.3
887.383	72.02
887.555	-13.99
887.726	26.96
887.897	8.53
888.069	69.97
888.24	14.68
888.412	24.92
888.583	33.11
888.754	-7.85
888.926	31.06
889.097	49.49
889.268	-38.57
889.44	33.11
889.611	-38.57
889.782	-73.39
889.953	41.3
890.125	8.53
890.296	-18.09
890.467	35.16
890.638	-34.47
890.809	-38.57
890.98	6.49
891.151	8.53
891.323	65.88
891.494	-79.53
891.665	-26.28
891.836	18.77
892.007	8.53
892.178	-7.85
892.349	31.06
892.52	-1.71
892.691	-20.14
892.862	45.4
893.032	14.68
893.203	-5.8
893.374	4.44
893.545	-63.15
893.716	-5.8
893.887	2.39
894.057	14.68
894.228	31.06
894.399	-3.75
894.57	51.54
894.74	-9.9
894.911	39.25
895.082	-75.43
895.253	31.06
895.423	-46.76
895.594	6.49
895.764	18.77
895.935	-16.04
896.106	16.73
896.276	-30.38
896.447	22.87
896.617	-54.95
896.788	-24.23
896.958	-11.95
897.129	-46.76
897.299	-13.99
897.47	108.88
897.64	14.68
897.81	-81.58
897.981	22.87
898.151	-50.86
898.322	35.16
898.492	47.44
898.662	-26.28
898.832	0.34
899.003	-9.9
899.173	0.34
899.343	-32.43
899.513	-5.8
