Data from USB4F104151__23__14-16-15-397.txt Node

Date: Thu Mar 13 14:16:15 EDT 2025
User: louis
Spectrometer: USB4F10415
Trigger mode: 4
Integration Time (sec): 2.000000E-2
Scans to average: 1
Electric dark correction enabled: true
Nonlinearity correction enabled: false
Boxcar width: 0
XAxis mode: Wavelengths
Number of Pixels in Spectrum: 3648
>>>>>Begin Spectral Data<<<<<
178.204	-74.41
178.424	-74.41
178.644	-74.41
178.864	-156.33
179.084	-115.37
179.304	-25.26
179.524	-25.26
179.744	-31.4
179.964	66.9
180.184	56.66
180.404	-49.83
180.624	-31.4
180.844	-37.55
181.064	-6.83
181.283	11.61
181.503	40.28
181.723	32.08
181.943	-33.45
182.163	68.95
182.383	-58.03
182.602	27.99
182.822	-23.21
183.042	34.13
183.262	13.65
183.482	-8.87
183.701	-37.55
183.921	64.85
184.141	3.41
184.361	64.85
184.58	-0.68
184.8	23.89
185.02	73.04
185.239	48.47
185.459	34.13
185.679	-4.78
185.898	68.95
186.118	48.47
186.338	38.23
186.557	93.52
186.777	19.8
186.997	73.04
187.216	56.66
187.436	126.29
187.655	9.56
187.875	40.28
188.095	85.33
188.314	62.8
188.534	44.37
188.753	23.89
188.973	48.47
189.192	-49.83
189.412	83.28
189.631	46.42
189.851	32.08
190.07	38.23
190.29	34.13
190.509	-0.68
190.729	-39.59
190.948	56.66
191.168	148.82
191.387	52.56
191.607	-4.78
191.826	-41.64
192.045	75.09
192.265	15.7
192.484	56.66
192.704	13.65
192.923	38.23
193.142	71
193.362	46.42
193.581	118.1
193.8	44.37
194.02	11.61
194.239	109.91
194.458	75.09
194.678	17.75
194.897	13.65
195.116	15.7
195.335	32.08
195.555	-21.16
195.774	48.47
195.993	27.99
196.212	50.52
196.432	48.47
196.651	40.28
196.87	68.95
197.089	56.66
197.308	25.94
197.528	17.75
197.747	25.94
197.966	-0.68
198.185	73.04
198.404	36.18
198.623	85.33
198.842	64.85
199.062	40.28
199.281	7.51
199.5	30.04
199.719	52.56
199.938	109.91
200.157	75.09
200.376	58.71
200.595	114
200.814	36.18
201.033	81.24
201.252	25.94
201.471	71
201.69	85.33
201.909	124.24
202.128	42.32
202.347	-0.68
202.566	27.99
202.785	17.75
203.004	52.56
203.223	27.99
203.442	3.41
203.661	27.99
203.879	13.65
204.098	1.37
204.317	-6.83
204.536	9.56
204.755	-15.02
204.974	40.28
205.193	68.95
205.411	140.63
205.63	144.72
205.849	105.81
206.068	68.95
206.287	-15.02
206.505	50.52
206.724	62.8
206.943	30.04
207.162	62.8
207.381	109.91
207.599	-4.78
207.818	7.51
208.037	-12.97
208.255	42.32
208.474	42.32
208.693	46.42
208.911	7.51
209.13	-8.87
209.349	34.13
209.567	-19.11
209.786	-6.83
210.005	11.61
210.223	25.94
210.442	13.65
210.661	56.66
210.879	52.56
211.098	85.33
211.316	25.94
211.535	109.91
211.753	52.56
211.972	17.75
212.191	15.7
212.409	11.61
212.628	23.89
212.846	38.23
213.065	46.42
213.283	134.48
213.502	73.04
213.72	44.37
213.938	95.57
214.157	32.08
214.375	83.28
214.594	44.37
214.812	150.87
215.031	11.61
215.249	52.56
215.467	42.32
215.686	21.84
215.904	91.48
216.122	118.1
216.341	23.89
216.559	-2.73
216.778	7.51
216.996	34.13
217.214	19.8
217.432	60.76
217.651	15.7
217.869	95.57
218.087	50.52
218.306	85.33
218.524	11.61
218.742	-25.26
218.96	34.13
219.179	23.89
219.397	44.37
219.615	95.57
219.833	89.43
220.051	19.8
220.27	56.66
220.488	44.37
220.706	60.76
220.924	64.85
221.142	101.72
221.36	-19.11
221.578	-8.87
221.796	27.99
222.015	58.71
222.233	15.7
222.451	56.66
222.669	1.37
222.887	40.28
223.105	32.08
223.323	-25.26
223.541	19.8
223.759	-12.97
223.977	-31.4
224.195	64.85
224.413	68.95
224.631	89.43
224.849	42.32
225.067	138.58
225.285	73.04
225.503	56.66
225.721	23.89
225.939	48.47
226.157	66.9
226.375	81.24
226.592	-15.02
226.81	58.71
227.028	101.72
227.246	73.04
227.464	-21.16
227.682	48.47
227.9	56.66
228.117	36.18
228.335	27.99
228.553	60.76
228.771	75.09
228.989	62.8
229.206	38.23
229.424	27.99
229.642	-41.64
229.86	34.13
230.077	38.23
230.295	56.66
230.513	7.51
230.731	58.71
230.948	83.28
231.166	91.48
231.384	44.37
231.601	48.47
231.819	124.24
232.037	42.32
232.254	-47.79
232.472	25.94
232.689	40.28
232.907	46.42
233.125	-29.35
233.342	25.94
233.56	11.61
233.777	56.66
233.995	56.66
234.213	7.51
234.43	54.61
234.648	-19.11
234.865	54.61
235.083	97.62
235.3	40.28
235.518	60.76
235.735	56.66
235.953	81.24
236.17	40.28
236.388	73.04
236.605	23.89
236.822	75.09
237.04	64.85
237.257	23.89
237.475	-25.26
237.692	30.04
237.909	75.09
238.127	56.66
238.344	101.72
238.562	36.18
238.779	-25.26
238.996	17.75
239.214	71
239.431	85.33
239.648	-8.87
239.865	-10.92
240.083	138.58
240.3	66.9
240.517	11.61
240.735	58.71
240.952	-53.93
241.169	99.67
241.386	1.37
241.603	9.56
241.821	42.32
242.038	83.28
242.255	-12.97
242.472	73.04
242.689	-0.68
242.907	42.32
243.124	25.94
243.341	-2.73
243.558	-0.68
243.775	36.18
243.992	-66.22
244.209	81.24
244.426	58.71
244.643	109.91
244.86	89.43
245.078	124.24
245.295	60.76
245.512	36.18
245.729	13.65
245.946	11.61
246.163	89.43
246.38	56.66
246.597	44.37
246.814	7.51
247.031	23.89
247.248	5.46
247.464	89.43
247.681	46.42
247.898	9.56
248.115	27.99
248.332	58.71
248.549	7.51
248.766	52.56
248.983	89.43
249.2	32.08
249.417	64.85
249.633	42.32
249.85	44.37
250.067	77.14
250.284	50.52
250.501	44.37
250.717	48.47
250.934	-4.78
251.151	3.41
251.368	17.75
251.585	66.9
251.801	7.51
252.018	34.13
252.235	109.91
252.451	81.24
252.668	75.09
252.885	83.28
253.102	3.41
253.318	77.14
253.535	-8.87
253.752	21.84
253.968	-6.83
254.185	7.51
254.401	15.7
254.618	111.96
254.835	-0.68
255.051	32.08
255.268	56.66
255.484	58.71
255.701	48.47
255.917	60.76
256.134	13.65
256.351	36.18
256.567	75.09
256.784	-45.74
257	36.18
257.217	32.08
257.433	11.61
257.65	60.76
257.866	38.23
258.082	15.7
258.299	19.8
258.515	-17.07
258.732	34.13
258.948	-25.26
259.165	62.8
259.381	68.95
259.597	50.52
259.814	42.32
260.03	-39.59
260.246	13.65
260.463	60.76
260.679	32.08
260.895	56.66
261.112	15.7
261.328	-29.35
261.544	27.99
261.761	99.67
261.977	15.7
262.193	-58.03
262.409	3.41
262.626	-27.31
262.842	81.24
263.058	58.71
263.274	103.76
263.49	64.85
263.707	34.13
263.923	91.48
264.139	-82.6
264.355	3.41
264.571	97.62
264.787	91.48
265.004	114
265.22	5.46
265.436	48.47
265.652	58.71
265.868	32.08
266.084	7.51
266.3	-25.26
266.516	9.56
266.732	89.43
266.948	44.37
267.164	-64.17
267.38	75.09
267.596	32.08
267.812	97.62
268.028	34.13
268.244	42.32
268.46	50.52
268.676	27.99
268.892	52.56
269.108	-0.68
269.324	40.28
269.54	-6.83
269.756	73.04
269.972	77.14
270.188	40.28
270.403	97.62
270.619	58.71
270.835	-12.97
271.051	25.94
271.267	52.56
271.483	44.37
271.698	105.81
271.914	48.47
272.13	40.28
272.346	-27.31
272.562	40.28
272.777	105.81
272.993	81.24
273.209	85.33
273.425	23.89
273.64	54.61
273.856	56.66
274.072	32.08
274.287	116.05
274.503	58.71
274.719	56.66
274.934	62.8
275.15	-25.26
275.366	7.51
275.581	-86.7
275.797	89.43
276.012	-41.64
276.228	73.04
276.444	-17.07
276.659	52.56
276.875	-8.87
277.09	64.85
277.306	13.65
277.521	54.61
277.737	40.28
277.952	73.04
278.168	-0.68
278.383	-17.07
278.599	5.46
278.814	68.95
279.03	56.66
279.245	40.28
279.461	15.7
279.676	17.75
279.892	64.85
280.107	161.11
280.322	68.95
280.538	44.37
280.753	52.56
280.969	-6.83
281.184	50.52
281.399	64.85
281.615	-12.97
281.83	134.48
282.045	9.56
282.26	11.61
282.476	1.37
282.691	38.23
282.906	91.48
283.122	-4.78
283.337	3.41
283.552	52.56
283.767	60.76
283.983	40.28
284.198	50.52
284.413	79.19
284.628	-33.45
284.843	48.47
285.058	73.04
285.274	32.08
285.489	-23.21
285.704	68.95
285.919	81.24
286.134	40.28
286.349	-2.73
286.564	73.04
286.779	93.52
286.995	15.7
287.21	-107.18
287.425	48.47
287.64	25.94
287.855	50.52
288.07	-4.78
288.285	50.52
288.5	105.81
288.715	116.05
288.93	19.8
289.145	27.99
289.36	93.52
289.575	87.38
289.79	50.52
290.004	58.71
290.219	48.47
290.434	56.66
290.649	9.56
290.864	114
291.079	19.8
291.294	73.04
291.509	27.99
291.724	52.56
291.938	-8.87
292.153	60.76
292.368	7.51
292.583	75.09
292.798	79.19
293.012	27.99
293.227	71
293.442	-31.4
293.657	103.76
293.871	64.85
294.086	38.23
294.301	50.52
294.516	7.51
294.73	48.47
294.945	122.2
295.16	48.47
295.374	48.47
295.589	17.75
295.804	13.65
296.018	9.56
296.233	75.09
296.447	25.94
296.662	25.94
296.877	122.2
297.091	77.14
297.306	107.86
297.52	15.7
297.735	73.04
297.949	83.28
298.164	40.28
298.378	19.8
298.593	-19.11
298.807	7.51
299.022	48.47
299.236	89.43
299.451	81.24
299.665	19.8
299.88	44.37
300.094	38.23
300.309	56.66
300.523	1.37
300.737	79.19
300.952	17.75
301.166	132.44
301.381	-12.97
301.595	68.95
301.809	-8.87
302.024	7.51
302.238	21.84
302.452	97.62
302.667	7.51
302.881	81.24
303.095	89.43
303.309	23.89
303.524	5.46
303.738	83.28
303.952	-29.35
304.166	48.47
304.381	17.75
304.595	97.62
304.809	32.08
305.023	46.42
305.237	64.85
305.452	68.95
305.666	7.51
305.88	97.62
306.094	40.28
306.308	11.61
306.522	17.75
306.736	83.28
306.95	23.89
307.164	27.99
307.379	19.8
307.593	73.04
307.807	154.96
308.021	85.33
308.235	73.04
308.449	-23.21
308.663	46.42
308.877	109.91
309.091	1.37
309.305	66.9
309.519	50.52
309.733	50.52
309.947	-25.26
310.161	64.85
310.374	56.66
310.588	42.32
310.802	3.41
311.016	-8.87
311.23	64.85
311.444	71
311.658	-49.83
311.872	66.9
312.085	32.08
312.299	42.32
312.513	50.52
312.727	54.61
312.941	-8.87
313.154	91.48
313.368	38.23
313.582	25.94
313.796	48.47
314.009	-23.21
314.223	15.7
314.437	64.85
314.651	109.91
314.864	77.14
315.078	85.33
315.292	1.37
315.505	-21.16
315.719	27.99
315.933	32.08
316.146	9.56
316.36	42.32
316.573	83.28
316.787	32.08
317.001	42.32
317.214	-12.97
317.428	56.66
317.641	62.8
317.855	-19.11
318.068	50.52
318.282	-23.21
318.495	34.13
318.709	17.75
318.922	48.47
319.136	17.75
319.349	-37.55
319.563	42.32
319.776	40.28
319.99	11.61
320.203	89.43
320.417	56.66
320.63	34.13
320.843	9.56
321.057	120.15
321.27	148.82
321.483	-51.88
321.697	75.09
321.91	97.62
322.124	7.51
322.337	1.37
322.55	71
322.763	11.61
322.977	58.71
323.19	42.32
323.403	11.61
323.617	32.08
323.83	-12.97
324.043	13.65
324.256	-8.87
324.469	-8.87
324.683	15.7
324.896	11.61
325.109	116.05
325.322	19.8
325.535	77.14
325.748	-31.4
325.962	25.94
326.175	95.57
326.388	62.8
326.601	44.37
326.814	62.8
327.027	-82.6
327.24	107.86
327.453	38.23
327.666	68.95
327.879	52.56
328.092	105.81
328.305	36.18
328.518	42.32
328.731	34.13
328.944	32.08
329.157	-0.68
329.37	-17.07
329.583	85.33
329.796	75.09
330.009	9.56
330.222	138.58
330.435	48.47
330.648	-17.07
330.861	48.47
331.073	56.66
331.286	64.85
331.499	62.8
331.712	-25.26
331.925	107.86
332.138	40.28
332.35	66.9
332.563	23.89
332.776	79.19
332.989	68.95
333.202	64.85
333.414	58.71
333.627	95.57
333.84	89.43
334.053	25.94
334.265	114
334.478	58.71
334.691	75.09
334.903	40.28
335.116	99.67
335.329	60.76
335.541	83.28
335.754	30.04
335.966	13.65
336.179	114
336.392	50.52
336.604	7.51
336.817	71
337.029	114
337.242	34.13
337.454	50.52
337.667	36.18
337.88	52.56
338.092	89.43
338.305	56.66
338.517	34.13
338.729	130.39
338.942	71
339.154	17.75
339.367	-43.69
339.579	64.85
339.792	-15.02
340.004	73.04
340.217	5.46
340.429	23.89
340.641	62.8
340.854	9.56
341.066	81.24
341.278	118.1
341.491	150.87
341.703	23.89
341.915	48.47
342.128	83.28
342.34	7.51
342.552	-21.16
342.764	-15.02
342.977	56.66
343.189	64.85
343.401	62.8
343.613	40.28
343.826	56.66
344.038	60.76
344.25	42.32
344.462	44.37
344.674	81.24
344.886	9.56
345.099	97.62
345.311	68.95
345.523	36.18
345.735	56.66
345.947	83.28
346.159	11.61
346.371	32.08
346.583	40.28
346.795	130.39
347.007	23.89
347.219	107.86
347.431	62.8
347.643	34.13
347.855	-66.22
348.067	-37.55
348.279	25.94
348.491	21.84
348.703	42.32
348.915	-64.17
349.127	71
349.339	48.47
349.551	27.99
349.763	83.28
349.975	40.28
350.187	138.58
350.399	75.09
350.61	64.85
350.822	25.94
351.034	58.71
351.246	48.47
351.458	114
351.669	11.61
351.881	99.67
352.093	42.32
352.305	64.85
352.517	34.13
352.728	154.96
352.94	27.99
353.152	44.37
353.363	25.94
353.575	30.04
353.787	97.62
353.999	114
354.21	103.76
354.422	34.13
354.633	91.48
354.845	83.28
355.057	75.09
355.268	87.38
355.48	111.96
355.692	21.84
355.903	11.61
356.115	91.48
356.326	13.65
356.538	71
356.749	116.05
356.961	150.87
357.172	89.43
357.384	48.47
357.595	77.14
357.807	99.67
358.018	85.33
358.23	23.89
358.441	89.43
358.653	132.44
358.864	36.18
359.075	42.32
359.287	93.52
359.498	-0.68
359.709	40.28
359.921	48.47
360.132	56.66
360.344	25.94
360.555	48.47
360.766	46.42
360.977	101.72
361.189	66.9
361.4	19.8
361.611	62.8
361.823	97.62
362.034	99.67
362.245	66.9
362.456	36.18
362.667	23.89
362.879	71
363.09	44.37
363.301	152.91
363.512	58.71
363.723	54.61
363.935	44.37
364.146	130.39
364.357	32.08
364.568	105.81
364.779	73.04
364.99	23.89
365.201	32.08
365.412	93.52
365.623	56.66
365.834	89.43
366.045	87.38
366.256	77.14
366.467	5.46
366.678	-0.68
366.889	56.66
367.1	27.99
367.311	-0.68
367.522	32.08
367.733	23.89
367.944	44.37
368.155	54.61
368.366	91.48
368.577	9.56
368.788	66.9
368.999	-2.73
369.209	105.81
369.42	138.58
369.631	87.38
369.842	85.33
370.053	32.08
370.264	48.47
370.474	27.99
370.685	99.67
370.896	75.09
371.107	32.08
371.317	64.85
371.528	3.41
371.739	93.52
371.95	36.18
372.16	60.76
372.371	-49.83
372.582	19.8
372.792	-4.78
373.003	114
373.214	23.89
373.424	99.67
373.635	64.85
373.846	116.05
374.056	17.75
374.267	66.9
374.477	48.47
374.688	64.85
374.898	-6.83
375.109	77.14
375.319	38.23
375.53	122.2
375.74	87.38
375.951	114
376.161	66.9
376.372	71
376.582	48.47
376.793	75.09
377.003	81.24
377.214	50.52
377.424	77.14
377.635	73.04
377.845	95.57
378.055	105.81
378.266	3.41
378.476	42.32
378.686	11.61
378.897	107.86
379.107	73.04
379.317	-2.73
379.528	64.85
379.738	89.43
379.948	89.43
380.158	99.67
380.369	58.71
380.579	52.56
380.789	11.61
380.999	44.37
381.21	42.32
381.42	163.15
381.63	36.18
381.84	114
382.05	103.76
382.261	-15.02
382.471	124.24
382.681	54.61
382.891	116.05
383.101	56.66
383.311	68.95
383.521	89.43
383.731	58.71
383.941	71
384.151	48.47
384.361	75.09
384.571	58.71
384.781	50.52
384.991	91.48
385.201	101.72
385.411	122.2
385.621	73.04
385.831	66.9
386.041	7.51
386.251	-4.78
386.461	77.14
386.671	87.38
386.881	64.85
387.091	60.76
387.301	107.86
387.511	50.52
387.72	58.71
387.93	9.56
388.14	52.56
388.35	83.28
388.56	52.56
388.769	48.47
388.979	56.66
389.189	32.08
389.399	7.51
389.609	58.71
389.818	87.38
390.028	60.76
390.238	107.86
390.447	122.2
390.657	71
390.867	27.99
391.076	40.28
391.286	105.81
391.496	56.66
391.705	19.8
391.915	97.62
392.125	91.48
392.334	7.51
392.544	58.71
392.753	105.81
392.963	32.08
393.172	114
393.382	97.62
393.591	107.86
393.801	50.52
394.01	122.2
394.22	99.67
394.429	154.96
394.639	85.33
394.848	99.67
395.058	118.1
395.267	116.05
395.477	73.04
395.686	146.77
395.895	75.09
396.105	142.68
396.314	87.38
396.524	114
396.733	77.14
396.942	122.2
397.152	64.85
397.361	89.43
397.57	9.56
397.78	48.47
397.989	75.09
398.198	97.62
398.407	101.72
398.617	73.04
398.826	107.86
399.035	116.05
399.244	138.58
399.453	44.37
399.663	95.57
399.872	183.63
400.081	46.42
400.29	148.82
400.499	81.24
400.708	97.62
400.917	13.65
401.127	79.19
401.336	146.77
401.545	159.06
401.754	124.24
401.963	109.91
402.172	175.44
402.381	126.29
402.59	93.52
402.799	171.35
403.008	91.48
403.217	109.91
403.426	157.01
403.635	109.91
403.844	93.52
404.053	81.24
404.262	103.76
404.471	171.35
404.68	173.39
404.888	68.95
405.097	175.44
405.306	165.2
405.515	179.54
405.724	146.77
405.933	187.73
406.142	154.96
406.35	159.06
406.559	200.02
406.768	191.83
406.977	253.27
407.185	255.31
407.394	126.29
407.603	240.98
407.812	230.74
408.02	261.46
408.229	208.21
408.438	261.46
408.646	173.39
408.855	195.92
409.064	279.89
409.272	187.73
409.481	283.98
409.69	322.9
409.898	212.31
410.107	226.64
410.315	281.94
410.524	249.17
410.733	329.04
410.941	376.14
411.15	341.33
411.358	384.34
411.567	466.25
411.775	322.9
411.984	400.72
412.192	472.4
412.401	396.62
412.609	402.77
412.818	435.53
413.026	441.68
413.234	474.45
413.443	533.84
413.651	462.16
413.86	431.44
414.068	523.6
414.276	607.56
414.485	615.76
414.693	580.94
414.901	650.57
415.11	687.43
415.318	599.37
415.526	681.29
415.734	632.14
415.943	726.35
416.151	765.26
416.359	720.2
416.567	816.46
416.776	795.98
416.984	912.71
417.192	927.05
417.4	875.85
417.608	912.71
417.817	961.86
418.025	986.44
418.233	1064.26
418.441	1011.01
418.649	1162.56
418.857	1146.18
419.065	1187.14
419.273	1178.95
419.481	1256.77
419.689	1428.8
419.897	1355.07
420.105	1334.59
420.313	1473.85
420.521	1590.59
420.729	1539.39
420.937	1621.31
421.145	1604.92
421.353	1707.32
421.561	1776.95
421.769	1785.15
421.977	1918.26
422.185	1889.59
422.393	2032.95
422.601	2075.96
422.809	2123.06
423.017	2045.24
423.224	2252.08
423.432	2262.32
423.64	2331.95
423.848	2579.76
424.056	2352.43
424.263	2563.37
424.471	2688.3
424.679	2628.91
424.887	2837.8
425.094	2862.38
425.302	2952.49
425.51	3079.46
425.718	3106.09
425.925	3145
426.133	3179.81
426.341	3427.62
426.548	3613.98
426.756	3575.07
426.964	3667.23
427.171	3927.32
427.379	4042.01
427.586	3980.57
427.794	4050.2
428.001	4316.44
428.209	4427.03
428.417	4455.7
428.624	4711.69
428.832	4662.54
429.039	4637.97
429.247	4701.45
429.454	5119.24
429.662	5608.7
429.869	5096.71
430.076	5618.94
430.284	5221.64
430.491	5596.42
430.699	6114.55
430.906	5897.47
431.114	5950.71
431.321	6300.92
431.528	6210.81
431.736	6782.19
431.943	7050.47
432.15	6900.97
432.358	6997.23
432.565	7242.98
432.772	7265.51
432.979	7722.21
433.187	7746.78
433.394	7855.33
433.601	8330.45
433.808	8244.44
434.016	8352.98
434.223	8674.51
434.43	9022.67
434.637	8998.09
434.844	9508.04
435.052	9702.59
435.259	9643.2
435.466	9600.19
435.673	9592
435.88	10325.18
436.087	10939.57
436.294	10851.5
436.501	10386.61
436.708	10650.8
436.915	10984.62
437.122	11603.11
437.329	11777.19
437.537	11996.32
437.743	12197.02
437.95	11836.58
438.157	12543.13
438.364	13034.64
438.571	13024.4
438.778	13149.32
438.985	14189.69
439.192	13730.95
439.399	14408.83
439.606	13876.35
439.813	14593.14
440.02	15498.34
440.227	15299.69
440.433	15248.49
440.64	15578.22
440.847	15498.34
441.054	16020.58
441.261	17142.86
441.467	16751.7
441.674	17202.25
441.881	17564.75
442.088	17652.81
442.294	17527.88
442.501	17849.41
442.708	18383.93
442.914	19031.09
443.121	20114.47
443.328	19448.88
443.534	20698.14
443.741	20044.84
443.948	19522.6
444.154	21060.63
444.361	21249.04
444.568	21472.27
444.774	21124.11
444.981	21705.74
445.187	22172.67
445.394	23180.28
445.6	22803.45
445.807	24939.48
446.013	23718.89
446.22	24173.54
446.426	25203.67
446.633	25375.7
446.839	26141.64
447.046	25005.02
447.252	26465.22
447.459	26395.59
447.665	26461.12
447.871	27261.88
448.078	28728.22
448.284	27499.44
448.491	27638.7
448.697	29299.61
448.903	29723.54
449.11	29948.81
449.316	29272.98
449.522	30032.78
449.728	30512
449.935	30856.06
450.141	30954.36
450.347	31769.46
450.553	30485.38
450.76	30952.32
450.966	32090.99
451.172	31976.3
451.378	32392.04
451.584	31824.75
451.791	32676.71
451.997	32680.8
452.203	32928.61
452.409	32914.27
452.615	33194.84
452.821	31673.2
453.027	31298.42
453.233	33088.35
453.44	31740.78
453.646	31984.49
453.852	32179.05
454.058	32799.58
454.264	31628.15
454.47	32813.92
454.676	31695.73
454.882	32686.95
455.088	29635.47
455.294	30534.53
455.5	30700.42
455.705	31099.77
455.911	30065.55
456.117	29318.04
456.323	29219.74
456.529	27446.19
456.735	29225.88
456.941	27884.46
457.147	27558.83
457.352	26616.77
457.558	26594.24
457.764	26190.79
457.97	26074.06
458.176	25635.79
458.381	25451.47
458.587	23872.49
458.793	23903.21
458.999	23170.04
459.204	24519.65
459.41	23878.63
459.616	22160.39
459.821	22244.35
460.027	22287.36
460.233	21818.38
460.438	20872.21
460.644	21324.82
460.85	20026.4
461.055	19633.19
461.261	19561.51
461.466	18144.32
461.672	18029.63
461.878	18897.97
462.083	17667.14
462.289	17435.72
462.494	17243.21
462.7	16301.15
462.905	15920.23
463.111	16524.38
463.316	16579.67
463.522	16182.37
463.727	15959.14
463.932	16204.89
464.138	16137.31
464.343	16319.58
464.549	15770.72
464.754	16151.65
464.959	16088.16
465.165	15703.14
465.37	15090.8
465.575	14777.46
465.781	15610.98
465.986	15488.1
466.191	15055.98
466.397	14695.54
466.602	13786.24
466.807	14441.59
467.012	14492.79
467.218	14359.67
467.423	14146.69
467.628	14455.93
467.833	14785.65
468.038	14163.07
468.244	13829.25
468.449	14269.56
468.654	13933.7
468.859	13700.23
469.064	13761.67
469.269	13300.87
469.474	13532.29
469.679	13966.46
469.885	12975.25
470.09	13337.74
470.295	13456.52
470.5	12897.42
470.705	13300.87
470.91	12833.94
471.115	12819.6
471.32	12803.22
471.525	12639.38
471.73	12526.74
471.935	12412.06
472.139	11883.68
472.344	11973.79
472.549	11920.54
472.754	11848.86
472.959	11685.03
473.164	11453.61
473.369	11244.71
473.574	11738.27
473.778	11721.89
473.983	11480.23
474.188	11502.76
474.393	11113.64
474.598	11197.61
474.802	11093.16
475.007	10763.44
475.212	10697.91
475.417	10282.17
475.621	10372.28
475.826	10562.74
476.031	10237.11
476.235	9948.35
476.44	10206.39
476.645	9964.73
476.849	10034.36
477.054	9817.28
477.259	9596.1
477.463	9706.69
477.668	9489.6
477.872	9479.36
478.077	9424.07
478.282	9331.91
478.486	9194.7
478.691	9053.39
478.895	9256.14
479.1	9014.48
479.304	9010.38
479.509	8727.76
479.713	9141.45
479.918	8801.49
480.122	8668.37
480.326	8686.8
480.531	8592.59
480.735	8516.82
480.94	8580.31
481.144	8658.13
481.348	8430.8
481.553	8633.55
481.757	8174.81
481.961	8330.45
482.166	8731.86
482.37	8381.65
482.574	8381.65
482.778	8453.33
482.983	8475.86
483.187	8525.01
483.391	8453.33
483.595	8262.87
483.8	8201.43
484.004	8375.51
484.208	8471.76
484.412	8338.65
484.616	8326.36
484.821	8305.88
485.025	8068.31
485.229	8508.63
485.433	8367.32
485.637	8441.04
485.841	8291.54
486.045	8371.41
486.249	8477.91
486.453	8246.49
486.657	8275.16
486.861	8273.11
487.065	8068.31
487.269	8228.06
487.473	8303.83
487.677	8512.72
487.881	8385.75
488.085	8529.11
488.289	8359.13
488.493	8150.23
488.697	8371.41
488.901	8416.47
489.105	8553.68
489.309	8316.12
489.512	8461.52
489.716	8547.54
489.92	8559.83
490.124	8404.18
490.328	8432.85
490.531	8643.79
490.735	8574.16
490.939	8537.3
491.143	8449.24
491.346	8574.16
491.55	8762.58
491.754	8645.84
491.958	8729.81
492.161	8830.16
492.365	8756.43
492.569	8594.64
492.772	8619.22
492.976	8867.02
493.18	9116.87
493.383	9163.98
493.587	8963.28
493.79	9239.75
493.994	8932.56
494.197	9127.11
494.401	9153.74
494.605	9288.9
494.808	9395.4
495.012	9444.55
495.215	9305.29
495.419	9546.95
495.622	9460.93
495.825	9592
496.029	9604.29
496.232	9993.4
496.436	9755.84
496.639	10038.46
496.843	9954.49
497.046	10136.76
497.249	10349.75
497.453	10228.92
497.656	10439.86
497.859	10376.37
498.063	10554.55
498.266	10847.41
498.469	10542.26
498.673	10785.97
498.876	11054.25
499.079	11189.42
499.282	11216.04
499.485	11500.71
499.689	11570.34
499.892	11558.05
500.095	11715.75
500.298	11898.02
500.501	11682.98
500.705	12096.67
500.908	12078.24
501.111	12551.32
501.314	12508.31
501.517	12608.66
501.72	12616.85
501.923	12833.94
502.126	12881.04
502.329	12991.63
502.532	13091.98
502.735	13194.38
502.938	13542.53
503.141	13509.77
503.344	13919.36
503.547	13765.76
503.75	14124.16
503.953	14187.64
504.156	14558.33
504.359	14353.53
504.562	14654.58
504.765	14851.19
504.968	14949.49
505.17	15125.61
505.373	15408.23
505.576	15629.41
505.779	15653.99
505.982	15772.77
506.185	16053.34
506.387	15950.95
506.59	16299.1
506.793	16553.05
506.996	16329.82
507.198	17019.99
507.401	16745.56
507.604	17069.14
507.807	17454.15
508.009	17568.84
508.212	17462.35
508.415	17873.99
508.617	17980.48
508.82	18232.38
509.022	17929.28
509.225	18431.04
509.428	18615.35
509.63	18560.06
509.833	18795.57
510.035	19522.6
510.238	19123.25
510.44	19393.58
510.643	19508.27
510.845	19735.59
511.048	19833.89
511.25	20325.41
511.453	20204.58
511.655	20837.4
511.858	20386.85
512.06	20761.62
512.262	21070.87
512.465	20868.12
512.667	21498.89
512.87	21890.06
513.072	21787.66
513.274	22182.91
513.477	22223.87
513.679	22397.95
513.881	22875.13
514.084	22598.65
514.286	22565.88
514.488	23092.21
514.69	23335.92
514.893	23622.64
515.095	23643.12
515.297	23897.06
515.499	24036.33
515.701	24366.05
515.904	24648.67
516.106	24939.48
516.308	24730.59
516.51	25308.12
516.712	25351.12
516.914	25562.06
517.116	25887.69
517.318	26037.19
517.52	26090.44
517.722	26325.96
517.925	26571.71
518.127	26725.31
518.329	27225.01
518.531	26776.51
518.733	27560.88
518.935	27720.62
519.136	27943.85
519.338	28068.78
519.54	28050.35
519.742	28238.76
519.944	28847.01
520.146	29129.62
520.348	29002.65
520.55	28879.77
520.752	29602.71
520.954	29873.04
521.155	29922.19
521.357	30337.93
521.559	30380.93
521.761	30915.45
521.963	30634.88
522.164	30817.15
522.366	30985.08
522.568	31071.1
522.77	31429.49
522.971	31581.04
523.173	31556.47
523.375	31933.29
523.576	32043.88
523.778	32027.5
523.98	32508.77
524.181	32709.47
524.383	32482.15
524.584	33024.86
524.786	32908.13
524.988	32926.56
525.189	33536.85
525.391	33575.76
525.592	33563.48
525.794	33745.75
525.995	33944.4
526.197	33674.07
526.398	33686.36
526.6	34173.77
526.801	34519.88
527.003	34558.79
527.204	34380.62
527.406	34777.92
527.607	34437.96
527.808	35150.65
528.01	34894.66
528.211	34792.26
528.412	35734.32
528.614	35142.46
528.815	35318.59
529.016	35597.11
529.218	35474.23
529.419	35648.31
529.62	35560.25
529.822	35744.56
530.023	35490.62
530.224	36131.63
530.425	35517.24
530.626	35494.71
530.828	35457.85
531.029	36342.57
531.23	36193.07
531.431	36111.15
531.632	36180.78
531.833	36528.94
532.035	35988.27
532.236	36373.29
532.437	36641.57
532.638	36221.74
532.839	36193.07
533.04	36680.49
533.241	36252.46
533.442	36834.08
533.643	36518.7
533.844	36504.36
534.045	36582.18
534.246	36262.7
534.447	36586.28
534.648	36508.46
534.849	36657.96
535.05	36137.77
535.251	36336.43
535.451	36352.81
535.652	36295.47
535.853	36363.05
536.054	36533.03
536.255	36660.01
536.456	36123.44
536.657	36860.71
536.857	36598.57
537.058	36530.98
537.259	36438.83
537.46	36711.21
537.66	36250.41
537.861	36539.18
538.062	36172.59
538.263	36305.71
538.463	36025.14
538.664	36414.25
538.865	36686.63
539.065	36537.13
539.266	35969.84
539.466	36940.58
539.667	35951.41
539.868	36209.45
540.068	35818.29
540.269	36393.77
540.469	36559.66
540.67	36246.32
540.87	36322.09
541.071	36229.93
541.271	36557.61
541.472	36059.95
541.672	35912.5
541.873	36221.74
542.073	35748.66
542.274	36447.02
542.474	36133.68
542.675	35826.48
542.875	36053.81
543.075	36254.51
543.276	35722.04
543.476	36111.15
543.676	36055.86
543.877	36152.11
544.077	36199.21
544.277	36072.24
544.478	36285.23
544.678	36203.31
544.878	36002.61
545.078	36051.76
545.279	36088.62
545.479	36004.66
545.679	36125.49
545.879	36018.99
546.079	35842.87
546.28	35646.26
546.48	35613.49
546.68	35955.5
546.88	35945.26
547.08	35629.88
547.28	35898.16
547.48	35466.04
547.68	35916.59
547.88	35693.36
548.081	35601.21
548.281	35746.61
548.481	35570.49
548.681	35838.77
548.881	35642.17
549.081	35492.66
549.28	35568.44
549.48	35607.35
549.68	35646.26
549.88	36113.2
550.08	35652.41
550.28	35758.9
550.48	35769.14
550.68	36086.57
550.88	35461.94
551.08	35670.84
551.279	35683.12
551.479	35322.68
551.679	35812.15
551.879	35961.65
552.079	35697.46
552.278	35584.82
552.478	35296.06
552.678	35685.17
552.878	35578.68
553.077	35550.01
553.277	35126.08
553.477	36049.71
553.676	35636.02
553.876	35181.37
554.076	35525.43
554.275	35195.71
554.475	35027.77
554.674	35701.56
554.874	35478.33
555.074	35480.38
555.273	35091.26
555.473	35281.72
555.672	34976.58
555.872	35164.99
556.071	34775.87
556.271	35115.84
556.47	35187.52
556.67	34767.68
556.869	34601.8
557.068	35441.46
557.268	34806.59
557.467	34937.66
557.667	34921.28
557.866	34990.91
558.065	34661.19
558.265	34519.88
558.464	34509.64
558.663	35218.24
558.863	34409.29
559.062	34753.35
559.261	34466.63
559.461	34829.12
559.66	34310.99
559.859	34536.26
560.058	33993.55
560.258	34566.98
560.457	34390.86
560.656	34427.72
560.855	34403.14
561.054	34282.31
561.253	33731.41
561.453	34358.09
561.652	34261.83
561.851	34126.67
562.05	33827.67
562.249	33977.17
562.448	34253.64
562.647	33770.32
562.846	33860.43
563.045	34073.42
563.244	33504.09
563.443	33956.69
563.642	33297.24
563.841	34009.93
564.04	33459.03
564.239	33805.14
564.438	33203.03
564.637	33598.29
564.836	33391.45
565.035	33123.16
565.234	33192.79
565.432	33139.55
565.631	33135.45
565.83	32746.34
566.029	32865.12
566.228	33188.7
566.427	32656.23
566.625	32635.75
566.824	32586.6
567.023	32658.27
567.222	31765.36
567.42	32572.26
567.619	32803.68
567.818	32602.98
568.016	32324.46
568.215	32547.68
568.414	32232.3
568.612	32488.29
568.811	32357.22
569.01	32148.33
569.208	31943.53
569.407	32082.8
569.605	31697.78
569.804	31888.24
570.002	31923.05
570.201	31834.99
570.4	31720.31
570.598	31220.6
570.797	31363.96
570.995	31566.71
571.193	31542.13
571.392	31755.12
571.59	31236.98
571.789	31290.23
571.987	31169.4
572.186	31015.8
572.384	30806.91
572.582	31329.14
572.781	31161.21
572.979	30727.04
573.177	30770.05
573.376	31040.38
573.574	30313.35
573.772	30788.48
573.971	30294.92
574.169	30393.22
574.367	30000.01
574.565	30370.69
574.763	30380.93
574.962	30370.69
575.16	29991.82
575.358	30176.14
575.556	29549.46
575.754	30415.75
575.952	29608.85
576.151	30047.11
576.349	29866.89
576.547	29440.92
576.745	29694.86
576.943	29359
577.141	29299.61
577.339	29893.52
577.537	29485.97
577.735	29338.52
577.933	29328.28
578.131	29289.37
578.329	28885.92
578.527	28758.94
578.725	28619.68
578.923	28875.68
579.121	28853.15
579.319	28717.98
579.516	28785.57
579.714	28638.11
579.912	28318.63
580.11	28631.97
580.308	28335.01
580.506	28484.51
580.704	27952.04
580.901	28201.89
581.099	28461.99
581.297	28005.29
581.495	27839.4
581.692	28341.16
581.89	27808.68
582.088	27931.56
582.285	27720.62
582.483	27993
582.681	27411.38
582.878	27626.42
583.076	27198.39
583.274	27452.34
583.471	27136.95
583.669	27333.56
583.866	27157.43
584.064	27569.07
584.262	27063.22
584.459	27255.73
584.657	26766.27
584.854	27100.09
585.052	26549.18
585.249	26782.65
585.447	26796.99
585.644	26663.87
585.841	26670.01
586.039	26772.41
586.236	26438.59
586.434	26235.84
586.631	25963.47
586.828	26426.31
587.026	26045.38
587.223	26139.59
587.42	25928.65
587.618	25820.11
587.815	25873.35
588.012	25715.66
588.21	25969.61
588.407	25707.47
588.604	25474
588.801	25232.34
588.999	25265.11
589.196	25146.33
589.393	25234.39
589.59	25226.2
589.787	25213.91
589.984	25066.45
590.182	24884.19
590.379	25166.81
590.576	25041.88
590.773	24855.51
590.97	24583.13
591.167	24718.3
591.364	24495.07
591.561	24648.67
591.758	24462.3
591.955	24548.32
592.152	24603.61
592.349	24284.13
592.546	24361.95
592.743	24175.59
592.94	23993.32
593.137	24060.9
593.334	24320.99
593.531	23632.88
593.727	24130.53
593.924	24116.2
594.121	23745.51
594.318	23923.69
594.515	23454.7
594.712	23866.35
594.908	23409.65
595.105	23331.83
595.302	22928.38
595.499	23272.43
595.696	23221.23
595.892	23284.72
596.089	23034.87
596.286	23114.74
596.482	22957.05
596.679	22944.76
596.876	22844.41
597.072	22760.44
597.269	22772.73
597.466	22526.97
597.662	22561.79
597.859	22754.3
598.055	22651.9
598.252	22428.67
598.448	22250.5
598.645	22150.15
598.841	21888.01
599.038	22359.04
599.234	22367.23
599.431	21584.91
599.627	22078.47
599.824	22041.6
600.02	21683.21
600.217	22121.48
600.413	21746.7
600.609	21482.51
600.806	21470.22
601.002	21718.03
601.198	21300.24
601.395	21466.13
601.591	21259.28
601.787	21363.73
601.984	20993.04
602.18	21189.65
602.376	20847.64
602.572	20859.93
602.769	21199.89
602.965	20636.7
603.161	20704.28
603.357	20696.09
603.553	20554.78
603.75	20671.51
603.946	20438.05
604.142	20667.42
604.338	20444.19
604.534	20511.77
604.73	20145.19
604.926	20458.53
605.122	20278.3
605.318	20032.55
605.514	19946.53
605.71	19903.53
605.906	20018.21
606.102	19766.31
606.298	19860.52
606.494	19688.49
606.69	19786.79
606.886	19848.23
607.082	19659.82
607.278	19625
607.474	19256.37
607.67	19668.01
607.866	19262.51
608.062	19581.99
608.257	19291.18
608.453	19289.13
608.649	19276.85
608.845	19225.65
609.041	19389.49
609.236	19137.59
609.432	19358.77
609.628	19199.02
609.824	18709.56
610.019	19096.63
610.215	19151.92
610.411	19082.29
610.606	19133.49
610.802	18881.59
610.998	18668.6
611.193	19170.35
611.389	18912.31
611.584	18635.83
611.78	18793.53
611.976	18773.05
612.171	18859.06
612.367	18799.67
612.562	18398.27
612.758	18250.81
612.953	18242.62
613.149	18490.43
613.344	18299.97
613.539	18488.38
613.735	18259.01
613.93	18512.95
614.126	18181.18
614.321	18408.51
614.517	18263.1
614.712	18455.61
614.907	17935.43
615.103	18381.88
615.298	18027.59
615.493	18306.11
615.688	17794.12
615.884	18377.79
616.079	17808.45
616.274	17830.98
616.47	18021.44
616.665	17775.69
616.86	17759.3
617.055	17636.42
617.25	17669.19
617.445	17661
617.641	17499.21
617.836	17534.03
618.031	17435.72
618.226	17509.45
618.421	17398.86
618.616	17351.76
618.811	17132.62
619.006	17300.56
619.201	16999.51
619.396	17257.55
619.591	16985.17
619.786	16944.21
619.981	16655.45
620.176	17026.13
620.371	16790.61
620.566	16831.57
620.761	16268.38
620.956	16829.52
621.151	16258.14
621.346	16464.99
621.541	16217.18
621.735	16481.37
621.93	16241.76
622.125	16039.01
622.32	15922.27
622.515	16092.26
622.709	15993.95
622.904	15791.2
623.099	15705.19
623.294	15961.19
623.488	15578.22
623.683	15746.15
623.878	15330.41
624.072	15629.41
624.267	15422.57
624.462	15393.9
624.656	15195.25
624.851	15357.03
625.046	14955.63
625.24	14769.27
625.435	14863.47
625.629	14609.53
625.824	14584.95
626.018	14730.36
626.213	14333.05
626.407	14474.36
626.602	14204.03
626.796	14556.28
626.991	14308.47
627.185	14236.8
627.38	14167.17
627.574	13984.9
627.768	13849.73
627.963	13839.49
628.157	13663.36
628.352	13753.48
628.546	13806.72
628.74	13724.8
628.935	13481.1
629.129	13671.56
629.323	13223.05
629.517	13503.62
629.712	13245.58
629.906	13192.33
630.1	12780.69
630.294	13012.11
630.489	12938.38
630.683	12999.82
630.877	12696.72
631.071	12776.59
631.265	12524.69
631.459	12616.85
631.653	12567.7
631.848	12647.57
632.042	12364.95
632.236	12475.54
632.43	12229.79
632.624	12242.07
632.818	12147.87
633.012	12051.61
633.206	12108.96
633.4	11959.45
633.594	11869.34
633.788	11926.69
633.982	11883.68
634.176	11781.28
634.369	11787.43
634.563	11551.91
634.757	11590.82
634.951	11617.44
635.145	11482.28
635.339	11445.41
635.533	11175.08
635.726	11386.02
635.92	11068.59
636.114	11015.34
636.308	11084.97
636.501	10894.51
636.695	10984.62
636.889	11078.83
637.083	10779.82
637.276	10849.46
637.47	10718.39
637.664	10595.51
637.857	10675.38
638.051	10654.9
638.244	10542.26
638.438	10388.66
638.632	10454.2
638.825	10276.02
639.019	10263.74
639.212	10235.07
639.406	10026.17
639.599	10233.02
639.793	10079.42
639.986	10034.36
640.18	10034.36
640.373	9997.5
640.567	9925.82
640.76	9903.29
640.954	9907.39
641.147	9669.83
641.34	9714.88
641.534	9583.81
641.727	9387.21
641.92	9559.24
642.114	9495.75
642.307	9417.93
642.5	9448.65
642.694	9227.46
642.887	9446.6
643.08	9407.69
643.273	9235.66
643.467	9135.31
643.66	8930.51
643.853	8942.8
644.046	9075.91
644.239	8910.03
644.432	9071.82
644.626	8858.83
644.819	8871.12
645.012	8795.34
645.205	8752.34
645.398	8748.24
645.591	8658.13
645.784	8549.59
645.977	8606.93
646.17	8512.72
646.363	8371.41
646.556	8496.34
646.749	8504.53
646.942	8465.62
647.135	8350.93
647.328	8269.02
647.521	8273.11
647.714	8047.83
647.907	8191.19
648.099	8058.07
648.292	8037.59
648.485	8084.7
648.678	7832.8
648.871	8121.56
649.064	7824.61
649.256	7859.42
649.449	7859.42
649.642	7830.75
649.835	7668.96
650.027	7656.67
650.22	7724.26
650.413	7718.11
650.605	7650.53
650.798	7523.55
650.991	7449.83
651.183	7372
651.376	7425.25
651.568	7593.19
651.761	7341.29
651.954	7386.34
652.146	7257.32
652.339	7234.79
652.531	7185.64
652.724	7116.01
652.916	7095.53
653.109	7052.52
653.301	7087.34
653.494	7130.34
653.686	6782.19
653.879	7101.67
654.071	6849.77
654.263	6757.61
654.456	6765.81
654.648	6708.46
654.84	6704.37
655.033	6765.81
655.225	6735.09
655.417	6745.33
655.61	6661.36
655.802	6632.69
655.994	6683.89
656.186	6808.81
656.379	6423.8
656.571	6501.62
656.763	6460.66
656.955	6444.27
657.148	6300.92
657.34	6470.9
657.532	6153.46
657.724	6163.7
657.916	6214.9
658.108	6272.25
658.3	6126.84
658.492	6200.57
658.684	6010.11
658.876	6106.36
659.068	5965.05
659.26	5907.71
659.452	5876.99
659.644	5842.17
659.836	5860.6
660.028	5905.66
660.22	5684.48
660.412	5868.8
660.604	5750.01
660.796	5831.93
660.988	5575.94
661.18	5717.25
661.372	5659.9
661.563	5690.62
661.755	5471.49
661.947	5461.25
662.139	5410.05
662.331	5416.19
662.522	5545.22
662.714	5307.65
662.906	5491.97
663.097	5412.1
663.289	5293.32
663.481	5381.38
663.673	5414.15
663.864	5283.08
664.056	5256.45
664.247	5330.18
664.439	5111.05
664.631	5209.35
664.822	5209.35
665.014	5184.77
665.205	5096.71
665.397	5094.66
665.588	5111.05
665.78	5086.47
665.971	4990.22
666.163	4988.17
666.354	4910.35
666.546	4916.49
666.737	4885.77
666.929	4961.55
667.12	4738.32
667.311	4709.65
667.503	4779.28
667.694	4834.57
667.885	4762.89
668.077	4752.65
668.268	4631.82
668.459	4644.11
668.651	4566.29
668.842	4787.47
669.033	4816.14
669.224	4742.41
669.416	4588.82
669.607	4680.97
669.798	4625.68
669.989	4543.76
670.18	4373.78
670.371	4392.21
670.563	4338.96
670.754	4480.27
670.945	4365.59
671.136	4349.2
671.327	4431.12
671.518	4433.17
671.709	4478.22
671.9	4349.2
672.091	4326.68
672.282	4361.49
672.473	4248.85
672.664	4341.01
672.855	4343.06
673.046	4265.24
673.237	4205.85
673.428	4187.41
673.619	4283.67
673.809	3982.62
674	3970.33
674.191	4091.16
674.382	4111.64
674.573	4048.15
674.764	4064.54
674.954	3990.81
675.145	4005.14
675.336	4001.05
675.527	3947.8
675.717	4009.24
675.908	3933.47
676.099	3833.11
676.289	3935.51
676.48	4005.14
676.671	3888.41
676.861	3915.03
677.052	3814.68
677.243	3841.31
677.433	3923.23
677.624	3906.84
677.814	3824.92
678.005	3759.39
678.195	3732.76
678.386	3880.22
678.576	3652.89
678.767	3734.81
678.957	3743
679.148	3738.91
679.338	3636.51
679.529	3599.65
679.719	3611.93
679.909	3581.21
680.1	3740.96
680.29	3638.56
680.481	3755.29
680.671	3517.73
680.861	3677.47
681.052	3497.25
681.242	3714.33
681.432	3620.13
681.622	3478.82
681.813	3454.24
682.003	3527.97
682.193	3407.14
682.383	3630.37
682.573	3605.79
682.764	3609.89
682.954	3597.6
683.144	3460.38
683.334	3530.02
683.524	3513.63
683.714	3460.38
683.904	3327.27
684.094	3425.57
684.284	3376.42
684.474	3511.58
684.664	3347.75
684.854	3423.52
685.044	3349.79
685.234	3370.27
685.424	3396.9
685.614	3317.03
685.804	3329.31
685.994	3280.16
686.184	3444
686.374	3374.37
686.564	3216.68
686.753	3499.3
686.943	3140.9
687.133	3306.79
687.323	3173.67
687.513	3157.29
687.702	2983.21
687.892	3130.66
688.082	3128.61
688.272	3333.41
688.461	3149.09
688.651	3196.2
688.841	3122.47
689.03	3022.12
689.22	3087.65
689.41	3050.79
689.599	2981.16
689.789	3013.93
689.979	3015.98
690.168	2989.35
690.358	2999.59
690.547	3061.03
690.737	2833.71
690.926	3079.46
691.116	2917.67
691.305	2993.45
691.495	2874.67
691.684	2884.91
691.874	2874.67
692.063	2882.86
692.252	2903.34
692.442	2817.32
692.631	2823.47
692.82	2802.99
693.01	2706.73
693.199	2731.31
693.388	2739.5
693.578	2618.67
693.767	2778.41
693.956	2727.21
694.146	2743.6
694.335	2639.15
694.524	2764.08
694.713	2753.84
694.902	2735.4
695.092	2747.69
695.281	2647.34
695.47	2489.65
695.659	2596.14
695.848	2612.53
696.037	2604.33
696.226	2696.49
696.415	2528.56
696.604	2727.21
696.793	2665.77
696.982	2522.41
697.171	2653.48
697.36	2641.2
697.549	2538.8
697.738	2590
697.927	2530.61
698.116	2612.53
698.305	2585.9
698.494	2616.62
698.683	2485.55
698.872	2633.01
699.061	2581.81
699.25	2567.47
699.438	2532.65
699.627	2630.96
699.816	2581.81
700.005	2477.36
700.193	2546.99
700.382	2481.46
700.571	2553.13
700.76	2678.06
700.948	2557.23
701.137	2327.86
701.326	2565.42
701.514	2430.26
701.703	2522.41
701.892	2465.07
702.08	2456.88
702.269	2409.78
702.457	2493.74
702.646	2542.89
702.834	2415.92
703.023	2467.12
703.212	2460.98
703.4	2506.03
703.589	2336.05
703.777	2420.02
703.965	2383.15
704.154	2436.4
704.342	2309.43
704.531	2501.94
704.719	2407.73
704.907	2512.18
705.096	2387.25
705.284	2293.04
705.472	2280.75
705.661	2350.39
705.849	2438.45
706.037	2389.3
706.226	2440.5
706.414	2342.19
706.602	2393.39
706.79	2428.21
706.979	2377.01
707.167	2299.19
707.355	2260.27
707.543	2227.51
707.731	2387.25
707.919	2409.78
708.107	2313.52
708.296	2278.71
708.484	2266.42
708.672	2352.43
708.86	2272.56
709.048	2354.48
709.236	2374.96
709.424	2301.23
709.612	2340.15
709.8	2299.19
709.988	2110.77
710.176	2325.81
710.364	2293.04
710.551	2252.08
710.739	2276.66
710.927	2311.47
711.115	2268.47
711.303	2211.12
711.491	2276.66
711.679	2268.47
711.866	2245.94
712.054	2278.71
712.242	2204.98
712.43	2293.04
712.617	2268.47
712.805	2254.13
712.993	2282.8
713.181	2180.4
713.368	2252.08
713.556	2293.04
713.744	2153.78
713.931	2270.51
714.119	2237.75
714.306	2194.74
714.494	2233.65
714.682	2309.43
714.869	2153.78
715.057	2186.55
715.244	2268.47
715.432	2305.33
715.619	2301.23
715.807	2235.7
715.994	2245.94
716.182	2243.89
716.369	2141.49
716.556	2231.6
716.744	2155.83
716.931	2170.16
717.119	2215.22
717.306	2194.74
717.493	2190.64
717.681	2239.8
717.868	2149.68
718.055	2018.61
718.242	2202.93
718.43	2198.84
718.617	2174.26
718.804	2178.36
718.991	2164.02
719.179	2178.36
719.366	2043.19
719.553	2080.05
719.74	2123.06
719.927	2161.97
720.114	2090.29
720.301	2059.57
720.488	2145.59
720.676	2039.09
720.863	2116.92
721.05	2174.26
721.237	2080.05
721.424	2067.77
721.611	2153.78
721.798	2047.29
721.985	2082.1
722.172	1996.09
722.358	1989.94
722.545	2131.25
722.732	1981.75
722.919	2186.55
723.106	2139.44
723.293	2059.57
723.48	2026.81
723.667	2030.9
723.853	2059.57
724.04	2063.67
724.227	2161.97
724.414	2053.43
724.6	2022.71
724.787	2133.3
724.974	2057.53
725.161	2084.15
725.347	2088.25
725.534	2014.52
725.72	2082.1
725.907	2043.19
726.094	2016.57
726.28	1957.18
726.467	2057.53
726.653	2082.1
726.84	2100.53
727.027	2059.57
727.213	1959.22
727.4	1981.75
727.586	2084.15
727.773	2018.61
727.959	2112.82
728.145	2037.05
728.332	2024.76
728.518	2010.42
728.705	2057.53
728.891	1924.41
729.077	1981.75
729.264	1951.03
729.45	2014.52
729.636	2071.86
729.823	1998.13
730.009	1985.85
730.195	1987.89
730.382	1967.42
730.568	1961.27
730.754	1938.74
730.94	1936.7
731.126	1969.46
731.313	2014.52
731.499	1967.42
731.685	1965.37
731.871	1920.31
732.057	1961.27
732.243	1991.99
732.429	2018.61
732.615	2032.95
732.801	1940.79
732.987	1981.75
733.173	1961.27
733.359	1928.5
733.545	2039.09
733.731	1948.98
733.917	1926.46
734.103	1930.55
734.289	2043.19
734.475	1854.78
734.661	1924.41
734.847	2018.61
735.033	1959.22
735.219	1899.83
735.404	1862.97
735.59	1824.06
735.776	1953.08
735.962	1815.87
736.148	1934.65
736.333	1862.97
736.519	1815.87
736.705	1838.39
736.89	1826.11
737.076	1785.15
737.262	1793.34
737.447	1723.71
737.633	1834.3
737.819	1885.5
738.004	1719.61
738.19	1862.97
738.375	1785.15
738.561	1822.01
738.747	1735.99
738.932	1695.04
739.118	1740.09
739.303	1789.24
739.489	1817.91
739.674	1713.47
739.859	1688.89
740.045	1842.49
740.23	1787.19
740.416	1688.89
740.601	1768.76
740.786	1754.43
740.972	1713.47
741.157	1695.04
741.342	1658.17
741.528	1672.51
741.713	1809.72
741.898	1649.98
742.084	1621.31
742.269	1690.94
742.454	1768.76
742.639	1762.62
742.824	1703.23
743.01	1715.52
743.195	1705.28
743.38	1604.92
743.565	1682.75
743.75	1721.66
743.935	1598.78
744.12	1645.88
744.305	1572.16
744.49	1621.31
744.675	1613.12
744.86	1523.01
745.045	1680.7
745.23	1645.88
745.415	1596.73
745.6	1555.77
745.785	1568.06
745.97	1584.45
746.155	1549.63
746.34	1482.05
746.525	1512.77
746.71	1645.88
746.895	1557.82
747.079	1590.59
747.264	1451.33
747.449	1590.59
747.634	1426.75
747.819	1428.8
748.003	1426.75
748.188	1420.61
748.373	1494.33
748.557	1541.44
748.742	1426.75
748.927	1465.66
749.111	1391.94
749.296	1387.84
749.481	1404.22
749.665	1305.92
749.85	1355.07
750.034	1387.84
750.219	1467.71
750.404	1361.22
750.588	1453.38
750.773	1310.02
750.957	1256.77
751.141	1328.45
751.326	1287.49
751.51	1244.48
751.695	1332.54
751.879	1348.93
752.064	1424.7
752.248	1301.83
752.432	1275.2
752.617	1365.31
752.801	1248.58
752.985	1246.53
753.17	1230.15
753.354	1312.07
753.538	1242.43
753.722	1176.9
753.907	1181
754.091	1152.32
754.275	1191.24
754.459	1105.22
754.643	1121.6
754.828	1176.9
755.012	1080.64
755.196	1074.5
755.38	1152.32
755.564	1113.41
755.748	1140.04
755.932	1207.62
756.116	1033.54
756.3	1049.93
756.484	1111.36
756.668	1041.73
756.852	1039.69
757.036	1017.16
757.22	1015.11
757.404	953.67
757.588	1082.69
757.772	1039.69
757.956	949.57
758.14	1011.01
758.323	1023.3
758.507	980.29
758.691	929.1
758.875	961.86
759.059	972.1
759.242	1006.92
759.426	1031.49
759.61	965.96
759.794	957.77
759.977	1035.59
760.161	949.57
760.345	980.29
760.528	1006.92
760.712	965.96
760.895	949.57
761.079	892.23
761.263	853.32
761.446	836.94
761.63	900.42
761.813	849.22
761.997	826.7
762.18	806.22
762.364	830.79
762.547	791.88
762.731	920.9
762.914	871.75
763.098	771.4
763.281	795.98
763.464	836.94
763.648	884.04
763.831	896.33
764.015	845.13
764.198	886.09
764.381	888.14
764.564	867.66
764.748	814.41
764.931	884.04
765.114	822.6
765.297	818.5
765.481	814.41
765.664	904.52
765.847	810.31
766.03	822.6
766.213	810.31
766.397	798.03
766.58	789.83
766.763	822.6
766.946	828.74
767.129	740.68
767.312	732.49
767.495	736.59
767.678	769.35
767.861	828.74
768.044	750.92
768.227	806.22
768.41	738.63
768.593	755.02
768.776	755.02
768.959	838.98
769.142	802.12
769.324	765.26
769.507	660.81
769.69	707.91
769.873	671.05
770.056	775.5
770.239	687.43
770.421	802.12
770.604	693.58
770.787	757.07
770.97	736.59
771.152	660.81
771.335	744.78
771.518	722.25
771.7	707.91
771.883	773.45
772.066	703.82
772.248	681.29
772.431	677.19
772.613	703.82
772.796	712.01
772.978	675.15
773.161	626
773.343	673.1
773.526	646.48
773.708	605.52
773.891	687.43
774.073	660.81
774.256	662.86
774.438	656.72
774.621	613.71
774.803	681.29
774.985	593.23
775.168	613.71
775.35	611.66
775.532	568.65
775.715	648.52
775.897	623.95
776.079	562.51
776.261	705.87
776.444	572.75
776.626	613.71
776.808	597.32
776.99	507.21
777.173	572.75
777.355	613.71
777.537	554.32
777.719	589.13
777.901	548.17
778.083	517.45
778.265	529.74
778.447	572.75
778.629	501.07
778.811	507.21
778.993	589.13
779.175	533.84
779.357	499.02
779.539	539.98
779.721	482.64
779.903	484.69
780.085	482.64
780.267	503.12
780.449	535.89
780.631	519.5
780.812	523.6
780.994	503.12
781.176	517.45
781.358	468.3
781.54	382.29
781.721	490.83
781.903	499.02
782.085	488.78
782.267	470.35
782.448	453.97
782.63	462.16
782.812	449.87
782.993	486.73
783.175	441.68
783.357	433.49
783.538	345.42
783.72	359.76
783.901	427.34
784.083	435.53
784.264	404.82
784.446	394.58
784.627	372.05
784.809	468.3
784.99	376.14
785.172	404.82
785.353	453.97
785.535	449.87
785.716	453.97
785.897	353.62
786.079	367.95
786.26	310.61
786.441	345.42
786.623	372.05
786.804	415.06
786.985	310.61
787.167	312.66
787.348	310.61
787.529	351.57
787.71	433.49
787.891	302.42
788.073	367.95
788.254	288.08
788.435	343.38
788.616	378.19
788.797	400.72
788.978	269.65
789.159	404.82
789.34	359.76
789.522	386.38
789.703	333.14
789.884	400.72
790.065	357.71
790.246	384.34
790.427	304.46
790.607	372.05
790.788	417.1
790.969	302.42
791.15	286.03
791.331	320.85
791.512	308.56
791.693	302.42
791.874	318.8
792.054	347.47
792.235	302.42
792.416	294.22
792.597	214.35
792.778	298.32
792.958	261.46
793.139	339.28
793.32	294.22
793.5	269.65
793.681	341.33
793.862	286.03
794.042	310.61
794.223	312.66
794.404	343.38
794.584	214.35
794.765	271.7
794.945	300.37
795.126	294.22
795.306	335.18
795.487	288.08
795.667	212.31
795.848	212.31
796.028	175.44
796.209	251.22
796.389	265.55
796.57	228.69
796.75	232.79
796.93	210.26
797.111	269.65
797.291	171.35
797.471	275.79
797.652	324.94
797.832	208.21
798.012	263.51
798.192	245.07
798.373	195.92
798.553	146.77
798.733	197.97
798.913	159.06
799.093	208.21
799.274	197.97
799.454	230.74
799.634	273.75
799.814	255.31
799.994	173.39
800.174	232.79
800.354	150.87
800.534	228.69
800.714	228.69
800.894	179.54
801.074	216.4
801.254	171.35
801.434	148.82
801.614	157.01
801.794	212.31
801.974	660.81
802.154	220.5
802.334	218.45
802.514	161.11
802.693	255.31
802.873	169.3
803.053	173.39
803.233	249.17
803.413	175.44
803.592	159.06
803.772	197.97
803.952	167.25
804.131	181.59
804.311	136.53
804.491	273.75
804.67	169.3
804.85	136.53
805.03	163.15
805.209	257.36
805.389	171.35
805.568	181.59
805.748	116.05
805.928	208.21
806.107	122.2
806.287	245.07
806.466	183.63
806.646	187.73
806.825	171.35
807.004	183.63
807.184	202.07
807.363	195.92
807.543	157.01
807.722	132.44
807.901	130.39
808.081	138.58
808.26	138.58
808.439	154.96
808.619	148.82
808.798	161.11
808.977	181.59
809.156	171.35
809.336	179.54
809.515	140.63
809.694	103.76
809.873	228.69
810.052	171.35
810.231	165.2
810.411	130.39
810.59	163.15
810.769	195.92
810.948	138.58
811.127	58.71
811.306	171.35
811.485	124.24
811.664	175.44
811.843	159.06
812.022	146.77
812.201	146.77
812.38	179.54
812.559	138.58
812.737	171.35
812.916	79.19
813.095	126.29
813.274	120.15
813.453	107.86
813.632	109.91
813.811	154.96
813.989	214.35
814.168	132.44
814.347	169.3
814.526	138.58
814.704	144.72
814.883	173.39
815.062	193.87
815.24	134.48
815.419	81.24
815.598	187.73
815.776	58.71
815.955	105.81
816.133	68.95
816.312	118.1
816.49	89.43
816.669	167.25
816.847	34.13
817.026	105.81
817.204	148.82
817.383	165.2
817.561	122.2
817.74	66.9
817.918	124.24
818.097	99.67
818.275	107.86
818.453	122.2
818.632	130.39
818.81	161.11
818.988	44.37
819.167	89.43
819.345	140.63
819.523	161.11
819.701	163.15
819.879	124.24
820.058	48.47
820.236	167.25
820.414	75.09
820.592	99.67
820.77	99.67
820.948	32.08
821.127	120.15
821.305	187.73
821.483	48.47
821.661	99.67
821.839	87.38
822.017	56.66
822.195	79.19
822.373	138.58
822.551	60.76
822.729	50.52
822.907	83.28
823.085	109.91
823.262	95.57
823.44	62.8
823.618	150.87
823.796	66.9
823.974	81.24
824.152	140.63
824.329	97.62
824.507	163.15
824.685	58.71
824.863	97.62
825.04	36.18
825.218	114
825.396	73.04
825.574	85.33
825.751	159.06
825.929	50.52
826.107	60.76
826.284	101.72
826.462	56.66
826.639	25.94
826.817	25.94
826.994	64.85
827.172	42.32
827.349	116.05
827.527	40.28
827.704	99.67
827.882	75.09
828.059	93.52
828.237	130.39
828.414	111.96
828.591	64.85
828.769	118.1
828.946	64.85
829.124	73.04
829.301	52.56
829.478	114
829.655	118.1
829.833	140.63
830.01	34.13
830.187	165.2
830.364	95.57
830.542	64.85
830.719	83.28
830.896	23.89
831.073	79.19
831.25	1.37
831.427	32.08
831.604	58.71
831.782	42.32
831.959	73.04
832.136	44.37
832.313	62.8
832.49	44.37
832.667	68.95
832.844	75.09
833.021	79.19
833.198	48.47
833.374	42.32
833.551	73.04
833.728	34.13
833.905	109.91
834.082	50.52
834.259	105.81
834.436	91.48
834.612	40.28
834.789	56.66
834.966	105.81
835.143	77.14
835.319	44.37
835.496	73.04
835.673	114
835.85	142.68
836.026	32.08
836.203	48.47
836.38	52.56
836.556	48.47
836.733	60.76
836.909	114
837.086	93.52
837.262	85.33
837.439	66.9
837.616	32.08
837.792	66.9
837.968	165.2
838.145	56.66
838.321	-8.87
838.498	97.62
838.674	34.13
838.851	87.38
839.027	73.04
839.203	-15.02
839.38	103.76
839.556	19.8
839.732	91.48
839.909	73.04
840.085	52.56
840.261	7.51
840.437	-25.26
840.614	50.52
840.79	66.9
840.966	79.19
841.142	34.13
841.318	11.61
841.494	-19.11
841.671	73.04
841.847	89.43
842.023	-8.87
842.199	64.85
842.375	38.23
842.551	81.24
842.727	11.61
842.903	103.76
843.079	13.65
843.255	161.11
843.431	34.13
843.607	114
843.783	7.51
843.959	75.09
844.134	-33.45
844.31	83.28
844.486	66.9
844.662	124.24
844.838	99.67
845.013	32.08
845.189	46.42
845.365	40.28
845.541	19.8
845.716	101.72
845.892	44.37
846.068	9.56
846.244	9.56
846.419	58.71
846.595	9.56
846.77	60.76
846.946	52.56
847.122	25.94
847.297	3.41
847.473	105.81
847.648	11.61
847.824	97.62
847.999	5.46
848.175	60.76
848.35	56.66
848.526	97.62
848.701	73.04
848.876	40.28
849.052	38.23
849.227	87.38
849.403	3.41
849.578	-8.87
849.753	1.37
849.929	44.37
850.104	15.7
850.279	48.47
850.454	32.08
850.63	97.62
850.805	38.23
850.98	134.48
851.155	3.41
851.33	-12.97
851.505	30.04
851.681	40.28
851.856	40.28
852.031	3.41
852.206	38.23
852.381	79.19
852.556	54.61
852.731	130.39
852.906	-0.68
853.081	81.24
853.256	89.43
853.431	64.85
853.606	3.41
853.781	11.61
853.956	7.51
854.131	85.33
854.305	40.28
854.48	-0.68
854.655	-17.07
854.83	34.13
855.005	3.41
855.18	118.1
855.354	32.08
855.529	81.24
855.704	36.18
855.879	60.76
856.053	34.13
856.228	-4.78
856.403	60.76
856.577	50.52
856.752	40.28
856.926	42.32
857.101	11.61
857.276	-23.21
857.45	-6.83
857.625	25.94
857.799	79.19
857.974	-2.73
858.148	25.94
858.323	107.86
858.497	52.56
858.672	11.61
858.846	34.13
859.02	103.76
859.195	9.56
859.369	40.28
859.543	79.19
859.718	23.89
859.892	40.28
860.066	81.24
860.241	44.37
860.415	7.51
860.589	50.52
860.763	58.71
860.938	27.99
861.112	44.37
861.286	58.71
861.46	15.7
861.634	-4.78
861.808	75.09
861.982	-15.02
862.157	13.65
862.331	-2.73
862.505	109.91
862.679	-21.16
862.853	64.85
863.027	9.56
863.201	87.38
863.375	-0.68
863.549	3.41
863.722	32.08
863.896	62.8
864.07	50.52
864.244	-0.68
864.418	23.89
864.592	34.13
864.766	-2.73
864.939	7.51
865.113	21.84
865.287	148.82
865.461	1.37
865.634	89.43
865.808	-4.78
865.982	1.37
866.156	-0.68
866.329	-49.83
866.503	62.8
866.676	83.28
866.85	48.47
867.024	62.8
867.197	89.43
867.371	40.28
867.544	68.95
867.718	-27.31
867.891	5.46
868.065	-72.36
868.238	17.75
868.412	60.76
868.585	66.9
868.759	40.28
868.932	48.47
869.105	44.37
869.279	42.32
869.452	32.08
869.625	73.04
869.799	23.89
869.972	25.94
870.145	-45.74
870.319	68.95
870.492	42.32
870.665	-12.97
870.838	15.7
871.011	-4.78
871.185	5.46
871.358	-21.16
871.531	1.37
871.704	7.51
871.877	-8.87
872.05	89.43
872.223	-15.02
872.396	105.81
872.569	23.89
872.742	23.89
872.915	-21.16
873.088	13.65
873.261	-17.07
873.434	25.94
873.607	-12.97
873.78	56.66
873.953	-78.51
874.126	81.24
874.299	101.72
874.471	54.61
874.644	-37.55
874.817	87.38
874.99	50.52
875.163	-12.97
875.335	-23.21
875.508	27.99
875.681	68.95
875.853	-49.83
876.026	36.18
876.199	48.47
876.371	-6.83
876.544	-8.87
876.717	7.51
876.889	64.85
877.062	17.75
877.234	-33.45
877.407	73.04
877.579	-6.83
877.752	5.46
877.924	15.7
878.097	11.61
878.269	107.86
878.442	27.99
878.614	81.24
878.786	17.75
878.959	13.65
879.131	21.84
879.303	-15.02
879.476	-62.12
879.648	3.41
879.82	60.76
879.993	36.18
880.165	66.9
880.337	-23.21
880.509	-2.73
880.681	17.75
880.854	140.63
881.026	34.13
881.198	130.39
881.37	21.84
881.542	46.42
881.714	50.52
881.886	-62.12
882.058	32.08
882.23	27.99
882.402	42.32
882.574	7.51
882.746	60.76
882.918	23.89
883.09	-4.78
883.262	25.94
883.434	71
883.606	-49.83
883.778	15.7
883.95	40.28
884.122	32.08
884.293	17.75
884.465	15.7
884.637	7.51
884.809	-49.83
884.98	15.7
885.152	-6.83
885.324	21.84
885.496	-45.74
885.667	23.89
885.839	66.9
886.011	81.24
886.182	71
886.354	15.7
886.525	64.85
886.697	60.76
886.869	64.85
887.04	42.32
887.212	-10.92
887.383	7.51
887.555	48.47
887.726	15.7
887.897	-6.83
888.069	46.42
888.24	36.18
888.412	5.46
888.583	58.71
888.754	60.76
888.926	36.18
889.097	-21.16
889.268	-27.31
889.44	40.28
889.611	-29.35
889.782	-4.78
889.953	-15.02
890.125	75.09
890.296	-6.83
890.467	-17.07
890.638	-51.88
890.809	42.32
890.98	-2.73
891.151	9.56
891.323	44.37
891.494	11.61
891.665	15.7
891.836	1.37
892.007	23.89
892.178	7.51
892.349	13.65
892.52	-41.64
892.691	-4.78
892.862	-23.21
893.032	-25.26
893.203	50.52
893.374	-29.35
893.545	15.7
893.716	7.51
893.887	13.65
894.057	40.28
894.228	36.18
894.399	25.94
894.57	-6.83
894.74	-23.21
894.911	85.33
895.082	3.41
895.253	-29.35
895.423	-6.83
895.594	50.52
895.764	23.89
895.935	-21.16
896.106	81.24
896.276	32.08
896.447	52.56
896.617	-19.11
896.788	21.84
896.958	23.89
897.129	40.28
897.299	1.37
897.47	48.47
897.64	3.41
897.81	-25.26
897.981	52.56
898.151	38.23
898.322	46.42
898.492	66.9
898.662	11.61
898.832	-27.31
899.003	-4.78
899.173	48.47
899.343	-2.73
899.513	-6.83
