Data from USB4F104151__155__14-19-30-268.txt Node

Date: Thu Mar 13 14:19:30 EDT 2025
User: louis
Spectrometer: USB4F10415
Trigger mode: 4
Integration Time (sec): 2.000000E-2
Scans to average: 1
Electric dark correction enabled: true
Nonlinearity correction enabled: false
Boxcar width: 0
XAxis mode: Wavelengths
Number of Pixels in Spectrum: 3648
>>>>>Begin Spectral Data<<<<<
178.204	-118.61
178.424	-118.61
178.644	-118.61
178.864	-206.67
179.084	-126.8
179.304	-77.65
179.524	-12.12
179.744	-16.21
179.964	20.65
180.184	30.89
180.404	-48.98
180.624	22.7
180.844	47.27
181.064	-22.36
181.283	-48.98
181.503	-32.6
181.723	137.38
181.943	-61.27
182.163	20.65
182.383	12.46
182.602	86.19
182.822	39.08
183.042	20.65
183.262	-30.55
183.482	143.53
183.701	45.23
183.921	12.46
184.141	49.32
184.361	69.8
184.58	22.7
184.8	22.7
185.02	20.65
185.239	37.03
185.459	39.08
185.679	65.71
185.898	37.03
186.118	-12.12
186.338	2.22
186.557	12.46
186.777	4.27
186.997	16.55
187.216	-69.46
187.436	-28.5
187.655	47.27
187.875	41.13
188.095	-1.88
188.314	10.41
188.534	-18.26
188.753	45.23
188.973	-18.26
189.192	28.84
189.412	-1.88
189.631	4.27
189.851	8.36
190.07	43.18
190.29	45.23
190.509	24.75
190.729	-1.88
190.948	28.84
191.168	166.06
191.387	37.03
191.607	6.31
191.826	41.13
192.045	-8.02
192.265	37.03
192.484	6.31
192.704	69.8
192.923	-3.93
193.142	114.86
193.362	63.66
193.581	14.51
193.8	45.23
194.02	86.19
194.239	-12.12
194.458	143.53
194.678	30.89
194.897	0.17
195.116	57.51
195.335	43.18
195.555	45.23
195.774	20.65
195.993	73.9
196.212	57.51
196.432	69.8
196.651	69.8
196.87	45.23
197.089	86.19
197.308	28.84
197.528	0.17
197.747	8.36
197.966	69.8
198.185	12.46
198.404	73.9
198.623	6.31
198.842	102.57
199.062	12.46
199.281	32.94
199.5	-20.31
199.719	0.17
199.938	-20.31
200.157	145.58
200.376	51.37
200.595	53.42
200.814	20.65
201.033	69.8
201.252	47.27
201.471	71.85
201.69	32.94
201.909	34.99
202.128	24.75
202.347	106.67
202.566	6.31
202.785	0.17
203.004	-116.56
203.223	80.04
203.442	57.51
203.661	69.8
203.879	61.61
204.098	-1.88
204.317	12.46
204.536	-26.45
204.755	6.31
204.974	-1.88
205.193	20.65
205.411	71.85
205.63	61.61
205.849	-3.93
206.068	-14.17
206.287	86.19
206.505	61.61
206.724	30.89
206.943	67.75
207.162	20.65
207.381	30.89
207.599	30.89
207.818	100.52
208.037	59.56
208.255	-34.64
208.474	41.13
208.693	57.51
208.911	71.85
209.13	59.56
209.349	-16.21
209.567	-28.5
209.786	131.24
210.005	-12.12
210.223	121
210.442	-5.97
210.661	24.75
210.879	28.84
211.098	43.18
211.316	20.65
211.535	30.89
211.753	37.03
211.972	28.84
212.191	6.31
212.409	4.27
212.628	45.23
212.846	12.46
213.065	145.58
213.283	57.51
213.502	6.31
213.72	71.85
213.938	63.66
214.157	45.23
214.375	69.8
214.594	39.08
214.812	61.61
215.031	4.27
215.249	51.37
215.467	-30.55
215.686	-24.4
215.904	77.99
216.122	26.79
216.341	63.66
216.559	-16.21
216.778	22.7
216.996	57.51
217.214	20.65
217.432	4.27
217.651	-5.97
217.869	-40.79
218.087	-36.69
218.306	51.37
218.524	39.08
218.742	-26.45
218.96	51.37
219.179	-26.45
219.397	-10.07
219.615	127.14
219.833	-42.84
220.051	-42.84
220.27	71.85
220.488	75.95
220.706	4.27
220.924	4.27
221.142	-24.4
221.36	12.46
221.578	47.27
221.796	4.27
222.015	82.09
222.233	92.33
222.451	-44.88
222.669	53.42
222.887	55.47
223.105	8.36
223.323	28.84
223.541	39.08
223.759	61.61
223.977	-5.97
224.195	30.89
224.413	16.55
224.631	49.32
224.849	12.46
225.067	26.79
225.285	55.47
225.503	8.36
225.721	-1.88
225.939	-12.12
226.157	-12.12
226.375	121
226.592	86.19
226.81	41.13
227.028	61.61
227.246	53.42
227.464	-1.88
227.682	61.61
227.9	100.52
228.117	16.55
228.335	45.23
228.553	49.32
228.771	47.27
228.989	53.42
229.206	53.42
229.424	12.46
229.642	18.6
229.86	6.31
230.077	88.23
230.295	55.47
230.513	30.89
230.731	-3.93
230.948	71.85
231.166	63.66
231.384	-26.45
231.601	65.71
231.819	49.32
232.037	32.94
232.254	28.84
232.472	96.43
232.689	20.65
232.907	137.38
233.125	65.71
233.342	-16.21
233.56	49.32
233.777	98.47
233.995	34.99
234.213	73.9
234.43	20.65
234.648	-18.26
234.865	6.31
235.083	-32.6
235.3	32.94
235.518	49.32
235.735	12.46
235.953	30.89
236.17	-57.17
236.388	-34.64
236.605	16.55
236.822	24.75
237.04	24.75
237.257	22.7
237.475	8.36
237.692	80.04
237.909	8.36
238.127	26.79
238.344	57.51
238.562	16.55
238.779	4.27
238.996	45.23
239.214	57.51
239.431	32.94
239.648	24.75
239.865	-32.6
240.083	153.77
240.3	-53.08
240.517	-85.84
240.735	39.08
240.952	37.03
241.169	139.43
241.386	57.51
241.603	57.51
241.821	57.51
242.038	34.99
242.255	94.38
242.472	26.79
242.689	61.61
242.907	14.51
243.124	-1.88
243.341	110.76
243.558	-5.97
243.775	-32.6
243.992	41.13
244.209	96.43
244.426	164.01
244.643	47.27
244.86	114.86
245.078	8.36
245.295	20.65
245.512	24.75
245.729	-61.27
245.946	28.84
246.163	94.38
246.38	-3.93
246.597	12.46
246.814	88.23
247.031	-8.02
247.248	51.37
247.464	57.51
247.681	71.85
247.898	86.19
248.115	98.47
248.332	-12.12
248.549	45.23
248.766	34.99
248.983	61.61
249.2	4.27
249.417	18.6
249.633	30.89
249.85	77.99
250.067	6.31
250.284	53.42
250.501	12.46
250.717	32.94
250.934	-1.88
251.151	-61.27
251.368	16.55
251.585	34.99
251.801	28.84
252.018	-40.79
252.235	41.13
252.451	18.6
252.668	32.94
252.885	-16.21
253.102	14.51
253.318	2.22
253.535	12.46
253.752	34.99
253.968	-48.98
254.185	63.66
254.401	-20.31
254.618	37.03
254.835	-44.88
255.051	71.85
255.268	47.27
255.484	-53.08
255.701	-1.88
255.917	90.28
256.134	30.89
256.351	8.36
256.567	12.46
256.784	43.18
257	-40.79
257.217	37.03
257.433	-32.6
257.65	53.42
257.866	116.9
258.082	86.19
258.299	-18.26
258.515	28.84
258.732	-5.97
258.948	-34.64
259.165	47.27
259.381	45.23
259.597	-3.93
259.814	41.13
260.03	24.75
260.246	6.31
260.463	4.27
260.679	69.8
260.895	-1.88
261.112	88.23
261.328	43.18
261.544	37.03
261.761	82.09
261.977	4.27
262.193	14.51
262.409	20.65
262.626	86.19
262.842	28.84
263.058	47.27
263.274	20.65
263.49	12.46
263.707	30.89
263.923	77.99
264.139	-10.07
264.355	0.17
264.571	37.03
264.787	30.89
265.004	61.61
265.22	92.33
265.436	4.27
265.652	-59.22
265.868	71.85
266.084	39.08
266.3	-10.07
266.516	-36.69
266.732	-8.02
266.948	90.28
267.164	55.47
267.38	-22.36
267.596	90.28
267.812	20.65
268.028	-20.31
268.244	-22.36
268.46	39.08
268.676	37.03
268.892	28.84
269.108	32.94
269.324	-53.08
269.54	12.46
269.756	110.76
269.972	30.89
270.188	49.32
270.403	16.55
270.619	41.13
270.835	28.84
271.051	108.71
271.267	2.22
271.483	-10.07
271.698	16.55
271.914	12.46
272.13	57.51
272.346	55.47
272.562	4.27
272.777	92.33
272.993	12.46
273.209	-53.08
273.425	53.42
273.64	-22.36
273.856	114.86
274.072	57.51
274.287	16.55
274.503	-3.93
274.719	-20.31
274.934	61.61
275.15	71.85
275.366	26.79
275.581	90.28
275.797	-1.88
276.012	-32.6
276.228	45.23
276.444	104.62
276.659	63.66
276.875	-8.02
277.09	-5.97
277.306	-46.93
277.521	57.51
277.737	-28.5
277.952	-3.93
278.168	32.94
278.383	61.61
278.599	77.99
278.814	45.23
279.03	-46.93
279.245	80.04
279.461	-48.98
279.676	20.65
279.892	-26.45
280.107	-10.07
280.322	43.18
280.538	37.03
280.753	0.17
280.969	49.32
281.184	49.32
281.399	20.65
281.615	28.84
281.83	45.23
282.045	12.46
282.26	26.79
282.476	69.8
282.691	65.71
282.906	57.51
283.122	82.09
283.337	-12.12
283.552	94.38
283.767	14.51
283.983	53.42
284.198	-28.5
284.413	22.7
284.628	-8.02
284.843	10.41
285.058	69.8
285.274	53.42
285.489	-10.07
285.704	90.28
285.919	53.42
286.134	-1.88
286.349	32.94
286.564	37.03
286.779	30.89
286.995	-26.45
287.21	-53.08
287.425	96.43
287.64	39.08
287.855	65.71
288.07	53.42
288.285	41.13
288.5	37.03
288.715	71.85
288.93	22.7
289.145	45.23
289.36	57.51
289.575	16.55
289.79	90.28
290.004	41.13
290.219	129.19
290.434	22.7
290.649	-51.03
290.864	24.75
291.079	37.03
291.294	30.89
291.509	82.09
291.724	-16.21
291.938	14.51
292.153	65.71
292.368	69.8
292.583	41.13
292.798	63.66
293.012	86.19
293.227	67.75
293.442	6.31
293.657	30.89
293.871	12.46
294.086	16.55
294.301	63.66
294.516	-10.07
294.73	32.94
294.945	2.22
295.16	12.46
295.374	57.51
295.589	28.84
295.804	-12.12
296.018	34.99
296.233	80.04
296.447	8.36
296.662	24.75
296.877	94.38
297.091	34.99
297.306	14.51
297.52	69.8
297.735	-1.88
297.949	10.41
298.164	-20.31
298.378	37.03
298.593	32.94
298.807	49.32
299.022	73.9
299.236	157.86
299.451	80.04
299.665	-8.02
299.88	61.61
300.094	30.89
300.309	94.38
300.523	28.84
300.737	4.27
300.952	96.43
301.166	-61.27
301.381	32.94
301.595	47.27
301.809	49.32
302.024	-28.5
302.238	28.84
302.452	102.57
302.667	65.71
302.881	84.14
303.095	73.9
303.309	73.9
303.524	18.6
303.738	61.61
303.952	-12.12
304.166	43.18
304.381	61.61
304.595	20.65
304.809	0.17
305.023	118.95
305.237	47.27
305.452	37.03
305.666	77.99
305.88	37.03
306.094	53.42
306.308	77.99
306.522	8.36
306.736	47.27
306.95	37.03
307.164	47.27
307.379	2.22
307.593	26.79
307.807	63.66
308.021	90.28
308.235	16.55
308.449	-8.02
308.663	4.27
308.877	137.38
309.091	139.43
309.305	86.19
309.519	-18.26
309.733	-18.26
309.947	20.65
310.161	41.13
310.374	53.42
310.588	-36.69
310.802	2.22
311.016	-40.79
311.23	28.84
311.444	47.27
311.658	-10.07
311.872	114.86
312.085	55.47
312.299	55.47
312.513	61.61
312.727	39.08
312.941	49.32
313.154	49.32
313.368	63.66
313.582	88.23
313.796	4.27
314.009	-3.93
314.223	32.94
314.437	55.47
314.651	121
314.864	12.46
315.078	-3.93
315.292	32.94
315.505	45.23
315.719	57.51
315.933	30.89
316.146	-12.12
316.36	90.28
316.573	86.19
316.787	12.46
317.001	53.42
317.214	59.56
317.428	20.65
317.641	77.99
317.855	-24.4
318.068	65.71
318.282	4.27
318.495	96.43
318.709	53.42
318.922	86.19
319.136	4.27
319.349	73.9
319.563	-57.17
319.776	-8.02
319.99	24.75
320.203	28.84
320.417	10.41
320.63	6.31
320.843	61.61
321.057	69.8
321.27	77.99
321.483	86.19
321.697	37.03
321.91	80.04
322.124	20.65
322.337	45.23
322.55	14.51
322.763	-1.88
322.977	86.19
323.19	20.65
323.403	63.66
323.617	63.66
323.83	-1.88
324.043	6.31
324.256	45.23
324.469	-65.36
324.683	28.84
324.896	-3.93
325.109	80.04
325.322	14.51
325.535	86.19
325.748	2.22
325.962	43.18
326.175	47.27
326.388	14.51
326.601	20.65
326.814	16.55
327.027	63.66
327.24	63.66
327.453	30.89
327.666	47.27
327.879	94.38
328.092	123.05
328.305	77.99
328.518	-20.31
328.731	14.51
328.944	14.51
329.157	71.85
329.37	-12.12
329.583	118.95
329.796	114.86
330.009	-53.08
330.222	145.58
330.435	108.71
330.648	30.89
330.861	41.13
331.073	28.84
331.286	73.9
331.499	-3.93
331.712	0.17
331.925	-20.31
332.138	45.23
332.35	57.51
332.563	4.27
332.776	8.36
332.989	-26.45
333.202	14.51
333.414	59.56
333.627	73.9
333.84	45.23
334.053	32.94
334.265	12.46
334.478	-65.36
334.691	28.84
334.903	22.7
335.116	-10.07
335.329	24.75
335.541	69.8
335.754	110.76
335.966	-1.88
336.179	90.28
336.392	112.81
336.604	-20.31
336.817	8.36
337.029	8.36
337.242	41.13
337.454	41.13
337.667	28.84
337.88	96.43
338.092	34.99
338.305	37.03
338.517	47.27
338.729	18.6
338.942	47.27
339.154	90.28
339.367	-10.07
339.579	65.71
339.792	-8.02
340.004	63.66
340.217	34.99
340.429	41.13
340.641	0.17
340.854	61.61
341.066	12.46
341.278	57.51
341.491	34.99
341.703	96.43
341.915	-36.69
342.128	2.22
342.34	-5.97
342.552	-22.36
342.764	57.51
342.977	57.51
343.189	-10.07
343.401	57.51
343.613	12.46
343.826	12.46
344.038	43.18
344.25	24.75
344.462	32.94
344.674	118.95
344.886	88.23
345.099	45.23
345.311	71.85
345.523	49.32
345.735	4.27
345.947	-32.6
346.159	14.51
346.371	45.23
346.583	-18.26
346.795	147.62
347.007	98.47
347.219	80.04
347.431	37.03
347.643	80.04
347.855	-38.74
348.067	125.1
348.279	14.51
348.491	14.51
348.703	67.75
348.915	73.9
349.127	28.84
349.339	45.23
349.551	26.79
349.763	41.13
349.975	55.47
350.187	118.95
350.399	18.6
350.61	43.18
350.822	34.99
351.034	-16.21
351.246	24.75
351.458	90.28
351.669	63.66
351.881	118.95
352.093	80.04
352.305	80.04
352.517	47.27
352.728	84.14
352.94	0.17
353.152	55.47
353.363	143.53
353.575	53.42
353.787	-26.45
353.999	80.04
354.21	69.8
354.422	24.75
354.633	37.03
354.845	43.18
355.057	16.55
355.268	53.42
355.48	63.66
355.692	-20.31
355.903	-14.17
356.115	82.09
356.326	57.51
356.538	94.38
356.749	37.03
356.961	110.76
357.172	104.62
357.384	-16.21
357.595	28.84
357.807	2.22
358.018	-44.88
358.23	45.23
358.441	59.56
358.653	57.51
358.864	82.09
359.075	28.84
359.287	82.09
359.498	2.22
359.709	37.03
359.921	86.19
360.132	34.99
360.344	47.27
360.555	61.61
360.766	-8.02
360.977	55.47
361.189	57.51
361.4	88.23
361.611	94.38
361.823	88.23
362.034	59.56
362.245	-42.84
362.456	0.17
362.667	63.66
362.879	20.65
363.09	77.99
363.301	12.46
363.512	47.27
363.723	6.31
363.935	26.79
364.146	61.61
364.357	84.14
364.568	112.81
364.779	28.84
364.99	65.71
365.201	0.17
365.412	37.03
365.623	-69.46
365.834	20.65
366.045	80.04
366.256	65.71
366.467	12.46
366.678	155.82
366.889	110.76
367.1	69.8
367.311	39.08
367.522	90.28
367.733	127.14
367.944	63.66
368.155	45.23
368.366	98.47
368.577	102.57
368.788	75.95
368.999	32.94
369.209	86.19
369.42	94.38
369.631	77.99
369.842	65.71
370.053	39.08
370.264	94.38
370.474	45.23
370.685	65.71
370.896	80.04
371.107	59.56
371.317	57.51
371.528	30.89
371.739	59.56
371.95	71.85
372.16	53.42
372.371	45.23
372.582	55.47
372.792	118.95
373.003	55.47
373.214	86.19
373.424	77.99
373.635	51.37
373.846	135.34
374.056	30.89
374.267	127.14
374.477	28.84
374.688	49.32
374.898	24.75
375.109	43.18
375.319	39.08
375.53	125.1
375.74	61.61
375.951	45.23
376.161	90.28
376.372	104.62
376.582	16.55
376.793	-1.88
377.003	80.04
377.214	-12.12
377.424	172.2
377.635	102.57
377.845	100.52
378.055	176.3
378.266	-16.21
378.476	57.51
378.686	43.18
378.897	45.23
379.107	49.32
379.317	96.43
379.528	-8.02
379.738	98.47
379.948	-26.45
380.158	104.62
380.369	-1.88
380.579	102.57
380.789	61.61
380.999	77.99
381.21	80.04
381.42	80.04
381.63	-1.88
381.84	104.62
382.05	53.42
382.261	39.08
382.471	45.23
382.681	80.04
382.891	118.95
383.101	45.23
383.311	16.55
383.521	77.99
383.731	75.95
383.941	61.61
384.151	20.65
384.361	30.89
384.571	88.23
384.781	49.32
384.991	127.14
385.201	92.33
385.411	49.32
385.621	118.95
385.831	-3.93
386.041	69.8
386.251	41.13
386.461	55.47
386.671	80.04
386.881	32.94
387.091	102.57
387.301	86.19
387.511	71.85
387.72	86.19
387.93	61.61
388.14	37.03
388.35	47.27
388.56	-24.4
388.769	112.81
388.979	94.38
389.189	135.34
389.399	47.27
389.609	137.38
389.818	125.1
390.028	86.19
390.238	88.23
390.447	51.37
390.657	37.03
390.867	26.79
391.076	57.51
391.286	67.75
391.496	-16.21
391.705	112.81
391.915	114.86
392.125	110.76
392.334	73.9
392.544	75.95
392.753	110.76
392.963	37.03
393.172	143.53
393.382	51.37
393.591	129.19
393.801	96.43
394.01	135.34
394.22	82.09
394.429	37.03
394.639	104.62
394.848	94.38
395.058	77.99
395.267	14.51
395.477	90.28
395.686	77.99
395.895	153.77
396.105	110.76
396.314	57.51
396.524	192.68
396.733	65.71
396.942	168.1
397.152	22.7
397.361	168.1
397.57	129.19
397.78	96.43
397.989	110.76
398.198	217.26
398.407	104.62
398.617	125.1
398.826	151.72
399.035	186.54
399.244	143.53
399.453	164.01
399.663	116.9
399.872	129.19
400.081	80.04
400.29	151.72
400.499	104.62
400.708	149.67
400.917	127.14
401.127	145.58
401.336	170.15
401.545	188.58
401.754	135.34
401.963	159.91
402.172	198.82
402.381	86.19
402.59	176.3
402.799	102.57
403.008	204.97
403.217	151.72
403.426	159.91
403.635	168.1
403.844	145.58
404.053	145.58
404.262	127.14
404.471	192.68
404.68	262.31
404.888	139.43
405.097	184.49
405.306	184.49
405.515	245.93
405.724	215.21
405.933	207.02
406.142	184.49
406.35	250.02
406.559	204.97
406.768	184.49
406.977	241.83
407.185	250.02
407.394	241.83
407.603	164.01
407.812	299.17
408.02	247.97
408.229	250.02
408.438	290.98
408.646	272.55
408.855	368.81
409.064	301.22
409.272	383.14
409.481	389.28
409.69	346.28
409.898	348.33
410.107	422.05
410.315	393.38
410.524	336.04
410.733	438.44
410.941	413.86
411.15	350.37
411.358	381.09
411.567	497.83
411.775	495.78
411.984	532.64
412.192	536.74
412.401	497.83
412.609	614.56
412.818	602.27
413.026	589.99
413.234	618.66
413.443	618.66
413.651	676
413.86	614.56
414.068	749.73
414.276	690.34
414.485	727.2
414.693	815.26
414.901	839.84
415.11	954.52
415.318	864.41
415.526	938.14
415.734	1013.92
415.943	981.15
416.151	1001.63
416.359	1003.68
416.567	999.58
416.776	1120.41
416.984	1179.8
417.192	1210.52
417.4	1140.89
417.608	1151.13
417.817	1317.01
418.025	1368.21
418.233	1470.61
418.441	1314.97
418.649	1495.19
418.857	1523.86
419.065	1585.3
419.273	1499.28
419.481	1716.37
419.689	1724.56
419.897	1783.95
420.105	1880.21
420.313	1775.76
420.521	1876.11
420.729	1939.6
420.937	2021.52
421.145	2150.54
421.353	2209.93
421.561	2238.6
421.769	2371.72
421.977	2355.33
422.185	2322.57
422.393	2519.17
422.601	2748.54
422.809	2652.29
423.017	2660.48
423.224	2930.81
423.432	3076.22
423.64	3127.42
423.848	3270.78
424.056	3264.63
424.263	3477.62
424.471	3403.89
424.679	3485.81
424.887	3631.22
425.094	3774.58
425.302	3709.04
425.51	4012.14
425.718	4163.69
425.925	3928.17
426.133	4235.37
426.341	4489.32
426.548	4640.87
426.756	4579.43
426.964	4827.23
427.171	5017.69
427.379	5218.4
427.586	5206.11
427.794	5419.1
428.001	5488.73
428.209	5926.99
428.417	5627.99
428.624	6252.62
428.832	6156.36
429.039	6166.6
429.247	6182.99
429.454	6731.84
429.662	7053.38
429.869	6672.45
430.076	7393.34
430.284	6877.25
430.491	7200.83
430.699	7645.24
430.906	7637.05
431.114	7774.26
431.321	8200.24
431.528	8157.23
431.736	8669.22
431.943	9080.86
432.15	8957.99
432.358	9041.95
432.565	9314.33
432.772	9375.77
432.979	9957.39
433.187	9951.25
433.394	10164.24
433.601	10817.54
433.808	10786.82
434.016	10659.85
434.223	11106.31
434.43	11726.84
434.637	11573.24
434.844	12369.9
435.052	12509.16
435.259	12476.4
435.466	12765.16
435.673	12482.54
435.88	13199.33
436.087	13856.73
436.294	14065.62
436.501	13754.33
436.708	14088.15
436.915	14550.99
437.122	15032.26
437.329	14890.95
437.537	15136.71
437.743	15611.84
437.95	15693.76
438.157	16404.4
438.364	16979.88
438.571	16813.99
438.778	17168.29
438.985	18794.38
439.192	17944.47
439.399	18610.06
439.606	17909.66
439.813	18876.3
440.02	20334.45
440.227	20017.02
440.433	19685.25
440.64	20252.53
440.847	20139.9
441.054	20209.53
441.261	22005.59
441.467	21389.16
441.674	22122.33
441.881	22794.06
442.088	22800.21
442.294	22435.67
442.501	23326.53
442.708	23355.21
442.914	24303.42
443.121	25667.36
443.328	24780.59
443.534	26652.44
443.741	25726.75
443.948	25628.45
444.154	27150.09
444.361	27232.01
444.568	27152.14
444.774	27533.06
444.981	27594.5
445.187	28286.72
445.394	29519.59
445.6	29271.79
445.807	32425.66
446.013	30652.12
446.22	31196.88
446.426	32331.45
446.633	32546.49
446.839	33525.42
447.046	32399.04
447.252	34135.71
447.459	34227.87
447.665	33771.18
447.871	35468.94
448.078	37193.33
448.284	34875.03
448.491	36257.41
448.697	37494.38
448.903	37815.91
449.11	38268.51
449.316	37373.55
449.522	38364.77
449.728	39011.93
449.935	39355.99
450.141	39136.85
450.347	40719.93
450.553	39577.17
450.76	40078.92
450.966	40836.67
451.172	40484.42
451.378	41213.49
451.584	40513.09
451.791	41707.05
451.997	41760.3
452.203	42204.71
452.409	42364.45
452.615	42065.45
452.821	40083.02
453.027	39872.07
453.233	41989.67
453.44	40044.1
453.646	41346.61
453.852	40709.69
454.058	42069.54
454.264	40003.14
454.47	41389.62
454.676	40506.94
454.882	41504.31
455.088	38258.27
455.294	38268.51
455.5	38993.5
455.705	39855.69
455.911	38069.86
456.117	37715.56
456.323	36789.88
456.529	34973.33
456.735	36589.18
456.941	35751.56
457.147	34717.34
457.352	33646.25
457.558	33474.22
457.764	33527.47
457.97	32892.6
458.176	32208.58
458.381	32659.13
458.587	30330.59
458.793	31002.32
458.999	29107.95
459.204	31381.2
459.41	30674.65
459.616	28520.18
459.821	28458.74
460.027	28102.4
460.233	27580.17
460.438	26097.44
460.644	26738.45
460.85	25544.48
461.055	25288.49
461.261	25204.52
461.466	23158.6
461.672	22378.33
461.878	24428.34
462.083	22374.23
462.289	22232.92
462.494	21845.85
462.7	20803.44
462.905	20676.46
463.111	21208.94
463.316	21147.5
463.522	20762.48
463.727	20969.32
463.932	20559.73
464.138	20678.51
464.343	20547.44
464.549	19928.95
464.754	20545.39
464.959	20608.88
465.165	20379.51
465.37	19433.35
465.575	18818.96
465.781	19617.66
465.986	19898.24
466.191	19013.51
466.397	18720.65
466.602	17696.67
466.807	18354.07
467.012	18530.19
467.218	18423.7
467.423	18358.16
467.628	18257.81
467.833	19025.8
468.038	18034.58
468.244	17768.35
468.449	18352.02
468.654	17688.48
468.859	17715.1
469.064	17581.98
469.269	16865.19
469.474	17080.23
469.679	17368.99
469.885	16777.13
470.09	17061.8
470.295	17280.93
470.5	16609.2
470.705	16715.69
470.91	16076.73
471.115	16025.53
471.32	16359.35
471.525	16336.82
471.73	15921.08
471.935	15871.93
472.139	15230.91
472.344	15437.76
472.549	15697.85
472.754	15214.53
472.959	14868.42
473.164	14745.55
473.369	14424.01
473.574	15101.89
473.778	14677.96
473.983	14684.11
474.188	14505.93
474.393	13965.27
474.598	13973.46
474.802	13856.73
475.007	13762.52
475.212	13674.46
475.417	13174.75
475.621	13277.15
475.826	13330.4
476.031	13045.73
476.235	12767.21
476.44	12754.92
476.645	12509.16
476.849	12834.79
477.054	12632.04
477.259	12507.12
477.463	12402.67
477.668	12204.02
477.872	12204.02
478.077	12320.75
478.282	11759.61
478.486	11677.69
478.691	11743.22
478.895	11661.3
479.1	11376.64
479.304	11499.52
479.509	11128.83
479.713	11460.6
479.918	11208.7
480.122	10932.23
480.326	11173.89
480.531	11055.11
480.735	10962.95
480.94	10788.87
481.144	11257.85
481.348	10569.74
481.553	10926.08
481.757	10649.61
481.961	10870.79
482.166	10848.26
482.37	10803.21
482.574	10655.75
482.778	10618.89
482.983	10864.64
483.187	10512.39
483.391	10665.99
483.595	10516.49
483.8	10440.72
484.004	10584.07
484.208	10776.58
484.412	10633.22
484.616	10618.89
484.821	10506.25
485.025	10532.87
485.229	10596.36
485.433	10590.22
485.637	10446.86
485.841	10674.18
486.045	10364.94
486.249	10711.05
486.453	10719.24
486.657	10326.03
486.861	10506.25
487.065	10371.08
487.269	10366.99
487.473	10418.19
487.677	10659.85
487.881	10543.11
488.085	10551.31
488.289	10565.64
488.493	10498.06
488.697	10719.24
488.901	10567.69
489.105	10727.43
489.309	10645.51
489.512	10539.02
489.716	10893.32
489.92	10471.43
490.124	10614.79
490.328	10958.85
490.531	10631.18
490.735	10721.29
490.939	10782.73
491.143	10891.27
491.346	10600.46
491.55	11141.12
491.754	11071.49
491.958	10788.87
492.161	10928.13
492.365	11382.78
492.569	11155.46
492.772	11350.01
492.976	11225.09
493.18	11315.2
493.383	11227.14
493.587	11347.97
493.79	11608.06
493.994	11292.67
494.197	11460.6
494.401	11583.48
494.605	11620.35
494.808	11997.17
495.012	11712.5
495.215	11851.77
495.419	12003.32
495.622	11841.53
495.825	12191.73
496.029	12089.33
496.232	12664.81
496.436	12148.72
496.639	12810.22
496.843	12660.71
497.046	12894.18
497.249	12988.39
497.453	13139.94
497.656	13027.3
497.859	13219.81
498.063	13266.91
498.266	13727.71
498.469	13553.63
498.673	13586.4
498.876	13889.49
499.079	13957.08
499.282	14073.81
499.485	14243.79
499.689	14528.46
499.892	14667.72
500.095	14643.15
500.298	15206.34
500.501	14817.22
500.705	15185.86
500.908	15480.77
501.111	15642.56
501.314	15804.35
501.517	15910.84
501.72	16127.92
501.923	16003
502.126	16629.68
502.329	16414.64
502.532	16613.29
502.735	16768.94
502.938	16971.69
503.141	17043.37
503.344	17321.89
503.547	17530.78
503.75	17725.34
503.953	18081.69
504.156	18003.86
504.359	18470.8
504.562	18460.56
504.765	18782.09
504.968	18726.8
505.17	19036.04
505.373	19117.96
505.576	19539.84
505.779	19476.35
505.982	19853.18
506.185	19926.91
506.387	20055.93
506.59	20436.85
506.793	20911.98
506.996	20598.64
507.198	21143.4
507.401	21159.78
507.604	21409.64
507.807	21878.62
508.009	21852
508.212	22142.81
508.415	22380.37
508.617	22560.59
508.82	22925.13
509.022	22810.45
509.225	23498.56
509.428	23539.52
509.63	23764.8
509.833	23867.2
510.035	24371
510.238	24162.11
510.44	24534.84
510.643	24694.58
510.845	25014.06
511.048	24766.26
511.25	25227.05
511.453	25466.66
511.655	26378.01
511.858	25974.56
512.06	26545.94
512.262	26945.3
512.465	26472.21
512.667	27051.79
512.87	27248.39
513.072	27121.42
513.274	27901.7
513.477	27948.8
513.679	28169.98
513.881	28636.92
514.084	28696.31
514.286	29001.46
514.488	29054.7
514.69	29791.97
514.893	29837.03
515.095	29591.27
515.297	30537.43
515.499	30176.99
515.701	30666.45
515.904	31180.49
516.106	31250.13
516.308	31325.9
516.51	31784.65
516.712	31813.32
516.914	31981.25
517.116	32763.57
517.318	32505.53
517.52	33025.71
517.722	32773.81
517.925	33599.15
518.127	33795.75
518.329	34051.75
518.531	33793.7
518.733	34424.48
518.935	34565.79
519.136	35014.29
519.338	35534.48
519.54	35063.44
519.742	35980.93
519.944	36085.38
520.146	36517.5
520.348	36918.9
520.55	37133.94
520.752	36726.39
520.954	37693.04
521.155	37250.67
521.357	37856.87
521.559	38209.12
521.761	38655.58
521.963	38430.3
522.164	38788.7
522.366	38782.55
522.568	39040.6
522.77	39503.44
522.971	40255.04
523.173	39622.22
523.375	39769.68
523.576	40322.63
523.778	40173.13
523.98	40787.52
524.181	40695.36
524.383	41197.11
524.584	41416.24
524.786	41346.61
524.988	41358.9
525.189	41762.35
525.391	42151.46
525.592	42298.92
525.794	41956.91
525.995	42389.03
526.197	42403.36
526.398	42456.61
526.6	42923.55
526.801	42984.99
527.003	42974.75
527.204	43275.8
527.406	43294.23
527.607	43544.08
527.808	44060.17
528.01	43009.56
528.211	43480.6
528.412	44381.7
528.614	43742.74
528.815	44127.75
529.016	44588.55
529.218	43998.73
529.419	44279.3
529.62	44377.61
529.822	44465.67
530.023	44162.57
530.224	44645.89
530.425	44584.45
530.626	44156.42
530.828	44142.09
531.029	45049.34
531.23	44799.49
531.431	44709.38
531.632	45268.47
531.833	44996.09
532.035	45055.48
532.236	45065.72
532.437	45186.55
532.638	44893.69
532.839	45358.58
533.04	45262.33
533.241	44910.08
533.442	45667.83
533.643	45293.05
533.844	45385.21
534.045	44981.76
534.246	44979.71
534.447	45344.25
534.648	44885.5
534.849	45473.27
535.05	45366.77
535.251	45278.71
535.451	45579.76
535.652	45544.95
535.853	45274.62
536.054	45278.71
536.255	45260.28
536.456	45116.92
536.657	45655.54
536.857	45069.82
537.058	45082.11
537.259	45692.4
537.46	45321.72
537.66	45053.44
537.861	45415.93
538.062	45311.48
538.263	45524.47
538.463	45196.79
538.664	44856.83
538.865	45188.6
539.065	45587.96
539.266	44762.62
539.466	45297.14
539.667	44797.44
539.868	45454.84
540.068	44807.68
540.269	44850.69
540.469	45350.39
540.67	45086.2
540.87	45538.8
541.071	44922.37
541.271	45278.71
541.472	44840.45
541.672	44930.56
541.873	44797.44
542.073	44277.26
542.274	45325.82
542.474	45157.88
542.675	44549.63
542.875	45342.2
543.075	45331.96
543.276	44377.61
543.476	45090.3
543.676	44930.56
543.877	44748.29
544.077	44797.44
544.277	44711.42
544.478	44582.4
544.678	45358.58
544.878	44688.9
545.078	44803.58
545.279	44510.72
545.479	44633.6
545.679	44987.9
545.879	44502.53
546.079	44709.38
546.28	44660.23
546.48	44344.84
546.68	44389.89
546.88	44713.47
547.08	44359.17
547.28	44396.04
547.48	44434.95
547.68	44463.62
547.88	43949.58
548.081	44412.42
548.281	44408.33
548.481	44181
548.681	44656.13
548.881	44600.83
549.081	44109.32
549.28	44197.38
549.48	44641.79
549.68	44424.71
549.88	44848.64
550.08	43978.25
550.28	44254.73
550.48	44324.36
550.68	44189.19
550.88	43970.06
551.08	44264.97
551.279	44056.07
551.479	44109.32
551.679	44484.1
551.879	44123.66
552.079	43941.39
552.278	43908.62
552.478	44088.84
552.678	44074.51
552.878	44287.49
553.077	43937.29
553.277	43310.61
553.477	44516.87
553.676	43748.88
553.876	43836.94
554.076	43410.96
554.275	43394.58
554.475	43025.95
554.674	43648.53
554.874	44117.51
555.074	43980.3
555.273	43490.84
555.473	43681.3
555.672	43697.68
555.872	43333.14
556.071	43769.36
556.271	43570.71
556.47	43122.2
556.67	43157.02
556.869	43468.31
557.068	43531.79
557.268	43400.72
557.467	43159.06
557.667	43427.35
557.866	43513.36
558.065	43380.24
558.265	42888.73
558.464	42583.58
558.663	42812.96
558.863	42690.08
559.062	43214.36
559.261	42401.32
559.461	43103.77
559.66	42231.33
559.859	42575.39
560.058	42399.27
560.258	42503.71
560.457	42249.77
560.656	42755.61
560.855	42092.07
561.054	42366.5
561.253	42057.26
561.453	42153.51
561.652	42348.07
561.851	42360.36
562.05	41541.17
562.249	41633.33
562.448	42149.42
562.647	41784.88
562.846	41707.05
563.045	41467.44
563.244	41543.22
563.443	42051.11
563.642	41063.99
563.841	41379.38
564.04	41324.08
564.239	42051.11
564.438	40754.75
564.637	41102.9
564.836	41539.12
565.035	40580.67
565.234	41494.07
565.432	40941.11
565.631	40488.51
565.83	40844.86
566.029	40584.77
566.228	40648.25
566.427	40658.49
566.625	40611.39
566.824	40025.67
567.023	40758.84
567.222	40103.49
567.42	40719.93
567.619	40695.36
567.818	40275.52
568.016	39999.05
568.215	40480.32
568.414	40203.85
568.612	40150.6
568.811	40066.63
569.01	39812.68
569.208	39175.76
569.407	39829.07
569.605	39011.93
569.804	39710.28
570.002	39200.34
570.201	39028.31
570.4	39145.05
570.598	39013.98
570.797	38850.14
570.995	38921.82
571.193	38911.58
571.392	39321.17
571.59	38633.05
571.789	38076.01
571.987	38618.72
572.186	38542.94
572.384	38491.74
572.582	38807.13
572.781	38366.82
572.979	37799.53
573.177	37994.09
573.376	37836.39
573.574	37768.81
573.772	38166.12
573.971	37453.42
574.169	37863.02
574.367	37514.86
574.565	37746.28
574.763	36939.38
574.962	37193.33
575.16	36720.25
575.358	37564.01
575.556	36753.02
575.754	37176.95
575.952	36398.72
576.151	37031.54
576.349	36517.5
576.547	36660.86
576.745	36531.84
576.943	36345.47
577.141	36732.54
577.339	36241.03
577.537	36255.36
577.735	36259.46
577.933	35864.2
578.131	36038.28
578.329	36019.85
578.527	35847.82
578.725	35843.72
578.923	35798.66
579.121	35825.29
579.319	35223.19
579.516	35595.92
579.714	35413.65
579.912	35245.71
580.11	35106.45
580.308	35159.7
580.506	35057.3
580.704	34619.03
580.901	34899.61
581.099	35151.51
581.297	34961.05
581.495	34397.85
581.692	34713.24
581.89	33998.5
582.088	34727.58
582.285	34219.68
582.483	34211.49
582.681	34352.8
582.878	34141.86
583.076	33746.6
583.274	34203.3
583.471	33818.28
583.669	33736.36
583.866	33363.63
584.064	33765.03
584.262	33281.71
584.459	33656.49
584.657	33169.07
584.854	33418.92
585.052	32878.26
585.249	33300.14
585.447	33291.95
585.644	32585.4
585.841	32671.42
586.039	33003.19
586.236	32366.27
586.434	32347.84
586.631	32253.63
586.828	32530.11
587.026	32218.82
587.223	32528.06
587.42	31971.01
587.618	32044.74
587.815	31905.48
588.012	31700.68
588.21	31669.96
588.407	31841.99
588.604	31819.46
588.801	31426.25
588.999	31555.27
589.196	31534.79
589.393	31258.32
589.59	30983.89
589.787	30748.37
589.984	30973.65
590.182	30684.89
590.379	31030.99
590.576	30717.65
590.773	30930.64
590.97	30508.76
591.167	30668.5
591.364	30265.05
591.561	30621.4
591.758	30187.23
591.955	30179.04
592.152	30432.99
592.349	30037.73
592.546	30201.57
592.743	30189.28
592.94	29226.73
593.137	29675.24
593.334	29708.01
593.531	29435.63
593.727	29611.75
593.924	29120.24
594.121	29220.59
594.318	29038.32
594.515	29189.87
594.712	29429.48
594.908	28493.56
595.105	29239.02
595.302	28485.37
595.499	29097.71
595.696	28624.63
595.892	28436.22
596.089	28550.9
596.286	28897.01
596.482	28288.76
596.679	28006.14
596.876	28243.71
597.072	27903.74
597.269	27881.22
597.466	27606.79
597.662	27643.65
597.859	27909.89
598.055	27756.29
598.252	27459.34
598.448	27723.52
598.645	27168.52
598.841	27713.28
599.038	27477.77
599.234	27170.57
599.431	27197.2
599.627	27057.93
599.824	27117.32
600.02	27074.32
600.217	26980.11
600.413	26631.96
600.609	26812.18
600.806	26265.37
601.002	26615.57
601.198	26535.7
601.395	26228.51
601.591	26228.51
601.787	25792.29
601.984	25874.21
602.18	26392.34
602.376	25526.05
602.572	25843.49
602.769	25773.86
602.965	25718.56
603.161	25483.05
603.357	25618.21
603.553	25268.01
603.75	25579.3
603.946	25388.84
604.142	25517.86
604.338	24835.89
604.534	25376.55
604.73	24807.22
604.926	25095.98
605.122	25161.51
605.318	24823.6
605.514	24825.65
605.71	24622.9
605.906	24598.32
606.102	24698.67
606.298	24479.54
606.494	24547.12
606.69	24520.5
606.886	24385.33
607.082	24176.44
607.278	24287.03
607.474	24147.77
607.67	24364.85
607.866	23766.85
608.062	24284.98
608.257	23562.05
608.453	23699.27
608.649	23922.49
608.845	23885.63
609.041	23934.78
609.236	23686.98
609.432	23623.49
609.628	23592.77
609.824	23521.09
610.019	23762.75
610.215	23592.77
610.411	23605.06
610.606	23211.85
610.802	23447.36
610.998	23152.46
611.193	23134.03
611.389	22951.76
611.584	23025.48
611.78	22775.63
611.976	23072.59
612.171	22898.51
612.367	23127.88
612.562	22687.57
612.758	22429.52
612.953	22384.47
613.149	22755.15
613.344	22574.93
613.539	22847.31
613.735	22597.46
613.93	22640.47
614.126	22415.19
614.321	22525.78
614.517	22658.9
614.712	22595.41
614.907	22230.87
615.103	22265.69
615.298	22097.75
615.493	22349.65
615.688	21972.83
615.884	22239.06
616.079	22015.83
616.274	22257.5
616.47	22222.68
616.665	21727.07
616.86	21933.92
617.055	21815.13
617.25	21731.17
617.445	21909.34
617.641	21477.22
617.836	21729.12
618.031	21292.9
618.226	21813.09
618.421	21237.61
618.616	21884.76
618.811	21415.78
619.006	21297
619.201	20836.2
619.396	21194.6
619.591	20944.75
619.786	21049.19
619.981	20389.75
620.176	20965.23
620.371	20645.74
620.566	20379.51
620.761	20379.51
620.956	20643.7
621.151	20375.41
621.346	20260.73
621.541	20117.37
621.735	20230.01
621.93	19908.47
622.125	19775.36
622.32	19517.31
622.515	19685.25
622.709	19761.02
622.904	19371.91
623.099	19404.67
623.294	19339.14
623.488	19197.83
623.683	19298.18
623.878	18935.69
624.072	19050.38
624.267	18896.78
624.462	18618.25
624.656	18577.3
624.851	18536.34
625.046	18223
625.24	18288.53
625.435	18120.6
625.629	18184.09
625.824	17936.28
626.018	18044.82
626.213	17848.22
626.407	17756.06
626.602	17242.02
626.796	17663.9
626.991	17323.94
627.185	17321.89
627.38	17362.85
627.574	17065.89
627.768	17006.5
627.963	16961.45
628.157	16723.88
628.352	16967.59
628.546	16488.37
628.74	16766.89
628.935	16510.89
629.129	16332.72
629.323	16310.19
629.517	16134.07
629.712	16312.24
629.906	16009.14
630.1	15888.31
630.294	15994.81
630.489	15763.39
630.683	16138.16
630.877	15462.33
631.071	15531.97
631.265	15620.03
631.459	15224.77
631.653	15235.01
631.848	15261.63
632.042	15288.26
632.236	15548.35
632.43	15118.28
632.624	14872.52
632.818	14790.6
633.012	14639.05
633.206	14833.61
633.4	14626.76
633.594	14507.98
633.788	14440.4
633.982	14309.33
634.176	14503.89
634.369	14225.36
634.563	14233.55
634.757	14274.51
634.951	14276.56
635.145	14030.8
635.339	13809.62
635.533	13629.4
635.726	13944.79
635.92	13674.46
636.114	13680.6
636.308	13508.57
636.501	13348.83
636.695	13340.64
636.889	13201.38
637.083	13008.87
637.276	13266.91
637.47	13273.06
637.664	13103.07
637.857	13088.74
638.051	13060.07
638.244	12621.8
638.438	12816.36
638.632	12918.76
638.825	12826.6
639.019	12541.93
639.212	12439.53
639.406	12662.76
639.599	12351.47
639.793	12304.37
639.986	12109.81
640.18	12138.48
640.373	12093.43
640.567	12109.81
640.76	11970.55
640.954	11773.94
641.147	11823.09
641.34	11843.57
641.534	11808.76
641.727	11476.99
641.92	11526.14
642.114	11618.3
642.307	11595.77
642.5	11427.84
642.694	11276.29
642.887	11182.08
643.08	11444.22
643.273	11319.29
643.467	11235.33
643.66	11145.22
643.853	10967.04
644.046	11022.34
644.239	10866.69
644.432	11098.11
644.626	10813.45
644.819	10680.33
645.012	10702.86
645.205	10799.11
645.398	10827.78
645.591	10440.72
645.784	10285.07
645.977	10567.69
646.17	10231.82
646.363	10242.06
646.556	10215.44
646.749	10162.19
646.942	10184.72
647.135	10180.62
647.328	10020.88
647.521	10002.45
647.714	10121.23
647.907	9936.92
648.099	9814.04
648.292	9947.15
648.485	9627.67
648.678	9633.82
648.871	9500.7
649.064	9560.09
649.256	9549.85
649.449	9523.23
649.642	9383.96
649.835	9373.72
650.027	9140.26
650.22	9232.41
650.413	9281.57
650.605	9383.96
650.798	8982.56
650.991	9025.57
651.183	9072.67
651.376	9064.48
651.568	8859.68
651.761	8622.12
651.954	8990.75
652.146	8804.39
652.339	8738.85
652.531	8796.2
652.724	8708.13
652.916	8630.31
653.109	8464.43
653.301	8646.69
653.494	8575.02
653.686	8402.99
653.879	8474.67
654.071	8419.37
654.263	8290.35
654.456	8462.38
654.648	8171.57
654.84	8110.13
655.033	8106.03
655.225	8163.37
655.417	8196.14
655.61	8032.3
655.802	8198.19
655.994	8163.37
656.186	7874.61
656.379	7755.83
656.571	7921.71
656.763	7794.74
656.955	7671.86
657.148	7747.64
657.34	7647.29
657.532	7637.05
657.724	7569.46
657.916	7614.52
658.108	7518.26
658.3	7436.35
658.492	7442.49
658.684	7227.45
658.876	7436.35
659.068	7295.04
659.26	7288.89
659.452	7319.61
659.644	7194.68
659.836	7139.39
660.028	7082.05
660.22	7204.92
660.412	7225.4
660.604	7051.33
660.796	6928.45
660.988	6955.07
661.18	6996.03
661.372	6826.05
661.563	6932.54
661.755	6778.95
661.947	6881.35
662.139	6783.04
662.331	6707.27
662.522	6418.5
662.714	6651.97
662.906	6447.18
663.097	6570.05
663.289	6404.17
663.481	6412.36
663.673	6525
663.864	6373.45
664.056	6314.06
664.247	6475.85
664.439	6318.15
664.631	6457.42
664.822	6328.39
665.014	6191.18
665.205	6271.05
665.397	6234.19
665.588	6029.39
665.78	6058.06
665.971	6117.45
666.163	6117.45
666.354	6017.1
666.546	6015.05
666.737	5961.81
666.929	5974.1
667.12	5922.9
667.311	5898.32
667.503	5959.76
667.694	5738.58
667.885	5773.39
668.077	5832.79
668.268	5843.03
668.459	5640.28
668.651	5677.14
668.842	5666.9
669.033	5632.08
669.224	5607.51
669.416	5789.78
669.607	5566.55
669.798	5431.38
669.989	5589.08
670.18	5435.48
670.371	5357.66
670.563	5517.4
670.754	5550.17
670.945	5285.98
671.136	5288.03
671.327	5537.88
671.518	5415
671.709	5396.57
671.9	5460.06
672.091	5150.81
672.282	5263.45
672.473	5159
672.664	5093.47
672.855	5136.48
673.046	5187.68
673.237	5273.69
673.428	5167.2
673.619	5099.61
673.809	4991.07
674	5126.24
674.191	5097.56
674.382	5075.04
674.573	5068.89
674.764	5025.89
674.954	5181.53
675.145	4862.05
675.336	5099.61
675.527	4995.17
675.717	4960.35
675.908	4941.92
676.099	4790.37
676.289	4898.91
676.48	4778.08
676.671	4761.7
676.861	4841.57
677.052	4704.35
677.243	4757.6
677.433	4706.4
677.624	4786.27
677.814	4790.37
678.005	4677.73
678.195	4780.13
678.386	4698.21
678.576	4655.2
678.767	4653.16
678.957	4685.92
679.148	4642.92
679.338	4624.48
679.529	4567.14
679.719	4618.34
679.909	4534.37
680.1	4558.95
680.29	4597.86
680.481	4657.25
680.671	4626.53
680.861	4569.19
681.052	4442.21
681.242	4540.52
681.432	4405.35
681.622	4640.87
681.813	4515.94
682.003	4505.7
682.193	4431.98
682.383	4462.69
682.573	4370.54
682.764	4509.8
682.954	4331.62
683.144	4438.12
683.334	4331.62
683.524	4460.65
683.714	4388.97
683.904	4341.86
684.094	4331.62
684.284	4345.96
684.474	4348.01
684.664	4395.11
684.854	4233.32
685.044	4239.47
685.234	4206.7
685.424	4235.37
685.614	4143.21
685.804	4221.03
685.994	4249.71
686.184	4116.59
686.374	4157.55
686.564	4122.73
686.753	4251.75
686.943	4100.2
687.133	4079.72
687.323	4100.2
687.513	4087.92
687.702	4034.67
687.892	4006
688.082	3956.85
688.272	4008.05
688.461	4038.77
688.651	4044.91
688.841	3987.57
689.03	3850.35
689.22	3983.47
689.41	3889.26
689.599	3723.38
689.789	3819.63
689.979	3788.91
690.168	3815.54
690.358	3829.87
690.547	3762.29
690.737	3905.65
690.926	3868.78
691.116	3747.95
691.305	3715.19
691.495	3651.7
691.684	3655.79
691.874	3637.36
692.063	3635.32
692.252	3582.07
692.442	3610.74
692.631	3684.47
692.82	3438.71
693.01	3506.29
693.199	3426.42
693.388	3307.64
693.578	3563.64
693.767	3559.54
693.956	3444.85
694.146	3336.31
694.335	3334.26
694.524	3418.23
694.713	3451
694.902	3395.7
695.092	3508.34
695.281	3434.61
695.47	3360.89
695.659	3438.71
695.848	3391.61
696.037	3360.89
696.226	3340.41
696.415	3264.63
696.604	3324.02
696.793	3321.98
696.982	3274.87
697.171	3252.35
697.36	3215.48
697.549	3184.76
697.738	3274.87
697.927	3305.59
698.116	3252.35
698.305	3291.26
698.494	3209.34
698.683	3207.29
698.872	3131.51
699.061	3190.91
699.25	3076.22
699.438	3176.57
699.627	3176.57
699.816	3119.23
700.005	3113.08
700.193	3076.22
700.382	3168.38
700.571	3135.61
700.76	3070.08
700.948	3129.47
701.137	3209.34
701.326	3012.73
701.514	3139.71
701.703	3039.36
701.892	2986.11
702.08	3215.48
702.269	2984.06
702.457	3051.64
702.646	3010.68
702.834	3014.78
703.023	2988.16
703.212	3035.26
703.4	3002.49
703.589	2928.77
703.777	2986.11
703.965	2879.61
704.154	3004.54
704.342	2945.15
704.531	3160.19
704.719	2939.01
704.907	2955.39
705.096	2953.34
705.284	2883.71
705.472	3025.02
705.661	2912.38
705.849	2945.15
706.037	2863.23
706.226	2998.4
706.414	2834.56
706.602	2781.31
706.79	3022.97
706.979	2871.42
707.167	2879.61
707.355	2832.51
707.543	2820.22
707.731	2986.11
707.919	2775.17
708.107	2818.18
708.296	2732.16
708.484	2846.85
708.672	2779.26
708.86	2799.74
709.048	2904.19
709.236	2756.74
709.424	2912.38
709.612	2766.98
709.8	2830.46
709.988	2746.5
710.176	2842.75
710.364	2744.45
710.551	2771.07
710.739	2805.89
710.927	2719.87
711.115	2793.6
711.303	2754.69
711.491	2691.2
711.679	2750.59
711.866	2740.35
712.054	2615.43
712.242	2728.07
712.43	2660.48
712.617	2766.98
712.805	2656.39
712.993	2703.49
713.181	2617.47
713.368	2597
713.556	2664.58
713.744	2662.53
713.931	2719.87
714.119	2685.06
714.306	2640
714.494	2748.54
714.682	2711.68
714.869	2594.95
715.057	2701.44
715.244	2502.79
715.432	2646.15
715.619	2646.15
715.807	2617.47
715.994	2631.81
716.182	2570.37
716.369	2668.67
716.556	2625.67
716.744	2637.95
716.931	2576.52
717.119	2490.5
717.306	2531.46
717.493	2592.9
717.681	2553.99
717.868	2541.7
718.055	2523.27
718.242	2535.56
718.43	2560.13
718.617	2478.21
718.804	2441.35
718.991	2504.84
719.179	2463.88
719.366	2541.7
719.553	2547.84
719.74	2527.36
719.927	2545.8
720.114	2433.16
720.301	2615.43
720.488	2445.45
720.676	2551.94
720.863	2564.23
721.05	2510.98
721.237	2371.72
721.424	2504.84
721.611	2422.92
721.798	2404.49
721.985	2447.49
722.172	2447.49
722.358	2404.49
722.545	2539.65
722.732	2416.77
722.919	2502.79
723.106	2562.18
723.293	2363.53
723.48	2431.11
723.667	2394.25
723.853	2502.79
724.04	2429.06
724.227	2445.45
724.414	2486.4
724.6	2398.34
724.787	2404.49
724.974	2359.43
725.161	2365.57
725.347	2314.38
725.534	2338.95
725.72	2386.05
725.907	2357.38
726.094	2353.29
726.28	2265.22
726.467	2361.48
726.653	2338.95
726.84	2312.33
727.027	2390.15
727.213	2341
727.4	2363.53
727.586	2289.8
727.773	2465.93
727.959	2240.65
728.145	2285.7
728.332	2322.57
728.518	2263.18
728.705	2338.95
728.891	2334.86
729.077	2310.28
729.264	2283.66
729.45	2320.52
729.636	2273.42
729.823	2248.84
730.009	2420.87
730.195	2259.08
730.382	2289.8
730.568	2281.61
730.754	2324.62
730.94	2334.86
731.126	2240.65
731.313	2320.52
731.499	2259.08
731.685	2183.31
731.871	2142.35
732.057	2236.55
732.243	2338.95
732.429	2166.92
732.615	2269.32
732.801	2130.06
732.987	2191.5
733.173	2203.79
733.359	2146.44
733.545	2248.84
733.731	2150.54
733.917	2252.94
734.103	2191.5
734.289	2244.74
734.475	2191.5
734.661	2273.42
734.847	2222.22
735.033	2216.07
735.219	2105.48
735.404	2138.25
735.59	2216.07
735.776	2117.77
735.962	2175.11
736.148	2179.21
736.333	2257.03
736.519	2259.08
736.705	2224.26
736.89	2142.35
737.076	2154.63
737.262	2093.19
737.447	2132.11
737.633	2191.5
737.819	2146.44
738.004	2160.78
738.19	2166.92
738.375	2021.52
738.561	2150.54
738.747	2154.63
738.932	1927.31
739.118	2068.62
739.303	2101.39
739.489	2042
739.674	1962.12
739.859	2060.43
740.045	2136.2
740.23	2091.15
740.416	1978.51
740.601	2052.24
740.786	1990.8
740.972	1976.46
741.157	2011.28
741.342	1980.56
741.528	2001.04
741.713	1955.98
741.898	1966.22
742.084	2013.32
742.269	2019.47
742.454	1947.79
742.639	1972.36
742.824	1863.82
743.01	2001.04
743.195	1976.46
743.38	1863.82
743.565	1865.87
743.75	1872.01
743.935	1945.74
744.12	1904.78
744.305	1906.83
744.49	1855.63
744.675	1769.62
744.86	1812.62
745.045	1806.48
745.23	1906.83
745.415	1833.1
745.6	1806.48
745.785	1771.66
745.97	1763.47
746.155	1777.81
746.34	1810.58
746.525	1814.67
746.71	1820.81
746.895	1749.14
747.079	1712.27
747.264	1790.1
747.449	1704.08
747.634	1740.94
747.819	1722.51
748.003	1659.03
748.188	1579.15
748.373	1724.56
748.557	1595.54
748.742	1577.11
748.927	1702.03
749.111	1538.2
749.296	1652.88
749.481	1626.26
749.665	1603.73
749.85	1570.96
750.034	1618.07
750.219	1577.11
750.404	1564.82
750.588	1437.84
750.773	1487
750.957	1544.34
751.141	1446.04
751.326	1400.98
751.51	1355.93
751.695	1536.15
751.879	1501.33
752.064	1538.2
752.248	1396.89
752.432	1441.94
752.617	1491.09
752.801	1439.89
752.985	1317.01
753.17	1497.24
753.354	1370.26
753.538	1454.23
753.722	1370.26
753.907	1349.78
754.091	1274.01
754.275	1319.06
754.459	1235.1
754.643	1249.43
754.828	1321.11
755.012	1306.77
755.196	1319.06
755.38	1317.01
755.564	1241.24
755.748	1204.38
755.932	1226.9
756.116	1259.67
756.3	1212.57
756.484	1218.71
756.668	1241.24
756.852	1208.47
757.036	1208.47
757.22	1183.9
757.404	1171.61
757.588	1159.32
757.772	1101.98
757.956	1134.75
758.14	1114.27
758.323	1112.22
758.507	1134.75
758.691	1061.02
758.875	1138.84
759.059	1134.75
759.242	1101.98
759.426	1073.31
759.61	1056.92
759.794	1011.87
759.977	1069.21
760.161	1030.3
760.345	1052.83
760.528	1085.59
760.712	1079.45
760.895	1063.07
761.079	997.53
761.263	987.29
761.446	989.34
761.63	1073.31
761.813	1026.2
761.997	934.04
762.18	972.96
762.364	993.44
762.547	966.81
762.731	946.33
762.914	962.72
763.098	929.95
763.281	995.48
763.464	1015.96
763.648	952.48
763.831	970.91
764.015	903.32
764.198	921.76
764.381	991.39
764.564	911.52
764.748	856.22
764.931	876.7
765.114	886.94
765.297	977.05
765.481	946.33
765.664	858.27
765.847	907.42
766.03	905.37
766.213	956.57
766.397	954.52
766.58	915.61
766.763	864.41
766.946	874.65
767.129	782.49
767.312	798.88
767.495	925.85
767.678	884.89
767.861	872.61
768.044	796.83
768.227	792.73
768.41	870.56
768.593	848.03
768.776	882.85
768.959	766.11
769.142	856.22
769.324	823.45
769.507	856.22
769.69	733.34
769.873	821.41
770.056	852.13
770.239	796.83
770.421	739.49
770.604	762.02
770.787	790.69
770.97	827.55
771.152	762.02
771.335	727.2
771.518	637.09
771.7	757.92
771.883	827.55
772.066	725.15
772.248	762.02
772.431	778.4
772.613	745.63
772.796	782.49
772.978	698.53
773.161	716.96
773.343	719.01
773.526	790.69
773.708	778.4
773.891	653.47
774.073	698.53
774.256	659.62
774.438	745.63
774.621	643.23
774.803	741.54
774.985	628.9
775.168	737.44
775.35	669.86
775.532	647.33
775.715	589.99
775.897	653.47
776.079	684.19
776.261	704.67
776.444	532.64
776.626	653.47
776.808	551.07
776.99	563.36
777.173	725.15
777.355	630.95
777.537	655.52
777.719	555.17
777.901	614.56
778.083	532.64
778.265	495.78
778.447	733.34
778.629	602.27
778.811	612.51
778.993	551.07
779.175	532.64
779.357	600.23
779.539	473.25
779.721	528.55
779.903	587.94
780.085	471.2
780.267	610.47
780.449	522.4
780.631	520.35
780.812	575.65
780.994	555.17
781.176	491.68
781.358	528.55
781.54	479.4
781.721	575.65
781.903	499.88
782.085	514.21
782.267	508.07
782.448	532.64
782.63	454.82
782.812	458.92
782.993	493.73
783.175	452.77
783.357	424.1
783.538	467.11
783.72	452.77
783.901	399.52
784.083	471.2
784.264	489.64
784.446	432.29
784.627	487.59
784.809	475.3
784.99	450.72
785.172	454.82
785.353	430.24
785.535	434.34
785.716	422.05
785.897	446.63
786.079	413.86
786.26	424.1
786.441	438.44
786.623	327.85
786.804	434.34
786.985	358.57
787.167	413.86
787.348	391.33
787.529	348.33
787.71	489.64
787.891	307.37
788.073	458.92
788.254	350.37
788.435	440.48
788.616	401.57
788.797	338.09
788.978	411.81
789.159	340.13
789.34	317.61
789.522	350.37
789.703	368.81
789.884	319.65
790.065	379.04
790.246	463.01
790.427	344.23
790.607	325.8
790.788	327.85
790.969	284.84
791.15	379.04
791.331	397.48
791.512	282.79
791.693	325.8
791.874	374.95
792.054	346.28
792.235	360.61
792.416	348.33
792.597	211.11
792.778	325.8
792.958	344.23
793.139	282.79
793.32	243.88
793.5	274.6
793.681	319.65
793.862	252.07
794.042	288.93
794.223	290.98
794.404	233.64
794.584	118.95
794.765	225.45
794.945	282.79
795.126	327.85
795.306	348.33
795.487	297.13
795.667	260.26
795.848	223.4
796.028	245.93
796.209	331.94
796.389	317.61
796.57	237.74
796.75	239.78
796.93	290.98
797.111	315.56
797.291	200.87
797.471	184.49
797.652	256.17
797.832	209.06
798.012	274.6
798.192	164.01
798.373	190.63
798.553	284.84
798.733	237.74
798.913	225.45
799.093	288.93
799.274	266.41
799.454	225.45
799.634	207.02
799.814	196.78
799.994	219.3
800.174	250.02
800.354	198.82
800.534	202.92
800.714	153.77
800.894	223.4
801.074	202.92
801.254	250.02
801.434	213.16
801.614	153.77
801.794	164.01
801.974	821.41
802.154	102.57
802.334	202.92
802.514	241.83
802.693	178.34
802.873	225.45
803.053	190.63
803.233	180.39
803.413	280.74
803.592	118.95
803.772	209.06
803.952	176.3
804.131	202.92
804.311	237.74
804.491	145.58
804.67	225.45
804.85	225.45
805.03	207.02
805.209	141.48
805.389	223.4
805.568	135.34
805.748	155.82
805.928	161.96
806.107	241.83
806.287	194.73
806.466	170.15
806.646	192.68
806.825	268.45
807.004	219.3
807.184	256.17
807.363	250.02
807.543	227.5
807.722	204.97
807.901	178.34
808.081	123.05
808.26	90.28
808.439	55.47
808.619	159.91
808.798	204.97
808.977	188.58
809.156	176.3
809.336	184.49
809.515	149.67
809.694	149.67
809.873	176.3
810.052	200.87
810.231	153.77
810.411	215.21
810.59	211.11
810.769	121
810.948	159.91
811.127	94.38
811.306	159.91
811.485	59.56
811.664	106.67
811.843	80.04
812.022	178.34
812.201	164.01
812.38	151.72
812.559	168.1
812.737	209.06
812.916	178.34
813.095	178.34
813.274	209.06
813.453	123.05
813.632	227.5
813.811	127.14
813.989	104.62
814.168	143.53
814.347	157.86
814.526	153.77
814.704	131.24
814.883	121
815.062	151.72
815.24	161.96
815.419	125.1
815.598	213.16
815.776	63.66
815.955	63.66
816.133	71.85
816.312	145.58
816.49	104.62
816.669	182.44
816.847	106.67
817.026	131.24
817.204	118.95
817.383	86.19
817.561	192.68
817.74	96.43
817.918	47.27
818.097	112.81
818.275	129.19
818.453	127.14
818.632	139.43
818.81	164.01
818.988	118.95
819.167	45.23
819.345	118.95
819.523	155.82
819.701	110.76
819.879	84.14
820.058	77.99
820.236	157.86
820.414	108.71
820.592	153.77
820.77	96.43
820.948	137.38
821.127	108.71
821.305	164.01
821.483	94.38
821.661	127.14
821.839	30.89
822.017	123.05
822.195	86.19
822.373	129.19
822.551	80.04
822.729	151.72
822.907	18.6
823.085	161.96
823.262	53.42
823.44	73.9
823.618	53.42
823.796	172.2
823.974	131.24
824.152	53.42
824.329	139.43
824.507	161.96
824.685	114.86
824.863	47.27
825.04	-8.02
825.218	84.14
825.396	127.14
825.574	30.89
825.751	102.57
825.929	102.57
826.107	86.19
826.284	88.23
826.462	137.38
826.639	147.62
826.817	90.28
826.994	28.84
827.172	71.85
827.349	112.81
827.527	86.19
827.704	145.58
827.882	61.61
828.059	94.38
828.237	39.08
828.414	118.95
828.591	67.75
828.769	161.96
828.946	12.46
829.124	186.54
829.301	57.51
829.478	104.62
829.655	196.78
829.833	96.43
830.01	10.41
830.187	47.27
830.364	53.42
830.542	69.8
830.719	168.1
830.896	96.43
831.073	51.37
831.25	98.47
831.427	123.05
831.604	69.8
831.782	65.71
831.959	114.86
832.136	39.08
832.313	26.79
832.49	69.8
832.667	49.32
832.844	41.13
833.021	131.24
833.198	61.61
833.374	24.75
833.551	80.04
833.728	84.14
833.905	65.71
834.082	14.51
834.259	30.89
834.436	98.47
834.612	102.57
834.789	96.43
834.966	77.99
835.143	80.04
835.319	-5.97
835.496	88.23
835.673	28.84
835.85	135.34
836.026	73.9
836.203	53.42
836.38	65.71
836.556	110.76
836.733	-12.12
836.909	98.47
837.086	24.75
837.262	73.9
837.439	24.75
837.616	80.04
837.792	39.08
837.968	37.03
838.145	-1.88
838.321	4.27
838.498	94.38
838.674	149.67
838.851	69.8
839.027	-12.12
839.203	0.17
839.38	53.42
839.556	14.51
839.732	37.03
839.909	24.75
840.085	12.46
840.261	-57.17
840.437	77.99
840.614	0.17
840.79	69.8
840.966	34.99
841.142	28.84
841.318	6.31
841.494	88.23
841.671	129.19
841.847	98.47
842.023	28.84
842.199	4.27
842.375	94.38
842.551	20.65
842.727	18.6
842.903	53.42
843.079	63.66
843.255	121
843.431	45.23
843.607	45.23
843.783	-22.36
843.959	28.84
844.134	41.13
844.31	41.13
844.486	39.08
844.662	47.27
844.838	-20.31
845.013	16.55
845.189	22.7
845.365	88.23
845.541	20.65
845.716	28.84
845.892	59.56
846.068	59.56
846.244	39.08
846.419	94.38
846.595	-28.5
846.77	22.7
846.946	22.7
847.122	24.75
847.297	0.17
847.473	59.56
847.648	-32.6
847.824	110.76
847.999	37.03
848.175	53.42
848.35	94.38
848.526	18.6
848.701	90.28
848.876	49.32
849.052	125.1
849.227	14.51
849.403	34.99
849.578	71.85
849.753	-1.88
849.929	82.09
850.104	-26.45
850.279	22.7
850.454	-12.12
850.63	108.71
850.805	77.99
850.98	12.46
851.155	45.23
851.33	47.27
851.505	73.9
851.681	118.95
851.856	-36.69
852.031	39.08
852.206	0.17
852.381	-32.6
852.556	80.04
852.731	53.42
852.906	28.84
853.081	53.42
853.256	28.84
853.431	26.79
853.606	-22.36
853.781	-1.88
853.956	-24.4
854.131	-32.6
854.305	61.61
854.48	73.9
854.655	-20.31
854.83	20.65
855.005	16.55
855.18	20.65
855.354	37.03
855.529	37.03
855.704	30.89
855.879	73.9
856.053	-20.31
856.228	61.61
856.403	12.46
856.577	12.46
856.752	57.51
856.926	10.41
857.101	63.66
857.276	12.46
857.45	51.37
857.625	32.94
857.799	88.23
857.974	14.51
858.148	77.99
858.323	-1.88
858.497	16.55
858.672	43.18
858.846	-36.69
859.02	30.89
859.195	22.7
859.369	20.65
859.543	-55.12
859.718	4.27
859.892	77.99
860.066	55.47
860.241	4.27
860.415	28.84
860.589	92.33
860.763	47.27
860.938	12.46
861.112	37.03
861.286	-24.4
861.46	-1.88
861.634	-71.51
861.808	39.08
861.982	-3.93
862.157	32.94
862.331	63.66
862.505	-59.22
862.679	-32.6
862.853	63.66
863.027	-1.88
863.201	16.55
863.375	63.66
863.549	37.03
863.722	10.41
863.896	20.65
864.07	-48.98
864.244	18.6
864.418	-40.79
864.592	34.99
864.766	-40.79
864.939	-55.12
865.113	-14.17
865.287	24.75
865.461	-42.84
865.634	77.99
865.808	32.94
865.982	12.46
866.156	-3.93
866.329	55.47
866.503	110.76
866.676	49.32
866.85	47.27
867.024	-44.88
867.197	8.36
867.371	65.71
867.544	10.41
867.718	22.7
867.891	41.13
868.065	14.51
868.238	14.51
868.412	69.8
868.585	16.55
868.759	45.23
868.932	16.55
869.105	-53.08
869.279	30.89
869.452	37.03
869.625	57.51
869.799	-24.4
869.972	-32.6
870.145	47.27
870.319	106.67
870.492	-20.31
870.665	6.31
870.838	-24.4
871.011	-32.6
871.185	-8.02
871.358	-12.12
871.531	41.13
871.704	-8.02
871.877	-5.97
872.05	-1.88
872.223	8.36
872.396	-5.97
872.569	0.17
872.742	-26.45
872.915	80.04
873.088	-30.55
873.261	30.89
873.434	6.31
873.607	-57.17
873.78	86.19
873.953	65.71
874.126	37.03
874.299	-57.17
874.471	37.03
874.644	-10.07
874.817	30.89
874.99	-42.84
875.163	-40.79
875.335	0.17
875.508	20.65
875.681	-5.97
875.853	22.7
876.026	20.65
876.199	14.51
876.371	-18.26
876.544	28.84
876.717	30.89
876.889	8.36
877.062	-12.12
877.234	-48.98
877.407	-53.08
877.579	37.03
877.752	-18.26
877.924	6.31
878.097	6.31
878.269	37.03
878.442	14.51
878.614	39.08
878.786	-32.6
878.959	16.55
879.131	49.32
879.303	-36.69
879.476	6.31
879.648	75.95
879.82	4.27
879.993	28.84
880.165	-34.64
880.337	-112.47
880.509	37.03
880.681	-73.56
880.854	20.65
881.026	47.27
881.198	88.23
881.37	30.89
881.542	71.85
881.714	-3.93
881.886	-42.84
882.058	-32.6
882.23	47.27
882.402	16.55
882.574	-28.5
882.746	20.65
882.918	-22.36
883.09	-3.93
883.262	94.38
883.434	14.51
883.606	-65.36
883.778	30.89
883.95	28.84
884.122	14.51
884.293	22.7
884.465	20.65
884.637	45.23
884.809	28.84
884.98	30.89
885.152	65.71
885.324	53.42
885.496	-65.36
885.667	43.18
885.839	-44.88
886.011	39.08
886.182	2.22
886.354	30.89
886.525	12.46
886.697	39.08
886.869	-32.6
887.04	65.71
887.212	53.42
887.383	32.94
887.555	-28.5
887.726	24.75
887.897	45.23
888.069	8.36
888.24	96.43
888.412	37.03
888.583	20.65
888.754	47.27
888.926	28.84
889.097	-20.31
889.268	-120.66
889.44	14.51
889.611	-46.93
889.782	26.79
889.953	53.42
890.125	-24.4
890.296	-12.12
890.467	20.65
890.638	12.46
890.809	20.65
890.98	-22.36
891.151	45.23
891.323	34.99
891.494	69.8
891.665	-36.69
891.836	-16.21
892.007	-46.93
892.178	41.13
892.349	-69.46
892.52	32.94
892.691	-18.26
892.862	-1.88
893.032	-36.69
893.203	-12.12
893.374	-89.94
893.545	63.66
893.716	-5.97
893.887	49.32
894.057	12.46
894.228	4.27
894.399	34.99
894.57	14.51
894.74	-28.5
894.911	20.65
895.082	28.84
895.253	4.27
895.423	-20.31
895.594	49.32
895.764	86.19
895.935	-44.88
896.106	57.51
896.276	-16.21
896.447	71.85
896.617	-91.99
896.788	-135
896.958	71.85
897.129	-55.12
897.299	-8.02
897.47	0.17
897.64	98.47
897.81	-3.93
897.981	10.41
898.151	51.37
898.322	86.19
898.492	73.9
898.662	-42.84
898.832	-26.45
899.003	-12.12
899.173	41.13
899.343	-18.26
899.513	32.94
