Data from USB4F104151__238__14-22-15-489.txt Node

Date: Thu Mar 13 14:22:15 EDT 2025
User: louis
Spectrometer: USB4F10415
Trigger mode: 4
Integration Time (sec): 2.000000E-2
Scans to average: 1
Electric dark correction enabled: true
Nonlinearity correction enabled: false
Boxcar width: 0
XAxis mode: Wavelengths
Number of Pixels in Spectrum: 3648
>>>>>Begin Spectral Data<<<<<
178.204	-151.72
178.424	-151.72
178.644	-151.72
178.864	-118.95
179.084	-129.19
179.304	-20.65
179.524	26.45
179.744	3.93
179.964	28.5
180.184	-12.46
180.404	40.79
180.624	-47.27
180.844	-2.22
181.064	-24.75
181.283	-32.94
181.503	-34.99
181.723	75.6
181.943	-43.18
182.163	38.74
182.383	-18.6
182.602	135
182.822	-4.27
183.042	-28.84
183.262	3.93
183.482	38.74
183.701	-53.42
183.921	-20.65
184.141	-12.46
184.361	42.84
184.58	-2.22
184.8	110.42
185.02	28.5
185.239	30.55
185.459	-47.27
185.679	69.46
185.898	-12.46
186.118	-22.7
186.338	14.17
186.557	36.69
186.777	8.02
186.997	-28.84
187.216	-41.13
187.436	61.27
187.655	85.84
187.875	20.31
188.095	24.4
188.314	77.65
188.534	-8.36
188.753	-2.22
188.973	10.07
189.192	55.12
189.412	69.46
189.631	61.27
189.851	-12.46
190.07	42.84
190.29	-4.27
190.509	61.27
190.729	-16.55
190.948	71.51
191.168	87.89
191.387	94.04
191.607	44.88
191.826	-4.27
192.045	-26.79
192.265	73.56
192.484	-26.79
192.704	-2.22
192.923	22.36
193.142	44.88
193.362	5.97
193.581	85.84
193.8	61.27
194.02	40.79
194.239	-22.7
194.458	16.21
194.678	-16.55
194.897	20.31
195.116	46.93
195.335	3.93
195.555	14.17
195.774	44.88
195.993	55.12
196.212	12.12
196.432	14.17
196.651	61.27
196.87	18.26
197.089	75.6
197.308	38.74
197.528	14.17
197.747	3.93
197.966	3.93
198.185	59.22
198.404	3.93
198.623	-16.55
198.842	91.99
199.062	81.75
199.281	44.88
199.5	3.93
199.719	73.56
199.938	5.97
200.157	63.32
200.376	5.97
200.595	-2.22
200.814	106.32
201.033	73.56
201.252	91.99
201.471	79.7
201.69	-22.7
201.909	69.46
202.128	32.6
202.347	32.6
202.566	32.6
202.785	96.08
203.004	-34.99
203.223	55.12
203.442	42.84
203.661	34.64
203.879	-2.22
204.098	44.88
204.317	63.32
204.536	22.36
204.755	44.88
204.974	3.93
205.193	14.17
205.411	71.51
205.63	32.6
205.849	65.36
206.068	44.88
206.287	-28.84
206.505	85.84
206.724	59.22
206.943	36.69
207.162	-10.41
207.381	24.4
207.599	34.64
207.818	-10.41
208.037	-2.22
208.255	69.46
208.474	36.69
208.693	16.21
208.911	3.93
209.13	-6.31
209.349	53.08
209.567	87.89
209.786	57.17
210.005	12.12
210.223	-12.46
210.442	-28.84
210.661	-20.65
210.879	-28.84
211.098	12.12
211.316	22.36
211.535	87.89
211.753	24.4
211.972	-16.55
212.191	61.27
212.409	24.4
212.628	85.84
212.846	3.93
213.065	20.31
213.283	36.69
213.502	3.93
213.72	65.36
213.938	106.32
214.157	44.88
214.375	5.97
214.594	24.4
214.812	-4.27
215.031	12.12
215.249	32.6
215.467	153.43
215.686	40.79
215.904	16.21
216.122	-4.27
216.341	79.7
216.559	36.69
216.778	3.93
216.996	61.27
217.214	-26.79
217.432	-8.36
217.651	-20.65
217.869	32.6
218.087	12.12
218.306	-24.75
218.524	42.84
218.742	53.08
218.96	102.23
219.179	3.93
219.397	-4.27
219.615	16.21
219.833	30.55
220.051	18.26
220.27	22.36
220.488	-57.51
220.706	73.56
220.924	61.27
221.142	38.74
221.36	34.64
221.578	75.6
221.796	18.26
222.015	-16.55
222.233	73.56
222.451	102.23
222.669	8.02
222.887	-12.46
223.105	-53.42
223.323	-18.6
223.541	-98.47
223.759	53.08
223.977	24.4
224.195	126.8
224.413	1.88
224.631	48.98
224.849	128.85
225.067	55.12
225.285	32.6
225.503	-24.75
225.721	-49.32
225.939	69.46
226.157	-10.41
226.375	48.98
226.592	-28.84
226.81	53.08
227.028	28.5
227.246	30.55
227.464	22.36
227.682	61.27
227.9	57.17
228.117	38.74
228.335	-4.27
228.553	67.41
228.771	12.12
228.989	61.27
229.206	-28.84
229.424	38.74
229.642	5.97
229.86	69.46
230.077	63.32
230.295	-4.27
230.513	32.6
230.731	24.4
230.948	102.23
231.166	5.97
231.384	-28.84
231.601	12.12
231.819	36.69
232.037	38.74
232.254	-26.79
232.472	-16.55
232.689	28.5
232.907	20.31
233.125	3.93
233.342	69.46
233.56	-37.03
233.777	30.55
233.995	8.02
234.213	28.5
234.43	69.46
234.648	61.27
234.865	-20.65
235.083	3.93
235.3	46.93
235.518	96.08
235.735	30.55
235.953	-12.46
236.17	36.69
236.388	53.08
236.605	48.98
236.822	14.17
237.04	44.88
237.257	44.88
237.475	-2.22
237.692	-28.84
237.909	61.27
238.127	-24.75
238.344	-45.23
238.562	-34.99
238.779	22.36
238.996	69.46
239.214	16.21
239.431	36.69
239.648	5.97
239.865	22.36
240.083	22.36
240.3	22.36
240.517	22.36
240.735	3.93
240.952	65.36
241.169	59.22
241.386	-53.42
241.603	44.88
241.821	73.56
242.038	55.12
242.255	-26.79
242.472	-30.89
242.689	59.22
242.907	36.69
243.124	-47.27
243.341	36.69
243.558	-24.75
243.775	77.65
243.992	-0.17
244.209	53.08
244.426	30.55
244.643	120.66
244.86	36.69
245.078	71.51
245.295	-0.17
245.512	3.93
245.729	1.88
245.946	63.32
246.163	63.32
246.38	36.69
246.597	32.6
246.814	63.32
247.031	59.22
247.248	110.42
247.464	8.02
247.681	81.75
247.898	63.32
248.115	20.31
248.332	-18.6
248.549	77.65
248.766	57.17
248.983	28.5
249.2	53.08
249.417	-4.27
249.633	32.6
249.85	77.65
250.067	42.84
250.284	10.07
250.501	46.93
250.717	-57.51
250.934	12.12
251.151	104.28
251.368	53.08
251.585	61.27
251.801	16.21
252.018	-69.8
252.235	87.89
252.451	-28.84
252.668	38.74
252.885	61.27
253.102	-8.36
253.318	36.69
253.535	51.03
253.752	73.56
253.968	-4.27
254.185	53.08
254.401	28.5
254.618	28.5
254.835	3.93
255.051	73.56
255.268	42.84
255.484	55.12
255.701	-4.27
255.917	63.32
256.134	-8.36
256.351	102.23
256.567	10.07
256.784	-53.42
257	65.36
257.217	-47.27
257.433	32.6
257.65	46.93
257.866	94.04
258.082	22.36
258.299	8.02
258.515	36.69
258.732	32.6
258.948	-77.99
259.165	22.36
259.381	44.88
259.597	44.88
259.814	79.7
260.03	36.69
260.246	61.27
260.463	30.55
260.679	69.46
260.895	5.97
261.112	30.55
261.328	-30.89
261.544	-4.27
261.761	98.13
261.977	69.46
262.193	18.26
262.409	59.22
262.626	36.69
262.842	38.74
263.058	48.98
263.274	-12.46
263.49	1.88
263.707	53.08
263.923	77.65
264.139	8.02
264.355	30.55
264.571	32.6
264.787	57.17
265.004	63.32
265.22	10.07
265.436	59.22
265.652	-39.08
265.868	20.31
266.084	44.88
266.3	69.46
266.516	-2.22
266.732	-16.55
266.948	-45.23
267.164	61.27
267.38	77.65
267.596	-28.84
267.812	-34.99
268.028	65.36
268.244	-2.22
268.46	22.36
268.676	44.88
268.892	69.46
269.108	-37.03
269.324	-12.46
269.54	69.46
269.756	16.21
269.972	-37.03
270.188	77.65
270.403	-34.99
270.619	-45.23
270.835	79.7
271.051	48.98
271.267	-24.75
271.483	14.17
271.698	36.69
271.914	16.21
272.13	71.51
272.346	63.32
272.562	-4.27
272.777	85.84
272.993	57.17
273.209	5.97
273.425	-18.6
273.64	3.93
273.856	81.75
274.072	-53.42
274.287	40.79
274.503	28.5
274.719	18.26
274.934	28.5
275.15	46.93
275.366	48.98
275.581	-6.31
275.797	85.84
276.012	10.07
276.228	3.93
276.444	55.12
276.659	77.65
276.875	3.93
277.09	34.64
277.306	22.36
277.521	77.65
277.737	59.22
277.952	85.84
278.168	46.93
278.383	-18.6
278.599	-16.55
278.814	-43.18
279.03	79.7
279.245	12.12
279.461	61.27
279.676	100.18
279.892	77.65
280.107	85.84
280.322	20.31
280.538	81.75
280.753	20.31
280.969	28.5
281.184	-8.36
281.399	-8.36
281.615	110.42
281.83	20.31
282.045	-26.79
282.26	36.69
282.476	48.98
282.691	71.51
282.906	40.79
283.122	-24.75
283.337	-16.55
283.552	20.31
283.767	26.45
283.983	40.79
284.198	1.88
284.413	3.93
284.628	40.79
284.843	-6.31
285.058	42.84
285.274	22.36
285.489	-34.99
285.704	135
285.919	89.94
286.134	46.93
286.349	28.5
286.564	-12.46
286.779	79.7
286.995	-4.27
287.21	3.93
287.425	55.12
287.64	59.22
287.855	3.93
288.07	36.69
288.285	85.84
288.5	75.6
288.715	63.32
288.93	-22.7
289.145	3.93
289.36	-2.22
289.575	1.88
289.79	-16.55
290.004	38.74
290.219	57.17
290.434	30.55
290.649	-20.65
290.864	38.74
291.079	-51.37
291.294	124.76
291.509	26.45
291.724	12.12
291.938	-0.17
292.153	30.55
292.368	-30.89
292.583	145.24
292.798	96.08
293.012	36.69
293.227	24.4
293.442	16.21
293.657	63.32
293.871	12.12
294.086	61.27
294.301	81.75
294.516	85.84
294.73	12.12
294.945	61.27
295.16	53.08
295.374	77.65
295.589	3.93
295.804	-2.22
296.018	65.36
296.233	126.8
296.447	38.74
296.662	-18.6
296.877	32.6
297.091	94.04
297.306	36.69
297.52	3.93
297.735	67.41
297.949	-51.37
298.164	61.27
298.378	53.08
298.593	5.97
298.807	16.21
299.022	3.93
299.236	85.84
299.451	69.46
299.665	48.98
299.88	143.19
300.094	30.55
300.309	-4.27
300.523	40.79
300.737	16.21
300.952	-8.36
301.166	36.69
301.381	53.08
301.595	-53.42
301.809	-45.23
302.024	-0.17
302.238	-4.27
302.452	85.84
302.667	-10.41
302.881	-16.55
303.095	69.46
303.309	3.93
303.524	-77.99
303.738	14.17
303.952	42.84
304.166	61.27
304.381	28.5
304.595	28.5
304.809	-6.31
305.023	12.12
305.237	73.56
305.452	12.12
305.666	-0.17
305.88	34.64
306.094	63.32
306.308	16.21
306.522	130.9
306.736	32.6
306.95	53.08
307.164	38.74
307.379	63.32
307.593	73.56
307.807	85.84
308.021	12.12
308.235	34.64
308.449	38.74
308.663	5.97
308.877	16.21
309.091	-28.84
309.305	36.69
309.519	12.12
309.733	53.08
309.947	-4.27
310.161	81.75
310.374	73.56
310.588	40.79
310.802	3.93
311.016	46.93
311.23	48.98
311.444	40.79
311.658	51.03
311.872	38.74
312.085	116.56
312.299	38.74
312.513	69.46
312.727	69.46
312.941	22.36
313.154	20.31
313.368	63.32
313.582	40.79
313.796	-20.65
314.009	108.37
314.223	-20.65
314.437	48.98
314.651	12.12
314.864	34.64
315.078	24.4
315.292	48.98
315.505	48.98
315.719	53.08
315.933	-2.22
316.146	32.6
316.36	-51.37
316.573	126.8
316.787	46.93
317.001	71.51
317.214	26.45
317.428	8.02
317.641	16.21
317.855	14.17
318.068	3.93
318.282	106.32
318.495	61.27
318.709	36.69
318.922	-30.89
319.136	38.74
319.349	94.04
319.563	30.55
319.776	28.5
319.99	44.88
320.203	20.31
320.417	-12.46
320.63	38.74
320.843	-4.27
321.057	61.27
321.27	14.17
321.483	-28.84
321.697	108.37
321.91	36.69
322.124	61.27
322.337	87.89
322.55	-18.6
322.763	55.12
322.977	57.17
323.19	30.55
323.403	3.93
323.617	12.12
323.83	128.85
324.043	94.04
324.256	67.41
324.469	61.27
324.683	44.88
324.896	44.88
325.109	69.46
325.322	-6.31
325.535	77.65
325.748	94.04
325.962	71.51
326.175	-6.31
326.388	-43.18
326.601	77.65
326.814	5.97
327.027	65.36
327.24	77.65
327.453	22.36
327.666	32.6
327.879	106.32
328.092	69.46
328.305	61.27
328.518	3.93
328.731	14.17
328.944	38.74
329.157	-10.41
329.37	87.89
329.583	61.27
329.796	89.94
330.009	-26.79
330.222	57.17
330.435	28.5
330.648	94.04
330.861	63.32
331.073	5.97
331.286	36.69
331.499	87.89
331.712	55.12
331.925	20.31
332.138	-0.17
332.35	96.08
332.563	16.21
332.776	83.8
332.989	-49.32
333.202	36.69
333.414	3.93
333.627	69.46
333.84	24.4
334.053	51.03
334.265	30.55
334.478	73.56
334.691	8.02
334.903	-2.22
335.116	-41.13
335.329	65.36
335.541	65.36
335.754	57.17
335.966	57.17
336.179	61.27
336.392	14.17
336.604	28.5
336.817	40.79
337.029	-18.6
337.242	73.56
337.454	87.89
337.667	-0.17
337.88	75.6
338.092	14.17
338.305	20.31
338.517	24.4
338.729	59.22
338.942	67.41
339.154	53.08
339.367	44.88
339.579	38.74
339.792	-28.84
340.004	24.4
340.217	94.04
340.429	63.32
340.641	-55.47
340.854	28.5
341.066	42.84
341.278	94.04
341.491	112.47
341.703	61.27
341.915	-20.65
342.128	-18.6
342.34	-8.36
342.552	38.74
342.764	40.79
342.977	34.64
343.189	48.98
343.401	30.55
343.613	22.36
343.826	89.94
344.038	46.93
344.25	16.21
344.462	14.17
344.674	77.65
344.886	34.64
345.099	44.88
345.311	8.02
345.523	22.36
345.735	22.36
345.947	38.74
346.159	28.5
346.371	94.04
346.583	24.4
346.795	126.8
347.007	18.26
347.219	87.89
347.431	77.65
347.643	85.84
347.855	63.32
348.067	104.28
348.279	10.07
348.491	87.89
348.703	102.23
348.915	14.17
349.127	30.55
349.339	-20.65
349.551	94.04
349.763	89.94
349.975	30.55
350.187	83.8
350.399	46.93
350.61	48.98
350.822	44.88
351.034	132.95
351.246	38.74
351.458	44.88
351.669	102.23
351.881	57.17
352.093	59.22
352.305	36.69
352.517	77.65
352.728	36.69
352.94	94.04
353.152	65.36
353.363	85.84
353.575	36.69
353.787	124.76
353.999	-4.27
354.21	118.61
354.422	77.65
354.633	-32.94
354.845	20.31
355.057	94.04
355.268	73.56
355.48	20.31
355.692	61.27
355.903	-2.22
356.115	38.74
356.326	110.42
356.538	24.4
356.749	36.69
356.961	61.27
357.172	30.55
357.384	-4.27
357.595	36.69
357.807	85.84
358.018	53.08
358.23	114.52
358.441	22.36
358.653	73.56
358.864	38.74
359.075	8.02
359.287	30.55
359.498	77.65
359.709	65.36
359.921	61.27
360.132	65.36
360.344	10.07
360.555	81.75
360.766	42.84
360.977	63.32
361.189	102.23
361.4	55.12
361.611	132.95
361.823	53.08
362.034	69.46
362.245	61.27
362.456	38.74
362.667	110.42
362.879	16.21
363.09	145.24
363.301	57.17
363.512	3.93
363.723	24.4
363.935	20.31
364.146	85.84
364.357	36.69
364.568	12.12
364.779	-0.17
364.99	55.12
365.201	30.55
365.412	110.42
365.623	-45.23
365.834	126.8
366.045	55.12
366.256	112.47
366.467	59.22
366.678	44.88
366.889	137.04
367.1	53.08
367.311	53.08
367.522	38.74
367.733	34.64
367.944	104.28
368.155	34.64
368.366	59.22
368.577	104.28
368.788	106.32
368.999	14.17
369.209	61.27
369.42	94.04
369.631	94.04
369.842	132.95
370.053	28.5
370.264	79.7
370.474	89.94
370.685	69.46
370.896	-4.27
371.107	63.32
371.317	14.17
371.528	106.32
371.739	20.31
371.95	89.94
372.16	61.27
372.371	44.88
372.582	106.32
372.792	28.5
373.003	44.88
373.214	26.45
373.424	63.32
373.635	63.32
373.846	79.7
374.056	77.65
374.267	30.55
374.477	91.99
374.688	3.93
374.898	28.5
375.109	61.27
375.319	63.32
375.53	14.17
375.74	77.65
375.951	51.03
376.161	87.89
376.372	30.55
376.582	73.56
376.793	73.56
377.003	42.84
377.214	104.28
377.424	106.32
377.635	75.6
377.845	63.32
378.055	114.52
378.266	28.5
378.476	100.18
378.686	81.75
378.897	102.23
379.107	167.76
379.317	-10.41
379.528	73.56
379.738	-12.46
379.948	38.74
380.158	36.69
380.369	63.32
380.579	38.74
380.789	57.17
380.999	81.75
381.21	20.31
381.42	126.8
381.63	40.79
381.84	83.8
382.05	61.27
382.261	69.46
382.471	61.27
382.681	38.74
382.891	87.89
383.101	112.47
383.311	73.56
383.521	48.98
383.731	61.27
383.941	5.97
384.151	18.26
384.361	132.95
384.571	81.75
384.781	83.8
384.991	149.33
385.201	118.61
385.411	89.94
385.621	53.08
385.831	14.17
386.041	175.95
386.251	38.74
386.461	69.46
386.671	87.89
386.881	12.12
387.091	71.51
387.301	145.24
387.511	-20.65
387.72	63.32
387.93	98.13
388.14	61.27
388.35	69.46
388.56	120.66
388.769	69.46
388.979	112.47
389.189	-20.65
389.399	143.19
389.609	91.99
389.818	83.8
390.028	77.65
390.238	87.89
390.447	55.12
390.657	120.66
390.867	89.94
391.076	71.51
391.286	55.12
391.496	116.56
391.705	104.28
391.915	137.04
392.125	96.08
392.334	42.84
392.544	157.52
392.753	94.04
392.963	40.79
393.172	118.61
393.382	65.36
393.591	175.95
393.801	102.23
394.01	171.86
394.22	57.17
394.429	104.28
394.639	161.62
394.848	120.66
395.058	106.32
395.267	102.23
395.477	69.46
395.686	69.46
395.895	83.8
396.105	94.04
396.314	126.8
396.524	110.42
396.733	102.23
396.942	85.84
397.152	139.09
397.361	235.35
397.57	128.85
397.78	171.86
397.989	87.89
398.198	178
398.407	145.24
398.617	120.66
398.826	143.19
399.035	69.46
399.244	151.38
399.453	130.9
399.663	202.58
399.872	237.39
400.081	118.61
400.29	122.71
400.499	149.33
400.708	167.76
400.917	104.28
401.127	169.81
401.336	124.76
401.545	235.35
401.754	151.38
401.963	249.68
402.172	192.34
402.381	94.04
402.59	171.86
402.799	186.19
403.008	163.67
403.217	155.47
403.426	161.62
403.635	204.63
403.844	173.91
404.053	221.01
404.262	192.34
404.471	212.82
404.68	139.09
404.888	188.24
405.097	182.1
405.306	151.38
405.515	235.35
405.724	216.91
405.933	282.45
406.142	266.07
406.35	282.45
406.559	253.78
406.768	221.01
406.977	251.73
407.185	290.64
407.394	347.98
407.603	315.22
407.812	286.54
408.02	352.08
408.229	358.22
408.438	368.46
408.646	347.98
408.855	429.9
409.064	407.38
409.272	341.84
409.481	397.14
409.69	345.94
409.898	390.99
410.107	438.09
410.315	511.82
410.524	479.05
410.733	423.76
410.941	505.68
411.15	497.49
411.358	413.52
411.567	581.45
411.775	587.6
411.984	524.11
412.192	692.04
412.401	626.51
412.609	610.12
412.818	689.99
413.026	683.85
413.234	720.71
413.443	728.91
413.651	675.66
413.86	851.78
414.068	853.83
414.276	937.8
414.485	843.59
414.693	950.09
414.901	984.9
415.11	1111.88
415.318	1036.1
415.526	1068.87
415.734	1142.6
415.943	1099.59
416.151	1261.38
416.359	1132.36
416.567	1357.63
416.776	1308.48
416.984	1437.5
417.192	1474.37
417.4	1384.26
417.608	1472.32
417.817	1482.56
418.025	1640.25
418.233	1660.73
418.441	1675.07
418.649	1683.26
418.857	1785.66
419.065	1953.59
419.273	1838.91
419.481	1871.67
419.689	2084.66
419.897	2139.96
420.105	2158.39
420.313	2240.31
420.521	2314.03
420.729	2406.19
420.937	2424.62
421.145	2567.98
421.353	2803.5
421.561	2883.37
421.769	2830.12
421.977	3028.78
422.185	2797.35
422.393	3200.8
422.601	3444.51
422.809	3321.63
423.017	3274.53
423.224	3487.52
423.432	3612.45
423.64	3657.5
423.848	3946.27
424.056	3843.87
424.263	4173.59
424.471	4149.01
424.679	4232.98
424.887	4398.87
425.094	4562.7
425.302	4613.9
425.51	4775.69
425.718	4992.78
425.925	5003.02
426.133	5287.68
426.341	5543.68
426.548	5734.14
426.756	5709.57
426.964	5650.18
427.171	6039.29
427.379	6328.05
427.586	6469.36
427.794	6747.89
428.001	6721.26
428.209	7145.19
428.417	7180.01
428.624	7466.72
428.832	7425.76
429.039	7556.83
429.247	7552.74
429.454	8320.73
429.662	8754.9
429.869	8132.31
430.076	8816.33
430.284	8535.76
430.491	8836.81
430.699	9227.98
430.906	9531.08
431.114	9623.23
431.321	9672.39
431.528	10063.55
431.736	10813.1
431.943	11316.9
432.15	10690.23
432.358	10870.45
432.565	11564.71
432.772	11499.17
432.979	12183.2
433.187	12398.23
433.394	12449.43
433.601	13254.28
433.808	13178.51
434.016	13266.57
434.223	13932.16
434.43	14691.96
434.637	14270.08
434.844	15158.89
435.052	15429.23
435.259	15320.68
435.466	15502.95
435.673	15521.38
435.88	16127.58
436.087	17182.29
436.294	17137.23
436.501	16784.98
436.708	17018.45
436.915	17802.82
437.122	18660.92
437.329	18153.02
437.537	18853.43
437.743	19228.21
437.95	19242.54
438.157	20157.99
438.364	20977.17
438.571	20721.18
438.778	20889.11
438.985	22896.12
439.192	22027.78
439.399	22787.58
439.606	21976.58
439.813	23436.78
440.02	24716.76
440.227	24241.64
440.433	24036.84
440.64	24757.72
440.847	24407.52
441.054	25212.37
441.261	26838.46
441.467	26619.33
441.674	26869.18
441.881	28052.91
442.088	28102.06
442.294	27739.57
442.501	28245.41
442.708	29056.41
442.914	30367.11
443.121	31399.29
443.328	30477.7
443.534	32611.68
443.741	31845.74
443.948	31237.5
444.154	33654.1
444.361	33375.58
444.568	33660.24
444.774	33543.51
444.981	33631.57
445.187	34979.14
445.394	36429.1
445.6	35882.29
445.807	39273.73
446.013	37672.21
446.22	38124.82
446.426	39419.13
446.633	40068.34
446.839	41444.57
447.046	39578.87
447.252	41632.99
447.459	41725.14
447.665	41854.17
447.871	43433.15
448.078	45266.08
448.284	43142.34
448.491	44453.04
448.697	46146.71
448.903	46580.88
449.11	46955.66
449.316	46021.78
449.522	46603.41
449.728	48438.39
449.935	48649.33
450.141	48458.87
450.347	49130.6
450.553	47783.04
450.76	48608.37
450.966	50510.93
451.172	49726.56
451.378	50527.31
451.584	50330.71
451.791	51143.75
451.997	51006.54
452.203	51608.64
452.409	51649.6
452.615	52003.9
452.821	49677.41
453.027	49087.59
453.233	51676.22
453.44	49585.25
453.646	50218.07
453.852	50642
454.058	51524.68
454.264	49740.89
454.47	50998.35
454.676	49656.93
454.882	51248.2
455.088	46949.51
455.294	48194.68
455.5	48940.14
455.705	49120.36
455.911	47023.24
456.117	46259.35
456.323	46064.79
456.529	43437.25
456.735	45259.94
456.941	44020.92
457.147	43377.86
457.352	42325.2
457.558	41934.04
457.764	41854.17
457.97	41370.85
458.176	40520.94
458.381	40314.09
458.587	38591.75
458.793	38446.35
458.999	36502.82
459.204	39181.57
459.41	38149.39
459.616	35675.44
459.821	35646.77
460.027	35550.52
460.233	34846.02
460.438	33176.92
460.644	33637.72
460.85	31769.97
461.055	31194.49
461.261	31579.51
461.466	29396.37
461.672	28290.47
461.878	30199.18
462.083	28509.6
462.289	27755.95
462.494	27536.82
462.7	26277.32
462.905	25923.02
463.111	26664.38
463.316	26471.87
463.522	25961.93
463.727	25937.35
463.932	25867.72
464.138	25953.74
464.343	25707.98
464.549	25116.12
464.754	25998.79
464.959	25861.58
465.165	25239
465.37	24155.62
465.575	24081.89
465.781	24858.07
465.986	25009.62
466.191	24012.26
466.397	23404.02
466.602	22156.8
466.807	23203.32
467.012	23045.62
467.218	23182.84
467.423	22654.46
467.628	22853.11
467.833	23698.92
468.038	23016.95
468.244	22158.85
468.449	23254.51
468.654	22660.6
468.859	22320.64
469.064	22214.15
469.269	21136.91
469.474	21548.56
469.679	22255.11
469.885	21310.99
470.09	21909
470.295	21476.88
470.5	21167.63
470.705	21184.02
470.91	20739.61
471.115	20762.14
471.32	20776.47
471.525	20438.56
471.73	20035.11
471.935	20031.01
472.139	19127.86
472.344	19738.15
472.549	19553.83
472.754	19213.87
472.959	18904.63
473.164	18423.36
473.369	18325.05
473.574	19019.32
473.778	18746.94
473.983	18368.06
474.188	18507.32
474.393	17890.88
474.598	17923.65
474.802	17624.65
475.007	17466.95
475.212	17469
475.417	16807.51
475.621	16981.59
475.826	17034.83
476.031	16832.08
476.235	16328.28
476.44	16764.5
476.645	16135.78
476.849	16455.26
477.054	16199.26
477.259	15789.67
477.463	15668.84
477.668	15617.64
477.872	15597.16
478.077	15416.94
478.282	14853.75
478.486	14925.43
478.691	14657.14
478.895	14728.82
479.1	14777.97
479.304	14577.27
479.509	14034.56
479.713	14581.37
479.918	14192.25
480.122	14063.23
480.326	14294.65
480.531	14251.64
480.735	14110.33
480.94	13854.34
481.144	14261.88
481.348	13725.32
481.553	13887.11
481.757	13250.19
481.961	13835.91
482.166	14052.99
482.37	13520.52
482.574	13477.51
482.778	13397.64
482.983	13944.45
483.187	13581.96
483.391	13690.5
483.595	13745.8
483.8	13342.35
484.004	13454.98
484.208	13753.99
484.412	13649.54
484.616	13594.25
484.821	13338.25
485.025	13328.01
485.229	13823.62
485.433	13500.04
485.637	13516.42
485.841	13565.57
486.045	13682.31
486.249	13508.23
486.453	13629.06
486.657	13461.13
486.861	13696.64
487.065	13285
487.269	13207.18
487.473	13387.4
487.677	13622.92
487.881	13635.21
488.085	13504.14
488.289	13581.96
488.493	13444.74
488.697	13610.63
488.901	13448.84
489.105	13543.05
489.309	13467.27
489.512	13876.87
489.716	13678.21
489.92	13575.81
490.124	13653.64
490.328	13964.93
490.531	13946.5
490.735	13936.26
490.939	14079.61
491.143	13862.53
491.346	13706.88
491.55	13995.65
491.754	14268.03
491.958	14188.16
492.161	14081.66
492.365	14429.82
492.569	14106.24
492.772	14270.08
492.976	14442.1
493.18	14339.71
493.383	14642.81
493.587	14610.04
493.79	14876.27
493.994	14663.29
494.197	14845.55
494.401	15029.87
494.605	14816.88
494.808	15101.55
495.012	15242.86
495.215	15500.9
495.419	15505
495.622	15285.87
495.825	15742.57
496.029	15900.26
496.232	16137.82
496.436	15642.21
496.639	16436.83
496.843	16309.85
497.046	16637.53
497.249	16723.54
497.453	16815.7
497.656	17026.64
497.859	17096.27
498.063	16985.68
498.266	17198.67
498.469	17469
498.673	17602.12
498.876	17905.22
499.079	18112.06
499.282	17950.28
499.485	18441.79
499.689	18484.8
499.892	18890.29
500.095	18650.68
500.298	19289.65
500.501	18957.88
500.705	19545.64
500.908	19785.26
501.111	20325.92
501.314	20289.06
501.517	20549.15
501.72	20778.52
501.923	20663.83
502.126	21169.68
502.329	21507.6
502.532	21487.12
502.735	21796.36
502.938	22066.69
503.141	22146.56
503.344	22482.43
503.547	22683.13
503.75	22973.94
503.953	23174.64
504.156	23195.12
504.359	23662.06
504.562	23645.68
504.765	24153.57
504.968	24442.34
505.17	24479.2
505.373	24583.65
505.576	25007.58
505.779	25462.22
505.982	25535.95
506.185	25925.07
506.387	26131.91
506.59	26215.88
506.793	26705.34
506.996	26807.74
507.198	27686.32
507.401	27088.31
507.604	27872.68
507.807	28132.78
508.009	28673.44
508.212	28648.86
508.415	29050.27
508.617	29394.32
508.82	29281.69
509.022	29273.49
509.225	30190.98
509.428	30342.53
509.63	30551.43
509.833	30717.31
510.035	31057.28
510.238	31284.6
510.44	31458.68
510.643	32050.54
510.845	32193.9
511.048	32079.21
511.25	32671.07
511.453	33121.63
511.655	34139.47
511.858	33893.71
512.06	34417.99
512.262	34729.28
512.465	34630.98
512.667	35022.14
512.87	35067.2
513.072	35286.33
513.274	35839.28
513.477	36365.61
513.679	36627.75
513.881	36959.52
514.084	37457.18
514.286	37342.49
514.488	37573.91
514.69	38442.25
514.893	38573.32
515.095	38698.25
515.297	39365.88
515.499	39499
515.701	39716.09
515.904	40322.29
516.106	40498.41
516.308	40989.92
516.51	41282.78
516.712	41092.32
516.914	41444.57
517.116	42800.33
517.318	42388.69
517.52	42818.76
517.722	42970.31
517.925	43248.83
518.127	44311.73
518.329	43807.93
518.531	44213.43
518.733	44819.63
518.935	44995.75
519.136	45200.55
519.338	46269.59
519.54	45552.8
519.742	46392.47
519.944	46439.57
520.146	47649.92
520.348	47539.33
520.55	47533.18
520.752	47645.82
520.954	48477.3
521.155	48356.47
521.357	48880.75
521.559	49276.01
521.761	49943.64
521.963	49564.77
522.164	50054.23
522.366	50203.74
522.568	50988.11
522.77	50607.19
522.971	51496
523.173	51176.52
523.375	51864.64
523.576	51907.65
523.778	52255.8
523.98	53001.26
524.181	52608.05
524.383	53279.78
524.584	53642.27
524.786	53380.13
524.988	53394.47
525.189	53517.35
525.391	54289.43
525.592	54856.72
525.794	54649.88
525.995	54234.14
526.197	54541.33
526.398	54613.01
526.6	55563.27
526.801	55561.22
527.003	55534.6
527.204	55653.38
527.406	56194.04
527.607	55819.27
527.808	56476.66
528.01	55649.28
528.211	56321.02
528.412	57336.81
528.614	56892.4
528.815	56925.17
529.016	57385.96
529.218	56554.49
529.419	57119.73
529.62	57291.76
529.822	57392.11
530.023	57304.04
530.224	57418.73
530.425	56906.74
530.626	57015.28
530.828	57054.19
531.029	58289.12
531.23	57367.53
531.431	57807.84
531.632	57803.75
531.833	57891.81
532.035	57783.27
532.236	58246.11
532.437	58368.99
532.638	57889.76
532.839	58258.4
533.04	58368.99
533.241	57992.16
533.442	59085.78
533.643	58708.95
533.844	58483.67
534.045	58145.76
534.246	57562.09
534.447	58346.46
534.648	57881.57
534.849	58164.19
535.05	58495.96
535.251	58631.13
535.451	57994.21
535.652	58416.09
535.853	58309.6
536.054	58303.45
536.255	58475.48
536.456	57762.79
536.657	58983.38
536.857	58082.27
537.058	58368.99
537.259	58923.99
537.46	58459.1
537.66	58115.04
537.861	58313.69
538.062	58166.24
538.263	58393.56
538.463	58432.47
538.664	58319.84
538.865	58065.89
539.065	58475.48
539.266	58074.08
539.466	58459.1
539.667	57791.46
539.868	58969.04
540.068	58090.46
540.269	58139.61
540.469	58608.6
540.67	57834.47
540.87	58411.99
541.071	58098.65
541.271	58076.13
541.472	57908.19
541.672	58024.93
541.873	57791.46
542.073	57463.78
542.274	58450.91
542.474	58213.34
542.675	57459.69
542.875	58270.68
543.075	58192.86
543.276	57314.28
543.476	58211.29
543.676	57496.55
543.877	57900
544.077	57922.53
544.277	57291.76
544.478	58127.33
544.678	58156
544.878	58186.72
545.078	57480.17
545.279	57492.46
545.479	57621.48
545.679	57727.97
545.879	57816.04
546.079	57828.32
546.28	57770.98
546.48	57211.88
546.68	57740.26
546.88	57961.44
547.08	57934.82
547.28	57381.87
547.48	57109.49
547.68	57568.23
547.88	56824.82
548.081	57631.72
548.281	57668.58
548.481	57375.72
548.681	57500.65
548.881	57234.41
549.081	57353.19
549.28	57426.92
549.48	57367.53
549.68	57590.76
549.88	58137.57
550.08	56941.55
550.28	57271.28
550.48	57172.97
550.68	57904.1
550.88	57060.33
551.08	57222.12
551.279	57449.45
551.479	57304.04
551.679	57050.09
551.879	56859.63
552.079	57355.24
552.278	56509.43
552.478	57048.05
552.678	56878.07
552.878	57416.68
553.077	56931.31
553.277	56742.9
553.477	57431.02
553.676	56517.62
553.876	56777.71
554.076	56542.2
554.275	56546.29
554.475	56527.86
554.674	56876.02
554.874	56810.48
555.074	56615.93
555.273	56935.41
555.473	57308.14
555.672	56501.24
555.872	56581.11
556.071	56896.5
556.271	56706.04
556.47	56646.64
556.67	56282.11
556.869	56519.67
557.068	56550.39
557.268	56169.47
557.467	56189.95
557.667	55944.19
557.866	56591.35
558.065	56099.84
558.265	56189.95
558.464	55974.91
558.663	56046.59
558.863	55565.32
559.062	56165.37
559.261	55499.78
559.461	56454.14
559.66	55270.41
559.859	55653.38
560.058	55436.3
560.258	55540.74
560.457	55559.17
560.656	55868.42
560.855	55264.27
561.054	55649.28
561.253	55165.96
561.453	55110.67
561.652	55505.93
561.851	55591.94
562.05	55174.16
562.249	54776.85
562.448	55403.53
562.647	55348.23
562.846	55372.81
563.045	55141.39
563.244	54428.69
563.443	55428.1
563.642	54101.02
563.841	54625.3
564.04	54574.1
564.239	54973.45
564.438	54139.93
564.637	54588.44
564.836	54453.27
565.035	53951.52
565.234	54430.74
565.432	53873.7
565.631	53627.94
565.83	53982.24
566.029	53523.49
566.228	53658.66
566.427	53570.6
566.625	52923.44
566.824	53003.31
567.023	54131.74
567.222	53027.88
567.42	53795.87
567.619	53351.46
567.818	53027.88
568.016	53003.31
568.215	53429.29
568.414	52581.43
568.612	53124.14
568.811	52499.51
569.01	52794.42
569.208	52020.28
569.407	52706.35
569.605	51967.04
569.804	52583.47
570.002	51876.93
570.201	52399.16
570.4	51858.49
570.598	51373.13
570.797	51555.39
570.995	51823.68
571.193	51459.14
571.392	51872.83
571.59	51524.68
571.789	51711.04
571.987	50928.72
572.186	51420.23
572.384	50947.15
572.582	51299.4
572.781	50938.96
572.979	50140.25
573.177	50832.46
573.376	50961.48
573.574	50455.64
573.772	50568.27
573.971	50414.68
574.169	50224.21
574.367	49964.12
574.565	50207.83
574.763	50033.75
574.962	49597.54
575.16	49144.94
575.358	49927.26
575.556	49063.02
575.754	49970.27
575.952	49116.26
576.151	49429.6
576.349	48804.97
576.547	49161.32
576.745	48841.84
576.943	48895.08
577.141	48782.44
577.339	48718.96
577.537	48694.38
577.735	48784.49
577.933	48006.26
578.131	48426.1
578.329	48276.6
578.527	47914.11
578.725	47719.55
578.923	48137.33
579.121	47883.39
579.319	47727.74
579.516	47783.04
579.714	47643.77
579.912	47512.7
580.11	47205.51
580.308	47455.36
580.506	47498.37
580.704	46802.06
580.901	47105.16
581.099	46679.18
581.297	46316.69
581.495	46318.74
581.692	46969.99
581.89	46363.79
582.088	46445.71
582.285	46279.83
582.483	46279.83
582.681	45937.82
582.878	46220.44
583.076	45733.02
583.274	45776.03
583.471	45411.49
583.669	45638.81
583.866	45257.89
584.064	45524.13
584.262	44919.98
584.459	45450.4
584.657	44932.26
584.854	45116.58
585.052	44440.75
585.249	44547.25
585.447	44864.68
585.644	44248.24
585.841	44647.6
586.039	44563.63
586.236	44289.2
586.434	44049.59
586.631	43908.28
586.828	44006.58
587.026	43986.1
587.223	43803.83
587.42	43508.93
587.618	43185.35
587.815	43052.23
588.012	42915.01
588.21	43246.79
588.407	43586.75
588.604	42726.6
588.801	42755.27
588.999	42364.11
589.196	42448.08
589.393	42407.12
589.59	41970.9
589.787	42081.49
589.984	41997.52
590.182	41485.53
590.379	41630.94
590.576	41532.64
590.773	41594.07
590.97	41041.12
591.167	41714.9
591.364	40836.33
591.561	41395.42
591.758	40824.04
591.955	40627.43
592.152	40842.47
592.349	40529.13
592.546	40510.7
592.743	40506.6
592.94	39843.06
593.137	40039.67
593.334	40340.72
593.531	39613.69
593.727	40094.96
593.924	40017.14
594.121	39156.99
594.318	39818.49
594.515	39271.68
594.712	39671.03
594.908	39304.45
595.105	39288.06
595.302	39058.69
595.499	38907.14
595.696	38894.85
595.892	38518.03
596.089	38735.11
596.286	38817.03
596.482	38464.78
596.679	38507.79
596.876	38196.49
597.072	38147.34
597.269	38141.2
597.466	37727.51
597.662	37782.8
597.859	37612.82
598.055	37477.66
598.252	36891.94
598.448	37393.69
598.645	37195.04
598.841	36814.12
599.038	37188.89
599.234	36871.46
599.431	36793.64
599.627	36666.66
599.824	36662.57
600.02	36506.92
600.217	36427.05
600.413	36480.3
600.609	36193.58
600.806	35915.06
601.002	36562.22
601.198	36017.46
601.395	35648.82
601.591	35550.52
601.787	35743.03
601.984	34864.45
602.18	35630.39
602.376	34970.94
602.572	35054.91
602.769	35065.15
602.965	35081.53
603.161	35003.71
603.357	34319.69
603.553	34368.84
603.75	34860.35
603.946	34049.36
604.142	34700.61
604.338	33674.58
604.534	34309.45
604.73	33858.9
604.926	33580.37
605.122	33541.46
605.318	33697.11
605.514	33527.13
605.71	33582.42
605.906	33168.73
606.102	33297.75
606.298	33623.38
606.494	33199.45
606.69	33299.8
606.886	32986.46
607.082	32787.81
607.278	33131.87
607.474	32517.48
607.67	32777.57
607.866	32134.51
608.062	32779.62
608.257	32408.93
608.453	32544.1
608.649	32302.44
608.845	32116.08
609.041	32333.16
609.236	32429.41
609.432	32048.49
609.628	32251.24
609.824	31833.46
610.019	31800.69
610.215	31929.71
610.411	31913.33
610.606	31567.22
610.802	31780.21
610.998	31655.28
611.193	31933.81
611.389	31174.01
611.584	31196.54
611.78	31473.01
611.976	31319.42
612.171	31380.85
612.367	31210.87
612.562	30944.64
612.758	30848.38
612.953	30809.47
613.149	31034.75
613.344	30836.09
613.539	31229.3
613.735	30920.06
613.93	30846.33
614.126	30907.77
614.321	30889.34
614.517	30614.91
614.712	30266.76
614.907	30412.17
615.103	30893.44
615.298	30651.78
615.493	30619.01
615.688	29887.89
615.884	30565.76
616.079	29840.78
616.274	30190.98
616.47	30219.66
616.665	30102.92
616.86	29871.5
617.055	29730.19
617.25	29457.81
617.445	29779.34
617.641	29214.1
617.836	29662.61
618.031	29154.71
618.226	29425.04
618.421	29324.69
618.616	29167
618.811	28687.78
619.006	29169.05
619.201	28413.35
619.396	28978.59
619.591	28294.57
619.786	28632.48
619.981	28411.3
620.176	28347.81
620.371	27903.4
620.566	27870.64
620.761	27952.55
620.956	28020.14
621.151	27557.3
621.346	27954.6
621.541	27358.64
621.735	27700.65
621.93	26590.66
622.125	27045.3
622.32	26774.97
622.515	26981.82
622.709	26736.06
622.904	27051.45
623.099	26340.8
623.294	26486.21
623.488	26248.64
623.683	26340.8
623.878	25865.67
624.072	26015.18
624.267	25738.7
624.462	25472.46
624.656	25370.07
624.851	25380.31
625.046	25236.95
625.24	24939.99
625.435	24956.38
625.629	24847.83
625.824	24421.86
626.018	24665.56
626.213	24184.29
626.407	24401.38
626.602	23813.61
626.796	23899.62
626.991	24096.23
627.185	23815.66
627.38	23586.29
627.574	23645.68
627.768	23301.62
627.963	23438.83
628.157	22912.5
628.352	23160.31
628.546	22826.49
628.74	23041.53
628.935	22459.9
629.129	22425.09
629.323	22441.47
629.517	22332.93
629.712	22150.66
629.906	22171.14
630.1	22130.18
630.294	21921.29
630.489	21622.28
630.683	21851.66
630.877	21306.9
631.071	21515.79
631.265	21394.96
631.459	21259.79
631.653	21106.2
631.848	21108.24
632.042	21061.14
632.236	20833.82
632.43	20688.41
632.624	20821.53
632.818	20438.56
633.012	20274.72
633.206	20332.06
633.4	20520.48
633.594	19891.75
633.788	20010.53
633.982	19979.81
634.176	19918.37
634.369	19666.47
634.563	19498.54
634.757	19670.57
634.951	19428.91
635.145	19170.86
635.339	19285.55
635.533	19115.57
635.726	19394.09
635.92	18822.71
636.114	19025.46
636.308	18875.96
636.501	18579
636.695	18615.87
636.889	18439.74
637.083	18114.11
637.276	18232.9
637.47	18202.18
637.664	18150.98
637.857	17995.33
638.051	18097.73
638.244	17710.66
638.438	17866.31
638.632	17686.09
638.825	17589.83
639.019	17407.56
639.212	17290.83
639.406	17454.67
639.599	17241.68
639.793	17372.75
639.986	16946.77
640.18	17020.5
640.373	17098.32
640.567	16621.14
640.76	16684.63
640.954	16350.81
641.147	16467.55
641.34	16348.76
641.534	16344.67
641.727	16223.84
641.92	16395.87
642.114	15955.55
642.307	15771.24
642.5	15842.92
642.694	15748.71
642.887	15521.38
643.08	15797.86
643.273	15683.17
643.467	15511.14
643.66	15457.9
643.853	15545.96
644.046	15324.78
644.239	15535.72
644.432	15107.69
644.626	15085.17
644.819	15027.82
645.012	14820.98
645.205	14993.01
645.398	14950
645.591	14929.52
645.784	14487.16
645.977	14478.97
646.17	14536.31
646.363	14327.42
646.556	13866.63
646.749	14351.99
646.942	14270.08
647.135	14071.42
647.328	14016.13
647.521	14177.92
647.714	13774.47
647.907	13923.97
648.099	13532.81
648.292	13624.97
648.485	13565.57
648.678	13444.74
648.871	13508.23
649.064	13381.26
649.256	13420.17
649.449	13467.27
649.642	12990.1
649.835	12992.14
650.027	13225.61
650.22	13164.17
650.413	12963.47
650.605	12785.3
650.798	12607.12
650.991	12615.32
651.183	12465.82
651.376	12531.35
651.568	12467.86
651.761	12367.51
651.954	12408.47
652.146	12234.39
652.339	12238.49
652.531	12226.2
652.724	12154.52
652.916	11949.73
653.109	12121.76
653.301	11722.4
653.494	11830.94
653.686	11746.98
653.879	11781.79
654.071	11636.39
654.263	11433.64
654.456	11763.36
654.648	11740.83
654.84	11464.36
655.033	11429.54
655.225	11247.27
655.417	11390.63
655.61	11304.62
655.802	11081.39
655.994	10897.07
656.186	10989.23
656.379	11024.05
656.571	10931.89
656.763	10974.89
656.955	10735.28
657.148	10817.2
657.34	10792.62
657.532	10708.66
657.724	10573.49
657.916	10753.71
658.108	10505.91
658.3	10378.93
658.492	10671.79
658.684	10350.26
658.876	10329.78
659.068	10268.34
659.26	10065.6
659.452	10036.92
659.644	10157.75
659.836	9893.57
660.028	9959.1
660.22	9809.6
660.412	9930.43
660.604	9744.06
660.796	9760.45
660.988	9823.94
661.18	9576.13
661.372	9375.43
661.563	9449.16
661.755	9516.74
661.947	9563.84
662.139	9344.71
662.331	9471.68
662.522	9170.63
662.714	9432.77
662.906	9187.02
663.097	9273.03
663.289	9084.62
663.481	8900.3
663.673	9058
663.864	9023.18
664.056	8974.03
664.247	9045.71
664.439	8605.39
664.631	8695.5
664.822	8775.38
665.014	8795.86
665.205	8787.66
665.397	8658.64
665.588	8558.29
665.78	8290.01
665.971	8408.79
666.163	8296.15
666.354	8361.69
666.546	8236.76
666.737	8253.14
666.929	8367.83
667.12	8255.19
667.311	8302.29
667.503	7993.05
667.694	8171.22
667.885	7954.14
668.077	7972.57
668.268	7851.74
668.459	8031.96
668.651	7753.44
668.842	7806.69
669.033	7737.06
669.224	7880.41
669.416	7878.37
669.607	7810.78
669.798	7657.18
669.989	7648.99
670.18	7562.98
670.371	7565.03
670.563	7495.39
670.754	7605.99
670.945	7462.63
671.136	7569.12
671.327	7503.59
671.518	7438.05
671.709	7442.15
671.9	7368.42
672.091	7309.03
672.282	7227.11
672.473	7231.21
672.664	7126.76
672.855	7190.25
673.046	7139.05
673.237	7278.31
673.428	7102.18
673.619	7038.7
673.809	7204.58
674	6901.48
674.191	6838
674.382	6878.96
674.573	6878.96
674.764	6936.3
674.954	6971.11
675.145	6774.51
675.336	6928.11
675.527	6799.09
675.717	6792.94
675.908	6737.65
676.099	6713.07
676.289	6723.31
676.48	6670.06
676.671	6541.04
676.861	6618.86
677.052	6614.77
677.243	6491.89
677.433	6483.7
677.624	6616.82
677.814	6385.4
678.005	6403.83
678.195	6665.97
678.386	6522.61
678.576	6246.13
678.767	6381.3
678.957	6418.16
679.148	6272.76
679.338	6334.2
679.529	6311.67
679.719	6409.97
679.909	6311.67
680.1	6283
680.29	6053.62
680.481	6170.36
680.671	6153.98
680.861	5996.28
681.052	6137.59
681.242	6313.72
681.432	6147.83
681.622	5996.28
681.813	6053.62
682.003	6024.95
682.193	6053.62
682.383	6125.3
682.573	6010.62
682.764	5932.79
682.954	5887.74
683.144	5975.8
683.334	5926.65
683.524	5922.55
683.714	6010.62
683.904	5951.23
684.094	5877.5
684.284	5889.79
684.474	5781.25
684.664	5869.31
684.854	5820.16
685.044	5672.7
685.234	5676.8
685.424	5656.32
685.614	5730.05
685.804	5682.94
685.994	5740.29
686.184	5801.72
686.374	5584.64
686.564	5525.25
686.753	5508.87
686.943	5433.09
687.133	5500.67
687.323	5482.24
687.513	5455.62
687.702	5406.47
687.892	5453.57
688.082	5396.23
688.272	5410.56
688.461	5230.34
688.651	5361.41
688.841	5433.09
689.03	5283.59
689.22	5240.58
689.41	5254.92
689.599	5136.13
689.789	5138.18
689.979	4962.06
690.168	5097.22
690.358	5046.02
690.547	5027.59
690.737	5117.7
690.926	5142.28
691.116	4919.05
691.305	4964.11
691.495	4878.09
691.684	4931.34
691.874	4951.82
692.063	4878.09
692.252	4839.18
692.442	4792.08
692.631	4693.77
692.82	4841.23
693.01	4886.28
693.199	4857.61
693.388	4738.83
693.578	4599.57
693.767	4681.49
693.956	4579.09
694.146	4650.77
694.335	4595.47
694.524	4656.91
694.713	4650.77
694.902	4517.65
695.092	4515.6
695.281	4644.62
695.47	4599.57
695.659	4484.88
695.848	4445.97
696.037	4427.54
696.226	4374.29
696.415	4415.25
696.604	4427.54
696.793	4331.28
696.982	4378.39
697.171	4337.43
697.36	4349.71
697.549	4263.7
697.738	4388.63
697.927	4194.07
698.116	4382.48
698.305	4189.97
698.494	4271.89
698.683	4290.32
698.872	4321.04
699.061	4253.46
699.25	4237.08
699.438	4255.51
699.627	4241.17
699.816	4218.64
700.005	4208.41
700.193	4116.25
700.382	4212.5
700.571	4194.07
700.76	4300.56
700.948	4175.64
701.137	4134.68
701.326	4110.1
701.514	4075.29
701.703	4165.4
701.892	4007.7
702.08	4052.76
702.269	4142.87
702.457	3931.93
702.646	4063
702.834	4073.24
703.023	3917.59
703.212	4003.61
703.4	4001.56
703.589	3886.87
703.777	3999.51
703.965	3862.3
704.154	3856.15
704.342	3936.03
704.531	3979.03
704.719	3809.05
704.907	3899.16
705.096	3718.94
705.284	3825.43
705.472	3807
705.661	3682.08
705.849	3784.48
706.037	3858.2
706.226	3780.38
706.414	3780.38
706.602	3790.62
706.79	3837.72
706.979	3796.76
707.167	3723.04
707.355	3821.34
707.543	3602.21
707.731	3755.8
707.919	3585.82
708.107	3714.84
708.296	3612.45
708.484	3544.86
708.672	3645.21
708.86	3725.08
709.048	3561.25
709.236	3579.68
709.424	3624.73
709.612	3551.01
709.8	3569.44
709.988	3594.01
710.176	3575.58
710.364	3540.77
710.551	3489.57
710.739	3520.29
710.927	3419.94
711.115	3483.42
711.303	3497.76
711.491	3518.24
711.679	3438.37
711.866	3436.32
712.054	3475.23
712.242	3243.81
712.43	3409.7
712.617	3428.13
712.805	3329.83
712.993	3358.5
713.181	3454.75
713.368	3407.65
713.556	3309.35
713.744	3424.03
713.931	3333.92
714.119	3252
714.306	3497.76
714.494	3438.37
714.682	3280.68
714.869	3286.82
715.057	3372.83
715.244	3325.73
715.432	3280.68
715.619	3209
715.807	3104.55
715.994	3168.04
716.182	3200.8
716.369	3262.24
716.556	3188.52
716.744	3174.18
716.931	3077.93
717.119	3239.72
717.306	3196.71
717.493	3227.43
717.681	3131.17
717.868	3118.89
718.055	3176.23
718.242	3202.85
718.43	3149.61
718.617	3127.08
718.804	3108.65
718.991	3100.45
719.179	3153.7
719.366	3174.18
719.553	2993.96
719.74	3073.83
719.927	3082.02
720.114	3110.69
720.301	3096.36
720.488	2983.72
720.676	3077.93
720.863	3127.08
721.05	3116.84
721.237	2985.77
721.424	2963.24
721.611	2961.19
721.798	2838.31
721.985	2971.43
722.172	2797.35
722.358	3077.93
722.545	2934.57
722.732	2752.3
722.919	2772.78
723.106	3004.2
723.293	2948.9
723.48	2760.49
723.667	2883.37
723.853	2891.56
724.04	2873.13
724.227	2879.27
724.414	2957.1
724.6	2832.17
724.787	2768.68
724.974	2856.75
725.161	2762.54
725.347	2768.68
725.534	2764.59
725.72	2699.05
725.907	2871.08
726.094	2805.55
726.28	2678.57
726.467	2748.2
726.653	2791.21
726.84	2830.12
727.027	2740.01
727.213	2703.15
727.4	2774.83
727.586	2750.25
727.773	2756.4
727.959	2619.18
728.145	2672.43
728.332	2807.59
728.518	2649.9
728.705	2725.68
728.891	2561.84
729.077	2725.68
729.264	2617.13
729.45	2567.98
729.636	2660.14
729.823	2641.71
730.009	2684.72
730.195	2623.28
730.382	2572.08
730.568	2666.28
730.754	2649.9
730.94	2637.61
731.126	2674.48
731.313	2621.23
731.499	2621.23
731.685	2555.69
731.871	2490.16
732.057	2594.61
732.243	2604.85
732.429	2543.41
732.615	2580.27
732.801	2531.12
732.987	2588.46
733.173	2576.17
733.359	2486.06
733.545	2580.27
733.731	2391.86
733.917	2592.56
734.103	2531.12
734.289	2559.79
734.475	2594.61
734.661	2502.45
734.847	2533.17
735.033	2428.72
735.219	2445.1
735.404	2473.78
735.59	2484.02
735.776	2404.14
735.962	2479.92
736.148	2473.78
736.333	2441.01
736.519	2322.23
736.705	2322.23
736.89	2389.81
737.076	2365.23
737.262	2324.27
737.447	2443.06
737.633	2326.32
737.819	2459.44
738.004	2357.04
738.19	2266.93
738.375	2412.34
738.561	2395.95
738.747	2248.5
738.932	2389.81
739.118	2338.61
739.303	2299.7
739.489	2395.95
739.674	2217.78
739.859	2318.13
740.045	2316.08
740.23	2346.8
740.416	2123.57
740.601	2236.21
740.786	2223.92
740.972	2291.51
741.157	2191.16
741.342	2191.16
741.528	2230.07
741.713	2207.54
741.898	2273.07
742.084	2201.4
742.269	2234.16
742.454	2142
742.639	2133.81
742.824	2174.77
743.01	2119.48
743.195	2176.82
743.38	2135.86
743.565	2158.39
743.75	2193.2
743.935	2088.76
744.12	2152.24
744.305	2039.61
744.49	2000.69
744.675	2004.79
744.86	2015.03
745.045	2068.28
745.23	2103.09
745.415	1924.92
745.6	2055.99
745.785	2000.69
745.97	2092.85
746.155	1988.41
746.34	1935.16
746.525	1896.25
746.71	1990.45
746.895	1840.95
747.079	1816.38
747.264	1967.93
747.449	1791.8
747.634	1896.25
747.819	1879.86
748.003	1845.05
748.188	1789.75
748.373	1896.25
748.557	1904.44
748.742	1855.29
748.927	1806.14
749.111	1781.56
749.296	1742.65
749.481	1859.38
749.665	1767.23
749.85	1740.6
750.034	1711.93
750.219	1670.97
750.404	1554.24
750.588	1711.93
750.773	1679.16
750.957	1660.73
751.141	1646.4
751.326	1668.92
751.51	1699.64
751.695	1621.82
751.879	1570.62
752.064	1654.59
752.248	1584.96
752.432	1652.54
752.617	1558.33
752.801	1570.62
752.985	1617.72
753.17	1601.34
753.354	1400.64
753.538	1484.61
753.722	1457.98
753.907	1451.84
754.091	1398.59
754.275	1496.89
754.459	1398.59
754.643	1441.6
754.828	1408.83
755.012	1406.78
755.196	1425.22
755.38	1347.39
755.564	1339.2
755.748	1351.49
755.932	1451.84
756.116	1349.44
756.3	1371.97
756.484	1326.91
756.668	1339.2
756.852	1365.82
757.036	1328.96
757.22	1238.85
757.404	1328.96
757.588	1222.47
757.772	1185.6
757.956	1320.77
758.14	1238.85
758.323	1193.8
758.507	1191.75
758.691	1261.38
758.875	1318.72
759.059	1234.75
759.242	1234.75
759.426	1142.6
759.61	1154.88
759.794	1138.5
759.977	1308.48
760.161	1161.03
760.345	1195.84
760.528	1171.27
760.712	1085.25
760.895	1163.08
761.079	1042.25
761.263	1062.73
761.446	1122.12
761.63	1027.91
761.813	1068.87
761.997	1054.53
762.18	1077.06
762.364	1066.82
762.547	1036.1
762.731	1097.54
762.914	1077.06
763.098	1048.39
763.281	1099.59
763.464	1019.72
763.648	1064.77
763.831	1072.96
764.015	1021.77
764.198	993.09
764.381	980.81
764.564	1040.2
764.748	1052.49
764.931	1019.72
765.114	1072.96
765.297	999.24
765.481	933.7
765.664	1032.01
765.847	954.18
766.03	1042.25
766.213	1029.96
766.397	972.61
766.58	909.13
766.763	1009.48
766.946	925.51
767.129	954.18
767.312	917.32
767.495	923.46
767.678	849.74
767.861	937.8
768.044	970.57
768.227	915.27
768.41	970.57
768.593	970.57
768.776	902.98
768.959	898.89
769.142	964.42
769.324	925.51
769.507	915.27
769.69	892.74
769.873	855.88
770.056	929.61
770.239	882.5
770.421	921.42
770.604	917.32
770.787	804.68
770.97	886.6
771.152	905.03
771.335	919.37
771.518	735.05
771.7	892.74
771.883	929.61
772.066	814.92
772.248	843.59
772.431	823.11
772.613	864.07
772.796	800.59
772.978	894.79
773.161	814.92
773.343	720.71
773.526	687.95
773.708	773.96
773.891	784.2
774.073	890.7
774.256	786.25
774.438	866.12
774.621	767.82
774.803	788.3
774.985	798.54
775.168	749.39
775.35	726.86
775.532	735.05
775.715	620.36
775.897	692.04
776.079	763.72
776.261	808.78
776.444	651.08
776.626	651.08
776.808	716.62
776.99	720.71
777.173	706.38
777.355	700.23
777.537	704.33
777.719	696.14
777.901	730.95
778.083	667.47
778.265	655.18
778.447	776.01
778.629	624.46
778.811	646.99
778.993	620.36
779.175	577.36
779.357	669.52
779.539	571.21
779.721	649.04
779.903	636.75
780.085	663.37
780.267	536.4
780.449	536.4
780.631	659.28
780.812	589.64
780.994	575.31
781.176	538.45
781.358	560.97
781.54	585.55
781.721	601.93
781.903	534.35
782.085	536.4
782.267	554.83
782.448	567.12
782.63	620.36
782.812	536.4
782.993	503.63
783.175	503.63
783.357	556.88
783.538	491.34
783.72	470.86
783.901	577.36
784.083	511.82
784.264	560.97
784.446	415.57
784.627	442.19
784.809	446.29
784.99	479.05
785.172	546.64
785.353	487.25
785.535	556.88
785.716	481.1
785.897	438.09
786.079	407.38
786.26	431.95
786.441	462.67
786.623	331.6
786.804	497.49
786.985	399.18
787.167	454.48
787.348	397.14
787.529	421.71
787.71	444.24
787.891	331.6
788.073	423.76
788.254	405.33
788.435	413.52
788.616	413.52
788.797	331.6
788.978	425.81
789.159	415.57
789.34	341.84
789.522	378.7
789.703	364.37
789.884	350.03
790.065	440.14
790.246	399.18
790.427	382.8
790.607	378.7
790.788	343.89
790.969	358.22
791.15	417.61
791.331	378.7
791.512	345.94
791.693	298.83
791.874	390.99
792.054	429.9
792.235	292.69
792.416	261.97
792.597	268.11
792.778	436.05
792.958	352.08
793.139	331.6
793.32	454.48
793.5	327.5
793.681	380.75
793.862	343.89
794.042	284.5
794.223	307.02
794.404	202.58
794.584	288.59
794.765	257.87
794.945	339.79
795.126	288.59
795.306	405.33
795.487	218.96
795.667	261.97
795.848	356.18
796.028	208.72
796.209	323.41
796.389	274.26
796.57	296.78
796.75	315.22
796.93	290.64
797.111	184.15
797.291	261.97
797.471	307.02
797.652	270.16
797.832	354.13
798.012	339.79
798.192	235.35
798.373	282.45
798.553	331.6
798.733	298.83
798.913	202.58
799.093	274.26
799.274	282.45
799.454	270.16
799.634	292.69
799.814	309.07
799.994	218.96
800.174	294.74
800.354	249.68
800.534	218.96
800.714	245.59
800.894	274.26
801.074	255.83
801.254	247.63
801.434	298.83
801.614	266.07
801.794	192.34
801.974	810.82
802.154	225.11
802.334	264.02
802.514	296.78
802.693	118.61
802.873	266.07
803.053	231.25
803.233	233.3
803.413	235.35
803.592	175.95
803.772	270.16
803.952	290.64
804.131	186.19
804.311	317.26
804.491	165.71
804.67	188.24
804.85	173.91
805.03	212.82
805.209	241.49
805.389	221.01
805.568	210.77
805.748	157.52
805.928	237.39
806.107	278.35
806.287	190.29
806.466	245.59
806.646	315.22
806.825	216.91
807.004	137.04
807.184	208.72
807.363	214.87
807.543	214.87
807.722	216.91
807.901	184.15
808.081	188.24
808.26	135
808.439	167.76
808.619	227.15
808.798	161.62
808.977	192.34
809.156	126.8
809.336	102.23
809.515	225.11
809.694	245.59
809.873	137.04
810.052	196.43
810.231	241.49
810.411	145.24
810.59	200.53
810.769	165.71
810.948	173.91
811.127	106.32
811.306	171.86
811.485	110.42
811.664	163.67
811.843	106.32
812.022	210.77
812.201	135
812.38	118.61
812.559	149.33
812.737	216.91
812.916	145.24
813.095	175.95
813.274	118.61
813.453	169.81
813.632	212.82
813.811	143.19
813.989	118.61
814.168	94.04
814.347	159.57
814.526	126.8
814.704	163.67
814.883	216.91
815.062	145.24
815.24	161.62
815.419	145.24
815.598	141.14
815.776	161.62
815.955	106.32
816.133	175.95
816.312	175.95
816.49	143.19
816.669	137.04
816.847	110.42
817.026	124.76
817.204	98.13
817.383	77.65
817.561	137.04
817.74	116.56
817.918	200.53
818.097	100.18
818.275	225.11
818.453	53.08
818.632	96.08
818.81	143.19
818.988	163.67
819.167	132.95
819.345	128.85
819.523	71.51
819.701	151.38
819.879	112.47
820.058	116.56
820.236	120.66
820.414	145.24
820.592	53.08
820.77	106.32
820.948	79.7
821.127	137.04
821.305	161.62
821.483	77.65
821.661	126.8
821.839	108.37
822.017	94.04
822.195	102.23
822.373	96.08
822.551	61.27
822.729	126.8
822.907	126.8
823.085	167.76
823.262	114.52
823.44	114.52
823.618	83.8
823.796	167.76
823.974	65.36
824.152	48.98
824.329	96.08
824.507	143.19
824.685	53.08
824.863	79.7
825.04	118.61
825.218	20.31
825.396	67.41
825.574	85.84
825.751	135
825.929	104.28
826.107	69.46
826.284	118.61
826.462	73.56
826.639	114.52
826.817	77.65
826.994	151.38
827.172	-0.17
827.349	221.01
827.527	91.99
827.704	77.65
827.882	104.28
828.059	24.4
828.237	22.36
828.414	65.36
828.591	28.5
828.769	55.12
828.946	67.41
829.124	153.43
829.301	132.95
829.478	69.46
829.655	116.56
829.833	-6.31
830.01	5.97
830.187	69.46
830.364	61.27
830.542	98.13
830.719	169.81
830.896	102.23
831.073	38.74
831.25	57.17
831.427	132.95
831.604	-28.84
831.782	36.69
831.959	108.37
832.136	51.03
832.313	94.04
832.49	102.23
832.667	61.27
832.844	102.23
833.021	89.94
833.198	67.41
833.374	89.94
833.551	112.47
833.728	38.74
833.905	36.69
834.082	26.45
834.259	55.12
834.436	104.28
834.612	16.21
834.789	38.74
834.966	24.4
835.143	143.19
835.319	34.64
835.496	26.45
835.673	73.56
835.85	48.98
836.026	118.61
836.203	128.85
836.38	73.56
836.556	32.6
836.733	98.13
836.909	79.7
837.086	8.02
837.262	-39.08
837.439	-2.22
837.616	14.17
837.792	124.76
837.968	71.51
838.145	32.6
838.321	26.45
838.498	38.74
838.674	8.02
838.851	24.4
839.027	69.46
839.203	59.22
839.38	32.6
839.556	20.31
839.732	104.28
839.909	28.5
840.085	55.12
840.261	28.5
840.437	75.6
840.614	8.02
840.79	96.08
840.966	38.74
841.142	67.41
841.318	3.93
841.494	106.32
841.671	81.75
841.847	63.32
842.023	12.12
842.199	79.7
842.375	114.52
842.551	3.93
842.727	26.45
842.903	53.08
843.079	55.12
843.255	102.23
843.431	36.69
843.607	44.88
843.783	32.6
843.959	28.5
844.134	38.74
844.31	85.84
844.486	104.28
844.662	46.93
844.838	118.61
845.013	77.65
845.189	8.02
845.365	46.93
845.541	-20.65
845.716	3.93
845.892	102.23
846.068	-10.41
846.244	96.08
846.419	89.94
846.595	3.93
846.77	40.79
846.946	77.65
847.122	-12.46
847.297	-26.79
847.473	63.32
847.648	34.64
847.824	24.4
847.999	51.03
848.175	36.69
848.35	63.32
848.526	85.84
848.701	1.88
848.876	77.65
849.052	14.17
849.227	14.17
849.403	44.88
849.578	87.89
849.753	53.08
849.929	61.27
850.104	69.46
850.279	28.5
850.454	73.56
850.63	-34.99
850.805	36.69
850.98	5.97
851.155	102.23
851.33	-4.27
851.505	91.99
851.681	69.46
851.856	79.7
852.031	30.55
852.206	18.26
852.381	20.31
852.556	81.75
852.731	-43.18
852.906	-26.79
853.081	77.65
853.256	5.97
853.431	63.32
853.606	69.46
853.781	55.12
853.956	-26.79
854.131	20.31
854.305	-28.84
854.48	24.4
854.655	53.08
854.83	20.31
855.005	-4.27
855.18	102.23
855.354	20.31
855.529	94.04
855.704	57.17
855.879	30.55
856.053	53.08
856.228	44.88
856.403	-53.42
856.577	65.36
856.752	-37.03
856.926	36.69
857.101	-28.84
857.276	-22.7
857.45	-4.27
857.625	-20.65
857.799	57.17
857.974	118.61
858.148	-37.03
858.323	44.88
858.497	-4.27
858.672	53.08
858.846	5.97
859.02	112.47
859.195	-30.89
859.369	81.75
859.543	-24.75
859.718	53.08
859.892	10.07
860.066	32.6
860.241	-8.36
860.415	-12.46
860.589	36.69
860.763	98.13
860.938	-28.84
861.112	16.21
861.286	42.84
861.46	-10.41
861.634	18.26
861.808	48.98
861.982	3.93
862.157	3.93
862.331	-12.46
862.505	-6.31
862.679	22.36
862.853	73.56
863.027	32.6
863.201	44.88
863.375	71.51
863.549	44.88
863.722	5.97
863.896	38.74
864.07	-20.65
864.244	94.04
864.418	57.17
864.592	65.36
864.766	48.98
864.939	28.5
865.113	-14.51
865.287	126.8
865.461	32.6
865.634	-41.13
865.808	-30.89
865.982	-0.17
866.156	36.69
866.329	-8.36
866.503	12.12
866.676	73.56
866.85	-30.89
867.024	-20.65
867.197	-2.22
867.371	-20.65
867.544	55.12
867.718	-22.7
867.891	24.4
868.065	12.12
868.238	46.93
868.412	126.8
868.585	-32.94
868.759	38.74
868.932	-18.6
869.105	-84.14
869.279	-22.7
869.452	40.79
869.625	59.22
869.799	67.41
869.972	14.17
870.145	69.46
870.319	28.5
870.492	-53.42
870.665	69.46
870.838	24.4
871.011	-4.27
871.185	24.4
871.358	-41.13
871.531	-82.09
871.704	-0.17
871.877	-2.22
872.05	-12.46
872.223	-8.36
872.396	20.31
872.569	91.99
872.742	-10.41
872.915	-12.46
873.088	-32.94
873.261	-57.51
873.434	48.98
873.607	10.07
873.78	-10.41
873.953	-16.55
874.126	38.74
874.299	36.69
874.471	-6.31
874.644	28.5
874.817	-0.17
874.99	71.51
875.163	-45.23
875.335	8.02
875.508	20.31
875.681	3.93
875.853	-86.19
876.026	46.93
876.199	67.41
876.371	-20.65
876.544	-28.84
876.717	36.69
876.889	3.93
877.062	85.84
877.234	10.07
877.407	3.93
877.579	20.31
877.752	3.93
877.924	59.22
878.097	3.93
878.269	12.12
878.442	30.55
878.614	-45.23
878.786	-26.79
878.959	-4.27
879.131	-2.22
879.303	12.12
879.476	-12.46
879.648	28.5
879.82	-47.27
879.993	-143.53
880.165	-18.6
880.337	28.5
880.509	28.5
880.681	-53.42
880.854	61.27
881.026	8.02
881.198	75.6
881.37	-20.65
881.542	-37.03
881.714	12.12
881.886	-4.27
882.058	48.98
882.23	-51.37
882.402	63.32
882.574	30.55
882.746	-51.37
882.918	40.79
883.09	30.55
883.262	-30.89
883.434	73.56
883.606	-20.65
883.778	-2.22
883.95	-14.51
884.122	-16.55
884.293	20.31
884.465	20.31
884.637	22.36
884.809	-77.99
884.98	-8.36
885.152	34.64
885.324	-4.27
885.496	-24.75
885.667	5.97
885.839	-12.46
886.011	28.5
886.182	12.12
886.354	-8.36
886.525	-2.22
886.697	3.93
886.869	-43.18
887.04	42.84
887.212	12.12
887.383	46.93
887.555	53.08
887.726	8.02
887.897	-45.23
888.069	73.56
888.24	122.71
888.412	16.21
888.583	-51.37
888.754	36.69
888.926	-59.56
889.097	-32.94
889.268	-30.89
889.44	-6.31
889.611	-43.18
889.782	-39.08
889.953	-34.99
890.125	-59.56
890.296	-0.17
890.467	-102.57
890.638	-0.17
890.809	24.4
890.98	38.74
891.151	28.5
891.323	5.97
891.494	-8.36
891.665	38.74
891.836	24.4
892.007	24.4
892.178	38.74
892.349	-34.99
892.52	-37.03
892.691	22.36
892.862	-90.28
893.032	-67.75
893.203	-14.51
893.374	77.65
893.545	61.27
893.716	-37.03
893.887	44.88
894.057	46.93
894.228	-20.65
894.399	-28.84
894.57	-10.41
894.74	14.17
894.911	-2.22
895.082	8.02
895.253	-57.51
895.423	59.22
895.594	46.93
895.764	-18.6
895.935	38.74
896.106	20.31
896.276	-73.9
896.447	-10.41
896.617	-43.18
896.788	-53.42
896.958	3.93
897.129	-67.75
897.299	20.31
897.47	14.17
897.64	57.17
897.81	38.74
897.981	5.97
898.151	-34.99
898.322	-6.31
898.492	48.98
898.662	-69.8
898.832	-63.66
899.003	-26.79
899.173	61.27
899.343	-28.84
899.513	-26.79
