Data from USB4F104151__294__14-23-53-694.txt Node

Date: Thu Mar 13 14:23:53 EDT 2025
User: louis
Spectrometer: USB4F10415
Trigger mode: 4
Integration Time (sec): 2.000000E-2
Scans to average: 1
Electric dark correction enabled: true
Nonlinearity correction enabled: false
Boxcar width: 0
XAxis mode: Wavelengths
Number of Pixels in Spectrum: 3648
>>>>>Begin Spectral Data<<<<<
178.204	-126.12
178.424	-126.12
178.644	-126.12
178.864	-31.91
179.084	-99.5
179.304	-3.24
179.524	90.96
179.744	-23.72
179.964	15.19
180.184	31.57
180.404	21.33
180.624	-19.63
180.844	-3.24
181.064	-144.55
181.283	-23.72
181.503	21.33
181.723	37.72
181.943	7
182.163	50
182.383	29.52
182.602	111.44
182.822	13.14
183.042	113.49
183.262	33.62
183.482	37.72
183.701	-27.82
183.921	119.64
184.141	35.67
184.361	62.29
184.58	-33.96
184.8	17.24
185.02	-23.72
185.239	86.87
185.459	13.14
185.679	95.06
185.898	-23.72
186.118	45.91
186.338	37.72
186.557	60.24
186.777	31.57
186.997	-1.19
187.216	-60.59
187.436	9.05
187.655	99.16
187.875	62.29
188.095	56.15
188.314	64.34
188.534	47.96
188.753	15.19
188.973	13.14
189.192	78.68
189.412	111.44
189.631	60.24
189.851	17.24
190.07	127.83
190.29	29.52
190.509	66.39
190.729	84.82
190.948	70.48
191.168	140.12
191.387	66.39
191.607	-19.63
191.826	27.48
192.045	-40.11
192.265	25.43
192.484	41.81
192.704	21.33
192.923	-29.87
193.142	74.58
193.362	129.88
193.581	64.34
193.8	144.21
194.02	54.1
194.239	25.43
194.458	88.92
194.678	23.38
194.897	19.29
195.116	-31.91
195.335	64.34
195.555	95.06
195.774	25.43
195.993	84.82
196.212	45.91
196.432	21.33
196.651	78.68
196.87	29.52
197.089	107.35
197.308	43.86
197.528	47.96
197.747	99.16
197.966	101.2
198.185	37.72
198.404	35.67
198.623	-17.58
198.842	-7.34
199.062	58.2
199.281	31.57
199.5	35.67
199.719	90.96
199.938	103.25
200.157	54.1
200.376	29.52
200.595	-17.58
200.814	93.01
201.033	58.2
201.252	50
201.471	33.62
201.69	31.57
201.909	74.58
202.128	66.39
202.347	56.15
202.566	47.96
202.785	-3.24
203.004	64.34
203.223	23.38
203.442	80.72
203.661	62.29
203.879	64.34
204.098	52.05
204.317	33.62
204.536	62.29
204.755	56.15
204.974	52.05
205.193	39.76
205.411	99.16
205.63	-3.24
205.849	45.91
206.068	37.72
206.287	41.81
206.505	105.3
206.724	41.81
206.943	-5.29
207.162	58.2
207.381	56.15
207.599	21.33
207.818	23.38
208.037	62.29
208.255	-38.06
208.474	33.62
208.693	74.58
208.911	4.95
209.13	13.14
209.349	74.58
209.567	97.11
209.786	66.39
210.005	86.87
210.223	84.82
210.442	-40.11
210.661	103.25
210.879	-3.24
211.098	113.49
211.316	78.68
211.535	17.24
211.753	29.52
211.972	62.29
212.191	-9.39
212.409	4.95
212.628	82.77
212.846	-44.2
213.065	86.87
213.283	37.72
213.502	39.76
213.72	17.24
213.938	21.33
214.157	56.15
214.375	74.58
214.594	-15.53
214.812	66.39
215.031	27.48
215.249	-25.77
215.467	80.72
215.686	29.52
215.904	56.15
216.122	54.1
216.341	78.68
216.559	23.38
216.778	31.57
216.996	29.52
217.214	29.52
217.432	80.72
217.651	7
217.869	-3.24
218.087	17.24
218.306	-9.39
218.524	74.58
218.742	0.85
218.96	23.38
219.179	-1.19
219.397	21.33
219.615	62.29
219.833	101.2
220.051	-3.24
220.27	62.29
220.488	72.53
220.706	64.34
220.924	27.48
221.142	-19.63
221.36	15.19
221.578	119.64
221.796	4.95
222.015	72.53
222.233	45.91
222.451	78.68
222.669	21.33
222.887	103.25
223.105	56.15
223.323	-19.63
223.541	13.14
223.759	-50.35
223.977	-38.06
224.195	21.33
224.413	45.91
224.631	9.05
224.849	72.53
225.067	31.57
225.285	-19.63
225.503	74.58
225.721	-9.39
225.939	37.72
226.157	29.52
226.375	80.72
226.592	-17.58
226.81	80.72
227.028	21.33
227.246	27.48
227.464	21.33
227.682	58.2
227.9	88.92
228.117	-52.39
228.335	54.1
228.553	4.95
228.771	39.76
228.989	41.81
229.206	82.77
229.424	-19.63
229.642	9.05
229.86	-31.91
230.077	64.34
230.295	25.43
230.513	19.29
230.731	82.77
230.948	103.25
231.166	123.73
231.384	-3.24
231.601	62.29
231.819	140.12
232.037	15.19
232.254	43.86
232.472	0.85
232.689	-1.19
232.907	78.68
233.125	-23.72
233.342	9.05
233.56	4.95
233.777	119.64
233.995	86.87
234.213	23.38
234.43	86.87
234.648	68.44
234.865	7
235.083	29.52
235.3	33.62
235.518	-11.43
235.735	86.87
235.953	76.63
236.17	37.72
236.388	-29.87
236.605	-11.43
236.822	29.52
237.04	37.72
237.257	21.33
237.475	-7.34
237.692	43.86
237.909	29.52
238.127	64.34
238.344	56.15
238.562	45.91
238.779	0.85
238.996	95.06
239.214	80.72
239.431	70.48
239.648	7
239.865	31.57
240.083	56.15
240.3	17.24
240.517	29.52
240.735	58.2
240.952	82.77
241.169	115.54
241.386	45.91
241.603	45.91
241.821	-7.34
242.038	68.44
242.255	127.83
242.472	13.14
242.689	47.96
242.907	56.15
243.124	41.81
243.341	31.57
243.558	-46.25
243.775	13.14
243.992	-56.49
244.209	58.2
244.426	78.68
244.643	52.05
244.86	21.33
245.078	86.87
245.295	74.58
245.512	37.72
245.729	-40.11
245.946	68.44
246.163	78.68
246.38	43.86
246.597	15.19
246.814	17.24
247.031	29.52
247.248	54.1
247.464	17.24
247.681	82.77
247.898	-19.63
248.115	127.83
248.332	62.29
248.549	23.38
248.766	113.49
248.983	66.39
249.2	70.48
249.417	47.96
249.633	4.95
249.85	29.52
250.067	37.72
250.284	86.87
250.501	97.11
250.717	33.62
250.934	13.14
251.151	93.01
251.368	54.1
251.585	95.06
251.801	31.57
252.018	13.14
252.235	86.87
252.451	56.15
252.668	29.52
252.885	138.07
253.102	70.48
253.318	86.87
253.535	62.29
253.752	82.77
253.968	76.63
254.185	31.57
254.401	47.96
254.618	56.15
254.835	27.48
255.051	138.07
255.268	78.68
255.484	11.09
255.701	21.33
255.917	111.44
256.134	15.19
256.351	54.1
256.567	45.91
256.784	127.83
257	23.38
257.217	86.87
257.433	58.2
257.65	47.96
257.866	70.48
258.082	54.1
258.299	4.95
258.515	47.96
258.732	7
258.948	4.95
259.165	-15.53
259.381	21.33
259.597	80.72
259.814	86.87
260.03	17.24
260.246	78.68
260.463	9.05
260.679	27.48
260.895	50
261.112	86.87
261.328	13.14
261.544	88.92
261.761	170.83
261.977	95.06
262.193	25.43
262.409	4.95
262.626	39.76
262.842	54.1
263.058	60.24
263.274	86.87
263.49	41.81
263.707	105.3
263.923	0.85
264.139	29.52
264.355	4.95
264.571	119.64
264.787	21.33
265.004	13.14
265.22	15.19
265.436	39.76
265.652	105.3
265.868	86.87
266.084	72.53
266.3	99.16
266.516	37.72
266.732	50
266.948	-25.77
267.164	70.48
267.38	119.64
267.596	41.81
267.812	45.91
268.028	33.62
268.244	74.58
268.46	-3.24
268.676	21.33
268.892	39.76
269.108	-17.58
269.324	-3.24
269.54	21.33
269.756	70.48
269.972	-27.82
270.188	62.29
270.403	15.19
270.619	19.29
270.835	-60.59
271.051	72.53
271.267	37.72
271.483	54.1
271.698	25.43
271.914	29.52
272.13	0.85
272.346	76.63
272.562	13.14
272.777	56.15
272.993	78.68
273.209	58.2
273.425	4.95
273.64	58.2
273.856	27.48
274.072	78.68
274.287	-15.53
274.503	152.4
274.719	72.53
274.934	29.52
275.15	-27.82
275.366	97.11
275.581	15.19
275.797	58.2
276.012	70.48
276.228	64.34
276.444	39.76
276.659	29.52
276.875	23.38
277.09	70.48
277.306	39.76
277.521	70.48
277.737	-1.19
277.952	62.29
278.168	60.24
278.383	54.1
278.599	66.39
278.814	-33.96
279.03	62.29
279.245	119.64
279.461	-23.72
279.676	25.43
279.892	-27.82
280.107	4.95
280.322	62.29
280.538	-1.19
280.753	72.53
280.969	37.72
281.184	39.76
281.399	86.87
281.615	-11.43
281.83	56.15
282.045	0.85
282.26	-17.58
282.476	29.52
282.691	62.29
282.906	43.86
283.122	13.14
283.337	-66.73
283.552	52.05
283.767	-23.72
283.983	123.73
284.198	29.52
284.413	88.92
284.628	-25.77
284.843	58.2
285.058	78.68
285.274	86.87
285.489	21.33
285.704	25.43
285.919	23.38
286.134	4.95
286.349	47.96
286.564	131.92
286.779	74.58
286.995	29.52
287.21	29.52
287.425	37.72
287.64	39.76
287.855	41.81
288.07	54.1
288.285	21.33
288.5	43.86
288.715	29.52
288.93	41.81
289.145	7
289.36	66.39
289.575	62.29
289.79	82.77
290.004	64.34
290.219	127.83
290.434	-21.67
290.649	7
290.864	21.33
291.079	15.19
291.294	-9.39
291.509	47.96
291.724	86.87
291.938	21.33
292.153	21.33
292.368	68.44
292.583	74.58
292.798	90.96
293.012	31.57
293.227	4.95
293.442	-29.87
293.657	115.54
293.871	58.2
294.086	25.43
294.301	54.1
294.516	127.83
294.73	-19.63
294.945	90.96
295.16	25.43
295.374	47.96
295.589	39.76
295.804	-11.43
296.018	170.83
296.233	105.3
296.447	29.52
296.662	-19.63
296.877	-3.24
297.091	39.76
297.306	7
297.52	72.53
297.735	41.81
297.949	95.06
298.164	86.87
298.378	54.1
298.593	-11.43
298.807	13.14
299.022	15.19
299.236	-15.53
299.451	41.81
299.665	60.24
299.88	23.38
300.094	15.19
300.309	70.48
300.523	64.34
300.737	15.19
300.952	35.67
301.166	41.81
301.381	4.95
301.595	-7.34
301.809	80.72
302.024	-1.19
302.238	2.9
302.452	129.88
302.667	80.72
302.881	39.76
303.095	45.91
303.309	-44.2
303.524	23.38
303.738	23.38
303.952	19.29
304.166	9.05
304.381	-25.77
304.595	74.58
304.809	23.38
305.023	47.96
305.237	58.2
305.452	9.05
305.666	-17.58
305.88	31.57
306.094	45.91
306.308	39.76
306.522	60.24
306.736	50
306.95	66.39
307.164	70.48
307.379	158.55
307.593	45.91
307.807	0.85
308.021	105.3
308.235	70.48
308.449	-27.82
308.663	31.57
308.877	95.06
309.091	99.16
309.305	78.68
309.519	-3.24
309.733	86.87
309.947	-11.43
310.161	4.95
310.374	56.15
310.588	111.44
310.802	41.81
311.016	86.87
311.23	80.72
311.444	31.57
311.658	33.62
311.872	78.68
312.085	68.44
312.299	41.81
312.513	136.02
312.727	54.1
312.941	86.87
313.154	39.76
313.368	82.77
313.582	41.81
313.796	60.24
314.009	13.14
314.223	74.58
314.437	39.76
314.651	58.2
314.864	121.68
315.078	37.72
315.292	64.34
315.505	-3.24
315.719	64.34
315.933	13.14
316.146	17.24
316.36	19.29
316.573	97.11
316.787	37.72
317.001	74.58
317.214	93.01
317.428	111.44
317.641	33.62
317.855	84.82
318.068	58.2
318.282	-27.82
318.495	113.49
318.709	37.72
318.922	101.2
319.136	140.12
319.349	95.06
319.563	78.68
319.776	74.58
319.99	80.72
320.203	66.39
320.417	25.43
320.63	27.48
320.843	45.91
321.057	-3.24
321.27	72.53
321.483	29.52
321.697	103.25
321.91	50
322.124	74.58
322.337	47.96
322.55	56.15
322.763	54.1
322.977	25.43
323.19	-11.43
323.403	80.72
323.617	39.76
323.83	37.72
324.043	29.52
324.256	25.43
324.469	33.62
324.683	33.62
324.896	29.52
325.109	86.87
325.322	0.85
325.535	50
325.748	84.82
325.962	43.86
326.175	50
326.388	64.34
326.601	50
326.814	88.92
327.027	41.81
327.24	148.31
327.453	-7.34
327.666	29.52
327.879	115.54
328.092	31.57
328.305	29.52
328.518	9.05
328.731	4.95
328.944	56.15
329.157	82.77
329.37	31.57
329.583	60.24
329.796	95.06
330.009	45.91
330.222	62.29
330.435	90.96
330.648	70.48
330.861	-15.53
331.073	-36.01
331.286	86.87
331.499	29.52
331.712	4.95
331.925	60.24
332.138	70.48
332.35	95.06
332.563	41.81
332.776	37.72
332.989	78.68
333.202	62.29
333.414	62.29
333.627	58.2
333.84	43.86
334.053	148.31
334.265	29.52
334.478	-31.91
334.691	-17.58
334.903	-44.2
335.116	-3.24
335.329	45.91
335.541	50
335.754	27.48
335.966	62.29
336.179	66.39
336.392	52.05
336.604	86.87
336.817	25.43
337.029	123.73
337.242	21.33
337.454	29.52
337.667	45.91
337.88	123.73
338.092	64.34
338.305	70.48
338.517	25.43
338.729	41.81
338.942	90.96
339.154	4.95
339.367	41.81
339.579	86.87
339.792	45.91
340.004	72.53
340.217	-17.58
340.429	66.39
340.641	62.29
340.854	105.3
341.066	4.95
341.278	66.39
341.491	103.25
341.703	99.16
341.915	29.52
342.128	111.44
342.34	93.01
342.552	68.44
342.764	15.19
342.977	80.72
343.189	-7.34
343.401	78.68
343.613	-56.49
343.826	56.15
344.038	-19.63
344.25	43.86
344.462	64.34
344.674	82.77
344.886	-13.48
345.099	66.39
345.311	95.06
345.523	37.72
345.735	-66.73
345.947	74.58
346.159	62.29
346.371	84.82
346.583	17.24
346.795	127.83
347.007	45.91
347.219	117.59
347.431	64.34
347.643	103.25
347.855	72.53
348.067	95.06
348.279	78.68
348.491	29.52
348.703	45.91
348.915	70.48
349.127	11.09
349.339	54.1
349.551	103.25
349.763	-48.3
349.975	7
350.187	64.34
350.399	19.29
350.61	50
350.822	64.34
351.034	58.2
351.246	62.29
351.458	37.72
351.669	152.4
351.881	86.87
352.093	43.86
352.305	95.06
352.517	37.72
352.728	105.3
352.94	52.05
353.152	68.44
353.363	31.57
353.575	70.48
353.787	33.62
353.999	107.35
354.21	131.92
354.422	41.81
354.633	68.44
354.845	52.05
355.057	78.68
355.268	90.96
355.48	25.43
355.692	25.43
355.903	115.54
356.115	97.11
356.326	70.48
356.538	0.85
356.749	78.68
356.961	70.48
357.172	80.72
357.384	45.91
357.595	60.24
357.807	72.53
358.018	80.72
358.23	54.1
358.441	54.1
358.653	107.35
358.864	80.72
359.075	70.48
359.287	0.85
359.498	72.53
359.709	86.87
359.921	52.05
360.132	58.2
360.344	127.83
360.555	62.29
360.766	-17.58
360.977	66.39
361.189	103.25
361.4	99.16
361.611	144.21
361.823	29.52
362.034	119.64
362.245	31.57
362.456	-11.43
362.667	90.96
362.879	-11.43
363.09	45.91
363.301	41.81
363.512	4.95
363.723	45.91
363.935	45.91
364.146	107.35
364.357	21.33
364.568	70.48
364.779	60.24
364.99	29.52
365.201	103.25
365.412	64.34
365.623	33.62
365.834	52.05
366.045	9.05
366.256	43.86
366.467	152.4
366.678	95.06
366.889	37.72
367.1	70.48
367.311	37.72
367.522	88.92
367.733	47.96
367.944	56.15
368.155	62.29
368.366	-1.19
368.577	-3.24
368.788	58.2
368.999	58.2
369.209	23.38
369.42	82.77
369.631	154.45
369.842	76.63
370.053	4.95
370.264	80.72
370.474	54.1
370.685	97.11
370.896	62.29
371.107	41.81
371.317	103.25
371.528	68.44
371.739	101.2
371.95	99.16
372.16	154.45
372.371	29.52
372.582	154.45
372.792	90.96
373.003	72.53
373.214	82.77
373.424	103.25
373.635	39.76
373.846	115.54
374.056	86.87
374.267	56.15
374.477	117.59
374.688	72.53
374.898	90.96
375.109	39.76
375.319	-1.19
375.53	-11.43
375.74	35.67
375.951	29.52
376.161	90.96
376.372	103.25
376.582	72.53
376.793	86.87
377.003	47.96
377.214	21.33
377.424	56.15
377.635	45.91
377.845	7
378.055	13.14
378.266	-38.06
378.476	15.19
378.686	35.67
378.897	82.77
379.107	52.05
379.317	29.52
379.528	45.91
379.738	95.06
379.948	11.09
380.158	121.68
380.369	4.95
380.579	50
380.789	70.48
380.999	33.62
381.21	88.92
381.42	95.06
381.63	86.87
381.84	68.44
382.05	93.01
382.261	99.16
382.471	140.12
382.681	78.68
382.891	64.34
383.101	66.39
383.311	-11.43
383.521	113.49
383.731	113.49
383.941	95.06
384.151	58.2
384.361	54.1
384.571	78.68
384.781	86.87
384.991	129.88
385.201	47.96
385.411	107.35
385.621	52.05
385.831	56.15
386.041	66.39
386.251	64.34
386.461	45.91
386.671	86.87
386.881	7
387.091	0.85
387.301	101.2
387.511	70.48
387.72	76.63
387.93	103.25
388.14	27.48
388.35	-9.39
388.56	80.72
388.769	138.07
388.979	127.83
389.189	111.44
389.399	88.92
389.609	21.33
389.818	21.33
390.028	103.25
390.238	88.92
390.447	82.77
390.657	97.11
390.867	58.2
391.076	117.59
391.286	54.1
391.496	86.87
391.705	99.16
391.915	58.2
392.125	80.72
392.334	107.35
392.544	90.96
392.753	68.44
392.963	66.39
393.172	-3.24
393.382	76.63
393.591	119.64
393.801	29.52
394.01	103.25
394.22	105.3
394.429	78.68
394.639	17.24
394.848	119.64
395.058	119.64
395.267	0.85
395.477	156.5
395.686	76.63
395.895	107.35
396.105	90.96
396.314	19.29
396.524	15.19
396.733	127.83
396.942	179.03
397.152	95.06
397.361	103.25
397.57	103.25
397.78	113.49
397.989	129.88
398.198	193.36
398.407	103.25
398.617	113.49
398.826	105.3
399.035	97.11
399.244	148.31
399.453	86.87
399.663	74.58
399.872	127.83
400.081	86.87
400.29	111.44
400.499	90.96
400.708	142.16
400.917	60.24
401.127	78.68
401.336	168.79
401.545	183.12
401.754	176.98
401.963	203.6
402.172	176.98
402.381	95.06
402.59	136.02
402.799	176.98
403.008	111.44
403.217	195.41
403.426	232.27
403.635	142.16
403.844	158.55
404.053	107.35
404.262	168.79
404.471	174.93
404.68	136.02
404.888	174.93
405.097	185.17
405.306	131.92
405.515	123.73
405.724	140.12
405.933	244.56
406.142	211.79
406.35	254.8
406.559	222.03
406.768	275.28
406.977	236.37
407.185	250.71
407.394	285.52
407.603	195.41
407.812	222.03
408.02	346.96
408.229	234.32
408.438	238.42
408.646	238.42
408.855	185.17
409.064	285.52
409.272	289.62
409.481	326.48
409.69	355.15
409.898	271.19
410.107	301.9
410.315	277.33
410.524	334.67
410.733	336.72
410.941	373.58
411.15	439.12
411.358	422.73
411.567	435.02
411.775	414.54
411.984	416.59
412.192	504.65
412.401	426.83
412.609	381.78
412.818	545.61
413.026	588.62
413.234	572.24
413.443	562
413.651	576.33
413.86	551.76
414.068	637.77
414.276	750.41
414.485	719.69
414.693	713.55
414.901	713.55
415.11	695.11
415.318	793.42
415.526	779.08
415.734	848.71
415.943	820.04
416.151	924.49
416.359	824.14
416.567	981.83
416.776	856.9
416.984	983.88
417.192	1051.46
417.4	1055.56
417.608	922.44
417.817	1041.22
418.025	1215.3
418.233	1217.35
418.441	1223.49
418.649	1274.69
418.857	1303.36
419.065	1418.05
419.273	1297.22
419.481	1307.46
419.689	1491.77
419.897	1559.36
420.105	1561.41
420.313	1710.91
420.521	1749.82
420.729	1708.86
420.937	1758.01
421.145	1856.31
421.353	1901.37
421.561	1962.81
421.769	2046.77
421.977	2110.26
422.185	2063.16
422.393	2249.52
422.601	2364.21
422.809	2341.68
423.017	2335.54
423.224	2495.28
423.432	2505.52
423.64	2618.16
423.848	2923.3
424.056	2597.68
424.263	2974.5
424.471	2925.35
424.679	3058.47
424.887	3101.48
425.094	3293.99
425.302	3267.36
425.51	3431.2
425.718	3509.02
425.925	3466.02
426.133	3617.57
426.341	3867.42
426.548	3994.39
426.756	4076.31
426.964	4152.09
427.171	4201.24
427.379	4340.5
427.586	4496.14
427.794	4655.89
428.001	4872.97
428.209	4979.47
428.417	5022.47
428.624	5366.53
428.832	5303.04
429.039	5135.11
429.247	5358.34
429.454	5724.93
429.662	6208.25
429.869	5729.02
430.076	6296.31
430.284	5952.25
430.491	6306.55
430.699	6552.31
430.906	6601.46
431.114	6652.66
431.321	6943.47
431.528	7078.63
431.736	7508.71
431.943	7934.68
432.15	7586.53
432.358	7492.32
432.565	8041.18
432.772	8049.37
432.979	8573.65
433.187	8721.1
433.394	8755.92
433.601	9108.17
433.808	9431.75
434.016	9335.49
434.223	9571.01
434.43	10134.2
434.637	10169.02
434.844	10629.81
435.052	10857.14
435.259	10744.5
435.466	10752.69
435.673	10734.26
435.88	11297.45
436.087	12077.73
436.294	12006.05
436.501	11725.47
436.708	11870.88
436.915	12409.5
437.122	12876.43
437.329	13046.41
437.537	13245.07
437.743	13517.45
437.95	13329.03
438.157	14088.83
438.364	14563.96
438.571	14439.03
438.778	14402.17
438.985	15811.17
439.192	15290.99
439.399	15784.55
439.606	15432.3
439.813	16269.92
440.02	17476.17
440.227	17005.14
440.433	16755.29
440.64	17310.29
440.847	17162.83
441.054	17764.93
441.261	18801.21
441.467	18440.76
441.674	18666.04
441.881	19565.1
442.088	19661.35
442.294	19348.01
442.501	19802.66
442.708	20283.94
442.914	20972.05
443.121	21953.03
443.328	21193.23
443.534	23106.04
443.741	22153.73
443.948	22098.44
444.154	23382.51
444.361	23382.51
444.568	23585.26
444.774	23327.22
444.981	23695.85
445.187	24359.39
445.394	25321.94
445.6	25119.19
445.807	27746.73
446.013	26583.49
446.22	26655.17
446.426	27961.77
446.633	28092.84
446.839	28944.8
447.046	27838.89
447.252	29514.13
447.459	29340.05
447.665	29626.77
447.871	30572.93
448.078	31605.11
448.284	30296.46
448.491	30869.89
448.697	32602.47
448.903	32778.59
449.11	33038.69
449.316	32459.11
449.522	32876.9
449.728	33927.5
449.935	33915.22
450.141	33945.94
450.347	34863.43
450.553	33980.75
450.76	34675.01
450.966	35742
451.172	35146.05
451.378	36274.48
451.584	35047.74
451.791	36137.26
451.997	35918.13
452.203	36954.4
452.409	37056.8
452.615	36788.52
452.821	35027.26
453.027	34550.09
453.233	36661.54
453.44	35463.48
453.646	35733.81
453.852	36000.05
454.058	36501.8
454.264	35359.03
454.47	36131.12
454.676	35313.98
454.882	36409.64
455.088	33646.93
455.294	34273.61
455.5	34564.42
455.705	34695.49
455.911	33583.44
456.117	32850.27
456.323	32369
456.529	30548.36
456.735	32033.13
456.941	31267.19
457.147	30617.99
457.352	30167.43
457.558	29389.2
457.764	29733.26
457.97	29131.16
458.176	28436.9
458.381	28438.95
458.587	26929.59
458.793	27187.64
458.999	25684.43
459.204	27652.53
459.41	26843.58
459.616	25033.18
459.821	25219.54
460.027	25037.27
460.233	24529.38
460.438	23405.04
460.644	23761.39
460.85	22647.29
461.055	21903.88
461.261	21973.51
461.466	20380.19
461.672	19890.73
461.878	21058.07
462.083	19946.02
462.289	19604.01
462.494	19251.76
462.7	18602.55
462.905	17969.73
463.111	18502.2
463.316	18729.53
463.522	18227.78
463.727	18436.67
463.932	18115.14
464.138	17840.71
464.343	18049.6
464.549	17556.04
464.754	18278.97
464.959	18090.56
465.165	17922.63
465.37	17115.73
465.575	16566.87
465.781	17355.34
465.986	17287.76
466.191	16906.84
466.397	16274.01
466.602	15708.77
466.807	16374.36
467.012	16288.35
467.218	16329.31
467.423	15768.16
467.628	16341.6
467.833	16951.89
468.038	16228.96
468.244	15442.54
468.449	16505.43
468.654	15905.38
468.859	15725.16
469.064	15626.85
469.269	15096.43
469.474	15424.11
469.679	15493.74
469.885	14889.59
470.09	15266.41
470.295	15014.51
470.5	14762.61
470.705	14799.48
470.91	14445.18
471.115	14307.96
471.32	14609.01
471.525	14400.12
471.73	14287.48
471.935	13828.74
472.139	13580.93
472.344	14015.1
472.549	13408.9
472.754	13654.66
472.959	13116.05
473.164	12888.72
473.369	12821.14
473.574	13402.76
473.778	13058.7
473.983	13091.47
474.188	12853.91
474.393	12255.9
474.598	12436.12
474.802	12579.48
475.007	12405.4
475.212	12157.6
475.417	11766.43
475.621	11795.11
475.826	11915.94
476.031	11664.04
476.235	11405.99
476.44	11733.67
476.645	11387.56
476.849	11342.5
477.054	11274.92
477.259	10896.05
477.463	11250.35
477.668	10730.16
477.872	10793.65
478.077	10814.13
478.282	10371.77
478.486	10451.64
478.691	10255.03
478.895	10359.48
479.1	10197.69
479.304	10056.38
479.509	9960.13
479.713	10128.06
479.918	9890.49
480.122	9878.21
480.326	9884.35
480.531	10056.38
480.735	9757.38
480.94	9833.15
481.144	10154.68
481.348	9523.91
481.553	9556.68
481.757	9517.76
481.961	9695.94
482.166	9556.68
482.37	9597.63
482.574	9482.95
482.778	9419.46
482.983	9855.68
483.187	9485
483.391	9577.16
483.595	9327.3
483.8	9200.33
484.004	9548.48
484.208	9591.49
484.412	9364.17
484.616	9427.65
484.821	9528
485.025	9237.19
485.229	9532.1
485.433	9409.22
485.637	9452.23
485.841	9534.15
486.045	9423.56
486.249	9446.09
486.453	9222.86
486.657	9210.57
486.861	9605.83
487.065	9159.37
487.269	9423.56
487.473	9185.99
487.677	9548.48
487.881	9515.72
488.085	9521.86
488.289	9628.35
488.493	9394.89
488.697	9575.11
488.901	9335.49
489.105	9642.69
489.309	9599.68
489.512	9638.59
489.716	9700.03
489.92	9485
490.124	9528
490.328	9654.98
490.531	9540.29
490.735	9609.92
490.939	9755.33
491.143	9599.68
491.346	9628.35
491.55	9781.95
491.754	9915.07
491.958	9974.46
492.161	9974.46
492.365	9982.65
492.569	10134.2
492.772	9923.26
492.976	10156.73
493.18	10025.66
493.383	10171.07
493.587	10349.24
493.79	10382.01
493.994	10179.26
494.197	10439.35
494.401	10447.54
494.605	10437.3
494.808	10756.79
495.012	10496.69
495.215	10580.66
495.419	10875.57
495.622	10611.38
495.825	10885.81
496.029	10996.4
496.232	11205.29
496.436	11215.53
496.639	11358.89
496.843	11403.94
497.046	11549.35
497.249	11661.99
497.453	11686.56
497.656	11655.84
497.859	11995.81
498.063	12014.24
498.266	12221.08
498.469	12206.75
498.673	12411.54
498.876	12675.73
499.079	12472.98
499.282	12515.99
499.485	12808.85
499.689	13027.98
499.892	13099.66
500.095	13005.45
500.298	13326.99
500.501	13439.62
500.705	13773.44
500.908	13990.53
501.111	13943.42
501.314	14094.97
501.517	14195.32
501.72	14684.79
501.923	14520.95
502.126	14783.09
502.329	14912.11
502.532	14899.83
502.735	15170.16
502.938	15467.11
503.141	15391.34
503.344	15602.28
503.547	15661.67
503.75	16093.79
503.953	16245.34
504.156	16521.82
504.359	16327.26
504.562	16437.85
504.765	16841.3
504.968	17068.62
505.17	17224.27
505.373	17007.19
505.576	17459.79
505.779	17642.06
505.982	18074.18
506.185	18020.93
506.387	18477.63
506.59	18504.25
506.793	18854.45
506.996	18627.13
507.198	19122.74
507.401	19421.74
507.604	19657.26
507.807	19829.29
508.009	19929.64
508.212	19819.05
508.415	20281.89
508.617	20339.23
508.82	20646.43
509.022	20642.33
509.225	21271.06
509.428	21174.8
509.63	21084.69
509.833	21379.6
510.035	22037
510.238	21916.17
510.44	22139.4
510.643	22632.96
510.845	22669.82
511.048	22639.1
511.25	22962.68
511.453	22891
511.655	23814.63
511.858	23658.99
512.06	23960.04
512.262	23919.08
512.465	24261.09
512.667	24584.67
512.87	24654.3
513.072	25043.42
513.274	25549.26
513.477	25666
513.679	25600.46
513.881	26042.82
514.084	26331.59
514.286	26415.55
514.488	26694.08
514.69	27597.23
514.893	27247.03
515.095	27062.71
515.297	27793.84
515.499	27873.71
515.701	28160.42
515.904	28481.95
516.106	28383.65
516.308	28821.92
516.51	29215.13
516.712	29495.7
516.914	29594
517.116	29954.44
517.318	30034.32
517.52	30370.18
517.722	30873.98
517.925	30665.09
518.127	31234.42
518.329	31238.52
518.531	31484.28
518.733	31623.54
518.935	32094.57
519.136	32172.39
519.338	32549.22
519.54	32614.76
519.742	33010.01
519.944	33079.64
520.146	33382.74
520.348	33702.23
520.55	33546.58
520.752	34150.73
520.954	34642.24
521.155	34304.33
521.357	35074.37
521.559	35125.57
521.761	35563.83
521.963	35696.95
522.164	35985.71
522.366	35856.69
522.568	36241.71
522.77	36489.51
522.971	37097.76
523.173	36684.07
523.375	37247.26
523.576	36981.03
523.778	36929.83
523.98	38095.12
524.181	37726.49
524.383	37751.06
524.584	38680.84
524.786	38584.58
524.988	38537.48
525.189	39321.85
525.391	39076.1
525.592	39342.33
525.794	39352.57
525.995	39358.72
526.197	39590.14
526.398	39360.76
526.6	39923.96
526.801	40052.98
527.003	40067.31
527.204	39823.61
527.406	40179.95
527.607	40194.29
527.808	40937.7
528.01	40202.48
528.211	40644.84
528.412	41328.86
528.614	40841.45
528.815	41613.53
529.016	41672.92
529.218	41146.59
529.419	41273.57
529.62	41359.58
529.822	41464.03
530.023	41511.13
530.224	41429.21
530.425	41529.56
530.626	41050.34
530.828	40970.47
531.029	42453.2
531.23	41451.74
531.431	41591
531.632	41697.5
531.833	41689.31
532.035	42072.28
532.236	41926.87
532.437	41863.38
532.638	41740.5
532.839	41787.61
533.04	41879.77
533.241	41562.33
533.442	42350.8
533.643	42031.32
533.844	41943.25
534.045	42045.65
534.246	41738.46
534.447	42014.93
534.648	42342.61
534.849	42039.51
535.05	41877.72
535.251	42313.94
535.451	41756.89
535.652	41992.4
535.853	42082.52
536.054	41812.18
536.255	42041.56
536.456	41816.28
536.657	42559.69
536.857	42105.04
537.058	41765.08
537.259	42328.27
537.46	42291.41
537.66	42172.63
537.861	42270.93
538.062	41859.29
538.263	41832.66
538.463	41785.56
538.664	41687.26
538.865	41697.5
539.065	42162.39
539.266	41412.83
539.466	42254.54
539.667	41171.17
539.868	42254.54
540.068	41855.19
540.269	41789.66
540.469	41580.76
540.67	41443.55
540.87	41642.2
541.071	41588.95
541.271	42008.79
541.472	41945.3
541.672	41808.09
541.873	41255.14
542.073	40954.08
542.274	41867.48
542.474	41443.55
542.675	41263.33
542.875	41834.71
543.075	41760.98
543.276	41273.57
543.476	41681.11
543.676	41566.43
543.877	41429.21
544.077	41421.02
544.277	41343.2
544.478	41310.43
544.678	41404.64
544.878	41242.85
545.078	41476.32
545.279	41267.42
545.479	41216.22
545.679	41689.31
545.879	41642.2
546.079	41541.85
546.28	41337.05
546.48	40943.84
546.68	41394.4
546.88	41375.97
547.08	41126.11
547.28	41345.25
547.48	40866.02
547.68	41167.07
547.88	40984.8
548.081	41246.94
548.281	40945.89
548.481	41154.79
548.681	41107.68
548.881	40925.41
549.081	41224.42
549.28	40915.17
549.48	41203.94
549.68	40667.37
549.88	41918.68
550.08	40911.08
550.28	41318.62
550.48	40685.8
550.68	41146.59
550.88	40978.66
551.08	41083.11
551.279	41191.65
551.479	40329.45
551.679	40759.53
551.879	40759.53
552.079	41103.59
552.278	40765.67
552.478	40927.46
552.678	41093.35
552.878	40993
553.077	40945.89
553.277	40765.67
553.477	41402.59
553.676	40501.48
553.876	40698.09
554.076	40718.57
554.275	40964.32
554.475	40014.07
554.674	40906.98
554.874	40433.9
555.074	40558.83
555.273	40562.92
555.473	40823.01
555.672	40849.64
555.872	40661.22
556.071	40769.77
556.271	40769.77
556.47	40560.87
556.67	40274.16
556.869	40356.08
557.068	40259.82
557.268	40321.26
557.467	40276.21
557.667	40130.8
557.866	40739.05
558.065	39960.82
558.265	39796.98
558.464	39766.26
558.663	40276.21
558.863	39678.2
559.062	40806.63
559.261	39809.27
559.461	40120.56
559.66	39706.87
559.859	39786.74
560.058	39280.89
560.258	39665.91
560.457	39622.9
560.656	39872.76
560.855	39786.74
561.054	39780.6
561.253	39418.11
561.453	39268.61
561.652	39819.51
561.851	39563.51
562.05	39495.93
562.249	39000.32
562.448	39317.76
562.647	39426.3
562.846	39176.45
563.045	39166.21
563.244	38824.2
563.443	39217.41
563.642	38912.26
563.841	39004.42
564.04	38580.49
564.239	38846.72
564.438	38990.08
564.637	39196.93
564.836	38773
565.035	38404.36
565.234	38590.73
565.432	38101.26
565.631	38367.5
565.83	38316.3
566.029	38045.97
566.228	37781.78
566.427	38330.64
566.625	37642.52
566.824	37519.64
567.023	38111.5
567.222	37407
567.42	38007.06
567.619	37507.35
567.818	37386.52
568.016	37480.73
568.215	38076.69
568.414	37382.43
568.612	37599.51
568.811	37001.5
569.01	37423.39
569.208	37048.61
569.407	37058.85
569.605	36946.21
569.804	37093.66
570.002	36380.97
570.201	36935.97
570.4	36614.44
570.598	36514.09
570.797	36262.19
570.995	36473.13
571.193	36258.09
571.392	36591.91
571.59	35946.8
571.789	36342.06
571.987	35926.32
572.186	36043.06
572.384	35856.69
572.582	35922.23
572.781	35852.59
572.979	35377.47
573.177	35445.05
573.376	35504.44
573.574	35522.87
573.772	35791.16
573.971	35402.04
574.169	35170.62
574.367	35057.98
574.565	35283.26
574.763	34961.73
574.962	34787.65
575.16	34408.78
575.358	34941.25
575.556	34480.46
575.754	34859.33
575.952	34335.05
576.151	34744.64
576.349	34455.88
576.547	34177.36
576.745	34476.36
576.943	33726.8
577.141	34179.4
577.339	34210.12
577.537	33917.26
577.735	34158.92
577.933	33806.67
578.131	33687.89
578.329	33796.43
578.527	33534.29
578.725	33464.66
578.923	33491.29
579.121	33395.03
579.319	33335.64
579.516	33372.5
579.714	32903.52
579.912	32692.58
580.11	33083.74
580.308	32749.92
580.506	33104.22
580.704	32366.95
580.901	32704.87
581.099	33040.73
581.297	32287.08
581.495	32219.5
581.692	32715.11
581.89	32332.14
582.088	32311.66
582.285	32123.24
582.483	32074.09
582.681	32024.94
582.878	31887.73
583.076	31748.46
583.274	32006.51
583.471	31478.13
583.669	31498.61
583.866	31402.36
584.064	31842.67
584.262	31064.44
584.459	31457.65
584.657	31293.82
584.854	31089.02
585.052	30812.54
585.249	30830.97
585.447	30919.04
585.644	30736.77
585.841	30800.26
586.039	30960
586.236	30574.98
586.434	30345.61
586.631	30198.15
586.828	30458.24
587.026	30116.23
587.223	29956.49
587.42	30022.03
587.618	30321.03
587.815	29723.02
588.012	30079.37
588.21	29700.5
588.407	29913.48
588.604	29481.36
588.801	29473.17
588.999	29794.7
589.196	29419.92
589.393	29546.9
589.59	29559.19
589.787	28856.73
589.984	29280.66
590.182	29010.33
590.379	29096.35
590.576	28690.85
590.773	29278.61
590.97	28625.31
591.167	28963.23
591.364	28516.77
591.561	28350.88
591.758	28447.14
591.955	28193.19
592.152	28297.64
592.349	27929
592.546	27892.14
592.743	28223.91
592.94	27896.24
593.137	28086.7
593.334	28168.62
593.531	27883.95
593.727	27838.89
593.924	27529.65
594.121	27462.07
594.318	27476.4
594.515	27347.38
594.712	27861.42
594.908	27068.86
595.105	27087.29
595.302	26935.74
595.499	26964.41
595.696	27163.06
595.892	26585.54
596.089	26931.64
596.286	27132.34
596.482	26640.83
596.679	26476.99
596.876	26567.1
597.072	26610.11
597.269	26296.77
597.466	26081.74
597.662	25919.95
597.859	26192.33
598.055	26096.07
598.252	26079.69
598.448	25719.24
598.645	25410
598.841	25582.03
599.038	25620.94
599.234	25604.56
599.431	25260.5
599.627	25479.63
599.824	25674.19
600.02	25143.77
600.217	25379.28
600.413	25221.59
600.609	24998.36
600.806	25002.46
601.002	24908.25
601.198	24781.28
601.395	24990.17
601.591	24562.14
601.787	24572.38
601.984	24494.56
602.18	24811.99
602.376	24607.2
602.572	24283.62
602.769	24723.93
602.965	24207.84
603.161	24130.02
603.357	24193.51
603.553	23665.13
603.75	23941.61
603.946	23826.92
604.142	24490.46
604.338	23566.83
604.534	23876.07
604.73	23538.16
604.926	23523.82
605.122	23656.94
605.318	23331.31
605.514	23271.92
605.71	23446
605.906	23132.66
606.102	23335.41
606.298	23443.95
606.494	23060.98
606.69	23181.81
606.886	23091.7
607.082	22843.9
607.278	22997.49
607.474	22499.84
607.67	22893.05
607.866	22682.11
608.062	22714.87
608.257	22678.01
608.453	22649.34
608.649	22770.17
608.845	22258.18
609.041	22360.58
609.236	22305.28
609.432	22360.58
609.628	22387.2
609.824	22239.75
610.019	21918.21
610.215	22118.92
610.411	22364.67
610.606	22213.12
610.802	21897.74
610.998	21936.65
611.193	21824.01
611.389	21924.36
611.584	21959.17
611.78	21504.53
611.976	21881.35
612.171	22032.9
612.367	21588.49
612.562	21467.66
612.758	21350.93
612.953	21326.35
613.149	21795.34
613.344	21549.58
613.539	21895.69
613.735	21559.82
613.93	21355.02
614.126	20972.05
614.321	21408.27
614.517	21611.02
614.712	21219.86
614.907	20924.95
615.103	21027.35
615.298	21119.51
615.493	21283.34
615.688	21133.84
615.884	21344.78
616.079	20865.56
616.274	20965.91
616.47	20974.1
616.665	21004.82
616.86	20834.84
617.055	20726.3
617.25	20656.67
617.445	21047.83
617.641	20429.34
617.836	20666.91
618.031	20376.09
618.226	20324.9
618.421	20402.72
618.616	20537.88
618.811	20161.06
619.006	20197.92
619.201	20079.14
619.396	19915.3
619.591	19452.46
619.786	20308.51
619.981	19520.04
620.176	19886.63
620.371	19563.05
620.566	19548.72
620.761	19372.59
620.956	19558.95
621.151	18995.76
621.346	19325.49
621.541	18967.09
621.735	19028.53
621.93	18717.24
622.125	18922.04
622.32	18547.26
622.515	18731.58
622.709	18727.48
622.904	18362.94
623.099	18387.52
623.294	18520.63
623.488	18037.31
623.683	18367.04
623.878	17859.14
624.072	17826.37
624.267	17998.4
624.462	17855.04
624.656	17721.93
624.851	17803.85
625.046	17523.27
625.24	17437.26
625.435	16925.27
625.629	17275.47
625.824	17093.2
626.018	17150.54
626.213	16833.11
626.407	16872.02
626.602	16816.72
626.796	16669.27
626.991	16398.94
627.185	16398.94
627.38	16532.06
627.574	16392.8
627.768	16020.06
627.963	15888.99
628.157	16005.73
628.352	16028.26
628.546	15614.57
628.74	15886.95
628.935	15682.15
629.129	15678.05
629.323	15364.71
629.517	15426.15
629.712	15280.75
629.906	15209.07
630.1	15217.26
630.294	15069.81
630.489	14813.81
630.683	14873.2
630.877	14809.72
631.071	14719.6
631.265	14783.09
631.459	14561.91
631.653	14600.82
631.848	14725.75
632.042	14561.91
632.236	14666.36
632.43	14043.78
632.624	14111.36
632.818	14250.62
633.012	13955.71
633.206	14031.49
633.4	13963.9
633.594	13617.8
633.788	13773.44
633.982	13785.73
634.176	13664.9
634.369	13417.1
634.563	13456.01
634.757	13187.72
634.951	13341.32
635.145	13390.47
635.339	13400.71
635.533	13169.29
635.726	13005.45
635.92	12964.5
636.114	12634.77
636.308	12939.92
636.501	13169.29
636.695	12735.12
636.889	12782.23
637.083	12698.26
637.276	12450.46
637.47	12536.47
637.664	12376.73
637.857	12397.21
638.051	12493.46
638.244	12135.07
638.438	11973.28
638.632	12202.65
638.825	11909.79
639.019	11920.03
639.212	11952.8
639.406	11887.26
639.599	11737.76
639.793	11866.78
639.986	11614.88
640.18	11526.82
640.373	11412.14
640.567	11264.68
640.76	11451.05
640.954	11342.5
641.147	11106.99
641.34	11221.67
641.534	11391.66
641.727	11225.77
641.92	11076.27
642.114	10902.19
642.307	11264.68
642.5	10758.83
642.694	10834.61
642.887	10613.43
643.08	10701.49
643.273	10754.74
643.467	10736.31
643.66	10549.94
643.853	10212.03
644.046	10341.05
644.239	10304.18
644.432	10271.42
644.626	10195.64
644.819	10023.61
645.012	10453.69
645.205	10068.67
645.398	10087.1
645.591	9837.25
645.784	9962.17
645.977	9822.91
646.17	9767.62
646.363	9679.55
646.556	9577.16
646.749	9482.95
646.942	9661.12
647.135	9532.1
647.328	9317.06
647.521	9511.62
647.714	9278.15
647.907	9255.62
648.099	9505.48
648.292	9284.3
648.485	9106.12
648.678	9026.25
648.871	9106.12
649.064	9050.83
649.256	9071.31
649.449	8874.7
649.642	8893.13
649.835	8823.5
650.027	8760.02
650.22	8721.1
650.413	8753.87
650.605	8674
650.798	8682.19
650.991	8520.4
651.183	8592.08
651.376	8506.07
651.568	8528.6
651.761	8442.58
651.954	8518.36
652.146	8418
652.339	8309.46
652.531	8229.59
652.724	8116.95
652.916	7985.88
653.109	8192.73
653.301	8188.63
653.494	8155.86
653.686	7897.82
653.879	8088.28
654.071	7959.26
654.263	7922.4
654.456	7942.88
654.648	7729.89
654.84	7885.53
655.033	7715.55
655.225	7647.97
655.417	7594.72
655.61	7564
655.802	7652.06
655.994	7578.34
656.186	7568.1
656.379	7566.05
656.571	7346.92
656.763	7418.6
656.955	7289.57
657.148	7418.6
657.34	7265
657.532	7221.99
657.724	7209.7
657.916	7078.63
658.108	7213.8
658.3	7133.93
658.492	7162.6
658.684	6916.84
658.876	6841.07
659.068	6947.56
659.26	6804.21
659.452	6832.88
659.644	6875.88
659.836	6800.11
660.028	6882.03
660.22	6699.76
660.412	6718.19
660.604	6675.18
660.796	6648.56
660.988	6499.06
661.18	6632.18
661.372	6574.83
661.563	6464.24
661.755	6298.36
661.947	6501.11
662.139	6427.38
662.331	6324.98
662.522	6163.19
662.714	6275.83
662.906	6251.25
663.097	6267.64
663.289	6200.05
663.481	6159.1
663.673	6044.41
663.864	6249.21
664.056	5929.72
664.247	5982.97
664.439	5878.52
664.631	6001.4
664.822	6003.45
665.014	5927.67
665.205	5886.72
665.397	5907.2
665.588	5812.99
665.78	5849.85
665.971	5784.32
666.163	5755.65
666.354	5673.73
666.546	5911.29
666.737	5739.26
666.929	5724.93
667.12	5690.11
667.311	5563.14
667.503	5559.04
667.694	5518.08
667.885	5645.06
668.077	5657.34
668.268	5489.41
668.459	5475.07
668.651	5503.75
668.842	5346.05
669.033	5446.4
669.224	5264.13
669.416	5427.97
669.607	5233.41
669.798	5233.41
669.989	5311.24
670.18	5350.15
670.371	5167.88
670.563	5231.37
670.754	5133.06
670.945	5108.49
671.136	5200.65
671.327	5053.19
671.518	4993.8
671.709	5051.14
671.9	5206.79
672.091	5067.53
672.282	5100.3
672.473	4825.87
672.664	4969.23
672.855	4991.75
673.046	4958.99
673.237	4932.36
673.428	4895.5
673.619	4936.46
673.809	4791.05
674	4768.52
674.191	4827.92
674.382	4866.83
674.573	4940.55
674.764	4948.75
674.954	4836.11
675.145	4702.99
675.336	4690.7
675.527	4698.89
675.717	4756.24
675.908	4778.76
676.099	4715.28
676.289	4780.81
676.48	4530.96
676.671	4553.49
676.861	4684.56
677.052	4510.48
677.243	4619.02
677.433	4356.88
677.624	4438.8
677.814	4496.14
678.005	4498.19
678.195	4629.26
678.386	4623.12
678.576	4545.3
678.767	4543.25
678.957	4420.37
679.148	4492.05
679.338	4459.28
679.529	4514.58
679.719	4279.06
679.909	4389.65
680.1	4338.45
680.29	4428.56
680.481	4350.74
680.671	4360.98
680.861	4248.34
681.052	4350.74
681.242	4354.83
681.432	4408.08
681.622	4270.87
681.813	4236.05
682.003	4217.62
682.193	4227.86
682.383	4274.96
682.573	4199.19
682.764	4223.76
682.954	4227.86
683.144	4297.49
683.334	4199.19
683.524	4225.81
683.714	4100.89
683.904	4340.5
684.094	4150.04
684.284	4272.92
684.474	4096.79
684.664	3984.15
684.854	4092.69
685.044	4178.71
685.234	3920.67
685.424	4141.85
685.614	3994.39
685.804	4016.92
685.994	4021.02
686.184	4053.78
686.374	4014.87
686.564	4076.31
686.753	3912.47
686.943	3805.98
687.133	4076.31
687.323	3896.09
687.513	4002.58
687.702	3957.53
687.892	3773.21
688.082	3986.2
688.272	3834.65
688.461	3908.38
688.651	3871.51
688.841	3752.73
689.03	3783.45
689.22	3816.22
689.41	3719.96
689.599	3824.41
689.789	3713.82
689.979	3834.65
690.168	3699.48
690.358	3586.85
690.547	3724.06
690.737	3777.31
690.926	3701.53
691.116	3646.24
691.305	3679.01
691.495	3760.92
691.684	3564.32
691.874	3646.24
692.063	3576.61
692.252	3654.43
692.442	3609.37
692.631	3461.92
692.82	3484.45
693.01	3470.11
693.199	3318.56
693.388	3582.75
693.578	3527.46
693.767	3633.95
693.956	3410.72
694.146	3535.65
694.335	3420.96
694.524	3375.91
694.713	3416.87
694.902	3300.13
695.092	3541.79
695.281	3388.19
695.47	3437.34
695.659	3431.2
695.848	3433.25
696.037	3429.15
696.226	3167.01
696.415	3203.88
696.604	3240.74
696.793	3322.66
696.982	3365.67
697.171	3355.43
697.36	3205.92
697.549	3218.21
697.738	3283.75
697.927	3265.32
698.116	3293.99
698.305	3224.36
698.494	3253.03
698.683	3281.7
698.872	3216.16
699.061	3291.94
699.25	3128.1
699.438	3263.27
699.627	3226.4
699.816	3341.09
700.005	3128.1
700.193	3306.27
700.382	3138.34
700.571	3185.44
700.76	3212.07
700.948	3126.05
701.137	3150.63
701.326	3314.47
701.514	3064.61
701.703	3144.49
701.892	3119.91
702.08	3250.98
702.269	3177.25
702.457	3093.29
702.646	3130.15
702.834	3121.96
703.023	3124.01
703.212	3107.62
703.4	3099.43
703.589	3089.19
703.777	3031.85
703.965	3007.27
704.154	3134.25
704.342	3076.9
704.531	3040.04
704.719	3068.71
704.907	3132.2
705.096	3013.42
705.284	2960.17
705.472	3019.56
705.661	3111.72
705.849	2999.08
706.037	3033.9
706.226	3085.09
706.414	2970.41
706.602	2929.45
706.79	3109.67
706.979	2994.98
707.167	3035.94
707.355	3037.99
707.543	2941.74
707.731	3072.81
707.919	2943.78
708.107	2919.21
708.296	2876.2
708.484	2968.36
708.672	2945.83
708.86	2892.59
709.048	2976.55
709.236	2831.15
709.424	2956.07
709.612	3040.04
709.8	2921.26
709.988	2908.97
710.176	2884.39
710.364	2843.43
710.551	2994.98
710.739	2835.24
710.927	2908.97
711.115	2980.65
711.303	2825
711.491	2851.63
711.679	2904.87
711.866	2796.33
712.054	2792.23
712.242	2847.53
712.43	2833.19
712.617	2882.35
712.805	2745.13
712.993	2841.39
713.181	2806.57
713.368	2851.63
713.556	2859.82
713.744	2794.28
713.931	2888.49
714.119	2689.84
714.306	2655.02
714.494	2724.65
714.682	2712.36
714.869	2677.55
715.057	2845.48
715.244	2675.5
715.432	2876.2
715.619	2765.61
715.807	2833.19
715.994	2685.74
716.182	2741.04
716.369	2767.66
716.556	2806.57
716.744	2800.43
716.931	2683.69
717.119	2722.6
717.306	2724.65
717.493	2704.17
717.681	2773.8
717.868	2659.12
718.055	2779.95
718.242	2710.32
718.43	2659.12
718.617	2659.12
718.804	2704.17
718.991	2685.74
719.179	2685.74
719.366	2634.54
719.553	2698.03
719.74	2603.82
719.927	2761.52
720.114	2702.12
720.301	2595.63
720.488	2564.91
720.676	2622.25
720.863	2622.25
721.05	2605.87
721.237	2577.2
721.424	2597.68
721.611	2601.77
721.798	2519.85
721.985	2538.29
722.172	2652.97
722.358	2601.77
722.545	2609.97
722.732	2560.81
722.919	2636.59
723.106	2601.77
723.293	2511.66
723.48	2546.48
723.667	2593.58
723.853	2530.09
724.04	2585.39
724.227	2431.79
724.414	2521.9
724.6	2497.33
724.787	2626.35
724.974	2519.85
725.161	2466.61
725.347	2562.86
725.534	2585.39
725.72	2544.43
725.907	2485.04
726.094	2487.09
726.28	2442.03
726.467	2530.09
726.653	2405.17
726.84	2495.28
727.027	2470.7
727.213	2405.17
727.4	2712.36
727.586	2425.65
727.773	2413.36
727.959	2480.94
728.145	2407.22
728.332	2482.99
728.518	2442.03
728.705	2472.75
728.891	2511.66
729.077	2370.35
729.264	2366.26
729.45	2337.59
729.636	2489.14
729.823	2503.47
730.009	2480.94
730.195	2415.41
730.382	2442.03
730.568	2341.68
730.754	2353.97
730.94	2425.65
731.126	2458.42
731.313	2337.59
731.499	2356.02
731.685	2454.32
731.871	2349.87
732.057	2413.36
732.243	2378.55
732.429	2317.11
732.615	2380.59
732.801	2310.96
732.987	2364.21
733.173	2388.78
733.359	2368.31
733.545	2323.25
733.731	2413.36
733.917	2243.38
734.103	2392.88
734.289	2419.5
734.475	2306.87
734.661	2439.98
734.847	2317.11
735.033	2339.63
735.219	2233.14
735.404	2282.29
735.59	2308.91
735.776	2282.29
735.962	2364.21
736.148	2333.49
736.333	2331.44
736.519	2229.04
736.705	2272.05
736.89	2243.38
737.076	2259.76
737.262	2245.43
737.447	2306.87
737.633	2175.8
737.819	2224.95
738.004	2194.23
738.19	2253.62
738.375	2167.6
738.561	2235.19
738.747	2298.67
738.932	2278.19
739.118	2233.14
739.303	2097.97
739.489	2208.56
739.674	2079.54
739.859	2245.43
740.045	2089.78
740.23	2085.69
740.416	2134.84
740.601	2048.82
740.786	2200.37
740.972	2071.35
741.157	2073.4
741.342	2089.78
741.528	1995.57
741.713	2233.14
741.898	1948.47
742.084	1938.23
742.269	2020.15
742.454	2120.5
742.639	2130.74
742.824	2061.11
743.01	2026.29
743.195	2183.99
743.38	1893.18
743.565	2020.15
743.75	1958.71
743.935	1915.7
744.12	2026.29
744.305	2110.26
744.49	1936.18
744.675	1925.94
744.86	1964.86
745.045	1956.66
745.23	1930.04
745.415	1846.07
745.6	1954.62
745.785	1872.7
745.97	1952.57
746.155	1831.74
746.34	1889.08
746.525	1868.6
746.71	1876.79
746.895	1817.4
747.079	1839.93
747.264	1897.27
747.449	1712.96
747.634	1766.2
747.819	1717.05
748.003	1844.03
748.188	1678.14
748.373	1825.59
748.557	1813.31
748.742	1620.8
748.927	1692.48
749.111	1743.67
749.296	1676.09
749.481	1710.91
749.665	1649.47
749.85	1651.52
750.034	1729.34
750.219	1751.87
750.404	1690.43
750.588	1551.17
750.773	1635.13
750.957	1692.48
751.141	1522.49
751.326	1643.32
751.51	1530.69
751.695	1485.63
751.879	1669.95
752.064	1637.18
752.248	1567.55
752.432	1610.56
752.617	1471.29
752.801	1471.29
752.985	1448.77
753.17	1442.62
753.354	1430.34
753.538	1448.77
753.722	1454.91
753.907	1444.67
754.091	1342.27
754.275	1493.82
754.459	1438.53
754.643	1364.8
754.828	1327.94
755.012	1325.89
755.196	1403.71
755.38	1346.37
755.564	1334.08
755.748	1299.27
755.932	1303.36
756.116	1301.31
756.3	1354.56
756.484	1317.7
756.668	1323.84
756.852	1268.55
757.036	1270.59
757.22	1334.08
757.404	1250.11
757.588	1286.98
757.772	1207.11
757.956	1143.62
758.14	1147.72
758.323	1153.86
758.507	1168.2
758.691	1106.76
758.875	1227.59
759.059	1160
759.242	1219.39
759.426	1137.48
759.61	1145.67
759.794	1176.39
759.977	1190.72
760.161	1250.11
760.345	1198.92
760.528	1096.52
760.712	1090.37
760.895	1225.54
761.079	1127.24
761.263	1100.61
761.446	1053.51
761.63	1125.19
761.813	1106.76
761.997	1119.04
762.18	1080.13
762.364	1069.89
762.547	1006.41
762.731	1147.72
762.914	1041.22
763.098	1059.65
763.281	893.77
763.464	975.69
763.648	1041.22
763.831	1008.45
764.015	998.21
764.198	957.25
764.381	944.97
764.564	973.64
764.748	906.06
764.931	996.17
765.114	934.73
765.297	979.78
765.481	893.77
765.664	971.59
765.847	926.54
766.03	971.59
766.213	901.96
766.397	916.3
766.58	949.06
766.763	973.64
766.946	914.25
767.129	990.02
767.312	850.76
767.495	930.63
767.678	930.63
767.861	852.81
768.044	875.34
768.227	807.75
768.41	852.81
768.593	953.16
768.776	914.25
768.959	906.06
769.142	899.91
769.324	955.21
769.507	858.95
769.69	815.94
769.873	826.18
770.056	856.9
770.239	877.38
770.421	836.42
770.604	832.33
770.787	754.51
770.97	844.62
771.152	854.86
771.335	824.14
771.518	774.99
771.7	844.62
771.883	803.66
772.066	766.79
772.248	815.94
772.431	916.3
772.613	793.42
772.796	738.12
772.978	828.23
773.161	797.51
773.343	781.13
773.526	758.6
773.708	828.23
773.891	774.99
774.073	729.93
774.256	725.83
774.438	799.56
774.621	680.78
774.803	713.55
774.985	713.55
775.168	811.85
775.35	648.01
775.532	576.33
775.715	602.96
775.897	734.03
776.079	684.87
776.261	709.45
776.444	662.35
776.626	676.68
776.808	701.26
776.99	670.54
777.173	629.58
777.355	672.59
777.537	656.2
777.719	639.82
777.901	654.16
778.083	594.76
778.265	643.92
778.447	670.54
778.629	582.48
778.811	660.3
778.993	693.07
779.175	545.61
779.357	527.18
779.539	596.81
779.721	586.57
779.903	648.01
780.085	568.14
780.267	594.76
780.449	553.8
780.631	598.86
780.812	623.44
780.994	598.86
781.176	613.2
781.358	559.95
781.54	508.75
781.721	631.63
781.903	504.65
782.085	514.89
782.267	531.28
782.448	459.6
782.63	465.74
782.812	533.33
782.993	506.7
783.175	447.31
783.357	508.75
783.538	465.74
783.72	492.37
783.901	562
784.083	490.32
784.264	557.9
784.446	514.89
784.627	410.45
784.809	478.03
784.99	504.65
785.172	570.19
785.353	439.12
785.535	443.21
785.716	400.21
785.897	414.54
786.079	445.26
786.26	508.75
786.441	420.69
786.623	406.35
786.804	400.21
786.985	398.16
787.167	430.93
787.348	365.39
787.529	430.93
787.71	471.89
787.891	369.49
788.073	379.73
788.254	406.35
788.435	488.27
788.616	416.59
788.797	359.25
788.978	422.73
789.159	400.21
789.34	424.78
789.522	359.25
789.703	400.21
789.884	447.31
790.065	377.68
790.246	295.76
790.427	389.97
790.607	394.06
790.788	439.12
790.969	316.24
791.15	394.06
791.331	381.78
791.512	293.71
791.693	357.2
791.874	369.49
792.054	349.01
792.235	398.16
792.416	328.53
792.597	308.05
792.778	373.58
792.958	308.05
793.139	332.62
793.32	353.1
793.5	340.82
793.681	318.29
793.862	361.3
794.042	291.66
794.223	287.57
794.404	267.09
794.584	285.52
794.765	310.1
794.945	310.1
795.126	271.19
795.306	273.23
795.487	353.1
795.667	369.49
795.848	369.49
796.028	336.72
796.209	265.04
796.389	308.05
796.57	308.05
796.75	273.23
796.93	283.47
797.111	285.52
797.291	328.53
797.471	258.9
797.652	246.61
797.832	295.76
798.012	273.23
798.192	236.37
798.373	234.32
798.553	179.03
798.733	250.71
798.913	260.95
799.093	267.09
799.274	256.85
799.454	252.75
799.634	242.51
799.814	332.62
799.994	299.86
800.174	222.03
800.354	228.18
800.534	301.9
800.714	244.56
800.894	164.69
801.074	176.98
801.254	150.36
801.434	328.53
801.614	215.89
801.794	199.51
801.974	815.94
802.154	160.59
802.334	252.75
802.514	197.46
802.693	242.51
802.873	236.37
803.053	234.32
803.233	222.03
803.413	201.55
803.592	238.42
803.772	201.55
803.952	226.13
804.131	146.26
804.311	228.18
804.491	299.86
804.67	228.18
804.85	179.03
805.03	236.37
805.209	244.56
805.389	215.89
805.568	168.79
805.748	174.93
805.928	260.95
806.107	248.66
806.287	187.22
806.466	195.41
806.646	226.13
806.825	189.27
807.004	203.6
807.184	201.55
807.363	244.56
807.543	181.07
807.722	127.83
807.901	287.57
808.081	195.41
808.26	109.4
808.439	203.6
808.619	136.02
808.798	97.11
808.977	150.36
809.156	201.55
809.336	226.13
809.515	187.22
809.694	244.56
809.873	123.73
810.052	162.64
810.231	185.17
810.411	127.83
810.59	226.13
810.769	187.22
810.948	154.45
811.127	154.45
811.306	129.88
811.485	154.45
811.664	252.75
811.843	176.98
812.022	228.18
812.201	209.75
812.38	125.78
812.559	146.26
812.737	201.55
812.916	160.59
813.095	88.92
813.274	172.88
813.453	111.44
813.632	205.65
813.811	168.79
813.989	39.76
814.168	209.75
814.347	127.83
814.526	179.03
814.704	215.89
814.883	148.31
815.062	154.45
815.24	179.03
815.419	172.88
815.598	119.64
815.776	86.87
815.955	189.27
816.133	103.25
816.312	111.44
816.49	197.46
816.669	162.64
816.847	103.25
817.026	189.27
817.204	111.44
817.383	136.02
817.561	82.77
817.74	187.22
817.918	162.64
818.097	121.68
818.275	140.12
818.453	152.4
818.632	113.49
818.81	185.17
818.988	136.02
819.167	54.1
819.345	185.17
819.523	148.31
819.701	201.55
819.879	168.79
820.058	201.55
820.236	154.45
820.414	158.55
820.592	154.45
820.77	156.5
820.948	181.07
821.127	123.73
821.305	119.64
821.483	31.57
821.661	234.32
821.839	54.1
822.017	82.77
822.195	60.24
822.373	172.88
822.551	107.35
822.729	152.4
822.907	162.64
823.085	74.58
823.262	111.44
823.44	86.87
823.618	45.91
823.796	148.31
823.974	64.34
824.152	103.25
824.329	140.12
824.507	54.1
824.685	84.82
824.863	146.26
825.04	62.29
825.218	111.44
825.396	111.44
825.574	138.07
825.751	146.26
825.929	138.07
826.107	82.77
826.284	109.4
826.462	123.73
826.639	72.53
826.817	70.48
826.994	125.78
827.172	45.91
827.349	103.25
827.527	131.92
827.704	166.74
827.882	129.88
828.059	47.96
828.237	62.29
828.414	97.11
828.591	80.72
828.769	78.68
828.946	-3.24
829.124	131.92
829.301	111.44
829.478	119.64
829.655	64.34
829.833	78.68
830.01	127.83
830.187	138.07
830.364	95.06
830.542	107.35
830.719	162.64
830.896	107.35
831.073	90.96
831.25	33.62
831.427	72.53
831.604	105.3
831.782	41.81
831.959	136.02
832.136	33.62
832.313	86.87
832.49	33.62
832.667	144.21
832.844	86.87
833.021	88.92
833.198	105.3
833.374	70.48
833.551	111.44
833.728	-1.19
833.905	115.54
834.082	82.77
834.259	56.15
834.436	195.41
834.612	7
834.789	146.26
834.966	103.25
835.143	86.87
835.319	93.01
835.496	97.11
835.673	90.96
835.85	95.06
836.026	162.64
836.203	27.48
836.38	4.95
836.556	103.25
836.733	23.38
836.909	72.53
837.086	160.59
837.262	13.14
837.439	78.68
837.616	127.83
837.792	78.68
837.968	111.44
838.145	113.49
838.321	97.11
838.498	66.39
838.674	58.2
838.851	39.76
839.027	64.34
839.203	4.95
839.38	107.35
839.556	164.69
839.732	86.87
839.909	103.25
840.085	60.24
840.261	-15.53
840.437	70.48
840.614	17.24
840.79	62.29
840.966	107.35
841.142	70.48
841.318	25.43
841.494	95.06
841.671	64.34
841.847	50
842.023	72.53
842.199	90.96
842.375	70.48
842.551	47.96
842.727	21.33
842.903	31.57
843.079	82.77
843.255	43.86
843.431	74.58
843.607	103.25
843.783	133.97
843.959	23.38
844.134	7
844.31	25.43
844.486	103.25
844.662	78.68
844.838	35.67
845.013	179.03
845.189	47.96
845.365	95.06
845.541	41.81
845.716	39.76
845.892	74.58
846.068	54.1
846.244	0.85
846.419	113.49
846.595	21.33
846.77	17.24
846.946	78.68
847.122	54.1
847.297	-5.29
847.473	111.44
847.648	-19.63
847.824	62.29
847.999	21.33
848.175	56.15
848.35	101.2
848.526	70.48
848.701	68.44
848.876	74.58
849.052	119.64
849.227	15.19
849.403	119.64
849.578	29.52
849.753	29.52
849.929	37.72
850.104	-13.48
850.279	23.38
850.454	78.68
850.63	80.72
850.805	45.91
850.98	56.15
851.155	29.52
851.33	54.1
851.505	31.57
851.681	86.87
851.856	13.14
852.031	54.1
852.206	21.33
852.381	-17.58
852.556	7
852.731	33.62
852.906	54.1
853.081	103.25
853.256	54.1
853.431	62.29
853.606	54.1
853.781	82.77
853.956	-7.34
854.131	72.53
854.305	15.19
854.48	29.52
854.655	13.14
854.83	-44.2
855.005	27.48
855.18	95.06
855.354	11.09
855.529	119.64
855.704	31.57
855.879	52.05
856.053	23.38
856.228	95.06
856.403	-5.29
856.577	35.67
856.752	45.91
856.926	62.29
857.101	43.86
857.276	-36.01
857.45	9.05
857.625	21.33
857.799	-36.01
857.974	119.64
858.148	-38.06
858.323	29.52
858.497	50
858.672	-1.19
858.846	7
859.02	64.34
859.195	47.96
859.369	4.95
859.543	50
859.718	37.72
859.892	72.53
860.066	58.2
860.241	76.63
860.415	-19.63
860.589	23.38
860.763	13.14
860.938	23.38
861.112	-31.91
861.286	58.2
861.46	0.85
861.634	4.95
861.808	113.49
861.982	72.53
862.157	43.86
862.331	-15.53
862.505	64.34
862.679	-25.77
862.853	-31.91
863.027	-36.01
863.201	39.76
863.375	93.01
863.549	90.96
863.722	25.43
863.896	41.81
864.07	15.19
864.244	93.01
864.418	74.58
864.592	58.2
864.766	-29.87
864.939	-11.43
865.113	-3.24
865.287	78.68
865.461	31.57
865.634	45.91
865.808	39.76
865.982	21.33
866.156	37.72
866.329	39.76
866.503	-21.67
866.676	97.11
866.85	25.43
867.024	21.33
867.197	13.14
867.371	129.88
867.544	19.29
867.718	-3.24
867.891	17.24
868.065	-27.82
868.238	11.09
868.412	25.43
868.585	80.72
868.759	19.29
868.932	-3.24
869.105	4.95
869.279	54.1
869.452	13.14
869.625	29.52
869.799	-19.63
869.972	4.95
870.145	-23.72
870.319	27.48
870.492	-36.01
870.665	50
870.838	29.52
871.011	31.57
871.185	-9.39
871.358	31.57
871.531	70.48
871.704	-7.34
871.877	58.2
872.05	-19.63
872.223	23.38
872.396	113.49
872.569	45.91
872.742	13.14
872.915	-11.43
873.088	-19.63
873.261	-21.67
873.434	4.95
873.607	21.33
873.78	111.44
873.953	29.52
874.126	-58.54
874.299	90.96
874.471	9.05
874.644	4.95
874.817	82.77
874.99	66.39
875.163	-40.11
875.335	15.19
875.508	74.58
875.681	64.34
875.853	9.05
876.026	47.96
876.199	-19.63
876.371	-40.11
876.544	78.68
876.717	31.57
876.889	27.48
877.062	7
877.234	50
877.407	80.72
877.579	7
877.752	39.76
877.924	-3.24
878.097	21.33
878.269	4.95
878.442	-5.29
878.614	29.52
878.786	119.64
878.959	23.38
879.131	4.95
879.303	13.14
879.476	-3.24
879.648	111.44
879.82	19.29
879.993	-3.24
880.165	-19.63
880.337	37.72
880.509	15.19
880.681	0.85
880.854	-23.72
881.026	50
881.198	43.86
881.37	-1.19
881.542	31.57
881.714	86.87
881.886	45.91
882.058	-11.43
882.23	39.76
882.402	146.26
882.574	-1.19
882.746	23.38
882.918	23.38
883.09	21.33
883.262	39.76
883.434	4.95
883.606	27.48
883.778	29.52
883.95	160.59
884.122	-19.63
884.293	-29.87
884.465	0.85
884.637	84.82
884.809	29.52
884.98	-23.72
885.152	-64.68
885.324	45.91
885.496	-19.63
885.667	17.24
885.839	111.44
886.011	37.72
886.182	-40.11
886.354	27.48
886.525	4.95
886.697	13.14
886.869	-9.39
887.04	33.62
887.212	78.68
887.383	93.01
887.555	45.91
887.726	29.52
887.897	0.85
888.069	-1.19
888.24	29.52
888.412	41.81
888.583	9.05
888.754	-68.78
888.926	11.09
889.097	29.52
889.268	35.67
889.44	-33.96
889.611	58.2
889.782	50
889.953	29.52
890.125	23.38
890.296	13.14
890.467	15.19
890.638	41.81
890.809	33.62
890.98	-19.63
891.151	-44.2
891.323	54.1
891.494	43.86
891.665	41.81
891.836	-42.15
892.007	-44.2
892.178	70.48
892.349	37.72
892.52	35.67
892.691	27.48
892.862	0.85
893.032	39.76
893.203	-9.39
893.374	15.19
893.545	29.52
893.716	15.19
893.887	45.91
894.057	-19.63
894.228	-31.91
894.399	-23.72
894.57	101.2
894.74	25.43
894.911	23.38
895.082	21.33
895.253	33.62
895.423	4.95
895.594	15.19
895.764	121.68
895.935	-68.78
896.106	9.05
896.276	45.91
896.447	45.91
896.617	-11.43
896.788	-23.72
896.958	45.91
897.129	-50.35
897.299	37.72
897.47	17.24
897.64	37.72
897.81	-13.48
897.981	70.48
898.151	17.24
898.322	21.33
898.492	17.24
898.662	-1.19
898.832	-27.82
899.003	35.67
899.173	31.57
899.343	-3.24
899.513	21.33
