Data from USB4F104151__165__14-19-43-683.txt Node

Date: Thu Mar 13 14:19:43 EDT 2025
User: louis
Spectrometer: USB4F10415
Trigger mode: 4
Integration Time (sec): 2.000000E-2
Scans to average: 1
Electric dark correction enabled: true
Nonlinearity correction enabled: false
Boxcar width: 0
XAxis mode: Wavelengths
Number of Pixels in Spectrum: 3648
>>>>>Begin Spectral Data<<<<<
178.204	-166.57
178.424	-166.57
178.644	-166.57
178.864	-129.7
179.084	-127.66
179.304	-27.31
179.524	-8.87
179.744	-0.68
179.964	44.37
180.184	1.37
180.404	-43.69
180.624	-27.31
180.844	3.41
181.064	46.42
181.283	15.7
181.503	30.04
181.723	-33.45
181.943	-0.68
182.163	48.47
182.383	-15.02
182.602	5.46
182.822	3.41
183.042	7.51
183.262	-17.07
183.482	32.08
183.701	-35.5
183.921	13.65
184.141	3.41
184.361	42.32
184.58	40.28
184.8	56.66
185.02	-0.68
185.239	-15.02
185.459	56.66
185.679	-2.73
185.898	-15.02
186.118	73.04
186.338	93.52
186.557	-6.83
186.777	48.47
186.997	83.28
187.216	-43.69
187.436	15.7
187.655	-21.16
187.875	50.52
188.095	-0.68
188.314	34.13
188.534	114
188.753	56.66
188.973	71
189.192	114
189.412	32.08
189.631	-6.83
189.851	62.8
190.07	48.47
190.29	56.66
190.509	-2.73
190.729	-90.79
190.948	64.85
191.168	124.24
191.387	7.51
191.607	60.76
191.826	11.61
192.045	75.09
192.265	50.52
192.484	7.51
192.704	-39.59
192.923	-27.31
193.142	97.62
193.362	64.85
193.581	114
193.8	32.08
194.02	52.56
194.239	3.41
194.458	25.94
194.678	-6.83
194.897	-0.68
195.116	68.95
195.335	34.13
195.555	23.89
195.774	15.7
195.993	40.28
196.212	-0.68
196.432	3.41
196.651	32.08
196.87	15.7
197.089	75.09
197.308	30.04
197.528	56.66
197.747	32.08
197.966	-21.16
198.185	42.32
198.404	-25.26
198.623	-17.07
198.842	58.71
199.062	-29.35
199.281	73.04
199.5	11.61
199.719	42.32
199.938	109.91
200.157	9.56
200.376	46.42
200.595	71
200.814	60.76
201.033	-33.45
201.252	66.9
201.471	-47.79
201.69	64.85
201.909	50.52
202.128	-45.74
202.347	42.32
202.566	27.99
202.785	-12.97
203.004	-33.45
203.223	36.18
203.442	40.28
203.661	1.37
203.879	13.65
204.098	60.76
204.317	48.47
204.536	25.94
204.755	-8.87
204.974	40.28
205.193	32.08
205.411	138.58
205.63	48.47
205.849	83.28
206.068	-12.97
206.287	23.89
206.505	75.09
206.724	36.18
206.943	66.9
207.162	-39.59
207.381	46.42
207.599	-0.68
207.818	1.37
208.037	-33.45
208.255	34.13
208.474	48.47
208.693	11.61
208.911	66.9
209.13	44.37
209.349	19.8
209.567	56.66
209.786	34.13
210.005	71
210.223	11.61
210.442	15.7
210.661	15.7
210.879	-0.68
211.098	25.94
211.316	-19.11
211.535	138.58
211.753	27.99
211.972	56.66
212.191	52.56
212.409	56.66
212.628	44.37
212.846	-62.12
213.065	44.37
213.283	83.28
213.502	23.89
213.72	25.94
213.938	-37.55
214.157	73.04
214.375	42.32
214.594	44.37
214.812	50.52
215.031	30.04
215.249	9.56
215.467	-17.07
215.686	-25.26
215.904	73.04
216.122	17.75
216.341	71
216.559	99.67
216.778	23.89
216.996	58.71
217.214	25.94
217.432	-19.11
217.651	64.85
217.869	-27.31
218.087	27.99
218.306	-0.68
218.524	32.08
218.742	71
218.96	97.62
219.179	93.52
219.397	89.43
219.615	56.66
219.833	21.85
220.051	-8.87
220.27	52.56
220.488	64.85
220.706	11.61
220.924	42.32
221.142	56.66
221.36	89.43
221.578	62.8
221.796	40.28
222.015	58.71
222.233	44.37
222.451	89.43
222.669	50.52
222.887	56.66
223.105	-23.21
223.323	40.28
223.541	7.51
223.759	25.94
223.977	25.94
224.195	32.08
224.413	9.56
224.631	89.43
224.849	19.8
225.067	58.71
225.285	17.75
225.503	-53.93
225.721	-21.16
225.939	52.56
226.157	89.43
226.375	89.43
226.592	11.61
226.81	15.7
227.028	27.99
227.246	66.9
227.464	-33.45
227.682	-6.83
227.9	40.28
228.117	9.56
228.335	23.89
228.553	48.47
228.771	7.51
228.989	23.89
229.206	36.18
229.424	99.67
229.642	-0.68
229.86	11.61
230.077	44.37
230.295	85.33
230.513	62.8
230.731	-15.02
230.948	87.38
231.166	30.04
231.384	30.04
231.601	40.28
231.819	48.47
232.037	9.56
232.254	-39.59
232.472	56.66
232.689	-49.83
232.907	-8.87
233.125	40.28
233.342	66.9
233.56	3.41
233.777	68.95
233.995	-8.87
234.213	-25.26
234.43	73.04
234.648	66.9
234.865	15.7
235.083	-15.02
235.3	77.14
235.518	54.61
235.735	48.47
235.953	40.28
236.17	-35.5
236.388	52.56
236.605	32.08
236.822	68.95
237.04	13.65
237.257	-17.07
237.475	-8.87
237.692	-0.68
237.909	25.94
238.127	36.18
238.344	99.67
238.562	15.7
238.779	-8.87
238.996	-4.78
239.214	-51.88
239.431	36.18
239.648	48.47
239.865	23.89
240.083	42.32
240.3	-31.4
240.517	-47.79
240.735	48.47
240.952	52.56
241.169	-0.68
241.386	23.89
241.603	9.56
241.821	1.37
242.038	83.28
242.255	23.89
242.472	9.56
242.689	34.13
242.907	23.89
243.124	-35.5
243.341	58.71
243.558	7.51
243.775	-58.03
243.992	-15.02
244.209	-49.83
244.426	75.09
244.643	9.56
244.86	64.85
245.078	77.14
245.295	15.7
245.512	-62.12
245.729	-17.07
245.946	73.04
246.163	1.37
246.38	50.52
246.597	-6.83
246.814	64.85
247.031	23.89
247.248	64.85
247.464	-0.68
247.681	3.41
247.898	15.7
248.115	56.66
248.332	7.51
248.549	64.85
248.766	107.86
248.983	75.09
249.2	3.41
249.417	-53.93
249.633	11.61
249.85	23.89
250.067	-21.16
250.284	3.41
250.501	15.7
250.717	7.51
250.934	93.52
251.151	15.7
251.368	23.89
251.585	1.37
251.801	-15.02
252.018	15.7
252.235	56.66
252.451	19.8
252.668	-27.31
252.885	52.56
253.102	42.32
253.318	3.41
253.535	48.47
253.752	-55.98
253.968	-4.78
254.185	44.37
254.401	-12.97
254.618	32.08
254.835	11.61
255.051	105.81
255.268	56.66
255.484	42.32
255.701	30.04
255.917	9.56
256.134	-0.68
256.351	48.47
256.567	-8.87
256.784	56.66
257	44.37
257.217	32.08
257.433	66.9
257.65	48.47
257.866	36.18
258.082	75.09
258.299	-6.83
258.515	58.71
258.732	40.28
258.948	-21.16
259.165	-17.07
259.381	36.18
259.597	58.71
259.814	-21.16
260.03	25.94
260.246	-12.97
260.463	23.89
260.679	56.66
260.895	25.94
261.112	138.58
261.328	89.43
261.544	-8.87
261.761	36.18
261.977	-62.12
262.193	60.76
262.409	89.43
262.626	89.43
262.842	75.09
263.058	13.65
263.274	1.37
263.49	116.05
263.707	68.95
263.923	3.41
264.139	15.7
264.355	36.18
264.571	7.51
264.787	15.7
265.004	79.19
265.22	27.99
265.436	-6.83
265.652	23.89
265.868	27.99
266.084	52.56
266.3	32.08
266.516	-8.87
266.732	-27.31
266.948	34.13
267.164	58.71
267.38	60.76
267.596	-12.97
267.812	107.86
268.028	40.28
268.244	-25.26
268.46	95.57
268.676	77.14
268.892	42.32
269.108	-55.98
269.324	17.75
269.54	-37.55
269.756	23.89
269.972	-66.22
270.188	50.52
270.403	23.89
270.619	44.37
270.835	36.18
271.051	81.24
271.267	17.75
271.483	89.43
271.698	81.24
271.914	66.9
272.13	44.37
272.346	40.28
272.562	-21.16
272.777	105.81
272.993	-0.68
273.209	54.61
273.425	17.75
273.64	44.37
273.856	32.08
274.072	-17.07
274.287	32.08
274.503	44.37
274.719	23.89
274.934	75.09
275.15	-17.07
275.366	56.66
275.581	52.56
275.797	5.46
276.012	44.37
276.228	-8.87
276.444	15.7
276.659	-8.87
276.875	-31.4
277.09	42.32
277.306	60.76
277.521	116.05
277.737	73.04
277.952	46.42
278.168	38.23
278.383	68.95
278.599	58.71
278.814	9.56
279.03	25.94
279.245	48.47
279.461	81.24
279.676	-12.97
279.892	-62.12
280.107	56.66
280.322	48.47
280.538	56.66
280.753	48.47
280.969	11.61
281.184	9.56
281.399	62.8
281.615	15.7
281.83	3.41
282.045	17.75
282.26	17.75
282.476	44.37
282.691	32.08
282.906	19.8
283.122	66.9
283.337	34.13
283.552	32.08
283.767	-29.35
283.983	77.14
284.198	9.56
284.413	25.94
284.628	1.37
284.843	52.56
285.058	-4.78
285.274	-25.26
285.489	75.09
285.704	66.9
285.919	11.61
286.134	91.48
286.349	56.66
286.564	-64.17
286.779	103.76
286.995	-0.68
287.21	38.23
287.425	56.66
287.64	7.51
287.855	58.71
288.07	42.32
288.285	42.32
288.5	81.24
288.715	-15.02
288.93	-4.78
289.145	111.96
289.36	101.72
289.575	-0.68
289.79	-33.45
290.004	-25.26
290.219	15.7
290.434	-6.83
290.649	44.37
290.864	3.41
291.079	97.62
291.294	27.99
291.509	-0.68
291.724	58.71
291.938	75.09
292.153	-39.59
292.368	7.51
292.583	23.89
292.798	-4.78
293.012	81.24
293.227	-25.26
293.442	56.66
293.657	73.04
293.871	105.81
294.086	-2.73
294.301	62.8
294.516	56.66
294.73	34.13
294.945	-15.02
295.16	17.75
295.374	42.32
295.589	97.62
295.804	7.51
296.018	3.41
296.233	89.43
296.447	32.08
296.662	15.7
296.877	58.71
297.091	64.85
297.306	77.14
297.52	64.85
297.735	32.08
297.949	81.24
298.164	32.08
298.378	89.43
298.593	48.47
298.807	3.41
299.022	56.66
299.236	77.14
299.451	32.08
299.665	32.08
299.88	89.43
300.094	-6.83
300.309	124.24
300.523	64.85
300.737	42.32
300.952	38.23
301.166	32.08
301.381	27.99
301.595	-51.88
301.809	23.89
302.024	-4.78
302.238	-25.26
302.452	60.76
302.667	1.37
302.881	56.66
303.095	54.61
303.309	25.94
303.524	40.28
303.738	48.47
303.952	19.8
304.166	58.71
304.381	-45.74
304.595	111.96
304.809	56.66
305.023	66.9
305.237	52.56
305.452	15.7
305.666	23.89
305.88	48.47
306.094	32.08
306.308	56.66
306.522	40.28
306.736	48.47
306.95	103.76
307.164	48.47
307.379	-55.98
307.593	25.94
307.807	73.04
308.021	83.28
308.235	-0.68
308.449	-17.07
308.663	23.89
308.877	136.53
309.091	36.18
309.305	52.56
309.519	11.61
309.733	23.89
309.947	23.89
310.161	36.18
310.374	15.7
310.588	85.33
310.802	15.7
311.016	-49.83
311.23	77.14
311.444	7.51
311.658	-0.68
311.872	122.2
312.085	93.52
312.299	75.09
312.513	36.18
312.727	34.13
312.941	97.62
313.154	62.8
313.368	-12.97
313.582	34.13
313.796	-31.4
314.009	13.65
314.223	81.24
314.437	27.99
314.651	58.71
314.864	52.56
315.078	36.18
315.292	64.85
315.505	-6.83
315.719	-21.16
315.933	34.13
316.146	32.08
316.36	-4.78
316.573	15.7
316.787	13.65
317.001	1.37
317.214	25.94
317.428	-21.16
317.641	-25.26
317.855	68.95
318.068	15.7
318.282	81.24
318.495	79.19
318.709	9.56
318.922	95.57
319.136	87.38
319.349	81.24
319.563	75.09
319.776	48.47
319.99	73.04
320.203	7.51
320.417	23.89
320.63	-4.78
320.843	105.81
321.057	54.61
321.27	-37.55
321.483	36.18
321.697	23.89
321.91	85.33
322.124	9.56
322.337	42.32
322.55	15.7
322.763	-27.31
322.977	83.28
323.19	83.28
323.403	-15.02
323.617	27.99
323.83	95.57
324.043	42.32
324.256	54.61
324.469	64.85
324.683	81.24
324.896	19.8
325.109	60.76
325.322	-55.98
325.535	11.61
325.748	56.66
325.962	-41.64
326.175	105.81
326.388	34.13
326.601	56.66
326.814	58.71
327.027	75.09
327.24	105.81
327.453	48.47
327.666	77.14
327.879	-62.12
328.092	25.94
328.305	87.38
328.518	81.24
328.731	-0.68
328.944	17.75
329.157	89.43
329.37	118.1
329.583	23.89
329.796	99.67
330.009	25.94
330.222	64.85
330.435	157.01
330.648	13.65
330.861	52.56
331.073	48.47
331.286	13.65
331.499	23.89
331.712	17.75
331.925	107.86
332.138	89.43
332.35	105.81
332.563	56.66
332.776	73.04
332.989	58.71
333.202	68.95
333.414	58.71
333.627	-53.93
333.84	81.24
334.053	23.89
334.265	1.37
334.478	107.86
334.691	7.51
334.903	83.28
335.116	56.66
335.329	83.28
335.541	93.52
335.754	93.52
335.966	-31.4
336.179	17.75
336.392	40.28
336.604	-4.78
336.817	-4.78
337.029	-0.68
337.242	93.52
337.454	116.05
337.667	9.56
337.88	124.24
338.092	-33.45
338.305	91.48
338.517	56.66
338.729	50.52
338.942	97.62
339.154	-41.64
339.367	27.99
339.579	54.61
339.792	44.37
340.004	58.71
340.217	-45.74
340.429	40.28
340.641	-6.83
340.854	34.13
341.066	40.28
341.278	89.43
341.491	132.44
341.703	32.08
341.915	-60.07
342.128	40.28
342.34	30.04
342.552	81.24
342.764	44.37
342.977	122.2
343.189	17.75
343.401	89.43
343.613	56.66
343.826	75.09
344.038	27.99
344.25	-33.45
344.462	32.08
344.674	-6.83
344.886	44.37
345.099	77.14
345.311	30.04
345.523	3.41
345.735	15.7
345.947	44.37
346.159	56.66
346.371	89.43
346.583	56.66
346.795	93.52
347.007	3.41
347.219	130.39
347.431	32.08
347.643	105.81
347.855	36.18
348.067	56.66
348.279	107.86
348.491	-8.87
348.703	77.14
348.915	89.43
349.127	40.28
349.339	11.61
349.551	-4.78
349.763	7.51
349.975	-10.92
350.187	56.66
350.399	42.32
350.61	97.62
350.822	62.8
351.034	103.76
351.246	77.14
351.458	58.71
351.669	77.14
351.881	91.48
352.093	89.43
352.305	101.72
352.517	34.13
352.728	58.71
352.94	79.19
353.152	42.32
353.363	64.85
353.575	34.13
353.787	27.99
353.999	79.19
354.21	85.33
354.422	-8.87
354.633	-8.87
354.845	109.91
355.057	40.28
355.268	64.85
355.48	-17.07
355.692	42.32
355.903	7.51
356.115	15.7
356.326	21.85
356.538	87.38
356.749	68.95
356.961	42.32
357.172	77.14
357.384	13.65
357.595	146.77
357.807	64.85
358.018	-2.73
358.23	-0.68
358.441	58.71
358.653	99.67
358.864	27.99
359.075	97.62
359.287	17.75
359.498	91.48
359.709	27.99
359.921	36.18
360.132	99.67
360.344	107.86
360.555	83.28
360.766	23.89
360.977	62.8
361.189	122.2
361.4	60.76
361.611	83.28
361.823	60.76
362.034	122.2
362.245	36.18
362.456	93.52
362.667	83.28
362.879	34.13
363.09	25.94
363.301	48.47
363.512	-8.87
363.723	15.7
363.935	15.7
364.146	44.37
364.357	19.8
364.568	91.48
364.779	15.7
364.99	107.86
365.201	50.52
365.412	118.1
365.623	17.75
365.834	25.94
366.045	-45.74
366.256	75.09
366.467	36.18
366.678	52.56
366.889	36.18
367.1	81.24
367.311	32.08
367.522	40.28
367.733	25.94
367.944	7.51
368.155	40.28
368.366	-25.26
368.577	81.24
368.788	109.91
368.999	81.24
369.209	83.28
369.42	89.43
369.631	58.71
369.842	-37.55
370.053	27.99
370.264	58.71
370.474	58.71
370.685	3.41
370.896	58.71
371.107	109.91
371.317	66.9
371.528	7.51
371.739	64.85
371.95	48.47
372.16	111.96
372.371	73.04
372.582	71
372.792	81.24
373.003	122.2
373.214	25.94
373.424	77.14
373.635	68.95
373.846	48.47
374.056	27.99
374.267	105.81
374.477	64.85
374.688	116.05
374.898	56.66
375.109	99.67
375.319	56.66
375.53	56.66
375.74	58.71
375.951	54.61
376.161	42.32
376.372	68.95
376.582	32.08
376.793	48.47
377.003	25.94
377.214	116.05
377.424	105.81
377.635	44.37
377.845	54.61
378.055	27.99
378.266	-15.02
378.476	42.32
378.686	46.42
378.897	21.85
379.107	-2.73
379.317	52.56
379.528	42.32
379.738	130.39
379.948	52.56
380.158	93.52
380.369	81.24
380.579	50.52
380.789	71
380.999	42.32
381.21	89.43
381.42	30.04
381.63	7.51
381.84	73.04
382.05	146.77
382.261	169.3
382.471	40.28
382.681	-6.83
382.891	87.38
383.101	52.56
383.311	42.32
383.521	17.75
383.731	40.28
383.941	85.33
384.151	40.28
384.361	56.66
384.571	75.09
384.781	30.04
384.991	40.28
385.201	128.34
385.411	19.8
385.621	93.52
385.831	15.7
386.041	107.86
386.251	-6.83
386.461	95.57
386.671	99.67
386.881	85.33
387.091	38.23
387.301	50.52
387.511	48.47
387.72	85.33
387.93	105.81
388.14	105.81
388.35	97.62
388.56	13.65
388.769	114
388.979	40.28
389.189	11.61
389.399	81.24
389.609	75.09
389.818	116.05
390.028	75.09
390.238	122.2
390.447	48.47
390.657	64.85
390.867	93.52
391.076	122.2
391.286	50.52
391.496	25.94
391.705	19.8
391.915	36.18
392.125	126.29
392.334	64.85
392.544	91.48
392.753	50.52
392.963	85.33
393.172	25.94
393.382	66.9
393.591	130.39
393.801	150.87
394.01	99.67
394.22	52.56
394.429	89.43
394.639	126.29
394.848	66.9
395.058	157.01
395.267	105.81
395.477	42.32
395.686	122.2
395.895	60.76
396.105	175.44
396.314	81.24
396.524	48.47
396.733	56.66
396.942	109.91
397.152	101.72
397.361	130.39
397.57	68.95
397.78	150.87
397.989	114
398.198	146.77
398.407	99.67
398.617	83.28
398.826	85.33
399.035	40.28
399.244	91.48
399.453	124.24
399.663	114
399.872	124.24
400.081	130.39
400.29	157.01
400.499	99.67
400.708	152.91
400.917	157.01
401.127	175.44
401.336	175.44
401.545	146.77
401.754	187.73
401.963	195.92
402.172	118.1
402.381	118.1
402.59	189.78
402.799	132.44
403.008	175.44
403.217	142.68
403.426	187.73
403.635	101.72
403.844	173.39
404.053	154.96
404.262	220.5
404.471	220.5
404.68	224.59
404.888	189.78
405.097	173.39
405.306	154.96
405.515	212.31
405.724	220.5
405.933	169.3
406.142	163.15
406.35	185.68
406.559	232.79
406.768	157.01
406.977	318.8
407.185	281.94
407.394	294.22
407.603	214.35
407.812	279.89
408.02	302.42
408.229	277.84
408.438	277.84
408.646	310.61
408.855	296.27
409.064	337.23
409.272	339.28
409.481	406.86
409.69	370
409.898	357.71
410.107	425.29
410.315	419.15
410.524	408.91
410.733	523.6
410.941	449.87
411.15	486.73
411.358	499.02
411.567	499.02
411.775	542.03
411.984	550.22
412.192	523.6
412.401	566.6
412.609	605.52
412.818	591.18
413.026	699.72
413.234	648.52
413.443	777.55
413.651	695.63
413.86	695.63
414.068	795.98
414.276	709.96
414.485	877.9
414.693	908.62
414.901	918.86
415.11	908.62
415.318	939.33
415.526	845.13
415.734	986.44
415.943	1029.45
416.151	1088.84
416.359	1033.54
416.567	1187.14
416.776	1172.8
416.984	1314.11
417.192	1316.16
417.4	1230.15
417.608	1277.25
417.817	1350.98
418.025	1469.76
418.233	1471.81
418.441	1494.33
418.649	1559.87
418.857	1639.74
419.065	1656.12
419.273	1660.22
419.481	1727.8
419.689	1899.83
419.897	1975.61
420.105	1989.94
420.313	2024.76
420.521	2243.89
420.729	2065.72
420.937	2268.47
421.145	2159.92
421.353	2434.35
421.561	2477.36
421.769	2528.56
421.977	2587.95
422.185	2512.17
422.393	2866.47
422.601	2995.5
422.809	3018.02
423.017	2936.1
423.224	3024.17
423.432	3347.75
423.64	3130.66
423.848	3611.93
424.056	3439.9
424.263	3599.65
424.471	3591.45
424.679	3859.74
424.887	4060.44
425.094	4044.06
425.302	4207.89
425.51	4113.69
425.718	4427.03
425.925	4488.46
426.133	4537.62
426.341	4824.33
426.548	5192.97
426.756	5094.66
426.964	5049.61
427.171	5481.73
427.379	5709.05
427.586	5745.92
427.794	5874.94
428.001	6020.35
428.209	6319.35
428.417	6241.53
428.624	6642.93
428.832	6634.74
429.039	6814.96
429.247	6692.08
429.454	7339.24
429.662	7759.07
429.869	7308.52
430.076	7732.45
430.284	7619.81
430.491	7806.17
430.699	8441.04
430.906	8281.3
431.114	8494.29
431.321	8762.58
431.528	8916.17
431.736	9452.74
431.943	9946.3
432.15	9659.59
432.358	9673.92
432.565	10288.31
432.772	10265.78
432.979	10822.83
433.187	10921.13
433.394	10892.46
433.601	11754.66
433.808	11861.15
434.016	11744.42
434.223	12154.01
434.43	12876.94
434.637	12579.99
434.844	13274.25
435.052	13773.96
435.259	13481.1
435.466	13614.21
435.673	13608.07
435.88	14441.59
436.087	15383.66
436.294	14951.54
436.501	14869.62
436.708	14986.35
436.915	15719.53
437.122	16276.57
437.329	16102.5
437.537	16948.31
437.743	17095.76
437.95	17048.66
438.157	17783.88
438.364	18445.37
438.571	18435.13
438.778	18517.05
438.985	20444.19
439.192	19266.61
439.399	19907.62
439.606	19719.21
439.813	20861.98
440.02	21926.92
440.227	21521.42
440.433	21230.61
440.64	21980.17
440.847	21928.97
441.054	22610.94
441.261	23727.08
441.467	23462.9
441.674	23823.34
441.881	25050.07
442.088	24798.17
442.294	24552.41
442.501	25093.08
442.708	25443.28
442.914	26485.7
443.121	27550.64
443.328	27255.73
443.534	28973.98
443.741	28005.29
443.948	27974.57
444.154	29707.15
444.361	29442.96
444.568	29971.34
444.774	29995.92
444.981	29909.9
445.187	30966.65
445.394	32502.63
445.6	31554.42
445.807	34966.34
446.013	33256.28
446.22	34171.72
446.426	35046.21
446.633	35167.04
446.839	36682.53
447.046	35083.07
447.252	36866.85
447.459	36819.75
447.665	36967.2
447.871	38777.61
448.078	40037.11
448.284	38400.78
448.491	39193.34
448.697	40798.95
448.903	41108.19
449.11	41915.09
449.316	40866.53
449.522	41560.8
449.728	42640.07
449.935	42957.51
450.141	42848.97
450.347	43870.9
450.553	42382.03
450.76	43313.86
450.966	44642.99
451.172	43932.34
451.378	45028.01
451.584	43975.35
451.791	45447.84
451.997	45077.16
452.203	45869.72
452.409	45869.72
452.615	45572.77
452.821	44182.2
453.027	43903.67
453.233	45583.01
453.44	44438.19
453.646	44833.45
453.852	45073.06
454.058	45820.57
454.264	43578.04
454.47	45091.49
454.676	43831.99
454.882	45376.16
455.088	41487.07
455.294	42369.74
455.5	42670.79
455.705	43246.27
455.911	41771.74
456.117	40809.19
456.323	40164.08
456.529	37894.93
456.735	40004.34
456.941	39142.14
457.147	38417.16
457.352	37344.03
457.558	36610.85
457.764	36770.6
457.97	35980.08
458.176	35849.01
458.381	35504.95
458.587	33651.54
458.793	33833.81
458.999	31873.9
459.204	34560.84
459.41	33317.72
459.616	31218.55
459.821	31294.33
460.027	30788.48
460.233	30124.94
460.438	28873.63
460.644	29176.73
460.85	27796.4
461.055	27612.08
461.261	27384.76
461.466	25471.95
461.672	24699.87
461.878	26575.81
462.083	24959.96
462.289	24581.09
462.494	23841.77
462.7	22957.05
462.905	22133.76
463.111	22889.46
463.316	23110.64
463.522	22443.01
463.727	22402.05
463.932	22477.82
464.138	22363.14
464.343	22551.55
464.549	21767.18
464.754	22574.08
464.959	22236.16
465.165	21879.82
465.37	21290
465.575	20761.62
465.781	21449.74
465.986	21705.74
466.191	20769.82
466.397	20298.78
466.602	19543.08
466.807	20237.34
467.012	19911.72
467.218	20024.36
467.423	19840.04
467.628	19772.46
467.833	20818.97
468.038	19995.68
468.244	19420.21
468.449	20136.99
468.654	19383.34
468.859	19272.75
469.064	19176.5
469.269	18492.48
469.474	18750.52
469.679	19010.61
469.885	18244.67
470.09	18840.63
470.295	18699.32
470.5	18193.47
470.705	18099.27
470.91	17757.25
471.115	17337.42
471.32	18177.09
471.525	17638.47
471.73	17288.27
471.935	17093.71
472.139	16671.83
472.344	17067.09
472.549	16976.98
472.754	16585.82
472.959	16200.8
473.164	15862.88
473.369	15578.22
473.574	16249.95
473.778	16122.98
473.983	15916.13
474.188	15819.88
474.393	15092.85
474.598	15197.29
474.802	15058.03
475.007	15180.91
475.212	15273.07
475.417	14572.66
475.621	14550.14
475.826	14584.95
476.031	14212.22
476.235	14148.73
476.44	14257.28
476.645	13622.41
476.849	13810.82
477.054	13884.55
477.259	13694.08
477.463	13802.63
477.668	13067.41
477.872	13401.22
478.077	12991.63
478.282	12866.7
478.486	12702.87
478.691	12831.89
478.895	12633.24
479.1	12655.76
479.304	12510.36
479.509	12156.06
479.713	12592.28
479.918	12104.86
480.122	12065.95
480.326	12139.68
480.531	12033.18
480.735	12024.99
480.94	11893.92
481.144	12223.64
481.348	11697.31
481.553	11758.75
481.757	11519.14
481.961	11725.99
482.166	11844.77
482.37	11756.71
482.574	11599.01
482.778	11584.68
482.983	11910.3
483.187	11508.9
483.391	11725.99
483.595	11697.31
483.8	11607.2
484.004	11826.34
484.208	11463.85
484.412	11447.46
484.616	11500.71
484.821	11447.46
485.025	11287.72
485.229	11570.34
485.433	11431.08
485.637	11568.29
485.841	11359.4
486.045	11381.93
486.249	11390.12
486.453	11338.92
486.657	11574.44
486.861	11662.5
487.065	11416.74
487.269	11644.07
487.473	11652.26
487.677	11599.01
487.881	11570.34
488.085	11271.34
488.289	11549.86
488.493	11476.13
488.697	11646.12
488.901	11605.16
489.105	11422.89
489.309	11519.14
489.512	11340.97
489.716	11918.5
489.92	11748.51
490.124	11789.47
490.328	11869.34
490.531	11949.21
490.735	11941.02
490.939	11803.81
491.143	11807.91
491.346	11768.99
491.55	11955.36
491.754	12119.2
491.958	12022.94
492.161	11963.55
492.365	12022.94
492.569	11994.27
492.772	12104.86
492.976	12190.88
493.18	12123.29
493.383	12485.78
493.587	12481.69
493.79	12502.17
493.994	12323.99
494.197	12704.92
494.401	12725.4
494.605	12764.31
494.808	12940.43
495.012	12749.97
495.215	13235.34
495.419	13083.79
495.622	12967.06
495.825	13208.72
496.029	13173.9
496.232	13622.41
496.436	13560.97
496.639	13728.9
496.843	13606.02
497.046	13853.83
497.249	14136.45
497.453	14077.05
497.656	14453.88
497.859	14310.52
498.063	14625.91
498.266	14691.45
498.469	14851.19
498.673	14836.85
498.876	15205.49
499.079	15309.93
499.282	15240.3
499.485	15527.02
499.689	15606.89
499.892	15957.09
500.095	16086.11
500.298	16356.44
500.501	15926.37
500.705	16673.88
500.908	16626.78
501.111	16825.43
501.314	17081.42
501.517	17138.77
501.72	17355.85
501.923	17470.54
502.126	18183.23
502.329	18181.18
502.532	18123.84
502.735	18232.38
502.938	18566.2
503.141	18668.6
503.344	18797.62
503.547	18789.43
503.75	19211.31
503.953	19579.95
504.156	19663.91
504.359	19682.35
504.562	19723.3
504.765	20444.19
504.968	20866.07
505.17	20573.21
505.373	20804.63
505.576	20980.76
505.779	21246.99
505.982	21478.41
506.185	21945.35
506.387	22107.14
506.59	21926.92
506.793	22385.66
506.996	22230.02
507.198	23243.76
507.401	22830.07
507.604	23077.88
507.807	23751.66
508.009	23813.1
508.212	23999.46
508.415	24181.73
508.617	24404.96
508.82	25146.33
509.022	24611.81
509.225	25600.97
509.428	25344.98
509.63	25471.95
509.833	25752.52
510.035	26072.01
510.238	25830.35
510.44	26457.03
510.643	26895.29
510.845	27286.45
511.048	26889.15
511.25	27663.28
511.453	27571.12
511.655	28623.78
511.858	28421.03
512.06	28726.17
512.262	28421.03
512.465	28767.13
512.667	29397.91
512.87	29584.27
513.072	29723.54
513.274	30258.06
513.477	30606.21
513.679	30436.23
513.881	30702.46
514.084	30913.41
514.286	31032.19
514.488	31286.14
514.69	32115.56
514.893	32144.23
515.095	32168.81
515.297	32686.95
515.499	33098.59
515.701	33342.3
515.904	33653.59
516.106	33829.71
516.308	34136.91
516.51	34382.66
516.712	34536.26
516.914	34845.51
517.116	35472.18
517.318	35558.2
517.52	35763
517.722	35763
517.925	36006.7
518.127	36461.35
518.329	36750.12
518.531	36885.28
518.733	37466.91
518.935	37503.77
519.136	37774.1
519.338	38261.52
519.54	38476.55
519.742	38802.18
519.944	38978.31
520.146	39271.17
520.348	39578.36
520.55	39744.25
520.752	39516.92
520.954	40354.54
521.155	40379.12
521.357	40985.32
521.559	41032.42
521.761	41593.56
521.963	41786.07
522.164	41902.81
522.366	41888.47
522.568	42404.56
522.77	42349.26
522.971	43295.42
523.173	43023.04
523.375	43078.34
523.576	43152.07
523.778	43201.22
523.98	43819.7
524.181	44409.52
524.383	44298.93
524.584	44386.99
524.786	44343.98
524.988	44530.35
525.189	45003.43
525.391	45183.65
525.592	46025.37
525.794	45656.73
525.995	45687.45
526.197	45687.45
526.398	46142.1
526.6	46031.51
526.801	46207.64
527.003	46641.81
527.204	46443.15
527.406	46754.44
527.607	46690.96
527.808	47450.75
528.01	46125.72
528.211	47053.45
528.412	47893.11
528.614	47637.12
528.815	47848.06
529.016	48067.19
529.218	47458.95
529.419	47872.63
529.62	47737.47
529.822	47723.13
530.023	47630.97
530.224	47794.81
530.425	47710.85
530.626	47903.35
530.828	47899.26
531.029	48999.02
531.23	48114.3
531.431	48370.29
531.632	48151.16
531.833	48583.28
532.035	48593.52
532.236	48018.04
532.437	48550.51
532.638	48450.16
532.839	48867.95
533.04	48710.25
533.241	47991.42
533.442	48894.57
533.643	48687.73
533.844	48599.66
534.045	48992.87
534.246	48153.21
534.447	48786.03
534.648	48591.47
534.849	49015.4
535.05	48558.7
535.251	48616.05
535.451	48685.68
535.652	48996.97
535.853	48300.66
536.054	48829.04
536.255	48853.61
536.456	48222.84
536.657	49267.3
536.857	48583.28
537.058	48624.24
537.259	49062.5
537.46	48935.53
537.66	48677.49
537.861	48720.49
538.062	48554.61
538.263	48786.03
538.463	48370.29
538.664	48693.87
538.865	48556.66
539.065	48706.16
539.266	48226.93
539.466	48657.01
539.667	47813.24
539.868	48773.74
540.068	48560.75
540.269	48720.49
540.469	48396.91
540.67	48423.54
540.87	48464.5
541.071	48657.01
541.271	48532.08
541.472	48296.56
541.672	48257.65
541.873	48362.1
542.073	47960.7
542.274	48288.37
542.474	48444.02
542.675	47616.64
542.875	48474.74
543.075	48102.01
543.276	47522.43
543.476	48286.32
543.676	48093.82
543.877	48210.55
544.077	48079.48
544.277	47997.56
544.478	47968.89
544.678	48032.38
544.878	47491.71
545.078	48212.6
545.279	47932.03
545.479	47559.3
545.679	48130.68
545.879	47821.44
546.079	48370.29
546.28	47981.18
546.48	47573.63
546.68	47991.42
546.88	47827.58
547.08	48059
547.28	47805.05
547.48	47225.48
547.68	47739.52
547.88	47391.36
548.081	47968.89
548.281	47557.25
548.481	47714.94
548.681	47751.8
548.881	47673.98
549.081	47530.62
549.28	47600.25
549.48	47819.39
549.68	47821.44
549.88	47966.84
550.08	47223.43
550.28	47690.37
550.48	47436.42
550.68	47649.41
550.88	46963.34
551.08	47493.76
551.279	47616.64
551.479	47118.98
551.679	47614.59
551.879	47323.78
552.079	47207.04
552.278	47571.58
552.478	47215.24
552.678	47049.35
552.878	47250.05
553.077	46951.05
553.277	46733.96
553.477	47524.48
553.676	47180.42
553.876	47004.3
554.076	46924.43
554.275	47037.06
554.475	46602.89
554.674	47014.54
554.874	46535.31
555.074	46625.42
555.273	46910.09
555.473	47442.56
555.672	46344.85
555.872	46496.4
556.071	46840.46
556.271	46834.31
556.47	46764.68
556.67	46234.26
556.869	46547.6
557.068	46371.47
557.268	45849.24
557.467	46105.24
557.667	46623.37
557.866	46457.49
558.065	46113.43
558.265	46391.95
558.464	46084.76
558.663	46336.66
558.863	45861.53
559.062	46639.76
559.261	45714.08
559.461	46164.63
559.66	45845.15
559.859	46359.19
560.058	45515.42
560.258	45752.99
560.457	45212.32
560.656	45589.15
560.855	45693.6
561.054	45601.44
561.253	44991.14
561.453	45028.01
561.652	45167.27
561.851	45195.94
562.05	45087.4
562.249	45056.68
562.448	45476.51
562.647	45028.01
562.846	45044.39
563.045	44901.03
563.244	44583.6
563.443	45355.68
563.642	44337.84
563.841	44540.59
564.04	44270.26
564.239	44577.45
564.438	44372.66
564.637	44493.49
564.836	44479.15
565.035	43686.59
565.234	44219.06
565.432	43961.01
565.631	44128.95
565.83	43684.54
566.029	44075.7
566.228	43561.66
566.427	43510.46
566.625	43717.31
566.824	43651.77
567.023	44182.2
567.222	42748.62
567.42	43758.27
567.619	43338.43
567.818	43123.4
568.016	42832.58
568.215	43512.51
568.414	42939.08
568.612	43764.41
568.811	42873.54
569.01	42904.26
569.208	42418.89
569.407	43281.09
569.605	42212.05
569.804	42775.24
570.002	42349.26
570.201	42154.71
570.4	41837.27
570.598	41941.72
570.797	41743.06
570.995	42255.06
571.193	41585.37
571.392	42003.16
571.59	41562.84
571.789	41611.99
571.987	41726.68
572.186	41691.87
572.384	41470.68
572.582	41564.89
572.781	41638.62
572.979	40811.24
573.177	41177.82
573.376	41255.65
573.574	40604.39
573.772	41085.67
573.971	40805.09
574.169	40317.68
574.367	40596.2
574.565	40727.27
574.763	40309.49
574.962	40076.02
575.16	40045.3
575.358	40430.32
575.556	39920.37
575.754	40428.27
575.952	39389.95
576.151	40184.56
576.349	39406.33
576.547	39738.1
576.745	39406.33
576.943	39525.11
577.141	39080.7
577.339	39228.16
577.537	39232.25
577.735	39262.97
577.933	38779.65
578.131	39123.71
578.329	38738.69
578.527	38271.76
578.725	38787.85
578.923	38695.69
579.121	38597.38
579.319	38509.32
579.516	38558.47
579.714	38396.68
579.912	38071.06
580.11	38400.78
580.308	37753.62
580.506	37997.33
580.704	37524.25
580.901	38001.43
581.099	38191.89
581.297	37198.62
581.495	37405.47
581.692	37694.23
581.89	36905.76
582.088	37776.15
582.285	36819.75
582.483	37497.63
582.681	37075.74
582.878	36719.4
583.076	36594.47
583.274	36950.82
583.471	36426.54
583.669	36256.56
583.866	36840.23
584.064	36447.02
584.262	35869.49
584.459	36444.97
584.657	36297.52
584.854	36277.04
585.052	35291.96
585.249	35834.67
585.447	36096.81
585.644	35285.82
585.841	35730.23
586.039	36037.42
586.236	35181.37
586.434	35099.45
586.631	35072.83
586.828	35269.44
587.026	35328.83
587.223	35009.34
587.42	34673.48
587.618	35023.68
587.815	34442.06
588.012	34579.27
588.21	34190.16
588.407	34616.13
588.604	34052.94
588.801	34124.62
588.999	33971.02
589.196	34474.82
589.393	34073.42
589.59	33948.5
589.787	33311.58
589.984	33690.45
590.182	33448.79
590.379	33557.33
590.576	33418.07
590.773	33145.69
590.97	33502.04
591.167	32951.13
591.364	32787.3
591.561	33407.83
591.758	32799.58
591.955	32762.72
592.152	32688.99
592.349	32377.7
592.546	32381.8
592.743	32584.55
592.94	32068.46
593.137	32207.72
593.334	32570.21
593.531	31699.83
593.727	31935.34
593.924	31693.68
594.121	31347.58
594.318	31939.44
594.515	31570.8
594.712	31603.57
594.908	30940.03
595.105	31415.16
595.302	31087.48
595.499	31552.37
595.696	31234.94
595.892	30899.07
596.089	30786.43
596.286	30888.83
596.482	30843.77
596.679	30503.81
596.876	30952.32
597.072	30104.46
597.269	30659.46
597.466	30213
597.662	30487.43
597.859	29924.24
598.055	30276.49
598.252	29895.57
598.448	29758.35
598.645	29653.9
598.841	29707.15
599.038	29602.71
599.234	29354.9
599.431	29373.33
599.627	29338.52
599.824	29469.59
600.02	28875.68
600.217	29375.38
600.413	28990.36
600.609	28504.99
600.806	28820.38
601.002	29209.5
601.198	28666.78
601.395	28619.68
601.591	28416.93
601.787	28478.37
601.984	27890.6
602.18	28398.5
602.376	28300.2
602.572	28117.93
602.769	28265.38
602.965	27939.76
603.161	27911.08
603.357	27616.18
603.553	27726.77
603.75	27616.18
603.946	27489.2
604.142	27513.78
604.338	27198.39
604.534	27442.1
604.73	27165.62
604.926	26948.54
605.122	27087.8
605.318	26840
605.514	26643.39
605.71	26776.51
605.906	26844.09
606.102	26506.18
606.298	26663.87
606.494	26598.34
606.69	26700.73
606.886	26749.89
607.082	26000.33
607.278	26141.64
607.474	25951.18
607.67	26168.26
607.866	25945.03
608.062	26160.07
608.257	25850.83
608.453	25979.85
608.649	25664.46
608.845	25703.37
609.041	25762.76
609.236	25801.68
609.432	25463.76
609.628	25668.56
609.824	25297.88
610.019	25379.79
610.215	25514.96
610.411	25594.83
610.606	25295.83
610.802	25312.21
610.998	25088.98
611.193	25189.33
611.389	24982.49
611.584	25078.74
611.78	24724.44
611.976	25033.69
612.171	25199.57
612.367	24953.82
612.562	24726.49
612.758	24835.03
612.953	24544.22
613.149	24658.91
613.344	24509.41
613.539	25228.24
613.735	24949.72
613.93	24660.96
614.126	24077.29
614.321	24738.78
614.517	24493.02
614.712	24407.01
614.907	24339.43
615.103	24247.27
615.298	24187.88
615.493	24572.89
615.688	24265.7
615.884	24513.5
616.079	23739.37
616.274	24048.61
616.47	24007.65
616.665	23944.17
616.86	23696.36
617.055	23915.5
617.25	23669.74
617.445	23817.19
617.641	23553.01
617.836	23677.93
618.031	23196.66
618.226	23837.67
618.421	23194.61
618.616	23901.16
618.811	22801.4
619.006	23161.84
619.201	22885.37
619.396	23204.85
619.591	22678.52
619.786	22893.56
619.981	22619.13
620.176	22780.92
620.371	22356.99
620.566	22488.06
620.761	22199.3
620.956	22232.07
621.151	21883.91
621.346	21931.01
621.541	21625.87
621.735	22283.27
621.93	21419.02
622.125	21527.56
622.32	21386.26
622.515	21427.21
622.709	21210.13
622.904	21343.25
623.099	20847.64
623.294	20892.69
623.488	20872.21
623.683	20720.67
623.878	20429.85
624.072	20536.35
624.267	20599.83
624.462	20384.8
624.656	20128.8
624.851	20390.94
625.046	20087.84
625.24	20180
625.435	19551.28
625.629	19917.86
625.824	19553.32
626.018	19561.51
626.213	18981.94
626.407	19452.97
626.602	19020.85
626.796	19354.67
626.991	19010.61
627.185	18773.05
627.38	18877.49
627.574	18662.46
627.768	18365.5
627.963	18414.65
628.157	18099.27
628.352	18457.66
628.546	18134.08
628.74	18205.76
628.935	17941.57
629.129	18111.55
629.323	17642.57
629.517	17685.58
629.712	17634.38
629.906	17615.94
630.1	17259.6
630.294	17429.58
630.489	17218.64
630.683	17034.32
630.877	16921.68
631.071	16942.16
631.265	16899.16
631.459	16739.41
631.653	16751.7
631.848	16579.67
632.042	16319.58
632.236	16698.45
632.43	16370.78
632.624	16307.29
632.818	16202.85
633.012	16366.68
633.206	15830.12
633.4	15996
633.594	15633.51
633.788	15819.88
633.982	15686.76
634.176	15801.44
634.369	15754.34
634.563	15651.94
634.757	15080.56
634.951	15481.96
635.145	15363.18
635.339	15391.85
635.533	15084.66
635.726	15258.73
635.92	14969.97
636.114	14752.88
636.308	14587
636.501	14824.56
636.695	14351.48
636.889	14636.15
637.083	14539.9
637.276	14509.18
637.47	14300.28
637.664	14306.43
637.857	14351.48
638.051	14138.49
638.244	13952.13
638.438	14185.6
638.632	14011.52
638.825	13915.26
639.019	13565.06
639.212	13718.66
639.406	13558.92
639.599	13247.63
639.793	13667.46
639.986	13370.51
640.18	13384.84
640.373	13374.6
640.567	12944.53
640.76	13016.21
640.954	13180.04
641.147	12934.29
641.34	12754.07
641.534	12958.86
641.727	12823.7
641.92	12897.42
642.114	12657.81
642.307	12803.22
642.5	12485.78
642.694	12231.83
642.887	12389.53
643.08	12627.09
643.273	12221.59
643.467	12176.54
643.66	12049.57
643.853	12082.33
644.046	11959.45
644.239	11738.27
644.432	11551.91
644.626	11549.86
644.819	11730.08
645.012	11594.92
645.205	11660.45
645.398	11510.95
645.591	11482.28
645.784	11549.86
645.977	11183.27
646.17	11224.23
646.363	11371.69
646.556	11152.56
646.749	11017.39
646.942	11285.67
647.135	11060.4
647.328	11173.03
647.521	10980.53
647.714	10835.12
647.907	10863.79
648.099	10751.15
648.292	10460.34
648.485	10597.56
648.678	10532.02
648.871	10489.01
649.064	10421.43
649.256	10370.23
649.449	10177.72
649.642	10378.42
649.835	10288.31
650.027	10106.04
650.22	10216.63
650.413	10042.56
650.605	10271.93
650.798	9903.29
650.991	9831.62
651.183	9811.14
651.376	9792.7
651.568	9766.08
651.761	9559.24
651.954	9594.05
652.146	9602.24
652.339	9649.35
652.531	9632.96
652.724	9460.93
652.916	9608.39
653.109	9385.16
653.301	9485.51
653.494	9190.6
653.686	9108.68
653.879	9280.71
654.071	9176.27
654.263	9108.68
654.456	9026.76
654.648	9100.49
654.84	8725.71
655.033	8934.6
655.225	8864.97
655.417	8944.84
655.61	8867.02
655.802	8711.38
655.994	8588.5
656.186	8785.1
656.379	8604.88
656.571	8637.65
656.763	8352.98
656.955	8226.01
657.148	8594.64
657.34	8439
657.532	8180.95
657.724	8326.36
657.916	8445.14
658.108	8355.03
658.3	8066.27
658.492	8150.23
658.684	8150.23
658.876	7961.82
659.068	7906.52
659.26	7974.11
659.452	7998.68
659.644	7922.91
659.836	7666.91
660.028	7781.6
660.22	7732.45
660.412	7752.93
660.604	7648.48
660.796	7611.62
660.988	7468.26
661.18	7632.1
661.372	7484.64
661.563	7406.82
661.755	7421.16
661.947	7380.2
662.139	7503.07
662.331	7234.79
662.522	7175.4
662.714	7177.45
662.906	7128.3
663.097	7111.91
663.289	7003.37
663.481	6997.23
663.673	7111.91
663.864	7101.67
664.056	6866.16
664.247	6948.08
664.439	6880.49
664.631	6765.81
664.822	6864.11
665.014	6884.59
665.205	6808.81
665.397	6544.63
665.588	6636.78
665.78	6546.67
665.971	6470.9
666.163	6618.35
666.354	6528.24
666.546	6393.08
666.737	6501.62
666.929	6368.5
667.12	6483.19
667.311	6419.7
667.503	6391.03
667.694	6431.99
667.885	6395.12
668.077	6317.3
668.268	6190.33
668.459	6130.94
668.651	6118.65
668.842	6026.49
669.033	6192.37
669.224	5934.33
669.416	6159.61
669.607	5946.62
669.798	6042.87
669.989	5932.28
670.18	5844.22
670.371	5963
670.563	5860.6
670.754	5905.66
670.945	5733.63
671.136	5930.23
671.327	5774.59
671.518	5774.59
671.709	5571.84
671.9	5551.36
672.091	5717.25
672.282	5534.98
672.473	5676.29
672.664	5668.09
672.855	5694.72
673.046	5491.97
673.237	5580.03
673.428	5565.7
673.619	5610.75
673.809	5397.76
674	5295.36
674.191	5455.11
674.382	5358.85
674.573	5446.91
674.764	5217.54
674.954	5432.58
675.145	5268.74
675.336	5471.49
675.527	5256.45
675.717	5197.06
675.908	5219.59
676.099	5221.64
676.289	5262.6
676.48	5188.87
676.671	5055.75
676.861	5106.95
677.052	5129.48
677.243	5033.22
677.433	5043.46
677.624	5059.85
677.814	4957.45
678.005	5100.81
678.195	5139.72
678.386	4992.27
678.576	4869.39
678.767	5047.56
678.957	4859.15
679.148	4881.67
679.338	4893.96
679.529	4885.77
679.719	4840.72
679.909	4947.21
680.1	4859.15
680.29	4797.71
680.481	4678.93
680.671	4742.41
680.861	4678.93
681.052	4652.3
681.242	4623.63
681.432	4844.81
681.622	4531.47
681.813	4584.72
682.003	4476.18
682.193	4603.15
682.383	4744.46
682.573	4523.28
682.764	4586.77
682.954	4549.9
683.144	4644.11
683.334	4422.93
683.524	4556.05
683.714	4672.78
683.904	4441.36
684.094	4482.32
684.284	4295.96
684.474	4517.14
684.664	4330.77
684.854	4267.28
685.044	4386.07
685.234	4240.66
685.424	4414.74
685.614	4252.95
685.804	4324.63
685.994	4347.15
686.184	4312.34
686.374	4173.08
686.564	4177.17
686.753	4191.51
686.943	4168.98
687.133	4164.89
687.323	4201.75
687.513	4087.06
687.702	4144.41
687.892	4031.77
688.082	4037.91
688.272	4105.49
688.461	4023.58
688.651	3984.66
688.841	3923.23
689.03	3902.75
689.22	3960.09
689.41	3923.23
689.599	3999
689.789	3999
689.979	3841.31
690.168	3917.08
690.358	3804.44
690.547	3745.05
690.737	3837.21
690.926	3730.72
691.116	3808.54
691.305	3689.76
691.495	3816.73
691.684	3650.85
691.874	3826.97
692.063	3800.35
692.252	3761.44
692.442	3722.52
692.631	3720.48
692.82	3738.91
693.01	3681.57
693.199	3611.93
693.388	3509.54
693.578	3587.36
693.767	3620.13
693.956	3425.57
694.146	3622.17
694.335	3577.12
694.524	3407.14
694.713	3376.42
694.902	3534.11
695.092	3450.14
695.281	3480.86
695.47	3400.99
695.659	3378.47
695.848	3339.55
696.037	3255.59
696.226	3310.88
696.415	3357.99
696.604	3370.27
696.793	3415.33
696.982	3349.79
697.171	3349.79
697.36	3341.6
697.549	3298.59
697.738	3257.64
697.927	3251.49
698.116	3140.9
698.305	3251.49
698.494	3218.72
698.683	3290.4
698.872	3296.55
699.061	3271.97
699.25	3161.38
699.438	3329.31
699.627	3048.74
699.816	3280.16
700.005	3140.9
700.193	3095.85
700.382	3294.5
700.571	3181.86
700.76	3091.75
700.948	3226.92
701.137	3147.05
701.326	3147.05
701.514	3063.08
701.703	3083.56
701.892	3155.24
702.08	3097.89
702.269	3054.89
702.457	3046.69
702.646	3099.94
702.834	3063.08
703.023	3124.52
703.212	3104.04
703.4	2966.82
703.589	3038.5
703.777	3007.78
703.965	2999.59
704.154	2987.3
704.342	2983.21
704.531	3013.93
704.719	2972.97
704.907	2903.34
705.096	2929.96
705.284	3013.93
705.472	3038.5
705.661	2901.29
705.849	2907.43
706.037	2948.39
706.226	2901.29
706.414	2981.16
706.602	2862.38
706.79	2886.95
706.979	2923.82
707.167	2882.86
707.355	2919.72
707.543	2854.19
707.731	2956.58
707.919	2985.26
708.107	2739.5
708.296	2893.1
708.484	2891.05
708.672	2768.17
708.86	2833.71
709.048	2757.93
709.236	2755.88
709.424	2768.17
709.612	2745.64
709.8	2759.98
709.988	2565.42
710.176	2665.77
710.364	2757.93
710.551	2688.3
710.739	2719.02
710.927	2759.98
711.115	2721.07
711.303	2635.05
711.491	2710.83
711.679	2755.88
711.866	2620.72
712.054	2782.51
712.242	2698.54
712.43	2710.83
712.617	2590
712.805	2628.91
712.993	2557.23
713.181	2598.19
713.368	2637.1
713.556	2780.46
713.744	2542.89
713.931	2659.63
714.119	2706.73
714.306	2704.68
714.494	2514.22
714.682	2612.53
714.869	2512.17
715.057	2585.9
715.244	2581.81
715.432	2585.9
715.619	2448.69
715.807	2606.38
715.994	2575.66
716.182	2534.7
716.369	2538.8
716.556	2579.76
716.744	2473.26
716.931	2522.41
717.119	2536.75
717.306	2536.75
717.493	2538.8
717.681	2587.95
717.868	2391.34
718.055	2493.74
718.242	2456.88
718.43	2495.79
718.617	2481.46
718.804	2436.4
718.991	2383.15
719.179	2399.54
719.366	2385.2
719.553	2475.31
719.74	2473.26
719.927	2389.3
720.114	2385.2
720.301	2456.88
720.488	2512.17
720.676	2327.86
720.863	2336.05
721.05	2399.54
721.237	2368.82
721.424	2311.47
721.611	2399.54
721.798	2319.67
721.985	2383.15
722.172	2256.18
722.358	2342.19
722.545	2321.71
722.732	2346.29
722.919	2288.95
723.106	2229.56
723.293	2368.82
723.48	2282.8
723.667	2391.34
723.853	2297.14
724.04	2368.82
724.227	2280.75
724.414	2260.27
724.6	2219.32
724.787	2227.51
724.974	2256.18
725.161	2186.55
725.347	2305.33
725.534	2336.05
725.72	2211.12
725.907	2196.79
726.094	2227.51
726.28	2178.36
726.467	2129.2
726.653	2336.05
726.84	2245.94
727.027	2344.24
727.213	2168.12
727.4	2219.32
727.586	2172.21
727.773	2149.68
727.959	2106.68
728.145	2094.39
728.332	2096.44
728.518	2139.44
728.705	2217.27
728.891	2104.63
729.077	2286.9
729.264	2161.97
729.45	2147.64
729.636	2100.53
729.823	2243.89
730.009	2053.43
730.195	2149.68
730.382	2108.73
730.568	2182.45
730.754	2096.44
730.94	2106.68
731.126	2125.11
731.313	2110.77
731.499	2174.26
731.685	2022.71
731.871	2200.88
732.057	2104.63
732.243	2118.97
732.429	2030.9
732.615	2032.95
732.801	2104.63
732.987	2247.99
733.173	2014.52
733.359	2065.72
733.545	2030.9
733.731	1860.92
733.917	1951.03
734.103	2055.48
734.289	2061.62
734.475	1973.56
734.661	1989.94
734.847	1858.87
735.033	2000.18
735.219	1942.84
735.404	1994.04
735.59	1963.32
735.776	1932.6
735.962	2075.96
736.148	1953.08
736.333	1860.92
736.519	1998.13
736.705	1977.66
736.89	1944.89
737.076	1967.42
737.262	1973.56
737.447	1924.41
737.633	1899.83
737.819	1948.98
738.004	1817.91
738.19	1817.91
738.375	1969.46
738.561	1910.07
738.747	1850.68
738.932	1887.54
739.118	1987.89
739.303	1887.54
739.489	2051.38
739.674	1854.78
739.859	1869.11
740.045	1770.81
740.23	1867.06
740.416	1803.58
740.601	1754.43
740.786	1842.49
740.972	1795.39
741.157	1879.35
741.342	1834.3
741.528	1731.9
741.713	1910.07
741.898	1666.36
742.084	1727.8
742.269	1727.8
742.454	1703.23
742.639	1809.72
742.824	1760.57
743.01	1731.9
743.195	1746.23
743.38	1723.71
743.565	1746.23
743.75	1621.31
743.935	1656.12
744.12	1768.76
744.305	1660.22
744.49	1584.45
744.675	1705.28
744.86	1580.35
745.045	1662.27
745.23	1621.31
745.415	1633.6
745.6	1641.79
745.785	1537.34
745.97	1625.4
746.155	1525.05
746.34	1600.83
746.525	1506.62
746.71	1584.45
746.895	1492.29
747.079	1408.32
747.264	1482.05
747.449	1443.14
747.634	1500.48
747.819	1637.69
748.003	1436.99
748.188	1482.05
748.373	1482.05
748.557	1414.46
748.742	1518.91
748.927	1480
749.111	1383.74
749.296	1502.53
749.481	1418.56
749.665	1457.47
749.85	1424.7
750.034	1430.85
750.219	1391.94
750.404	1342.78
750.588	1359.17
750.773	1400.13
750.957	1301.83
751.141	1260.87
751.326	1324.35
751.51	1273.15
751.695	1217.86
751.879	1289.54
752.064	1305.92
752.248	1269.06
752.432	1412.42
752.617	1312.07
752.801	1303.87
752.985	1258.82
753.17	1236.29
753.354	1236.29
753.538	1297.73
753.722	1211.71
753.907	1164.61
754.091	1107.27
754.275	1199.43
754.459	1140.04
754.643	1191.24
754.828	1185.09
755.012	1230.15
755.196	1158.47
755.38	1181
755.564	1172.8
755.748	1097.03
755.932	1049.93
756.116	1154.37
756.3	1131.84
756.484	1049.93
756.668	1107.27
756.852	1035.59
757.036	1115.46
757.22	1076.55
757.404	1019.21
757.588	953.67
757.772	1031.49
757.956	1015.11
758.14	1015.11
758.323	914.76
758.507	1068.36
758.691	1039.69
758.875	1060.17
759.059	945.48
759.242	990.53
759.426	968.01
759.61	949.57
759.794	900.42
759.977	927.05
760.161	957.77
760.345	968.01
760.528	978.25
760.712	875.85
760.895	814.41
761.079	873.8
761.263	935.24
761.446	925
761.63	994.63
761.813	959.81
761.997	820.55
762.18	853.32
762.364	945.48
762.547	843.08
762.731	857.42
762.914	943.43
763.098	992.58
763.281	861.51
763.464	744.78
763.648	853.32
763.831	785.74
764.015	802.12
764.198	806.22
764.381	814.41
764.564	943.43
764.748	800.07
764.931	875.85
765.114	822.6
765.297	851.27
765.481	830.79
765.664	755.02
765.847	730.44
766.03	826.7
766.213	820.55
766.397	834.89
766.58	781.64
766.763	748.87
766.946	820.55
767.129	769.35
767.312	843.08
767.495	795.98
767.678	789.83
767.861	793.93
768.044	769.35
768.227	808.27
768.41	720.2
768.593	771.4
768.776	826.7
768.959	728.39
769.142	714.06
769.324	701.77
769.507	763.21
769.69	785.74
769.873	654.67
770.056	654.67
770.239	638.28
770.421	746.83
770.604	662.86
770.787	714.06
770.97	572.75
771.152	761.16
771.335	755.02
771.518	695.63
771.7	748.87
771.883	656.72
772.066	691.53
772.248	726.35
772.431	621.9
772.613	648.52
772.796	681.29
772.978	597.32
773.161	718.15
773.343	687.43
773.526	613.71
773.708	597.32
773.891	576.84
774.073	576.84
774.256	615.76
774.438	642.38
774.621	654.67
774.803	638.28
774.985	621.9
775.168	716.11
775.35	654.67
775.532	673.1
775.715	656.72
775.897	550.22
776.079	638.28
776.261	589.13
776.444	658.76
776.626	589.13
776.808	525.65
776.99	527.69
777.173	531.79
777.355	599.37
777.537	628.04
777.719	519.5
777.901	531.79
778.083	535.89
778.265	585.04
778.447	515.41
778.629	523.6
778.811	517.45
778.993	451.92
779.175	517.45
779.357	468.3
779.539	466.25
779.721	484.69
779.903	429.39
780.085	451.92
780.267	458.06
780.449	451.92
780.631	474.45
780.812	431.44
780.994	527.69
781.176	501.07
781.358	533.84
781.54	482.64
781.721	482.64
781.903	445.77
782.085	488.78
782.267	441.68
782.448	417.1
782.63	449.87
782.812	462.16
782.993	415.06
783.175	488.78
783.357	431.44
783.538	359.76
783.72	384.34
783.901	435.53
784.083	441.68
784.264	400.72
784.446	392.53
784.627	245.07
784.809	386.38
784.99	345.42
785.172	390.48
785.353	490.83
785.535	449.87
785.716	386.38
785.897	363.86
786.079	408.91
786.26	367.95
786.441	304.46
786.623	304.46
786.804	413.01
786.985	343.38
787.167	396.62
787.348	216.4
787.529	353.62
787.71	335.18
787.891	406.86
788.073	320.85
788.254	290.13
788.435	384.34
788.616	355.66
788.797	279.89
788.978	326.99
789.159	308.56
789.34	277.84
789.522	306.51
789.703	269.65
789.884	304.46
790.065	441.68
790.246	351.57
790.427	320.85
790.607	376.14
790.788	288.08
790.969	296.27
791.15	288.08
791.331	283.98
791.512	326.99
791.693	367.95
791.874	232.79
792.054	337.23
792.235	316.75
792.416	265.55
792.597	294.22
792.778	308.56
792.958	255.31
793.139	310.61
793.32	279.89
793.5	157.01
793.681	298.32
793.862	269.65
794.042	245.07
794.223	261.46
794.404	265.55
794.584	175.44
794.765	200.02
794.945	236.88
795.126	228.69
795.306	302.42
795.487	238.93
795.667	255.31
795.848	255.31
796.028	210.26
796.209	222.55
796.389	271.7
796.57	255.31
796.75	163.15
796.93	261.46
797.111	249.17
797.291	304.46
797.471	247.12
797.652	228.69
797.832	247.12
798.012	238.93
798.192	220.5
798.373	216.4
798.553	255.31
798.733	200.02
798.913	232.79
799.093	181.59
799.274	208.21
799.454	187.73
799.634	265.55
799.814	197.97
799.994	249.17
800.174	204.11
800.354	249.17
800.534	189.78
800.714	163.15
800.894	181.59
801.074	173.39
801.254	140.63
801.434	226.64
801.614	140.63
801.794	206.16
801.974	732.49
802.154	146.77
802.334	177.49
802.514	167.25
802.693	236.88
802.873	208.21
803.053	197.97
803.233	204.11
803.413	189.78
803.592	179.54
803.772	204.11
803.952	224.59
804.131	146.77
804.311	122.2
804.491	210.26
804.67	128.34
804.85	146.77
805.03	177.49
805.209	200.02
805.389	200.02
805.568	179.54
805.748	130.39
805.928	228.69
806.107	208.21
806.287	165.2
806.466	134.48
806.646	206.16
806.825	245.07
807.004	165.2
807.184	195.92
807.363	140.63
807.543	163.15
807.722	187.73
807.901	150.87
808.081	195.92
808.26	75.09
808.439	142.68
808.619	165.2
808.798	167.25
808.977	195.92
809.156	132.44
809.336	224.59
809.515	177.49
809.694	142.68
809.873	154.96
810.052	169.3
810.231	167.25
810.411	173.39
810.59	159.06
810.769	124.24
810.948	154.96
811.127	138.58
811.306	136.53
811.485	212.31
811.664	218.45
811.843	124.24
812.022	144.72
812.201	165.2
812.38	269.65
812.559	93.52
812.737	273.75
812.916	124.24
813.095	130.39
813.274	114
813.453	157.01
813.632	136.53
813.811	64.85
813.989	99.67
814.168	171.35
814.347	118.1
814.526	146.77
814.704	179.54
814.883	132.44
815.062	89.43
815.24	122.2
815.419	54.61
815.598	99.67
815.776	85.33
815.955	42.32
816.133	83.28
816.312	122.2
816.49	89.43
816.669	85.33
816.847	116.05
817.026	154.96
817.204	114
817.383	89.43
817.561	83.28
817.74	142.68
817.918	105.81
818.097	97.62
818.275	89.43
818.453	157.01
818.632	54.61
818.81	140.63
818.988	91.48
819.167	85.33
819.345	44.37
819.523	105.81
819.701	99.67
819.879	101.72
820.058	124.24
820.236	68.95
820.414	56.66
820.592	130.39
820.77	58.71
820.948	58.71
821.127	114
821.305	83.28
821.483	56.66
821.661	204.11
821.839	97.62
822.017	89.43
822.195	48.47
822.373	-4.78
822.551	142.68
822.729	111.96
822.907	124.24
823.085	134.48
823.262	17.75
823.44	68.95
823.618	114
823.796	77.14
823.974	56.66
824.152	89.43
824.329	15.7
824.507	83.28
824.685	130.39
824.863	130.39
825.04	58.71
825.218	97.62
825.396	122.2
825.574	105.81
825.751	58.71
825.929	148.82
826.107	83.28
826.284	120.15
826.462	122.2
826.639	140.63
826.817	105.81
826.994	105.81
827.172	48.47
827.349	122.2
827.527	42.32
827.704	34.13
827.882	64.85
828.059	68.95
828.237	116.05
828.414	132.44
828.591	11.61
828.769	36.18
828.946	25.94
829.124	46.42
829.301	107.86
829.478	58.71
829.655	36.18
829.833	32.08
830.01	21.85
830.187	64.85
830.364	-6.83
830.542	107.86
830.719	56.66
830.896	97.62
831.073	23.89
831.25	58.71
831.427	56.66
831.604	122.2
831.782	-17.07
831.959	134.48
832.136	114
832.313	68.95
832.49	89.43
832.667	99.67
832.844	50.52
833.021	89.43
833.198	52.56
833.374	64.85
833.551	148.82
833.728	50.52
833.905	73.04
834.082	85.33
834.259	58.71
834.436	126.29
834.612	32.08
834.789	40.28
834.966	89.43
835.143	25.94
835.319	23.89
835.496	83.28
835.673	52.56
835.85	87.38
836.026	9.56
836.203	62.8
836.38	21.85
836.556	58.71
836.733	-23.21
836.909	97.62
837.086	3.41
837.262	-45.74
837.439	73.04
837.616	40.28
837.792	-2.73
837.968	52.56
838.145	-21.16
838.321	56.66
838.498	-12.97
838.674	124.24
838.851	107.86
839.027	-41.64
839.203	101.72
839.38	79.19
839.556	-23.21
839.732	27.99
839.909	140.63
840.085	17.75
840.261	-76.46
840.437	75.09
840.614	64.85
840.79	118.1
840.966	30.04
841.142	81.24
841.318	46.42
841.494	30.04
841.671	56.66
841.847	17.75
842.023	11.61
842.199	58.71
842.375	48.47
842.551	27.99
842.727	79.19
842.903	144.72
843.079	27.99
843.255	89.43
843.431	56.66
843.607	19.8
843.783	-39.59
843.959	124.24
844.134	-4.78
844.31	54.61
844.486	17.75
844.662	15.7
844.838	48.47
845.013	73.04
845.189	107.86
845.365	81.24
845.541	7.51
845.716	32.08
845.892	87.38
846.068	66.9
846.244	-53.93
846.419	17.75
846.595	3.41
846.77	-6.83
846.946	17.75
847.122	126.29
847.297	9.56
847.473	89.43
847.648	5.46
847.824	-17.07
847.999	-33.45
848.175	64.85
848.35	32.08
848.526	64.85
848.701	19.8
848.876	77.14
849.052	95.57
849.227	-33.45
849.403	79.19
849.578	89.43
849.753	19.8
849.929	40.28
850.104	17.75
850.279	9.56
850.454	25.94
850.63	23.89
850.805	97.62
850.98	109.91
851.155	1.37
851.33	19.8
851.505	27.99
851.681	36.18
851.856	34.13
852.031	64.85
852.206	122.2
852.381	-64.17
852.556	-4.78
852.731	101.72
852.906	75.09
853.081	40.28
853.256	36.18
853.431	25.94
853.606	9.56
853.781	-39.59
853.956	-6.83
854.131	25.94
854.305	83.28
854.48	17.75
854.655	15.7
854.83	17.75
855.005	73.04
855.18	50.52
855.354	48.47
855.529	7.51
855.704	34.13
855.879	58.71
856.053	13.65
856.228	38.23
856.403	46.42
856.577	-17.07
856.752	-25.26
856.926	-21.16
857.101	79.19
857.276	-66.22
857.45	73.04
857.625	13.65
857.799	68.95
857.974	64.85
858.148	17.75
858.323	64.85
858.497	48.47
858.672	30.04
858.846	83.28
859.02	89.43
859.195	15.7
859.369	58.71
859.543	66.9
859.718	27.99
859.892	-25.26
860.066	19.8
860.241	13.65
860.415	40.28
860.589	-8.87
860.763	54.61
860.938	21.85
861.112	48.47
861.286	40.28
861.46	75.09
861.634	-4.78
861.808	97.62
861.982	-19.11
862.157	48.47
862.331	11.61
862.505	48.47
862.679	42.32
862.853	-4.78
863.027	-25.26
863.201	93.52
863.375	-25.26
863.549	1.37
863.722	81.24
863.896	48.47
864.07	-66.22
864.244	64.85
864.418	27.99
864.592	7.51
864.766	48.47
864.939	97.62
865.113	25.94
865.287	38.23
865.461	44.37
865.634	103.76
865.808	50.52
865.982	-8.87
866.156	1.37
866.329	-70.31
866.503	-6.83
866.676	-12.97
866.85	77.14
867.024	32.08
867.197	-4.78
867.371	44.37
867.544	-27.31
867.718	-6.83
867.891	77.14
868.065	-2.73
868.238	23.89
868.412	25.94
868.585	-45.74
868.759	32.08
868.932	36.18
869.105	27.99
869.279	46.42
869.452	-0.68
869.625	66.9
869.799	42.32
869.972	-15.02
870.145	-33.45
870.319	34.13
870.492	17.75
870.665	36.18
870.838	15.7
871.011	-33.45
871.185	9.56
871.358	7.51
871.531	-39.59
871.704	30.04
871.877	-17.07
872.05	5.46
872.223	9.56
872.396	40.28
872.569	38.23
872.742	-37.55
872.915	-29.35
873.088	48.47
873.261	-80.55
873.434	-17.07
873.607	30.04
873.78	25.94
873.953	-8.87
874.126	7.51
874.299	15.7
874.471	-41.64
874.644	23.89
874.817	75.09
874.99	89.43
875.163	-21.16
875.335	56.66
875.508	7.51
875.681	64.85
875.853	-0.68
876.026	36.18
876.199	27.99
876.371	3.41
876.544	-17.07
876.717	-33.45
876.889	-41.64
877.062	11.61
877.234	-47.79
877.407	62.8
877.579	-33.45
877.752	11.61
877.924	-33.45
878.097	101.72
878.269	17.75
878.442	7.51
878.614	30.04
878.786	25.94
878.959	-60.07
879.131	19.8
879.303	-8.87
879.476	-4.78
879.648	21.85
879.82	3.41
879.993	27.99
880.165	-12.97
880.337	-150.18
880.509	-19.11
880.681	64.85
880.854	-0.68
881.026	42.32
881.198	40.28
881.37	-0.68
881.542	11.61
881.714	36.18
881.886	3.41
882.058	3.41
882.23	58.71
882.402	-39.59
882.574	27.99
882.746	52.56
882.918	85.33
883.09	13.65
883.262	15.7
883.434	-4.78
883.606	75.09
883.778	40.28
883.95	38.23
884.122	3.41
884.293	60.76
884.465	-31.4
884.637	40.28
884.809	15.7
884.98	36.18
885.152	34.13
885.324	62.8
885.496	-4.78
885.667	1.37
885.839	42.32
886.011	3.41
886.182	-23.21
886.354	56.66
886.525	42.32
886.697	27.99
886.869	-17.07
887.04	66.9
887.212	32.08
887.383	-6.83
887.555	-0.68
887.726	-2.73
887.897	-37.55
888.069	21.85
888.24	7.51
888.412	19.8
888.583	-37.55
888.754	-6.83
888.926	-0.68
889.097	40.28
889.268	-64.17
889.44	17.75
889.611	9.56
889.782	-23.21
889.953	-27.31
890.125	-17.07
890.296	-64.17
890.467	-15.02
890.638	-4.78
890.809	-10.92
890.98	-6.83
891.151	-17.07
891.323	48.47
891.494	32.08
891.665	-60.07
891.836	-8.87
892.007	-25.26
892.178	-8.87
892.349	36.18
892.52	3.41
892.691	23.89
892.862	-58.03
893.032	-4.78
893.203	-55.98
893.374	-15.02
893.545	-8.87
893.716	-35.5
893.887	48.47
894.057	44.37
894.228	17.75
894.399	-0.68
894.57	58.71
894.74	-35.5
894.911	-72.36
895.082	77.14
895.253	-39.59
895.423	-31.4
895.594	40.28
895.764	-31.4
895.935	-39.59
896.106	52.56
896.276	-8.87
896.447	7.51
896.617	-55.98
896.788	-72.36
896.958	-0.68
897.129	-25.26
897.299	5.46
897.47	25.94
897.64	-8.87
897.81	-21.16
897.981	-0.68
898.151	-0.68
898.322	48.47
898.492	-8.87
898.662	7.51
898.832	-4.78
899.003	15.7
899.173	36.18
899.343	-17.07
899.513	-33.45
