Data from USB4F104151__85__14-17-50-344.txt Node

Date: Thu Mar 13 14:17:50 EDT 2025
User: louis
Spectrometer: USB4F10415
Trigger mode: 4
Integration Time (sec): 2.000000E-2
Scans to average: 1
Electric dark correction enabled: true
Nonlinearity correction enabled: false
Boxcar width: 0
XAxis mode: Wavelengths
Number of Pixels in Spectrum: 3648
>>>>>Begin Spectral Data<<<<<
178.204	-139.77
178.424	-139.77
178.644	-139.77
178.864	-166.4
179.084	-109.05
179.304	-49.66
179.524	40.45
179.744	-25.09
179.964	56.83
180.184	-20.99
180.404	-2.56
180.624	9.73
180.844	24.06
181.064	-39.42
181.283	-0.51
181.503	9.73
181.723	-2.56
181.943	-37.38
182.163	95.74
182.383	17.92
182.602	79.36
182.822	13.82
183.042	-35.33
183.262	56.83
183.482	22.02
183.701	-25.09
183.921	-2.56
184.141	19.97
184.361	-27.14
184.58	22.02
184.8	38.4
185.02	-45.57
185.239	32.26
185.459	13.82
185.679	13.82
185.898	-49.66
186.118	54.78
186.338	1.54
186.557	46.59
186.777	-23.04
186.997	-6.66
187.216	1.54
187.436	-39.42
187.655	79.36
187.875	11.78
188.095	-0.51
188.314	89.6
188.534	48.64
188.753	-68.09
188.973	34.3
189.192	-10.75
189.412	-8.7
189.631	32.26
189.851	-0.51
190.07	83.45
190.29	38.4
190.509	56.83
190.729	-55.81
190.948	58.88
191.168	40.45
191.387	-37.38
191.607	58.88
191.826	17.92
192.045	-2.56
192.265	-2.56
192.484	-27.14
192.704	-55.81
192.923	7.68
193.142	71.17
193.362	-6.66
193.581	54.78
193.8	40.45
194.02	58.88
194.239	38.4
194.458	-18.94
194.678	19.97
194.897	7.68
195.116	-59.9
195.335	30.21
195.555	-35.33
195.774	24.06
195.993	-82.43
196.212	-8.7
196.432	-23.04
196.651	-61.95
196.87	19.97
197.089	58.88
197.308	-49.66
197.528	30.21
197.747	19.97
197.966	-4.61
198.185	-47.62
198.404	-25.09
198.623	-31.23
198.842	56.83
199.062	128.51
199.281	-33.28
199.5	15.87
199.719	-10.75
199.938	103.93
200.157	17.92
200.376	-23.04
200.595	7.68
200.814	22.02
201.033	-78.33
201.252	-25.09
201.471	-18.94
201.69	-27.14
201.909	71.17
202.128	15.87
202.347	54.78
202.566	-68.09
202.785	-66.05
203.004	-29.18
203.223	30.21
203.442	97.79
203.661	-53.76
203.879	62.98
204.098	-10.75
204.317	-10.75
204.536	15.87
204.755	5.63
204.974	24.06
205.193	-8.7
205.411	69.12
205.63	50.69
205.849	32.26
206.068	-35.33
206.287	22.02
206.505	32.26
206.724	3.58
206.943	-2.56
207.162	-43.52
207.381	26.11
207.599	26.11
207.818	50.69
208.037	-18.94
208.255	-31.23
208.474	52.74
208.693	50.69
208.911	-33.28
209.13	-27.14
209.349	65.02
209.567	17.92
209.786	-4.61
210.005	22.02
210.223	5.63
210.442	-66.05
210.661	40.45
210.879	-59.9
211.098	24.06
211.316	52.74
211.535	19.97
211.753	-6.66
211.972	40.45
212.191	13.82
212.409	30.21
212.628	-8.7
212.846	7.68
213.065	-2.56
213.283	79.36
213.502	-20.99
213.72	-25.09
213.938	-115.2
214.157	-23.04
214.375	-20.99
214.594	-16.9
214.812	7.68
215.031	22.02
215.249	-55.81
215.467	58.88
215.686	3.58
215.904	36.35
216.122	-23.04
216.341	46.59
216.559	-4.61
216.778	40.45
216.996	13.82
217.214	-10.75
217.432	-18.94
217.651	-0.51
217.869	-25.09
218.087	-10.75
218.306	-2.56
218.524	-0.51
218.742	28.16
218.96	38.4
219.179	-6.66
219.397	38.4
219.615	62.98
219.833	40.45
220.051	54.78
220.27	40.45
220.488	28.16
220.706	-43.52
220.924	-10.75
221.142	-2.56
221.36	30.21
221.578	-8.7
221.796	62.98
222.015	-51.71
222.233	-78.33
222.451	146.94
222.669	-37.38
222.887	56.83
223.105	46.59
223.323	15.87
223.541	-51.71
223.759	-41.47
223.977	30.21
224.195	60.93
224.413	42.5
224.631	40.45
224.849	13.82
225.067	42.5
225.285	-23.04
225.503	5.63
225.721	-18.94
225.939	15.87
226.157	-23.04
226.375	79.36
226.592	-39.42
226.81	-39.42
227.028	54.78
227.246	73.21
227.464	58.88
227.682	-16.9
227.9	9.73
228.117	-0.51
228.335	-33.28
228.553	-10.75
228.771	36.35
228.989	-8.7
229.206	32.26
229.424	-2.56
229.642	38.4
229.86	-31.23
230.077	34.3
230.295	9.73
230.513	5.63
230.731	13.82
230.948	22.02
231.166	42.5
231.384	-18.94
231.601	-57.86
231.819	71.17
232.037	-0.51
232.254	5.63
232.472	89.6
232.689	-51.71
232.907	9.73
233.125	-2.56
233.342	22.02
233.56	-10.75
233.777	11.78
233.995	1.54
234.213	75.26
234.43	-23.04
234.648	7.68
234.865	7.68
235.083	26.11
235.3	-0.51
235.518	-27.14
235.735	108.03
235.953	40.45
236.17	-45.57
236.388	17.92
236.605	30.21
236.822	75.26
237.04	-18.94
237.257	5.63
237.475	5.63
237.692	24.06
237.909	-16.9
238.127	-10.75
238.344	-35.33
238.562	-16.9
238.779	-141.82
238.996	-25.09
239.214	32.26
239.431	22.02
239.648	-18.94
239.865	62.98
240.083	26.11
240.3	32.26
240.517	5.63
240.735	-4.61
240.952	-37.38
241.169	32.26
241.386	30.21
241.603	-2.56
241.821	79.36
242.038	26.11
242.255	-2.56
242.472	3.58
242.689	-27.14
242.907	9.73
243.124	71.17
243.341	40.45
243.558	15.87
243.775	-47.62
243.992	-55.81
244.209	36.35
244.426	40.45
244.643	-6.66
244.86	-0.51
245.078	-10.75
245.295	15.87
245.512	38.4
245.729	-2.56
245.946	3.58
246.163	-33.28
246.38	15.87
246.597	-39.42
246.814	22.02
247.031	-45.57
247.248	-0.51
247.464	-16.9
247.681	26.11
247.898	32.26
248.115	-16.9
248.332	-25.09
248.549	71.17
248.766	58.88
248.983	67.07
249.2	-33.28
249.417	42.5
249.633	9.73
249.85	-20.99
250.067	50.69
250.284	-35.33
250.501	38.4
250.717	24.06
250.934	22.02
251.151	-10.75
251.368	15.87
251.585	-2.56
251.801	-18.94
252.018	-109.05
252.235	-23.04
252.451	-27.14
252.668	46.59
252.885	79.36
253.102	22.02
253.318	-2.56
253.535	-2.56
253.752	-68.09
253.968	-6.66
254.185	32.26
254.401	38.4
254.618	-39.42
254.835	71.17
255.051	34.3
255.268	24.06
255.484	79.36
255.701	26.11
255.917	-0.51
256.134	-16.9
256.351	17.92
256.567	-10.75
256.784	32.26
257	-12.8
257.217	-10.75
257.433	30.21
257.65	38.4
257.866	58.88
258.082	-74.24
258.299	-6.66
258.515	67.07
258.732	-14.85
258.948	30.21
259.165	-4.61
259.381	105.98
259.597	75.26
259.814	-27.14
260.03	15.87
260.246	-31.23
260.463	13.82
260.679	32.26
260.895	81.41
261.112	-8.7
261.328	24.06
261.544	7.68
261.761	38.4
261.977	9.73
262.193	19.97
262.409	-2.56
262.626	40.45
262.842	65.02
263.058	-66.05
263.274	52.74
263.49	67.07
263.707	105.98
263.923	38.4
264.139	-20.99
264.355	46.59
264.571	71.17
264.787	26.11
265.004	24.06
265.22	22.02
265.436	-61.95
265.652	34.3
265.868	17.92
266.084	17.92
266.3	7.68
266.516	50.69
266.732	30.21
266.948	17.92
267.164	-43.52
267.38	5.63
267.596	-25.09
267.812	65.02
268.028	32.26
268.244	5.63
268.46	73.21
268.676	-72.19
268.892	-25.09
269.108	34.3
269.324	19.97
269.54	-47.62
269.756	-29.18
269.972	26.11
270.188	-57.86
270.403	-55.81
270.619	-25.09
270.835	87.55
271.051	62.98
271.267	-10.75
271.483	52.74
271.698	24.06
271.914	-0.51
272.13	54.78
272.346	-25.09
272.562	79.36
272.777	1.54
272.993	24.06
273.209	-16.9
273.425	42.5
273.64	-0.51
273.856	-18.94
274.072	-4.61
274.287	46.59
274.503	32.26
274.719	42.5
274.934	-35.33
275.15	48.64
275.366	1.54
275.581	3.58
275.797	17.92
276.012	22.02
276.228	30.21
276.444	-10.75
276.659	-35.33
276.875	7.68
277.09	56.83
277.306	13.82
277.521	22.02
277.737	-43.52
277.952	-55.81
278.168	22.02
278.383	5.63
278.599	-10.75
278.814	-41.47
279.03	-14.85
279.245	-27.14
279.461	58.88
279.676	38.4
279.892	13.82
280.107	-39.42
280.322	-23.04
280.538	79.36
280.753	-113.15
280.969	-39.42
281.184	-8.7
281.399	34.3
281.615	44.54
281.83	-6.66
282.045	-12.8
282.26	-33.28
282.476	-23.04
282.691	46.59
282.906	-6.66
283.122	24.06
283.337	5.63
283.552	9.73
283.767	34.3
283.983	-68.09
284.198	28.16
284.413	40.45
284.628	-2.56
284.843	67.07
285.058	89.6
285.274	44.54
285.489	-90.62
285.704	1.54
285.919	-10.75
286.134	60.93
286.349	-27.14
286.564	-2.56
286.779	32.26
286.995	48.64
287.21	40.45
287.425	44.54
287.64	-74.24
287.855	-10.75
288.07	-8.7
288.285	58.88
288.5	73.21
288.715	-39.42
288.93	-39.42
289.145	-0.51
289.36	-10.75
289.575	-33.28
289.79	46.59
290.004	-51.71
290.219	54.78
290.434	-8.7
290.649	-2.56
290.864	26.11
291.079	28.16
291.294	30.21
291.509	13.82
291.724	-45.57
291.938	-78.33
292.153	-35.33
292.368	9.73
292.583	13.82
292.798	-18.94
293.012	15.87
293.227	-10.75
293.442	46.59
293.657	-2.56
293.871	22.02
294.086	-8.7
294.301	-18.94
294.516	42.5
294.73	24.06
294.945	-23.04
295.16	17.92
295.374	3.58
295.589	95.74
295.804	9.73
296.018	62.98
296.233	24.06
296.447	9.73
296.662	-43.52
296.877	-10.75
297.091	3.58
297.306	7.68
297.52	-20.99
297.735	-27.14
297.949	13.82
298.164	-43.52
298.378	-82.43
298.593	62.98
298.807	-6.66
299.022	22.02
299.236	-14.85
299.451	-8.7
299.665	-8.7
299.88	87.55
300.094	-10.75
300.309	-39.42
300.523	108.03
300.737	-55.81
300.952	60.93
301.166	-18.94
301.381	-10.75
301.595	42.5
301.809	22.02
302.024	40.45
302.238	13.82
302.452	81.41
302.667	-14.85
302.881	5.63
303.095	17.92
303.309	62.98
303.524	5.63
303.738	-10.75
303.952	38.4
304.166	62.98
304.381	34.3
304.595	-2.56
304.809	38.4
305.023	17.92
305.237	-23.04
305.452	-0.51
305.666	-8.7
305.88	58.88
306.094	62.98
306.308	36.35
306.522	103.93
306.736	132.61
306.95	26.11
307.164	-18.94
307.379	50.69
307.593	79.36
307.807	-6.66
308.021	91.65
308.235	13.82
308.449	-25.09
308.663	52.74
308.877	99.84
309.091	3.58
309.305	46.59
309.519	-27.14
309.733	19.97
309.947	-10.75
310.161	-8.7
310.374	5.63
310.588	73.21
310.802	50.69
311.016	-55.81
311.23	54.78
311.444	56.83
311.658	-12.8
311.872	32.26
312.085	1.54
312.299	1.54
312.513	97.79
312.727	-27.14
312.941	-27.14
313.154	9.73
313.368	-18.94
313.582	-2.56
313.796	48.64
314.009	5.63
314.223	87.55
314.437	65.02
314.651	91.65
314.864	-14.85
315.078	-2.56
315.292	62.98
315.505	-4.61
315.719	42.5
315.933	-39.42
316.146	-43.52
316.36	-76.29
316.573	13.82
316.787	36.35
317.001	50.69
317.214	58.88
317.428	-25.09
317.641	17.92
317.855	22.02
318.068	-31.23
318.282	34.3
318.495	7.68
318.709	79.36
318.922	17.92
319.136	54.78
319.349	-18.94
319.563	-16.9
319.776	24.06
319.99	22.02
320.203	40.45
320.417	-14.85
320.63	17.92
320.843	26.11
321.057	-4.61
321.27	24.06
321.483	38.4
321.697	75.26
321.91	1.54
322.124	15.87
322.337	13.82
322.55	17.92
322.763	56.83
322.977	52.74
323.19	-37.38
323.403	11.78
323.617	-37.38
323.83	65.02
324.043	-10.75
324.256	-16.9
324.469	40.45
324.683	42.5
324.896	38.4
325.109	15.87
325.322	-49.66
325.535	62.98
325.748	-33.28
325.962	-10.75
326.175	48.64
326.388	15.87
326.601	-27.14
326.814	19.97
327.027	13.82
327.24	22.02
327.453	-31.23
327.666	13.82
327.879	81.41
328.092	40.45
328.305	67.07
328.518	9.73
328.731	42.5
328.944	46.59
329.157	62.98
329.37	13.82
329.583	-0.51
329.796	54.78
330.009	-49.66
330.222	13.82
330.435	19.97
330.648	87.55
330.861	7.68
331.073	87.55
331.286	24.06
331.499	15.87
331.712	54.78
331.925	17.92
332.138	28.16
332.35	69.12
332.563	46.59
332.776	40.45
332.989	22.02
333.202	30.21
333.414	26.11
333.627	17.92
333.84	13.82
334.053	89.6
334.265	48.64
334.478	-18.94
334.691	42.5
334.903	34.3
335.116	22.02
335.329	67.07
335.541	13.82
335.754	22.02
335.966	-51.71
336.179	32.26
336.392	15.87
336.604	-23.04
336.817	-18.94
337.029	15.87
337.242	65.02
337.454	62.98
337.667	-16.9
337.88	62.98
338.092	24.06
338.305	34.3
338.517	-29.18
338.729	120.32
338.942	34.3
339.154	7.68
339.367	26.11
339.579	24.06
339.792	71.17
340.004	-2.56
340.217	77.31
340.429	22.02
340.641	22.02
340.854	13.82
341.066	-6.66
341.278	24.06
341.491	40.45
341.703	44.54
341.915	30.21
342.128	22.02
342.34	-4.61
342.552	-31.23
342.764	-18.94
342.977	52.74
343.189	-86.53
343.401	28.16
343.613	-10.75
343.826	30.21
344.038	22.02
344.25	79.36
344.462	-35.33
344.674	48.64
344.886	44.54
345.099	28.16
345.311	-18.94
345.523	1.54
345.735	-18.94
345.947	-8.7
346.159	120.32
346.371	15.87
346.583	-76.29
346.795	128.51
347.007	-23.04
347.219	-14.85
347.431	-41.47
347.643	-35.33
347.855	-23.04
348.067	62.98
348.279	-23.04
348.491	-78.33
348.703	65.02
348.915	28.16
349.127	-10.75
349.339	58.88
349.551	54.78
349.763	79.36
349.975	-8.7
350.187	69.12
350.399	38.4
350.61	-2.56
350.822	1.54
351.034	11.78
351.246	95.74
351.458	1.54
351.669	44.54
351.881	46.59
352.093	38.4
352.305	32.26
352.517	-2.56
352.728	-18.94
352.94	112.13
353.152	103.93
353.363	-23.04
353.575	30.21
353.787	58.88
353.999	32.26
354.21	91.65
354.422	-18.94
354.633	13.82
354.845	-16.9
355.057	1.54
355.268	42.5
355.48	-18.94
355.692	13.82
355.903	26.11
356.115	62.98
356.326	30.21
356.538	87.55
356.749	62.98
356.961	58.88
357.172	-2.56
357.384	46.59
357.595	132.61
357.807	15.87
358.018	-33.28
358.23	17.92
358.441	93.69
358.653	19.97
358.864	46.59
359.075	-18.94
359.287	46.59
359.498	58.88
359.709	26.11
359.921	22.02
360.132	38.4
360.344	22.02
360.555	62.98
360.766	3.58
360.977	101.89
361.189	69.12
361.4	-23.04
361.611	-6.66
361.823	112.13
362.034	83.45
362.245	-51.71
362.456	7.68
362.667	65.02
362.879	-27.14
363.09	7.68
363.301	5.63
363.512	9.73
363.723	13.82
363.935	-41.47
364.146	30.21
364.357	-18.94
364.568	71.17
364.779	-10.75
364.99	67.07
365.201	60.93
365.412	15.87
365.623	-51.71
365.834	36.35
366.045	17.92
366.256	48.64
366.467	34.3
366.678	-41.47
366.889	-8.7
367.1	34.3
367.311	46.59
367.522	-6.66
367.733	-2.56
367.944	22.02
368.155	9.73
368.366	87.55
368.577	50.69
368.788	114.17
368.999	24.06
369.209	-4.61
369.42	11.78
369.631	91.65
369.842	75.26
370.053	50.69
370.264	32.26
370.474	28.16
370.685	69.12
370.896	42.5
371.107	-16.9
371.317	15.87
371.528	40.45
371.739	40.45
371.95	22.02
372.16	118.27
372.371	-43.52
372.582	-35.33
372.792	62.98
373.003	17.92
373.214	28.16
373.424	22.02
373.635	7.68
373.846	13.82
374.056	-2.56
374.267	110.08
374.477	40.45
374.688	-23.04
374.898	58.88
375.109	-35.33
375.319	-16.9
375.53	-18.94
375.74	28.16
375.951	-4.61
376.161	-0.51
376.372	91.65
376.582	54.78
376.793	42.5
377.003	-16.9
377.214	42.5
377.424	38.4
377.635	13.82
377.845	17.92
378.055	62.98
378.266	-35.33
378.476	50.69
378.686	89.6
378.897	65.02
379.107	-61.95
379.317	73.21
379.528	-20.99
379.738	-8.7
379.948	5.63
380.158	42.5
380.369	-6.66
380.579	-49.66
380.789	48.64
380.999	-23.04
381.21	79.36
381.42	42.5
381.63	24.06
381.84	32.26
382.05	99.84
382.261	105.98
382.471	-4.61
382.681	34.3
382.891	138.75
383.101	22.02
383.311	11.78
383.521	7.68
383.731	24.06
383.941	54.78
384.151	-0.51
384.361	13.82
384.571	7.68
384.781	30.21
384.991	65.02
385.201	89.6
385.411	22.02
385.621	-10.75
385.831	-57.86
386.041	-0.51
386.251	62.98
386.461	138.75
386.671	9.73
386.881	26.11
387.091	-41.47
387.301	19.97
387.511	-0.51
387.72	65.02
387.93	71.17
388.14	5.63
388.35	26.11
388.56	79.36
388.769	112.13
388.979	5.63
389.189	-27.14
389.399	65.02
389.609	65.02
389.818	108.03
390.028	114.17
390.238	79.36
390.447	60.93
390.657	48.64
390.867	58.88
391.076	-4.61
391.286	26.11
391.496	136.7
391.705	-0.51
391.915	93.69
392.125	42.5
392.334	62.98
392.544	56.83
392.753	54.78
392.963	17.92
393.172	13.82
393.382	7.68
393.591	73.21
393.801	11.78
394.01	105.98
394.22	60.93
394.429	103.93
394.639	75.26
394.848	38.4
395.058	99.84
395.267	46.59
395.477	11.78
395.686	103.93
395.895	-0.51
396.105	67.07
396.314	58.88
396.524	-8.7
396.733	36.35
396.942	73.21
397.152	81.41
397.361	60.93
397.57	79.36
397.78	71.17
397.989	120.32
398.198	194.05
398.407	46.59
398.617	69.12
398.826	112.13
399.035	40.45
399.244	130.56
399.453	38.4
399.663	112.13
399.872	60.93
400.081	89.6
400.29	95.74
400.499	91.65
400.708	128.51
400.917	77.31
401.127	19.97
401.336	34.3
401.545	120.32
401.754	138.75
401.963	15.87
402.172	73.21
402.381	42.5
402.59	124.41
402.799	73.21
403.008	71.17
403.217	103.93
403.426	144.89
403.635	132.61
403.844	75.26
404.053	128.51
404.262	126.46
404.471	136.7
404.68	179.71
404.888	87.55
405.097	163.33
405.306	159.23
405.515	30.21
405.724	81.41
405.933	99.84
406.142	85.5
406.35	175.61
406.559	83.45
406.768	144.89
406.977	138.75
407.185	218.62
407.394	210.43
407.603	120.32
407.812	95.74
408.02	218.62
408.229	181.76
408.438	173.57
408.646	218.62
408.855	161.28
409.064	187.9
409.272	202.24
409.481	269.82
409.69	267.77
409.898	169.47
410.107	189.95
410.315	280.06
410.524	228.86
410.733	249.34
410.941	306.68
411.15	331.26
411.358	302.59
411.567	292.35
411.775	286.2
411.984	366.07
412.192	351.74
412.401	372.22
412.609	359.93
412.818	382.46
413.026	384.51
413.234	417.27
413.443	349.69
413.651	464.38
413.86	419.32
414.068	488.95
414.276	415.23
414.485	392.7
414.693	617.97
414.901	583.16
415.11	472.57
415.318	540.15
415.526	574.97
415.734	697.85
415.943	710.13
416.151	632.31
416.359	695.8
416.567	681.46
416.776	769.52
416.984	816.63
417.192	853.49
417.4	916.98
417.608	759.28
417.817	851.44
418.025	916.98
418.233	939.51
418.441	798.2
418.649	1013.23
418.857	1046
419.065	1084.91
419.273	1103.34
419.481	1046
419.689	1160.69
419.897	1187.31
420.105	1302
420.313	1193.45
420.521	1261.04
420.729	1365.48
420.937	1340.91
421.145	1347.05
421.353	1465.83
421.561	1555.94
421.769	1682.92
421.977	1644.01
422.185	1580.52
422.393	1676.77
422.601	1975.78
422.809	1859.04
423.017	1818.08
423.224	1889.76
423.432	2069.98
423.64	1996.26
423.848	2242.01
424.056	2201.05
424.263	2311.64
424.471	2254.3
424.679	2391.52
424.887	2475.48
425.094	2565.59
425.302	2629.08
425.51	2741.72
425.718	2799.06
425.925	2751.96
426.133	2958.8
426.341	3075.54
426.548	3235.28
426.756	3198.42
426.964	3304.91
427.171	3276.24
427.379	3573.19
427.586	3462.6
427.794	3603.91
428.001	3816.9
428.209	4015.55
428.417	3939.78
428.624	4146.62
428.832	4220.35
429.039	4165.06
429.247	4160.96
429.454	4576.7
429.662	4965.81
429.869	4631.99
430.076	4920.76
430.284	4869.56
430.491	5086.64
430.699	5350.83
430.906	5043.64
431.114	5268.91
431.321	5473.71
431.528	5752.23
431.736	5969.32
431.943	6256.03
432.15	6161.83
432.358	6280.61
432.565	6507.93
432.772	6403.49
432.979	6833.56
433.187	6839.7
433.394	6839.7
433.601	7478.67
433.808	7503.25
434.016	7353.74
434.223	7593.36
434.43	8093.06
434.637	8084.87
434.844	8492.41
435.052	8707.45
435.259	8637.82
435.466	8635.77
435.673	8453.5
435.88	9278.83
436.087	9629.04
436.294	9608.56
436.501	9493.87
436.708	9624.94
436.915	9983.34
437.122	10311.01
437.329	10218.85
437.537	10720.6
437.743	10851.67
437.95	10704.22
438.157	11349.33
438.364	11754.83
438.571	11867.47
438.778	11728.21
438.985	12795.2
439.192	12283.2
439.399	12918.07
439.606	12342.6
439.813	13182.26
440.02	13997.35
440.227	13620.53
440.433	13415.73
440.64	13851.95
440.847	13835.56
441.054	14314.79
441.261	15234.33
441.467	15013.15
441.674	15185.18
441.881	15967.5
442.088	15813.9
442.294	15832.33
442.501	16184.59
442.708	16448.77
442.914	16952.57
443.121	17906.93
443.328	17140.99
443.534	18537.7
443.741	18148.59
443.948	17689.84
444.154	19082.46
444.361	18842.85
444.568	19008.73
444.774	19377.37
444.981	19391.7
445.187	19860.69
445.394	20661.44
445.6	20534.47
445.807	22213.81
446.013	21394.62
446.22	21574.84
446.426	22690.98
446.633	22893.73
446.839	23657.62
447.046	22652.07
447.252	23817.36
447.459	24044.69
447.665	23794.84
447.871	24798.34
448.078	25990.26
448.284	24892.55
448.491	25359.49
448.697	26332.27
448.903	26981.48
449.11	26500.2
449.316	26303.6
449.522	27022.44
449.728	27737.18
449.935	27792.47
450.141	27585.63
450.347	28232.79
450.553	27821.14
450.76	27974.74
450.966	29058.12
451.172	28521.55
451.378	29123.65
451.584	28992.58
451.791	29613.12
451.997	29424.7
452.203	30067.77
452.409	29711.42
452.615	29672.51
452.821	28881.99
453.027	28566.6
453.233	30125.11
453.44	28742.73
453.646	29174.85
453.852	29271.11
454.058	29484.09
454.264	28779.59
454.47	29445.18
454.676	28720.2
454.882	29645.88
455.088	27221.09
455.294	27499.61
455.5	27759.7
455.705	28251.22
455.911	26940.52
456.117	26692.71
456.323	26266.74
456.529	24990.85
456.735	26000.5
456.941	25341.05
457.147	25117.82
457.352	24439.95
457.558	24097.94
457.764	24212.62
457.97	23618.71
458.176	23299.23
458.381	22924.45
458.587	21869.75
458.793	21783.73
458.999	20911.3
459.204	22303.92
459.41	21785.78
459.616	20380.87
459.821	20249.8
460.027	20301
460.233	19778.77
460.438	18945.25
460.644	19342.55
460.85	18236.65
461.055	17829.1
461.261	17962.22
461.466	16608.51
461.672	16168.2
461.878	17517.81
462.083	15949.07
462.289	15836.43
462.494	15709.46
462.7	15056.15
462.905	14566.69
463.111	14898.46
463.316	15215.9
463.522	15017.24
463.727	14931.23
463.932	14988.57
464.138	14548.26
464.343	14920.99
464.549	14239.01
464.754	14601.51
464.959	14533.92
465.165	14470.44
465.37	13856.04
465.575	13567.28
465.781	13997.35
465.986	14122.28
466.191	13813.04
466.397	13286.71
466.602	12676.41
466.807	13061.43
467.012	13262.13
467.218	13204.79
467.423	13098.3
467.628	13161.78
467.833	13557.04
468.038	13098.3
468.244	12703.04
468.449	13260.09
468.654	12860.73
468.859	12625.22
469.064	12711.23
469.269	12094.79
469.474	12590.4
469.679	12692.8
469.885	12184.9
470.09	12473.67
470.295	12260.68
470.5	11928.91
470.705	12014.92
470.91	11818.32
471.115	11769.16
471.32	11992.39
471.525	11748.68
471.73	11535.7
471.935	11404.63
472.139	10949.98
472.344	11165.01
472.549	11146.58
472.754	10892.63
472.959	10816.86
473.164	10526.05
473.369	10454.37
473.574	11027.8
473.778	10640.73
473.983	10700.12
474.188	10419.55
474.393	10024.3
474.598	9962.86
474.802	9979.24
475.007	9852.27
475.212	10141.03
475.417	9690.48
475.621	9764.2
475.826	9672.04
476.031	9571.69
476.235	9278.83
476.44	9368.95
476.645	9278.83
476.849	9291.12
477.054	9401.71
477.259	9102.71
477.463	9131.38
477.668	8824.19
477.872	8830.33
478.077	8582.53
478.282	8535.42
478.486	8480.13
478.691	8398.21
478.895	8580.48
479.1	8322.43
479.304	8396.16
479.509	8164.74
479.713	8385.92
479.918	8209.79
480.122	7953.8
480.326	8134.02
480.531	8140.16
480.735	8021.38
480.94	7894.41
481.144	8273.28
481.348	7908.74
481.553	7853.45
481.757	7667.08
481.961	7910.79
482.166	8000.9
482.37	7894.41
482.574	7847.3
482.778	7640.46
482.983	7853.45
483.187	7845.26
483.391	8082.82
483.595	7910.79
483.8	7826.82
484.004	7953.8
484.208	7816.58
484.412	7726.47
484.616	7845.26
484.821	7705.99
485.025	7749
485.229	7863.69
485.433	7710.09
485.637	7730.57
485.841	7757.19
486.045	7675.27
486.249	7714.19
486.453	7959.94
486.657	7730.57
486.861	7859.59
487.065	7615.88
487.269	7789.96
487.473	7597.45
487.677	7820.68
487.881	7929.22
488.085	7806.34
488.289	7794.06
488.493	7984.52
488.697	8109.44
488.901	7884.17
489.105	7751.05
489.309	7808.39
489.512	7914.89
489.716	7792.01
489.92	7863.69
490.124	7914.89
490.328	8072.58
490.531	8103.3
490.735	8041.86
490.939	7896.46
491.143	8000.9
491.346	8115.59
491.55	8082.82
491.754	8207.75
491.958	8316.29
492.161	8150.4
492.365	8271.23
492.569	8248.71
492.772	8265.09
492.976	8181.12
493.18	8494.46
493.383	8592.76
493.587	8582.53
493.79	8609.15
493.994	8480.13
494.197	8516.99
494.401	8668.54
494.605	8815.99
494.808	8856.95
495.012	8992.12
495.215	9008.5
495.419	8805.75
495.622	8975.74
495.825	9170.29
496.029	9151.86
496.232	9198.96
496.436	9434.48
496.639	9661.8
496.843	9426.29
497.046	9645.42
497.249	9676.14
497.453	9852.27
497.656	10020.2
497.859	10075.49
498.063	10007.91
498.266	10386.79
498.469	10186.08
498.673	10413.41
498.876	10679.65
499.079	10595.68
499.282	10517.86
499.485	10902.87
499.689	11074.9
499.892	11124.05
500.095	11103.57
500.298	11482.45
500.501	11259.22
500.705	11662.67
500.908	11642.19
501.111	11588.94
501.314	12137.8
501.517	11990.35
501.72	12195.14
501.923	12129.61
502.126	12395.84
502.329	12700.99
502.532	12520.77
502.735	12741.95
502.938	13186.36
503.141	13030.71
503.344	13305.14
503.547	13108.54
503.75	13522.23
503.953	13681.97
504.156	14052.65
504.359	13917.48
504.562	13989.16
504.765	14441.76
504.968	14564.64
505.17	14525.73
505.373	14687.52
505.576	14996.76
505.779	14935.32
505.982	15062.3
506.185	15322.39
506.387	15529.24
506.59	15938.83
506.793	16176.39
506.996	15826.19
507.198	16289.03
507.401	16047.37
507.604	16545.03
507.807	16778.5
508.009	16614.66
508.212	17026.3
508.415	17335.54
508.617	17536.24
508.82	17671.41
509.022	17282.3
509.225	18138.35
509.428	18203.88
509.63	18355.43
509.833	18289.9
510.035	18740.45
510.238	18609.38
510.44	18904.29
510.643	19371.22
510.845	19182.81
511.048	19371.22
511.25	19721.43
511.453	19713.24
511.655	20593.86
511.858	20266.19
512.06	20712.64
512.262	20497.61
512.465	20587.72
512.667	21005.5
512.87	21048.51
513.072	21357.75
513.274	21820.6
513.477	21851.31
513.679	21931.19
513.881	22410.41
514.084	22279.34
514.286	22744.23
514.488	22647.97
514.69	23080.1
514.893	23303.32
515.095	23303.32
515.297	23401.63
515.499	23600.28
515.701	23887
515.904	24538.25
516.106	24427.66
516.308	24632.46
516.51	24829.06
516.712	24867.97
516.914	25222.27
517.116	25685.11
517.318	25791.61
517.52	25902.2
517.722	25801.85
517.925	26418.28
518.127	27018.34
518.329	26809.45
518.531	26766.44
518.733	27206.75
518.935	27561.05
519.136	27876.44
519.338	28109.91
519.54	28224.59
519.742	28451.92
519.944	28443.73
520.146	28761.16
520.348	28980.29
520.55	29033.54
520.752	29314.11
520.954	29756.47
521.155	29662.27
521.357	30039.09
521.559	30518.32
521.761	30714.92
521.963	30592.05
522.164	30706.73
522.366	30700.59
522.568	31013.93
522.77	31196.2
522.971	31618.08
523.173	31286.31
523.375	31661.08
523.576	31941.66
523.778	32082.97
523.98	32435.22
524.181	32302.1
524.383	32668.69
524.584	33160.2
524.786	32832.52
524.988	33092.62
525.189	33655.81
525.391	33635.33
525.592	33811.45
525.794	34149.37
525.995	33641.47
526.197	34157.56
526.398	34325.49
526.6	34405.36
526.801	34581.49
527.003	34972.65
527.204	34771.95
527.406	34972.65
527.607	34931.69
527.808	35079.14
528.01	34503.67
528.211	34933.74
528.412	35888.09
528.614	35320.81
528.815	35638.24
529.016	35789.79
529.218	35509.22
529.419	35951.58
529.62	35873.76
529.822	36035.55
530.023	35996.63
530.224	36049.88
530.425	35861.47
530.626	35886.04
530.828	35750.88
531.029	36516.82
531.23	35863.52
531.431	36168.66
531.632	36238.3
531.833	36531.15
532.035	36250.58
532.236	36187.1
532.437	36715.47
532.638	36289.49
532.839	36746.19
533.04	36701.14
533.241	36471.76
533.442	36871.12
533.643	36631.51
533.844	36725.71
534.045	36735.95
534.246	36377.56
534.447	37030.86
534.648	36539.35
534.849	37002.19
535.05	36383.7
535.251	36834.25
535.451	36850.64
535.652	36813.77
535.853	36545.49
536.054	36850.64
536.255	36901.84
536.456	36586.45
536.657	36854.73
536.857	36688.85
537.058	36877.26
537.259	36983.76
537.46	36957.13
537.66	36613.07
537.861	36953.04
538.062	36692.94
538.263	37075.91
538.463	36643.79
538.664	36553.68
538.865	36811.73
539.065	37149.64
539.266	36760.53
539.466	36965.32
539.667	36586.45
539.868	37510.08
540.068	36930.51
540.269	36920.27
540.469	37272.52
540.67	36617.17
540.87	36694.99
541.071	36817.87
541.271	36608.98
541.472	36924.36
541.672	36754.38
541.873	36582.35
542.073	36010.97
542.274	37127.11
542.474	36991.95
542.675	36692.94
542.875	37108.68
543.075	36400.08
543.276	36217.82
543.476	37057.48
543.676	36817.87
543.877	36580.31
544.077	36901.84
544.277	36733.9
544.478	36297.69
544.678	36658.13
544.878	36611.03
545.078	36924.36
545.279	36664.27
545.479	36230.1
545.679	36492.24
545.879	36664.27
546.079	36799.44
546.28	36506.58
546.48	36664.27
546.68	36281.3
546.88	36719.57
547.08	36938.7
547.28	36340.69
547.48	36287.45
547.68	36565.97
547.88	36441.04
548.081	36830.16
548.281	36375.51
548.481	36436.95
548.681	36672.46
548.881	36316.12
549.081	36223.96
549.28	36205.53
549.48	36565.97
549.68	36627.41
549.88	36830.16
550.08	36352.98
550.28	36596.69
550.48	36457.43
550.68	36897.74
550.88	36160.47
551.08	36778.96
551.279	36582.35
551.479	36156.38
551.679	36342.74
551.879	36289.49
552.079	36482
552.278	36359.13
552.478	36424.66
552.678	36727.76
552.878	36719.57
553.077	36551.63
553.277	36066.27
553.477	36441.04
553.676	36303.83
553.876	36185.05
554.076	36078.55
554.275	36129.75
554.475	36152.28
554.674	36213.72
554.874	36277.21
555.074	36043.74
555.273	36053.98
555.473	36570.07
555.672	35920.86
555.872	36053.98
556.071	36514.77
556.271	36281.3
556.47	36262.87
556.67	35642.34
556.869	36113.37
557.068	36363.22
557.268	35785.69
557.467	36068.31
557.667	36068.31
557.866	36064.22
558.065	35824.61
558.265	35617.76
558.464	35496.93
558.663	36242.39
558.863	35259.37
559.062	36078.55
559.261	35421.16
559.461	35890.14
559.66	35267.56
559.859	35310.57
560.058	35144.68
560.258	35654.62
560.457	35222.5
560.656	35699.68
560.855	35484.64
561.054	35306.47
561.253	35498.98
561.453	35378.15
561.652	35044.33
561.851	35283.94
562.05	35304.42
562.249	35054.57
562.448	35224.55
562.647	35066.86
562.846	34929.64
563.045	35353.57
563.244	34857.96
563.443	34898.92
563.642	34636.78
563.841	34587.63
564.04	34634.74
564.239	34733.04
564.438	34649.07
564.637	34581.49
564.836	34745.33
565.035	34464.75
565.234	34759.66
565.432	34468.85
565.631	34137.08
565.83	34565.1
566.029	34327.54
566.228	34446.32
566.427	34305.01
566.625	33680.38
566.824	33664
567.023	34012.15
567.222	33416.19
567.42	33926.14
567.619	33764.35
567.818	33616.9
568.016	33954.81
568.215	33858.56
568.414	33696.77
568.612	33983.48
568.811	33594.37
569.01	33649.66
569.208	33293.32
569.407	33743.87
569.605	32810
569.804	33618.94
570.002	33125.38
570.201	33090.57
570.4	32955.4
570.598	32885.77
570.797	33186.82
570.995	32816.14
571.193	32508.94
571.392	32781.32
571.59	32601.1
571.789	32789.52
571.987	32734.22
572.186	32576.53
572.384	32537.62
572.582	32261.14
572.781	32773.13
572.979	32082.97
573.177	31886.36
573.376	32334.87
573.574	32101.4
573.772	31999
573.971	31970.33
574.169	31837.21
574.367	31534.11
574.565	31992.86
574.763	31687.71
574.962	31896.6
575.16	31345.7
575.358	31435.81
575.556	31155.24
575.754	31366.18
575.952	31237.16
576.151	31503.39
576.349	30743.59
576.547	30733.36
576.745	31022.12
576.943	31013.93
577.141	30997.54
577.339	30694.44
577.537	30563.37
577.735	31075.37
577.933	30293.04
578.131	30651.44
578.329	30377.01
578.527	30481.45
578.725	30475.31
578.923	30247.99
579.121	30129.2
579.319	30260.27
579.516	30266.42
579.714	29869.11
579.912	29611.07
580.11	30131.25
580.308	29822.01
580.506	29959.22
580.704	29172.8
580.901	29224
581.099	29598.78
581.297	29193.28
581.495	29402.18
581.692	29508.67
581.89	29078.6
582.088	29004.87
582.285	29180.99
582.483	29281.35
582.681	28982.34
582.878	28871.75
583.076	28562.51
583.274	28798.02
583.471	28703.82
583.669	28597.32
583.866	28413.01
584.064	28466.25
584.262	28023.89
584.459	28451.92
584.657	28021.84
584.854	28513.36
585.052	27628.63
585.249	28062.8
585.447	28075.09
585.644	27597.91
585.841	27984.98
586.039	28013.65
586.236	27769.94
586.434	27702.36
586.631	27550.81
586.828	27708.51
587.026	27292.77
587.223	27214.94
587.42	27233.38
587.618	27292.77
587.815	27016.29
588.012	27206.75
588.21	26993.76
588.407	27239.52
588.604	26907.75
588.801	26883.17
588.999	26383.47
589.196	26920.04
589.393	26633.32
589.59	26551.4
589.787	26602.6
589.984	26213.49
590.182	26102.9
590.379	26612.84
590.576	26311.79
590.773	26236.02
590.97	26104.95
591.167	26012.79
591.364	25560.19
591.561	25994.36
591.758	25670.78
591.955	25506.94
592.152	25855.09
592.349	25656.44
592.546	25621.63
592.743	25566.33
592.94	25289.85
593.137	25173.12
593.334	25547.9
593.531	24818.82
593.727	25271.42
593.924	25156.74
594.121	25078.91
594.318	25169.02
594.515	24702.09
594.712	24962.18
594.908	24886.4
595.105	24890.5
595.302	24626.31
595.499	24525.96
595.696	24753.29
595.892	24175.76
596.089	24597.64
596.286	24323.21
596.482	23878.8
596.679	24235.15
596.876	24249.49
597.072	24099.98
597.269	24278.16
597.466	23585.94
597.662	23719.06
597.859	23665.81
598.055	23950.48
598.252	23563.42
598.448	23622.81
598.645	23469.21
598.841	23168.16
599.038	23432.35
599.234	23266.46
599.431	22942.88
599.627	23131.3
599.824	23276.7
600.02	22893.73
600.217	23401.63
600.413	22842.53
600.609	22926.5
600.806	22707.37
601.002	22926.5
601.198	22453.42
601.395	22725.8
601.591	22607.02
601.787	22465.71
601.984	22492.33
602.18	22488.23
602.376	22461.61
602.572	22189.23
602.769	22086.83
602.965	22013.1
603.161	22346.92
603.357	21933.23
603.553	21920.95
603.75	22041.78
603.946	21820.6
604.142	21804.21
604.338	21740.72
604.534	21869.75
604.73	21484.73
604.926	21650.61
605.122	21535.93
605.318	21296.32
605.514	21417.15
605.71	21038.27
605.906	21433.53
606.102	21290.17
606.298	21204.16
606.494	21105.85
606.69	21179.58
606.886	21255.36
607.082	20528.33
607.278	21085.37
607.474	20505.8
607.67	21011.65
607.866	20657.35
608.062	20847.81
608.257	20606.15
608.453	20819.14
608.649	20796.61
608.845	20243.66
609.041	20413.64
609.236	20911.3
609.432	20573.38
609.628	20503.75
609.824	20489.42
610.019	20174.03
610.215	20333.77
610.411	20403.4
610.606	20012.24
610.802	20206.8
610.998	20233.42
611.193	20126.92
611.389	19938.51
611.584	19926.22
611.78	19881.17
611.976	19887.31
612.171	19799.25
612.367	19643.6
612.562	19838.16
612.758	19457.24
612.953	19676.37
613.149	19829.97
613.344	19487.96
613.539	19852.5
613.735	19510.49
613.93	19397.85
614.126	19479.77
614.321	19737.81
614.517	19539.16
614.712	19516.63
614.907	19350.74
615.103	19641.56
615.298	19356.89
615.493	19494.1
615.688	19129.56
615.884	19539.16
616.079	19031.26
616.274	19166.43
616.47	19061.98
616.665	19217.63
616.86	19066.08
617.055	18775.27
617.25	18848.99
617.445	19012.83
617.641	18846.94
617.836	19004.64
618.031	18578.66
618.226	19066.08
618.421	18584.8
618.616	18644.2
618.811	18502.89
619.006	18441.45
619.201	17990.89
619.396	18347.24
619.591	18250.99
619.786	18267.37
619.981	17857.78
620.176	18142.44
620.371	17917.17
620.566	18207.98
620.761	17708.27
620.956	18097.39
621.151	17519.86
621.346	18003.18
621.541	17777.9
621.735	17738.99
621.93	17216.76
622.125	17589.49
622.32	17331.45
622.515	16975.1
622.709	16862.46
622.904	16981.24
623.099	16807.17
623.294	16792.83
623.488	16602.37
623.683	16751.87
623.878	16200.97
624.072	16547.08
624.267	16715.01
624.462	16577.8
624.656	15963.4
624.851	16033.04
625.046	15942.92
625.24	16020.75
625.435	15879.44
625.629	15906.06
625.824	15734.03
626.018	15570.19
626.213	15588.63
626.407	15451.41
626.602	15367.45
626.796	15480.08
626.991	15252.76
627.185	15138.07
627.38	15340.82
627.574	15330.58
627.768	15013.15
627.963	14828.83
628.157	14654.75
628.352	14812.45
628.546	14677.28
628.74	14865.69
628.935	14472.48
629.129	14538.02
629.323	14226.73
629.517	14433.57
629.712	14128.42
629.906	14193.96
630.1	13985.07
630.294	13976.87
630.489	14171.43
630.683	13952.3
630.877	14003.5
631.071	13718.83
631.265	13540.66
631.459	13546.8
631.653	13612.34
631.848	13518.13
632.042	13239.61
632.236	13358.39
632.43	13260.09
632.624	13276.47
632.818	12934.46
633.012	13049.14
633.206	12926.27
633.4	12948.79
633.594	12709.18
633.788	12799.29
633.982	12801.34
634.176	12703.04
634.369	12539.2
634.563	12516.67
634.757	12498.24
634.951	12346.69
635.145	12301.64
635.339	12176.71
635.533	12227.91
635.726	12260.68
635.92	11957.58
636.114	11994.44
636.308	11959.63
636.501	11928.91
636.695	12016.97
636.889	11992.39
637.083	11597.14
637.276	11668.81
637.47	11400.53
637.664	11822.41
637.857	11504.98
638.051	11314.52
638.244	11410.77
638.438	11400.53
638.632	11261.27
638.825	11031.9
639.019	11234.64
639.212	11199.83
639.406	11261.27
639.599	10900.83
639.793	11122.01
639.986	10657.12
640.18	10894.68
640.373	10691.93
640.567	10667.36
640.76	10741.08
640.954	10550.62
641.147	10784.09
641.34	10374.5
641.534	10495.33
641.727	10433.89
641.92	10515.81
642.114	10311.01
642.307	10392.93
642.5	10126.69
642.694	10196.32
642.887	10159.46
643.08	10114.41
643.273	10024.3
643.467	9598.32
643.66	9852.27
643.853	9626.99
644.046	9811.31
644.239	9512.3
644.432	9670
644.626	9624.94
644.819	9559.41
645.012	9430.38
645.205	9508.21
645.398	9530.73
645.591	9174.39
645.784	9246.07
645.977	9076.09
646.17	9180.53
646.363	9002.36
646.556	8820.09
646.749	8967.54
646.942	8996.21
647.135	9002.36
647.328	8947.06
647.521	8918.39
647.714	8629.63
647.907	8756.6
648.099	8713.6
648.292	8578.43
648.485	8525.18
648.678	8410.5
648.871	8349.06
649.064	8381.82
649.256	8215.94
649.449	8369.54
649.642	8365.44
649.835	8387.97
650.027	8306.05
650.22	8105.35
650.413	8222.08
650.605	8078.72
650.798	8009.09
650.991	7966.09
651.183	7937.41
651.376	7845.26
651.568	8127.88
651.761	7806.34
651.954	7757.19
652.146	7871.88
652.339	7980.42
652.531	7689.61
652.724	7681.42
652.916	7671.18
653.109	7509.39
653.301	7603.6
653.494	7574.92
653.686	7460.24
653.879	7411.09
654.071	7402.9
654.263	7503.25
654.456	7277.97
654.648	7167.38
654.84	7060.88
655.033	7345.55
655.225	7062.93
655.417	7194
655.61	7114.13
655.802	7095.7
655.994	6952.34
656.186	6948.25
656.379	6890.9
656.571	6948.25
656.763	6886.81
656.955	6825.37
657.148	6618.52
657.34	6866.33
657.532	6534.56
657.724	6690.2
657.916	6626.71
658.108	6722.97
658.3	6546.84
658.492	6602.14
658.684	6577.56
658.876	6503.84
659.068	6628.76
659.26	6317.47
659.452	6331.81
659.644	6505.88
659.836	6294.94
660.028	6122.91
660.22	6139.3
660.412	6309.28
660.604	6002.08
660.796	6153.63
660.988	6118.82
661.18	5959.08
661.372	6002.08
661.563	5993.89
661.755	6069.67
661.947	6124.96
662.139	5817.77
662.331	5848.49
662.522	5842.34
662.714	5731.75
662.906	5662.12
663.097	5733.8
663.289	5764.52
663.481	5641.64
663.673	5649.83
663.864	5608.87
664.056	5514.67
664.247	5586.35
664.439	5486
664.631	5457.32
664.822	5602.73
665.014	5569.96
665.205	5381.55
665.397	5436.85
665.588	5438.89
665.78	5449.13
665.971	5195.18
666.163	5207.47
666.354	5305.78
666.546	5248.43
666.737	5201.33
666.929	5236.14
667.12	5227.95
667.311	5100.98
667.503	5035.44
667.694	5164.47
667.885	5053.87
668.077	5051.83
668.268	5017.01
668.459	5109.17
668.651	4931
668.842	5035.44
669.033	4933.04
669.224	4924.85
669.416	4799.93
669.607	4822.45
669.798	4877.75
669.989	4797.88
670.18	4814.26
670.371	4773.3
670.563	4648.38
670.754	4879.8
670.945	4660.66
671.136	4724.15
671.327	4625.85
671.518	4631.99
671.709	4707.77
671.9	4761.02
672.091	4609.47
672.282	4662.71
672.473	4509.12
672.664	4701.62
672.855	4588.99
673.046	4535.74
673.237	4593.08
673.428	4480.44
673.619	4402.62
673.809	4486.59
674	4355.52
674.191	4314.56
674.382	4335.04
674.573	4330.94
674.764	4328.89
674.954	4253.12
675.145	4332.99
675.336	4380.09
675.527	4292.03
675.717	4306.37
675.908	4101.57
676.099	4220.35
676.289	4281.79
676.48	4314.56
676.671	4261.31
676.861	4283.84
677.052	4093.38
677.243	4115.91
677.433	4257.22
677.624	4064.71
677.814	4111.81
678.005	4117.95
678.195	4072.9
678.386	4128.19
678.576	4109.76
678.767	4013.51
678.957	4021.7
679.148	4027.84
679.338	4113.86
679.529	3995.08
679.719	3904.96
679.909	3990.98
680.1	3929.54
680.29	4052.42
680.481	3960.26
680.671	3866.05
680.861	4023.75
681.052	3917.25
681.242	3823.05
681.432	3806.66
681.622	3823.05
681.813	3880.39
682.003	3855.81
682.193	3816.9
682.383	3882.44
682.573	3939.78
682.764	3825.09
682.954	3816.9
683.144	3732.94
683.334	3712.46
683.524	3831.24
683.714	3837.38
683.904	3716.55
684.094	3800.52
684.284	3808.71
684.474	3902.92
684.664	3757.51
684.854	3831.24
685.044	3581.39
685.234	3864.01
685.424	3673.54
685.614	3718.6
685.804	3655.11
685.994	3708.36
686.184	3638.73
686.374	3677.64
686.564	3521.99
686.753	3626.44
686.943	3472.84
687.133	3577.29
687.323	3491.27
687.513	3593.67
687.702	3622.34
687.892	3558.86
688.082	3438.03
688.272	3458.51
688.461	3448.27
688.651	3388.88
688.841	3499.47
689.03	3489.23
689.22	3395.02
689.41	3331.53
689.599	3335.63
689.789	3421.64
689.979	3380.68
690.168	3421.64
690.358	3413.45
690.547	3335.63
690.737	3225.04
690.926	3290.57
691.116	3239.37
691.305	3241.42
691.495	3370.44
691.684	3116.5
691.874	3177.94
692.063	3091.92
692.252	3155.41
692.442	3317.2
692.631	3249.61
692.82	3034.58
693.01	3198.42
693.199	3093.97
693.388	3235.28
693.578	3081.68
693.767	3134.93
693.956	2995.67
694.146	3077.59
694.335	3034.58
694.524	2930.13
694.713	3085.78
694.902	3012.05
695.092	3110.35
695.281	2909.65
695.47	3003.86
695.659	3003.86
695.848	2842.07
696.037	2846.16
696.226	2850.26
696.415	2840.02
696.604	2889.17
696.793	2999.76
696.982	2893.27
697.171	2977.23
697.36	3063.25
697.549	2878.93
697.738	2926.04
697.927	2948.56
698.116	2893.27
698.305	2821.59
698.494	2856.4
698.683	2678.23
698.872	2864.6
699.061	2827.73
699.25	2823.64
699.438	2776.53
699.627	2856.4
699.816	2897.36
700.005	2692.57
700.193	2835.92
700.382	2758.1
700.571	2774.49
700.76	2889.17
700.948	2774.49
701.137	2837.97
701.326	2749.91
701.514	2631.13
701.703	2708.95
701.892	2651.61
702.08	2831.83
702.269	2823.64
702.457	2655.7
702.646	2708.95
702.834	2682.33
703.023	2745.81
703.212	2708.95
703.4	2708.95
703.589	2770.39
703.777	2711
703.965	2635.22
704.154	2719.19
704.342	2547.16
704.531	2565.59
704.719	2641.37
704.907	2676.18
705.096	2647.51
705.284	2563.54
705.472	2606.55
705.661	2627.03
705.849	2536.92
706.037	2520.54
706.226	2588.12
706.414	2608.6
706.602	2438.62
706.79	2549.21
706.979	2508.25
707.167	2495.96
707.355	2475.48
707.543	2571.74
707.731	2391.52
707.919	2534.87
708.107	2405.85
708.296	2465.24
708.484	2455
708.672	2512.35
708.86	2440.67
709.048	2399.71
709.236	2471.39
709.424	2559.45
709.612	2465.24
709.8	2432.47
709.988	2428.38
710.176	2399.71
710.364	2457.05
710.551	2401.76
710.739	2303.45
710.927	2375.13
711.115	2307.55
711.303	2412
711.491	2356.7
711.679	2274.78
711.866	2412
712.054	2430.43
712.242	2307.55
712.43	2229.73
712.617	2426.33
712.805	2248.16
712.993	2303.45
713.181	2280.93
713.368	2235.87
713.556	2332.12
713.744	2254.3
713.931	2366.94
714.119	2332.12
714.306	2274.78
714.494	2379.23
714.682	2184.67
714.869	2260.45
715.057	2325.98
715.244	2123.23
715.432	2209.25
715.619	2225.63
715.807	2145.76
715.994	2278.88
716.182	2254.3
716.369	2184.67
716.556	2174.43
716.744	2184.67
716.931	2192.86
717.119	2366.94
717.306	2276.83
717.493	2209.25
717.681	2170.33
717.868	2205.15
718.055	2147.81
718.242	2131.42
718.43	2117.09
718.617	2127.33
718.804	2096.61
718.991	2176.48
719.179	2174.43
719.366	2178.53
719.553	2029.03
719.74	2147.81
719.927	2104.8
720.114	2164.19
720.301	2184.67
720.488	2057.7
720.676	2037.22
720.863	2098.66
721.05	1996.26
721.237	2018.79
721.424	2110.94
721.611	2012.64
721.798	1951.2
721.985	2029.03
722.172	1992.16
722.358	1998.31
722.545	2086.37
722.732	2004.45
722.919	2047.46
723.106	2004.45
723.293	1957.35
723.48	1988.07
723.667	1971.68
723.853	2012.64
724.04	2000.35
724.227	1924.58
724.414	1877.48
724.6	1957.35
724.787	1926.63
724.974	1895.91
725.161	1928.67
725.347	1848.8
725.534	1971.68
725.72	1977.83
725.907	2041.31
726.094	1967.59
726.28	2010.59
726.467	1889.76
726.653	1834.47
726.84	1967.59
727.027	2010.59
727.213	1852.9
727.4	1861.09
727.586	1916.39
727.773	1955.3
727.959	1947.11
728.145	1857
728.332	1916.39
728.518	1816.04
728.705	1762.79
728.891	1838.56
729.077	1779.17
729.264	1852.9
729.45	1932.77
729.636	1861.09
729.823	1897.96
730.009	1842.66
730.195	1770.98
730.382	1875.43
730.568	1881.57
730.754	1781.22
730.94	1793.51
731.126	1820.13
731.313	1795.56
731.499	1787.36
731.685	1883.62
731.871	1766.89
732.057	1687.01
732.243	1727.97
732.429	1676.77
732.615	1848.8
732.801	1775.08
732.987	1758.69
733.173	1740.26
733.359	1742.31
733.545	1730.02
733.731	1764.84
733.917	1803.75
734.103	1756.65
734.289	1762.79
734.475	1777.12
734.661	1791.46
734.847	1811.94
735.033	1801.7
735.219	1721.83
735.404	1717.73
735.59	1621.48
735.776	1644.01
735.962	1678.82
736.148	1662.44
736.333	1648.1
736.519	1555.94
736.705	1603.05
736.89	1734.12
737.076	1635.82
737.262	1615.34
737.447	1717.73
737.633	1711.59
737.819	1687.01
738.004	1680.87
738.19	1555.94
738.375	1652.2
738.561	1646.05
738.747	1629.67
738.932	1648.1
739.118	1543.66
739.303	1646.05
739.489	1566.18
739.674	1605.1
739.859	1609.19
740.045	1637.86
740.23	1517.03
740.416	1504.75
740.601	1525.22
740.786	1478.12
740.972	1539.56
741.157	1535.46
741.342	1557.99
741.528	1441.26
741.713	1433.07
741.898	1424.87
742.084	1508.84
742.269	1500.65
742.454	1469.93
742.639	1525.22
742.824	1496.55
743.01	1488.36
743.195	1463.79
743.38	1412.59
743.565	1357.29
743.75	1428.97
743.935	1381.87
744.12	1474.03
744.305	1449.45
744.49	1398.25
744.675	1406.44
744.86	1418.73
745.045	1400.3
745.23	1418.73
745.415	1443.31
745.6	1418.73
745.785	1408.49
745.97	1406.44
746.155	1369.58
746.34	1349.1
746.525	1365.48
746.71	1351.15
746.895	1324.52
747.079	1168.88
747.264	1334.76
747.449	1242.61
747.634	1365.48
747.819	1299.95
748.003	1291.76
748.188	1271.28
748.373	1261.04
748.557	1226.22
748.742	1261.04
748.927	1168.88
749.111	1242.61
749.296	1156.59
749.481	1299.95
749.665	1228.27
749.85	1117.68
750.034	1089.01
750.219	1226.22
750.404	1154.54
750.588	1177.07
750.773	1127.92
750.957	1103.34
751.141	1283.56
751.326	1109.49
751.51	1209.84
751.695	1054.19
751.879	1050.1
752.064	1220.08
752.248	1261.04
752.432	1138.16
752.617	1158.64
752.801	1132.01
752.985	890.35
753.17	1037.81
753.354	1103.34
753.538	1103.34
753.722	1017.33
753.907	1050.1
754.091	937.46
754.275	1021.42
754.459	888.31
754.643	998.9
754.828	1007.09
755.012	974.32
755.196	966.13
755.38	884.21
755.564	1025.52
755.748	923.12
755.932	959.99
756.116	892.4
756.3	959.99
756.484	916.98
756.668	914.93
756.852	855.54
757.036	964.08
757.22	947.7
757.404	867.83
757.588	876.02
757.772	841.2
757.956	785.91
758.14	865.78
758.323	931.31
758.507	955.89
758.691	773.62
758.875	851.44
759.059	906.74
759.242	923.12
759.426	820.72
759.61	843.25
759.794	808.44
759.977	824.82
760.161	931.31
760.345	790
760.528	847.35
760.712	792.05
760.895	873.97
761.079	761.33
761.263	767.48
761.446	777.72
761.63	777.72
761.813	769.52
761.997	730.61
762.18	796.15
762.364	804.34
762.547	767.48
762.731	779.76
762.914	792.05
763.098	644.6
763.281	824.82
763.464	816.63
763.648	724.47
763.831	706.04
764.015	677.37
764.198	642.55
764.381	751.09
764.564	720.37
764.748	751.09
764.931	767.48
765.114	574.97
765.297	759.28
765.481	691.7
765.664	738.8
765.847	656.89
766.03	671.22
766.213	681.46
766.397	759.28
766.58	632.31
766.763	759.28
766.946	501.24
767.129	689.65
767.312	636.41
767.495	620.02
767.678	669.17
767.861	572.92
768.044	652.79
768.227	685.56
768.41	701.94
768.593	605.69
768.776	640.5
768.959	622.07
769.142	677.37
769.324	658.93
769.507	566.78
769.69	652.79
769.873	542.2
770.056	644.6
770.239	595.45
770.421	710.13
770.604	548.34
770.787	589.3
770.97	636.41
771.152	538.1
771.335	605.69
771.518	572.92
771.7	566.78
771.883	536.06
772.066	620.02
772.248	622.07
772.431	570.87
772.613	646.65
772.796	603.64
772.978	681.46
773.161	538.1
773.343	517.62
773.526	499.19
773.708	513.53
773.891	486.9
774.073	587.26
774.256	462.33
774.438	624.12
774.621	458.23
774.803	570.87
774.985	413.18
775.168	540.15
775.35	515.58
775.532	523.77
775.715	550.39
775.897	548.34
776.079	441.85
776.261	450.04
776.444	443.9
776.626	476.66
776.808	398.84
776.99	439.8
777.173	505.34
777.355	482.81
777.537	507.38
777.719	507.38
777.901	534.01
778.083	404.99
778.265	454.14
778.447	441.85
778.629	515.58
778.811	366.07
778.993	497.14
779.175	460.28
779.357	450.04
779.539	374.27
779.721	382.46
779.903	433.66
780.085	435.71
780.267	392.7
780.449	439.8
780.631	447.99
780.812	447.99
780.994	409.08
781.176	450.04
781.358	402.94
781.54	349.69
781.721	345.59
781.903	439.8
782.085	366.07
782.267	388.6
782.448	345.59
782.63	351.74
782.812	361.98
782.993	425.47
783.175	345.59
783.357	300.54
783.538	325.12
783.72	433.66
783.901	318.97
784.083	269.82
784.264	366.07
784.446	331.26
784.627	382.46
784.809	310.78
784.99	314.88
785.172	325.12
785.353	384.51
785.535	253.44
785.716	290.3
785.897	333.31
786.079	288.25
786.26	355.83
786.441	361.98
786.623	222.72
786.804	292.35
786.985	333.31
787.167	284.16
787.348	333.31
787.529	316.92
787.71	349.69
787.891	235
788.073	271.87
788.254	284.16
788.435	325.12
788.616	302.59
788.797	226.81
788.978	292.35
789.159	208.38
789.34	280.06
789.522	308.73
789.703	284.16
789.884	267.77
790.065	257.53
790.246	282.11
790.427	253.44
790.607	325.12
790.788	273.92
790.969	253.44
791.15	273.92
791.331	259.58
791.512	222.72
791.693	218.62
791.874	263.68
792.054	245.24
792.235	321.02
792.416	212.48
792.597	210.43
792.778	316.92
792.958	282.11
793.139	323.07
793.32	243.2
793.5	120.32
793.681	226.81
793.862	278.01
794.042	194.05
794.223	118.27
794.404	243.2
794.584	169.47
794.765	210.43
794.945	177.66
795.126	235
795.306	235
795.487	243.2
795.667	267.77
795.848	224.76
796.028	239.1
796.209	165.37
796.389	226.81
796.57	222.72
796.75	161.28
796.93	161.28
797.111	93.69
797.291	132.61
797.471	169.47
797.652	169.47
797.832	136.7
798.012	202.24
798.192	196.09
798.373	167.42
798.553	220.67
798.733	235
798.913	198.14
799.093	210.43
799.274	249.34
799.454	196.09
799.634	255.48
799.814	226.81
799.994	179.71
800.174	169.47
800.354	173.57
800.534	112.13
800.714	196.09
800.894	136.7
801.074	110.08
801.254	110.08
801.434	159.23
801.614	181.76
801.794	120.32
801.974	761.33
802.154	110.08
802.334	161.28
802.514	114.17
802.693	179.71
802.873	151.04
803.053	177.66
803.233	163.33
803.413	144.89
803.592	183.81
803.772	130.56
803.952	114.17
804.131	214.52
804.311	214.52
804.491	120.32
804.67	159.23
804.85	171.52
805.03	159.23
805.209	163.33
805.389	105.98
805.568	120.32
805.748	112.13
805.928	169.47
806.107	120.32
806.287	179.71
806.466	46.59
806.646	198.14
806.825	153.09
807.004	130.56
807.184	136.7
807.363	159.23
807.543	95.74
807.722	58.88
807.901	103.93
808.081	110.08
808.26	81.41
808.439	69.12
808.619	155.13
808.798	171.52
808.977	122.37
809.156	97.79
809.336	62.98
809.515	187.9
809.694	103.93
809.873	105.98
810.052	112.13
810.231	148.99
810.411	151.04
810.59	140.8
810.769	77.31
810.948	79.36
811.127	22.02
811.306	112.13
811.485	95.74
811.664	196.09
811.843	136.7
812.022	114.17
812.201	40.45
812.38	22.02
812.559	62.98
812.737	136.7
812.916	5.63
813.095	95.74
813.274	99.84
813.453	87.55
813.632	103.93
813.811	58.88
813.989	24.06
814.168	116.22
814.347	105.98
814.526	157.18
814.704	95.74
814.883	128.51
815.062	69.12
815.24	95.74
815.419	79.36
815.598	134.65
815.776	32.26
815.955	87.55
816.133	13.82
816.312	83.45
816.49	93.69
816.669	138.75
816.847	54.78
817.026	103.93
817.204	17.92
817.383	50.69
817.561	112.13
817.74	140.8
817.918	67.07
818.097	38.4
818.275	140.8
818.453	50.69
818.632	60.93
818.81	7.68
818.988	58.88
819.167	73.21
819.345	32.26
819.523	56.83
819.701	69.12
819.879	46.59
820.058	83.45
820.236	99.84
820.414	62.98
820.592	32.26
820.77	54.78
820.948	28.16
821.127	136.7
821.305	89.6
821.483	54.78
821.661	130.56
821.839	42.5
822.017	65.02
822.195	42.5
822.373	73.21
822.551	54.78
822.729	52.74
822.907	60.93
823.085	62.98
823.262	81.41
823.44	40.45
823.618	114.17
823.796	42.5
823.974	44.54
824.152	83.45
824.329	79.36
824.507	26.11
824.685	87.55
824.863	77.31
825.04	60.93
825.218	75.26
825.396	138.75
825.574	36.35
825.751	79.36
825.929	101.89
826.107	-6.66
826.284	95.74
826.462	67.07
826.639	34.3
826.817	5.63
826.994	40.45
827.172	-0.51
827.349	38.4
827.527	60.93
827.704	54.78
827.882	24.06
828.059	28.16
828.237	5.63
828.414	24.06
828.591	48.64
828.769	34.3
828.946	34.3
829.124	83.45
829.301	62.98
829.478	5.63
829.655	67.07
829.833	15.87
830.01	42.5
830.187	30.21
830.364	46.59
830.542	108.03
830.719	26.11
830.896	77.31
831.073	50.69
831.25	54.78
831.427	136.7
831.604	71.17
831.782	40.45
831.959	26.11
832.136	42.5
832.313	97.79
832.49	-2.56
832.667	67.07
832.844	46.59
833.021	83.45
833.198	-45.57
833.374	42.5
833.551	42.5
833.728	52.74
833.905	50.69
834.082	-35.33
834.259	-20.99
834.436	130.56
834.612	34.3
834.789	120.32
834.966	40.45
835.143	62.98
835.319	54.78
835.496	19.97
835.673	46.59
835.85	95.74
836.026	83.45
836.203	34.3
836.38	38.4
836.556	5.63
836.733	-39.42
836.909	22.02
837.086	-27.14
837.262	52.74
837.439	32.26
837.616	-53.76
837.792	-33.28
837.968	26.11
838.145	-20.99
838.321	30.21
838.498	1.54
838.674	-31.23
838.851	3.58
839.027	60.93
839.203	-23.04
839.38	5.63
839.556	-27.14
839.732	32.26
839.909	-6.66
840.085	62.98
840.261	26.11
840.437	62.98
840.614	48.64
840.79	-0.51
840.966	75.26
841.142	32.26
841.318	9.73
841.494	62.98
841.671	26.11
841.847	-2.56
842.023	-33.28
842.199	65.02
842.375	26.11
842.551	-16.9
842.727	11.78
842.903	69.12
843.079	17.92
843.255	79.36
843.431	13.82
843.607	103.93
843.783	-2.56
843.959	15.87
844.134	19.97
844.31	19.97
844.486	28.16
844.662	36.35
844.838	-18.94
845.013	5.63
845.189	75.26
845.365	22.02
845.541	77.31
845.716	-23.04
845.892	71.17
846.068	-10.75
846.244	-0.51
846.419	30.21
846.595	-57.86
846.77	52.74
846.946	1.54
847.122	75.26
847.297	-6.66
847.473	54.78
847.648	-74.24
847.824	30.21
847.999	-12.8
848.175	-57.86
848.35	-86.53
848.526	7.68
848.701	1.54
848.876	40.45
849.052	44.54
849.227	28.16
849.403	15.87
849.578	-33.28
849.753	-18.94
849.929	73.21
850.104	-41.47
850.279	26.11
850.454	-23.04
850.63	7.68
850.805	38.4
850.98	9.73
851.155	-25.09
851.33	-10.75
851.505	-18.94
851.681	17.92
851.856	-2.56
852.031	7.68
852.206	40.45
852.381	-51.71
852.556	19.97
852.731	44.54
852.906	28.16
853.081	32.26
853.256	103.93
853.431	-25.09
853.606	15.87
853.781	-18.94
853.956	-6.66
854.131	17.92
854.305	13.82
854.48	24.06
854.655	9.73
854.83	-8.7
855.005	-35.33
855.18	22.02
855.354	75.26
855.529	42.5
855.704	-14.85
855.879	-2.56
856.053	-66.05
856.228	-41.47
856.403	-31.23
856.577	-6.66
856.752	-31.23
856.926	-2.56
857.101	-27.14
857.276	-10.75
857.45	-8.7
857.625	30.21
857.799	19.97
857.974	46.59
858.148	-47.62
858.323	-35.33
858.497	13.82
858.672	-31.23
858.846	-39.42
859.02	40.45
859.195	-20.99
859.369	5.63
859.543	24.06
859.718	30.21
859.892	-35.33
860.066	9.73
860.241	36.35
860.415	-31.23
860.589	-31.23
860.763	-35.33
860.938	-68.09
861.112	58.88
861.286	-41.47
861.46	5.63
861.634	-27.14
861.808	54.78
861.982	-33.28
862.157	-18.94
862.331	-8.7
862.505	42.5
862.679	-23.04
862.853	-35.33
863.027	-45.57
863.201	24.06
863.375	9.73
863.549	34.3
863.722	38.4
863.896	30.21
864.07	-27.14
864.244	34.3
864.418	40.45
864.592	7.68
864.766	73.21
864.939	5.63
865.113	-33.28
865.287	-27.14
865.461	-23.04
865.634	-37.38
865.808	-35.33
865.982	-14.85
866.156	-66.05
866.329	1.54
866.503	-10.75
866.676	5.63
866.85	24.06
867.024	7.68
867.197	71.17
867.371	32.26
867.544	-43.52
867.718	17.92
867.891	-0.51
868.065	-66.05
868.238	-35.33
868.412	-4.61
868.585	-16.9
868.759	22.02
868.932	-31.23
869.105	-10.75
869.279	-27.14
869.452	-66.05
869.625	30.21
869.799	-12.8
869.972	32.26
870.145	22.02
870.319	38.4
870.492	42.5
870.665	5.63
870.838	-27.14
871.011	-86.53
871.185	9.73
871.358	9.73
871.531	-37.38
871.704	-115.2
871.877	-8.7
872.05	-59.9
872.223	-31.23
872.396	28.16
872.569	26.11
872.742	15.87
872.915	-59.9
873.088	-66.05
873.261	-31.23
873.434	13.82
873.607	-8.7
873.78	-68.09
873.953	15.87
874.126	-43.52
874.299	-8.7
874.471	-18.94
874.644	13.82
874.817	36.35
874.99	22.02
875.163	-35.33
875.335	11.78
875.508	-90.62
875.681	-33.28
875.853	-123.39
876.026	-2.56
876.199	-2.56
876.371	-0.51
876.544	-49.66
876.717	48.64
876.889	-66.05
877.062	9.73
877.234	-33.28
877.407	-51.71
877.579	46.59
877.752	-18.94
877.924	-27.14
878.097	46.59
878.269	30.21
878.442	5.63
878.614	13.82
878.786	-4.61
878.959	22.02
879.131	-2.56
879.303	-18.94
879.476	62.98
879.648	-6.66
879.82	22.02
879.993	-10.75
880.165	-35.33
880.337	-4.61
880.509	-33.28
880.681	22.02
880.854	7.68
881.026	-6.66
881.198	-0.51
881.37	-4.61
881.542	-31.23
881.714	-41.47
881.886	11.78
882.058	-33.28
882.23	7.68
882.402	-33.28
882.574	81.41
882.746	-4.61
882.918	-8.7
883.09	-27.14
883.262	-33.28
883.434	-68.09
883.606	-90.62
883.778	-23.04
883.95	15.87
884.122	-55.81
884.293	13.82
884.465	-59.9
884.637	-18.94
884.809	-10.75
884.98	-18.94
885.152	-33.28
885.324	5.63
885.496	-43.52
885.667	13.82
885.839	-23.04
886.011	71.17
886.182	-10.75
886.354	50.69
886.525	-33.28
886.697	-4.61
886.869	-18.94
887.04	-51.71
887.212	-10.75
887.383	114.17
887.555	7.68
887.726	5.63
887.897	-45.57
888.069	40.45
888.24	-45.57
888.412	-31.23
888.583	-70.14
888.754	-10.75
888.926	13.82
889.097	-41.47
889.268	-35.33
889.44	7.68
889.611	-14.85
889.782	-68.09
889.953	65.02
890.125	7.68
890.296	-39.42
890.467	5.63
890.638	-68.09
890.809	26.11
890.98	-64
891.151	71.17
891.323	-2.56
891.494	-68.09
891.665	-20.99
891.836	3.58
892.007	-6.66
892.178	13.82
892.349	46.59
892.52	30.21
892.691	46.59
892.862	-33.28
893.032	-20.99
893.203	-8.7
893.374	5.63
893.545	11.78
893.716	-55.81
893.887	-2.56
894.057	-43.52
894.228	-35.33
894.399	-20.99
894.57	91.65
894.74	-25.09
894.911	-18.94
895.082	-66.05
895.253	-37.38
895.423	-84.48
895.594	-27.14
895.764	-33.28
895.935	-8.7
896.106	-10.75
896.276	-43.52
896.447	22.02
896.617	-76.29
896.788	-33.28
896.958	15.87
897.129	26.11
897.299	22.02
897.47	5.63
897.64	5.63
897.81	-0.51
897.981	-2.56
898.151	-29.18
898.322	48.64
898.492	3.58
898.662	-57.86
898.832	-104.96
899.003	3.58
899.173	38.4
899.343	-88.57
899.513	-51.71
