Data from USB4F104151__71__14-17-23-613.txt Node

Date: Thu Mar 13 14:17:23 EDT 2025
User: louis
Spectrometer: USB4F10415
Trigger mode: 4
Integration Time (sec): 2.000000E-2
Scans to average: 1
Electric dark correction enabled: true
Nonlinearity correction enabled: false
Boxcar width: 0
XAxis mode: Wavelengths
Number of Pixels in Spectrum: 3648
>>>>>Begin Spectral Data<<<<<
178.204	-141.99
178.424	-141.99
178.644	-141.99
178.864	-70.31
179.084	-41.64
179.304	-39.59
179.524	-12.97
179.744	-19.11
179.964	27.99
180.184	-39.59
180.404	32.08
180.624	-0.68
180.844	3.41
181.064	-39.59
181.283	34.13
181.503	9.56
181.723	44.37
181.943	-37.55
182.163	15.7
182.383	66.9
182.602	87.38
182.822	44.37
183.042	36.18
183.262	58.71
183.482	40.28
183.701	-6.83
183.921	-4.78
184.141	9.56
184.361	27.99
184.58	44.37
184.8	103.76
185.02	-8.87
185.239	42.32
185.459	93.52
185.679	128.34
185.898	21.85
186.118	-27.31
186.338	-6.83
186.557	-10.92
186.777	1.37
186.997	19.8
187.216	91.48
187.436	-15.02
187.655	-6.83
187.875	50.52
188.095	77.14
188.314	62.8
188.534	105.81
188.753	-15.02
188.973	30.04
189.192	30.04
189.412	7.51
189.631	95.57
189.851	42.32
190.07	66.9
190.29	3.41
190.509	91.48
190.729	-15.02
190.948	150.87
191.168	126.29
191.387	107.86
191.607	-0.68
191.826	83.28
192.045	62.8
192.265	25.94
192.484	42.32
192.704	27.99
192.923	21.85
193.142	79.19
193.362	-0.68
193.581	134.48
193.8	68.95
194.02	79.19
194.239	91.48
194.458	-4.78
194.678	17.75
194.897	77.14
195.116	81.24
195.335	-15.02
195.555	48.47
195.774	38.23
195.993	101.72
196.212	34.13
196.432	-31.4
196.651	38.23
196.87	-39.59
197.089	75.09
197.308	-23.21
197.528	64.85
197.747	27.99
197.966	17.75
198.185	11.61
198.404	58.71
198.623	7.51
198.842	15.7
199.062	1.37
199.281	46.42
199.5	58.71
199.719	165.2
199.938	66.9
200.157	60.76
200.376	91.48
200.595	42.32
200.814	27.99
201.033	3.41
201.252	50.52
201.471	25.94
201.69	25.94
201.909	34.13
202.128	13.65
202.347	50.52
202.566	-23.21
202.785	-31.4
203.004	-21.16
203.223	97.62
203.442	-35.5
203.661	60.76
203.879	17.75
204.098	75.09
204.317	122.2
204.536	44.37
204.755	42.32
204.974	46.42
205.193	1.37
205.411	87.38
205.63	11.61
205.849	-4.78
206.068	77.14
206.287	52.56
206.505	79.19
206.724	85.33
206.943	48.47
207.162	77.14
207.381	66.9
207.599	36.18
207.818	58.71
208.037	36.18
208.255	-2.73
208.474	50.52
208.693	91.48
208.911	50.52
209.13	19.8
209.349	54.61
209.567	85.33
209.786	1.37
210.005	101.72
210.223	60.76
210.442	3.41
210.661	97.62
210.879	48.47
211.098	81.24
211.316	91.48
211.535	25.94
211.753	124.24
211.972	11.61
212.191	64.85
212.409	81.24
212.628	68.95
212.846	64.85
213.065	58.71
213.283	99.67
213.502	5.46
213.72	52.56
213.938	58.71
214.157	64.85
214.375	73.04
214.594	46.42
214.812	122.2
215.031	1.37
215.249	-68.27
215.467	25.94
215.686	21.85
215.904	91.48
216.122	58.71
216.341	157.01
216.559	36.18
216.778	56.66
216.996	23.89
217.214	42.32
217.432	42.32
217.651	-47.79
217.869	42.32
218.087	-21.16
218.306	32.08
218.524	25.94
218.742	89.43
218.96	21.85
219.179	109.91
219.397	15.7
219.615	91.48
219.833	38.23
220.051	42.32
220.27	27.99
220.488	93.52
220.706	126.29
220.924	25.94
221.142	111.96
221.36	5.46
221.578	150.87
221.796	3.41
222.015	38.23
222.233	126.29
222.451	68.95
222.669	66.9
222.887	60.76
223.105	27.99
223.323	-15.02
223.541	-35.5
223.759	58.71
223.977	73.04
224.195	66.9
224.413	36.18
224.631	68.95
224.849	54.61
225.067	109.91
225.285	19.8
225.503	99.67
225.721	48.47
225.939	7.51
226.157	-19.11
226.375	114
226.592	25.94
226.81	71
227.028	75.09
227.246	124.24
227.464	46.42
227.682	66.9
227.9	52.56
228.117	99.67
228.335	36.18
228.553	48.47
228.771	99.67
228.989	27.99
229.206	36.18
229.424	-10.92
229.642	71
229.86	52.56
230.077	101.72
230.295	11.61
230.513	75.09
230.731	32.08
230.948	109.91
231.166	132.44
231.384	25.94
231.601	25.94
231.819	34.13
232.037	68.95
232.254	38.23
232.472	128.34
232.689	-60.07
232.907	144.72
233.125	-15.02
233.342	13.65
233.56	48.47
233.777	42.32
233.995	-2.73
234.213	99.67
234.43	75.09
234.648	77.14
234.865	21.85
235.083	38.23
235.3	71
235.518	77.14
235.735	73.04
235.953	34.13
236.17	60.76
236.388	60.76
236.605	154.96
236.822	13.65
237.04	58.71
237.257	140.63
237.475	85.33
237.692	38.23
237.909	1.37
238.127	17.75
238.344	-2.73
238.562	79.19
238.779	75.09
238.996	32.08
239.214	62.8
239.431	114
239.648	56.66
239.865	17.75
240.083	42.32
240.3	99.67
240.517	62.8
240.735	-6.83
240.952	60.76
241.169	58.71
241.386	-15.02
241.603	136.53
241.821	40.28
242.038	50.52
242.255	85.33
242.472	-35.5
242.689	118.1
242.907	116.05
243.124	-55.98
243.341	103.76
243.558	21.85
243.775	17.75
243.992	34.13
244.209	71
244.426	87.38
244.643	44.37
244.86	54.61
245.078	46.42
245.295	87.38
245.512	107.86
245.729	50.52
245.946	161.11
246.163	42.32
246.38	66.9
246.597	93.52
246.814	58.71
247.031	109.91
247.248	30.04
247.464	42.32
247.681	21.85
247.898	118.1
248.115	44.37
248.332	13.65
248.549	111.96
248.766	128.34
248.983	52.56
249.2	56.66
249.417	17.75
249.633	58.71
249.85	79.19
250.067	-31.4
250.284	75.09
250.501	27.99
250.717	101.72
250.934	71
251.151	52.56
251.368	38.23
251.585	79.19
251.801	66.9
252.018	21.85
252.235	13.65
252.451	60.76
252.668	19.8
252.885	68.95
253.102	118.1
253.318	9.56
253.535	17.75
253.752	30.04
253.968	66.9
254.185	13.65
254.401	79.19
254.618	77.14
254.835	48.47
255.051	81.24
255.268	-6.83
255.484	-6.83
255.701	95.57
255.917	75.09
256.134	46.42
256.351	71
256.567	48.47
256.784	11.61
257	9.56
257.217	111.96
257.433	107.86
257.65	30.04
257.866	75.09
258.082	58.71
258.299	42.32
258.515	9.56
258.732	58.71
258.948	-21.16
259.165	56.66
259.381	21.85
259.597	58.71
259.814	5.46
260.03	111.96
260.246	38.23
260.463	75.09
260.679	11.61
260.895	27.99
261.112	44.37
261.328	-49.83
261.544	-6.83
261.761	46.42
261.977	42.32
262.193	99.67
262.409	99.67
262.626	99.67
262.842	132.44
263.058	-10.92
263.274	97.62
263.49	91.48
263.707	36.18
263.923	101.72
264.139	38.23
264.355	75.09
264.571	38.23
264.787	42.32
265.004	32.08
265.22	83.28
265.436	71
265.652	54.61
265.868	-17.07
266.084	66.9
266.3	15.7
266.516	21.85
266.732	140.63
266.948	140.63
267.164	17.75
267.38	77.14
267.596	128.34
267.812	157.01
268.028	99.67
268.244	25.94
268.46	44.37
268.676	60.76
268.892	19.8
269.108	11.61
269.324	-4.78
269.54	-58.03
269.756	42.32
269.972	79.19
270.188	77.14
270.403	40.28
270.619	142.68
270.835	9.56
271.051	25.94
271.267	-10.92
271.483	9.56
271.698	91.48
271.914	44.37
272.13	75.09
272.346	44.37
272.562	46.42
272.777	38.23
272.993	93.52
273.209	-2.73
273.425	58.71
273.64	46.42
273.856	83.28
274.072	19.8
274.287	36.18
274.503	81.24
274.719	40.28
274.934	44.37
275.15	75.09
275.366	3.41
275.581	50.52
275.797	17.75
276.012	19.8
276.228	25.94
276.444	48.47
276.659	85.33
276.875	19.8
277.09	62.8
277.306	50.52
277.521	99.67
277.737	58.71
277.952	95.57
278.168	-4.78
278.383	58.71
278.599	17.75
278.814	103.76
279.03	66.9
279.245	64.85
279.461	62.8
279.676	97.62
279.892	-0.68
280.107	58.71
280.322	46.42
280.538	105.81
280.753	38.23
280.969	-15.02
281.184	58.71
281.399	34.13
281.615	23.89
281.83	42.32
282.045	71
282.26	30.04
282.476	95.57
282.691	140.63
282.906	-35.5
283.122	30.04
283.337	66.9
283.552	34.13
283.767	75.09
283.983	-19.11
284.198	-19.11
284.413	13.65
284.628	21.85
284.843	60.76
285.058	68.95
285.274	75.09
285.489	19.8
285.704	46.42
285.919	89.43
286.134	25.94
286.349	95.57
286.564	95.57
286.779	46.42
286.995	34.13
287.21	-15.02
287.425	34.13
287.64	15.7
287.855	60.76
288.07	79.19
288.285	91.48
288.5	75.09
288.715	83.28
288.93	-2.73
289.145	50.52
289.36	1.37
289.575	-35.5
289.79	56.66
290.004	-47.79
290.219	77.14
290.434	-6.83
290.649	44.37
290.864	66.9
291.079	75.09
291.294	36.18
291.509	68.95
291.724	99.67
291.938	46.42
292.153	101.72
292.368	34.13
292.583	50.52
292.798	64.85
293.012	73.04
293.227	21.85
293.442	124.24
293.657	136.53
293.871	46.42
294.086	-10.92
294.301	73.04
294.516	64.85
294.73	1.37
294.945	-2.73
295.16	66.9
295.374	109.91
295.589	79.19
295.804	48.47
296.018	54.61
296.233	81.24
296.447	54.61
296.662	25.94
296.877	66.9
297.091	75.09
297.306	175.44
297.52	50.52
297.735	99.67
297.949	71
298.164	44.37
298.378	-19.11
298.593	-6.83
298.807	15.7
299.022	75.09
299.236	38.23
299.451	54.61
299.665	13.65
299.88	3.41
300.094	79.19
300.309	1.37
300.523	44.37
300.737	68.95
300.952	114
301.166	54.61
301.381	68.95
301.595	15.7
301.809	19.8
302.024	97.62
302.238	30.04
302.452	56.66
302.667	27.99
302.881	109.91
303.095	27.99
303.309	75.09
303.524	54.61
303.738	79.19
303.952	-2.73
304.166	38.23
304.381	54.61
304.595	99.67
304.809	50.52
305.023	93.52
305.237	42.32
305.452	66.9
305.666	-2.73
305.88	50.52
306.094	83.28
306.308	46.42
306.522	44.37
306.736	93.52
306.95	91.48
307.164	79.19
307.379	38.23
307.593	99.67
307.807	36.18
308.021	103.76
308.235	60.76
308.449	54.61
308.663	38.23
308.877	71
309.091	34.13
309.305	107.86
309.519	25.94
309.733	109.91
309.947	3.41
310.161	66.9
310.374	44.37
310.588	87.38
310.802	77.14
311.016	50.52
311.23	36.18
311.444	-39.59
311.658	25.94
311.872	21.85
312.085	109.91
312.299	64.85
312.513	66.9
312.727	30.04
312.941	9.56
313.154	56.66
313.368	124.24
313.582	30.04
313.796	46.42
314.009	66.9
314.223	3.41
314.437	54.61
314.651	34.13
314.864	109.91
315.078	30.04
315.292	17.75
315.505	81.24
315.719	68.95
315.933	-6.83
316.146	1.37
316.36	89.43
316.573	91.48
316.787	120.15
317.001	5.46
317.214	91.48
317.428	64.85
317.641	36.18
317.855	95.57
318.068	-6.83
318.282	105.81
318.495	75.09
318.709	52.56
318.922	21.85
319.136	134.48
319.349	81.24
319.563	34.13
319.776	50.52
319.99	5.46
320.203	42.32
320.417	66.9
320.63	38.23
320.843	132.44
321.057	36.18
321.27	36.18
321.483	60.76
321.697	105.81
321.91	62.8
322.124	79.19
322.337	93.52
322.55	60.76
322.763	148.82
322.977	87.38
323.19	99.67
323.403	161.11
323.617	93.52
323.83	68.95
324.043	109.91
324.256	60.76
324.469	85.33
324.683	75.09
324.896	42.32
325.109	66.9
325.322	21.85
325.535	89.43
325.748	87.38
325.962	87.38
326.175	42.32
326.388	75.09
326.601	40.28
326.814	42.32
327.027	60.76
327.24	71
327.453	25.94
327.666	15.7
327.879	71
328.092	25.94
328.305	99.67
328.518	60.76
328.731	52.56
328.944	46.42
329.157	11.61
329.37	136.53
329.583	71
329.796	116.05
330.009	-6.83
330.222	107.86
330.435	58.71
330.648	99.67
330.861	42.32
331.073	97.62
331.286	50.52
331.499	77.14
331.712	34.13
331.925	89.43
332.138	13.65
332.35	116.05
332.563	124.24
332.776	66.9
332.989	23.89
333.202	30.04
333.414	54.61
333.627	66.9
333.84	58.71
334.053	71
334.265	25.94
334.478	89.43
334.691	58.71
334.903	46.42
335.116	17.75
335.329	52.56
335.541	95.57
335.754	116.05
335.966	25.94
336.179	62.8
336.392	42.32
336.604	109.91
336.817	58.71
337.029	157.01
337.242	58.71
337.454	13.65
337.667	75.09
337.88	19.8
338.092	25.94
338.305	54.61
338.517	42.32
338.729	93.52
338.942	75.09
339.154	-15.02
339.367	48.47
339.579	64.85
339.792	5.46
340.004	75.09
340.217	38.23
340.429	73.04
340.641	75.09
340.854	62.8
341.066	99.67
341.278	71
341.491	66.9
341.703	52.56
341.915	101.72
342.128	66.9
342.34	9.56
342.552	17.75
342.764	75.09
342.977	68.95
343.189	66.9
343.401	95.57
343.613	-25.26
343.826	101.72
344.038	56.66
344.25	36.18
344.462	7.51
344.674	64.85
344.886	-15.02
345.099	111.96
345.311	83.28
345.523	103.76
345.735	42.32
345.947	68.95
346.159	169.3
346.371	50.52
346.583	7.51
346.795	83.28
347.007	21.85
347.219	85.33
347.431	93.52
347.643	109.91
347.855	21.85
348.067	163.15
348.279	83.28
348.491	36.18
348.703	32.08
348.915	11.61
349.127	-4.78
349.339	68.95
349.551	60.76
349.763	95.57
349.975	105.81
350.187	128.34
350.399	105.81
350.61	-31.4
350.822	54.61
351.034	111.96
351.246	64.85
351.458	79.19
351.669	52.56
351.881	99.67
352.093	68.95
352.305	71
352.517	13.65
352.728	85.33
352.94	85.33
353.152	66.9
353.363	-10.92
353.575	11.61
353.787	79.19
353.999	97.62
354.21	114
354.422	13.65
354.633	9.56
354.845	36.18
355.057	27.99
355.268	58.71
355.48	68.95
355.692	44.37
355.903	73.04
356.115	34.13
356.326	40.28
356.538	103.76
356.749	50.52
356.961	111.96
357.172	-23.21
357.384	68.95
357.595	136.53
357.807	66.9
358.018	60.76
358.23	38.23
358.441	23.89
358.653	17.75
358.864	34.13
359.075	101.72
359.287	128.34
359.498	42.32
359.709	11.61
359.921	103.76
360.132	34.13
360.344	50.52
360.555	42.32
360.766	11.61
360.977	17.75
361.189	120.15
361.4	-12.97
361.611	134.48
361.823	93.52
362.034	116.05
362.245	30.04
362.456	21.85
362.667	91.48
362.879	-15.02
363.09	99.67
363.301	23.89
363.512	66.9
363.723	89.43
363.935	13.65
364.146	50.52
364.357	34.13
364.568	34.13
364.779	85.33
364.99	128.34
365.201	60.76
365.412	30.04
365.623	71
365.834	107.86
366.045	64.85
366.256	105.81
366.467	71
366.678	89.43
366.889	83.28
367.1	44.37
367.311	136.53
367.522	71
367.733	105.81
367.944	50.52
368.155	68.95
368.366	126.29
368.577	44.37
368.788	87.38
368.999	58.71
369.209	60.76
369.42	75.09
369.631	157.01
369.842	140.63
370.053	75.09
370.264	68.95
370.474	46.42
370.685	9.56
370.896	36.18
371.107	9.56
371.317	58.71
371.528	122.2
371.739	97.62
371.95	56.66
372.16	77.14
372.371	58.71
372.582	95.57
372.792	132.44
373.003	91.48
373.214	81.24
373.424	52.56
373.635	-15.02
373.846	91.48
374.056	58.71
374.267	91.48
374.477	103.76
374.688	60.76
374.898	95.57
375.109	85.33
375.319	157.01
375.53	167.25
375.74	103.76
375.951	83.28
376.161	17.75
376.372	93.52
376.582	15.7
376.793	122.2
377.003	21.85
377.214	83.28
377.424	32.08
377.635	120.15
377.845	-0.68
378.055	95.57
378.266	9.56
378.476	36.18
378.686	66.9
378.897	50.52
379.107	75.09
379.317	120.15
379.528	62.8
379.738	97.62
379.948	-23.21
380.158	15.7
380.369	17.75
380.579	118.1
380.789	-12.97
380.999	95.57
381.21	124.24
381.42	195.92
381.63	91.48
381.84	85.33
382.05	107.86
382.261	120.15
382.471	42.32
382.681	93.52
382.891	142.68
383.101	81.24
383.311	71
383.521	75.09
383.731	52.56
383.941	136.53
384.151	32.08
384.361	52.56
384.571	-4.78
384.781	116.05
384.991	167.25
385.201	44.37
385.411	134.48
385.621	23.89
385.831	85.33
386.041	52.56
386.251	73.04
386.461	62.8
386.671	87.38
386.881	66.9
387.091	21.85
387.301	58.71
387.511	71
387.72	77.14
387.93	56.66
388.14	83.28
388.35	66.9
388.56	99.67
388.769	99.67
388.979	68.95
389.189	50.52
389.399	62.8
389.609	60.76
389.818	58.71
390.028	75.09
390.238	134.48
390.447	38.23
390.657	50.52
390.867	79.19
391.076	148.82
391.286	56.66
391.496	30.04
391.705	58.71
391.915	109.91
392.125	68.95
392.334	118.1
392.544	111.96
392.753	138.58
392.963	77.14
393.172	126.29
393.382	77.14
393.591	124.24
393.801	62.8
394.01	169.3
394.22	91.48
394.429	91.48
394.639	116.05
394.848	99.67
395.058	124.24
395.267	103.76
395.477	148.82
395.686	75.09
395.895	163.15
396.105	165.2
396.314	114
396.524	118.1
396.733	91.48
396.942	177.49
397.152	109.91
397.361	157.01
397.57	99.67
397.78	124.24
397.989	175.44
398.198	157.01
398.407	87.38
398.617	148.82
398.826	38.23
399.035	116.05
399.244	165.2
399.453	142.68
399.663	66.9
399.872	118.1
400.081	60.76
400.29	197.97
400.499	197.97
400.708	161.11
400.917	175.44
401.127	140.63
401.336	107.86
401.545	157.01
401.754	83.28
401.963	105.81
402.172	107.86
402.381	132.44
402.59	105.81
402.799	136.53
403.008	140.63
403.217	152.91
403.426	134.48
403.635	140.63
403.844	161.11
404.053	148.82
404.262	187.73
404.471	218.45
404.68	175.44
404.888	120.15
405.097	157.01
405.306	200.02
405.515	169.3
405.724	200.02
405.933	204.11
406.142	206.16
406.35	226.64
406.559	245.07
406.768	251.22
406.977	273.75
407.185	214.35
407.394	195.92
407.603	210.26
407.812	230.74
408.02	298.32
408.229	245.07
408.438	294.22
408.646	271.7
408.855	296.27
409.064	343.38
409.272	339.28
409.481	257.36
409.69	308.56
409.898	286.03
410.107	370
410.315	404.82
410.524	320.85
410.733	365.9
410.941	363.86
411.15	478.54
411.358	496.97
411.567	378.19
411.775	519.5
411.984	552.27
412.192	533.84
412.401	550.22
412.609	484.69
412.818	533.84
413.026	525.65
413.234	593.23
413.443	636.24
413.651	582.99
413.86	580.94
414.068	730.44
414.276	742.73
414.485	693.58
414.693	732.49
414.901	767.31
415.11	863.56
415.318	816.46
415.526	812.36
415.734	857.42
415.943	830.79
416.151	922.95
416.359	959.81
416.567	869.7
416.776	963.91
416.984	1039.69
417.192	1107.27
417.4	1041.73
417.608	1013.06
417.817	1131.84
418.025	1252.67
418.233	1320.26
418.441	1168.71
418.649	1338.69
418.857	1373.5
419.065	1420.61
419.273	1324.35
419.481	1461.57
419.689	1590.59
419.897	1645.88
420.105	1615.16
420.313	1729.85
420.521	1742.14
420.729	1721.66
420.937	1848.63
421.145	1957.18
421.353	1912.12
421.561	2121.01
421.769	2098.49
421.977	2286.9
422.185	2250.03
422.393	2311.47
422.601	2616.62
422.809	2387.25
423.017	2555.18
423.224	2606.38
423.432	2614.57
423.64	2655.53
423.848	3108.13
424.056	2805.03
424.263	3009.83
424.471	3099.94
424.679	3231.01
424.887	3435.81
425.094	3478.82
425.302	3458.34
425.51	3573.02
425.718	3583.26
425.925	3763.48
426.133	3863.83
426.341	4076.82
426.548	4248.85
426.756	4310.29
426.964	4275.48
427.171	4691.21
427.379	4732.17
427.586	4662.54
427.794	4924.68
428.001	5117.19
428.209	5285.12
428.417	5248.26
428.624	5766.4
428.832	5668.09
429.039	5520.64
429.247	5565.7
429.454	6161.66
429.662	6581.49
429.869	6155.51
430.076	6421.75
430.284	6270.2
430.491	6419.7
430.699	7060.71
430.906	7007.47
431.114	6931.69
431.321	7288.04
431.528	7486.69
431.736	7806.17
431.943	8152.28
432.15	8056.03
432.358	8056.03
432.565	8525.01
432.772	8725.71
432.979	8971.47
433.187	9034.96
433.394	9211.08
433.601	9942.21
433.808	9788.61
434.016	9782.46
434.223	10220.73
434.43	10740.91
434.637	10507.44
434.844	11158.7
435.052	11252.91
435.259	11246.76
435.466	11439.27
435.673	11388.07
435.88	12123.29
436.087	12661.91
436.294	12655.76
436.501	12434.58
436.708	12700.82
436.915	13137.04
437.122	13733
437.329	13634.69
437.537	14163.07
437.743	14322.81
437.95	14386.3
438.157	15127.66
438.364	15316.08
438.571	15252.59
438.778	15361.13
438.985	16688.21
439.192	16092.26
439.399	16743.51
439.606	16190.56
439.813	17349.71
440.02	18156.61
440.227	17982.53
440.433	17861.7
440.64	18166.85
440.847	18402.36
441.054	18893.88
441.261	20010.02
441.467	19463.21
441.674	20071.46
441.881	20694.04
442.088	20902.93
442.294	20436
442.501	21001.24
442.708	21611.53
442.914	22424.58
443.121	23127.03
443.328	22807.55
443.534	24288.23
443.741	23749.61
443.948	23428.08
444.154	25066.45
444.361	24691.68
444.568	25005.02
444.774	24953.82
444.981	25093.08
445.187	25744.33
445.394	26962.87
445.6	26895.29
445.807	29119.38
446.013	27845.55
446.22	28349.35
446.426	29791.12
446.633	29764.5
446.839	30948.22
447.046	29281.17
447.252	31036.28
447.459	31163.26
447.665	30864.25
447.871	32445.29
448.078	33960.78
448.284	32285.54
448.491	33002.33
448.697	34243.4
448.903	34855.75
449.11	34833.22
449.316	34466.63
449.522	35083.07
449.728	36018.99
449.935	35935.03
450.141	36305.71
450.347	37032.74
450.553	36062
450.76	36195.12
450.966	37589.78
451.172	37092.13
451.378	38044.43
451.584	37135.13
451.791	37976.85
451.997	37833.49
452.203	38624.01
452.409	38984.45
452.615	38408.97
452.821	37116.7
453.027	36600.61
453.233	38806.28
453.44	37153.57
453.646	37387.03
453.852	37716.76
454.058	38183.69
454.264	37096.22
454.47	37958.42
454.676	36793.12
454.882	38337.29
455.088	35091.26
455.294	35494.71
455.5	36141.87
455.705	36102.96
455.911	34880.32
456.117	34409.29
456.323	33715.03
456.529	32060.27
456.735	33512.28
456.941	32412.52
457.147	31982.45
457.352	30925.69
457.558	30616.45
457.764	30774.14
457.97	30327.69
458.176	29610.9
458.381	29854.61
458.587	28097.45
458.793	27947.95
458.999	26538.94
459.204	28599.2
459.41	27648.94
459.616	25942.99
459.821	26014.66
460.027	26186.69
460.233	25713.61
460.438	24331.23
460.644	24423.39
460.85	23442.42
461.055	22883.32
461.261	23084.02
461.466	21177.36
461.672	20636.7
461.878	21980.17
462.083	20470.81
462.289	20165.67
462.494	19891.24
462.7	19072.05
462.905	18603.07
463.111	19369.01
463.316	19493.93
463.522	19047.47
463.727	18936.88
463.932	19043.38
464.138	18572.35
464.343	18842.68
464.549	18412.6
464.754	18826.29
464.959	18965.56
465.165	18668.6
465.37	17857.6
465.575	17405
465.781	17996.87
465.986	18105.41
466.191	17458.25
466.397	17224.78
466.602	16323.68
466.807	16950.35
467.012	16995.41
467.218	16737.37
467.423	16809.04
467.628	16747.61
467.833	17546.31
468.038	16680.02
468.244	16268.38
468.449	16970.83
468.654	16421.98
468.859	16241.76
469.064	15922.27
469.269	15383.66
469.474	15758.44
469.679	15627.37
469.885	15578.22
470.09	15723.62
470.295	15541.35
470.5	15148.14
470.705	15498.34
470.91	15213.68
471.115	14918.77
471.32	15281.26
471.525	14691.45
471.73	14793.84
471.935	14541.94
472.139	14181.5
472.344	14371.96
472.549	14066.81
472.754	13913.22
472.959	13790.34
473.164	13231.24
473.369	13399.18
473.574	13646.98
473.778	13620.36
473.983	13622.41
474.188	13616.26
474.393	12829.84
474.598	12772.5
474.802	12833.94
475.007	12567.7
475.212	12686.48
475.417	12313.75
475.621	12379.29
475.826	12280.99
476.031	11961.5
476.235	11685.03
476.44	12168.35
476.645	11826.34
476.849	11701.41
477.054	11635.88
477.259	11472.04
477.463	11388.07
477.668	11185.32
477.872	11400.36
478.077	11205.8
478.282	10888.37
478.486	10931.37
478.691	10790.06
478.895	10697.91
479.1	10691.76
479.304	10654.9
479.509	10382.52
479.713	10521.78
479.918	10233.02
480.122	10187.96
480.326	10413.24
480.531	10388.66
480.735	10167.48
480.94	10187.96
481.144	10249.4
481.348	9749.7
481.553	10044.6
481.757	9702.59
481.961	9983.16
482.166	10020.03
482.37	10060.99
482.574	9774.27
482.778	9856.19
482.983	10208.44
483.187	10093.76
483.391	9872.57
483.595	9739.46
483.8	9516.23
484.004	9989.31
484.208	9766.08
484.412	9811.14
484.616	9972.93
484.821	9972.93
485.025	9837.76
485.229	9774.27
485.433	9606.34
485.637	9784.51
485.841	9692.35
486.045	9770.18
486.249	9950.4
486.453	9753.79
486.657	9655.49
486.861	9833.66
487.065	9718.98
487.269	9954.49
487.473	9661.63
487.677	9899.2
487.881	10038.46
488.085	9755.84
488.289	9841.86
488.493	9882.81
488.697	10015.93
488.901	10011.84
489.105	9999.55
489.309	9874.62
489.512	9923.77
489.716	10011.84
489.92	9827.52
490.124	9848
490.328	10173.63
490.531	9999.55
490.735	10104
490.939	10200.25
491.143	10077.37
491.346	9884.86
491.55	10226.87
491.754	10306.74
491.958	10388.66
492.161	10370.23
492.365	10472.63
492.569	10349.75
492.772	10316.98
492.976	10429.62
493.18	10548.4
493.383	10751.15
493.587	10753.2
493.79	10847.41
493.994	10753.2
494.197	10775.73
494.401	10669.23
494.605	10970.29
494.808	11093.16
495.012	11046.06
495.215	11134.12
495.419	11457.7
495.622	11373.74
495.825	11361.45
496.029	11486.37
496.232	11719.84
496.436	11588.77
496.639	11906.21
496.843	11773.09
497.046	12059.81
497.249	12319.9
497.453	12379.29
497.656	12383.38
497.859	12270.75
498.063	12436.63
498.266	12870.8
498.469	12766.35
498.673	13126.8
498.876	12991.63
499.079	13024.4
499.282	13096.08
499.485	13599.88
499.689	13503.62
499.892	13759.62
500.095	13769.86
500.298	14365.82
500.501	14124.16
500.705	14541.94
500.908	14453.88
501.111	14730.36
501.314	14812.28
501.517	14816.37
501.72	15090.8
501.923	14986.35
502.126	15311.98
502.329	15744.1
502.532	15823.97
502.735	15649.89
502.938	15961.19
503.141	16165.98
503.344	16215.13
503.547	16426.07
503.75	16911.44
503.953	17153.1
504.156	17183.82
504.359	17445.96
504.562	17343.56
504.765	17722.44
504.968	17898.56
505.17	18097.22
505.373	18195.52
505.576	18457.66
505.779	18461.76
505.982	18644.02
506.185	18910.26
506.387	19059.76
506.59	19276.85
506.793	19649.58
506.996	19774.5
507.198	20421.66
507.401	20022.31
507.604	20446.24
507.807	20653.08
508.009	20726.81
508.212	21013.52
508.415	21165.07
508.617	21359.63
508.82	21537.8
509.022	21597.2
509.225	22320.13
509.428	22330.37
509.63	22330.37
509.833	22412.29
510.035	23415.79
510.238	22856.7
510.44	23397.36
510.643	23323.63
510.845	23352.31
511.048	23784.43
511.25	23815.15
511.453	24237.03
511.655	25312.21
511.858	24644.57
512.06	25277.4
512.262	25381.84
512.465	25160.66
512.667	25881.55
512.87	26010.57
513.072	26104.77
513.274	26538.94
513.477	26983.35
513.679	26971.07
513.881	27286.45
514.084	27401.14
514.286	27597.74
514.488	28011.43
514.69	28552.1
514.893	28969.88
515.095	28529.57
515.297	29016.99
515.499	28904.35
515.701	29389.72
515.904	29674.38
516.106	30012.3
516.308	30251.91
516.51	30729.09
516.712	30782.34
516.914	30927.74
517.116	31136.63
517.318	31497.08
517.52	32017.26
517.722	31859.57
517.925	32414.57
518.127	32158.57
518.329	32910.18
518.531	32512.87
518.733	33291.1
518.935	33876.82
519.136	33629.01
519.338	33956.69
519.54	34184.01
519.742	34638.66
519.944	34497.35
520.146	35244.86
520.348	35298.11
520.55	35574.58
520.752	35644.21
520.954	36115.25
521.155	36016.94
521.357	36748.07
521.559	36805.41
521.761	37374.75
521.963	36905.76
522.164	37108.51
522.366	37569.3
522.568	37780.24
522.77	38247.18
522.971	38337.29
523.173	38384.4
523.375	38761.22
523.576	38689.54
523.778	38816.52
523.98	39496.44
524.181	39949.04
524.383	39662.33
524.584	40289.01
524.786	40254.19
524.988	39621.37
525.189	40573.67
525.391	40577.77
525.592	41024.23
525.794	40958.69
525.995	41161.44
526.197	41208.54
526.398	41136.87
526.6	41763.54
526.801	42052.31
527.003	41956.05
527.204	41982.68
527.406	42486.48
527.607	42246.86
527.808	42308.3
528.01	42269.39
528.211	42760.9
528.412	43295.42
528.614	43057.86
528.815	42773.19
529.016	43662.01
529.218	42808.01
529.419	43236.03
529.62	43582.14
529.822	43459.26
530.023	43385.54
530.224	43772.6
530.425	43662.01
530.626	43242.18
530.828	43469.5
531.029	44149.43
531.23	43406.01
531.431	43578.04
531.632	43883.19
531.833	44118.71
532.035	44006.07
532.236	44163.76
532.437	44102.32
532.638	44110.52
532.839	44241.59
533.04	44235.44
533.241	43883.19
533.442	44413.62
533.643	44518.06
533.844	44647.08
534.045	44268.21
534.246	43905.72
534.447	44511.92
534.648	44425.9
534.849	44898.98
535.05	44206.77
535.251	44634.8
535.451	44212.91
535.652	44747.43
535.853	44235.44
536.054	44378.8
536.255	44815.02
536.456	43875
536.657	44931.75
536.857	44292.79
537.058	44403.38
537.259	44661.42
537.46	45028.01
537.66	44495.53
537.861	44491.44
538.062	44671.66
538.263	44511.92
538.463	44831.4
538.664	44456.62
538.865	44460.72
539.065	44651.18
539.266	43870.9
539.466	44886.7
539.667	44137.14
539.868	44733.1
540.068	44241.59
540.269	44307.12
540.469	44335.79
540.67	44380.85
540.87	44155.57
541.071	44405.42
541.271	44636.84
541.472	44022.45
541.672	44204.72
541.873	44116.66
542.073	43958.97
542.274	44874.41
542.474	44116.66
542.675	44276.4
542.875	44890.79
543.075	44167.86
543.276	43748.03
543.476	44315.31
543.676	44030.65
543.877	44485.29
544.077	44305.07
544.277	44174
544.478	44294.83
544.678	43782.84
544.878	44350.13
545.078	44311.22
545.279	43920.06
545.479	44104.37
545.679	44272.31
545.879	43918.01
546.079	44096.18
546.28	44145.33
546.48	43647.68
546.68	44311.22
546.88	44069.56
547.08	43758.27
547.28	43725.5
547.48	43801.27
547.68	44114.61
547.88	43576
548.081	44139.19
548.281	43795.13
548.481	43694.78
548.681	44477.1
548.881	44143.28
549.081	43918.01
549.28	43682.49
549.48	44331.7
549.68	43668.15
549.88	44522.16
550.08	44063.41
550.28	44026.55
550.48	44169.91
550.68	44092.08
550.88	43616.96
551.08	43891.38
551.279	43641.53
551.479	43293.38
551.679	43809.46
551.879	43772.6
552.079	43920.06
552.278	43317.95
552.478	43924.15
552.678	43686.59
552.878	43856.57
553.077	43647.68
553.277	43397.82
553.477	43887.29
553.676	43375.3
553.876	43815.61
554.076	43559.61
554.275	43729.59
554.475	43408.06
554.674	43385.54
554.874	43485.89
555.074	43264.71
555.273	43496.13
555.473	43760.31
555.672	42889.93
555.872	42873.54
556.071	43258.56
556.271	43469.5
556.47	43039.43
556.67	42861.26
556.869	42975.94
557.068	43088.58
557.268	42898.12
557.467	43100.87
557.667	42971.85
557.866	42904.26
558.065	42812.1
558.265	42816.2
558.464	42326.74
558.663	42855.11
558.863	42500.81
559.062	43145.92
559.261	42441.42
559.461	43180.74
559.66	41870.04
559.859	42506.96
560.058	42150.61
560.258	42486.48
560.457	42040.02
560.656	42306.26
560.855	42394.32
561.054	42463.95
561.253	41833.17
561.453	42175.19
561.652	42210
561.851	42289.87
562.05	41665.24
562.249	41671.39
562.448	41575.13
562.647	42183.38
562.846	41650.91
563.045	41790.17
563.244	41493.21
563.443	42062.55
563.642	41110.24
563.841	41499.36
564.04	41267.94
564.239	41741.02
564.438	41399.01
564.637	41147.11
564.836	41218.78
565.035	40968.93
565.234	41050.85
565.432	40723.18
565.631	40757.99
565.83	40997.6
566.029	40786.66
566.228	40385.26
566.427	40585.96
566.625	40526.57
566.824	39914.23
567.023	40479.47
567.222	40078.07
567.42	40426.22
567.619	40047.35
567.818	39942.9
568.016	40125.17
568.215	39850.74
568.414	39678.71
568.612	40229.62
568.811	39445.24
569.01	40063.73
569.208	39275.26
569.407	39639.8
569.605	38822.66
569.804	39746.29
570.002	39484.15
570.201	39230.21
570.4	38777.61
570.598	38652.68
570.797	38288.14
570.995	38808.33
571.193	38701.83
571.392	38777.61
571.59	38527.75
571.789	38730.5
571.987	38296.33
572.186	38552.33
572.384	38388.49
572.582	38148.88
572.781	38370.06
572.979	37561.11
573.177	37931.79
573.376	37978.9
573.574	37362.46
573.772	37727
573.971	37583.64
574.169	37413.66
574.367	37042.98
574.565	37511.96
574.763	37440.28
574.962	37055.26
575.16	36789.03
575.358	37030.69
575.556	36657.96
575.754	36862.75
575.952	36518.7
576.151	37092.13
576.349	36281.13
576.547	36496.17
576.745	36330.28
576.943	36287.28
577.141	36369.19
577.339	36447.02
577.537	36291.37
577.735	36043.57
577.933	35943.22
578.131	35799.86
578.329	35646.26
578.527	35562.29
578.725	35498.81
578.923	35846.96
579.121	35394.36
579.319	35302.2
579.516	35240.76
579.714	35070.78
579.912	35025.73
580.11	34820.93
580.308	35152.7
580.506	34843.46
580.704	34284.36
580.901	34696
581.099	35142.46
581.297	34009.93
581.495	34409.29
581.692	34716.48
581.89	34249.55
582.088	34612.04
582.285	34067.28
582.483	34468.68
582.681	33817.43
582.878	34263.88
583.076	33717.07
583.274	34044.75
583.471	33557.33
583.669	33526.61
583.866	33370.97
584.064	33643.35
584.262	33405.78
584.459	33512.28
584.657	33151.84
584.854	33250.14
585.052	32531.3
585.249	32666.47
585.447	32957.28
585.644	32250.73
585.841	32865.12
586.039	32736.1
586.236	32353.13
586.434	32371.56
586.631	32453.48
586.828	32344.94
587.026	31994.73
587.223	32074.6
587.42	32015.21
587.618	31632.24
587.815	31806.32
588.012	31746.93
588.21	31613.81
588.407	32111.47
588.604	31701.87
588.801	31441.78
588.999	31347.57
589.196	31400.82
589.393	31515.51
589.59	30999.42
589.787	30583.68
589.984	31024
590.182	30825.34
590.379	30776.19
590.576	30671.75
590.773	30600.07
590.97	30237.58
591.167	30526.34
591.364	30163.85
591.561	30366.6
591.758	29928.33
591.955	29813.65
592.152	30260.1
592.349	29750.16
592.546	30094.22
592.743	30096.27
592.94	29402
593.137	29879.18
593.334	29993.87
593.531	28930.97
593.727	29596.56
593.924	29184.92
594.121	29244.31
594.318	29041.56
594.515	28789.66
594.712	29072.28
594.908	28763.04
595.105	29023.13
595.302	28730.27
595.499	28935.07
595.696	28578.72
595.892	28144.55
596.089	28511.14
596.286	28631.97
596.482	28244.9
596.679	28443.56
596.876	28173.22
597.072	27831.21
597.269	27726.77
597.466	27870.12
597.662	27866.03
597.859	27743.15
598.055	27638.7
598.252	27581.36
598.448	27769.77
598.645	27444.15
598.841	26858.43
599.038	27136.95
599.234	27356.08
599.431	26729.41
599.627	27087.8
599.824	26958.78
600.02	27077.56
600.217	26837.95
600.413	26917.82
600.609	26524.61
600.806	26612.67
601.002	26291.14
601.198	26194.89
601.395	26551.23
601.591	26338.24
601.787	26110.92
601.984	26172.36
602.18	26160.07
602.376	25957.32
602.572	25721.8
602.769	25662.41
602.965	25482.19
603.161	25576.4
603.357	25533.39
603.553	25566.16
603.75	25535.44
603.946	25078.74
604.142	25211.86
604.338	24691.68
604.534	25238.48
604.73	24806.36
604.926	24685.53
605.122	25070.55
605.318	24658.91
605.514	24611.81
605.71	24878.04
605.906	24701.92
606.102	24480.74
606.298	24699.87
606.494	24644.57
606.69	24347.62
606.886	24634.33
607.082	24212.45
607.278	24480.74
607.474	23935.98
607.67	24036.33
607.866	23727.08
608.062	24108.01
608.257	24275.94
608.453	23995.37
608.649	23806.95
608.845	23954.41
609.041	23534.57
609.236	23858.15
609.432	23395.31
609.628	23692.27
609.824	23600.11
610.019	23469.04
610.215	23516.14
610.411	23577.58
610.606	23557.1
610.802	23528.43
610.998	23387.12
611.193	23329.78
611.389	22795.26
611.584	23307.25
611.78	22862.84
611.976	23163.89
612.171	23124.98
612.367	23071.73
612.562	22889.46
612.758	22825.98
612.953	22672.38
613.149	22901.75
613.344	22297.6
613.539	23069.69
613.735	22780.92
613.93	22930.42
614.126	22520.83
614.321	22477.82
614.517	22766.59
614.712	22340.61
614.907	22277.12
615.103	22496.25
615.298	22361.09
615.493	22574.08
615.688	22008.84
615.884	22504.45
616.079	22080.52
616.274	22373.38
616.47	22440.96
616.665	22215.68
616.86	21865.48
617.055	21623.82
617.25	21978.12
617.445	22023.17
617.641	21580.81
617.836	21838.86
618.031	21515.28
618.226	21443.6
618.421	21455.89
618.616	21703.69
618.811	21101.59
619.006	21410.83
619.201	20896.79
619.396	21316.62
619.591	20818.97
619.786	21263.38
619.981	20532.25
620.176	20902.93
620.371	20614.17
620.566	20749.34
620.761	20605.98
620.956	20575.26
621.151	20161.57
621.346	20522.01
621.541	19811.37
621.735	20321.31
621.93	19991.59
622.125	19981.35
622.32	19825.7
622.515	19622.95
622.709	19606.57
622.904	19758.12
623.099	19436.59
623.294	19153.97
623.488	19088.43
623.683	19194.93
623.878	18803.77
624.072	18897.97
624.267	18803.77
624.462	18840.63
624.656	18572.35
624.851	18754.62
625.046	18345.02
625.24	18543.67
625.435	18142.27
625.629	18125.89
625.824	17990.72
626.018	18019.39
626.213	17935.43
626.407	17867.84
626.602	17495.11
626.796	17591.37
626.991	17577.03
627.185	17411.15
627.38	17478.73
627.574	17196.11
627.768	17255.5
627.963	17138.77
628.157	16901.2
628.352	17013.84
628.546	16788.57
628.74	16882.77
628.935	16567.38
629.129	16761.94
629.323	16313.44
629.517	16409.69
629.712	16170.08
629.906	16282.72
630.1	15832.16
630.294	15991.91
630.489	15846.5
630.683	16026.72
630.877	15660.13
631.071	15637.61
631.265	15856.74
631.459	15529.06
631.653	15406.19
631.848	15107.18
632.042	15420.52
632.236	15299.69
632.43	15135.85
632.624	15160.43
632.818	14894.19
633.012	14711.92
633.206	14855.28
633.4	14683.25
633.594	14593.14
633.788	14668.92
633.982	14496.89
634.176	14640.25
634.369	14240.89
634.563	14312.57
634.757	14369.91
634.951	14144.64
635.145	14288
635.339	14093.44
635.533	13968.51
635.726	14072.96
635.92	13821.06
636.114	13862.02
636.308	13782.15
636.501	13755.52
636.695	13681.8
636.889	13753.48
637.083	13257.87
637.276	13427.85
637.47	13188.24
637.664	13151.37
637.857	13149.32
638.051	13302.92
638.244	12852.37
638.438	12936.34
638.632	13159.56
638.825	12960.91
639.019	12870.8
639.212	12735.64
639.406	12641.43
639.599	12536.98
639.793	12604.56
639.986	12309.66
640.18	12383.38
640.373	12176.54
640.567	11891.87
640.76	12166.3
640.954	11986.08
641.147	12051.61
641.34	12113.05
641.534	12135.58
641.727	11807.91
641.92	11865.25
642.114	11619.49
642.307	11609.25
642.5	11646.12
642.694	11365.54
642.887	11314.34
643.08	11490.47
643.273	11388.07
643.467	11377.83
643.66	11074.73
643.853	11330.73
644.046	11046.06
644.239	11236.52
644.432	11003.05
644.626	10855.6
644.819	10853.55
645.012	10966.19
645.205	10970.29
645.398	10546.36
645.591	10568.88
645.784	10618.04
645.977	10460.34
646.17	10656.95
646.363	10355.9
646.556	10446.01
646.749	10454.2
646.942	10380.47
647.135	10263.74
647.328	10364.09
647.521	10179.77
647.714	10034.36
647.907	9876.67
648.099	9796.8
648.292	9839.81
648.485	9839.81
648.678	9630.91
648.871	9710.79
649.064	9721.02
649.256	9800.9
649.449	9458.89
649.642	9712.83
649.835	9360.58
650.027	9475.27
650.22	9225.42
650.413	9430.21
650.605	9315.53
650.798	9135.31
650.991	9110.73
651.183	9366.73
651.376	9168.07
651.568	9037
651.761	9028.81
651.954	8897.74
652.146	8979.66
652.339	8893.65
652.531	8758.48
652.724	8768.72
652.916	8557.78
653.109	8584.4
653.301	8594.64
653.494	8627.41
653.686	8635.6
653.879	8463.57
654.071	8482
654.263	8299.73
654.456	8176.86
654.648	8398.04
654.84	8197.34
655.033	8219.86
655.225	8111.32
655.417	8015.07
655.61	8170.71
655.802	8088.79
655.994	8006.88
656.186	7955.68
656.379	7908.57
656.571	8076.51
656.763	7836.89
656.955	7744.74
657.148	7912.67
657.34	7771.36
657.532	7636.19
657.724	7623.91
657.916	7675.1
658.108	7556.32
658.3	7595.23
658.492	7619.81
658.684	7271.65
658.876	7591.14
659.068	7449.83
659.26	7435.49
659.452	7273.7
659.644	7337.19
659.836	7163.11
660.028	7224.55
660.22	7111.91
660.412	7029.99
660.604	6827.25
660.796	7122.15
660.988	7029.99
661.18	6941.93
661.372	6905.07
661.563	7048.43
661.755	6917.36
661.947	6925.55
662.139	6765.81
662.331	6950.12
662.522	6776.05
662.714	6741.23
662.906	6616.3
663.097	6567.15
663.289	6614.26
663.481	6548.72
663.673	6581.49
663.864	6540.53
664.056	6554.87
664.247	6450.42
664.439	6337.78
664.631	6458.61
664.822	6245.62
665.014	6327.54
665.205	6317.3
665.397	6180.09
665.588	6360.31
665.78	6333.68
665.971	6147.32
666.163	6139.13
666.354	6089.98
666.546	6067.45
666.737	6016.25
666.929	6049.02
667.12	6014.2
667.311	5911.8
667.503	5952.76
667.694	5891.32
667.885	5858.56
668.077	5778.69
668.268	5889.28
668.459	5780.73
668.651	5844.22
668.842	5876.99
669.033	5754.11
669.224	5784.83
669.416	5772.54
669.607	5649.66
669.798	5684.48
669.989	5678.33
670.18	5555.46
670.371	5551.36
670.563	5528.83
670.754	5555.46
670.945	5467.39
671.136	5281.03
671.327	5444.87
671.518	5211.4
671.709	5399.81
671.9	5530.88
672.091	5397.76
672.282	5313.8
672.473	5412.1
672.664	5332.23
672.855	5106.95
673.046	5217.54
673.237	5362.95
673.428	5219.59
673.619	5180.68
673.809	5166.34
674	5121.29
674.191	5045.51
674.382	5014.79
674.573	5000.46
674.764	4865.29
674.954	4984.07
675.145	4840.72
675.336	4969.74
675.527	5076.23
675.717	4969.74
675.908	5014.79
676.099	5025.03
676.289	5008.65
676.48	5020.94
676.671	4910.35
676.861	5027.08
677.052	4822.28
677.243	4891.91
677.433	4769.04
677.624	4795.66
677.814	4769.04
678.005	4678.93
678.195	4715.79
678.386	4754.7
678.576	4633.87
678.767	4764.94
678.957	4672.78
679.148	4787.47
679.338	4574.48
679.529	4746.51
679.719	4666.64
679.909	4588.82
680.1	4703.5
680.29	4482.32
680.481	4617.49
680.671	4631.82
680.861	4594.96
681.052	4619.53
681.242	4623.63
681.432	4531.47
681.622	4633.87
681.813	4343.06
682.003	4404.5
682.193	4486.42
682.383	4580.62
682.573	4496.66
682.764	4418.83
682.954	4453.65
683.144	4476.18
683.334	4478.23
683.524	4525.33
683.714	4320.53
683.904	4306.2
684.094	4410.64
684.284	4379.92
684.474	4263.19
684.664	4433.17
684.854	4318.48
685.044	4183.32
685.234	4224.28
685.424	4459.79
685.614	4234.52
685.804	4406.55
685.994	4230.42
686.184	4203.8
686.374	4175.13
686.564	4144.41
686.753	4230.42
686.943	4230.42
687.133	4109.59
687.323	4103.45
687.513	4160.79
687.702	4095.25
687.892	3953.94
688.082	4304.15
688.272	3964.18
688.461	4007.19
688.651	4113.69
688.841	3853.59
689.03	3921.18
689.22	3931.42
689.41	3980.57
689.599	3986.71
689.789	3912.99
689.979	3982.62
690.168	3783.96
690.358	3802.4
690.547	3958.04
690.737	3818.78
690.926	3783.96
691.116	3640.61
691.305	3843.35
691.495	3790.11
691.684	3515.68
691.874	3601.69
692.063	3679.52
692.252	3712.28
692.442	3589.41
692.631	3605.79
692.82	3597.6
693.01	3665.18
693.199	3542.3
693.388	3446.05
693.578	3566.88
693.767	3515.68
693.956	3671.33
694.146	3589.41
694.335	3472.67
694.524	3613.98
694.713	3380.51
694.902	3609.89
695.092	3396.9
695.281	3454.24
695.47	3470.62
695.659	3542.3
695.848	3470.62
696.037	3339.55
696.226	3446.05
696.415	3444
696.604	3487.01
696.793	3452.19
696.982	3505.44
697.171	3370.27
697.36	3378.47
697.549	3329.31
697.738	3360.03
697.927	3325.22
698.116	3466.53
698.305	3433.76
698.494	3433.76
698.683	3179.81
698.872	3446.05
699.061	3366.18
699.25	3224.87
699.438	3302.69
699.627	3304.74
699.816	3167.52
700.005	3222.82
700.193	3210.53
700.382	3245.35
700.571	3157.29
700.76	3192.1
700.948	3237.16
701.137	3132.71
701.326	3222.82
701.514	3212.58
701.703	3282.21
701.892	3132.71
702.08	3163.43
702.269	3159.33
702.457	3132.71
702.646	3196.2
702.834	3124.52
703.023	3196.2
703.212	3028.26
703.4	3122.47
703.589	3147.05
703.777	3081.51
703.965	2927.91
704.154	3099.94
704.342	3067.17
704.531	3085.61
704.719	2985.26
704.907	3073.32
705.096	3106.09
705.284	3124.52
705.472	3093.8
705.661	3015.98
705.849	3075.37
706.037	3026.22
706.226	3028.26
706.414	2921.77
706.602	3040.55
706.79	3028.26
706.979	3013.93
707.167	3116.33
707.355	2966.82
707.543	2940.2
707.731	2942.25
707.919	3116.33
708.107	2934.06
708.296	2962.73
708.484	2981.16
708.672	2934.06
708.86	2911.53
709.048	3009.83
709.236	2759.98
709.424	2893.1
709.612	2868.52
709.8	2811.18
709.988	2950.44
710.176	2827.56
710.364	2962.73
710.551	2932.01
710.739	2874.67
710.927	2802.99
711.115	2960.68
711.303	2829.61
711.491	2891.05
711.679	2778.41
711.866	2786.6
712.054	2899.24
712.242	2788.65
712.43	2802.99
712.617	2805.03
712.805	2788.65
712.993	2729.26
713.181	2645.29
713.368	2850.09
713.556	2821.42
713.744	2719.02
713.931	2745.64
714.119	2663.72
714.306	2749.74
714.494	2706.73
714.682	2747.69
714.869	2651.44
715.057	2729.26
715.244	2739.5
715.432	2762.03
715.619	2626.86
715.807	2592.05
715.994	2596.14
716.182	2708.78
716.369	2694.44
716.556	2667.82
716.744	2764.08
716.931	2630.96
717.119	2712.88
717.306	2561.33
717.493	2704.68
717.681	2686.25
717.868	2647.34
718.055	2657.58
718.242	2774.32
718.43	2778.41
718.617	2655.53
718.804	2802.99
718.991	2590
719.179	2714.92
719.366	2460.98
719.553	2585.9
719.74	2579.76
719.927	2561.33
720.114	2518.32
720.301	2557.23
720.488	2454.83
720.676	2501.94
720.863	2665.77
721.05	2598.19
721.237	2622.77
721.424	2522.41
721.611	2516.27
721.798	2475.31
721.985	2471.22
722.172	2434.35
722.358	2456.88
722.545	2540.85
722.732	2426.16
722.919	2516.27
723.106	2522.41
723.293	2442.54
723.48	2551.09
723.667	2405.68
723.853	2360.63
724.04	2524.46
724.227	2479.41
724.414	2372.91
724.6	2383.15
724.787	2352.43
724.974	2522.41
725.161	2489.65
725.347	2436.4
725.534	2434.35
725.72	2264.37
725.907	2475.31
726.094	2368.82
726.28	2434.35
726.467	2440.5
726.653	2352.43
726.84	2321.71
727.027	2301.23
727.213	2321.71
727.4	2405.68
727.586	2397.49
727.773	2313.52
727.959	2422.06
728.145	2334
728.332	2401.58
728.518	2338.1
728.705	2389.3
728.891	2417.97
729.077	2305.33
729.264	2360.63
729.45	2243.89
729.636	2405.68
729.823	2196.79
730.009	2278.71
730.195	2274.61
730.382	2426.16
730.568	2247.99
730.754	2290.99
730.94	2303.28
731.126	2295.09
731.313	2268.47
731.499	2288.95
731.685	2417.97
731.871	2278.71
732.057	2295.09
732.243	2295.09
732.429	2239.8
732.615	2272.56
732.801	2260.27
732.987	2276.66
733.173	2207.03
733.359	2131.25
733.545	2176.31
733.731	2164.02
733.917	2172.21
734.103	2182.45
734.289	2180.4
734.475	2182.45
734.661	2295.09
734.847	2172.21
735.033	2135.35
735.219	2237.75
735.404	2086.2
735.59	2186.55
735.776	2223.41
735.962	2190.64
736.148	2170.16
736.333	2223.41
736.519	2123.06
736.705	2090.29
736.89	2127.16
737.076	2112.82
737.262	2078.01
737.447	2198.84
737.633	2014.52
737.819	2188.6
738.004	2114.87
738.19	2133.3
738.375	2065.72
738.561	2172.21
738.747	2075.96
738.932	2078.01
739.118	2098.49
739.303	2135.35
739.489	2112.82
739.674	2073.91
739.859	2053.43
740.045	1983.8
740.23	2014.52
740.416	1903.93
740.601	2037.05
740.786	1959.22
740.972	2045.24
741.157	2059.57
741.342	1955.13
741.528	2090.29
741.713	1983.8
741.898	1893.69
742.084	1836.35
742.269	1955.13
742.454	1991.99
742.639	2014.52
742.824	1918.26
743.01	1938.74
743.195	1797.43
743.38	1934.65
743.565	1779
743.75	1918.26
743.935	1824.06
744.12	1959.22
744.305	1785.15
744.49	1817.91
744.675	1873.21
744.86	1803.58
745.045	1770.81
745.23	1897.78
745.415	1865.02
745.6	1787.19
745.785	1793.34
745.97	1830.2
746.155	1729.85
746.34	1762.62
746.525	1826.11
746.71	1797.43
746.895	1742.14
747.079	1635.64
747.264	1647.93
747.449	1766.71
747.634	1615.16
747.819	1611.07
748.003	1674.56
748.188	1764.67
748.373	1705.28
748.557	1582.4
748.742	1676.6
748.927	1602.88
749.111	1680.7
749.296	1619.26
749.481	1559.87
749.665	1563.97
749.85	1559.87
750.034	1543.49
750.219	1492.29
750.404	1525.05
750.588	1451.33
750.773	1520.96
750.957	1584.45
751.141	1480
751.326	1576.25
751.51	1445.18
751.695	1428.8
751.879	1406.27
752.064	1557.82
752.248	1332.54
752.432	1418.56
752.617	1445.18
752.801	1430.85
752.985	1475.9
753.17	1305.92
753.354	1355.07
753.538	1256.77
753.722	1404.22
753.907	1303.87
754.091	1361.22
754.275	1221.95
754.459	1248.58
754.643	1316.16
754.828	1344.83
755.012	1281.35
755.196	1242.43
755.38	1326.4
755.564	1209.67
755.748	1260.87
755.932	1312.07
756.116	1269.06
756.3	1158.47
756.484	1230.15
756.668	1109.32
756.852	1228.1
757.036	1156.42
757.22	1211.71
757.404	1164.61
757.588	1160.52
757.772	1230.15
757.956	1099.08
758.14	1129.8
758.323	1129.8
758.507	1148.23
758.691	1088.84
758.875	1181
759.059	1150.28
759.242	1054.02
759.426	1078.6
759.61	1047.88
759.794	1103.17
759.977	1039.69
760.161	1101.12
760.345	1133.89
760.528	1066.31
760.712	1090.88
760.895	1072.45
761.079	1013.06
761.263	972.1
761.446	963.91
761.63	1066.31
761.813	963.91
761.997	986.44
762.18	884.04
762.364	1031.49
762.547	1068.36
762.731	998.73
762.914	970.05
763.098	890.18
763.281	1015.11
763.464	1025.35
763.648	935.24
763.831	943.43
764.015	933.19
764.198	861.51
764.381	902.47
764.564	865.61
764.748	1004.87
764.931	890.18
765.114	863.56
765.297	943.43
765.481	877.9
765.664	912.71
765.847	927.05
766.03	890.18
766.213	843.08
766.397	896.33
766.58	787.79
766.763	863.56
766.946	886.09
767.129	904.52
767.312	890.18
767.495	898.38
767.678	920.9
767.861	886.09
768.044	906.57
768.227	830.79
768.41	834.89
768.593	875.85
768.776	822.6
768.959	824.65
769.142	826.7
769.324	828.74
769.507	816.46
769.69	793.93
769.873	777.55
770.056	845.13
770.239	808.27
770.421	830.79
770.604	808.27
770.787	804.17
770.97	857.42
771.152	826.7
771.335	714.06
771.518	761.16
771.7	763.21
771.883	789.83
772.066	775.5
772.248	755.02
772.431	765.26
772.613	759.11
772.796	736.59
772.978	781.64
773.161	816.46
773.343	626
773.526	763.21
773.708	697.67
773.891	697.67
774.073	726.35
774.256	695.63
774.438	765.26
774.621	666.96
774.803	681.29
774.985	658.76
775.168	707.91
775.35	671.05
775.532	660.81
775.715	701.77
775.897	673.1
776.079	671.05
776.261	632.14
776.444	701.77
776.626	693.58
776.808	599.37
776.99	652.62
777.173	611.66
777.355	664.91
777.537	642.38
777.719	529.74
777.901	566.6
778.083	603.47
778.265	607.56
778.447	607.56
778.629	599.37
778.811	574.8
778.993	505.17
779.175	582.99
779.357	496.97
779.539	615.76
779.721	568.65
779.903	527.69
780.085	658.76
780.267	544.08
780.449	523.6
780.631	558.41
780.812	513.36
780.994	525.65
781.176	574.8
781.358	486.73
781.54	486.73
781.721	517.45
781.903	591.18
782.085	591.18
782.267	501.07
782.448	542.03
782.63	499.02
782.812	562.51
782.993	517.45
783.175	431.44
783.357	484.69
783.538	499.02
783.72	494.93
783.901	513.36
784.083	447.82
784.264	478.54
784.446	419.15
784.627	429.39
784.809	445.77
784.99	466.25
785.172	419.15
785.353	552.27
785.535	427.34
785.716	478.54
785.897	378.19
786.079	419.15
786.26	415.06
786.441	331.09
786.623	376.14
786.804	421.2
786.985	367.95
787.167	439.63
787.348	460.11
787.529	318.8
787.71	486.73
787.891	413.01
788.073	372.05
788.254	347.47
788.435	386.38
788.616	396.62
788.797	406.86
788.978	402.77
789.159	308.56
789.34	408.91
789.522	378.19
789.703	351.57
789.884	443.73
790.065	320.85
790.246	394.58
790.427	386.38
790.607	322.9
790.788	353.62
790.969	320.85
791.15	314.7
791.331	372.05
791.512	326.99
791.693	314.7
791.874	337.23
792.054	388.43
792.235	333.14
792.416	281.94
792.597	361.81
792.778	281.94
792.958	339.28
793.139	388.43
793.32	300.37
793.5	296.27
793.681	263.51
793.862	386.38
794.042	347.47
794.223	296.27
794.404	257.36
794.584	251.22
794.765	251.22
794.945	337.23
795.126	359.76
795.306	320.85
795.487	238.93
795.667	310.61
795.848	290.13
796.028	304.46
796.209	306.51
796.389	222.55
796.57	277.84
796.75	249.17
796.93	271.7
797.111	169.3
797.291	243.03
797.471	279.89
797.652	322.9
797.832	243.03
798.012	296.27
798.192	251.22
798.373	249.17
798.553	308.56
798.733	273.75
798.913	253.27
799.093	265.55
799.274	218.45
799.454	232.79
799.634	257.36
799.814	265.55
799.994	253.27
800.174	228.69
800.354	189.78
800.534	283.98
800.714	263.51
800.894	238.93
801.074	234.83
801.254	222.55
801.434	240.98
801.614	173.39
801.794	193.87
801.974	804.17
802.154	253.27
802.334	212.31
802.514	148.82
802.693	197.97
802.873	269.65
803.053	228.69
803.233	232.79
803.413	181.59
803.592	187.73
803.772	169.3
803.952	230.74
804.131	247.12
804.311	157.01
804.491	279.89
804.67	245.07
804.85	161.11
805.03	154.96
805.209	259.41
805.389	220.5
805.568	169.3
805.748	142.68
805.928	206.16
806.107	171.35
806.287	259.41
806.466	173.39
806.646	161.11
806.825	150.87
807.004	245.07
807.184	144.72
807.363	206.16
807.543	238.93
807.722	195.92
807.901	230.74
808.081	214.35
808.26	218.45
808.439	138.58
808.619	226.64
808.798	210.26
808.977	208.21
809.156	234.83
809.336	191.83
809.515	212.31
809.694	161.11
809.873	212.31
810.052	214.35
810.231	259.41
810.411	148.82
810.59	136.53
810.769	179.54
810.948	195.92
811.127	116.05
811.306	132.44
811.485	185.68
811.664	271.7
811.843	150.87
812.022	107.86
812.201	152.91
812.38	165.2
812.559	142.68
812.737	136.53
812.916	116.05
813.095	175.44
813.274	105.81
813.453	165.2
813.632	193.87
813.811	118.1
813.989	130.39
814.168	140.63
814.347	54.61
814.526	144.72
814.704	134.48
814.883	167.25
815.062	91.48
815.24	157.01
815.419	140.63
815.598	181.59
815.776	114
815.955	165.2
816.133	142.68
816.312	167.25
816.49	161.11
816.669	134.48
816.847	157.01
817.026	140.63
817.204	154.96
817.383	107.86
817.561	167.25
817.74	161.11
817.918	126.29
818.097	103.76
818.275	152.91
818.453	97.62
818.632	71
818.81	81.24
818.988	120.15
819.167	167.25
819.345	75.09
819.523	142.68
819.701	95.57
819.879	150.87
820.058	189.78
820.236	99.67
820.414	154.96
820.592	144.72
820.77	99.67
820.948	60.76
821.127	109.91
821.305	71
821.483	107.86
821.661	75.09
821.839	81.24
822.017	60.76
822.195	154.96
822.373	79.19
822.551	83.28
822.729	152.91
822.907	-6.83
823.085	101.72
823.262	130.39
823.44	87.38
823.618	109.91
823.796	189.78
823.974	134.48
824.152	107.86
824.329	79.19
824.507	75.09
824.685	9.56
824.863	175.44
825.04	60.76
825.218	169.3
825.396	103.76
825.574	118.1
825.751	91.48
825.929	173.39
826.107	34.13
826.284	124.24
826.462	46.42
826.639	91.48
826.817	50.52
826.994	175.44
827.172	68.95
827.349	124.24
827.527	124.24
827.704	77.14
827.882	126.29
828.059	30.04
828.237	124.24
828.414	93.52
828.591	75.09
828.769	75.09
828.946	81.24
829.124	83.28
829.301	34.13
829.478	118.1
829.655	54.61
829.833	75.09
830.01	75.09
830.187	128.34
830.364	109.91
830.542	62.8
830.719	114
830.896	150.87
831.073	103.76
831.25	197.97
831.427	111.96
831.604	150.87
831.782	68.95
831.959	116.05
832.136	107.86
832.313	167.25
832.49	103.76
832.667	58.71
832.844	87.38
833.021	91.48
833.198	36.18
833.374	50.52
833.551	75.09
833.728	75.09
833.905	25.94
834.082	42.32
834.259	66.9
834.436	83.28
834.612	46.42
834.789	165.2
834.966	75.09
835.143	64.85
835.319	120.15
835.496	181.59
835.673	68.95
835.85	83.28
836.026	73.04
836.203	99.67
836.38	34.13
836.556	42.32
836.733	44.37
836.909	91.48
837.086	34.13
837.262	83.28
837.439	52.56
837.616	58.71
837.792	54.61
837.968	75.09
838.145	-10.92
838.321	185.68
838.498	75.09
838.674	75.09
838.851	52.56
839.027	99.67
839.203	107.86
839.38	118.1
839.556	66.9
839.732	95.57
839.909	34.13
840.085	75.09
840.261	71
840.437	99.67
840.614	23.89
840.79	140.63
840.966	93.52
841.142	79.19
841.318	99.67
841.494	99.67
841.671	132.44
841.847	44.37
842.023	50.52
842.199	42.32
842.375	118.1
842.551	5.46
842.727	38.23
842.903	101.72
843.079	60.76
843.255	15.7
843.431	13.65
843.607	99.67
843.783	-37.55
843.959	62.8
844.134	-27.31
844.31	50.52
844.486	44.37
844.662	25.94
844.838	105.81
845.013	105.81
845.189	122.2
845.365	79.19
845.541	44.37
845.716	118.1
845.892	103.76
846.068	13.65
846.244	122.2
846.419	120.15
846.595	17.75
846.77	9.56
846.946	17.75
847.122	54.61
847.297	66.9
847.473	109.91
847.648	11.61
847.824	101.72
847.999	-19.11
848.175	34.13
848.35	107.86
848.526	116.05
848.701	42.32
848.876	79.19
849.052	48.47
849.227	27.99
849.403	9.56
849.578	126.29
849.753	52.56
849.929	83.28
850.104	44.37
850.279	42.32
850.454	3.41
850.63	9.56
850.805	128.34
850.98	68.95
851.155	42.32
851.33	62.8
851.505	48.47
851.681	42.32
851.856	32.08
852.031	68.95
852.206	91.48
852.381	34.13
852.556	15.7
852.731	85.33
852.906	42.32
853.081	111.96
853.256	50.52
853.431	54.61
853.606	-8.87
853.781	27.99
853.956	36.18
854.131	50.52
854.305	36.18
854.48	-17.07
854.655	56.66
854.83	42.32
855.005	32.08
855.18	107.86
855.354	34.13
855.529	52.56
855.704	34.13
855.879	99.67
856.053	58.71
856.228	89.43
856.403	58.71
856.577	38.23
856.752	34.13
856.926	17.75
857.101	64.85
857.276	-15.02
857.45	-12.97
857.625	58.71
857.799	50.52
857.974	38.23
858.148	21.85
858.323	32.08
858.497	83.28
858.672	30.04
858.846	46.42
859.02	46.42
859.195	23.89
859.369	75.09
859.543	3.41
859.718	11.61
859.892	54.61
860.066	38.23
860.241	46.42
860.415	9.56
860.589	50.52
860.763	66.9
860.938	42.32
861.112	109.91
861.286	62.8
861.46	30.04
861.634	9.56
861.808	46.42
861.982	3.41
862.157	38.23
862.331	3.41
862.505	54.61
862.679	-29.35
862.853	25.94
863.027	116.05
863.201	68.95
863.375	3.41
863.549	99.67
863.722	52.56
863.896	95.57
864.07	52.56
864.244	34.13
864.418	34.13
864.592	58.71
864.766	60.76
864.939	81.24
865.113	124.24
865.287	58.71
865.461	40.28
865.634	58.71
865.808	34.13
865.982	77.14
866.156	15.7
866.329	17.75
866.503	116.05
866.676	71
866.85	68.95
867.024	52.56
867.197	38.23
867.371	52.56
867.544	9.56
867.718	-60.07
867.891	17.75
868.065	11.61
868.238	21.85
868.412	66.9
868.585	99.67
868.759	23.89
868.932	13.65
869.105	54.61
869.279	101.72
869.452	17.75
869.625	25.94
869.799	34.13
869.972	46.42
870.145	48.47
870.319	79.19
870.492	38.23
870.665	21.85
870.838	25.94
871.011	32.08
871.185	38.23
871.358	32.08
871.531	58.71
871.704	71
871.877	111.96
872.05	50.52
872.223	-21.16
872.396	7.51
872.569	13.65
872.742	42.32
872.915	101.72
873.088	54.61
873.261	116.05
873.434	25.94
873.607	-80.55
873.78	30.04
873.953	25.94
874.126	81.24
874.299	66.9
874.471	-64.17
874.644	-31.4
874.817	68.95
874.99	132.44
875.163	42.32
875.335	52.56
875.508	-17.07
875.681	105.81
875.853	3.41
876.026	50.52
876.199	50.52
876.371	-31.4
876.544	17.75
876.717	52.56
876.889	-15.02
877.062	30.04
877.234	1.37
877.407	-4.78
877.579	30.04
877.752	52.56
877.924	60.76
878.097	56.66
878.269	99.67
878.442	85.33
878.614	13.65
878.786	71
878.959	60.76
879.131	-6.83
879.303	-23.21
879.476	-23.21
879.648	79.19
879.82	9.56
879.993	42.32
880.165	44.37
880.337	64.85
880.509	-21.16
880.681	25.94
880.854	17.75
881.026	30.04
881.198	91.48
881.37	-10.92
881.542	17.75
881.714	5.46
881.886	-58.03
882.058	1.37
882.23	42.32
882.402	60.76
882.574	62.8
882.746	1.37
882.918	68.95
883.09	50.52
883.262	38.23
883.434	75.09
883.606	25.94
883.778	-43.69
883.95	83.28
884.122	99.67
884.293	25.94
884.465	-8.87
884.637	19.8
884.809	36.18
884.98	46.42
885.152	85.33
885.324	19.8
885.496	38.23
885.667	-15.02
885.839	-15.02
886.011	3.41
886.182	68.95
886.354	60.76
886.525	27.99
886.697	48.47
886.869	36.18
887.04	11.61
887.212	42.32
887.383	62.8
887.555	-33.45
887.726	64.85
887.897	71
888.069	3.41
888.24	25.94
888.412	62.8
888.583	27.99
888.754	52.56
888.926	-82.6
889.097	-19.11
889.268	-60.07
889.44	36.18
889.611	-29.35
889.782	-39.59
889.953	9.56
890.125	34.13
890.296	-39.59
890.467	-10.92
890.638	-29.35
890.809	58.71
890.98	-21.16
891.151	-15.02
891.323	32.08
891.494	-80.55
891.665	19.8
891.836	-15.02
892.007	62.8
892.178	-6.83
892.349	5.46
892.52	9.56
892.691	19.8
892.862	-8.87
893.032	52.56
893.203	48.47
893.374	58.71
893.545	13.65
893.716	23.89
893.887	91.48
894.057	15.7
894.228	23.89
894.399	-6.83
894.57	38.23
894.74	7.51
894.911	9.56
895.082	17.75
895.253	13.65
895.423	19.8
895.594	68.95
895.764	38.23
895.935	17.75
896.106	40.28
896.276	13.65
896.447	3.41
896.617	-45.74
896.788	46.42
896.958	58.71
897.129	15.7
897.299	-12.97
897.47	27.99
897.64	44.37
897.81	1.37
897.981	54.61
898.151	7.51
898.322	54.61
898.492	25.94
898.662	40.28
898.832	73.04
899.003	-8.87
899.173	124.24
899.343	50.52
899.513	32.08
