Data from USB4F104151__110__14-18-14-795.txt Node

Date: Thu Mar 13 14:18:14 EDT 2025
User: louis
Spectrometer: USB4F10415
Trigger mode: 4
Integration Time (sec): 2.000000E-2
Scans to average: 1
Electric dark correction enabled: true
Nonlinearity correction enabled: false
Boxcar width: 0
XAxis mode: Wavelengths
Number of Pixels in Spectrum: 3648
>>>>>Begin Spectral Data<<<<<
178.204	-120.49
178.424	-120.49
178.644	-120.49
178.864	-122.54
179.084	-128.68
179.304	55.64
179.524	-20.14
179.744	-11.95
179.964	-44.71
180.184	55.64
180.404	-16.04
180.624	-32.43
180.844	10.58
181.064	-46.76
181.283	29.01
181.503	-18.09
181.723	39.25
181.943	-9.9
182.163	31.06
182.383	2.39
182.602	22.87
182.822	86.36
183.042	22.87
183.262	-22.19
183.482	-9.9
183.701	59.73
183.921	-46.76
184.141	22.87
184.361	20.82
184.58	10.58
184.8	18.77
185.02	43.35
185.239	96.6
185.459	22.87
185.679	-13.99
185.898	-22.19
186.118	86.36
186.338	4.44
186.557	-16.04
186.777	-52.91
186.997	45.4
187.216	-11.95
187.436	69.97
187.655	-16.04
187.875	92.5
188.095	86.36
188.314	125.27
188.534	16.73
188.753	24.92
188.973	61.78
189.192	69.97
189.412	-30.38
189.631	-11.95
189.851	-34.47
190.07	63.83
190.29	35.16
190.509	51.54
190.729	39.25
190.948	69.97
191.168	135.51
191.387	74.07
191.607	18.77
191.826	43.35
192.045	59.73
192.265	37.2
192.484	-9.9
192.704	2.39
192.923	35.16
193.142	143.7
193.362	53.59
193.581	43.35
193.8	45.4
194.02	-3.75
194.239	29.01
194.458	2.39
194.678	69.97
194.897	72.02
195.116	2.39
195.335	-22.19
195.555	92.5
195.774	-5.8
195.993	59.73
196.212	76.12
196.432	-54.95
196.651	18.77
196.87	55.64
197.089	12.63
197.308	22.87
197.528	43.35
197.747	-18.09
197.966	-38.57
198.185	121.17
198.404	43.35
198.623	-13.99
198.842	69.97
199.062	76.12
199.281	69.97
199.5	12.63
199.719	26.96
199.938	63.83
200.157	31.06
200.376	-85.67
200.595	37.2
200.814	26.96
201.033	8.53
201.252	100.69
201.471	74.07
201.69	24.92
201.909	22.87
202.128	69.97
202.347	102.74
202.566	4.44
202.785	35.16
203.004	45.4
203.223	39.25
203.442	22.87
203.661	35.16
203.879	-59.05
204.098	-16.04
204.317	-18.09
204.536	35.16
204.755	10.58
204.974	29.01
205.193	4.44
205.411	51.54
205.63	41.3
205.849	22.87
206.068	-13.99
206.287	-5.8
206.505	18.77
206.724	29.01
206.943	20.82
207.162	4.44
207.381	29.01
207.599	12.63
207.818	20.82
208.037	29.01
208.255	12.63
208.474	51.54
208.693	43.35
208.911	76.12
209.13	-5.8
209.349	22.87
209.567	-3.75
209.786	112.98
210.005	37.2
210.223	86.36
210.442	-30.38
210.661	61.78
210.879	-28.33
211.098	6.49
211.316	86.36
211.535	80.21
211.753	-28.33
211.972	61.78
212.191	72.02
212.409	43.35
212.628	53.59
212.846	12.63
213.065	49.49
213.283	80.21
213.502	-65.19
213.72	61.78
213.938	-3.75
214.157	47.44
214.375	12.63
214.594	4.44
214.812	45.4
215.031	-11.95
215.249	55.64
215.467	-5.8
215.686	43.35
215.904	65.88
216.122	18.77
216.341	92.5
216.559	41.3
216.778	-11.95
216.996	106.84
217.214	-11.95
217.432	-50.86
217.651	16.73
217.869	8.53
218.087	-3.75
218.306	20.82
218.524	18.77
218.742	80.21
218.96	26.96
219.179	-38.57
219.397	119.12
219.615	-16.04
219.833	-13.99
220.051	10.58
220.27	88.4
220.488	49.49
220.706	88.4
220.924	10.58
221.142	117.08
221.36	59.73
221.578	-5.8
221.796	18.77
222.015	51.54
222.233	-38.57
222.451	57.68
222.669	22.87
222.887	18.77
223.105	51.54
223.323	59.73
223.541	-44.71
223.759	53.59
223.977	55.64
224.195	-18.09
224.413	63.83
224.631	29.01
224.849	-11.95
225.067	92.5
225.285	49.49
225.503	20.82
225.721	-38.57
225.939	43.35
226.157	16.73
226.375	119.12
226.592	78.16
226.81	-9.9
227.028	8.53
227.246	-22.19
227.464	26.96
227.682	72.02
227.9	67.92
228.117	2.39
228.335	-11.95
228.553	35.16
228.771	59.73
228.989	18.77
229.206	18.77
229.424	-9.9
229.642	16.73
229.86	6.49
230.077	92.5
230.295	63.83
230.513	76.12
230.731	100.69
230.948	88.4
231.166	94.55
231.384	-13.99
231.601	14.68
231.819	22.87
232.037	6.49
232.254	16.73
232.472	10.58
232.689	31.06
232.907	26.96
233.125	-50.86
233.342	47.44
233.56	-30.38
233.777	69.97
233.995	-24.23
234.213	65.88
234.43	-1.71
234.648	6.49
234.865	-13.99
235.083	110.93
235.3	51.54
235.518	-7.85
235.735	43.35
235.953	61.78
236.17	53.59
236.388	31.06
236.605	18.77
236.822	39.25
237.04	41.3
237.257	-9.9
237.475	-11.95
237.692	0.34
237.909	67.92
238.127	-13.99
238.344	10.58
238.562	39.25
238.779	-65.19
238.996	26.96
239.214	12.63
239.431	37.2
239.648	29.01
239.865	26.96
240.083	47.44
240.3	-26.28
240.517	53.59
240.735	35.16
240.952	24.92
241.169	112.98
241.386	-22.19
241.603	92.5
241.821	-3.75
242.038	59.73
242.255	51.54
242.472	-13.99
242.689	108.88
242.907	26.96
243.124	35.16
243.341	-7.85
243.558	16.73
243.775	12.63
243.992	-71.34
244.209	92.5
244.426	26.96
244.643	74.07
244.86	-52.91
245.078	-30.38
245.295	24.92
245.512	59.73
245.729	-24.23
245.946	26.96
246.163	-1.71
246.38	6.49
246.597	35.16
246.814	76.12
247.031	4.44
247.248	59.73
247.464	-46.76
247.681	18.77
247.898	63.83
248.115	20.82
248.332	26.96
248.549	12.63
248.766	72.02
248.983	153.94
249.2	72.02
249.417	143.7
249.633	51.54
249.85	12.63
250.067	22.87
250.284	65.88
250.501	4.44
250.717	-28.33
250.934	16.73
251.151	39.25
251.368	110.93
251.585	18.77
251.801	-5.8
252.018	-13.99
252.235	-7.85
252.451	-13.99
252.668	51.54
252.885	78.16
253.102	26.96
253.318	63.83
253.535	100.69
253.752	14.68
253.968	26.96
254.185	-34.47
254.401	-75.43
254.618	2.39
254.835	20.82
255.051	61.78
255.268	94.55
255.484	59.73
255.701	10.58
255.917	20.82
256.134	26.96
256.351	59.73
256.567	63.83
256.784	37.2
257	-61.1
257.217	84.31
257.433	88.4
257.65	80.21
257.866	108.88
258.082	16.73
258.299	-3.75
258.515	31.06
258.732	69.97
258.948	20.82
259.165	12.63
259.381	-16.04
259.597	129.36
259.814	-54.95
260.03	22.87
260.246	35.16
260.463	65.88
260.679	22.87
260.895	31.06
261.112	35.16
261.328	-5.8
261.544	92.5
261.761	69.97
261.977	-9.9
262.193	55.64
262.409	4.44
262.626	55.64
262.842	45.4
263.058	43.35
263.274	51.54
263.49	-11.95
263.707	59.73
263.923	65.88
264.139	6.49
264.355	-5.8
264.571	6.49
264.787	26.96
265.004	59.73
265.22	69.97
265.436	72.02
265.652	6.49
265.868	10.58
266.084	-57
266.3	8.53
266.516	-42.67
266.732	-20.14
266.948	-71.34
267.164	29.01
267.38	102.74
267.596	8.53
267.812	35.16
268.028	55.64
268.244	22.87
268.46	29.01
268.676	-22.19
268.892	-30.38
269.108	45.4
269.324	2.39
269.54	24.92
269.756	76.12
269.972	33.11
270.188	43.35
270.403	-28.33
270.619	29.01
270.835	53.59
271.051	110.93
271.267	-50.86
271.483	-3.75
271.698	53.59
271.914	39.25
272.13	47.44
272.346	53.59
272.562	57.68
272.777	37.2
272.993	26.96
273.209	45.4
273.425	63.83
273.64	-5.8
273.856	92.5
274.072	31.06
274.287	-22.19
274.503	18.77
274.719	53.59
274.934	-5.8
275.15	-40.62
275.366	12.63
275.581	-1.71
275.797	37.2
276.012	24.92
276.228	29.01
276.444	35.16
276.659	94.55
276.875	10.58
277.09	-5.8
277.306	10.58
277.521	106.84
277.737	-32.43
277.952	59.73
278.168	-1.71
278.383	80.21
278.599	-9.9
278.814	-52.91
279.03	88.4
279.245	-9.9
279.461	-24.23
279.676	96.6
279.892	-5.8
280.107	-32.43
280.322	37.2
280.538	96.6
280.753	59.73
280.969	35.16
281.184	47.44
281.399	49.49
281.615	84.31
281.83	69.97
282.045	-52.91
282.26	-26.28
282.476	-57
282.691	72.02
282.906	18.77
283.122	43.35
283.337	35.16
283.552	88.4
283.767	12.63
283.983	72.02
284.198	49.49
284.413	119.12
284.628	4.44
284.843	35.16
285.058	29.01
285.274	80.21
285.489	4.44
285.704	84.31
285.919	67.92
286.134	-13.99
286.349	18.77
286.564	14.68
286.779	59.73
286.995	43.35
287.21	12.63
287.425	39.25
287.64	26.96
287.855	-5.8
288.07	-16.04
288.285	-20.14
288.5	-11.95
288.715	-22.19
288.93	12.63
289.145	0.34
289.36	-22.19
289.575	-1.71
289.79	47.44
290.004	2.39
290.219	106.84
290.434	-9.9
290.649	-67.24
290.864	59.73
291.079	10.58
291.294	10.58
291.509	65.88
291.724	22.87
291.938	80.21
292.153	72.02
292.368	2.39
292.583	-44.71
292.798	117.08
293.012	22.87
293.227	26.96
293.442	29.01
293.657	67.92
293.871	37.2
294.086	53.59
294.301	59.73
294.516	63.83
294.73	24.92
294.945	2.39
295.16	-5.8
295.374	76.12
295.589	51.54
295.804	-38.57
296.018	12.63
296.233	37.2
296.447	102.74
296.662	-100.01
296.877	106.84
297.091	63.83
297.306	6.49
297.52	-3.75
297.735	53.59
297.949	22.87
298.164	76.12
298.378	14.68
298.593	-54.95
298.807	61.78
299.022	-13.99
299.236	84.31
299.451	67.92
299.665	59.73
299.88	51.54
300.094	35.16
300.309	59.73
300.523	51.54
300.737	37.2
300.952	51.54
301.166	4.44
301.381	90.45
301.595	0.34
301.809	26.96
302.024	33.11
302.238	-18.09
302.452	88.4
302.667	12.63
302.881	67.92
303.095	92.5
303.309	6.49
303.524	-42.67
303.738	84.31
303.952	47.44
304.166	92.5
304.381	29.01
304.595	24.92
304.809	16.73
305.023	2.39
305.237	-22.19
305.452	39.25
305.666	76.12
305.88	98.64
306.094	41.3
306.308	45.4
306.522	59.73
306.736	59.73
306.95	104.79
307.164	18.77
307.379	41.3
307.593	45.4
307.807	94.55
308.021	84.31
308.235	18.77
308.449	-73.39
308.663	35.16
308.877	61.78
309.091	35.16
309.305	135.51
309.519	-20.14
309.733	63.83
309.947	-36.52
310.161	92.5
310.374	16.73
310.588	55.64
310.802	-28.33
311.016	69.97
311.23	55.64
311.444	59.73
311.658	20.82
311.872	92.5
312.085	45.4
312.299	76.12
312.513	39.25
312.727	18.77
312.941	-11.95
313.154	8.53
313.368	55.64
313.582	84.31
313.796	137.56
314.009	22.87
314.223	117.08
314.437	125.27
314.651	-9.9
314.864	18.77
315.078	2.39
315.292	80.21
315.505	14.68
315.719	45.4
315.933	-20.14
316.146	84.31
316.36	-38.57
316.573	61.78
316.787	6.49
317.001	22.87
317.214	35.16
317.428	18.77
317.641	2.39
317.855	69.97
318.068	108.88
318.282	-20.14
318.495	45.4
318.709	53.59
318.922	-13.99
319.136	63.83
319.349	104.79
319.563	-3.75
319.776	69.97
319.99	45.4
320.203	43.35
320.417	39.25
320.63	26.96
320.843	84.31
321.057	53.59
321.27	59.73
321.483	86.36
321.697	63.83
321.91	-30.38
322.124	72.02
322.337	35.16
322.55	100.69
322.763	4.44
322.977	119.12
323.19	61.78
323.403	92.5
323.617	43.35
323.83	72.02
324.043	-77.48
324.256	2.39
324.469	-1.71
324.683	26.96
324.896	129.36
325.109	69.97
325.322	-44.71
325.535	41.3
325.748	10.58
325.962	31.06
326.175	18.77
326.388	-1.71
326.601	108.88
326.814	35.16
327.027	45.4
327.24	151.89
327.453	26.96
327.666	63.83
327.879	74.07
328.092	-5.8
328.305	84.31
328.518	12.63
328.731	67.92
328.944	59.73
329.157	-20.14
329.37	35.16
329.583	190.8
329.796	20.82
330.009	35.16
330.222	-9.9
330.435	37.2
330.648	117.08
330.861	67.92
331.073	65.88
331.286	78.16
331.499	94.55
331.712	94.55
331.925	-69.29
332.138	39.25
332.35	51.54
332.563	-5.8
332.776	82.26
332.989	0.34
333.202	26.96
333.414	20.82
333.627	108.88
333.84	-13.99
334.053	43.35
334.265	-1.71
334.478	-34.47
334.691	63.83
334.903	86.36
335.116	108.88
335.329	2.39
335.541	65.88
335.754	78.16
335.966	76.12
336.179	0.34
336.392	84.31
336.604	37.2
336.817	55.64
337.029	6.49
337.242	84.31
337.454	72.02
337.667	63.83
337.88	24.92
338.092	86.36
338.305	14.68
338.517	35.16
338.729	53.59
338.942	61.78
339.154	37.2
339.367	35.16
339.579	67.92
339.792	-5.8
340.004	55.64
340.217	39.25
340.429	112.98
340.641	69.97
340.854	78.16
341.066	2.39
341.278	39.25
341.491	133.46
341.703	55.64
341.915	88.4
342.128	72.02
342.34	82.26
342.552	45.4
342.764	67.92
342.977	117.08
343.189	72.02
343.401	92.5
343.613	67.92
343.826	57.68
344.038	-38.57
344.25	18.77
344.462	14.68
344.674	84.31
344.886	29.01
345.099	76.12
345.311	14.68
345.523	43.35
345.735	29.01
345.947	92.5
346.159	26.96
346.371	61.78
346.583	51.54
346.795	18.77
347.007	121.17
347.219	45.4
347.431	33.11
347.643	67.92
347.855	-57
348.067	72.02
348.279	33.11
348.491	74.07
348.703	35.16
348.915	-5.8
349.127	59.73
349.339	26.96
349.551	-28.33
349.763	55.64
349.975	16.73
350.187	24.92
350.399	-1.71
350.61	61.78
350.822	29.01
351.034	-3.75
351.246	43.35
351.458	59.73
351.669	55.64
351.881	45.4
352.093	67.92
352.305	26.96
352.517	12.63
352.728	96.6
352.94	53.59
353.152	26.96
353.363	14.68
353.575	16.73
353.787	53.59
353.999	59.73
354.21	51.54
354.422	-9.9
354.633	29.01
354.845	74.07
355.057	12.63
355.268	33.11
355.48	102.74
355.692	78.16
355.903	16.73
356.115	18.77
356.326	35.16
356.538	20.82
356.749	31.06
356.961	108.88
357.172	22.87
357.384	22.87
357.595	84.31
357.807	26.96
358.018	26.96
358.23	31.06
358.441	92.5
358.653	-9.9
358.864	55.64
359.075	53.59
359.287	24.92
359.498	18.77
359.709	43.35
359.921	10.58
360.132	108.88
360.344	37.2
360.555	31.06
360.766	80.21
360.977	24.92
361.189	98.64
361.4	74.07
361.611	86.36
361.823	57.68
362.034	37.2
362.245	45.4
362.456	59.73
362.667	35.16
362.879	117.08
363.09	76.12
363.301	69.97
363.512	76.12
363.723	55.64
363.935	76.12
364.146	84.31
364.357	18.77
364.568	26.96
364.779	12.63
364.99	53.59
365.201	94.55
365.412	57.68
365.623	55.64
365.834	86.36
366.045	96.6
366.256	117.08
366.467	49.49
366.678	102.74
366.889	55.64
367.1	67.92
367.311	145.75
367.522	-5.8
367.733	-20.14
367.944	117.08
368.155	63.83
368.366	53.59
368.577	67.92
368.788	45.4
368.999	-34.47
369.209	51.54
369.42	41.3
369.631	82.26
369.842	47.44
370.053	29.01
370.264	65.88
370.474	-1.71
370.685	-20.14
370.896	14.68
371.107	67.92
371.317	39.25
371.528	31.06
371.739	92.5
371.95	90.45
372.16	110.93
372.371	2.39
372.582	51.54
372.792	104.79
373.003	74.07
373.214	82.26
373.424	76.12
373.635	2.39
373.846	110.93
374.056	45.4
374.267	18.77
374.477	76.12
374.688	37.2
374.898	-5.8
375.109	16.73
375.319	47.44
375.53	33.11
375.74	31.06
375.951	12.63
376.161	76.12
376.372	67.92
376.582	76.12
376.793	74.07
377.003	-11.95
377.214	78.16
377.424	96.6
377.635	35.16
377.845	26.96
378.055	121.17
378.266	51.54
378.476	84.31
378.686	45.4
378.897	84.31
379.107	110.93
379.317	-5.8
379.528	72.02
379.738	45.4
379.948	12.63
380.158	92.5
380.369	31.06
380.579	29.01
380.789	20.82
380.999	88.4
381.21	112.98
381.42	135.51
381.63	18.77
381.84	121.17
382.05	67.92
382.261	94.55
382.471	104.79
382.681	6.49
382.891	94.55
383.101	67.92
383.311	2.39
383.521	43.35
383.731	55.64
383.941	45.4
384.151	100.69
384.361	49.49
384.571	112.98
384.781	100.69
384.991	127.32
385.201	86.36
385.411	92.5
385.621	112.98
385.831	117.08
386.041	119.12
386.251	43.35
386.461	121.17
386.671	61.78
386.881	110.93
387.091	24.92
387.301	59.73
387.511	35.16
387.72	158.03
387.93	45.4
388.14	24.92
388.35	33.11
388.56	76.12
388.769	55.64
388.979	96.6
389.189	86.36
389.399	67.92
389.609	35.16
389.818	127.32
390.028	104.79
390.238	158.03
390.447	-5.8
390.657	78.16
390.867	67.92
391.076	29.01
391.286	74.07
391.496	51.54
391.705	170.32
391.915	147.8
392.125	86.36
392.334	76.12
392.544	61.78
392.753	135.51
392.963	67.92
393.172	39.25
393.382	51.54
393.591	180.56
393.801	143.7
394.01	151.89
394.22	92.5
394.429	127.32
394.639	76.12
394.848	86.36
395.058	67.92
395.267	26.96
395.477	92.5
395.686	33.11
395.895	135.51
396.105	164.18
396.314	110.93
396.524	72.02
396.733	125.27
396.942	121.17
397.152	104.79
397.361	162.13
397.57	145.75
397.78	76.12
397.989	115.03
398.198	67.92
398.407	160.08
398.617	125.27
398.826	98.64
399.035	149.84
399.244	151.89
399.453	117.08
399.663	160.08
399.872	117.08
400.081	94.55
400.29	147.8
400.499	162.13
400.708	147.8
400.917	174.42
401.127	149.84
401.336	119.12
401.545	237.91
401.754	76.12
401.963	190.8
402.172	123.22
402.381	207.19
402.59	110.93
402.799	178.51
403.008	170.32
403.217	84.31
403.426	215.38
403.635	174.42
403.844	180.56
404.053	147.8
404.262	170.32
404.471	178.51
404.68	174.42
404.888	182.61
405.097	201.04
405.306	151.89
405.515	194.9
405.724	203.09
405.933	297.3
406.142	211.28
406.35	215.38
406.559	289.1
406.768	285.01
406.977	272.72
407.185	274.77
407.394	313.68
407.603	313.68
407.812	297.3
408.02	325.97
408.229	373.07
408.438	299.34
408.646	315.73
408.855	338.26
409.064	289.1
409.272	266.58
409.481	407.89
409.69	368.98
409.898	344.4
410.107	485.71
410.315	432.46
410.524	452.94
410.733	428.37
410.941	512.33
411.15	452.94
411.358	575.82
411.567	577.87
411.775	510.29
411.984	561.48
412.192	610.64
412.401	594.25
412.609	616.78
412.818	700.75
413.026	694.6
413.234	670.03
413.443	667.98
413.651	790.86
413.86	803.15
414.068	842.06
414.276	803.15
414.485	864.58
414.693	1009.99
414.901	977.22
415.11	997.7
415.318	973.13
415.526	1083.72
415.734	1091.91
415.943	1122.63
416.151	1134.92
416.359	1173.83
416.567	1175.88
416.776	1274.18
416.984	1349.95
417.192	1395.01
417.4	1313.09
417.608	1352
417.817	1444.16
418.025	1517.89
418.233	1636.67
418.441	1587.52
418.649	1653.05
418.857	1874.23
419.065	1845.56
419.273	1851.71
419.481	2019.64
419.689	2038.07
419.897	2081.08
420.105	2052.41
420.313	2171.19
420.521	2261.3
420.729	2320.69
420.937	2464.05
421.145	2414.9
421.353	2597.17
421.561	2656.56
421.769	2775.34
421.977	2877.74
422.185	2851.11
422.393	3096.87
422.601	3127.59
422.809	3215.65
423.017	3225.89
423.224	3393.83
423.432	3387.68
423.64	3440.93
423.848	3926.3
424.056	3797.28
424.263	3997.98
424.471	4081.94
424.679	4145.43
424.887	4440.34
425.094	4458.77
425.302	4407.57
425.51	4647.18
425.718	4706.57
425.925	4808.97
426.133	4995.34
426.341	5155.08
426.548	5550.34
426.756	5519.62
426.964	5648.64
427.171	5804.28
427.379	5990.65
427.586	6109.43
427.794	6365.43
428.001	6662.38
428.209	6785.26
428.417	6705.39
428.624	7276.77
428.832	7354.6
429.039	7176.42
429.247	7250.15
429.454	7772.38
429.662	8333.53
429.869	8122.59
430.076	8493.27
430.284	8216.79
430.491	8618.19
430.699	9013.45
430.906	9238.73
431.114	9128.14
431.321	9459.91
431.528	9693.38
431.736	10244.28
431.943	10784.94
432.15	10401.97
432.358	10537.14
432.565	11286.7
432.772	11036.84
432.979	11690.15
433.187	11952.29
433.394	11856.03
433.601	12814.48
433.808	12767.38
434.016	12810.39
434.223	13101.2
434.43	13969.54
434.637	13924.48
434.844	14569.59
435.052	14946.42
435.259	14895.22
435.466	14854.26
435.673	14727.28
435.88	15655.01
436.087	16656.47
436.294	16447.58
436.501	16124
436.708	16412.76
436.915	17377.36
437.122	17967.17
437.329	17567.82
437.537	18241.6
437.743	18694.2
437.95	18364.48
438.157	19515.44
438.364	20133.92
438.571	20084.77
438.778	20389.92
438.985	21694.47
439.192	20989.97
439.399	21782.54
439.606	21260.3
439.813	22587.39
440.02	23848.94
440.227	23623.66
440.433	23246.83
440.64	23898.09
440.847	23736.3
441.054	24715.23
441.261	26365.89
441.467	25862.09
441.674	26159.05
441.881	27287.48
442.088	26949.56
442.294	26933.18
442.501	27396.02
442.708	28002.22
442.914	29120.41
443.121	30123.91
443.328	29788.05
443.534	31618.93
443.741	30291.85
443.948	30035.85
444.154	32513.89
444.361	32247.66
444.568	32720.74
444.774	32128.88
444.981	32769.89
445.187	33587.03
445.394	35245.88
445.6	34637.64
445.807	37941.01
446.013	36185.9
446.22	36362.03
446.426	38344.46
446.633	38682.38
446.839	39964.4
447.046	38375.18
447.252	40316.65
447.459	40498.92
447.665	40277.74
447.871	41666.27
448.078	43417.28
448.284	41637.59
448.491	42888.9
448.697	44291.76
448.903	45098.66
449.11	45020.84
449.316	44533.42
449.522	45371.04
449.728	46495.38
449.935	46818.95
450.141	46522
450.347	47615.61
450.553	46087.83
450.76	46978.7
450.966	48467.57
451.172	47779.45
451.378	48936.55
451.584	47808.12
451.791	49167.98
451.997	49262.18
452.203	49800.8
452.409	49970.78
452.615	49815.13
452.821	48184.95
453.027	47681.15
453.233	49806.94
453.44	47812.22
453.646	48117.37
453.852	48750.19
454.058	49620.58
454.264	47677.05
454.47	48965.23
454.676	47361.67
454.882	49018.47
455.088	45115.04
455.294	45817.5
455.5	46251.67
455.705	46747.28
455.911	45258.4
456.117	44506.8
456.323	44170.93
456.529	41674.46
456.735	43495.1
456.941	42231.5
457.147	41828.06
457.352	40738.54
457.558	40066.8
457.764	40244.98
457.97	39372.54
458.176	38772.49
458.381	38405.9
458.587	36925.22
458.793	36816.68
458.999	34875.2
459.204	37433.11
459.41	36501.29
459.616	34178.89
459.821	33920.85
460.027	33816.4
460.233	33392.47
460.438	31907.69
460.644	31799.15
460.85	30572.42
461.055	30078.86
461.261	29888.4
461.466	27824.04
461.672	27054.01
461.878	29097.88
462.083	27004.86
462.289	26386.37
462.494	26290.12
462.7	24922.07
462.905	24217.57
463.111	25069.53
463.316	25524.18
463.522	24635.36
463.727	24477.66
463.932	24817.63
464.138	24653.79
464.343	24649.69
464.549	23969.77
464.754	24510.43
464.959	24258.53
465.165	24209.38
465.37	23437.3
465.575	22726.65
465.781	23336.95
465.986	23484.4
466.191	22497.28
466.397	22274.05
466.602	21288.98
466.807	22155.27
467.012	22114.31
467.218	22147.08
467.423	21737.48
467.628	21938.18
467.833	22841.34
468.038	21819.4
468.244	21358.61
468.449	22228.99
468.654	21297.17
468.859	21264.4
469.064	20813.85
469.269	20387.87
469.474	20426.78
469.679	20926.49
469.885	20203.55
470.09	20396.06
470.295	20467.74
470.5	19853.35
470.705	20039.72
470.91	19507.24
471.115	19507.24
471.32	19841.06
471.525	19617.83
471.73	18741.3
471.935	18964.53
472.139	18542.65
472.344	18669.62
472.549	18497.6
472.754	18464.83
472.959	18059.33
473.164	17815.62
473.369	17504.33
473.574	18010.18
473.778	17670.22
473.983	17524.81
474.188	17805.38
474.393	16838.74
474.598	16756.82
474.802	16781.4
475.007	16367.71
475.212	16685.14
475.417	15968.35
475.621	16099.42
475.826	15972.45
476.031	15671.4
476.235	15431.79
476.44	15607.91
476.645	15472.75
476.849	15321.2
477.054	15001.71
477.259	14796.92
477.463	14598.26
477.668	14665.85
477.872	14637.17
478.077	14604.41
478.282	14528.63
478.486	14157.95
478.691	14170.24
478.895	14153.85
479.1	13719.68
479.304	13674.63
479.509	13611.14
479.713	13654.15
479.918	13494.41
480.122	13256.84
480.326	13291.66
480.531	13559.94
480.735	13129.87
480.94	13174.92
481.144	13686.92
481.348	12818.58
481.553	13195.4
481.757	12789.91
481.961	13031.57
482.166	13226.12
482.37	12955.79
482.574	12640.4
482.778	12972.18
482.983	12990.61
483.187	12949.65
483.391	13019.28
483.595	12847.25
483.8	12728.47
484.004	12818.58
484.208	12998.8
484.412	12757.14
484.616	13019.28
484.821	13027.47
485.025	12740.75
485.229	13047.95
485.433	12646.55
485.637	12726.42
485.841	12576.92
486.045	12728.47
486.249	12814.48
486.453	12759.19
486.657	13029.52
486.861	12791.95
487.065	12613.78
487.269	12716.18
487.473	12415.13
487.677	12730.52
487.881	13072.53
488.085	12777.62
488.289	12777.62
488.493	12667.03
488.697	12949.65
488.901	12982.42
489.105	12521.62
489.309	12783.76
489.512	12875.92
489.716	12978.32
489.92	13054.09
490.124	12912.78
490.328	13105.29
490.531	13146.25
490.735	13078.67
490.939	13222.03
491.143	13248.65
491.346	13203.6
491.55	13183.12
491.754	13125.77
491.958	13482.12
492.161	13275.27
492.365	13643.91
492.569	13398.15
492.772	13551.75
492.976	13660.29
493.18	13850.75
493.383	13922.43
493.587	13781.12
493.79	13936.77
493.994	13564.04
494.197	14145.66
494.401	14155.9
494.605	14002.3
494.808	14327.93
495.012	14350.46
495.215	14481.53
495.419	14667.89
495.622	14731.38
495.825	14792.82
496.029	14927.99
496.232	15196.27
496.436	15202.41
496.639	15702.12
496.843	15378.54
497.046	15636.58
497.249	16019.55
497.453	15716.45
497.656	16099.42
497.859	16103.52
498.063	16328.8
498.266	16742.49
498.469	16341.08
498.673	16728.15
498.876	16994.39
499.079	17002.58
499.282	16959.57
499.485	17444.94
499.689	17854.53
499.892	17834.05
500.095	18094.15
500.298	18239.55
500.501	18274.37
500.705	18440.25
500.908	18780.21
501.111	18909.24
501.314	19093.55
501.517	19271.73
501.72	19513.39
501.923	19413.04
502.126	19755.05
502.329	20152.35
502.532	20441.12
502.735	20377.63
502.938	20508.7
503.141	20930.58
503.344	21215.25
503.547	21200.91
503.75	21630.99
503.953	22216.71
504.156	22409.22
504.359	22589.44
504.562	22360.06
504.765	22863.86
504.968	23087.09
505.17	23103.48
505.373	23314.42
505.576	23717.87
505.779	23746.54
505.982	24360.93
506.185	24731.61
506.387	24543.2
506.59	24803.29
506.793	25702.35
506.996	25221.08
507.198	25841.61
507.401	25642.96
507.604	26204.1
507.807	26654.65
508.009	26746.81
508.212	26984.38
508.415	27310
508.617	27762.61
508.82	27561.9
509.022	27551.66
509.225	28360.61
509.428	28417.96
509.63	28653.47
509.833	28901.28
510.035	29480.85
510.238	29284.25
510.44	29933.45
510.643	30183.3
510.845	30310.28
511.048	30099.34
511.25	31076.22
511.453	31065.98
511.655	32268.14
511.858	31397.75
512.06	31752.05
512.262	32184.17
512.465	32366.44
512.667	32892.77
512.87	33113.95
513.072	32675.68
513.274	33732.43
513.477	34182.99
513.679	34289.48
513.881	34647.88
514.084	34844.48
514.286	34641.73
514.488	35063.61
514.69	36620.07
514.893	36247.34
515.095	36433.71
515.297	36521.77
515.499	36777.76
515.701	37164.83
515.904	37781.27
516.106	37666.58
516.308	38094.61
516.51	38698.76
516.712	38741.77
516.914	39165.7
517.116	39579.39
517.318	40042.23
517.52	39978.74
517.722	40091.38
517.925	40591.08
518.127	41363.17
518.329	41139.94
518.531	41385.69
518.733	42022.61
518.935	42180.31
519.136	42510.03
519.338	42737.35
519.54	43204.29
519.742	43523.77
519.944	43597.5
520.146	44416.69
520.348	44152.5
520.55	44482.22
520.752	44809.9
520.954	45414.05
521.155	45065.89
521.357	46163.6
521.559	46194.32
521.761	46849.67
521.963	46122.65
522.164	46808.72
522.366	47023.75
522.568	47613.57
522.77	47603.33
522.971	48320.12
523.173	48383.6
523.375	48787.05
523.576	48463.47
523.778	48320.12
523.98	49307.24
524.181	49651.3
524.383	49763.93
524.584	50439.76
524.786	50187.86
524.988	49983.07
525.189	50648.66
525.391	50482.77
525.592	50828.88
525.794	50990.67
525.995	51199.56
526.197	51342.92
526.398	51410.5
526.6	51918.4
526.801	52078.14
527.003	52241.98
527.204	52327.99
527.406	52547.12
527.607	52407.86
527.808	52739.63
528.01	52606.51
528.211	52792.88
528.412	53491.24
528.614	53800.48
528.815	53169.71
529.016	53689.89
529.218	53714.47
529.419	53892.64
529.62	53646.88
529.822	53851.68
530.023	53712.42
530.224	54058.52
530.425	53980.7
530.626	53724.71
530.828	53368.36
531.029	55074.32
531.23	54285.85
531.431	54298.14
531.632	54079
531.833	54613.52
532.035	54672.92
532.236	54480.41
532.437	54707.73
532.638	54435.35
532.839	54648.34
533.04	54787.6
533.241	54248.99
533.442	55361.03
533.643	54949.39
533.844	54603.28
534.045	54851.09
534.246	54601.24
534.447	55082.51
534.648	55131.66
534.849	54869.52
535.05	54681.11
535.251	54646.29
535.451	55006.73
535.652	55033.36
535.853	55195.15
536.054	54797.84
536.255	54834.7
536.456	54689.3
536.657	55473.67
536.857	54855.18
537.058	54476.31
537.259	55418.38
537.46	55121.42
537.66	54926.86
537.861	55135.76
538.062	54472.21
538.263	55463.43
538.463	54492.69
538.664	54523.41
538.865	55352.84
539.065	55031.31
539.266	54674.96
539.466	55250.44
539.667	54152.73
539.868	54930.96
540.068	54697.49
540.269	54468.12
540.469	54922.77
540.67	54894.1
540.87	54496.79
541.071	54742.55
541.271	55037.45
541.472	54992.4
541.672	54363.67
541.873	54550.04
542.073	54359.58
542.274	54771.22
542.474	54449.69
542.675	53892.64
542.875	54801.94
543.075	54738.45
543.276	53564.96
543.476	55049.74
543.676	54488.6
543.877	54709.78
544.077	54703.63
544.277	54285.85
544.478	54490.65
544.678	54910.48
544.878	54441.49
545.078	54498.84
545.279	54279.71
545.479	54226.46
545.679	54091.29
545.879	54091.29
546.079	54328.86
546.28	54480.41
546.48	53890.59
546.68	54554.13
546.88	54547.99
547.08	54425.11
547.28	54232.6
547.48	53716.51
547.68	54490.65
547.88	53767.71
548.081	54152.73
548.281	54259.23
548.481	54222.36
548.681	54527.51
548.881	54015.52
549.081	54277.66
549.28	53548.58
549.48	54328.86
549.68	54105.63
549.88	54818.32
550.08	53931.55
550.28	53876.26
550.48	53968.41
550.68	54560.28
550.88	54156.83
551.08	53775.9
551.279	54066.72
551.479	53794.34
551.679	54044.19
551.879	53534.24
552.079	53820.96
552.278	53640.74
552.478	53542.44
552.678	53788.19
552.878	53851.68
553.077	53567.01
553.277	53206.57
553.477	53829.15
553.676	53411.37
553.876	53284.39
554.076	53444.13
554.275	53151.27
554.475	52887.09
554.674	53366.31
554.874	53700.13
555.074	53055.02
555.273	53030.44
555.473	53591.59
555.672	53399.08
555.872	53335.59
556.071	53403.17
556.271	53736.99
556.47	53079.6
556.67	53046.83
556.869	52956.72
557.068	53296.68
557.268	52436.53
557.467	53104.17
557.667	52928.05
557.866	52960.81
558.065	52381.24
558.265	52844.08
558.464	52420.15
558.663	52948.53
558.863	52344.37
559.062	53134.89
559.261	52350.52
559.461	52880.94
559.66	51893.82
559.859	52217.4
560.058	51932.73
560.258	52237.88
560.457	51641.92
560.656	52158.01
560.855	51990.08
561.054	52309.56
561.253	51732.03
561.453	52024.89
561.652	51899.97
561.851	52026.94
562.05	51881.53
562.249	52057.66
562.448	51637.83
562.647	51826.24
562.846	51656.26
563.045	51281.48
563.244	50835.02
563.443	51689.02
563.642	51084.87
563.841	51437.12
564.04	50720.34
564.239	51727.94
564.438	51015.24
564.637	51156.55
564.836	50714.19
565.035	50257.49
565.234	50486.87
565.432	50562.64
565.631	50337.37
565.83	50536.02
566.029	50159.19
566.228	50216.54
566.427	49786.46
566.625	49800.8
566.824	49690.21
567.023	50232.92
567.222	49188.45
567.42	50085.47
567.619	49649.25
567.818	49444.45
568.016	49397.35
568.215	49854.04
568.414	49251.94
568.612	49813.09
568.811	48924.27
569.01	49358.44
569.208	48733.81
569.407	48971.37
569.605	48717.42
569.804	49247.85
570.002	48653.93
570.201	48944.75
570.4	48526.96
570.598	48258.68
570.797	48268.92
570.995	48412.27
571.193	47941.24
571.392	48352.88
571.59	47892.09
571.789	47924.86
571.987	48109.18
572.186	47611.52
572.384	47222.4
572.582	47808.12
572.781	47851.13
572.979	46849.67
573.177	47160.97
573.376	47545.98
573.574	47275.65
573.772	47195.78
573.971	46980.74
574.169	46562.96
574.367	46849.67
574.565	46988.94
574.763	46423.7
574.962	46470.8
575.16	46114.45
575.358	46366.35
575.556	45770.39
575.754	46720.65
575.952	45805.21
576.151	46169.75
576.349	45426.34
576.547	45807.26
576.745	45846.17
576.943	45860.51
577.141	45555.36
577.339	45336.23
577.537	45299.36
577.735	45307.55
577.933	44900.01
578.131	45110.95
578.329	44441.26
578.527	44512.94
578.725	44865.19
578.923	45231.78
579.121	44717.74
579.319	44185.27
579.516	44232.37
579.714	44502.7
579.912	44377.78
580.11	44175.03
580.308	43777.72
580.506	44136.12
580.704	43419.33
580.901	43433.66
581.099	44054.2
581.297	43232.96
581.495	43286.21
581.692	43429.57
581.89	42647.24
582.088	42995.4
582.285	42841.8
582.483	42876.62
582.681	42956.49
582.878	42761.93
583.076	42444.49
583.274	42925.77
583.471	42110.67
583.669	41987.8
583.866	42092.24
584.064	42133.2
584.262	41531.1
584.459	42243.79
584.657	41817.82
584.854	41801.43
585.052	41326.3
585.249	41244.38
585.447	41381.6
585.644	40861.41
585.841	41477.85
586.039	41653.98
586.236	40806.12
586.434	40920.8
586.631	40720.1
586.828	40894.18
587.026	40818.41
587.223	40754.92
587.42	40353.52
587.618	40695.53
587.815	39835.38
588.012	39708.41
588.21	40165.1
588.407	40029.94
588.604	39640.82
588.801	39395.07
588.999	39524.09
589.196	39274.24
589.393	39706.36
589.59	39118.59
589.787	39257.85
589.984	38901.51
590.182	38676.23
590.379	39169.79
590.576	38346.51
590.773	38776.58
590.97	38266.64
591.167	38878.98
591.364	37814.04
591.561	38336.27
591.758	38141.71
591.955	37820.18
592.152	38510.35
592.349	37621.53
592.546	37699.35
592.743	37787.41
592.94	37148.45
593.137	37412.63
593.334	37883.67
593.531	36992.8
593.727	37222.17
593.924	37144.35
594.121	36839.2
594.318	37203.74
594.515	36706.09
594.712	36634.41
594.908	36337.45
595.105	36527.91
595.302	36478.76
595.499	36325.16
595.696	36196.14
595.892	35770.16
596.089	36165.42
596.286	35966.77
596.482	35731.25
596.679	35450.68
596.876	35428.15
597.072	35335.99
597.269	35534.65
597.466	35067.71
597.662	35471.16
597.859	35161.92
598.055	34930.5
598.252	35028.8
598.448	34850.63
598.645	34422.6
598.841	34291.53
599.038	34740.04
599.234	34598.73
599.431	34215.76
599.627	34373.45
599.824	34307.91
600.02	33793.87
600.217	33877.84
600.413	33892.18
600.609	33494.87
600.806	33734.48
601.002	33726.29
601.198	33353.56
601.395	33247.07
601.591	32937.82
601.787	33058.65
601.984	32714.59
602.18	33118.04
602.376	32886.62
602.572	32659.3
602.769	32943.97
602.965	32581.48
603.161	32606.05
603.357	32429.93
603.553	32411.49
603.75	32161.64
603.946	32042.86
604.142	32337.77
604.338	31594.36
604.534	31895.41
604.73	31909.74
604.926	31373.17
605.122	31655.79
605.318	31543.16
605.514	31035.26
605.71	31178.62
605.906	30887.81
606.102	31113.08
606.298	31264.63
606.494	30908.29
606.69	31407.99
606.886	31115.13
607.082	30633.86
607.278	30691.2
607.474	30132.11
607.67	30388.1
607.866	30166.92
608.062	30582.66
608.257	30248.84
608.453	30365.57
608.649	30447.49
608.845	30297.99
609.041	30025.61
609.236	30158.73
609.432	30152.59
609.628	29988.75
609.824	29577.11
610.019	29673.36
610.215	29763.47
610.411	29710.22
610.606	29767.57
610.802	29704.08
610.998	29380.5
611.193	29509.52
611.389	29394.84
611.584	29056.92
611.78	28891.04
611.976	29126.55
612.171	29306.77
612.367	29341.59
612.562	28813.21
612.758	28716.96
612.953	28641.18
613.149	29038.49
613.344	28858.27
613.539	29112.22
613.735	28680.1
613.93	28559.27
614.126	28614.56
614.321	28757.92
614.517	28669.86
614.712	28366.76
614.907	28116.9
615.103	28843.93
615.298	28393.38
615.493	28686.24
615.688	28149.67
615.884	28524.45
616.079	27840.43
616.274	28168.1
616.47	27957.16
616.665	27838.38
616.86	27848.62
617.055	27727.79
617.25	27815.85
617.445	28075.94
617.641	27451.31
617.836	27893.68
618.031	27125.69
618.226	27627.44
618.421	27307.96
618.616	27490.23
618.811	27217.85
619.006	27436.98
619.201	26638.27
619.396	26566.59
619.591	26722.24
619.786	26804.16
619.981	26580.93
620.176	26658.75
620.371	26204.1
620.566	26472.39
620.761	26136.52
620.956	26349.51
621.151	26032.07
621.346	25862.09
621.541	25405.39
621.735	25872.33
621.93	25262.04
622.125	25360.34
622.32	25243.6
622.515	24917.98
622.709	24651.74
622.904	25001.94
623.099	24578.01
623.294	24672.22
623.488	24317.92
623.683	24319.97
623.878	24229.86
624.072	24018.92
624.267	24039.4
624.462	23887.85
624.656	23672.81
624.851	23924.71
625.046	23519.21
625.24	23187.44
625.435	23220.21
625.629	23029.75
625.824	23207.92
626.018	22994.93
626.213	22517.76
626.407	22753.27
626.602	22362.11
626.796	22542.33
626.991	22378.5
627.185	22403.07
627.38	22294.53
627.574	22171.65
627.768	21717
627.963	21657.61
628.157	21633.04
628.352	21882.89
628.546	21538.83
628.74	21383.18
628.935	20981.78
629.129	21432.33
629.323	20779.03
629.517	21008.4
629.712	20873.24
629.906	20498.46
630.1	20279.33
630.294	20471.84
630.489	20389.92
630.683	20228.13
630.877	20181.03
631.071	19922.98
631.265	20088.87
631.459	19947.56
631.653	19650.6
631.848	19828.77
632.042	19734.57
632.236	19542.06
632.43	19146.8
632.624	19437.61
632.818	19408.94
633.012	18823.22
633.206	18661.43
633.4	18911.28
633.594	18550.84
633.788	18655.29
633.982	18866.23
634.176	18583.61
634.369	18313.28
634.563	18085.95
634.757	17901.64
634.951	18217.02
635.145	18184.26
635.339	18163.78
635.533	18044.99
635.726	17823.81
635.92	17639.5
636.114	17522.76
636.308	17526.86
636.501	17442.89
636.695	17293.39
636.889	17190.99
637.083	16978
637.276	16916.56
637.47	16822.36
637.664	16955.47
637.857	16787.54
638.051	16468.06
638.244	16734.29
638.438	16650.33
638.632	16668.76
638.825	16058.46
639.019	16232.54
639.212	16222.3
639.406	16259.17
639.599	16119.9
639.793	15929.44
639.986	16068.7
640.18	15863.91
640.373	15661.16
640.567	15485.03
640.76	15476.84
640.954	15546.47
641.147	15411.31
641.34	15140.97
641.534	15165.55
641.727	15024.24
641.92	15087.73
642.114	15208.56
642.307	14784.63
642.5	14948.47
642.694	14594.17
642.887	14530.68
643.08	14798.96
643.273	14428.28
643.467	14420.09
643.66	14424.19
643.853	14305.4
644.046	14239.87
644.239	14063.74
644.432	14246.01
644.626	13916.29
644.819	13740.16
645.012	14002.3
645.205	13729.92
645.398	13891.71
645.591	13725.83
645.784	13699.2
645.977	13416.58
646.17	13539.46
646.363	13367.43
646.556	13363.34
646.749	13394.06
646.942	13416.58
647.135	13123.73
647.328	13174.92
647.521	12802.19
647.714	12707.99
647.907	12863.63
648.099	12884.11
648.292	12882.06
648.485	12736.66
648.678	12497.05
648.871	12402.84
649.064	12482.71
649.256	12413.08
649.449	12294.3
649.642	12388.5
649.835	12007.58
650.027	12142.75
650.22	12011.68
650.413	12075.17
650.605	11880.61
650.798	11950.24
650.991	11798.69
651.183	11583.65
651.376	11727.01
651.568	11655.33
651.761	11473.06
651.954	11710.63
652.146	11471.01
652.339	11520.17
652.531	11327.66
652.724	11167.91
652.916	11110.57
653.109	11083.95
653.301	11272.36
653.494	11270.31
653.686	10897.58
653.879	11022.51
654.071	10772.66
654.263	10635.44
654.456	10772.66
654.648	10743.99
654.84	10457.27
655.033	10481.85
655.225	10582.2
655.417	10250.42
655.61	10410.17
655.802	10377.4
655.994	10318.01
656.186	10340.54
656.379	10299.58
656.571	10256.57
656.763	10000.57
656.955	10012.86
657.148	10070.2
657.34	10059.96
657.532	9943.23
657.724	9853.12
657.916	9961.66
658.108	9795.78
658.3	9578.69
658.492	9838.78
658.684	9509.06
658.876	9507.01
659.068	9439.43
659.26	9593.03
659.452	9449.67
659.644	9265.35
659.836	9337.03
660.028	9236.68
660.22	9162.95
660.412	9124.04
660.604	9183.43
660.796	9154.76
660.988	8947.92
661.18	8958.16
661.372	8931.53
661.563	8853.71
661.755	8753.36
661.947	9064.65
662.139	8775.89
662.331	8665.3
662.522	8530.13
662.714	8593.62
662.906	8657.11
663.097	8532.18
663.289	8636.63
663.481	8542.42
663.673	8423.64
663.864	8433.88
664.056	8360.15
664.247	8415.44
664.439	8284.37
664.631	8222.94
664.822	8095.96
665.014	8194.26
665.205	8114.39
665.397	7913.69
665.588	7993.56
665.78	8046.81
665.971	8022.23
666.163	7872.73
666.354	7868.64
666.546	7905.5
666.737	7829.73
666.929	7522.53
667.12	7655.65
667.311	7676.13
667.503	7497.95
667.694	7680.22
667.885	7489.76
668.077	7639.26
668.268	7461.09
668.459	7403.75
668.651	7532.77
668.842	7284.97
669.033	7233.77
669.224	7338.21
669.416	7250.15
669.607	7170.28
669.798	7221.48
669.989	7340.26
670.18	7172.33
670.371	7227.62
670.563	7186.66
670.754	7051.5
670.945	6996.2
671.136	7031.02
671.327	7071.98
671.518	6957.29
671.709	6897.9
671.9	7035.11
672.091	6883.56
672.282	6711.53
672.473	6822.13
672.664	6791.41
672.855	6676.72
673.046	6779.12
673.237	6672.62
673.428	6723.82
673.619	6781.17
673.809	6555.89
674	6883.56
674.191	6418.68
674.382	6549.75
674.573	6572.27
674.764	6506.74
674.954	6541.55
675.145	6576.37
675.336	6406.39
675.527	6383.86
675.717	6320.37
675.908	6426.87
676.099	6484.21
676.289	6250.74
676.48	6285.56
676.671	6365.43
676.861	6301.94
677.052	5984.51
677.243	6189.3
677.433	6279.41
677.624	6136.06
677.814	6054.14
678.005	6195.45
678.195	6091
678.386	6025.47
678.576	5992.7
678.767	6121.72
678.957	6000.89
679.148	6035.71
679.338	5884.16
679.529	6013.18
679.719	5886.2
679.909	6142.2
680.1	5824.76
680.29	5818.62
680.481	5929.21
680.671	5970.17
680.861	5763.33
681.052	5759.23
681.242	5667.07
681.432	5832.96
681.622	5769.47
681.813	5839.1
682.003	5689.6
682.193	5777.66
682.383	5728.51
682.573	5695.74
682.764	5601.54
682.954	5654.78
683.144	5658.88
683.334	5624.06
683.524	5716.22
683.714	5474.56
683.904	5499.14
684.094	5576.96
684.284	5519.62
684.474	5486.85
684.664	5560.58
684.854	5341.44
685.044	5343.49
685.234	5394.69
685.424	5449.99
685.614	5406.98
685.804	5470.47
685.994	5380.36
686.184	5421.31
686.374	5187.85
686.564	5392.64
686.753	5214.47
686.943	5288.2
687.133	5198.09
687.323	5237
687.513	5257.48
687.702	5222.66
687.892	5036.3
688.082	5116.17
688.272	5091.59
688.461	4878.6
688.651	5144.84
688.841	4999.43
689.03	4892.94
689.22	4843.79
689.41	4976.91
689.599	4868.36
689.789	4937.99
689.979	5116.17
690.168	4843.79
690.358	4815.12
690.547	4763.92
690.737	4782.35
690.926	4876.55
691.116	4647.18
691.305	4802.83
691.495	4759.82
691.684	4673.81
691.874	4671.76
692.063	4704.53
692.252	4636.94
692.442	4630.8
692.631	4548.88
692.82	4485.39
693.01	4483.34
693.199	4587.79
693.388	4499.73
693.578	4487.44
693.767	4436.24
693.956	4495.63
694.146	4477.2
694.335	4374.8
694.524	4395.28
694.713	4450.58
694.902	4352.27
695.092	4598.03
695.281	4405.52
695.47	4129.05
695.659	4243.73
695.848	4249.88
696.037	4331.8
696.226	4213.01
696.415	4294.93
696.604	4223.25
696.793	4192.53
696.982	4296.98
697.171	4176.15
697.36	4221.2
697.549	4167.96
697.738	4079.9
697.927	4161.81
698.116	4096.28
698.305	4036.89
698.494	4094.23
698.683	4088.09
698.872	4235.54
699.061	4206.87
699.25	4176.15
699.438	4079.9
699.627	3862.81
699.816	4237.59
700.005	3985.69
700.193	3944.73
700.382	3934.49
700.571	3983.64
700.76	4051.22
700.948	4081.94
701.137	3985.69
701.326	4020.5
701.514	3993.88
701.703	3924.25
701.892	3866.91
702.08	3967.26
702.269	3856.67
702.457	3899.67
702.646	3954.97
702.834	3717.4
703.023	4032.79
703.212	3842.33
703.4	3838.23
703.589	3830.04
703.777	3854.62
703.965	3754.27
704.154	3879.19
704.342	3721.5
704.531	3811.61
704.719	3778.84
704.907	3819.8
705.096	3672.35
705.284	3774.75
705.472	3690.78
705.661	3698.97
705.849	3674.4
706.037	3723.55
706.226	3639.58
706.414	3637.53
706.602	3713.31
706.79	3795.23
706.979	3602.72
707.167	3688.73
707.355	3750.17
707.543	3572
707.731	3703.07
707.919	3639.58
708.107	3549.47
708.296	3549.47
708.484	3569.95
708.672	3729.69
708.86	3510.56
709.048	3574.05
709.236	3631.39
709.424	3594.53
709.612	3565.85
709.8	3422.5
709.988	3424.55
710.176	3555.62
710.364	3608.86
710.551	3512.61
710.739	3467.55
710.927	3445.02
711.115	3524.9
711.303	3475.74
711.491	3434.78
711.679	3406.11
711.866	3344.67
712.054	3424.55
712.242	3447.07
712.43	3500.32
712.617	3395.87
712.805	3442.98
712.993	3485.98
713.181	3402.02
713.368	3316
713.556	3504.42
713.744	3340.58
713.931	3395.87
714.119	3371.3
714.306	3322.15
714.494	3266.85
714.682	3287.33
714.869	3385.63
715.057	3381.54
715.244	3264.8
715.432	3285.28
715.619	3283.24
715.807	3303.71
715.994	3172.64
716.182	3273
716.369	3262.76
716.556	3207.46
716.744	3273
716.931	3125.54
717.119	3295.52
717.306	3189.03
717.493	3154.21
717.681	3043.62
717.868	3246.37
718.055	3221.8
718.242	3152.17
718.43	3197.22
718.617	3238.18
718.804	3238.18
718.991	3281.19
719.179	3074.34
719.366	3182.88
719.553	3094.82
719.74	3039.53
719.927	3107.11
720.114	2967.85
720.301	3055.91
720.488	3148.07
720.676	2986.28
720.863	2978.09
721.05	3197.22
721.237	2955.56
721.424	3062.05
721.611	3078.44
721.798	3043.62
721.985	2963.75
722.172	2986.28
722.358	3090.73
722.545	3004.71
722.732	2937.13
722.919	3060.01
723.106	2957.61
723.293	2953.51
723.48	2967.85
723.667	2906.41
723.853	2849.07
724.04	2920.74
724.227	3010.86
724.414	2939.18
724.6	2969.9
724.787	2984.23
724.974	2976.04
725.161	2887.98
725.347	2906.41
725.534	2971.94
725.72	2795.82
725.907	3100.97
726.094	2941.22
726.28	2902.31
726.467	2820.39
726.653	2910.5
726.84	2873.64
727.027	3068.2
727.213	2879.79
727.4	2824.49
727.586	2941.22
727.773	2881.83
727.959	2836.78
728.145	2869.55
728.332	2935.08
728.518	2781.48
728.705	2806.06
728.891	2750.76
729.077	2787.63
729.264	2943.27
729.45	2715.95
729.636	2797.87
729.823	2808.11
730.009	2902.31
730.195	2775.34
730.382	2924.84
730.568	2832.68
730.754	2758.96
730.94	2808.11
731.126	2806.06
731.313	2756.91
731.499	2828.59
731.685	2779.43
731.871	2765.1
732.057	2713.9
732.243	2787.63
732.429	2683.18
732.615	2808.11
732.801	2695.47
732.987	2736.43
733.173	2644.27
733.359	2724.14
733.545	2664.75
733.731	2795.82
733.917	2707.76
734.103	2773.29
734.289	2640.17
734.475	2681.13
734.661	2754.86
734.847	2685.23
735.033	2580.78
735.219	2736.43
735.404	2758.96
735.59	2699.56
735.776	2799.91
735.962	2662.7
736.148	2709.8
736.333	2644.27
736.519	2603.31
736.705	2550.06
736.89	2689.32
737.076	2621.74
737.262	2511.15
737.447	2576.69
737.633	2668.84
737.819	2650.41
738.004	2558.25
738.19	2593.07
738.375	2609.45
738.561	2681.13
738.747	2627.89
738.932	2541.87
739.118	2660.65
739.303	2484.53
739.489	2484.53
739.674	2476.34
739.859	2468.14
740.045	2488.62
740.23	2519.34
740.416	2494.77
740.601	2386.22
740.786	2394.42
740.972	2402.61
741.157	2363.7
741.342	2406.7
741.528	2453.81
741.713	2361.65
741.898	2464.05
742.084	2296.11
742.269	2296.11
742.454	2437.42
742.639	2328.88
742.824	2294.07
743.01	2375.99
743.195	2318.64
743.38	2287.92
743.565	2357.55
743.75	2277.68
743.935	2238.77
744.12	2363.7
744.305	2206
744.49	2255.15
744.675	2257.2
744.86	2265.39
745.045	2234.68
745.23	2163
745.415	2246.96
745.6	2208.05
745.785	2193.72
745.97	2177.33
746.155	2152.76
746.34	2216.24
746.525	2103.61
746.71	2289.97
746.895	2087.22
747.079	2107.7
747.264	2044.21
747.449	2138.42
747.634	2056.5
747.819	2091.32
748.003	1972.54
748.188	2107.7
748.373	1976.63
748.557	2064.69
748.742	1964.34
748.927	1898.81
749.111	2001.21
749.296	2017.59
749.481	1894.71
749.665	2074.93
749.85	1907
750.034	1986.87
750.219	1847.61
750.404	1876.28
750.588	1855.8
750.773	1845.56
750.957	1878.33
751.141	1843.51
751.326	1814.84
751.51	1786.17
751.695	1771.83
751.879	1728.83
752.064	1804.6
752.248	1597.76
752.432	1747.26
752.617	1640.76
752.801	1651
752.985	1749.31
753.17	1732.92
753.354	1700.16
753.538	1665.34
753.722	1673.53
753.907	1667.39
754.091	1605.95
754.275	1655.1
754.459	1681.72
754.643	1556.8
754.828	1591.61
755.012	1544.51
755.196	1546.56
755.38	1599.8
755.564	1612.09
755.748	1556.8
755.932	1421.63
756.116	1468.73
756.3	1435.97
756.484	1507.65
756.668	1501.5
756.852	1405.25
757.036	1349.95
757.22	1509.69
757.404	1399.1
757.588	1405.25
757.772	1448.26
757.956	1280.32
758.14	1403.2
758.323	1329.47
758.507	1429.82
758.691	1263.94
758.875	1376.58
759.059	1337.66
759.242	1296.71
759.426	1354.05
759.61	1329.47
759.794	1202.5
759.977	1296.71
760.161	1356.1
760.345	1263.94
760.528	1231.17
760.712	1257.79
760.895	1175.88
761.079	1362.24
761.263	1210.69
761.446	1186.12
761.63	1227.07
761.813	1231.17
761.997	1157.44
762.18	1143.11
762.364	1202.5
762.547	1165.64
762.731	1175.88
762.914	1173.83
763.098	1177.92
763.281	1091.91
763.464	1104.2
763.648	1235.27
763.831	1182.02
764.015	1106.24
764.198	1145.16
764.381	1141.06
764.564	1143.11
764.748	1110.34
764.931	1190.21
765.114	1085.76
765.297	1102.15
765.481	1108.29
765.664	1034.57
765.847	1120.58
766.03	1165.64
766.213	1075.52
766.397	1143.11
766.58	1089.86
766.763	1116.48
766.946	1085.76
767.129	1102.15
767.312	1061.19
767.495	977.22
767.678	983.37
767.861	1108.29
768.044	1108.29
768.227	1128.77
768.41	1126.72
768.593	1034.57
768.776	889.16
768.959	946.5
769.142	1055.05
769.324	1012.04
769.507	1100.1
769.69	893.26
769.873	973.13
770.056	1075.52
770.239	993.61
770.421	969.03
770.604	973.13
770.787	971.08
770.97	948.55
771.152	878.92
771.335	903.5
771.518	948.55
771.7	946.5
771.883	942.41
772.066	919.88
772.248	797
772.431	969.03
772.613	895.3
772.796	932.17
772.978	897.35
773.161	930.12
773.343	848.2
773.526	725.32
773.708	813.38
773.891	846.15
774.073	864.58
774.256	823.62
774.438	733.51
774.621	747.85
774.803	872.78
774.985	782.67
775.168	903.5
775.35	813.38
775.532	842.06
775.715	799.05
775.897	780.62
776.079	698.7
776.261	840.01
776.444	903.5
776.626	807.24
776.808	649.55
776.99	657.74
777.173	768.33
777.355	776.52
777.537	780.62
777.719	670.03
777.901	797
778.083	704.84
778.265	731.47
778.447	700.75
778.629	717.13
778.811	670.03
778.993	727.37
779.175	665.93
779.357	694.6
779.539	684.36
779.721	706.89
779.903	715.08
780.085	608.59
780.267	692.55
780.449	655.69
780.631	637.26
780.812	624.97
780.994	584.01
781.176	600.4
781.358	575.82
781.54	633.16
781.721	629.07
781.903	643.4
782.085	586.06
782.267	584.01
782.448	504.14
782.63	655.69
782.812	633.16
782.993	584.01
783.175	569.68
783.357	586.06
783.538	530.77
783.72	573.77
783.901	512.33
784.083	514.38
784.264	536.91
784.446	565.58
784.627	530.77
784.809	577.87
784.99	510.29
785.172	543.05
785.353	512.33
785.535	510.29
785.716	477.52
785.897	469.33
786.079	502.09
786.26	454.99
786.441	592.2
786.623	457.04
786.804	487.76
786.985	477.52
787.167	573.77
787.348	504.14
787.529	452.94
787.71	436.56
787.891	438.61
788.073	442.7
788.254	452.94
788.435	436.56
788.616	354.64
788.797	446.8
788.978	418.13
789.159	430.41
789.34	440.65
789.522	430.41
789.703	395.6
789.884	383.31
790.065	381.26
790.246	377.17
790.427	461.13
790.607	436.56
790.788	414.03
790.969	330.06
791.15	418.13
791.331	414.03
791.512	313.68
791.693	377.17
791.874	401.74
792.054	414.03
792.235	416.08
792.416	418.13
792.597	348.5
792.778	348.5
792.958	366.93
793.139	405.84
793.32	334.16
793.5	354.64
793.681	373.07
793.862	391.5
794.042	309.58
794.223	313.68
794.404	428.37
794.584	274.77
794.765	346.45
794.945	373.07
795.126	264.53
795.306	342.35
795.487	420.17
795.667	313.68
795.848	407.89
796.028	340.3
796.209	266.58
796.389	330.06
796.57	291.15
796.75	285.01
796.93	342.35
797.111	371.02
797.291	280.91
797.471	330.06
797.652	254.29
797.832	299.34
798.012	256.34
798.192	268.63
798.373	307.54
798.553	256.34
798.733	262.48
798.913	293.2
799.093	289.1
799.274	254.29
799.454	338.26
799.634	289.1
799.814	250.19
799.994	330.06
800.174	289.1
800.354	289.1
800.534	274.77
800.714	346.45
800.894	225.62
801.074	280.91
801.254	190.8
801.434	332.11
801.614	252.24
801.794	162.13
801.974	772.43
802.154	217.43
802.334	291.15
802.514	211.28
802.693	297.3
802.873	217.43
803.053	276.82
803.233	268.63
803.413	299.34
803.592	182.61
803.772	242
803.952	190.8
804.131	248.15
804.311	215.38
804.491	282.96
804.67	180.56
804.85	209.23
805.03	244.05
805.209	248.15
805.389	278.87
805.568	239.95
805.748	223.57
805.928	155.99
806.107	186.71
806.287	217.43
806.466	227.67
806.646	248.15
806.825	217.43
807.004	207.19
807.184	235.86
807.363	239.95
807.543	266.58
807.722	266.58
807.901	262.48
808.081	215.38
808.26	143.7
808.439	207.19
808.619	207.19
808.798	143.7
808.977	192.85
809.156	242
809.336	211.28
809.515	246.1
809.694	182.61
809.873	153.94
810.052	223.57
810.231	213.33
810.411	260.43
810.59	215.38
810.769	248.15
810.948	217.43
811.127	182.61
811.306	139.6
811.485	182.61
811.664	176.47
811.843	168.27
812.022	160.08
812.201	248.15
812.38	227.67
812.559	135.51
812.737	233.81
812.916	125.27
813.095	153.94
813.274	166.23
813.453	141.65
813.632	151.89
813.811	184.66
813.989	139.6
814.168	133.46
814.347	184.66
814.526	190.8
814.704	223.57
814.883	143.7
815.062	209.23
815.24	166.23
815.419	164.18
815.598	174.42
815.776	190.8
815.955	160.08
816.133	92.5
816.312	203.09
816.49	192.85
816.669	115.03
816.847	119.12
817.026	170.32
817.204	186.71
817.383	143.7
817.561	135.51
817.74	119.12
817.918	166.23
818.097	110.93
818.275	10.58
818.453	117.08
818.632	143.7
818.81	133.46
818.988	127.32
819.167	151.89
819.345	129.36
819.523	80.21
819.701	162.13
819.879	121.17
820.058	133.46
820.236	137.56
820.414	158.03
820.592	82.26
820.77	74.07
820.948	108.88
821.127	55.64
821.305	131.41
821.483	133.46
821.661	137.56
821.839	92.5
822.017	39.25
822.195	166.23
822.373	151.89
822.551	137.56
822.729	78.16
822.907	117.08
823.085	149.84
823.262	170.32
823.44	168.27
823.618	129.36
823.796	153.94
823.974	201.04
824.152	100.69
824.329	149.84
824.507	112.98
824.685	166.23
824.863	104.79
825.04	129.36
825.218	90.45
825.396	164.18
825.574	131.41
825.751	119.12
825.929	117.08
826.107	141.65
826.284	141.65
826.462	117.08
826.639	92.5
826.817	141.65
826.994	143.7
827.172	100.69
827.349	231.76
827.527	158.03
827.704	47.44
827.882	117.08
828.059	92.5
828.237	35.16
828.414	162.13
828.591	57.68
828.769	196.95
828.946	121.17
829.124	45.4
829.301	84.31
829.478	49.49
829.655	88.4
829.833	92.5
830.01	88.4
830.187	35.16
830.364	63.83
830.542	37.2
830.719	151.89
830.896	88.4
831.073	135.51
831.25	47.44
831.427	108.88
831.604	92.5
831.782	82.26
831.959	63.83
832.136	55.64
832.313	141.65
832.49	121.17
832.667	143.7
832.844	31.06
833.021	108.88
833.198	63.83
833.374	88.4
833.551	98.64
833.728	86.36
833.905	119.12
834.082	125.27
834.259	129.36
834.436	125.27
834.612	35.16
834.789	53.59
834.966	129.36
835.143	6.49
835.319	41.3
835.496	102.74
835.673	26.96
835.85	86.36
836.026	61.78
836.203	100.69
836.38	47.44
836.556	119.12
836.733	35.16
836.909	117.08
837.086	47.44
837.262	-11.95
837.439	16.73
837.616	143.7
837.792	88.4
837.968	53.59
838.145	33.11
838.321	76.12
838.498	72.02
838.674	76.12
838.851	10.58
839.027	129.36
839.203	61.78
839.38	80.21
839.556	41.3
839.732	172.37
839.909	12.63
840.085	112.98
840.261	76.12
840.437	12.63
840.614	18.77
840.79	133.46
840.966	96.6
841.142	69.97
841.318	100.69
841.494	67.92
841.671	63.83
841.847	80.21
842.023	110.93
842.199	100.69
842.375	43.35
842.551	98.64
842.727	-38.57
842.903	69.97
843.079	18.77
843.255	69.97
843.431	29.01
843.607	51.54
843.783	63.83
843.959	108.88
844.134	12.63
844.31	123.22
844.486	35.16
844.662	92.5
844.838	100.69
845.013	12.63
845.189	55.64
845.365	76.12
845.541	20.82
845.716	80.21
845.892	33.11
846.068	78.16
846.244	31.06
846.419	53.59
846.595	2.39
846.77	61.78
846.946	123.22
847.122	39.25
847.297	-22.19
847.473	55.64
847.648	2.39
847.824	37.2
847.999	10.58
848.175	67.92
848.35	61.78
848.526	45.4
848.701	33.11
848.876	96.6
849.052	108.88
849.227	59.73
849.403	14.68
849.578	63.83
849.753	35.16
849.929	35.16
850.104	-7.85
850.279	92.5
850.454	43.35
850.63	92.5
850.805	92.5
850.98	0.34
851.155	39.25
851.33	45.4
851.505	-36.52
851.681	84.31
851.856	31.06
852.031	59.73
852.206	55.64
852.381	90.45
852.556	94.55
852.731	72.02
852.906	12.63
853.081	29.01
853.256	4.44
853.431	55.64
853.606	45.4
853.781	-32.43
853.956	10.58
854.131	26.96
854.305	35.16
854.48	78.16
854.655	84.31
854.83	-5.8
855.005	37.2
855.18	2.39
855.354	4.44
855.529	69.97
855.704	12.63
855.879	39.25
856.053	51.54
856.228	39.25
856.403	82.26
856.577	39.25
856.752	47.44
856.926	53.59
857.101	69.97
857.276	-22.19
857.45	22.87
857.625	67.92
857.799	10.58
857.974	10.58
858.148	18.77
858.323	45.4
858.497	35.16
858.672	-71.34
858.846	-46.76
859.02	53.59
859.195	31.06
859.369	14.68
859.543	35.16
859.718	53.59
859.892	51.54
860.066	59.73
860.241	18.77
860.415	2.39
860.589	31.06
860.763	-22.19
860.938	-50.86
861.112	18.77
861.286	65.88
861.46	22.87
861.634	-13.99
861.808	35.16
861.982	-52.91
862.157	10.58
862.331	35.16
862.505	-30.38
862.679	57.68
862.853	12.63
863.027	57.68
863.201	92.5
863.375	-1.71
863.549	82.26
863.722	102.74
863.896	18.77
864.07	-5.8
864.244	-5.8
864.418	-34.47
864.592	59.73
864.766	61.78
864.939	-20.14
865.113	-52.91
865.287	-9.9
865.461	12.63
865.634	-3.75
865.808	76.12
865.982	45.4
866.156	26.96
866.329	-30.38
866.503	-38.57
866.676	92.5
866.85	123.22
867.024	31.06
867.197	59.73
867.371	45.4
867.544	-22.19
867.718	4.44
867.891	-9.9
868.065	-26.28
868.238	-1.71
868.412	4.44
868.585	-34.47
868.759	2.39
868.932	-20.14
869.105	67.92
869.279	10.58
869.452	-30.38
869.625	41.3
869.799	76.12
869.972	-16.04
870.145	43.35
870.319	59.73
870.492	6.49
870.665	-46.76
870.838	4.44
871.011	-38.57
871.185	10.58
871.358	49.49
871.531	22.87
871.704	10.58
871.877	-11.95
872.05	-34.47
872.223	10.58
872.396	35.16
872.569	39.25
872.742	57.68
872.915	-9.9
873.088	12.63
873.261	10.58
873.434	55.64
873.607	-5.8
873.78	76.12
873.953	-26.28
874.126	-20.14
874.299	100.69
874.471	51.54
874.644	29.01
874.817	35.16
874.99	-7.85
875.163	14.68
875.335	106.84
875.508	26.96
875.681	4.44
875.853	-3.75
876.026	20.82
876.199	12.63
876.371	100.69
876.544	-13.99
876.717	18.77
876.889	-30.38
877.062	35.16
877.234	-42.67
877.407	6.49
877.579	45.4
877.752	-13.99
877.924	4.44
878.097	-22.19
878.269	61.78
878.442	51.54
878.614	-30.38
878.786	45.4
878.959	14.68
879.131	-1.71
879.303	-9.9
879.476	-28.33
879.648	26.96
879.82	18.77
879.993	-61.1
880.165	-7.85
880.337	22.87
880.509	84.31
880.681	29.01
880.854	-13.99
881.026	2.39
881.198	86.36
881.37	-7.85
881.542	18.77
881.714	-46.76
881.886	55.64
882.058	-30.38
882.23	2.39
882.402	-20.14
882.574	4.44
882.746	51.54
882.918	20.82
883.09	-3.75
883.262	39.25
883.434	-42.67
883.606	-38.57
883.778	18.77
883.95	-30.38
884.122	-22.19
884.293	43.35
884.465	22.87
884.637	51.54
884.809	-30.38
884.98	-18.09
885.152	90.45
885.324	61.78
885.496	37.2
885.667	-46.76
885.839	-30.38
886.011	-28.33
886.182	18.77
886.354	26.96
886.525	80.21
886.697	24.92
886.869	-102.06
887.04	12.63
887.212	29.01
887.383	76.12
887.555	80.21
887.726	-13.99
887.897	6.49
888.069	-63.15
888.24	18.77
888.412	31.06
888.583	24.92
888.754	31.06
888.926	-63.15
889.097	37.2
889.268	6.49
889.44	18.77
889.611	-13.99
889.782	35.16
889.953	-89.77
890.125	4.44
890.296	4.44
890.467	-16.04
890.638	4.44
890.809	2.39
890.98	10.58
891.151	24.92
891.323	92.5
891.494	-26.28
891.665	-59.05
891.836	18.77
892.007	2.39
892.178	10.58
892.349	-38.57
892.52	-24.23
892.691	43.35
892.862	39.25
893.032	-1.71
893.203	-118.44
893.374	-42.67
893.545	6.49
893.716	-7.85
893.887	10.58
894.057	-36.52
894.228	-20.14
894.399	-26.28
894.57	-3.75
894.74	-59.05
894.911	-13.99
895.082	-40.62
895.253	-46.76
895.423	4.44
895.594	12.63
895.764	69.97
895.935	-36.52
896.106	74.07
896.276	-24.23
896.447	26.96
896.617	-30.38
896.788	-44.71
896.958	-26.28
897.129	65.88
897.299	-34.47
897.47	26.96
897.64	24.92
897.81	35.16
897.981	-71.34
898.151	-136.87
898.322	-9.9
898.492	69.97
898.662	22.87
898.832	-46.76
899.003	14.68
899.173	78.16
899.343	-16.04
899.513	-22.19
