Data from USB4F104151__141__14-19-17-872.txt Node

Date: Thu Mar 13 14:19:17 EDT 2025
User: louis
Spectrometer: USB4F10415
Trigger mode: 4
Integration Time (sec): 2.000000E-2
Scans to average: 1
Electric dark correction enabled: true
Nonlinearity correction enabled: false
Boxcar width: 0
XAxis mode: Wavelengths
Number of Pixels in Spectrum: 3648
>>>>>Begin Spectral Data<<<<<
178.204	-50.69
178.424	-50.69
178.644	-50.69
178.864	-52.74
179.084	-87.55
179.304	12.8
179.524	-42.5
179.744	-28.16
179.964	18.94
180.184	-38.4
180.404	18.94
180.624	-22.02
180.844	84.48
181.064	-3.58
181.283	41.47
181.503	4.61
181.723	-46.59
181.943	45.57
182.163	45.57
182.383	10.75
182.602	96.77
182.822	68.09
183.042	29.18
183.262	68.09
183.482	29.18
183.701	92.67
183.921	166.4
184.141	-32.26
184.361	104.96
184.58	53.76
184.8	27.14
185.02	27.14
185.239	43.52
185.459	98.81
185.679	55.81
185.898	70.14
186.118	68.09
186.338	90.62
186.557	94.72
186.777	47.62
186.997	14.85
187.216	29.18
187.436	127.49
187.655	92.67
187.875	-1.54
188.095	2.56
188.314	76.29
188.534	37.38
188.753	53.76
188.973	100.86
189.192	18.94
189.412	80.38
189.631	74.24
189.851	43.52
190.07	141.82
190.29	-13.82
190.509	43.52
190.729	2.56
190.948	88.57
191.168	133.63
191.387	104.96
191.607	29.18
191.826	80.38
192.045	12.8
192.265	76.29
192.484	12.8
192.704	27.14
192.923	23.04
193.142	10.75
193.362	55.81
193.581	35.33
193.8	68.09
194.02	23.04
194.239	41.47
194.458	78.33
194.678	47.62
194.897	49.66
195.116	51.71
195.335	18.94
195.555	74.24
195.774	6.66
195.993	27.14
196.212	72.19
196.432	51.71
196.651	39.42
196.87	27.14
197.089	152.06
197.308	0.51
197.528	133.63
197.747	37.38
197.966	35.33
198.185	59.9
198.404	27.14
198.623	76.29
198.842	68.09
199.062	145.92
199.281	64
199.5	100.86
199.719	29.18
199.938	86.53
200.157	27.14
200.376	109.05
200.595	2.56
200.814	2.56
201.033	20.99
201.252	113.15
201.471	84.48
201.69	55.81
201.909	102.91
202.128	72.19
202.347	18.94
202.566	100.86
202.785	51.71
203.004	18.94
203.223	59.9
203.442	59.9
203.661	-22.02
203.879	137.73
204.098	117.25
204.317	27.14
204.536	111.1
204.755	43.52
204.974	-5.63
205.193	-15.87
205.411	127.49
205.63	27.14
205.849	98.81
206.068	55.81
206.287	39.42
206.505	61.95
206.724	76.29
206.943	37.38
207.162	27.14
207.381	59.9
207.599	39.42
207.818	41.47
208.037	88.57
208.255	43.52
208.474	68.09
208.693	64
208.911	78.33
209.13	51.71
209.349	29.18
209.567	88.57
209.786	61.95
210.005	61.95
210.223	2.56
210.442	143.87
210.661	66.05
210.879	51.71
211.098	47.62
211.316	92.67
211.535	84.48
211.753	59.9
211.972	23.04
212.191	29.18
212.409	59.9
212.628	51.71
212.846	68.09
213.065	102.91
213.283	59.9
213.502	92.67
213.72	64
213.938	0.51
214.157	35.33
214.375	143.87
214.594	-5.63
214.812	80.38
215.031	94.72
215.249	88.57
215.467	94.72
215.686	10.75
215.904	141.82
216.122	37.38
216.341	135.68
216.559	25.09
216.778	51.71
216.996	84.48
217.214	94.72
217.432	121.34
217.651	10.75
217.869	12.8
218.087	23.04
218.306	121.34
218.524	59.9
218.742	96.77
218.96	35.33
219.179	31.23
219.397	-54.78
219.615	119.29
219.833	125.44
220.051	59.9
220.27	57.86
220.488	100.86
220.706	6.66
220.924	45.57
221.142	27.14
221.36	121.34
221.578	68.09
221.796	80.38
222.015	100.86
222.233	29.18
222.451	23.04
222.669	27.14
222.887	64
223.105	39.42
223.323	10.75
223.541	-7.68
223.759	18.94
223.977	76.29
224.195	66.05
224.413	96.77
224.631	31.23
224.849	82.43
225.067	133.63
225.285	80.38
225.503	53.76
225.721	31.23
225.939	53.76
226.157	55.81
226.375	184.83
226.592	2.56
226.81	88.57
227.028	111.1
227.246	80.38
227.464	98.81
227.682	27.14
227.9	16.9
228.117	12.8
228.335	-13.82
228.553	86.53
228.771	61.95
228.989	82.43
229.206	33.28
229.424	31.23
229.642	51.71
229.86	33.28
230.077	150.01
230.295	51.71
230.513	84.48
230.731	133.63
230.948	68.09
231.166	64
231.384	18.94
231.601	2.56
231.819	74.24
232.037	70.14
232.254	-13.82
232.472	98.81
232.689	123.39
232.907	78.33
233.125	33.28
233.342	76.29
233.56	31.23
233.777	74.24
233.995	98.81
234.213	174.59
234.43	37.38
234.648	20.99
234.865	23.04
235.083	104.96
235.3	27.14
235.518	133.63
235.735	70.14
235.953	102.91
236.17	53.76
236.388	37.38
236.605	72.19
236.822	178.69
237.04	64
237.257	47.62
237.475	23.04
237.692	88.57
237.909	39.42
238.127	27.14
238.344	25.09
238.562	45.57
238.779	51.71
238.996	12.8
239.214	45.57
239.431	102.91
239.648	94.72
239.865	51.71
240.083	55.81
240.3	53.76
240.517	70.14
240.735	-3.58
240.952	68.09
241.169	20.99
241.386	92.67
241.603	45.57
241.821	41.47
242.038	82.43
242.255	59.9
242.472	10.75
242.689	35.33
242.907	61.95
243.124	-17.92
243.341	84.48
243.558	33.28
243.775	31.23
243.992	18.94
244.209	135.68
244.426	119.29
244.643	29.18
244.86	47.62
245.078	70.14
245.295	-5.63
245.512	-28.16
245.729	25.09
245.946	78.33
246.163	33.28
246.38	66.05
246.597	-5.63
246.814	-1.54
247.031	37.38
247.248	23.04
247.464	27.14
247.681	51.71
247.898	43.52
248.115	29.18
248.332	20.99
248.549	55.81
248.766	100.86
248.983	102.91
249.2	31.23
249.417	84.48
249.633	107.01
249.85	84.48
250.067	25.09
250.284	27.14
250.501	135.68
250.717	113.15
250.934	8.7
251.151	27.14
251.368	29.18
251.585	109.05
251.801	43.52
252.018	43.52
252.235	18.94
252.451	39.42
252.668	70.14
252.885	18.94
253.102	86.53
253.318	92.67
253.535	70.14
253.752	35.33
253.968	78.33
254.185	41.47
254.401	27.14
254.618	23.04
254.835	84.48
255.051	96.77
255.268	59.9
255.484	78.33
255.701	78.33
255.917	35.33
256.134	10.75
256.351	45.57
256.567	-9.73
256.784	37.38
257	-38.4
257.217	45.57
257.433	10.75
257.65	109.05
257.866	33.28
258.082	41.47
258.299	-30.21
258.515	59.9
258.732	53.76
258.948	51.71
259.165	-13.82
259.381	27.14
259.597	59.9
259.814	25.09
260.03	45.57
260.246	109.05
260.463	12.8
260.679	59.9
260.895	55.81
261.112	10.75
261.328	125.44
261.544	53.76
261.761	113.15
261.977	109.05
262.193	16.9
262.409	127.49
262.626	25.09
262.842	100.86
263.058	4.61
263.274	86.53
263.49	47.62
263.707	27.14
263.923	35.33
264.139	18.94
264.355	86.53
264.571	70.14
264.787	43.52
265.004	68.09
265.22	4.61
265.436	61.95
265.652	37.38
265.868	59.9
266.084	66.05
266.3	96.77
266.516	80.38
266.732	-26.11
266.948	100.86
267.164	8.7
267.38	100.86
267.596	70.14
267.812	61.95
268.028	78.33
268.244	51.71
268.46	86.53
268.676	43.52
268.892	78.33
269.108	0.51
269.324	76.29
269.54	57.86
269.756	104.96
269.972	-30.21
270.188	35.33
270.403	104.96
270.619	66.05
270.835	39.42
271.051	0.51
271.267	16.9
271.483	70.14
271.698	4.61
271.914	-38.4
272.13	92.67
272.346	80.38
272.562	125.44
272.777	117.25
272.993	96.77
273.209	59.9
273.425	102.91
273.64	35.33
273.856	43.52
274.072	10.75
274.287	84.48
274.503	84.48
274.719	37.38
274.934	37.38
275.15	57.86
275.366	29.18
275.581	4.61
275.797	8.7
276.012	39.42
276.228	115.2
276.444	96.77
276.659	68.09
276.875	125.44
277.09	45.57
277.306	10.75
277.521	37.38
277.737	66.05
277.952	78.33
278.168	18.94
278.383	51.71
278.599	64
278.814	33.28
279.03	29.18
279.245	133.63
279.461	137.73
279.676	88.57
279.892	-28.16
280.107	111.1
280.322	33.28
280.538	80.38
280.753	82.43
280.969	84.48
281.184	18.94
281.399	72.19
281.615	23.04
281.83	127.49
282.045	20.99
282.26	64
282.476	92.67
282.691	125.44
282.906	35.33
283.122	37.38
283.337	-15.87
283.552	80.38
283.767	4.61
283.983	12.8
284.198	29.18
284.413	14.85
284.628	76.29
284.843	35.33
285.058	31.23
285.274	53.76
285.489	72.19
285.704	76.29
285.919	55.81
286.134	125.44
286.349	78.33
286.564	-7.68
286.779	68.09
286.995	10.75
287.21	-38.4
287.425	119.29
287.64	31.23
287.855	51.71
288.07	-3.58
288.285	55.81
288.5	2.56
288.715	-28.16
288.93	45.57
289.145	23.04
289.36	86.53
289.575	100.86
289.79	-13.82
290.004	94.72
290.219	76.29
290.434	47.62
290.649	-30.21
290.864	70.14
291.079	61.95
291.294	-3.58
291.509	31.23
291.724	100.86
291.938	53.76
292.153	37.38
292.368	41.47
292.583	90.62
292.798	102.91
293.012	137.73
293.227	96.77
293.442	78.33
293.657	70.14
293.871	109.05
294.086	86.53
294.301	102.91
294.516	53.76
294.73	98.81
294.945	-9.73
295.16	23.04
295.374	39.42
295.589	12.8
295.804	39.42
296.018	18.94
296.233	125.44
296.447	59.9
296.662	92.67
296.877	18.94
297.091	86.53
297.306	53.76
297.52	43.52
297.735	49.66
297.949	94.72
298.164	117.25
298.378	51.71
298.593	-3.58
298.807	57.86
299.022	18.94
299.236	133.63
299.451	18.94
299.665	14.85
299.88	102.91
300.094	41.47
300.309	45.57
300.523	80.38
300.737	37.38
300.952	107.01
301.166	35.33
301.381	-13.82
301.595	72.19
301.809	59.9
302.024	45.57
302.238	-9.73
302.452	12.8
302.667	2.56
302.881	131.58
303.095	64
303.309	33.28
303.524	45.57
303.738	78.33
303.952	70.14
304.166	156.16
304.381	49.66
304.595	35.33
304.809	-17.92
305.023	57.86
305.237	-13.82
305.452	43.52
305.666	90.62
305.88	102.91
306.094	78.33
306.308	59.9
306.522	117.25
306.736	137.73
306.95	29.18
307.164	37.38
307.379	92.67
307.593	68.09
307.807	121.34
308.021	47.62
308.235	113.15
308.449	-5.63
308.663	96.77
308.877	76.29
309.091	88.57
309.305	102.91
309.519	-65.02
309.733	33.28
309.947	117.25
310.161	27.14
310.374	59.9
310.588	47.62
310.802	-22.02
311.016	49.66
311.23	104.96
311.444	47.62
311.658	61.95
311.872	84.48
312.085	45.57
312.299	59.9
312.513	23.04
312.727	55.81
312.941	4.61
313.154	68.09
313.368	27.14
313.582	94.72
313.796	74.24
314.009	102.91
314.223	125.44
314.437	94.72
314.651	76.29
314.864	14.85
315.078	84.48
315.292	80.38
315.505	59.9
315.719	78.33
315.933	104.96
316.146	80.38
316.36	0.51
316.573	84.48
316.787	76.29
317.001	170.49
317.214	23.04
317.428	35.33
317.641	-17.92
317.855	18.94
318.068	98.81
318.282	88.57
318.495	59.9
318.709	121.34
318.922	-22.02
319.136	86.53
319.349	84.48
319.563	55.81
319.776	141.82
319.99	35.33
320.203	82.43
320.417	100.86
320.63	78.33
320.843	117.25
321.057	70.14
321.27	51.71
321.483	-13.82
321.697	72.19
321.91	76.29
322.124	94.72
322.337	41.47
322.55	59.9
322.763	51.71
322.977	43.52
323.19	59.9
323.403	57.86
323.617	43.52
323.83	84.48
324.043	31.23
324.256	45.57
324.469	98.81
324.683	113.15
324.896	80.38
325.109	84.48
325.322	88.57
325.535	115.2
325.748	152.06
325.962	84.48
326.175	18.94
326.388	84.48
326.601	143.87
326.814	76.29
327.027	33.28
327.24	59.9
327.453	35.33
327.666	18.94
327.879	102.91
328.092	61.95
328.305	2.56
328.518	84.48
328.731	88.57
328.944	39.42
329.157	86.53
329.37	109.05
329.583	35.33
329.796	20.99
330.009	-44.54
330.222	70.14
330.435	53.76
330.648	84.48
330.861	20.99
331.073	84.48
331.286	29.18
331.499	59.9
331.712	-11.78
331.925	6.66
332.138	23.04
332.35	90.62
332.563	-13.82
332.776	150.01
332.989	59.9
333.202	6.66
333.414	45.57
333.627	100.86
333.84	12.8
334.053	113.15
334.265	76.29
334.478	66.05
334.691	-42.5
334.903	117.25
335.116	92.67
335.329	37.38
335.541	45.57
335.754	127.49
335.966	-9.73
336.179	64
336.392	45.57
336.604	29.18
336.817	80.38
337.029	12.8
337.242	18.94
337.454	-13.82
337.667	27.14
337.88	18.94
338.092	150.01
338.305	94.72
338.517	115.2
338.729	35.33
338.942	127.49
339.154	55.81
339.367	45.57
339.579	20.99
339.792	100.86
340.004	12.8
340.217	88.57
340.429	78.33
340.641	23.04
340.854	6.66
341.066	-1.54
341.278	41.47
341.491	145.92
341.703	43.52
341.915	23.04
342.128	80.38
342.34	94.72
342.552	23.04
342.764	23.04
342.977	104.96
343.189	145.92
343.401	59.9
343.613	16.9
343.826	84.48
344.038	0.51
344.25	29.18
344.462	-30.21
344.674	35.33
344.886	41.47
345.099	137.73
345.311	12.8
345.523	76.29
345.735	115.2
345.947	141.82
346.159	18.94
346.371	90.62
346.583	80.38
346.795	64
347.007	45.57
347.219	-5.63
347.431	20.99
347.643	80.38
347.855	43.52
348.067	109.05
348.279	78.33
348.491	133.63
348.703	16.9
348.915	-13.82
349.127	-5.63
349.339	72.19
349.551	96.77
349.763	51.71
349.975	51.71
350.187	76.29
350.399	109.05
350.61	104.96
350.822	27.14
351.034	18.94
351.246	92.67
351.458	76.29
351.669	59.9
351.881	90.62
352.093	53.76
352.305	94.72
352.517	45.57
352.728	111.1
352.94	14.85
353.152	37.38
353.363	45.57
353.575	104.96
353.787	109.05
353.999	41.47
354.21	135.68
354.422	100.86
354.633	86.53
354.845	25.09
355.057	84.48
355.268	131.58
355.48	64
355.692	29.18
355.903	113.15
356.115	12.8
356.326	29.18
356.538	143.87
356.749	35.33
356.961	133.63
357.172	45.57
357.384	20.99
357.595	94.72
357.807	113.15
358.018	61.95
358.23	47.62
358.441	145.92
358.653	111.1
358.864	96.77
359.075	61.95
359.287	4.61
359.498	92.67
359.709	20.99
359.921	59.9
360.132	23.04
360.344	76.29
360.555	59.9
360.766	59.9
360.977	35.33
361.189	86.53
361.4	70.14
361.611	143.87
361.823	84.48
362.034	70.14
362.245	-22.02
362.456	72.19
362.667	14.85
362.879	166.4
363.09	98.81
363.301	49.66
363.512	70.14
363.723	6.66
363.935	-1.54
364.146	150.01
364.357	104.96
364.568	80.38
364.779	82.43
364.99	35.33
365.201	57.86
365.412	184.83
365.623	27.14
365.834	98.81
366.045	37.38
366.256	70.14
366.467	0.51
366.678	43.52
366.889	18.94
367.1	10.75
367.311	55.81
367.522	88.57
367.733	100.86
367.944	92.67
368.155	59.9
368.366	35.33
368.577	51.71
368.788	100.86
368.999	12.8
369.209	68.09
369.42	127.49
369.631	125.44
369.842	59.9
370.053	125.44
370.264	100.86
370.474	78.33
370.685	59.9
370.896	68.09
371.107	68.09
371.317	88.57
371.528	-3.58
371.739	43.52
371.95	109.05
372.16	33.28
372.371	76.29
372.582	70.14
372.792	102.91
373.003	27.14
373.214	51.71
373.424	123.39
373.635	113.15
373.846	156.16
374.056	70.14
374.267	68.09
374.477	82.43
374.688	102.91
374.898	35.33
375.109	84.48
375.319	68.09
375.53	16.9
375.74	129.53
375.951	6.66
376.161	143.87
376.372	68.09
376.582	43.52
376.793	129.53
377.003	84.48
377.214	18.94
377.424	100.86
377.635	84.48
377.845	20.99
378.055	92.67
378.266	59.9
378.476	78.33
378.686	12.8
378.897	72.19
379.107	82.43
379.317	41.47
379.528	109.05
379.738	86.53
379.948	37.38
380.158	94.72
380.369	92.67
380.579	37.38
380.789	64
380.999	100.86
381.21	182.78
381.42	94.72
381.63	70.14
381.84	117.25
382.05	0.51
382.261	47.62
382.471	12.8
382.681	94.72
382.891	88.57
383.101	18.94
383.311	23.04
383.521	88.57
383.731	-5.63
383.941	64
384.151	133.63
384.361	78.33
384.571	35.33
384.781	102.91
384.991	72.19
385.201	182.78
385.411	109.05
385.621	37.38
385.831	107.01
386.041	115.2
386.251	78.33
386.461	182.78
386.671	27.14
386.881	20.99
387.091	84.48
387.301	82.43
387.511	39.42
387.72	129.53
387.93	61.95
388.14	68.09
388.35	-9.73
388.56	111.1
388.769	109.05
388.979	100.86
389.189	86.53
389.399	139.77
389.609	150.01
389.818	109.05
390.028	133.63
390.238	59.9
390.447	123.39
390.657	133.63
390.867	-5.63
391.076	12.8
391.286	86.53
391.496	70.14
391.705	100.86
391.915	100.86
392.125	39.42
392.334	84.48
392.544	119.29
392.753	70.14
392.963	70.14
393.172	96.77
393.382	59.9
393.591	137.73
393.801	59.9
394.01	158.21
394.22	141.82
394.429	117.25
394.639	127.49
394.848	59.9
395.058	47.62
395.267	100.86
395.477	35.33
395.686	135.68
395.895	139.77
396.105	111.1
396.314	76.29
396.524	133.63
396.733	18.94
396.942	125.44
397.152	150.01
397.361	86.53
397.57	158.21
397.78	18.94
397.989	121.34
398.198	121.34
398.407	111.1
398.617	111.1
398.826	160.25
399.035	70.14
399.244	127.49
399.453	78.33
399.663	154.11
399.872	125.44
400.081	35.33
400.29	174.59
400.499	98.81
400.708	158.21
400.917	125.44
401.127	127.49
401.336	51.71
401.545	66.05
401.754	100.86
401.963	92.67
402.172	68.09
402.381	96.77
402.59	98.81
402.799	184.83
403.008	117.25
403.217	102.91
403.426	160.25
403.635	172.54
403.844	133.63
404.053	174.59
404.262	141.82
404.471	184.83
404.68	184.83
404.888	190.97
405.097	119.29
405.306	80.38
405.515	158.21
405.724	117.25
405.933	207.36
406.142	143.87
406.35	96.77
406.559	178.69
406.768	141.82
406.977	236.03
407.185	215.55
407.394	223.74
407.603	135.68
407.812	203.26
408.02	242.17
408.229	154.11
408.438	301.56
408.646	213.5
408.855	203.26
409.064	246.27
409.272	207.36
409.481	215.55
409.69	199.16
409.898	281.08
410.107	229.88
410.315	260.6
410.524	264.7
410.733	328.19
410.941	303.61
411.15	336.38
411.358	354.81
411.567	342.52
411.775	258.56
411.984	350.71
412.192	332.28
412.401	289.28
412.609	334.33
412.818	453.11
413.026	434.68
413.234	373.24
413.443	369.15
413.651	412.15
413.86	465.4
414.068	594.42
414.276	592.37
414.485	532.98
414.693	575.99
414.901	492.02
415.11	551.42
415.318	502.26
415.526	526.84
415.734	659.96
415.943	633.33
416.151	674.29
416.359	631.29
416.567	715.25
416.776	662.01
416.984	743.92
417.192	756.21
417.4	831.99
417.608	752.12
417.817	827.89
418.025	821.75
418.233	915.95
418.441	848.37
418.649	895.47
418.857	940.53
419.065	971.25
419.273	1018.35
419.481	1010.16
419.689	1051.12
419.897	1151.47
420.105	1137.13
420.313	1182.19
420.521	1274.35
420.729	1245.68
420.937	1257.96
421.145	1305.07
421.353	1362.41
421.561	1427.95
421.769	1503.72
421.977	1524.2
422.185	1542.63
422.393	1599.98
422.601	1741.29
422.809	1669.61
423.017	1751.53
423.224	1796.58
423.432	1837.54
423.64	1788.39
423.848	1950.18
424.056	2011.62
424.263	2120.16
424.471	2083.3
424.679	2107.87
424.887	2353.63
425.094	2333.15
425.302	2341.34
425.51	2513.37
425.718	2402.78
425.925	2558.42
426.133	2806.23
426.341	2791.89
426.548	2863.57
426.756	2896.34
426.964	2976.21
427.171	2968.02
427.379	3193.3
427.586	3299.79
427.794	3271.12
428.001	3371.47
428.209	3713.48
428.417	3631.56
428.624	3856.84
428.832	3830.21
429.039	3695.05
429.247	3609.03
429.454	4125.12
429.662	4442.56
429.869	4190.66
430.076	4458.94
430.284	4270.53
430.491	4643.26
430.699	4823.48
430.906	4805.05
431.114	4712.89
431.321	4970.93
431.528	5095.86
431.736	5380.53
431.943	5501.36
432.15	5384.62
432.358	5663.15
432.565	5829.03
432.772	5900.71
432.979	6093.22
433.187	6281.63
433.394	6300.06
433.601	6664.6
433.808	6814.1
434.016	6533.53
434.223	6850.97
434.43	7371.15
434.637	7240.08
434.844	7532.94
435.052	7696.78
435.259	7594.38
435.466	7666.06
435.673	7811.46
435.88	8079.75
436.087	8655.23
436.294	8575.36
436.501	8452.48
436.708	8778.11
436.915	8999.29
437.122	9195.89
437.329	9101.69
437.537	9552.24
437.743	9754.99
437.95	9513.33
438.157	10103.14
438.364	10434.91
438.571	10529.12
438.778	10479.97
438.985	11563.34
439.192	10944.86
439.399	11571.54
439.606	11186.52
439.813	11700.56
440.02	12321.09
440.227	12386.63
440.433	12167.49
440.64	12581.18
440.847	12462.4
441.054	12900.67
441.261	13625.65
441.467	13392.18
441.674	13785.39
441.881	14199.08
442.088	13920.56
442.294	13750.57
442.501	14235.94
442.708	14631.2
442.914	15216.92
443.121	15976.72
443.328	15315.22
443.534	16470.28
443.741	16115.98
443.948	15827.21
444.154	16863.49
444.361	16800
444.568	16935.17
444.774	17119.48
444.981	17174.78
445.187	17676.53
445.394	18378.98
445.6	18147.56
445.807	19949.78
446.013	18983.13
446.22	19407.06
446.426	19906.77
446.633	20508.87
446.839	21045.44
447.046	20203.72
447.252	21043.39
447.459	21686.45
447.665	21151.93
447.871	22251.69
448.078	23081.12
448.284	22014.13
448.491	22456.49
448.697	23548.06
448.903	23947.41
449.11	23926.93
449.316	23324.83
449.522	23902.36
449.728	24860.8
449.935	24606.86
450.141	24406.16
450.347	25524.35
450.553	24651.91
450.76	25092.23
450.966	25835.64
451.172	25200.77
451.378	26097.78
451.584	25471.1
451.791	26089.59
451.997	26331.25
452.203	26675.3
452.409	26505.32
452.615	26437.74
452.821	25284.73
453.027	25346.17
453.233	26515.56
453.44	25716.86
453.646	25987.19
453.852	25831.54
454.058	26339.44
454.264	25563.26
454.47	26394.73
454.676	25729.14
454.882	26488.94
455.088	24189.07
455.294	24678.54
455.5	24971.39
455.705	25335.93
455.911	24164.5
456.117	23914.64
456.323	23292.06
456.529	22171.82
456.735	23144.61
456.941	22489.26
457.147	22552.74
457.352	21541.05
457.558	21708.98
457.764	21539
457.97	20979.9
458.176	20873.41
458.381	20558.02
458.587	19861.71
458.793	19734.74
458.999	18643.17
459.204	20058.32
459.41	19626.2
459.616	18462.95
459.821	18135.28
460.027	18165.99
460.233	17787.12
460.438	16806.14
460.644	17074.43
460.85	16281.86
461.055	16085.26
461.261	15823.12
461.466	15028.51
461.672	14536.99
461.878	15608.08
462.083	14446.88
462.289	14324.01
462.494	13967.66
462.7	13224.25
462.905	13060.41
463.111	13478.19
463.316	13551.92
463.522	13347.12
463.727	13052.22
463.932	13193.53
464.138	13115.7
464.343	12896.57
464.549	12595.52
464.754	13144.38
464.959	13084.98
465.165	12951.87
465.37	12235.08
465.575	11897.16
465.781	12523.84
465.986	12570.94
466.191	12087.62
466.397	11848.01
466.602	11235.67
466.807	11723.09
467.012	11747.66
467.218	11673.93
467.423	11635.02
467.628	11663.69
467.833	12032.33
468.038	11618.64
468.244	11211.09
468.449	11759.95
468.654	11192.66
468.859	11147.61
469.064	11219.28
469.269	10637.66
469.474	10832.22
469.679	11147.61
469.885	10731.87
470.09	10953.05
470.295	10985.82
470.5	10451.3
470.705	10752.35
470.91	10518.88
471.115	10338.66
471.32	10293.6
471.525	10307.94
471.73	9988.46
471.935	9918.82
472.139	9656.68
472.344	9953.64
472.549	9888.11
472.754	9697.64
472.959	9488.75
473.164	9277.81
473.369	9202.04
473.574	9662.83
473.778	9421.17
473.983	9341.3
474.188	9382.26
474.393	8915.32
474.598	9027.96
474.802	9021.81
475.007	8771.96
475.212	8720.76
475.417	8341.89
475.621	8546.69
475.826	8540.54
476.031	8266.11
476.235	8120.71
476.44	8161.67
476.645	8147.33
476.849	8155.52
477.054	8038.79
477.259	7913.86
477.463	7868.81
477.668	7778.7
477.872	7793.03
478.077	7778.7
478.282	7410.06
478.486	7448.97
478.691	7526.8
478.895	7477.65
479.1	7219.6
479.304	7354.77
479.509	7207.31
479.713	7244.18
479.918	7152.02
480.122	7000.47
480.326	7035.28
480.531	7139.73
480.735	7049.62
480.94	7125.4
481.144	7231.89
481.348	6990.23
481.553	6791.58
481.757	6752.66
481.961	7088.53
482.166	6773.14
482.37	6846.87
482.574	6818.2
482.778	6926.74
482.983	6979.99
483.187	6861.21
483.391	6834.58
483.595	6736.28
483.8	6828.44
484.004	6824.34
484.208	6760.86
484.412	6805.91
484.616	6625.69
484.821	6736.28
485.025	6656.41
485.229	6828.44
485.433	6662.55
485.637	6777.24
485.841	6693.27
486.045	6613.4
486.249	6664.6
486.453	6635.93
486.657	6627.74
486.861	6916.5
487.065	6621.59
487.269	6701.47
487.473	6580.64
487.677	6689.18
487.881	6818.2
488.085	6578.59
488.289	6873.5
488.493	6773.14
488.697	6928.79
488.901	6775.19
489.105	6826.39
489.309	6891.93
489.512	6740.38
489.716	6805.91
489.92	6990.23
490.124	6773.14
490.328	6992.28
490.531	6934.93
490.735	6840.73
490.939	6916.5
491.143	6875.54
491.346	7037.33
491.55	7027.09
491.754	7078.29
491.958	7154.07
492.161	7072.15
492.365	7174.55
492.569	6918.55
492.772	7170.45
492.976	7113.11
493.18	7143.83
493.383	7358.86
493.587	7354.77
493.79	7315.86
493.994	7256.47
494.197	7436.69
494.401	7416.21
494.605	7424.4
494.808	7582.09
495.012	7702.92
495.215	7801.22
495.419	7799.18
495.622	7702.92
495.825	7825.8
496.029	7895.43
496.232	7842.18
496.436	7956.87
496.639	8280.45
496.843	7920.01
497.046	8206.72
497.249	8219.01
497.453	8532.35
497.656	8456.57
497.859	8259.97
498.063	8432
498.266	8831.35
498.469	8704.38
498.673	8839.55
498.876	8890.74
499.079	8925.56
499.282	9062.77
499.485	9107.83
499.689	9380.21
499.892	9185.65
500.095	9312.63
500.298	9435.5
500.501	9464.18
500.705	9771.37
500.908	9890.15
501.111	10021.22
501.314	10094.95
501.517	10066.28
501.72	10176.87
501.923	10406.24
502.126	10545.5
502.329	10656.09
502.532	10549.6
502.735	10983.77
502.938	10926.43
503.141	10844.51
503.344	11159.89
503.547	11143.51
503.75	11391.31
503.953	11348.31
504.156	11663.69
504.359	11702.61
504.562	11909.45
504.765	12108.1
504.968	12120.39
505.17	12355.91
505.373	12147.01
505.576	12413.25
505.779	12693.82
505.982	12794.17
506.185	12910.91
506.387	13044.02
506.59	13222.2
506.793	13443.38
506.996	13379.89
507.198	13646.13
507.401	13420.85
507.604	13943.08
507.807	14006.57
508.009	14346.53
508.212	14270.76
508.415	14465.32
508.617	14735.65
508.82	14756.13
509.022	14623.01
509.225	15145.24
509.428	15165.72
509.63	15397.14
509.833	15345.94
510.035	15524.12
510.238	15583.51
510.44	15507.73
510.643	15943.95
510.845	15999.24
511.048	16300.3
511.25	16392.45
511.453	16558.34
511.655	16986.36
511.858	16775.42
512.06	16961.79
512.262	17213.69
512.465	17279.22
512.667	17385.72
512.87	17795.31
513.072	17488.12
513.274	18020.59
513.477	18079.98
513.679	18262.25
513.881	18360.55
514.084	18677.99
514.286	18647.27
514.488	18733.28
514.69	19290.33
514.893	19847.38
515.095	19491.03
515.297	19509.46
515.499	19986.64
515.701	20250.83
515.904	20195.53
516.106	20308.17
516.308	20500.68
516.51	20920.51
516.712	20869.31
516.914	21203.13
517.116	21201.08
517.318	21643.45
517.52	21680.31
517.722	21700.79
517.925	22001.84
518.127	22335.66
518.329	22341.8
518.531	22034.61
518.733	22626.47
518.935	23179.42
519.136	22847.65
519.338	23210.14
519.54	23494.81
519.742	23644.31
519.944	23761.05
520.146	24012.95
520.348	24176.78
520.55	24189.07
520.752	24322.19
520.954	24680.58
521.155	24848.52
521.357	25049.22
521.559	25337.98
521.761	25575.55
521.963	25505.91
522.164	25763.96
522.366	25761.91
522.568	26140.79
522.77	25952.37
522.971	26566.76
523.173	26540.14
523.375	27007.08
523.576	26681.45
523.778	26861.67
523.98	27256.93
524.181	26929.25
524.383	27199.58
524.584	27834.46
524.786	27783.26
524.988	27785.3
525.189	27787.35
525.391	28072.02
525.592	28180.56
525.794	28530.76
525.995	28485.71
526.197	28815.43
526.398	28610.64
526.6	28760.14
526.801	29016.13
527.003	29257.79
527.204	28915.78
527.406	29366.34
527.607	29423.68
527.808	29648.96
528.01	29053
528.211	29618.24
528.412	29919.29
528.614	29734.97
528.815	29634.62
529.016	30083.12
529.218	30033.97
529.419	29888.57
529.62	30212.15
529.822	30369.84
530.023	29997.11
530.224	30390.32
530.425	30220.34
530.626	29984.82
530.828	30101.56
531.029	30863.4
531.23	30470.19
531.431	30580.78
531.632	30822.44
531.833	30855.21
532.035	30709.8
532.236	30570.54
532.437	30750.76
532.638	30335.03
532.839	30603.31
533.04	30916.65
533.241	30572.59
533.442	30988.33
533.643	31008.81
533.844	30806.06
534.045	31141.92
534.246	30451.76
534.447	31246.37
534.648	30736.43
534.849	31047.72
535.05	30681.13
535.251	30969.9
535.451	30730.28
535.652	31123.49
535.853	30758.95
536.054	30906.41
536.255	30998.57
536.456	30599.21
536.657	31434.78
536.857	31043.62
537.058	30636.08
537.259	31055.91
537.46	31127.59
537.66	30685.23
537.861	30982.18
538.062	30812.2
538.263	30748.71
538.463	30769.19
538.664	30713.9
538.865	30662.7
539.065	31152.16
539.266	30935.08
539.466	31344.67
539.667	30644.27
539.868	31264.8
540.068	30822.44
540.269	30980.14
540.469	31152.16
540.67	30812.2
540.87	30748.71
541.071	31082.53
541.271	30771.24
541.472	30797.87
541.672	30787.63
541.873	30779.43
542.073	30144.56
542.274	31062.05
542.474	30795.82
542.675	30410.8
542.875	31180.84
543.075	30871.59
543.276	30570.54
543.476	31031.33
543.676	30578.73
543.877	30801.96
544.077	30625.84
544.277	30631.98
544.478	30662.7
544.678	30625.84
544.878	30867.5
545.078	30617.64
545.279	30392.37
545.479	30541.87
545.679	30887.98
545.879	30791.72
546.079	30578.73
546.28	30584.88
546.48	30314.55
546.68	30699.56
546.88	30369.84
547.08	30642.22
547.28	30414.9
547.48	30001.21
547.68	30287.92
547.88	30253.11
548.081	30650.41
548.281	30410.8
548.481	30343.22
548.681	30693.42
548.881	30392.37
549.081	30529.58
549.28	30124.08
549.48	30558.25
549.68	30269.49
549.88	30625.84
550.08	29978.68
550.28	30801.96
550.48	30400.56
550.68	30541.87
550.88	30224.43
551.08	30148.66
551.279	30416.94
551.479	29997.11
551.679	29950.01
551.879	30216.24
552.079	30038.07
552.278	29833.27
552.478	29986.87
552.678	30351.41
552.878	30375.98
553.077	30019.64
553.277	29939.77
553.477	30238.77
553.676	29892.66
553.876	30068.79
554.076	29907
554.275	29939.77
554.475	29581.37
554.674	29947.96
554.874	29980.73
555.074	29646.91
555.273	29904.95
555.473	29745.21
555.672	29927.48
555.872	29356.1
556.071	29995.06
556.271	29745.21
556.47	29505.6
556.67	29601.85
556.869	29728.83
557.068	29829.18
557.268	29222.98
557.467	29386.82
557.667	29311.04
557.866	29739.07
558.065	29374.53
558.265	29313.09
558.464	29206.59
558.663	29388.86
558.863	29608
559.062	29534.27
559.261	28960.84
559.461	29284.42
559.66	28817.48
559.859	29030.47
560.058	28815.43
560.258	29114.44
560.457	28676.17
560.656	29214.79
560.855	28659.79
561.054	28973.13
561.253	28690.51
561.453	28938.31
561.652	28872.78
561.851	28876.87
562.05	28629.07
562.249	28551.24
562.448	28819.53
562.647	28479.57
562.846	28577.87
563.045	28774.47
563.244	28383.31
563.443	28602.44
563.642	28180.56
563.841	28420.17
564.04	28162.13
564.239	28520.52
564.438	27799.64
564.637	28299.34
564.836	28065.88
565.035	27816.02
565.234	28119.12
565.432	27850.84
565.631	27902.04
565.83	27936.85
566.029	27727.96
566.228	27764.82
566.427	27459.68
566.625	27586.65
566.824	27236.45
567.023	27394.14
567.222	27281.5
567.42	27512.92
567.619	27392.09
567.818	27056.23
568.016	27211.87
568.215	27353.18
568.414	27177.06
568.612	27154.53
568.811	26714.22
569.01	27185.25
569.208	26562.67
569.407	27039.84
569.605	26648.68
569.804	26857.57
570.002	26658.92
570.201	26486.89
570.4	26470.51
570.598	26368.11
570.797	25954.42
570.995	26275.95
571.193	26005.62
571.392	26032.24
571.59	26118.26
571.789	25843.83
571.987	25854.07
572.186	25901.17
572.384	25802.87
572.582	25929.84
572.781	25952.37
572.979	25589.88
573.177	25231.49
573.376	25763.96
573.574	25260.16
573.772	25612.41
573.971	25045.12
574.169	25215.1
574.367	25090.18
574.565	25176.19
574.763	24983.68
574.962	24760.45
575.16	24635.53
575.358	24897.67
575.556	24385.68
575.754	24969.35
575.952	24670.34
576.151	24862.85
576.349	24428.68
576.547	24543.37
576.745	24569.99
576.943	24586.38
577.141	24258.7
577.339	24762.5
577.537	24033.43
577.735	24309.9
577.933	24135.82
578.131	24295.57
578.329	23795.86
578.527	23906.45
578.725	24187.02
578.923	24135.82
579.121	23845.01
579.319	23679.13
579.516	23783.57
579.714	23529.62
579.912	23496.86
580.11	23459.99
580.308	23396.51
580.506	23367.84
580.704	23318.68
580.901	23169.18
581.099	23466.14
581.297	23091.36
581.495	22999.2
581.692	23302.3
581.89	22700.2
582.088	22976.67
582.285	22849.7
582.483	22878.37
582.681	22550.7
582.878	22788.26
583.076	22476.97
583.274	22632.61
583.471	22569.13
583.669	22497.45
583.866	22124.72
584.064	22233.26
584.262	22026.42
584.459	22513.83
584.657	22118.57
584.854	22415.53
585.052	21737.65
585.249	22180.01
585.447	22110.38
585.644	21604.53
585.841	21616.82
586.039	21813.43
586.236	21657.78
586.434	21592.25
586.631	21405.88
586.828	21541.05
587.026	21541.05
587.223	21500.09
587.42	21182.65
587.618	21489.85
587.815	20766.92
588.012	21020.86
588.21	21145.79
588.407	21270.72
588.604	20940.99
588.801	20904.13
588.999	21063.87
589.196	20801.73
589.393	20644.04
589.59	20449.48
589.787	20529.35
589.984	20592.84
590.182	20183.24
590.379	20621.51
590.576	20291.79
590.773	20236.49
590.97	20080.85
591.167	20246.73
591.364	20029.65
591.561	20383.94
591.758	19753.17
591.955	19781.84
592.152	20003.02
592.349	19845.33
592.546	19949.78
592.743	19910.86
592.94	19474.65
593.137	19460.31
593.334	19497.17
593.531	19106.01
593.727	19443.93
593.924	19593.43
594.121	19118.3
594.318	19482.84
594.515	18942.17
594.712	19302.62
594.908	19255.51
595.105	19206.36
595.302	18880.74
595.499	18817.25
595.696	18944.22
595.892	18743.52
596.089	18835.68
596.286	18933.98
596.482	18901.22
596.679	18952.41
596.876	18415.85
597.072	18546.92
597.269	18327.78
597.466	18254.06
597.662	18335.98
597.859	18344.17
598.055	18282.73
598.252	17844.46
598.448	17918.19
598.645	18161.9
598.841	17658.1
599.038	18172.14
599.234	17963.25
599.431	17748.21
599.627	17539.32
599.824	17742.07
600.02	17582.32
600.217	17668.34
600.413	17563.89
600.609	17385.72
600.806	17473.78
601.002	17676.53
601.198	17342.71
601.395	17150.2
601.591	17197.31
601.787	17320.18
601.984	17242.36
602.18	17090.81
602.376	16863.49
602.572	16998.65
602.769	16959.74
602.965	17053.95
603.161	16697.6
603.357	16560.39
603.553	16630.02
603.75	16699.65
603.946	16435.46
604.142	16550.15
604.338	16253.19
604.534	16548.1
604.73	16486.66
604.926	16470.28
605.122	16593.15
605.318	16247.05
605.514	16173.32
605.71	16158.99
605.906	16449.8
606.102	16034.06
606.298	16062.73
606.494	15984.91
606.69	16156.94
606.886	15833.36
607.082	15653.14
607.278	16048.4
607.474	15483.16
607.67	15853.84
607.866	15665.42
608.062	15841.55
608.257	15573.27
608.453	15593.75
608.649	15583.51
608.845	15630.61
609.041	15536.4
609.236	15427.86
609.432	15374.61
609.628	15413.52
609.824	15550.74
610.019	15290.65
610.215	15266.07
610.411	15313.17
610.606	15296.79
610.802	15345.94
610.998	15096.09
611.193	15423.76
611.389	15175.96
611.584	14780.7
611.78	14969.12
611.976	15034.65
612.171	15102.23
612.367	14985.5
612.562	14768.41
612.758	14612.77
612.953	14868.77
613.149	14907.68
613.344	14606.63
613.539	15114.52
613.735	14917.92
613.93	14547.23
614.126	14674.21
614.321	14739.74
614.517	14651.68
614.712	14627.1
614.907	14352.68
615.103	14637.34
615.298	14393.64
615.493	14588.19
615.688	14479.65
615.884	14733.6
616.079	14223.65
616.274	14369.06
616.47	14297.38
616.665	14231.85
616.86	14256.42
617.055	14141.74
617.25	14354.72
617.445	14268.71
617.641	14020.91
617.836	14143.78
618.031	14006.57
618.226	14203.18
618.421	13873.45
618.616	14129.45
618.811	13824.3
619.006	13855.02
619.201	13470
619.396	13766.96
619.591	13574.45
619.786	13740.33
619.981	13592.88
620.176	13642.03
620.371	13330.74
620.566	13465.91
620.761	13404.47
620.956	13388.08
621.151	13048.12
621.346	13226.29
621.541	13060.41
621.735	13297.97
621.93	13080.89
622.125	12869.95
622.32	12650.81
622.515	12894.52
622.709	12622.14
622.904	12685.63
623.099	12603.71
623.294	12407.11
623.488	12519.74
623.683	12630.34
623.878	12243.27
624.072	12216.65
624.267	12253.51
624.462	12144.97
624.656	11979.08
624.851	12319.04
625.046	12007.75
625.24	11833.68
625.435	11929.93
625.629	11772.24
625.824	11729.23
626.018	11762
626.213	11344.21
626.407	11563.34
626.602	11346.26
626.796	11372.88
626.991	11503.95
627.185	11331.92
627.38	11047.26
627.574	11061.59
627.768	11086.17
627.963	11127.13
628.157	10910.04
628.352	10963.29
628.546	10838.36
628.74	10969.43
628.935	10535.26
629.129	10832.22
629.323	10625.37
629.517	10637.66
629.712	10428.77
629.906	10516.83
630.1	10348.9
630.294	10422.62
630.489	10312.03
630.683	10338.66
630.877	10219.88
631.071	10015.08
631.265	10160.48
631.459	10015.08
631.653	9963.88
631.848	10017.13
632.042	9931.11
632.236	9793.9
632.43	9746.8
632.624	9793.9
632.818	9777.51
633.012	9595.25
633.206	9576.81
633.4	9666.92
633.594	9376.11
633.788	9546.09
633.982	9603.44
634.176	9505.13
634.369	9197.94
634.563	9109.88
634.757	9468.27
634.951	9187.7
635.145	9345.39
635.339	8978.81
635.533	9212.28
635.726	8921.46
635.92	8769.91
636.114	8745.34
636.308	8778.11
636.501	8841.59
636.695	8640.89
636.889	8743.29
637.083	8653.18
637.276	8694.14
637.47	8679.8
637.664	8579.45
637.857	8636.8
638.051	8370.56
638.244	8302.98
638.438	8317.31
638.632	8313.22
638.825	8200.58
639.019	8173.96
639.212	8051.08
639.406	8034.69
639.599	8130.95
639.793	8038.79
639.986	7954.82
640.18	7967.11
640.373	7924.1
640.567	7639.44
640.76	7846.28
640.954	7819.66
641.147	7743.88
641.34	7608.72
641.534	7672.2
641.727	7723.4
641.92	7584.14
642.114	7467.41
642.307	7360.91
642.5	7475.6
642.694	7313.81
642.887	7418.25
643.08	7399.82
643.273	7342.48
643.467	7299.47
643.66	7244.18
643.853	7051.67
644.046	7033.24
644.239	7059.86
644.432	7039.38
644.626	6988.18
644.819	7106.96
645.012	6969.75
645.205	6853.02
645.398	6916.5
645.591	6662.55
645.784	6785.43
645.977	6750.62
646.17	6676.89
646.363	6723.99
646.556	6539.68
646.749	6525.34
646.942	6773.14
647.135	6508.96
647.328	6418.85
647.521	6269.34
647.714	6502.81
647.907	6521.24
648.099	6392.22
648.292	6394.27
648.485	6281.63
648.678	6177.19
648.871	6142.37
649.064	6351.26
649.256	6019.49
649.449	6132.13
649.642	5902.76
649.835	6052.26
650.027	6050.21
650.22	6066.6
650.413	5900.71
650.605	5880.23
650.798	5841.32
650.991	5663.15
651.183	5913
651.376	5736.87
651.568	5941.67
651.761	5622.19
651.954	5935.53
652.146	5755.3
652.339	5587.37
652.531	5702.06
652.724	5583.27
652.916	5515.69
653.109	5646.76
653.301	5624.23
653.494	5593.51
653.686	5560.75
653.879	5323.18
654.071	5431.73
654.263	5401.01
654.456	5333.42
654.648	5233.07
654.84	5231.02
655.033	5218.74
655.225	5278.13
655.417	5226.93
655.61	5155.25
655.802	5231.02
655.994	5134.77
656.186	5108.15
656.379	5083.57
656.571	5067.19
656.763	5007.8
656.955	4991.41
657.148	4860.34
657.34	4979.12
657.532	4841.91
657.724	4815.29
657.916	5085.62
658.108	4827.57
658.3	4827.57
658.492	4856.25
658.684	4704.7
658.876	4823.48
659.068	4592.06
659.26	4491.71
659.452	4663.74
659.644	4780.47
659.836	4647.35
660.028	4616.63
660.22	4444.6
660.412	4624.83
660.604	4526.52
660.796	4583.87
660.988	4442.56
661.18	4426.17
661.372	4405.69
661.563	4413.88
661.755	4374.97
661.947	4254.14
662.139	4270.53
662.331	4258.24
662.522	4323.77
662.714	4241.86
662.906	4366.78
663.097	4188.61
663.289	4204.99
663.481	4207.04
663.673	4221.38
663.864	4141.5
664.056	4172.22
664.247	4069.83
664.439	4069.83
664.631	4121.03
664.822	4051.39
665.014	4080.07
665.205	4059.59
665.397	4035.01
665.588	3920.32
665.78	3985.86
665.971	3905.99
666.163	4004.29
666.354	3951.04
666.546	3987.91
666.737	3785.16
666.929	3865.03
667.12	3682.76
667.311	3832.26
667.503	3746.25
667.694	3748.29
667.885	3772.87
668.077	3647.94
668.268	3658.18
668.459	3901.89
668.651	3744.2
668.842	3656.14
669.033	3629.51
669.224	3533.26
669.416	3793.35
669.607	3578.31
669.798	3557.83
669.989	3674.57
670.18	3625.42
670.371	3533.26
670.563	3574.22
670.754	3721.67
670.945	3557.83
671.136	3512.78
671.327	3576.27
671.518	3453.39
671.709	3402.19
671.9	3545.55
672.091	3412.43
672.282	3500.49
672.473	3389.9
672.664	3312.08
672.855	3338.7
673.046	3404.24
673.237	3484.11
673.428	3303.89
673.619	3574.22
673.809	3176.91
674	3248.59
674.191	3346.89
674.382	3320.27
674.573	3330.51
674.764	3256.78
674.954	3328.46
675.145	3185.1
675.336	3207.63
675.527	3144.14
675.717	3228.11
675.908	3099.09
676.099	3205.58
676.289	3273.17
676.48	3226.06
676.671	3224.01
676.861	3125.71
677.052	2918.87
677.243	3146.19
677.433	3070.42
677.624	3166.67
677.814	3148.24
678.005	3107.28
678.195	3172.82
678.386	3156.43
678.576	2986.45
678.767	3148.24
678.957	2976.21
679.148	3135.95
679.338	3119.57
679.529	3035.6
679.719	3068.37
679.909	3144.14
680.1	2933.2
680.29	2947.54
680.481	2931.16
680.671	3031.51
680.861	2974.16
681.052	3058.13
681.242	2927.06
681.432	2978.26
681.622	3017.17
681.813	3027.41
682.003	2873.81
682.193	2943.44
682.383	3088.85
682.573	2918.87
682.764	2929.11
682.954	2892.24
683.144	2963.92
683.334	2920.92
683.524	2853.33
683.714	2867.67
683.904	2955.73
684.094	2882
684.284	2922.96
684.474	2963.92
684.664	2929.11
684.854	2890.2
685.044	2925.01
685.234	2910.68
685.424	2904.53
685.614	2787.8
685.804	2787.8
685.994	2818.52
686.184	2843.09
686.374	2791.89
686.564	2716.12
686.753	2769.37
686.943	2752.98
687.133	2875.86
687.323	2804.18
687.513	2718.17
687.702	2722.26
687.892	2724.31
688.082	2709.97
688.272	2634.2
688.461	2623.96
688.651	2685.4
688.841	2634.2
689.03	2623.96
689.22	2595.29
689.41	2658.78
689.599	2814.42
689.789	2576.86
689.979	2626.01
690.168	2533.85
690.358	2583
690.547	2499.03
690.737	2554.33
690.926	2632.15
691.116	2458.07
691.305	2499.03
691.495	2453.98
691.684	2480.6
691.874	2370.01
692.063	2402.78
692.252	2503.13
692.442	2505.18
692.631	2544.09
692.82	2382.3
693.01	2443.74
693.199	2347.48
693.388	2370.01
693.578	2316.76
693.767	2494.94
693.956	2480.6
694.146	2349.53
694.335	2288.09
694.524	2316.76
694.713	2341.34
694.902	2267.61
695.092	2347.48
695.281	2390.49
695.47	2353.63
695.659	2318.81
695.848	2341.34
696.037	2230.75
696.226	2380.25
696.415	2288.09
696.604	2353.63
696.793	2345.44
696.982	2267.61
697.171	2302.43
697.36	2173.41
697.549	2308.57
697.738	2253.28
697.927	2224.61
698.116	2226.65
698.305	2148.83
698.494	2243.04
698.683	2093.54
698.872	2161.12
699.061	2169.31
699.25	2255.33
699.438	2236.89
699.627	2210.27
699.816	2251.23
700.005	2259.42
700.193	2216.41
700.382	2165.21
700.571	2255.33
700.76	2202.08
700.948	2142.69
701.137	2165.21
701.326	2167.26
701.514	2224.61
701.703	2148.83
701.892	2136.54
702.08	2263.52
702.269	2222.56
702.457	2165.21
702.646	2136.54
702.834	2050.53
703.023	2177.5
703.212	2202.08
703.4	2079.2
703.589	2140.64
703.777	2101.73
703.965	2177.5
704.154	2114.02
704.342	2054.62
704.531	2132.45
704.719	2060.77
704.907	2204.13
705.096	2124.26
705.284	2122.21
705.472	2001.38
705.661	2062.82
705.849	2042.34
706.037	2124.26
706.226	2165.21
706.414	2042.34
706.602	2046.43
706.79	2181.6
706.979	2101.73
707.167	2167.26
707.355	2050.53
707.543	2019.81
707.731	2050.53
707.919	2079.2
708.107	2007.52
708.296	2009.57
708.484	2064.86
708.672	2058.72
708.86	2148.83
709.048	1976.8
709.236	2054.62
709.424	1984.99
709.612	2040.29
709.8	2060.77
709.988	2058.72
710.176	2114.02
710.364	2042.34
710.551	2075.1
710.739	2005.47
710.927	2097.63
711.115	2114.02
711.303	1984.99
711.491	1960.42
711.679	1905.12
711.866	2066.91
712.054	2101.73
712.242	2005.47
712.43	1995.23
712.617	2054.62
712.805	2017.76
712.993	1960.42
713.181	1941.99
713.368	2054.62
713.556	2107.87
713.744	1976.8
713.931	2028
714.119	2052.58
714.306	1974.75
714.494	2056.67
714.682	1948.13
714.869	1944.03
715.057	1991.14
715.244	2011.62
715.432	2101.73
715.619	2011.62
715.807	1913.31
715.994	2009.57
716.182	2013.67
716.369	1976.8
716.556	2009.57
716.744	1970.66
716.931	1976.8
717.119	2068.96
717.306	2040.29
717.493	2007.52
717.681	2058.72
717.868	1978.85
718.055	1997.28
718.242	1911.27
718.43	1858.02
718.617	2005.47
718.804	1847.78
718.991	2017.76
719.179	1903.07
719.366	1927.65
719.553	1847.78
719.74	1962.47
719.927	2044.38
720.114	1825.25
720.301	1913.31
720.488	1905.12
720.676	1886.69
720.863	1987.04
721.05	2066.91
721.237	2011.62
721.424	2019.81
721.611	1919.46
721.798	1898.98
721.985	1952.23
722.172	1759.72
722.358	1954.27
722.545	2054.62
722.732	1931.75
722.919	1907.17
723.106	1788.39
723.293	1876.45
723.48	1913.31
723.667	1817.06
723.853	1929.7
724.04	1845.73
724.227	1954.27
724.414	1878.5
724.6	1919.46
724.787	1853.92
724.974	1888.74
725.161	1843.68
725.347	1853.92
725.534	1894.88
725.72	1812.96
725.907	1804.77
726.094	1966.56
726.28	1782.24
726.467	1915.36
726.653	1790.44
726.84	1837.54
727.027	1937.89
727.213	1878.5
727.4	1880.55
727.586	1786.34
727.773	1931.75
727.959	1855.97
728.145	2038.24
728.332	1837.54
728.518	1790.44
728.705	1839.59
728.891	2003.43
729.077	1753.57
729.264	1862.12
729.45	1782.24
729.636	1833.44
729.823	1913.31
730.009	1853.92
730.195	1894.88
730.382	1837.54
730.568	1817.06
730.754	1855.97
730.94	1845.73
731.126	1858.02
731.313	1823.2
731.499	1927.65
731.685	1774.05
731.871	1806.82
732.057	1722.85
732.243	1837.54
732.429	1929.7
732.615	1829.35
732.801	1862.12
732.987	1858.02
733.173	1837.54
733.359	1780.2
733.545	1683.94
733.731	1806.82
733.917	1755.62
734.103	1870.31
734.289	1864.16
734.475	1894.88
734.661	1855.97
734.847	1765.86
735.033	1837.54
735.219	1839.59
735.404	1927.65
735.59	1800.68
735.776	1792.48
735.962	1733.09
736.148	1849.83
736.333	1739.24
736.519	1851.88
736.705	1821.16
736.89	1833.44
737.076	1731.05
737.262	1749.48
737.447	1815.01
737.633	1864.16
737.819	1724.9
738.004	1823.2
738.19	1759.72
738.375	1804.77
738.561	1747.43
738.747	1714.66
738.932	1718.76
739.118	1829.35
739.303	1780.2
739.489	1747.43
739.674	1657.32
739.859	1663.46
740.045	1645.03
740.23	1690.09
740.416	1657.32
740.601	1792.48
740.786	1696.23
740.972	1628.65
741.157	1677.8
741.342	1731.05
741.528	1726.95
741.713	1765.86
741.898	1589.74
742.084	1567.21
742.269	1653.22
742.454	1612.26
742.639	1681.89
742.824	1673.7
743.01	1610.22
743.195	1632.74
743.38	1618.41
743.565	1528.3
743.75	1542.63
743.935	1665.51
744.12	1595.88
744.305	1532.39
744.49	1642.98
744.675	1573.35
744.86	1554.92
745.045	1587.69
745.23	1645.03
745.415	1593.83
745.6	1616.36
745.785	1405.42
745.97	1554.92
746.155	1536.49
746.34	1487.34
746.525	1475.05
746.71	1530.34
746.895	1438.19
747.079	1405.42
747.264	1452.52
747.449	1423.85
747.634	1487.34
747.819	1444.33
748.003	1456.62
748.188	1464.81
748.373	1561.06
748.557	1419.75
748.742	1386.99
748.927	1407.47
749.111	1374.7
749.296	1225.2
749.481	1386.99
749.665	1386.99
749.85	1382.89
750.034	1374.7
750.219	1386.99
750.404	1339.88
750.588	1348.08
750.773	1296.88
750.957	1274.35
751.141	1239.53
751.326	1323.5
751.51	1223.15
751.695	1243.63
751.879	1276.4
752.064	1286.64
752.248	1237.49
752.432	1219.05
752.617	1206.77
752.801	1206.77
752.985	1151.47
753.17	1243.63
753.354	1284.59
753.538	1214.96
753.722	1147.37
753.907	1100.27
754.091	1174
754.275	1233.39
754.459	1108.46
754.643	1114.61
754.828	1141.23
755.012	1116.65
755.196	1112.56
755.38	1038.83
755.564	1141.23
755.748	1178.09
755.932	1128.94
756.116	1069.55
756.3	1092.08
756.484	999.92
756.668	1139.18
756.852	1038.83
757.036	1143.28
757.22	1061.36
757.404	1159.66
757.588	915.95
757.772	983.54
757.956	977.39
758.14	948.72
758.323	1102.32
758.507	918
758.691	995.82
758.875	963.06
759.059	1034.74
759.242	977.39
759.426	977.39
759.61	895.47
759.794	938.48
759.977	977.39
760.161	930.29
760.345	877.04
760.528	848.37
760.712	913.91
760.895	920.05
761.079	985.58
761.263	840.18
761.446	887.28
761.63	942.58
761.813	881.14
761.997	829.94
762.18	823.8
762.364	883.19
762.547	741.88
762.731	924.15
762.914	911.86
763.098	846.32
763.281	862.71
763.464	739.83
763.648	774.64
763.831	883.19
764.015	748.02
764.198	856.56
764.381	784.88
764.564	838.13
764.748	711.16
764.931	834.04
765.114	762.36
765.297	778.74
765.481	809.46
765.664	778.74
765.847	793.08
766.03	821.75
766.213	760.31
766.397	795.12
766.58	750.07
766.763	748.02
766.946	741.88
767.129	766.45
767.312	668.15
767.495	770.55
767.678	764.4
767.861	887.28
768.044	743.92
768.227	739.83
768.41	633.33
768.593	756.21
768.776	643.57
768.959	692.73
769.142	631.29
769.324	696.82
769.507	682.49
769.69	733.68
769.873	780.79
770.056	717.3
770.239	694.77
770.421	748.02
770.604	780.79
770.787	649.72
770.97	608.76
771.152	690.68
771.335	655.86
771.518	649.72
771.7	659.96
771.883	649.72
772.066	629.24
772.248	702.97
772.431	662.01
772.613	696.82
772.796	649.72
772.978	711.16
773.161	623.09
773.343	657.91
773.526	684.53
773.708	629.24
773.891	578.04
774.073	664.05
774.256	637.43
774.438	616.95
774.621	578.04
774.803	608.76
774.985	655.86
775.168	541.18
775.35	545.27
775.532	602.61
775.715	551.42
775.897	586.23
776.079	549.37
776.261	567.8
776.444	580.09
776.626	559.61
776.808	559.61
776.99	569.85
777.173	504.31
777.355	551.42
777.537	575.99
777.719	506.36
777.901	492.02
778.083	479.74
778.265	535.03
778.447	592.37
778.629	485.88
778.811	494.07
778.993	485.88
779.175	551.42
779.357	498.17
779.539	518.65
779.721	485.88
779.903	487.93
780.085	469.5
780.267	502.26
780.449	471.54
780.631	502.26
780.812	453.11
780.994	436.73
781.176	485.88
781.358	504.31
781.54	420.35
781.721	387.58
781.903	432.63
782.085	371.19
782.267	424.44
782.448	461.3
782.63	444.92
782.812	471.54
782.993	315.9
783.175	471.54
783.357	381.43
783.538	379.39
783.72	412.15
783.901	420.35
784.083	489.98
784.264	367.1
784.446	322.04
784.627	360.95
784.809	436.73
784.99	354.81
785.172	383.48
785.353	397.82
785.535	414.2
785.716	330.23
785.897	324.09
786.079	420.35
786.26	348.67
786.441	391.67
786.623	219.64
786.804	293.37
786.985	326.14
787.167	346.62
787.348	358.91
787.529	330.23
787.71	352.76
787.891	363
788.073	340.47
788.254	350.71
788.435	346.62
788.616	299.52
788.797	297.47
788.978	285.18
789.159	297.47
789.34	293.37
789.522	305.66
789.703	334.33
789.884	291.32
790.065	264.7
790.246	338.43
790.427	276.99
790.607	293.37
790.788	260.6
790.969	264.7
791.15	248.32
791.331	233.98
791.512	346.62
791.693	287.23
791.874	324.09
792.054	367.1
792.235	299.52
792.416	266.75
792.597	258.56
792.778	342.52
792.958	311.8
793.139	338.43
793.32	250.36
793.5	229.88
793.681	320
793.862	233.98
794.042	193.02
794.223	311.8
794.404	264.7
794.584	199.16
794.765	223.74
794.945	264.7
795.126	266.75
795.306	281.08
795.487	240.12
795.667	117.25
795.848	184.83
796.028	256.51
796.209	279.04
796.389	315.9
796.57	256.51
796.75	186.88
796.93	248.32
797.111	231.93
797.291	211.45
797.471	285.18
797.652	215.55
797.832	250.36
798.012	219.64
798.192	127.49
798.373	272.89
798.553	281.08
798.733	236.03
798.913	199.16
799.093	172.54
799.274	203.26
799.454	264.7
799.634	244.22
799.814	223.74
799.994	219.64
800.174	236.03
800.354	172.54
800.534	197.12
800.714	227.84
800.894	209.4
801.074	209.4
801.254	258.56
801.434	338.43
801.614	172.54
801.794	164.35
801.974	741.88
802.154	168.45
802.334	244.22
802.514	178.69
802.693	258.56
802.873	244.22
803.053	256.51
803.233	215.55
803.413	248.32
803.592	137.73
803.772	156.16
803.952	193.02
804.131	190.97
804.311	221.69
804.491	184.83
804.67	137.73
804.85	145.92
805.03	205.31
805.209	193.02
805.389	174.59
805.568	150.01
805.748	109.05
805.928	203.26
806.107	199.16
806.287	152.06
806.466	182.78
806.646	176.64
806.825	150.01
807.004	184.83
807.184	201.21
807.363	201.21
807.543	127.49
807.722	190.97
807.901	299.52
808.081	172.54
808.26	121.34
808.439	137.73
808.619	201.21
808.798	178.69
808.977	123.39
809.156	166.4
809.336	182.78
809.515	190.97
809.694	111.1
809.873	240.12
810.052	143.87
810.231	195.07
810.411	164.35
810.59	219.64
810.769	96.77
810.948	184.83
811.127	90.62
811.306	113.15
811.485	117.25
811.664	199.16
811.843	147.97
812.022	152.06
812.201	123.39
812.38	80.38
812.559	182.78
812.737	141.82
812.916	123.39
813.095	100.86
813.274	170.49
813.453	76.29
813.632	123.39
813.811	176.64
813.989	117.25
814.168	168.45
814.347	100.86
814.526	96.77
814.704	133.63
814.883	147.97
815.062	119.29
815.24	131.58
815.419	100.86
815.598	141.82
815.776	47.62
815.955	150.01
816.133	37.38
816.312	174.59
816.49	111.1
816.669	152.06
816.847	137.73
817.026	150.01
817.204	102.91
817.383	184.83
817.561	92.67
817.74	150.01
817.918	102.91
818.097	80.38
818.275	156.16
818.453	160.25
818.632	109.05
818.81	80.38
818.988	66.05
819.167	125.44
819.345	51.71
819.523	125.44
819.701	152.06
819.879	84.48
820.058	143.87
820.236	98.81
820.414	127.49
820.592	109.05
820.77	55.81
820.948	86.53
821.127	141.82
821.305	61.95
821.483	111.1
821.661	135.68
821.839	133.63
822.017	135.68
822.195	111.1
822.373	162.3
822.551	141.82
822.729	213.5
822.907	84.48
823.085	82.43
823.262	47.62
823.44	113.15
823.618	76.29
823.796	76.29
823.974	158.21
824.152	72.19
824.329	158.21
824.507	113.15
824.685	201.21
824.863	125.44
825.04	125.44
825.218	143.87
825.396	70.14
825.574	121.34
825.751	117.25
825.929	92.67
826.107	102.91
826.284	70.14
826.462	84.48
826.639	59.9
826.817	53.76
826.994	115.2
827.172	29.18
827.349	158.21
827.527	117.25
827.704	78.33
827.882	70.14
828.059	55.81
828.237	197.12
828.414	78.33
828.591	78.33
828.769	125.44
828.946	94.72
829.124	94.72
829.301	86.53
829.478	115.2
829.655	84.48
829.833	53.76
830.01	64
830.187	59.9
830.364	31.23
830.542	182.78
830.719	119.29
830.896	35.33
831.073	141.82
831.25	131.58
831.427	68.09
831.604	68.09
831.782	147.97
831.959	55.81
832.136	84.48
832.313	123.39
832.49	104.96
832.667	84.48
832.844	70.14
833.021	94.72
833.198	43.52
833.374	109.05
833.551	86.53
833.728	43.52
833.905	152.06
834.082	29.18
834.259	154.11
834.436	102.91
834.612	119.29
834.789	72.19
834.966	18.94
835.143	76.29
835.319	37.38
835.496	117.25
835.673	59.9
835.85	160.25
836.026	68.09
836.203	59.9
836.38	29.18
836.556	94.72
836.733	80.38
836.909	156.16
837.086	51.71
837.262	39.42
837.439	66.05
837.616	53.76
837.792	80.38
837.968	117.25
838.145	70.14
838.321	76.29
838.498	68.09
838.674	78.33
838.851	45.57
839.027	72.19
839.203	18.94
839.38	76.29
839.556	2.56
839.732	86.53
839.909	45.57
840.085	131.58
840.261	68.09
840.437	53.76
840.614	72.19
840.79	170.49
840.966	43.52
841.142	98.81
841.318	100.86
841.494	68.09
841.671	31.23
841.847	20.99
842.023	-1.54
842.199	84.48
842.375	61.95
842.551	84.48
842.727	20.99
842.903	51.71
843.079	51.71
843.255	78.33
843.431	59.9
843.607	43.52
843.783	68.09
843.959	96.77
844.134	53.76
844.31	61.95
844.486	4.61
844.662	84.48
844.838	59.9
845.013	88.57
845.189	84.48
845.365	53.76
845.541	14.85
845.716	78.33
845.892	162.3
846.068	45.57
846.244	35.33
846.419	10.75
846.595	45.57
846.77	27.14
846.946	55.81
847.122	90.62
847.297	-13.82
847.473	160.25
847.648	-5.63
847.824	55.81
847.999	57.86
848.175	160.25
848.35	64
848.526	59.9
848.701	121.34
848.876	55.81
849.052	143.87
849.227	20.99
849.403	-22.02
849.578	59.9
849.753	31.23
849.929	94.72
850.104	55.81
850.279	27.14
850.454	145.92
850.63	150.01
850.805	53.76
850.98	12.8
851.155	43.52
851.33	80.38
851.505	-19.97
851.681	61.95
851.856	51.71
852.031	55.81
852.206	64
852.381	51.71
852.556	-26.11
852.731	29.18
852.906	53.76
853.081	76.29
853.256	55.81
853.431	76.29
853.606	127.49
853.781	86.53
853.956	-30.21
854.131	43.52
854.305	14.85
854.48	-5.63
854.655	27.14
854.83	59.9
855.005	96.77
855.18	88.57
855.354	80.38
855.529	14.85
855.704	29.18
855.879	14.85
856.053	76.29
856.228	68.09
856.403	59.9
856.577	84.48
856.752	23.04
856.926	76.29
857.101	70.14
857.276	18.94
857.45	111.1
857.625	74.24
857.799	84.48
857.974	84.48
858.148	31.23
858.323	49.66
858.497	8.7
858.672	18.94
858.846	51.71
859.02	129.53
859.195	80.38
859.369	27.14
859.543	127.49
859.718	84.48
859.892	12.8
860.066	29.18
860.241	39.42
860.415	25.09
860.589	12.8
860.763	94.72
860.938	111.1
861.112	2.56
861.286	64
861.46	29.18
861.634	43.52
861.808	64
861.982	-3.58
862.157	27.14
862.331	23.04
862.505	12.8
862.679	-1.54
862.853	59.9
863.027	-19.97
863.201	59.9
863.375	43.52
863.549	78.33
863.722	12.8
863.896	57.86
864.07	59.9
864.244	4.61
864.418	4.61
864.592	49.66
864.766	27.14
864.939	68.09
865.113	57.86
865.287	115.2
865.461	74.24
865.634	76.29
865.808	55.81
865.982	82.43
866.156	12.8
866.329	68.09
866.503	-26.11
866.676	107.01
866.85	59.9
867.024	45.57
867.197	133.63
867.371	-3.58
867.544	37.38
867.718	0.51
867.891	76.29
868.065	45.57
868.238	10.75
868.412	64
868.585	37.38
868.759	-5.63
868.932	-3.58
869.105	59.9
869.279	47.62
869.452	64
869.625	61.95
869.799	82.43
869.972	-22.02
870.145	33.28
870.319	100.86
870.492	-5.63
870.665	18.94
870.838	35.33
871.011	4.61
871.185	47.62
871.358	-11.78
871.531	96.77
871.704	45.57
871.877	55.81
872.05	12.8
872.223	37.38
872.396	29.18
872.569	53.76
872.742	18.94
872.915	31.23
873.088	29.18
873.261	43.52
873.434	-1.54
873.607	68.09
873.78	55.81
873.953	61.95
874.126	80.38
874.299	33.28
874.471	6.66
874.644	2.56
874.817	45.57
874.99	74.24
875.163	35.33
875.335	4.61
875.508	55.81
875.681	76.29
875.853	43.52
876.026	45.57
876.199	10.75
876.371	39.42
876.544	94.72
876.717	76.29
876.889	41.47
877.062	76.29
877.234	-50.69
877.407	35.33
877.579	45.57
877.752	27.14
877.924	27.14
878.097	47.62
878.269	59.9
878.442	68.09
878.614	-5.63
878.786	59.9
878.959	61.95
879.131	27.14
879.303	-36.35
879.476	20.99
879.648	51.71
879.82	39.42
879.993	27.14
880.165	35.33
880.337	10.75
880.509	43.52
880.681	45.57
880.854	35.33
881.026	92.67
881.198	125.44
881.37	20.99
881.542	86.53
881.714	31.23
881.886	10.75
882.058	37.38
882.23	23.04
882.402	-44.54
882.574	-38.4
882.746	23.04
882.918	43.52
883.09	111.1
883.262	53.76
883.434	59.9
883.606	10.75
883.778	-52.74
883.95	8.7
884.122	59.9
884.293	80.38
884.465	29.18
884.637	59.9
884.809	39.42
884.98	59.9
885.152	45.57
885.324	90.62
885.496	-1.54
885.667	43.52
885.839	10.75
886.011	27.14
886.182	37.38
886.354	41.47
886.525	6.66
886.697	-3.58
886.869	51.71
887.04	-17.92
887.212	35.33
887.383	102.91
887.555	-5.63
887.726	59.9
887.897	31.23
888.069	18.94
888.24	135.68
888.412	-22.02
888.583	-65.02
888.754	51.71
888.926	-30.21
889.097	-40.45
889.268	-3.58
889.44	37.38
889.611	51.71
889.782	-11.78
889.953	14.85
890.125	94.72
890.296	-7.68
890.467	39.42
890.638	4.61
890.809	23.04
890.98	47.62
891.151	135.68
891.323	59.9
891.494	18.94
891.665	90.62
891.836	6.66
892.007	-1.54
892.178	45.57
892.349	33.28
892.52	72.19
892.691	18.94
892.862	64
893.032	12.8
893.203	-5.63
893.374	8.7
893.545	61.95
893.716	8.7
893.887	70.14
894.057	29.18
894.228	53.76
894.399	55.81
894.57	57.86
894.74	57.86
894.911	37.38
895.082	-5.63
895.253	43.52
895.423	64
895.594	72.19
895.764	2.56
895.935	27.14
896.106	94.72
896.276	10.75
896.447	2.56
896.617	25.09
896.788	18.94
896.958	41.47
897.129	37.38
897.299	37.38
897.47	49.66
897.64	98.81
897.81	72.19
897.981	35.33
898.151	27.14
898.322	70.14
898.492	6.66
898.662	68.09
898.832	35.33
899.003	8.7
899.173	109.05
899.343	39.42
899.513	-28.16
