Data from USB4F104151__142__14-19-18-432.txt Node

Date: Thu Mar 13 14:19:18 EDT 2025
User: louis
Spectrometer: USB4F10415
Trigger mode: 4
Integration Time (sec): 2.000000E-2
Scans to average: 1
Electric dark correction enabled: true
Nonlinearity correction enabled: false
Boxcar width: 0
XAxis mode: Wavelengths
Number of Pixels in Spectrum: 3648
>>>>>Begin Spectral Data<<<<<
178.204	-121
178.424	-121
178.644	-121
178.864	-131.24
179.084	-161.96
179.304	12.12
179.524	40.79
179.744	-24.75
179.964	28.5
180.184	-10.41
180.404	-24.75
180.624	24.4
180.844	-67.75
181.064	-16.55
181.283	26.45
181.503	-12.46
181.723	24.4
181.943	-47.27
182.163	42.84
182.383	40.79
182.602	108.37
182.822	40.79
183.042	-6.31
183.262	32.6
183.482	-12.46
183.701	-20.65
183.921	36.69
184.141	-32.94
184.361	57.17
184.58	1.88
184.8	-57.51
185.02	51.03
185.239	44.88
185.459	61.27
185.679	106.32
185.898	-37.03
186.118	-16.55
186.338	18.26
186.557	40.79
186.777	20.31
186.997	-16.55
187.216	57.17
187.436	73.56
187.655	20.31
187.875	34.64
188.095	102.23
188.314	26.45
188.534	98.13
188.753	24.4
188.973	-24.75
189.192	104.28
189.412	14.17
189.631	42.84
189.851	24.4
190.07	81.75
190.29	40.79
190.509	8.02
190.729	53.08
190.948	106.32
191.168	102.23
191.387	94.04
191.607	34.64
191.826	46.93
192.045	26.45
192.265	26.45
192.484	-32.94
192.704	57.17
192.923	-37.03
193.142	81.75
193.362	1.88
193.581	26.45
193.8	63.32
194.02	73.56
194.239	71.51
194.458	69.46
194.678	-24.75
194.897	63.32
195.116	53.08
195.335	-26.79
195.555	108.37
195.774	-28.84
195.993	8.02
196.212	16.21
196.432	-24.75
196.651	-20.65
196.87	36.69
197.089	12.12
197.308	73.56
197.528	61.27
197.747	18.26
197.966	55.12
198.185	147.28
198.404	8.02
198.623	16.21
198.842	120.66
199.062	22.36
199.281	55.12
199.5	-10.41
199.719	-16.55
199.938	65.36
200.157	26.45
200.376	102.23
200.595	100.18
200.814	32.6
201.033	38.74
201.252	24.4
201.471	73.56
201.69	67.41
201.909	24.4
202.128	-16.55
202.347	10.07
202.566	16.21
202.785	-14.51
203.004	10.07
203.223	112.47
203.442	108.37
203.661	-55.47
203.879	-12.46
204.098	42.84
204.317	-59.56
204.536	44.88
204.755	40.79
204.974	10.07
205.193	59.22
205.411	139.09
205.63	73.56
205.849	89.94
206.068	-14.51
206.287	8.02
206.505	40.79
206.724	-18.6
206.943	26.45
207.162	59.22
207.381	-24.75
207.599	65.36
207.818	24.4
208.037	24.4
208.255	28.5
208.474	26.45
208.693	75.6
208.911	98.13
209.13	53.08
209.349	-8.36
209.567	22.36
209.786	85.84
210.005	128.85
210.223	24.4
210.442	8.02
210.661	22.36
210.879	14.17
211.098	67.41
211.316	40.79
211.535	48.98
211.753	10.07
211.972	89.94
212.191	28.5
212.409	100.18
212.628	-71.85
212.846	57.17
213.065	59.22
213.283	42.84
213.502	-55.47
213.72	22.36
213.938	20.31
214.157	-55.47
214.375	18.26
214.594	1.88
214.812	34.64
215.031	26.45
215.249	53.08
215.467	32.6
215.686	-0.17
215.904	48.98
216.122	8.02
216.341	20.31
216.559	40.79
216.778	81.75
216.996	40.79
217.214	65.36
217.432	53.08
217.651	48.98
217.869	44.88
218.087	10.07
218.306	42.84
218.524	16.21
218.742	-12.46
218.96	32.6
219.179	48.98
219.397	61.27
219.615	16.21
219.833	69.46
220.051	-39.08
220.27	79.7
220.488	-0.17
220.706	98.13
220.924	-24.75
221.142	53.08
221.36	3.93
221.578	32.6
221.796	40.79
222.015	8.02
222.233	65.36
222.451	30.55
222.669	40.79
222.887	61.27
223.105	20.31
223.323	8.02
223.541	-14.51
223.759	16.21
223.977	-6.31
224.195	151.38
224.413	75.6
224.631	83.8
224.849	48.98
225.067	102.23
225.285	34.64
225.503	12.12
225.721	32.6
225.939	59.22
226.157	26.45
226.375	157.52
226.592	36.69
226.81	75.6
227.028	141.14
227.246	36.69
227.464	87.89
227.682	91.99
227.9	69.46
228.117	38.74
228.335	77.65
228.553	20.31
228.771	75.6
228.989	-2.22
229.206	-8.36
229.424	12.12
229.642	42.84
229.86	-6.31
230.077	40.79
230.295	18.26
230.513	-22.7
230.731	65.36
230.948	-8.36
231.166	32.6
231.384	3.93
231.601	20.31
231.819	-26.79
232.037	59.22
232.254	55.12
232.472	46.93
232.689	69.46
232.907	26.45
233.125	73.56
233.342	8.02
233.56	1.88
233.777	8.02
233.995	46.93
234.213	61.27
234.43	16.21
234.648	-0.17
234.865	-8.36
235.083	94.04
235.3	55.12
235.518	32.6
235.735	26.45
235.953	28.5
236.17	81.75
236.388	-6.31
236.605	-16.55
236.822	89.94
237.04	87.89
237.257	38.74
237.475	1.88
237.692	14.17
237.909	89.94
238.127	36.69
238.344	108.37
238.562	12.12
238.779	-30.89
238.996	-73.9
239.214	16.21
239.431	65.36
239.648	44.88
239.865	85.84
240.083	30.55
240.3	71.51
240.517	22.36
240.735	75.6
240.952	75.6
241.169	71.51
241.386	61.27
241.603	-49.32
241.821	8.02
242.038	-8.36
242.255	53.08
242.472	-6.31
242.689	53.08
242.907	116.56
243.124	75.6
243.341	12.12
243.558	38.74
243.775	8.02
243.992	-14.51
244.209	61.27
244.426	130.9
244.643	40.79
244.86	26.45
245.078	46.93
245.295	32.6
245.512	-4.27
245.729	40.79
245.946	18.26
246.163	28.5
246.38	81.75
246.597	40.79
246.814	40.79
247.031	48.98
247.248	42.84
247.464	157.52
247.681	-10.41
247.898	18.26
248.115	-16.55
248.332	38.74
248.549	5.97
248.766	34.64
248.983	55.12
249.2	36.69
249.417	10.07
249.633	-8.36
249.85	63.32
250.067	1.88
250.284	32.6
250.501	53.08
250.717	59.22
250.934	57.17
251.151	16.21
251.368	24.4
251.585	59.22
251.801	1.88
252.018	81.75
252.235	59.22
252.451	16.21
252.668	14.17
252.885	69.46
253.102	22.36
253.318	40.79
253.535	3.93
253.752	69.46
253.968	-16.55
254.185	75.6
254.401	36.69
254.618	61.27
254.835	26.45
255.051	40.79
255.268	28.5
255.484	32.6
255.701	42.84
255.917	18.26
256.134	38.74
256.351	30.55
256.567	38.74
256.784	1.88
257	-57.51
257.217	48.98
257.433	42.84
257.65	48.98
257.866	81.75
258.082	36.69
258.299	5.97
258.515	59.22
258.732	-0.17
258.948	48.98
259.165	59.22
259.381	28.5
259.597	71.51
259.814	141.14
260.03	5.97
260.246	12.12
260.463	48.98
260.679	94.04
260.895	61.27
261.112	61.27
261.328	16.21
261.544	55.12
261.761	75.6
261.977	38.74
262.193	48.98
262.409	1.88
262.626	18.26
262.842	73.56
263.058	3.93
263.274	57.17
263.49	42.84
263.707	48.98
263.923	122.71
264.139	-65.71
264.355	32.6
264.571	57.17
264.787	-41.13
265.004	-2.22
265.22	42.84
265.436	34.64
265.652	-24.75
265.868	67.41
266.084	-2.22
266.3	3.93
266.516	38.74
266.732	81.75
266.948	69.46
267.164	59.22
267.38	40.79
267.596	24.4
267.812	114.52
268.028	-20.65
268.244	16.21
268.46	30.55
268.676	-4.27
268.892	73.56
269.108	-6.31
269.324	40.79
269.54	-32.94
269.756	5.97
269.972	65.36
270.188	30.55
270.403	36.69
270.619	59.22
270.835	20.31
271.051	18.26
271.267	69.46
271.483	108.37
271.698	96.08
271.914	65.36
272.13	32.6
272.346	-0.17
272.562	59.22
272.777	40.79
272.993	55.12
273.209	46.93
273.425	34.64
273.64	3.93
273.856	48.98
274.072	28.5
274.287	-8.36
274.503	59.22
274.719	87.89
274.934	20.31
275.15	32.6
275.366	65.36
275.581	16.21
275.797	104.28
276.012	53.08
276.228	48.98
276.444	44.88
276.659	71.51
276.875	-65.71
277.09	-30.89
277.306	20.31
277.521	67.41
277.737	34.64
277.952	32.6
278.168	-32.94
278.383	65.36
278.599	59.22
278.814	57.17
279.03	3.93
279.245	44.88
279.461	-0.17
279.676	57.17
279.892	-63.66
280.107	42.84
280.322	65.36
280.538	44.88
280.753	32.6
280.969	69.46
281.184	34.64
281.399	26.45
281.615	8.02
281.83	57.17
282.045	-57.51
282.26	73.56
282.476	14.17
282.691	32.6
282.906	46.93
283.122	32.6
283.337	10.07
283.552	53.08
283.767	8.02
283.983	65.36
284.198	-32.94
284.413	38.74
284.628	-20.65
284.843	83.8
285.058	59.22
285.274	48.98
285.489	16.21
285.704	51.03
285.919	-10.41
286.134	104.28
286.349	81.75
286.564	48.98
286.779	53.08
286.995	16.21
287.21	26.45
287.425	1.88
287.64	-12.46
287.855	40.79
288.07	57.17
288.285	57.17
288.5	67.41
288.715	12.12
288.93	-14.51
289.145	-12.46
289.36	114.52
289.575	53.08
289.79	24.4
290.004	24.4
290.219	-14.51
290.434	-41.13
290.649	65.36
290.864	40.79
291.079	18.26
291.294	59.22
291.509	26.45
291.724	-4.27
291.938	22.36
292.153	48.98
292.368	-16.55
292.583	40.79
292.798	12.12
293.012	42.84
293.227	28.5
293.442	18.26
293.657	77.65
293.871	73.56
294.086	98.13
294.301	8.02
294.516	3.93
294.73	16.21
294.945	-14.51
295.16	53.08
295.374	32.6
295.589	57.17
295.804	57.17
296.018	-16.55
296.233	89.94
296.447	81.75
296.662	30.55
296.877	69.46
297.091	8.02
297.306	-12.46
297.52	24.4
297.735	38.74
297.949	51.03
298.164	83.8
298.378	77.65
298.593	8.02
298.807	-0.17
299.022	-8.36
299.236	53.08
299.451	83.8
299.665	32.6
299.88	30.55
300.094	20.31
300.309	24.4
300.523	24.4
300.737	-12.46
300.952	106.32
301.166	69.46
301.381	-32.94
301.595	28.5
301.809	-22.7
302.024	3.93
302.238	24.4
302.452	48.98
302.667	16.21
302.881	61.27
303.095	-4.27
303.309	122.71
303.524	8.02
303.738	-8.36
303.952	30.55
304.166	42.84
304.381	-22.7
304.595	42.84
304.809	12.12
305.023	8.02
305.237	89.94
305.452	57.17
305.666	106.32
305.88	65.36
306.094	65.36
306.308	67.41
306.522	73.56
306.736	122.71
306.95	26.45
307.164	-18.6
307.379	65.36
307.593	57.17
307.807	44.88
308.021	98.13
308.235	79.7
308.449	-77.99
308.663	26.45
308.877	81.75
309.091	-6.31
309.305	96.08
309.519	-0.17
309.733	67.41
309.947	-12.46
310.161	32.6
310.374	26.45
310.588	106.32
310.802	12.12
311.016	16.21
311.23	34.64
311.444	-41.13
311.658	10.07
311.872	65.36
312.085	122.71
312.299	126.8
312.513	59.22
312.727	51.03
312.941	28.5
313.154	65.36
313.368	59.22
313.582	-16.55
313.796	18.26
314.009	69.46
314.223	10.07
314.437	32.6
314.651	42.84
314.864	67.41
315.078	20.31
315.292	32.6
315.505	81.75
315.719	69.46
315.933	-10.41
316.146	26.45
316.36	-6.31
316.573	87.89
316.787	30.55
317.001	26.45
317.214	36.69
317.428	-16.55
317.641	-16.55
317.855	-20.65
318.068	-12.46
318.282	65.36
318.495	53.08
318.709	40.79
318.922	12.12
319.136	40.79
319.349	48.98
319.563	-14.51
319.776	100.18
319.99	-71.85
320.203	96.08
320.417	16.21
320.63	98.13
320.843	81.75
321.057	51.03
321.27	51.03
321.483	46.93
321.697	67.41
321.91	-2.22
322.124	34.64
322.337	71.51
322.55	8.02
322.763	-4.27
322.977	44.88
323.19	-12.46
323.403	65.36
323.617	36.69
323.83	81.75
324.043	26.45
324.256	67.41
324.469	73.56
324.683	53.08
324.896	22.36
325.109	69.46
325.322	44.88
325.535	65.36
325.748	44.88
325.962	3.93
326.175	-41.13
326.388	30.55
326.601	24.4
326.814	48.98
327.027	81.75
327.24	57.17
327.453	24.4
327.666	65.36
327.879	114.52
328.092	-32.94
328.305	65.36
328.518	-0.17
328.731	108.37
328.944	46.93
329.157	-20.65
329.37	40.79
329.583	51.03
329.796	75.6
330.009	24.4
330.222	34.64
330.435	-6.31
330.648	44.88
330.861	12.12
331.073	57.17
331.286	81.75
331.499	32.6
331.712	-61.61
331.925	18.26
332.138	26.45
332.35	-41.13
332.563	-0.17
332.776	77.65
332.989	63.32
333.202	-6.31
333.414	63.32
333.627	32.6
333.84	85.84
334.053	106.32
334.265	67.41
334.478	8.02
334.691	32.6
334.903	26.45
335.116	-12.46
335.329	81.75
335.541	100.18
335.754	34.64
335.966	53.08
336.179	18.26
336.392	40.79
336.604	28.5
336.817	71.51
337.029	59.22
337.242	57.17
337.454	-57.51
337.667	55.12
337.88	-28.84
338.092	26.45
338.305	57.17
338.517	46.93
338.729	48.98
338.942	18.26
339.154	-12.46
339.367	12.12
339.579	83.8
339.792	-51.37
340.004	51.03
340.217	57.17
340.429	63.32
340.641	16.21
340.854	65.36
341.066	-22.7
341.278	102.23
341.491	100.18
341.703	73.56
341.915	44.88
342.128	130.9
342.34	106.32
342.552	16.21
342.764	-55.47
342.977	48.98
343.189	42.84
343.401	12.12
343.613	75.6
343.826	67.41
344.038	-4.27
344.25	40.79
344.462	24.4
344.674	73.56
344.886	10.07
345.099	18.26
345.311	24.4
345.523	48.98
345.735	55.12
345.947	100.18
346.159	-10.41
346.371	38.74
346.583	-0.17
346.795	87.89
347.007	1.88
347.219	8.02
347.431	57.17
347.643	114.52
347.855	67.41
348.067	69.46
348.279	-24.75
348.491	51.03
348.703	1.88
348.915	77.65
349.127	-32.94
349.339	122.71
349.551	16.21
349.763	65.36
349.975	34.64
350.187	-10.41
350.399	73.56
350.61	87.89
350.822	59.22
351.034	79.7
351.246	42.84
351.458	59.22
351.669	67.41
351.881	48.98
352.093	83.8
352.305	83.8
352.517	63.32
352.728	110.42
352.94	28.5
353.152	8.02
353.363	53.08
353.575	34.64
353.787	77.65
353.999	40.79
354.21	53.08
354.422	124.76
354.633	32.6
354.845	67.41
355.057	55.12
355.268	114.52
355.48	100.18
355.692	34.64
355.903	91.99
356.115	65.36
356.326	67.41
356.538	91.99
356.749	65.36
356.961	57.17
357.172	96.08
357.384	-24.75
357.595	79.7
357.807	18.26
358.018	16.21
358.23	83.8
358.441	114.52
358.653	32.6
358.864	24.4
359.075	-8.36
359.287	-20.65
359.498	51.03
359.709	69.46
359.921	24.4
360.132	24.4
360.344	139.09
360.555	3.93
360.766	8.02
360.977	145.24
361.189	51.03
361.4	8.02
361.611	108.37
361.823	96.08
362.034	75.6
362.245	24.4
362.456	34.64
362.667	28.5
362.879	34.64
363.09	24.4
363.301	114.52
363.512	28.5
363.723	65.36
363.935	79.7
364.146	65.36
364.357	26.45
364.568	20.31
364.779	5.97
364.99	57.17
365.201	46.93
365.412	98.13
365.623	-8.36
365.834	48.98
366.045	42.84
366.256	42.84
366.467	42.84
366.678	10.07
366.889	40.79
367.1	28.5
367.311	48.98
367.522	44.88
367.733	44.88
367.944	98.13
368.155	28.5
368.366	73.56
368.577	122.71
368.788	26.45
368.999	-49.32
369.209	57.17
369.42	67.41
369.631	34.64
369.842	89.94
370.053	14.17
370.264	24.4
370.474	-4.27
370.685	59.22
370.896	22.36
371.107	48.98
371.317	114.52
371.528	57.17
371.739	57.17
371.95	184.15
372.16	42.84
372.371	73.56
372.582	83.8
372.792	48.98
373.003	51.03
373.214	-41.13
373.424	-45.23
373.635	-12.46
373.846	44.88
374.056	83.8
374.267	-0.17
374.477	77.65
374.688	3.93
374.898	38.74
375.109	124.76
375.319	-8.36
375.53	5.97
375.74	85.84
375.951	16.21
376.161	51.03
376.372	83.8
376.582	16.21
376.793	24.4
377.003	75.6
377.214	139.09
377.424	20.31
377.635	139.09
377.845	-4.27
378.055	48.98
378.266	16.21
378.476	65.36
378.686	24.4
378.897	149.33
379.107	61.27
379.317	110.42
379.528	67.41
379.738	26.45
379.948	30.55
380.158	20.31
380.369	83.8
380.579	124.76
380.789	28.5
380.999	85.84
381.21	26.45
381.42	96.08
381.63	77.65
381.84	108.37
382.05	36.69
382.261	85.84
382.471	59.22
382.681	10.07
382.891	89.94
383.101	100.18
383.311	71.51
383.521	26.45
383.731	65.36
383.941	61.27
384.151	71.51
384.361	28.5
384.571	18.26
384.781	71.51
384.991	147.28
385.201	106.32
385.411	44.88
385.621	61.27
385.831	-24.75
386.041	-8.36
386.251	24.4
386.461	98.13
386.671	40.79
386.881	44.88
387.091	67.41
387.301	67.41
387.511	65.36
387.72	89.94
387.93	69.46
388.14	59.22
388.35	77.65
388.56	48.98
388.769	65.36
388.979	75.6
389.189	32.6
389.399	67.41
389.609	108.37
389.818	135
390.028	5.97
390.238	-6.31
390.447	40.79
390.657	114.52
390.867	67.41
391.076	-20.65
391.286	114.52
391.496	61.27
391.705	53.08
391.915	51.03
392.125	28.5
392.334	61.27
392.544	104.28
392.753	81.75
392.963	1.88
393.172	122.71
393.382	83.8
393.591	77.65
393.801	48.98
394.01	87.89
394.22	65.36
394.429	79.7
394.639	65.36
394.848	85.84
395.058	65.36
395.267	81.75
395.477	36.69
395.686	61.27
395.895	96.08
396.105	106.32
396.314	3.93
396.524	89.94
396.733	44.88
396.942	114.52
397.152	139.09
397.361	163.67
397.57	96.08
397.78	57.17
397.989	94.04
398.198	118.61
398.407	114.52
398.617	79.7
398.826	69.46
399.035	77.65
399.244	124.76
399.453	98.13
399.663	120.66
399.872	24.4
400.081	73.56
400.29	182.1
400.499	55.12
400.708	67.41
400.917	114.52
401.127	114.52
401.336	114.52
401.545	159.57
401.754	98.13
401.963	106.32
402.172	96.08
402.381	42.84
402.59	83.8
402.799	102.23
403.008	171.86
403.217	51.03
403.426	51.03
403.635	116.56
403.844	69.46
404.053	98.13
404.262	106.32
404.471	231.25
404.68	114.52
404.888	89.94
405.097	237.39
405.306	239.44
405.515	208.72
405.724	130.9
405.933	155.47
406.142	155.47
406.35	229.2
406.559	124.76
406.768	200.53
406.977	261.97
407.185	200.53
407.394	188.24
407.603	204.63
407.812	118.61
408.02	225.11
408.229	167.76
408.438	196.43
408.646	171.86
408.855	194.39
409.064	186.19
409.272	251.73
409.481	212.82
409.69	167.76
409.898	223.06
410.107	243.54
410.315	266.07
410.524	221.01
410.733	253.78
410.941	253.78
411.15	325.46
411.358	229.2
411.567	288.59
411.775	313.17
411.984	352.08
412.192	343.89
412.401	354.13
412.609	347.98
412.818	370.51
413.026	364.37
413.234	401.23
413.443	370.51
413.651	311.12
413.86	485.2
414.068	436.05
414.276	517.97
414.485	454.48
414.693	565.07
414.901	536.4
415.11	532.3
415.318	466.77
415.526	614.22
415.734	595.79
415.943	595.79
416.151	546.64
416.359	622.41
416.567	638.8
416.776	706.38
416.984	761.67
417.192	704.33
417.4	829.26
417.608	724.81
417.817	810.82
418.025	769.87
418.233	843.59
418.441	835.4
418.649	929.61
418.857	1013.57
419.065	974.66
419.273	935.75
419.481	1005.38
419.689	1085.25
419.897	1040.2
420.105	1130.31
420.313	1142.6
420.521	1206.08
420.729	1247.04
420.937	1120.07
421.145	1361.73
421.353	1443.65
421.561	1439.55
421.769	1425.22
421.977	1507.13
422.185	1517.37
422.393	1589.05
422.601	1748.79
422.809	1693.5
423.017	1683.26
423.224	1779.51
423.432	1806.14
423.64	1894.2
423.848	2021.17
424.056	1867.58
424.263	2096.95
424.471	2127.67
424.679	2262.83
424.887	2402.1
425.094	2289.46
425.302	2309.94
425.51	2404.14
425.718	2621.23
425.925	2565.93
426.133	2639.66
426.341	2754.35
426.548	2828.07
426.756	2799.4
426.964	3000.1
427.171	3069.73
427.379	3112.74
427.586	3221.28
427.794	3321.63
428.001	3442.46
428.209	3624.73
428.417	3600.16
428.624	3761.95
428.832	3950.36
429.039	3761.95
429.247	3880.73
429.454	4128.53
429.662	4431.63
429.869	4196.12
430.076	4468.5
430.284	4345.62
430.491	4390.67
430.699	4720.4
430.906	4794.12
431.114	4783.88
431.321	5021.45
431.528	5226.25
431.736	5428.99
431.943	5637.89
432.15	5547.78
432.358	5582.59
432.565	5957.37
432.772	5793.53
432.979	6108.92
433.187	6248.18
433.394	6258.42
433.601	6487.79
433.808	6495.99
434.016	6692.59
434.223	6987.5
434.43	7382.76
434.637	7108.33
434.844	7782.11
435.052	7700.19
435.259	7679.71
435.466	7853.79
435.673	7581.41
435.88	8333.01
436.087	8570.58
436.294	8765.14
436.501	8478.42
436.708	8615.63
436.915	8812.24
437.122	9225.93
437.329	9359.05
437.537	9479.88
437.743	9912
437.95	9619.14
438.157	10200.76
438.364	10546.87
438.571	10516.15
438.778	10479.29
438.985	11740.83
439.192	11058.86
439.399	11421.35
439.606	10923.69
439.813	11767.46
440.02	12347.03
440.227	12355.22
440.433	12086.94
440.64	12469.91
440.847	12517.01
441.054	12723.86
441.261	13381.26
441.467	13598.34
441.674	13749.89
441.881	14274.17
442.088	13971.07
442.294	13880.96
442.501	14460.54
442.708	14663.29
442.914	15279.72
443.121	15926.88
443.328	15447.66
443.534	16379.48
443.741	16039.52
443.948	15734.37
444.154	16911.96
444.361	16832.08
444.568	17065.55
444.774	16967.25
444.981	17172.05
445.187	17751.62
445.394	18265.66
445.6	18308.67
445.807	19904.04
446.013	18906.68
446.22	19332.65
446.426	20418.08
446.633	20383.26
446.839	20928.02
447.046	19998.24
447.252	21270.03
447.459	21325.33
447.665	21192.21
447.871	21968.39
448.078	22943.22
448.284	21962.25
448.491	22382.08
448.697	23743.98
448.903	24135.14
449.11	24038.89
449.316	23315.95
449.522	24094.18
449.728	24585.69
449.935	24794.59
450.141	24675.8
450.347	25396.69
450.553	24716.76
450.76	24970.71
450.966	25697.74
451.172	25329.11
451.378	26181.06
451.584	25646.54
451.791	26195.4
451.997	26301.89
452.203	26484.16
452.409	26668.48
452.615	26676.67
452.821	25533.9
453.027	25689.55
453.233	26561.98
453.44	25525.71
453.646	26197.45
453.852	26054.09
454.058	26398.15
454.264	25396.69
454.47	26435.01
454.676	25904.59
454.882	26736.06
455.088	24030.69
455.294	24704.48
455.5	25116.12
455.705	25136.6
455.911	24208.87
456.117	23766.51
456.323	23590.38
456.529	21960.2
456.735	23250.42
456.941	22734.33
457.147	22521.34
457.352	21798.41
457.558	21663.24
457.764	21659.15
457.97	20964.89
458.176	20637.21
458.381	20706.84
458.587	19594.79
458.793	19711.53
458.999	18886.2
459.204	20004.39
459.41	19369.52
459.616	18343.49
459.821	18351.68
460.027	18366.01
460.233	17774.15
460.438	16782.93
460.644	17151.57
460.85	16588.38
461.055	16197.21
461.261	15855.2
461.466	15011.44
461.672	14458.49
461.878	15509.1
462.083	14478.97
462.289	14098.05
462.494	14198.4
462.7	13426.31
462.905	13055.63
463.111	13354.63
463.316	13442.7
463.522	13295.24
463.727	13233.8
463.932	13219.47
464.138	13115.02
464.343	13057.68
464.549	12537.49
464.754	12990.1
464.959	12723.86
465.165	12881.55
465.37	12564.12
465.575	11857.57
465.781	12447.38
465.986	12478.1
466.191	12121.76
466.397	11783.84
466.602	11247.27
466.807	11789.99
467.012	11511.46
467.218	11763.36
467.423	11650.72
467.628	11742.88
467.833	11843.23
468.038	11603.62
468.244	11318.95
468.449	11970.21
468.654	11478.69
468.859	11273.9
469.064	11239.08
469.269	10710.71
469.474	10956.46
469.679	11171.5
469.885	10657.46
470.09	10790.58
470.295	10659.51
470.5	10559.16
470.705	10596.02
470.91	10577.59
471.115	10317.5
471.32	10436.28
471.525	10444.47
471.73	10053.31
471.935	10041.02
472.139	9819.84
472.344	9897.66
472.549	9889.47
472.754	9563.84
472.959	9506.5
473.164	9406.15
473.369	9252.55
473.574	9588.42
473.778	9299.66
473.983	9281.22
474.188	9598.66
474.393	8773.33
474.598	8910.54
474.802	8668.88
475.007	8951.5
475.212	8849.1
475.417	8568.53
475.621	8449.75
475.826	8486.61
476.031	8283.86
476.235	8183.51
476.44	8445.65
476.645	8179.42
476.849	8244.95
477.054	7970.52
477.259	7904.99
477.463	7937.76
477.668	7898.84
477.872	7896.8
478.077	7765.73
478.282	7431.91
478.486	7444.2
478.691	7472.87
478.895	7442.15
479.1	7274.21
479.304	7372.52
479.509	7137
479.713	7524.07
479.918	7126.76
480.122	6921.96
480.326	7098.09
480.531	7053.03
480.735	6903.53
480.94	6782.7
481.144	7100.14
481.348	6790.89
481.553	6883.05
481.757	6635.25
481.961	7050.99
482.166	6973.16
482.37	6979.31
482.574	6688.5
482.778	6739.69
482.983	6995.69
483.187	6516.47
483.391	6815.47
483.595	6711.02
483.8	6692.59
484.004	6676.21
484.208	6717.17
484.412	6790.89
484.616	6727.41
484.821	6799.09
485.025	6612.72
485.229	6817.52
485.433	6586.1
485.637	6727.41
485.841	6713.07
486.045	6680.3
486.249	6774.51
486.453	6805.23
486.657	6737.65
486.861	6702.83
487.065	6719.21
487.269	6776.56
487.473	6633.2
487.677	6754.03
487.881	6901.48
488.085	6678.26
488.289	6651.63
488.493	6850.28
488.697	6991.59
488.901	6553.33
489.105	6629.1
489.309	6870.76
489.512	6825.71
489.716	6950.64
489.92	7014.12
490.124	6907.63
490.328	6971.11
490.531	6883.05
490.735	7069.42
490.939	7091.95
491.143	6940.4
491.346	6997.74
491.55	7106.28
491.754	6911.72
491.958	7024.36
492.161	6919.92
492.365	7329.51
492.569	7173.86
492.772	7184.1
492.976	7108.33
493.18	7266.02
493.383	7323.37
493.587	7317.22
493.79	7405.28
493.994	7329.51
494.197	7483.11
494.401	7425.76
494.605	7616.23
494.808	7526.11
495.012	7579.36
495.215	7636.7
495.419	7759.58
495.622	7663.33
495.825	7745.25
496.029	7948
496.232	7972.57
496.436	7880.41
496.639	8122.07
496.843	8001.24
497.046	8203.99
497.249	8431.32
497.453	8261.34
497.656	8263.38
497.859	8343.25
498.063	8546
498.266	8873.68
498.469	8509.14
498.673	9002.7
498.876	8791.76
499.079	8949.45
499.282	9010.89
499.485	9313.99
499.689	9010.89
499.892	9524.93
500.095	9252.55
500.298	9682.63
500.501	9676.48
500.705	9805.5
500.908	9764.54
501.111	9905.85
501.314	10174.14
501.517	10167.99
501.72	10243.77
501.923	10327.74
502.126	10342.07
502.329	10575.54
502.532	10727.09
502.735	10624.69
502.938	11058.86
503.141	11140.78
503.344	11312.81
503.547	11255.47
503.75	11417.26
503.953	11695.78
504.156	11757.22
504.359	11886.24
504.562	11902.62
504.765	11761.31
504.968	12019.36
505.17	12363.42
505.373	12347.03
505.576	12557.97
505.779	12643.99
505.982	12730
506.185	13108.88
506.387	12994.19
506.59	13158.03
506.793	13315.72
506.996	13323.91
507.198	13733.51
507.401	13532.81
507.604	13788.8
507.807	13874.82
508.009	14050.94
508.212	14362.23
508.415	14331.51
508.617	14595.7
508.82	14638.71
509.022	14749.3
509.225	15162.99
509.428	15062.64
509.63	15314.54
509.833	15206
510.035	15935.07
510.238	15515.24
510.44	15752.8
510.643	16080.48
510.845	16070.24
511.048	16047.71
511.25	16518.75
511.453	16096.86
511.655	16977.49
511.858	16547.42
512.06	17227.34
512.262	17196.62
512.465	17112.66
512.667	17405.52
512.87	17577.55
513.072	17808.97
513.274	18280
513.477	18413.12
513.679	18441.79
513.881	18449.98
514.084	18673.21
514.286	18873.91
514.488	18714.17
514.69	19494.44
514.893	19439.15
515.095	19543.6
515.297	19613.23
515.499	19750.44
515.701	19957.28
515.904	20024.87
516.106	20477.47
516.308	20450.85
516.51	20717.08
516.712	20925.97
516.914	21198.35
517.116	21317.14
517.318	21532.17
517.52	21603.85
517.722	21573.13
517.925	21831.18
518.127	22087.17
518.329	22328.83
518.531	22246.91
518.733	22685.18
518.935	22894.07
519.136	23164.4
519.338	23336.43
519.54	23506.41
519.742	23803.37
519.944	23696.88
520.146	24282.59
520.348	24280.55
520.55	24378.85
520.752	24591.84
520.954	24999.38
521.155	24735.2
521.357	24983
521.559	25353.68
521.761	25574.86
521.963	25472.46
522.164	25787.85
522.366	26080.71
522.568	26129.86
522.77	26027.46
522.971	26643.9
523.173	26318.28
523.375	26578.37
523.576	26535.36
523.778	27041.21
523.98	27182.52
524.181	27368.88
524.383	27246.01
524.584	28005.8
524.786	27299.25
524.988	27524.53
525.189	27979.18
525.391	28356
525.592	28280.23
525.794	28435.88
525.995	28581.28
526.197	28485.03
526.398	28607.9
526.6	28646.82
526.801	28980.64
527.003	29377.94
527.204	29185.43
527.406	29455.76
527.607	29244.82
527.808	29820.3
528.01	28999.07
528.211	29271.45
528.412	29963.66
528.614	29822.35
528.815	29963.66
529.016	30049.67
529.218	29900.17
529.419	30348.68
529.62	30141.83
529.822	29934.99
530.023	30193.03
530.224	30166.41
530.425	30494.08
530.626	30137.74
530.828	30342.53
531.029	30895.49
531.23	30354.82
531.431	30639.49
531.632	30453.12
531.833	30610.82
532.035	30758.27
532.236	30576
532.437	30895.49
532.638	30752.13
532.839	30899.58
533.04	30610.82
533.241	30782.85
533.442	31178.11
533.643	30993.79
533.844	31004.03
534.045	30827.9
534.246	30942.59
534.447	30989.69
534.648	30885.25
534.849	31208.83
535.05	30735.74
535.251	31133.05
535.451	30715.26
535.652	31143.29
535.853	30840.19
536.054	30836.09
536.255	30924.16
536.456	30750.08
536.657	31427.96
536.857	30958.97
537.058	30770.56
537.259	31229.3
537.46	31212.92
537.66	30934.4
537.861	31217.02
538.062	30768.51
538.263	31243.64
538.463	30688.64
538.664	30944.64
538.865	30846.33
539.065	30604.67
539.266	30733.7
539.466	31059.32
539.667	30522.76
539.868	31126.91
540.068	30584.19
540.269	30893.44
540.469	31411.57
540.67	30713.22
540.87	30936.45
541.071	30766.46
541.271	30950.78
541.472	30758.27
541.672	30834.05
541.873	30524.8
542.073	30436.74
542.274	31214.97
542.474	30442.88
542.675	30373.25
542.875	31264.12
543.075	30555.52
543.276	30461.32
543.476	30975.36
543.676	30373.25
543.877	30864.77
544.077	30547.33
544.277	30696.83
544.478	30487.94
544.678	30786.94
544.878	30666.11
545.078	30637.44
545.279	30039.43
545.479	30330.25
545.679	30920.06
545.879	30641.54
546.079	30625.15
546.28	30428.55
546.48	30131.59
546.68	30715.26
546.88	30289.29
547.08	30358.92
547.28	30311.81
547.48	30094.73
547.68	30330.25
547.88	30344.58
548.081	30252.42
548.281	30563.71
548.481	30348.68
548.681	30467.46
548.881	30508.42
549.081	30414.21
549.28	30401.93
549.48	30461.32
549.68	30436.74
549.88	30596.48
550.08	29945.23
550.28	30465.41
550.48	30393.73
550.68	30410.12
550.88	30150.03
551.08	30365.06
551.279	30193.03
551.479	29885.84
551.679	30422.41
551.879	30233.99
552.079	30440.84
552.278	29980.04
552.478	30100.87
552.678	29986.19
552.878	30381.45
553.077	30193.03
553.277	29861.26
553.477	30651.78
553.676	29627.79
553.876	29951.37
554.076	30147.98
554.275	29986.19
554.475	29934.99
554.674	29787.53
554.874	29963.66
555.074	29986.19
555.273	30016.91
555.473	29980.04
555.672	29904.27
555.872	29652.37
556.071	30033.29
556.271	30182.79
556.47	29498.77
556.67	29506.96
556.869	29799.82
557.068	29699.47
557.268	29494.68
557.467	29496.72
557.667	29521.3
557.866	29904.27
558.065	29470.1
558.265	29300.12
558.464	29136.28
558.663	29576.59
558.863	29156.76
559.062	29629.84
559.261	29171.1
559.461	29326.74
559.66	28747.17
559.859	29244.82
560.058	28966.3
560.258	28941.72
560.457	28575.14
560.656	29160.86
560.855	28669.34
561.054	29183.38
561.253	28562.85
561.453	29113.75
561.652	28634.53
561.851	28730.78
562.05	28675.49
562.249	28784.03
562.448	28714.4
562.647	28755.36
562.846	28351.91
563.045	28599.71
563.244	28235.17
563.443	28472.74
563.642	28071.34
563.841	28521.89
564.04	28194.22
564.239	28943.77
564.438	28315.05
564.637	28245.41
564.836	28206.5
565.035	27774.38
565.234	28104.1
565.432	27835.82
565.631	27841.96
565.83	27864.49
566.029	27454.9
566.228	27555.25
566.427	27932.08
566.625	27221.43
566.824	27321.78
567.023	27524.53
567.222	27209.14
567.42	27448.75
567.619	27256.25
567.818	27250.1
568.016	27096.5
568.215	27553.2
568.414	27235.77
568.612	26977.72
568.811	27010.49
569.01	26701.25
569.208	26584.51
569.407	26961.34
569.605	26711.49
569.804	26793.4
570.002	26392
570.201	26752.45
570.4	26471.87
570.598	26398.15
570.797	26490.31
570.995	26301.89
571.193	26060.23
571.392	26133.96
571.59	25824.72
571.789	26375.62
571.987	25908.68
572.186	25923.02
572.384	25679.31
572.582	25933.26
572.781	25593.29
572.979	25505.23
573.177	25748.94
573.376	25454.03
573.574	25427.41
573.772	25601.49
573.971	25167.32
574.169	25513.42
574.367	24915.42
574.565	24851.93
574.763	25331.15
574.962	25138.65
575.16	24821.21
575.358	25066.97
575.556	24434.14
575.754	25181.65
575.952	24436.19
576.151	24915.42
576.349	24489.44
576.547	24354.27
576.745	24710.62
576.943	24481.25
577.141	24307.17
577.339	24305.12
577.537	24325.6
577.735	24360.42
577.933	24266.21
578.131	24028.65
578.329	24223.2
578.527	24045.03
578.725	23799.27
578.923	24028.65
579.121	23709.16
579.319	23807.47
579.516	23709.16
579.714	23623.15
579.912	23526.89
580.11	23477.74
580.308	23444.98
580.506	23373.3
580.704	22777.34
580.901	23301.62
581.099	23250.42
581.297	22851.06
581.495	22945.27
581.692	23154.16
581.89	22980.09
582.088	23444.98
582.285	23068.15
582.483	23096.82
582.681	22758.91
582.878	22752.76
583.076	22545.92
583.274	22760.95
583.471	22154.76
583.669	22562.3
583.866	22107.65
584.064	22306.3
584.262	21929.48
584.459	22396.42
584.657	21984.77
584.854	22486.53
585.052	21917.19
585.249	22138.37
585.447	21954.05
585.644	21573.13
585.841	21962.25
586.039	21673.48
586.236	21691.91
586.434	21413.39
586.631	21392.91
586.828	21786.12
587.026	21360.14
587.223	21249.55
587.42	21308.94
587.618	21263.89
587.815	21003.8
588.012	20887.06
588.21	21093.91
588.407	21372.43
588.604	20966.93
588.801	20461.09
588.999	20764.18
589.196	20667.93
589.393	20577.82
589.59	20348.45
589.787	20495.9
589.984	20479.52
590.182	20174.37
590.379	20301.34
590.576	20209.18
590.773	20289.06
590.97	20422.17
591.167	20184.61
591.364	20084.26
591.561	20014.63
591.758	19672.62
591.955	19803.69
592.152	20131.36
592.349	19910.18
592.546	19734.06
592.743	19828.26
592.94	19572.27
593.137	19596.84
593.334	19496.49
593.531	19283.5
593.727	19332.65
593.924	19265.07
594.121	19326.51
594.318	19205.68
594.515	19154.48
594.712	19314.22
594.908	18966.07
595.105	19310.13
595.302	18927.16
595.499	18753.08
595.696	18832.95
595.892	18476.6
596.089	18943.54
596.286	18740.79
596.482	18644.54
596.679	18378.3
596.876	18695.74
597.072	18501.18
597.269	18437.69
597.466	18357.82
597.662	18191.94
597.859	18095.68
598.055	18163.26
598.252	17884.74
598.448	18003.52
598.645	18056.77
598.841	17735.24
599.038	17866.31
599.234	18138.69
599.431	17667.66
599.627	17819.21
599.824	17831.49
600.02	17532.49
600.217	17608.26
600.413	17348.17
600.609	17419.85
600.806	17155.66
601.002	17315.41
601.198	17311.31
601.395	17477.19
601.591	17231.44
601.787	17174.1
601.984	17081.94
602.18	17194.57
602.376	16856.66
602.572	16844.37
602.769	17000.02
602.965	16615
603.161	16772.69
603.357	16807.51
603.553	16797.27
603.75	16541.27
603.946	16549.46
604.142	16817.75
604.338	16408.15
604.534	16680.53
604.73	16465.5
604.926	16342.62
605.122	16479.83
605.318	16211.55
605.514	16080.48
605.71	16039.52
605.906	16162.4
606.102	15961.7
606.298	16246.37
606.494	16055.9
606.69	16115.3
606.886	16203.36
607.082	15818.34
607.278	15664.74
607.474	15543.91
607.67	15754.85
607.866	15576.68
608.062	15640.17
608.257	15617.64
608.453	15674.98
608.649	15668.84
608.845	15429.23
609.041	15548.01
609.236	15558.25
609.432	15328.88
609.628	15535.72
609.824	15330.92
610.019	15355.5
610.215	15406.7
610.411	15308.4
610.606	15345.26
610.802	15343.21
610.998	15134.32
611.193	15531.62
611.389	15060.59
611.584	14790.26
611.78	14888.56
611.976	15206
612.171	15171.18
612.367	15119.98
612.562	14726.77
612.758	14751.35
612.953	14614.13
613.149	15007.34
613.344	14835.31
613.539	14941.81
613.735	14431.87
613.93	14800.5
614.126	14984.82
614.321	14894.71
614.517	14687.86
614.712	14622.33
614.907	14581.37
615.103	14683.77
615.298	14472.82
615.493	14751.35
615.688	14509.69
615.884	14696.05
616.079	14257.79
616.274	14360.19
616.47	14450.3
616.665	14294.65
616.86	14403.19
617.055	14227.07
617.25	14216.83
617.445	14290.56
617.641	13993.6
617.836	14042.75
618.031	14257.79
618.226	13831.81
618.421	13569.67
618.616	14220.92
618.811	13872.77
619.006	13827.71
619.201	13639.3
619.396	13917.82
619.591	13436.55
619.786	13684.36
619.981	13604.49
620.176	13477.51
620.371	13319.82
620.566	13276.81
620.761	13174.41
620.956	13684.36
621.151	12842.64
621.346	13291.15
621.541	12992.14
621.735	13176.46
621.93	12926.61
622.125	13002.38
622.32	12682.9
622.515	12572.31
622.709	12736.15
622.904	12672.66
623.099	12416.66
623.294	12672.66
623.488	12431
623.683	12453.53
623.878	12377.75
624.072	12279.45
624.267	12412.57
624.462	11994.78
624.656	12015.26
624.851	11980.45
625.046	12017.31
625.24	11867.81
625.435	11749.03
625.629	11730.59
625.824	11677.35
626.018	11550.37
626.213	11599.52
626.407	11531.94
626.602	11447.97
626.796	11384.49
626.991	11445.93
627.185	11163.31
627.38	11259.56
627.574	11042.48
627.768	11153.07
627.963	10892.98
628.157	10983.09
628.352	10913.45
628.546	10686.13
628.74	11091.63
628.935	10704.56
629.129	10935.98
629.323	10231.48
629.517	10690.23
629.712	10430.13
629.906	10395.32
630.1	10180.28
630.294	10514.1
630.489	10385.08
630.683	10325.69
630.877	10096.32
631.071	10063.55
631.265	10208.95
631.459	9936.57
631.653	10032.83
631.848	9940.67
632.042	9815.74
632.236	9912
632.43	9889.47
632.624	9748.16
632.818	9572.04
633.012	9500.36
633.206	9471.68
633.4	9531.08
633.594	9377.48
633.788	9469.64
633.982	9494.21
634.176	9496.26
634.369	9199.3
634.563	9182.92
634.757	9066.19
634.951	9236.17
635.145	9080.52
635.339	9215.69
635.533	9105.1
635.726	9019.08
635.92	8947.4
636.114	8957.64
636.308	8752.85
636.501	8836.81
636.695	8634.07
636.889	8625.87
637.083	8726.22
637.276	8662.74
637.47	8437.46
637.664	8484.56
637.857	8324.82
638.051	8511.19
638.244	8427.22
638.438	8247
638.632	8353.49
638.825	8269.53
639.019	8191.7
639.212	8122.07
639.406	8056.54
639.599	8072.92
639.793	7950.04
639.986	7780.06
640.18	7943.9
640.373	8003.29
640.567	7829.21
640.76	7694.05
640.954	7808.73
641.147	7876.32
641.34	7671.52
641.534	7642.85
641.727	7603.94
641.92	7679.71
642.114	7610.08
642.307	7401.19
642.5	7417.57
642.694	7208.68
642.887	7302.89
643.08	7360.23
643.273	7192.3
643.467	7286.5
643.66	7085.8
643.853	7067.37
644.046	7036.65
644.239	7093.99
644.432	7036.65
644.626	7024.36
644.819	6901.48
645.012	7046.89
645.205	6958.83
645.398	6758.13
645.591	6850.28
645.784	6954.73
645.977	6786.8
646.17	6805.23
646.363	6629.1
646.556	6670.06
646.749	6680.3
646.942	6649.58
647.135	6436.6
647.328	6569.71
647.521	6471.41
647.714	6436.6
647.907	6493.94
648.099	6403.83
648.292	6215.41
648.485	6168.31
648.678	6229.75
648.871	6246.13
649.064	6260.47
649.256	6262.52
649.449	6213.37
649.642	6057.72
649.835	5902.08
650.027	5797.63
650.22	6027
650.413	5791.48
650.605	5863.16
650.798	5955.32
650.991	5859.07
651.183	6086.39
651.376	5852.92
651.568	5826.3
651.761	5590.78
651.954	5676.8
652.146	5754.62
652.339	5584.64
652.531	5670.65
652.724	5531.39
652.916	5484.29
653.109	5474.05
653.301	5525.25
653.494	5441.28
653.686	5420.8
653.879	5490.43
654.071	5414.66
654.263	5265.16
654.456	5248.77
654.648	5357.32
654.84	5189.38
655.033	5285.64
655.225	5136.13
655.417	5127.94
655.61	5187.33
655.802	5232.39
655.994	5127.94
656.186	5115.66
656.379	5105.42
656.571	5039.88
656.763	4927.24
656.955	4937.48
657.148	4937.48
657.34	5181.19
657.532	4898.57
657.724	5070.6
657.916	4947.72
658.108	4951.82
658.3	4775.69
658.492	4835.08
658.684	4742.92
658.876	4751.12
659.068	4628.24
659.26	4521.74
659.452	4753.16
659.644	4550.42
659.836	4497.17
660.028	4570.9
660.22	4644.62
660.412	4646.67
660.604	4554.51
660.796	4431.63
660.988	4474.64
661.18	4368.15
661.372	4333.33
661.563	4380.43
661.755	4208.41
661.947	4386.58
662.139	4235.03
662.331	4325.14
662.522	4237.08
662.714	4321.04
662.906	4368.15
663.097	4159.25
663.289	4091.67
663.481	4235.03
663.673	4226.84
663.864	4185.88
664.056	4128.53
664.247	4097.81
664.439	3905.31
664.631	3993.37
664.822	3919.64
665.014	4155.16
665.205	3893.02
665.397	4058.9
665.588	4071.19
665.78	3858.2
665.971	3997.46
666.163	3933.98
666.354	3905.31
666.546	3872.54
666.737	3972.89
666.929	3897.11
667.12	3890.97
667.311	3817.24
667.503	3737.37
667.694	3790.62
667.885	3745.56
668.077	3847.96
668.268	3720.99
668.459	3626.78
668.651	3694.36
668.842	3624.73
669.033	3686.17
669.224	3673.89
669.416	3563.29
669.607	3659.55
669.798	3661.6
669.989	3624.73
670.18	3532.58
670.371	3594.01
670.563	3643.17
670.754	3616.54
670.945	3460.9
671.136	3518.24
671.327	3534.62
671.518	3325.73
671.709	3505.95
671.9	3520.29
672.091	3448.61
672.282	3362.59
672.473	3350.31
672.664	3235.62
672.855	3352.35
673.046	3366.69
673.237	3370.79
673.428	3284.77
673.619	3419.94
673.809	3194.66
674	3260.2
674.191	3299.11
674.382	3165.99
674.573	3290.92
674.764	3104.55
674.954	3292.96
675.145	3333.92
675.336	3282.72
675.527	3172.13
675.717	3276.58
675.908	3202.85
676.099	3082.02
676.289	3243.81
676.48	3022.63
676.671	3055.4
676.861	3084.07
677.052	3112.74
677.243	3112.74
677.433	3079.97
677.624	3157.8
677.814	3104.55
678.005	3155.75
678.195	3178.28
678.386	3194.66
678.576	3000.1
678.767	3088.17
678.957	3088.17
679.148	3104.55
679.338	3002.15
679.529	2987.82
679.719	2973.48
679.909	3114.79
680.1	3036.97
680.29	2912.04
680.481	2912.04
680.671	3022.63
680.861	3010.34
681.052	2950.95
681.242	2918.18
681.432	2981.67
681.622	2934.57
681.813	2963.24
682.003	2909.99
682.193	2787.11
682.383	2969.38
682.573	2924.33
682.764	2938.66
682.954	2932.52
683.144	2866.99
683.334	2920.23
683.524	2891.56
683.714	2887.47
683.904	2901.8
684.094	2858.79
684.284	2936.62
684.474	2871.08
684.664	2895.66
684.854	2912.04
685.044	2744.11
685.234	2907.94
685.424	2856.75
685.614	2871.08
685.804	2817.83
685.994	2764.59
686.184	2772.78
686.374	2694.96
686.564	2793.26
686.753	2752.3
686.943	2686.76
687.133	2615.09
687.323	2795.31
687.513	2703.15
687.702	2686.76
687.892	2637.61
688.082	2729.77
688.272	2674.48
688.461	2686.76
688.651	2645.8
688.841	2678.57
689.03	2649.9
689.22	2744.11
689.41	2563.89
689.599	2625.33
689.789	2555.69
689.979	2508.59
690.168	2580.27
690.358	2524.97
690.547	2608.94
690.737	2602.8
690.926	2543.41
691.116	2459.44
691.305	2504.5
691.495	2514.73
691.684	2420.53
691.874	2441.01
692.063	2455.34
692.252	2465.58
692.442	2459.44
692.631	2354.99
692.82	2395.95
693.01	2322.23
693.199	2391.86
693.388	2383.66
693.578	2344.75
693.767	2490.16
693.956	2352.95
694.146	2318.13
694.335	2475.82
694.524	2400.05
694.713	2391.86
694.902	2295.6
695.092	2256.69
695.281	2256.69
695.47	2246.45
695.659	2228.02
695.848	2182.96
696.037	2238.26
696.226	2328.37
696.415	2238.26
696.604	2336.56
696.793	2260.79
696.982	2254.64
697.171	2303.79
697.36	2154.29
697.549	2129.72
697.738	2146.1
697.927	2320.18
698.116	2334.51
698.305	2109.24
698.494	2230.07
698.683	2248.5
698.872	2129.72
699.061	2164.53
699.25	2137.91
699.438	2228.02
699.627	2146.1
699.816	2223.92
700.005	2158.39
700.193	2156.34
700.382	2105.14
700.571	2170.68
700.76	2232.12
700.948	2246.45
701.137	2113.33
701.326	2223.92
701.514	2238.26
701.703	2223.92
701.892	2090.81
702.08	2219.83
702.269	2203.44
702.457	2096.95
702.646	2268.98
702.834	2096.95
703.023	2115.38
703.212	2203.44
703.4	2117.43
703.589	2092.85
703.777	2107.19
703.965	2051.89
704.154	1957.69
704.342	2107.19
704.531	2096.95
704.719	2090.81
704.907	2195.25
705.096	2109.24
705.284	2137.91
705.472	2160.44
705.661	2078.52
705.849	2129.72
706.037	2111.29
706.226	2037.56
706.414	2113.33
706.602	2039.61
706.79	2074.42
706.979	2105.14
707.167	2084.66
707.355	2055.99
707.543	2127.67
707.731	2015.03
707.919	2121.52
708.107	2031.41
708.296	1967.93
708.484	1992.5
708.672	2002.74
708.86	2105.14
709.048	1951.54
709.236	2084.66
709.424	2088.76
709.612	2072.37
709.8	1957.69
709.988	1898.3
710.176	2000.69
710.364	2105.14
710.551	1990.45
710.739	1965.88
710.927	2064.18
711.115	1990.45
711.303	2002.74
711.491	2121.52
711.679	1980.22
711.866	2072.37
712.054	1998.65
712.242	2033.46
712.43	2006.84
712.617	2010.93
712.805	2035.51
712.993	2031.41
713.181	1974.07
713.368	1875.77
713.556	1996.6
713.744	1941.3
713.931	2023.22
714.119	1924.92
714.306	2049.85
714.494	2123.57
714.682	1990.45
714.869	1965.88
715.057	2002.74
715.244	1963.83
715.432	1998.65
715.619	1984.31
715.807	1992.5
715.994	1908.54
716.182	2070.33
716.369	2060.09
716.556	2025.27
716.744	1867.58
716.931	1902.39
717.119	1834.81
717.306	1904.44
717.493	1851.19
717.681	2006.84
717.868	1906.49
718.055	1953.59
718.242	1937.21
718.43	1892.15
718.617	1982.26
718.804	1865.53
718.991	1918.78
719.179	1996.6
719.366	1916.73
719.553	1988.41
719.74	1908.54
719.927	1957.69
720.114	1916.73
720.301	1879.86
720.488	1894.2
720.676	1902.39
720.863	1826.62
721.05	2035.51
721.237	1853.24
721.424	1896.25
721.611	1941.3
721.798	1804.09
721.985	1843
722.172	1843
722.358	1894.2
722.545	1984.31
722.732	1941.3
722.919	1799.99
723.106	1933.11
723.293	1808.19
723.48	1816.38
723.667	1883.96
723.853	1875.77
724.04	1967.93
724.227	1871.67
724.414	1920.82
724.6	1881.91
724.787	1933.11
724.974	1793.85
725.161	1843
725.347	1836.86
725.534	1855.29
725.72	1883.96
725.907	1871.67
726.094	1920.82
726.28	1769.27
726.467	1853.24
726.653	1976.12
726.84	1781.56
727.027	1883.96
727.213	1763.13
727.4	1892.15
727.586	1756.99
727.773	1908.54
727.959	1845.05
728.145	1888.06
728.332	1802.04
728.518	1818.43
728.705	1941.3
728.891	1867.58
729.077	1857.34
729.264	1888.06
729.45	1822.52
729.636	1830.71
729.823	1802.04
730.009	1777.47
730.195	1826.62
730.382	1826.62
730.568	1775.42
730.754	1828.67
730.94	1861.43
731.126	1904.44
731.313	1736.51
731.499	1793.85
731.685	1838.91
731.871	1754.94
732.057	1920.82
732.243	1851.19
732.429	1804.09
732.615	1959.74
732.801	1761.08
732.987	1834.81
733.173	1787.71
733.359	1900.34
733.545	1744.7
733.731	1759.03
733.917	1810.23
734.103	1787.71
734.289	1857.34
734.475	1914.68
734.661	1701.69
734.847	1875.77
735.033	1713.98
735.219	1826.62
735.404	1746.75
735.59	1654.59
735.776	1765.18
735.962	1828.67
736.148	1845.05
736.333	1806.14
736.519	1826.62
736.705	1750.84
736.89	1795.9
737.076	1779.51
737.262	1675.07
737.447	1722.17
737.633	1695.55
737.819	1804.09
738.004	1716.03
738.19	1785.66
738.375	1771.32
738.561	1777.47
738.747	1728.31
738.932	1650.49
739.118	1670.97
739.303	1748.79
739.489	1689.4
739.674	1726.27
739.859	1599.29
740.045	1847.1
740.23	1711.93
740.416	1627.96
740.601	1703.74
740.786	1689.4
740.972	1691.45
741.157	1654.59
741.342	1613.63
741.528	1593.15
741.713	1625.92
741.898	1632.06
742.084	1597.24
742.269	1599.29
742.454	1630.01
742.639	1509.18
742.824	1613.63
743.01	1597.24
743.195	1625.92
743.38	1630.01
743.565	1697.6
743.75	1568.57
743.935	1511.23
744.12	1550.14
744.305	1511.23
744.49	1634.11
744.675	1648.44
744.86	1556.29
745.045	1566.53
745.23	1531.71
745.415	1484.61
745.6	1425.22
745.785	1472.32
745.97	1519.42
746.155	1552.19
746.34	1513.28
746.525	1419.07
746.71	1531.71
746.895	1466.17
747.079	1427.26
747.264	1451.84
747.449	1544
747.634	1386.3
747.819	1374.02
748.003	1402.69
748.188	1425.22
748.373	1345.34
748.557	1402.69
748.742	1462.08
748.927	1363.78
749.111	1363.78
749.296	1419.07
749.481	1337.15
749.665	1335.1
749.85	1247.04
750.034	1341.25
750.219	1249.09
750.404	1425.22
750.588	1277.76
750.773	1220.42
750.957	1294.15
751.141	1324.87
751.326	1244.99
751.51	1240.9
751.695	1195.84
751.879	1238.85
752.064	1351.49
752.248	1173.32
752.432	1179.46
752.617	1181.51
752.801	1191.75
752.985	1206.08
753.17	1261.38
753.354	1165.12
753.538	1179.46
753.722	1118.02
753.907	1118.02
754.091	1099.59
754.275	1140.55
754.459	1109.83
754.643	1138.5
754.828	1105.73
755.012	1208.13
755.196	1115.97
755.38	1173.32
755.564	1048.39
755.748	1081.16
755.932	1058.63
756.116	1036.1
756.3	1105.73
756.484	966.47
756.668	1007.43
756.852	960.33
757.036	1034.05
757.22	999.24
757.404	954.18
757.588	991.05
757.772	1038.15
757.956	1011.53
758.14	995.14
758.323	1015.62
758.507	917.32
758.691	945.99
758.875	935.75
759.059	1015.62
759.242	892.74
759.426	859.98
759.61	894.79
759.794	907.08
759.977	778.06
760.161	948.04
760.345	978.76
760.528	905.03
760.712	859.98
760.895	968.52
761.079	876.36
761.263	788.3
761.446	780.11
761.63	808.78
761.813	923.46
761.997	804.68
762.18	868.17
762.364	900.94
762.547	790.35
762.731	835.4
762.914	790.35
763.098	819.02
763.281	761.67
763.464	859.98
763.648	773.96
763.831	698.19
764.015	812.87
764.198	735.05
764.381	726.86
764.564	862.02
764.748	716.62
764.931	845.64
765.114	747.34
765.297	755.53
765.481	806.73
765.664	835.4
765.847	786.25
766.03	712.52
766.213	714.57
766.397	831.3
766.58	733
766.763	794.44
766.946	763.72
767.129	829.26
767.312	737.1
767.495	630.6
767.678	763.72
767.861	708.43
768.044	649.04
768.227	700.23
768.41	710.47
768.593	728.91
768.776	759.63
768.959	679.75
769.142	669.52
769.324	712.52
769.507	778.06
769.69	679.75
769.873	702.28
770.056	733
770.239	622.41
770.421	655.18
770.604	665.42
770.787	679.75
770.97	737.1
771.152	718.67
771.335	655.18
771.518	649.04
771.7	714.57
771.883	741.19
772.066	665.42
772.248	567.12
772.431	659.28
772.613	679.75
772.796	573.26
772.978	595.79
773.161	618.32
773.343	659.28
773.526	606.03
773.708	624.46
773.891	573.26
774.073	679.75
774.256	603.98
774.438	601.93
774.621	536.4
774.803	657.23
774.985	505.68
775.168	507.73
775.35	485.2
775.532	597.84
775.715	646.99
775.897	552.78
776.079	464.72
776.261	599.88
776.444	513.87
776.626	550.73
776.808	495.44
776.99	526.16
777.173	485.2
777.355	550.73
777.537	522.06
777.719	499.53
777.901	485.2
778.083	532.3
778.265	474.96
778.447	528.21
778.629	534.35
778.811	495.44
778.993	507.73
779.175	507.73
779.357	487.25
779.539	386.9
779.721	481.1
779.903	407.38
780.085	534.35
780.267	507.73
780.449	438.09
780.631	458.57
780.812	413.52
780.994	460.62
781.176	503.63
781.358	466.77
781.54	393.04
781.721	495.44
781.903	479.05
782.085	485.2
782.267	468.81
782.448	417.61
782.63	429.9
782.812	378.7
782.993	401.23
783.175	491.34
783.357	393.04
783.538	350.03
783.72	421.71
783.901	393.04
784.083	388.94
784.264	319.31
784.446	370.51
784.627	323.41
784.809	356.18
784.99	368.46
785.172	407.38
785.353	376.66
785.535	321.36
785.716	335.7
785.897	253.78
786.079	313.17
786.26	323.41
786.441	333.65
786.623	270.16
786.804	327.5
786.985	393.04
787.167	356.18
787.348	376.66
787.529	327.5
787.71	343.89
787.891	388.94
788.073	323.41
788.254	257.87
788.435	313.17
788.616	319.31
788.797	261.97
788.978	350.03
789.159	233.3
789.34	266.07
789.522	339.79
789.703	261.97
789.884	266.07
790.065	294.74
790.246	298.83
790.427	182.1
790.607	319.31
790.788	266.07
790.969	257.87
791.15	282.45
791.331	171.86
791.512	288.59
791.693	300.88
791.874	304.98
792.054	288.59
792.235	288.59
792.416	194.39
792.597	270.16
792.778	296.78
792.958	261.97
793.139	298.83
793.32	223.06
793.5	210.77
793.681	288.59
793.862	270.16
794.042	212.82
794.223	106.32
794.404	325.46
794.584	165.71
794.765	223.06
794.945	253.78
795.126	157.52
795.306	284.5
795.487	223.06
795.667	165.71
795.848	229.2
796.028	208.72
796.209	233.3
796.389	200.53
796.57	204.63
796.75	167.76
796.93	229.2
797.111	218.96
797.291	106.32
797.471	221.01
797.652	239.44
797.832	237.39
798.012	253.78
798.192	208.72
798.373	149.33
798.553	180.05
798.733	221.01
798.913	188.24
799.093	163.67
799.274	188.24
799.454	204.63
799.634	184.15
799.814	184.15
799.994	200.53
800.174	210.77
800.354	188.24
800.534	165.71
800.714	163.67
800.894	188.24
801.074	171.86
801.254	188.24
801.434	204.63
801.614	204.63
801.794	184.15
801.974	683.85
802.154	237.39
802.334	237.39
802.514	83.8
802.693	67.41
802.873	182.1
803.053	225.11
803.233	159.57
803.413	167.76
803.592	196.43
803.772	223.06
803.952	151.38
804.131	155.47
804.311	106.32
804.491	141.14
804.67	163.67
804.85	192.34
805.03	77.65
805.209	202.58
805.389	126.8
805.568	132.95
805.748	167.76
805.928	108.37
806.107	135
806.287	175.95
806.466	145.24
806.646	137.04
806.825	147.28
807.004	141.14
807.184	237.39
807.363	196.43
807.543	135
807.722	188.24
807.901	178
808.081	171.86
808.26	135
808.439	155.47
808.619	128.85
808.798	44.88
808.977	190.29
809.156	141.14
809.336	151.38
809.515	165.71
809.694	128.85
809.873	126.8
810.052	116.56
810.231	167.76
810.411	114.52
810.59	114.52
810.769	169.81
810.948	208.72
811.127	132.95
811.306	130.9
811.485	100.18
811.664	132.95
811.843	155.47
812.022	173.91
812.201	173.91
812.38	171.86
812.559	126.8
812.737	135
812.916	130.9
813.095	71.51
813.274	89.94
813.453	180.05
813.632	108.37
813.811	126.8
813.989	106.32
814.168	173.91
814.347	108.37
814.526	139.09
814.704	112.47
814.883	221.01
815.062	89.94
815.24	110.42
815.419	118.61
815.598	102.23
815.776	44.88
815.955	81.75
816.133	98.13
816.312	163.67
816.49	98.13
816.669	139.09
816.847	16.21
817.026	116.56
817.204	130.9
817.383	124.76
817.561	83.8
817.74	100.18
817.918	98.13
818.097	36.69
818.275	114.52
818.453	57.17
818.632	57.17
818.81	132.95
818.988	75.6
819.167	94.04
819.345	155.47
819.523	206.67
819.701	114.52
819.879	130.9
820.058	143.19
820.236	135
820.414	141.14
820.592	157.52
820.77	57.17
820.948	89.94
821.127	102.23
821.305	98.13
821.483	75.6
821.661	151.38
821.839	132.95
822.017	51.03
822.195	102.23
822.373	108.37
822.551	102.23
822.729	91.99
822.907	118.61
823.085	155.47
823.262	53.08
823.44	116.56
823.618	139.09
823.796	73.56
823.974	79.7
824.152	116.56
824.329	83.8
824.507	106.32
824.685	137.04
824.863	30.55
825.04	36.69
825.218	44.88
825.396	98.13
825.574	116.56
825.751	24.4
825.929	122.71
826.107	46.93
826.284	94.04
826.462	77.65
826.639	83.8
826.817	108.37
826.994	73.56
827.172	18.26
827.349	151.38
827.527	108.37
827.704	130.9
827.882	69.46
828.059	91.99
828.237	46.93
828.414	102.23
828.591	89.94
828.769	110.42
828.946	130.9
829.124	53.08
829.301	91.99
829.478	20.31
829.655	77.65
829.833	89.94
830.01	122.71
830.187	55.12
830.364	51.03
830.542	112.47
830.719	77.65
830.896	69.46
831.073	53.08
831.25	128.85
831.427	42.84
831.604	61.27
831.782	59.22
831.959	96.08
832.136	94.04
832.313	30.55
832.49	94.04
832.667	114.52
832.844	38.74
833.021	75.6
833.198	-0.17
833.374	61.27
833.551	79.7
833.728	61.27
833.905	106.32
834.082	73.56
834.259	85.84
834.436	108.37
834.612	63.32
834.789	77.65
834.966	26.45
835.143	108.37
835.319	65.36
835.496	98.13
835.673	53.08
835.85	57.17
836.026	91.99
836.203	69.46
836.38	65.36
836.556	28.5
836.733	114.52
836.909	114.52
837.086	-6.31
837.262	96.08
837.439	10.07
837.616	94.04
837.792	38.74
837.968	16.21
838.145	-39.08
838.321	53.08
838.498	3.93
838.674	73.56
838.851	178
839.027	59.22
839.203	-0.17
839.38	85.84
839.556	28.5
839.732	79.7
839.909	42.84
840.085	40.79
840.261	28.5
840.437	69.46
840.614	34.64
840.79	130.9
840.966	98.13
841.142	73.56
841.318	-8.36
841.494	73.56
841.671	3.93
841.847	91.99
842.023	-24.75
842.199	98.13
842.375	67.41
842.551	-32.94
842.727	8.02
842.903	122.71
843.079	22.36
843.255	65.36
843.431	46.93
843.607	85.84
843.783	-26.79
843.959	57.17
844.134	69.46
844.31	26.45
844.486	40.79
844.662	81.75
844.838	34.64
845.013	81.75
845.189	71.51
845.365	122.71
845.541	40.79
845.716	91.99
845.892	67.41
846.068	26.45
846.244	40.79
846.419	34.64
846.595	-24.75
846.77	48.98
846.946	120.66
847.122	24.4
847.297	26.45
847.473	116.56
847.648	28.5
847.824	48.98
847.999	-34.99
848.175	65.36
848.35	77.65
848.526	67.41
848.701	114.52
848.876	65.36
849.052	91.99
849.227	30.55
849.403	-4.27
849.578	51.03
849.753	-4.27
849.929	48.98
850.104	-18.6
850.279	34.64
850.454	32.6
850.63	-8.36
850.805	10.07
850.98	46.93
851.155	-10.41
851.33	36.69
851.505	36.69
851.681	139.09
851.856	-8.36
852.031	57.17
852.206	59.22
852.381	-2.22
852.556	-2.22
852.731	77.65
852.906	32.6
853.081	32.6
853.256	122.71
853.431	1.88
853.606	73.56
853.781	18.26
853.956	16.21
854.131	18.26
854.305	-24.75
854.48	81.75
854.655	16.21
854.83	73.56
855.005	48.98
855.18	77.65
855.354	81.75
855.529	53.08
855.704	-16.55
855.879	57.17
856.053	81.75
856.228	42.84
856.403	16.21
856.577	20.31
856.752	24.4
856.926	100.18
857.101	-12.46
857.276	32.6
857.45	65.36
857.625	81.75
857.799	12.12
857.974	10.07
858.148	-0.17
858.323	5.97
858.497	26.45
858.672	-0.17
858.846	-12.46
859.02	122.71
859.195	-16.55
859.369	24.4
859.543	-8.36
859.718	20.31
859.892	-8.36
860.066	73.56
860.241	30.55
860.415	-0.17
860.589	-0.17
860.763	10.07
860.938	-16.55
861.112	5.97
861.286	32.6
861.46	46.93
861.634	16.21
861.808	81.75
861.982	-6.31
862.157	-24.75
862.331	3.93
862.505	44.88
862.679	-4.27
862.853	36.69
863.027	53.08
863.201	53.08
863.375	-2.22
863.549	48.98
863.722	89.94
863.896	24.4
864.07	48.98
864.244	1.88
864.418	32.6
864.592	83.8
864.766	55.12
864.939	-30.89
865.113	32.6
865.287	32.6
865.461	-28.84
865.634	-32.94
865.808	8.02
865.982	-0.17
866.156	-24.75
866.329	42.84
866.503	48.98
866.676	26.45
866.85	40.79
867.024	32.6
867.197	-24.75
867.371	73.56
867.544	20.31
867.718	28.5
867.891	18.26
868.065	28.5
868.238	71.51
868.412	48.98
868.585	30.55
868.759	122.71
868.932	53.08
869.105	-53.42
869.279	-10.41
869.452	-28.84
869.625	44.88
869.799	91.99
869.972	18.26
870.145	-0.17
870.319	-20.65
870.492	-4.27
870.665	-20.65
870.838	8.02
871.011	16.21
871.185	-32.94
871.358	16.21
871.531	-39.08
871.704	-24.75
871.877	-12.46
872.05	3.93
872.223	-39.08
872.396	96.08
872.569	46.93
872.742	-6.31
872.915	98.13
873.088	1.88
873.261	-22.7
873.434	48.98
873.607	1.88
873.78	-32.94
873.953	59.22
874.126	20.31
874.299	81.75
874.471	-39.08
874.644	26.45
874.817	65.36
874.99	36.69
875.163	-45.23
875.335	65.36
875.508	-14.51
875.681	85.84
875.853	48.98
876.026	57.17
876.199	16.21
876.371	16.21
876.544	10.07
876.717	8.02
876.889	-0.17
877.062	36.69
877.234	51.03
877.407	-20.65
877.579	85.84
877.752	16.21
877.924	12.12
878.097	81.75
878.269	59.22
878.442	36.69
878.614	3.93
878.786	100.18
878.959	3.93
879.131	-6.31
879.303	-16.55
879.476	28.5
879.648	26.45
879.82	12.12
879.993	-12.46
880.165	-8.36
880.337	24.4
880.509	12.12
880.681	77.65
880.854	-71.85
881.026	24.4
881.198	108.37
881.37	-49.32
881.542	67.41
881.714	61.27
881.886	-18.6
882.058	-20.65
882.23	48.98
882.402	-61.61
882.574	5.97
882.746	24.4
882.918	38.74
883.09	36.69
883.262	-24.75
883.434	-6.31
883.606	-57.51
883.778	51.03
883.95	57.17
884.122	12.12
884.293	57.17
884.465	3.93
884.637	-22.7
884.809	-28.84
884.98	42.84
885.152	98.13
885.324	8.02
885.496	3.93
885.667	-10.41
885.839	98.13
886.011	8.02
886.182	83.8
886.354	-6.31
886.525	26.45
886.697	24.4
886.869	26.45
887.04	-0.17
887.212	-0.17
887.383	53.08
887.555	-39.08
887.726	-37.03
887.897	-8.36
888.069	71.51
888.24	-14.51
888.412	77.65
888.583	-10.41
888.754	30.55
888.926	-71.85
889.097	-22.7
889.268	-6.31
889.44	98.13
889.611	18.26
889.782	-10.41
889.953	51.03
890.125	22.36
890.296	5.97
890.467	-6.31
890.638	16.21
890.809	8.02
890.98	-43.18
891.151	18.26
891.323	51.03
891.494	83.8
891.665	-49.32
891.836	-24.75
892.007	16.21
892.178	32.6
892.349	18.26
892.52	-14.51
892.691	-47.27
892.862	-32.94
893.032	-2.22
893.203	40.79
893.374	69.46
893.545	10.07
893.716	83.8
893.887	57.17
894.057	-34.99
894.228	48.98
894.399	-32.94
894.57	67.41
894.74	75.6
894.911	20.31
895.082	46.93
895.253	-4.27
895.423	22.36
895.594	79.7
895.764	59.22
895.935	-30.89
896.106	3.93
896.276	20.31
896.447	-47.27
896.617	-24.75
896.788	1.88
896.958	59.22
897.129	-4.27
897.299	28.5
897.47	118.61
897.64	-8.36
897.81	48.98
897.981	-8.36
898.151	12.12
898.322	-41.13
898.492	8.02
898.662	-0.17
898.832	89.94
899.003	-32.94
899.173	24.4
899.343	20.31
899.513	-0.17
