Data from USB4F104151__177__14-20-05-495.txt Node

Date: Thu Mar 13 14:20:05 EDT 2025
User: louis
Spectrometer: USB4F10415
Trigger mode: 4
Integration Time (sec): 2.000000E-2
Scans to average: 1
Electric dark correction enabled: true
Nonlinearity correction enabled: false
Boxcar width: 0
XAxis mode: Wavelengths
Number of Pixels in Spectrum: 3648
>>>>>Begin Spectral Data<<<<<
178.204	-113.83
178.424	-113.83
178.644	-113.83
178.864	-76.97
179.084	-97.45
179.304	-23.72
179.524	-31.91
179.744	15.19
179.964	23.38
180.184	-3.24
180.404	19.29
180.624	11.09
180.844	33.62
181.064	-64.68
181.283	-9.39
181.503	-15.53
181.723	45.91
181.943	27.48
182.163	31.57
182.383	-7.34
182.602	2.9
182.822	47.96
183.042	27.48
183.262	-15.53
183.482	37.72
183.701	29.52
183.921	56.15
184.141	-13.48
184.361	50
184.58	-44.2
184.8	43.86
185.02	27.48
185.239	52.05
185.459	74.58
185.679	107.35
185.898	62.29
186.118	39.76
186.338	27.48
186.557	-36.01
186.777	-13.48
186.997	4.95
187.216	60.24
187.436	99.16
187.655	17.24
187.875	2.9
188.095	-48.3
188.314	31.57
188.534	35.67
188.753	-21.67
188.973	-7.34
189.192	54.1
189.412	47.96
189.631	86.87
189.851	-13.48
190.07	7
190.29	-11.43
190.509	-5.29
190.729	-7.34
190.948	33.62
191.168	109.4
191.387	99.16
191.607	19.29
191.826	66.39
192.045	-21.67
192.265	-40.11
192.484	17.24
192.704	21.33
192.923	-1.19
193.142	62.29
193.362	-27.82
193.581	33.62
193.8	50
194.02	86.87
194.239	19.29
194.458	41.81
194.678	74.58
194.897	17.24
195.116	54.1
195.335	72.53
195.555	0.85
195.774	25.43
195.993	43.86
196.212	-23.72
196.432	9.05
196.651	-9.39
196.87	33.62
197.089	-11.43
197.308	41.81
197.528	41.81
197.747	43.86
197.966	35.67
198.185	50
198.404	86.87
198.623	33.62
198.842	39.76
199.062	-23.72
199.281	-1.19
199.5	27.48
199.719	39.76
199.938	45.91
200.157	35.67
200.376	33.62
200.595	54.1
200.814	29.52
201.033	11.09
201.252	50
201.471	-23.72
201.69	101.2
201.909	117.59
202.128	7
202.347	82.77
202.566	68.44
202.785	66.39
203.004	29.52
203.223	25.43
203.442	45.91
203.661	68.44
203.879	58.2
204.098	93.01
204.317	43.86
204.536	66.39
204.755	37.72
204.974	11.09
205.193	27.48
205.411	158.55
205.63	9.05
205.849	-70.83
206.068	93.01
206.287	82.77
206.505	66.39
206.724	78.68
206.943	0.85
207.162	35.67
207.381	76.63
207.599	95.06
207.818	45.91
208.037	50
208.255	-44.2
208.474	58.2
208.693	15.19
208.911	-15.53
209.13	62.29
209.349	86.87
209.567	-3.24
209.786	107.35
210.005	74.58
210.223	9.05
210.442	52.05
210.661	39.76
210.879	78.68
211.098	-33.96
211.316	27.48
211.535	52.05
211.753	60.24
211.972	45.91
212.191	23.38
212.409	25.43
212.628	0.85
212.846	17.24
213.065	11.09
213.283	90.96
213.502	15.19
213.72	90.96
213.938	2.9
214.157	0.85
214.375	111.44
214.594	58.2
214.812	0.85
215.031	74.58
215.249	-85.16
215.467	29.52
215.686	66.39
215.904	105.3
216.122	58.2
216.341	86.87
216.559	35.67
216.778	-13.48
216.996	15.19
217.214	-13.48
217.432	-7.34
217.651	-5.29
217.869	54.1
218.087	0.85
218.306	-9.39
218.524	70.48
218.742	-29.87
218.96	50
219.179	4.95
219.397	50
219.615	58.2
219.833	9.05
220.051	11.09
220.27	43.86
220.488	115.54
220.706	-5.29
220.924	-5.29
221.142	43.86
221.36	47.96
221.578	58.2
221.796	93.01
222.015	19.29
222.233	35.67
222.451	41.81
222.669	-48.3
222.887	-38.06
223.105	35.67
223.323	80.72
223.541	-19.63
223.759	-7.34
223.977	21.33
224.195	74.58
224.413	17.24
224.631	-7.34
224.849	33.62
225.067	82.77
225.285	-19.63
225.503	58.2
225.721	-58.54
225.939	68.44
226.157	43.86
226.375	191.31
226.592	2.9
226.81	19.29
227.028	41.81
227.246	107.35
227.464	68.44
227.682	27.48
227.9	70.48
228.117	21.33
228.335	-1.19
228.553	-54.44
228.771	-11.43
228.989	-29.87
229.206	-74.92
229.424	41.81
229.642	58.2
229.86	0.85
230.077	50
230.295	103.25
230.513	-1.19
230.731	52.05
230.948	19.29
231.166	37.72
231.384	21.33
231.601	-17.58
231.819	60.24
232.037	0.85
232.254	41.81
232.472	52.05
232.689	33.62
232.907	0.85
233.125	41.81
233.342	-1.19
233.56	50
233.777	-19.63
233.995	0.85
234.213	21.33
234.43	-27.82
234.648	-23.72
234.865	-23.72
235.083	41.81
235.3	0.85
235.518	84.82
235.735	39.76
235.953	35.67
236.17	17.24
236.388	-15.53
236.605	43.86
236.822	29.52
237.04	33.62
237.257	-3.24
237.475	54.1
237.692	0.85
237.909	56.15
238.127	60.24
238.344	-29.87
238.562	25.43
238.779	25.43
238.996	29.52
239.214	-31.91
239.431	4.95
239.648	-15.53
239.865	13.14
240.083	-3.24
240.3	60.24
240.517	21.33
240.735	62.29
240.952	23.38
241.169	-42.15
241.386	35.67
241.603	-38.06
241.821	-15.53
242.038	52.05
242.255	103.25
242.472	52.05
242.689	27.48
242.907	105.3
243.124	-23.72
243.341	17.24
243.558	25.43
243.775	-56.49
243.992	-64.68
244.209	58.2
244.426	45.91
244.643	0.85
244.86	41.81
245.078	93.01
245.295	13.14
245.512	21.33
245.729	-21.67
245.946	27.48
246.163	19.29
246.38	54.1
246.597	37.72
246.814	0.85
247.031	15.19
247.248	74.58
247.464	-70.83
247.681	93.01
247.898	80.72
248.115	97.11
248.332	-1.19
248.549	90.96
248.766	138.07
248.983	-5.29
249.2	29.52
249.417	50
249.633	74.58
249.85	76.63
250.067	-40.11
250.284	-21.67
250.501	-46.25
250.717	21.33
250.934	-42.15
251.151	-60.59
251.368	35.67
251.585	37.72
251.801	19.29
252.018	-25.77
252.235	43.86
252.451	27.48
252.668	11.09
252.885	58.2
253.102	37.72
253.318	-29.87
253.535	-40.11
253.752	-5.29
253.968	99.16
254.185	-38.06
254.401	13.14
254.618	45.91
254.835	58.2
255.051	37.72
255.268	68.44
255.484	41.81
255.701	17.24
255.917	4.95
256.134	25.43
256.351	17.24
256.567	74.58
256.784	66.39
257	-11.43
257.217	148.31
257.433	-1.19
257.65	45.91
257.866	39.76
258.082	-15.53
258.299	39.76
258.515	80.72
258.732	70.48
258.948	9.05
259.165	52.05
259.381	17.24
259.597	84.82
259.814	68.44
260.03	33.62
260.246	17.24
260.463	58.2
260.679	131.92
260.895	2.9
261.112	27.48
261.328	19.29
261.544	37.72
261.761	50
261.977	43.86
262.193	13.14
262.409	37.72
262.626	13.14
262.842	50
263.058	11.09
263.274	95.06
263.49	21.33
263.707	9.05
263.923	0.85
264.139	27.48
264.355	17.24
264.571	41.81
264.787	2.9
265.004	-7.34
265.22	11.09
265.436	41.81
265.652	-48.3
265.868	2.9
266.084	33.62
266.3	-1.19
266.516	19.29
266.732	76.63
266.948	33.62
267.164	68.44
267.38	103.25
267.596	-5.29
267.812	39.76
268.028	-9.39
268.244	58.2
268.46	78.68
268.676	-62.63
268.892	105.3
269.108	-19.63
269.324	33.62
269.54	9.05
269.756	74.58
269.972	0.85
270.188	13.14
270.403	-17.58
270.619	33.62
270.835	90.96
271.051	21.33
271.267	-11.43
271.483	41.81
271.698	29.52
271.914	54.1
272.13	9.05
272.346	2.9
272.562	-25.77
272.777	2.9
272.993	-60.59
273.209	7
273.425	107.35
273.64	-101.55
273.856	37.72
274.072	4.95
274.287	33.62
274.503	52.05
274.719	21.33
274.934	107.35
275.15	-21.67
275.366	0.85
275.581	-50.35
275.797	19.29
276.012	99.16
276.228	-21.67
276.444	70.48
276.659	43.86
276.875	76.63
277.09	-38.06
277.306	9.05
277.521	72.53
277.737	-9.39
277.952	35.67
278.168	0.85
278.383	-3.24
278.599	39.76
278.814	11.09
279.03	9.05
279.245	41.81
279.461	0.85
279.676	-31.91
279.892	50
280.107	0.85
280.322	7
280.538	66.39
280.753	33.62
280.969	50
281.184	19.29
281.399	23.38
281.615	50
281.83	43.86
282.045	23.38
282.26	-9.39
282.476	76.63
282.691	2.9
282.906	101.2
283.122	13.14
283.337	-48.3
283.552	76.63
283.767	4.95
283.983	17.24
284.198	-38.06
284.413	76.63
284.628	25.43
284.843	-23.72
285.058	80.72
285.274	138.07
285.489	76.63
285.704	60.24
285.919	25.43
286.134	131.92
286.349	9.05
286.564	-31.91
286.779	60.24
286.995	74.58
287.21	-15.53
287.425	115.54
287.64	11.09
287.855	19.29
288.07	41.81
288.285	101.2
288.5	-11.43
288.715	21.33
288.93	4.95
289.145	33.62
289.36	9.05
289.575	2.9
289.79	37.72
290.004	25.43
290.219	86.87
290.434	66.39
290.649	-38.06
290.864	0.85
291.079	-29.87
291.294	25.43
291.509	58.2
291.724	4.95
291.938	11.09
292.153	17.24
292.368	0.85
292.583	37.72
292.798	13.14
293.012	43.86
293.227	41.81
293.442	15.19
293.657	66.39
293.871	105.3
294.086	-11.43
294.301	93.01
294.516	131.92
294.73	4.95
294.945	90.96
295.16	-7.34
295.374	136.02
295.589	138.07
295.804	-7.34
296.018	-15.53
296.233	99.16
296.447	90.96
296.662	4.95
296.877	41.81
297.091	50
297.306	23.38
297.52	-7.34
297.735	-15.53
297.949	9.05
298.164	-29.87
298.378	74.58
298.593	50
298.807	-44.2
299.022	66.39
299.236	109.4
299.451	33.62
299.665	17.24
299.88	15.19
300.094	58.2
300.309	17.24
300.523	-11.43
300.737	121.68
300.952	31.57
301.166	37.72
301.381	13.14
301.595	33.62
301.809	52.05
302.024	9.05
302.238	-29.87
302.452	43.86
302.667	-23.72
302.881	33.62
303.095	37.72
303.309	50
303.524	43.86
303.738	33.62
303.952	-3.24
304.166	136.02
304.381	9.05
304.595	29.52
304.809	-44.2
305.023	115.54
305.237	52.05
305.452	33.62
305.666	4.95
305.88	66.39
306.094	58.2
306.308	0.85
306.522	27.48
306.736	17.24
306.95	43.86
307.164	25.43
307.379	37.72
307.593	60.24
307.807	82.77
308.021	93.01
308.235	9.05
308.449	23.38
308.663	0.85
308.877	31.57
309.091	-31.91
309.305	41.81
309.519	43.86
309.733	45.91
309.947	-17.58
310.161	-7.34
310.374	74.58
310.588	160.59
310.802	13.14
311.016	47.96
311.23	19.29
311.444	88.92
311.658	45.91
311.872	52.05
312.085	37.72
312.299	37.72
312.513	68.44
312.727	66.39
312.941	74.58
313.154	78.68
313.368	29.52
313.582	37.72
313.796	64.34
314.009	27.48
314.223	41.81
314.437	43.86
314.651	33.62
314.864	27.48
315.078	37.72
315.292	29.52
315.505	-15.53
315.719	76.63
315.933	52.05
316.146	21.33
316.36	-11.43
316.573	45.91
316.787	93.01
317.001	76.63
317.214	-11.43
317.428	115.54
317.641	41.81
317.855	33.62
318.068	-7.34
318.282	86.87
318.495	68.44
318.709	74.58
318.922	66.39
319.136	58.2
319.349	11.09
319.563	101.2
319.776	41.81
319.99	-19.63
320.203	70.48
320.417	2.9
320.63	13.14
320.843	66.39
321.057	52.05
321.27	-29.87
321.483	19.29
321.697	25.43
321.91	50
322.124	58.2
322.337	33.62
322.55	-29.87
322.763	-13.48
322.977	52.05
323.19	-13.48
323.403	60.24
323.617	-15.53
323.83	15.19
324.043	4.95
324.256	76.63
324.469	-27.82
324.683	21.33
324.896	58.2
325.109	27.48
325.322	62.29
325.535	50
325.748	-5.29
325.962	-5.29
326.175	37.72
326.388	62.29
326.601	82.77
326.814	17.24
327.027	9.05
327.24	50
327.453	0.85
327.666	41.81
327.879	33.62
328.092	56.15
328.305	-56.49
328.518	45.91
328.731	-5.29
328.944	21.33
329.157	19.29
329.37	-33.96
329.583	45.91
329.796	-19.63
330.009	35.67
330.222	109.4
330.435	17.24
330.648	4.95
330.861	9.05
331.073	-15.53
331.286	113.49
331.499	37.72
331.712	11.09
331.925	52.05
332.138	58.2
332.35	66.39
332.563	-58.54
332.776	23.38
332.989	43.86
333.202	60.24
333.414	50
333.627	54.1
333.84	80.72
334.053	90.96
334.265	-21.67
334.478	0.85
334.691	68.44
334.903	37.72
335.116	9.05
335.329	107.35
335.541	43.86
335.754	93.01
335.966	64.34
336.179	0.85
336.392	-44.2
336.604	45.91
336.817	84.82
337.029	99.16
337.242	37.72
337.454	133.97
337.667	41.81
337.88	52.05
338.092	78.68
338.305	99.16
338.517	60.24
338.729	119.64
338.942	-15.53
339.154	17.24
339.367	25.43
339.579	62.29
339.792	9.05
340.004	50
340.217	99.16
340.429	47.96
340.641	-23.72
340.854	-21.67
341.066	21.33
341.278	60.24
341.491	17.24
341.703	62.29
341.915	2.9
342.128	66.39
342.34	7
342.552	70.48
342.764	82.77
342.977	9.05
343.189	58.2
343.401	25.43
343.613	-15.53
343.826	29.52
344.038	-95.4
344.25	66.39
344.462	27.48
344.674	25.43
344.886	25.43
345.099	33.62
345.311	50
345.523	50
345.735	-13.48
345.947	41.81
346.159	58.2
346.371	45.91
346.583	31.57
346.795	123.73
347.007	62.29
347.219	41.81
347.431	27.48
347.643	107.35
347.855	7
348.067	84.82
348.279	17.24
348.491	43.86
348.703	13.14
348.915	17.24
349.127	43.86
349.339	41.81
349.551	-11.43
349.763	0.85
349.975	-60.59
350.187	58.2
350.399	115.54
350.61	45.91
350.822	54.1
351.034	58.2
351.246	0.85
351.458	-3.24
351.669	7
351.881	76.63
352.093	95.06
352.305	-13.48
352.517	64.34
352.728	152.4
352.94	60.24
353.152	9.05
353.363	-23.72
353.575	17.24
353.787	58.2
353.999	43.86
354.21	90.96
354.422	-15.53
354.633	2.9
354.845	2.9
355.057	50
355.268	99.16
355.48	86.87
355.692	52.05
355.903	76.63
356.115	54.1
356.326	41.81
356.538	58.2
356.749	35.67
356.961	33.62
357.172	9.05
357.384	0.85
357.595	109.4
357.807	52.05
358.018	68.44
358.23	54.1
358.441	80.72
358.653	70.48
358.864	-31.91
359.075	27.48
359.287	80.72
359.498	58.2
359.709	19.29
359.921	62.29
360.132	29.52
360.344	54.1
360.555	27.48
360.766	45.91
360.977	-7.34
361.189	70.48
361.4	33.62
361.611	109.4
361.823	74.58
362.034	99.16
362.245	13.14
362.456	86.87
362.667	7
362.879	11.09
363.09	4.95
363.301	50
363.512	17.24
363.723	13.14
363.935	47.96
364.146	60.24
364.357	64.34
364.568	33.62
364.779	-9.39
364.99	99.16
365.201	41.81
365.412	74.58
365.623	27.48
365.834	74.58
366.045	76.63
366.256	52.05
366.467	37.72
366.678	21.33
366.889	-29.87
367.1	25.43
367.311	58.2
367.522	-48.3
367.733	45.91
367.944	70.48
368.155	31.57
368.366	70.48
368.577	41.81
368.788	90.96
368.999	-7.34
369.209	37.72
369.42	115.54
369.631	115.54
369.842	70.48
370.053	0.85
370.264	23.38
370.474	31.57
370.685	21.33
370.896	45.91
371.107	93.01
371.317	21.33
371.528	56.15
371.739	111.44
371.95	111.44
372.16	74.58
372.371	29.52
372.582	52.05
372.792	37.72
373.003	-15.53
373.214	74.58
373.424	60.24
373.635	76.63
373.846	4.95
374.056	84.82
374.267	52.05
374.477	54.1
374.688	109.4
374.898	13.14
375.109	-3.24
375.319	43.86
375.53	41.81
375.74	117.59
375.951	101.2
376.161	86.87
376.372	82.77
376.582	37.72
376.793	86.87
377.003	54.1
377.214	43.86
377.424	39.76
377.635	60.24
377.845	33.62
378.055	117.59
378.266	17.24
378.476	90.96
378.686	37.72
378.897	74.58
379.107	74.58
379.317	123.73
379.528	4.95
379.738	90.96
379.948	33.62
380.158	82.77
380.369	29.52
380.579	101.2
380.789	35.67
380.999	60.24
381.21	76.63
381.42	99.16
381.63	-9.39
381.84	17.24
382.05	50
382.261	45.91
382.471	29.52
382.681	-25.77
382.891	78.68
383.101	-3.24
383.311	52.05
383.521	70.48
383.731	25.43
383.941	80.72
384.151	125.78
384.361	78.68
384.571	4.95
384.781	43.86
384.991	64.34
385.201	119.64
385.411	72.53
385.621	70.48
385.831	52.05
386.041	50
386.251	27.48
386.461	82.77
386.671	-38.06
386.881	107.35
387.091	29.52
387.301	62.29
387.511	9.05
387.72	50
387.93	86.87
388.14	17.24
388.35	90.96
388.56	93.01
388.769	58.2
388.979	90.96
389.189	17.24
389.399	25.43
389.609	33.62
389.818	23.38
390.028	82.77
390.238	148.31
390.447	109.4
390.657	99.16
390.867	45.91
391.076	-7.34
391.286	2.9
391.496	-15.53
391.705	-7.34
391.915	140.12
392.125	23.38
392.334	78.68
392.544	86.87
392.753	52.05
392.963	43.86
393.172	62.29
393.382	58.2
393.591	113.49
393.801	78.68
394.01	156.5
394.22	125.78
394.429	70.48
394.639	115.54
394.848	107.35
395.058	41.81
395.267	17.24
395.477	115.54
395.686	101.2
395.895	86.87
396.105	148.31
396.314	199.51
396.524	164.69
396.733	90.96
396.942	123.73
397.152	115.54
397.361	181.07
397.57	62.29
397.78	160.59
397.989	136.02
398.198	215.89
398.407	74.58
398.617	125.78
398.826	60.24
399.035	160.59
399.244	109.4
399.453	181.07
399.663	138.07
399.872	127.83
400.081	133.97
400.29	117.59
400.499	99.16
400.708	82.77
400.917	47.96
401.127	160.59
401.336	144.21
401.545	191.31
401.754	74.58
401.963	123.73
402.172	136.02
402.381	148.31
402.59	136.02
402.799	146.26
403.008	146.26
403.217	131.92
403.426	172.88
403.635	90.96
403.844	166.74
404.053	191.31
404.262	76.63
404.471	258.9
404.68	117.59
404.888	152.4
405.097	123.73
405.306	183.12
405.515	172.88
405.724	125.78
405.933	209.75
406.142	238.42
406.35	158.55
406.559	150.36
406.768	199.51
406.977	199.51
407.185	217.94
407.394	228.18
407.603	205.65
407.812	273.23
408.02	240.47
408.229	328.53
408.438	232.27
408.646	172.88
408.855	283.47
409.064	299.86
409.272	303.95
409.481	381.78
409.69	291.66
409.898	287.57
410.107	262.99
410.315	295.76
410.524	328.53
410.733	328.53
410.941	371.54
411.15	404.3
411.358	381.78
411.567	486.22
411.775	461.65
411.984	414.54
412.192	439.12
412.401	418.64
412.609	518.99
412.818	529.23
413.026	496.46
413.234	496.46
413.443	566.09
413.651	535.37
413.86	602.96
414.068	672.59
414.276	660.3
414.485	682.83
414.693	625.48
414.901	641.87
415.11	840.52
415.318	807.75
415.526	807.75
415.734	762.7
415.943	774.99
416.151	930.63
416.359	889.67
416.567	869.19
416.776	893.77
416.984	1045.32
417.192	1047.37
417.4	1030.98
417.608	1020.74
417.817	1086.28
418.025	1221.44
418.233	1235.78
418.441	1260.35
418.649	1286.98
418.857	1413.95
419.065	1469.25
419.273	1372.99
419.481	1479.49
419.689	1467.2
419.897	1540.93
420.105	1461.06
420.313	1684.28
420.521	1667.9
420.729	1669.95
420.937	1762.11
421.145	1762.11
421.353	1889.08
421.561	2161.46
421.769	2167.6
421.977	2218.8
422.185	2175.8
422.393	2384.69
422.601	2370.35
422.809	2491.18
423.017	2517.81
423.224	2509.62
423.432	2614.06
423.64	2548.53
423.848	2870.06
424.056	2976.55
424.263	3179.3
424.471	3060.52
424.679	3048.23
424.887	3349.28
425.094	3334.95
425.302	3404.58
425.51	3566.37
425.718	3539.74
425.925	3564.32
426.133	3830.55
426.341	3865.37
426.548	4150.04
426.756	4057.88
426.964	4088.6
427.171	4510.48
427.379	4563.73
427.586	4662.03
427.794	4809.48
428.001	5069.58
428.209	5151.49
428.417	5194.5
428.624	5671.68
428.832	5575.42
429.039	5452.55
429.247	5468.93
429.454	5995.26
429.662	6523.63
429.869	5958.39
430.076	6304.5
430.284	6265.59
430.491	6472.43
430.699	6929.13
430.906	6839.02
431.114	6998.76
431.321	7195.37
431.528	7391.97
431.736	7807.71
431.943	8094.43
432.15	7840.48
432.358	7981.79
432.565	8626.9
432.772	8282.84
432.979	8901.33
433.187	9016.01
433.394	8981.2
433.601	9552.58
433.808	9728.7
434.016	9644.74
434.223	10105.53
434.43	10638
434.637	10324.66
434.844	10900.14
435.052	11244.2
435.259	11119.28
435.466	11342.5
435.673	10941.1
435.88	11760.29
436.087	12544.66
436.294	12485.27
436.501	12212.89
436.708	12370.58
436.915	13011.6
437.122	13644.42
437.329	13605.51
437.537	13570.69
437.743	13922.94
437.95	13904.51
438.157	14781.04
438.364	15268.46
438.571	15065.71
438.778	15293.04
438.985	16573.02
439.192	15956.58
439.399	16372.32
439.606	15876.71
439.813	17130.06
440.02	18104.9
440.227	17490.51
440.433	17769.03
440.64	18199.1
440.847	17900.1
441.054	18522.68
441.261	19679.79
441.467	19415.6
441.674	19685.93
441.881	20572.7
442.088	20449.82
442.294	20324.9
442.501	20650.52
442.708	21162.51
442.914	21797.38
443.121	22899.19
443.328	21963.27
443.534	23874.03
443.741	23001.59
443.948	22741.5
444.154	24543.71
444.361	24318.43
444.568	24664.54
444.774	24220.13
444.981	24771.04
445.187	25170.39
445.394	26491.33
445.6	26118.6
445.807	28707.23
446.013	27439.54
446.22	27812.27
446.426	29034.91
446.633	29307.29
446.839	30423.43
447.046	29002.14
447.252	30865.79
447.459	30558.6
447.665	30574.98
447.871	32334.18
448.078	33220.95
448.284	31719.79
448.491	32424.29
448.697	33945.94
448.903	34326.86
449.11	34601.29
449.316	33605.97
449.522	34459.98
449.728	35144
449.935	35526.97
450.141	35928.37
450.347	36598.05
450.553	35074.37
450.76	35758.39
450.966	36659.49
451.172	36546.86
451.378	37376.28
451.584	36159.79
451.791	37542.17
451.997	37447.96
452.203	38113.55
452.409	38097.17
452.615	37970.19
452.821	36464.94
453.027	35936.56
453.233	38068.5
453.44	36829.48
453.646	36931.87
453.852	37282.08
454.058	37744.92
454.264	36729.12
454.47	37439.77
454.676	36501.8
454.882	37579.03
455.088	34314.57
455.294	35232.06
455.5	35504.44
455.705	35934.51
455.911	34300.23
456.117	33937.74
456.323	33352.02
456.529	31744.37
456.735	33159.52
456.941	32119.15
457.147	31873.39
457.352	30605.7
457.558	30517.64
457.764	30392.71
457.97	29960.59
458.176	29079.96
458.381	29372.82
458.587	28006.83
458.793	27888.04
458.999	26585.54
459.204	28373.41
459.41	27630
459.616	26014.15
459.821	25788.88
460.027	25520.59
460.233	25180.63
460.438	24220.13
460.644	24302.05
460.85	23216.63
461.055	22731.26
461.261	22704.63
461.466	21058.07
461.672	20400.67
461.878	21975.56
462.083	20728.35
462.289	20003.36
462.494	19929.64
462.7	18915.89
462.905	18430.52
463.111	19053.11
463.316	19292.72
463.522	18719.29
463.727	18592.31
463.932	18977.33
464.138	18543.16
464.343	18508.35
464.549	17887.81
464.754	18616.89
464.959	18645.56
465.165	18221.63
465.37	17683.02
465.575	17248.85
465.781	17945.16
465.986	17723.97
466.191	16990.8
466.397	17117.78
466.602	15999.59
466.807	16575.06
467.012	16779.86
467.218	16732.76
467.423	16323.16
467.628	16677.46
467.833	17150.54
468.038	16659.03
468.244	15919.71
468.449	16849.49
468.654	16050.78
468.859	16104.03
469.064	16101.98
469.269	15434.35
469.474	15399.53
469.679	15768.16
469.885	15034.99
470.09	15749.73
470.295	15512.17
470.5	14918.26
470.705	15063.66
470.91	14715.51
471.115	14770.8
471.32	14445.18
471.525	14926.45
471.73	14406.27
471.935	14412.41
472.139	13935.23
472.344	14326.39
472.549	13990.53
472.754	13777.54
472.959	13488.78
473.164	13374.09
473.369	13124.24
473.574	13636.23
473.778	13130.38
473.983	13466.25
474.188	13249.16
474.393	12847.76
474.598	12679.83
474.802	12659.35
475.007	12536.47
475.212	12454.55
475.417	12305.05
475.621	12346.01
475.826	12270.23
476.031	11764.39
476.235	11549.35
476.44	11801.25
476.645	11829.92
476.849	11555.49
477.054	11209.39
477.259	11184.81
477.463	11276.97
477.668	11207.34
477.872	11285.16
478.077	10906.29
478.282	10531.51
478.486	10476.21
478.691	10582.71
478.895	10519.22
479.1	10490.55
479.304	10527.41
479.509	10339
479.713	10490.55
479.918	10255.03
480.122	10037.95
480.326	10097.34
480.531	10060.48
480.735	9777.86
480.94	9890.49
481.144	10234.55
481.348	9775.81
481.553	9982.65
481.757	9693.89
481.961	9734.85
482.166	9874.11
482.37	9822.91
482.574	9505.48
482.778	9706.18
482.983	9902.78
483.187	9554.63
483.391	9638.59
483.595	9650.88
483.8	9530.05
484.004	9798.34
484.208	9792.19
484.412	9931.45
484.616	9683.65
484.821	9749.18
485.025	9581.25
485.229	9779.9
485.433	9638.59
485.637	9605.83
485.841	9646.79
486.045	9437.89
486.249	9634.5
486.453	9388.74
486.657	9648.83
486.861	9644.74
487.065	9476.8
487.269	9435.85
487.473	9480.9
487.677	9710.27
487.881	9568.96
488.085	9528
488.289	9630.4
488.493	9462.47
488.697	9786.05
488.901	9685.7
489.105	9601.73
489.309	9632.45
489.512	9794.24
489.716	9675.46
489.92	9704.13
490.124	9898.69
490.328	10040
490.531	9876.16
490.735	10011.32
490.939	10173.11
491.143	9863.87
491.346	9691.84
491.55	10021.56
491.754	9958.08
491.958	10142.39
492.161	10044.09
492.365	10095.29
492.569	9986.75
492.772	10183.35
492.976	10173.11
493.18	10193.59
493.383	10416.82
493.587	10482.36
493.79	10560.18
493.994	10314.42
494.197	10527.41
494.401	10590.9
494.605	10414.77
494.808	10859.18
495.012	10818.22
495.215	10834.61
495.419	10805.94
495.622	10764.98
495.825	10855.09
496.029	11248.3
496.232	11276.97
496.436	11231.91
496.639	11516.58
496.843	11573.92
497.046	11739.81
497.249	11874.98
497.453	11827.87
497.656	12008.09
497.859	11911.84
498.063	12149.4
498.266	12427.93
498.469	12542.61
498.673	12384.92
498.876	12712.6
499.079	13091.47
499.282	12743.31
499.485	13179.53
499.689	13208.2
499.892	13335.18
500.095	13501.06
500.298	13640.33
500.501	13451.91
500.705	13861.51
500.908	13986.43
501.111	14174.85
501.314	14209.66
501.517	14477.94
501.72	14764.66
501.923	14582.39
502.126	14877.3
502.329	15264.36
502.532	15381.1
502.735	15391.34
502.938	15719.01
503.141	15612.52
503.344	15766.12
503.547	15979.11
503.75	16253.53
503.953	16351.84
504.156	16786.01
504.359	16691.8
504.562	16783.96
504.765	17244.75
504.968	17394.25
505.17	17334.86
505.373	17515.08
505.576	17715.78
505.779	18002.5
505.982	18053.7
506.185	18381.37
506.387	18387.52
506.59	18522.68
506.793	18956.85
506.996	18924.08
507.198	19647.02
507.401	19190.32
507.604	19681.83
507.807	20087.33
508.009	20292.13
508.212	20376.09
508.415	20402.72
508.617	20812.31
508.82	20724.25
509.022	20689.43
509.225	21182.99
509.428	21273.1
509.63	21363.22
509.833	21623.31
510.035	22362.62
510.238	22008.33
510.44	22241.79
510.643	22630.91
510.845	22983.16
511.048	22630.91
511.25	23413.23
511.453	23323.12
511.655	24254.95
511.858	23558.64
512.06	23957.99
512.262	24500.7
512.465	24529.38
512.667	25123.29
512.87	24685.02
513.072	24910.3
513.274	25381.33
513.477	25539.02
513.679	25887.18
513.881	26061.26
514.084	26634.69
514.286	26642.88
514.488	26868.16
514.69	27394.48
514.893	27380.15
515.095	27525.55
515.297	27677.1
515.499	27820.46
515.701	28481.95
515.904	28490.15
516.106	28735.9
516.308	28963.23
516.51	29223.32
516.712	29372.82
516.914	29331.86
517.116	30144.91
517.318	30208.39
517.52	30290.31
517.722	30480.77
517.925	30978.43
518.127	31158.65
518.329	31158.65
518.531	31082.88
518.733	31756.66
518.935	32088.43
519.136	31564.15
519.338	32350.57
519.54	32434.53
519.742	32506.21
519.944	32995.68
520.146	33411.42
520.348	33382.74
520.55	33571.16
520.752	33874.26
520.954	34316.62
521.155	34046.29
521.357	34715.97
521.559	34842.95
521.761	35354.94
521.963	35557.69
522.164	35404.09
522.366	35684.66
522.568	35739.96
522.77	36120.88
522.971	36741.41
523.173	36280.62
523.375	36882.72
523.576	36636.97
523.778	36976.93
523.98	37763.35
524.181	37458.2
524.383	37353.76
524.584	37824.79
524.786	38056.21
524.988	37783.83
525.189	38416.65
525.391	38621.45
525.592	38781.19
525.794	39250.17
525.995	38736.13
526.197	38822.15
526.398	38879.49
526.6	39667.96
526.801	39665.91
527.003	39831.8
527.204	39702.78
527.406	40087.79
527.607	39854.33
527.808	39977.2
528.01	39819.51
528.211	40364.27
528.412	40716.52
528.614	40569.07
528.815	40634.6
529.016	40876.26
529.218	40413.42
529.419	40696.04
529.62	40863.97
529.822	40691.94
530.023	40601.83
530.224	41062.63
530.425	40444.14
530.626	40698.09
530.828	40464.62
531.029	41857.24
531.23	41003.24
531.431	41144.55
531.632	41502.94
531.833	41453.79
532.035	41558.24
532.236	41173.22
532.437	41654.49
532.638	40947.94
532.839	42014.93
533.04	41617.63
533.241	41150.69
533.442	41994.45
533.643	41500.89
533.844	41488.6
534.045	41582.81
534.246	41222.37
534.447	41998.55
534.648	41427.17
534.849	41662.68
535.05	41300.19
535.251	41717.98
535.451	41402.59
535.652	41554.14
535.853	41830.62
536.054	41670.87
536.255	41760.98
536.456	41474.27
536.657	42240.21
536.857	41527.52
537.058	41335.01
537.259	41939.16
537.46	41701.59
537.66	41445.6
537.861	41711.83
538.062	41677.02
538.263	41480.41
538.463	41472.22
538.664	41244.9
538.865	41820.38
539.065	42086.61
539.266	41328.86
539.466	41832.66
539.667	41191.65
539.868	41746.65
540.068	41363.68
540.269	41560.28
540.469	41967.83
540.67	41150.69
540.87	41406.69
541.071	41416.93
541.271	41461.98
541.472	41392.35
541.672	41410.78
541.873	41070.82
542.073	40902.89
542.274	41492.7
542.474	41306.34
542.675	41173.22
542.875	41414.88
543.075	41310.43
543.276	40913.13
543.476	41359.58
543.676	41408.73
543.877	41423.07
544.077	41355.49
544.277	41507.04
544.478	41423.07
544.678	41855.19
544.878	41234.66
545.078	41388.25
545.279	41040.1
545.479	41574.62
545.679	41390.3
545.879	41203.94
546.079	41447.64
546.28	41416.93
546.48	40939.75
546.68	41261.28
546.88	41298.14
547.08	41216.22
547.28	41453.79
547.48	40890.6
547.68	40890.6
547.88	40620.27
548.081	41330.91
548.281	40855.78
548.481	40952.04
548.681	41027.81
548.881	40593.64
549.081	40917.22
549.28	40546.54
549.48	41072.87
549.68	40925.41
549.88	41435.36
550.08	40722.66
550.28	41060.58
550.48	40923.36
550.68	41083.11
550.88	40423.66
551.08	40716.52
551.279	40749.29
551.479	40663.27
551.679	40823.01
551.879	40696.04
552.079	40544.49
552.278	41011.43
552.478	40601.83
552.678	40898.79
552.878	40704.23
553.077	40728.81
553.277	40206.58
553.477	40923.36
553.676	40397.04
553.876	40556.78
554.076	40595.69
554.275	40261.87
554.475	40227.06
554.674	40458.48
554.874	40569.07
555.074	40597.74
555.273	40673.51
555.473	40450.28
555.672	40208.62
555.872	39903.48
556.071	40732.9
556.271	40775.91
556.47	40255.73
556.67	39911.67
556.869	39954.68
557.068	40659.18
557.268	39844.09
557.467	40089.84
557.667	39889.14
557.866	40278.25
558.065	39692.54
558.265	39926
558.464	39698.68
558.663	39907.57
558.863	39516.41
559.062	39977.2
559.261	39747.83
559.461	40186.1
559.66	39256.32
559.859	39809.27
560.058	39155.97
560.258	39332.09
560.457	39117.06
560.656	39567.61
560.855	39203.07
561.054	39786.74
561.253	38961.41
561.453	39266.56
561.652	39383.29
561.851	39854.33
562.05	38965.51
562.249	38603.02
562.448	39207.17
562.647	38729.99
562.846	38979.84
563.045	38922.5
563.244	38256.91
563.443	38729.99
563.642	38375.69
563.841	38707.46
564.04	38598.92
564.239	39176.45
564.438	38490.38
564.637	38514.95
564.836	38185.23
565.035	37703.96
565.234	38414.6
565.432	38402.32
565.631	38218
565.83	38265.1
566.029	38070.54
566.228	37900.56
566.427	37773.59
566.625	37628.18
566.824	37187.87
567.023	37421.34
567.222	37409.05
567.42	37943.57
567.619	37112.1
567.818	37239.07
568.016	37208.35
568.215	37464.35
568.414	37208.35
568.612	37275.93
568.811	36882.72
569.01	37017.89
569.208	36661.54
569.407	37116.19
569.605	36266.28
569.804	37171.49
570.002	36186.41
570.201	36479.27
570.4	36442.41
570.598	36282.67
570.797	35815.73
570.995	36528.42
571.193	35928.37
571.392	36387.11
571.59	35649.85
571.789	35850.55
571.987	35983.66
572.186	35453.24
572.384	35330.36
572.582	35795.25
572.781	35795.25
572.979	35387.71
573.177	35447.1
573.376	35453.24
573.574	34990.4
573.772	35645.75
573.971	35068.22
574.169	34779.46
574.367	34881.86
574.565	35254.59
574.763	34990.4
574.962	34797.89
575.16	34672.96
575.358	34531.65
575.556	34169.16
575.754	34836.8
575.952	34369.86
576.151	34685.25
576.349	34216.27
576.547	33923.41
576.745	34267.47
576.943	34068.81
577.141	33978.7
577.339	33923.41
577.537	33423.7
577.735	33866.06
577.933	33681.75
578.131	33554.77
578.329	33515.86
578.527	33110.36
578.725	33356.12
578.923	33634.64
579.121	33216.86
579.319	33229.15
579.516	33300.83
579.714	33028.45
579.912	32741.73
580.11	32840.03
580.308	32756.07
580.506	32682.34
580.704	32119.15
580.901	32717.15
581.099	32856.42
581.297	32229.74
581.495	32098.67
581.692	32117.1
581.89	32053.61
582.088	31979.89
582.285	32162.15
582.483	32147.82
582.681	31840.62
582.878	31576.44
583.076	31648.11
583.274	31613.3
583.471	31371.64
583.669	31363.45
583.866	31318.39
584.064	31467.89
584.262	31050.11
584.459	31392.12
584.657	30894.46
584.854	31566.2
585.052	30761.34
585.249	30738.82
585.447	30771.58
585.644	30519.68
585.841	30783.87
586.039	30845.31
586.236	30216.58
586.434	30280.07
586.631	30484.87
586.828	30544.26
587.026	30275.98
587.223	30085.51
587.42	30120.33
587.618	29997.45
587.815	29591.95
588.012	29655.44
588.21	29860.24
588.407	29874.57
588.604	29524.37
588.801	29041.05
588.999	29499.8
589.196	29254.04
589.393	29507.99
589.59	29184.41
589.787	29262.23
589.984	28764.57
590.182	28805.53
590.379	28983.71
590.576	28715.42
590.773	28869.02
590.97	28961.18
591.167	28578.21
591.364	28252.58
591.561	28301.73
591.758	28289.45
591.955	27969.96
592.152	28424.61
592.349	28139.94
592.546	28015.02
592.743	27867.56
592.94	27679.15
593.137	28133.8
593.334	28135.85
593.531	27369.91
593.727	27707.82
593.924	27877.8
594.121	27337.14
594.318	27453.87
594.515	26931.64
594.712	27271.61
594.908	27134.39
595.105	27216.31
595.302	26995.13
595.499	26751.42
595.696	27040.18
595.892	26481.09
596.089	26937.79
596.286	26440.13
596.482	26614.21
596.679	26542.53
596.876	26333.64
597.072	26257.86
597.269	26315.2
597.466	26003.91
597.662	26153.41
597.859	26003.91
598.055	25924.04
598.252	25995.72
598.448	26042.82
598.645	25709.01
598.841	25295.32
599.038	25823.69
599.234	25397.71
599.431	25203.16
599.627	25469.39
599.824	25555.41
600.02	25168.34
600.217	25313.75
600.413	25473.49
600.609	24838.62
600.806	24635.87
601.002	24762.84
601.198	24756.7
601.395	24556
601.591	24816.09
601.787	25113.05
601.984	24181.22
602.18	24406.5
602.376	24584.67
602.572	24254.95
602.769	24404.45
602.965	24056.29
603.161	23994.86
603.357	24156.64
603.553	24134.12
603.75	24295.91
603.946	23658.99
604.142	24027.62
604.338	23587.31
604.534	23620.08
604.73	23433.71
604.926	23585.26
605.122	23622.12
605.318	23316.98
605.514	23265.78
605.71	23394.8
605.906	23431.66
606.102	23185.91
606.298	23357.94
606.494	22983.16
606.69	23249.39
606.886	23040.5
607.082	22540.8
607.278	23073.27
607.474	22368.77
607.67	22673.92
607.866	22383.1
608.062	22835.7
608.257	22530.56
608.453	22417.92
608.649	22520.32
608.845	22438.4
609.041	22716.92
609.236	22323.71
609.432	22237.7
609.628	22485.5
609.824	22104.58
610.019	21729.8
610.215	22311.42
610.411	22233.6
610.606	21969.41
610.802	22057.48
610.998	22022.66
611.193	22194.69
611.389	21918.21
611.584	21877.26
611.78	21496.33
611.976	21705.23
612.171	21635.6
612.367	21889.54
612.562	21336.59
612.758	21195.28
612.953	21160.47
613.149	21883.4
613.344	21119.51
613.539	21469.71
613.735	21381.65
613.93	21441.04
614.126	21156.37
614.321	21174.8
614.517	21307.92
614.712	21260.82
614.907	20855.32
615.103	21529.1
615.298	21123.6
615.493	21117.46
615.688	20912.66
615.884	21221.91
616.079	20834.84
616.274	21013.01
616.47	20673.05
616.665	20896.28
616.86	20744.73
617.055	20552.22
617.25	20566.56
617.445	20902.42
617.641	20165.15
617.836	20505.12
618.031	20310.56
618.226	20648.47
618.421	20068.9
618.616	20595.23
618.811	19898.92
619.006	20548.12
619.201	20038.18
619.396	20089.38
619.591	19857.96
619.786	19708.46
619.981	19720.74
620.176	19927.59
620.371	19565.1
620.566	19677.74
620.761	19296.81
620.956	19474.99
621.151	18915.89
621.346	19343.92
621.541	18958.9
621.735	19065.39
621.93	18727.48
622.125	18860.6
622.32	18717.24
622.515	18768.44
622.709	18467.39
622.904	18580.03
623.099	18522.68
623.294	18319.93
623.488	17910.34
623.683	18266.69
623.878	17777.22
624.072	18043.46
624.267	17809.99
624.462	17709.64
624.656	17572.43
624.851	17521.23
625.046	17236.56
625.24	17498.7
625.435	17312.33
625.629	17326.67
625.824	16931.41
626.018	16884.31
626.213	16628.31
626.407	16970.32
626.602	16540.25
626.796	16886.36
626.991	16759.38
627.185	16546.39
627.38	16314.97
627.574	16429.66
627.768	16300.64
627.963	16120.42
628.157	15831.65
628.352	15991.39
628.546	15635.05
628.74	15987.3
628.935	15874.66
629.129	15641.19
629.323	15446.63
629.517	15463.02
629.712	15618.66
629.906	15239.79
630.1	14991.98
630.294	15254.12
630.489	14875.25
630.683	15170.16
630.877	14836.34
631.071	15037.04
631.265	14813.81
631.459	14602.87
631.653	14713.46
631.848	14688.89
632.042	14541.43
632.236	14277.24
632.43	14146.17
632.624	14340.73
632.818	14123.65
633.012	14090.88
633.206	14092.93
633.4	13910.66
633.594	13931.14
633.788	14008.96
633.982	13859.46
634.176	13646.47
634.369	13462.15
634.563	13613.7
634.757	13259.4
634.951	13462.15
635.145	13398.66
635.339	13382.28
635.533	13101.71
635.726	13034.13
635.92	12868.24
636.114	13101.71
636.308	12954.26
636.501	12890.77
636.695	13066.89
636.889	12849.81
637.083	12655.25
637.276	12710.55
637.47	12767.89
637.664	12448.41
637.857	12354.2
638.051	12337.82
638.244	12141.21
638.438	12262.04
638.632	12047.01
638.825	12004
639.019	12001.95
639.212	12044.96
639.406	11911.84
639.599	11754.15
639.793	11942.56
639.986	11629.22
640.18	11657.89
640.373	11532.97
640.567	11557.54
640.76	11707.04
640.954	11389.61
641.147	11479.72
641.34	11311.78
641.534	11461.29
641.727	10977.97
641.92	11092.65
642.114	11010.73
642.307	10914.48
642.5	10988.21
642.694	10805.94
642.887	10785.46
643.08	10937.01
643.273	10947.25
643.467	10670.77
643.66	10605.24
643.853	10416.82
644.046	10394.29
644.239	10437.3
644.432	10451.64
644.626	10295.99
644.819	10218.17
645.012	10265.27
645.205	10515.12
645.398	10097.34
645.591	10310.33
645.784	10175.16
645.977	9843.39
646.17	9925.31
646.363	9859.77
646.556	9820.86
646.749	9720.51
646.942	9927.36
647.135	9765.57
647.328	9681.6
647.521	9786.05
647.714	9614.02
647.907	9609.92
648.099	9470.66
648.292	9487.04
648.485	9192.14
648.678	9323.21
648.871	9151.18
649.064	9054.92
649.256	9249.48
649.449	9081.55
649.642	9206.47
649.835	8897.23
650.027	8780.5
650.22	9097.93
650.413	8813.26
650.605	8663.76
650.798	8911.57
650.991	8856.27
651.183	8757.97
651.376	8594.13
651.568	8854.22
651.761	8600.27
651.954	8461.01
652.146	8540.88
652.339	8510.16
652.531	8348.37
652.724	8389.33
652.916	8221.4
653.109	8108.76
653.301	8188.63
653.494	8338.13
653.686	7942.88
653.879	8190.68
654.071	8032.99
654.263	8065.75
654.456	7994.08
654.648	7914.2
654.84	7860.96
655.033	7656.16
655.225	7719.65
655.417	7652.06
655.61	7662.3
655.802	7619.3
655.994	7613.15
656.186	7746.27
656.379	7488.23
656.571	7469.8
656.763	7512.8
656.955	7547.62
657.148	7525.09
657.34	7277.29
657.532	7234.28
657.724	7170.79
657.916	7295.72
658.108	7176.94
658.3	7140.07
658.492	7103.21
658.684	7025.39
658.876	7086.83
659.068	6828.78
659.26	6855.4
659.452	7111.4
659.644	7064.3
659.836	6943.47
660.028	6894.32
660.22	6621.94
660.412	6718.19
660.604	6728.43
660.796	6716.14
660.988	6640.37
661.18	6677.23
661.372	6578.93
661.563	6712.05
661.755	6437.62
661.947	6447.86
662.139	6464.24
662.331	6349.56
662.522	6349.56
662.714	6427.38
662.906	6458.1
663.097	6294.26
663.289	6206.2
663.481	6322.93
663.673	6349.56
663.864	6206.2
664.056	6286.07
664.247	6095.61
664.439	6206.2
664.631	6212.34
664.822	6275.83
665.014	5933.82
665.205	5948.15
665.397	5942.01
665.588	6050.55
665.78	5937.91
665.971	5866.24
666.163	5812.99
666.354	5833.47
666.546	5849.85
666.737	5726.97
666.929	5708.54
667.12	5743.36
667.311	5663.49
667.503	5589.76
667.694	5733.12
667.885	5501.7
668.077	5712.64
668.268	5616.38
668.459	5546.75
668.651	5491.46
668.842	5438.21
669.033	5292.8
669.224	5481.22
669.416	5354.24
669.607	5434.11
669.798	5350.15
669.989	5442.31
670.18	5393.16
670.371	5190.41
670.563	5182.21
670.754	5354.24
670.945	5100.3
671.136	5221.13
671.327	5219.08
671.518	5171.97
671.709	5255.94
671.9	5196.55
672.091	5114.63
672.282	4987.66
672.473	5112.58
672.664	4924.17
672.855	5088.01
673.046	5006.09
673.237	5038.86
673.428	5024.52
673.619	5018.38
673.809	4866.83
674	4856.59
674.191	4870.92
674.382	4789
674.573	4838.16
674.764	4793.1
674.954	4807.44
675.145	4789
675.336	4793.1
675.527	4698.89
675.717	4727.57
675.908	4553.49
676.099	4791.05
676.289	4852.49
676.48	4621.07
676.671	4682.51
676.861	4713.23
677.052	4678.41
677.243	4416.27
677.433	4598.54
677.624	4614.93
677.814	4735.76
678.005	4557.58
678.195	4522.77
678.386	4573.97
678.576	4549.39
678.767	4557.58
678.957	4514.58
679.148	4625.17
679.338	4424.47
679.529	4555.54
679.719	4434.71
679.909	4543.25
680.1	4522.77
680.29	4416.27
680.481	4469.52
680.671	4401.94
680.861	4406.03
681.052	4301.59
681.242	4424.47
681.432	4393.75
681.622	4272.92
681.813	4328.21
682.003	4373.27
682.193	4195.09
682.383	4264.72
682.573	4356.88
682.764	4184.85
682.954	4344.6
683.144	4258.58
683.334	4205.33
683.524	4236.05
683.714	4172.57
683.904	4244.24
684.094	4209.43
684.284	4156.18
684.474	4145.94
684.664	4328.21
684.854	4098.84
685.044	4074.26
685.234	4162.33
685.424	4084.5
685.614	4092.69
685.804	4088.6
685.994	4141.85
686.184	3990.3
686.374	4078.36
686.564	4025.11
686.753	3941.15
686.943	3910.43
687.133	3975.96
687.323	3885.85
687.513	4000.54
687.702	3896.09
687.892	3955.48
688.082	3830.55
688.272	3924.76
688.461	3795.74
688.651	3896.09
688.841	3777.31
689.03	4031.26
689.22	3762.97
689.41	3724.06
689.599	3760.92
689.789	3679.01
689.979	3570.46
690.168	3715.87
690.358	3617.57
690.547	3578.65
690.737	3636
690.926	3595.04
691.116	3349.28
691.305	3668.77
691.495	3498.78
691.684	3588.89
691.874	3609.37
692.063	3539.74
692.252	3609.37
692.442	3457.82
692.631	3457.82
692.82	3484.45
693.01	3361.57
693.199	3371.81
693.388	3484.45
693.578	3359.52
693.767	3482.4
693.956	3441.44
694.146	3490.59
694.335	3244.84
694.524	3433.25
694.713	3285.8
694.902	3353.38
695.092	3351.33
695.281	3285.8
695.47	3330.85
695.659	3210.02
695.848	3195.68
696.037	3285.8
696.226	3318.56
696.415	3162.92
696.604	3222.31
696.793	3105.57
696.982	3173.16
697.171	3164.97
697.36	3154.73
697.549	3167.01
697.738	3158.82
697.927	3072.81
698.116	3167.01
698.305	3115.81
698.494	2982.7
698.683	3101.48
698.872	2974.5
699.061	3162.92
699.25	3044.13
699.438	3025.7
699.627	3066.66
699.816	3076.9
700.005	3058.47
700.193	3005.22
700.382	3097.38
700.571	3119.91
700.76	2947.88
700.948	3011.37
701.137	2976.55
701.326	2921.26
701.514	2921.26
701.703	3089.19
701.892	3027.75
702.08	3160.87
702.269	2978.6
702.457	2923.3
702.646	2943.78
702.834	2960.17
703.023	2917.16
703.212	2876.2
703.4	2941.74
703.589	3029.8
703.777	2911.02
703.965	2900.78
704.154	2956.07
704.342	2994.98
704.531	2999.08
704.719	2827.05
704.907	2900.78
705.096	2794.28
705.284	2927.4
705.472	2984.74
705.661	2970.41
705.849	2853.67
706.037	2870.06
706.226	3040.04
706.414	2792.23
706.602	2810.67
706.79	2728.75
706.979	2822.95
707.167	2745.13
707.355	2831.15
707.543	2788.14
707.731	2900.78
707.919	2796.33
708.107	2749.23
708.296	2663.21
708.484	2706.22
708.672	2790.19
708.86	2855.72
709.048	2724.65
709.236	2812.71
709.424	2872.11
709.612	2777.9
709.8	2687.79
709.988	2712.36
710.176	2681.64
710.364	2753.32
710.551	2745.13
710.739	2663.21
710.927	2839.34
711.115	2691.88
711.303	2702.12
711.491	2763.56
711.679	2775.85
711.866	2689.84
712.054	2607.92
712.242	2634.54
712.43	2667.31
712.617	2708.27
712.805	2706.22
712.993	2589.49
713.181	2687.79
713.368	2698.03
713.556	2659.12
713.744	2708.27
713.931	2698.03
714.119	2704.17
714.306	2716.46
714.494	2614.06
714.682	2646.83
714.869	2796.33
715.057	2671.4
715.244	2632.49
715.432	2786.09
715.619	2538.29
715.807	2679.6
715.994	2564.91
716.182	2655.02
716.369	2663.21
716.556	2655.02
716.744	2671.4
716.931	2714.41
717.119	2675.5
717.306	2687.79
717.493	2642.73
717.681	2556.72
717.868	2581.29
718.055	2689.84
718.242	2581.29
718.43	2597.68
718.617	2552.62
718.804	2573.1
718.991	2554.67
719.179	2630.45
719.366	2597.68
719.553	2695.98
719.74	2671.4
719.927	2573.1
720.114	2630.45
720.301	2482.99
720.488	2540.33
720.676	2433.84
720.863	2589.49
721.05	2632.49
721.237	2622.25
721.424	2597.68
721.611	2616.11
721.798	2427.7
721.985	2493.23
722.172	2585.39
722.358	2540.33
722.545	2552.62
722.732	2579.25
722.919	2532.14
723.106	2571.05
723.293	2452.27
723.48	2532.14
723.667	2390.83
723.853	2380.59
724.04	2517.81
724.227	2534.19
724.414	2335.54
724.6	2478.9
724.787	2648.88
724.974	2548.53
725.161	2491.18
725.347	2460.46
725.534	2437.94
725.72	2579.25
725.907	2433.84
726.094	2507.57
726.28	2476.85
726.467	2442.03
726.653	2478.9
726.84	2534.19
727.027	2478.9
727.213	2464.56
727.4	2554.67
727.586	2470.7
727.773	2552.62
727.959	2460.46
728.145	2526
728.332	2468.66
728.518	2577.2
728.705	2456.37
728.891	2454.32
729.077	2507.57
729.264	2380.59
729.45	2433.84
729.636	2491.18
729.823	2396.98
730.009	2458.42
730.195	2523.95
730.382	2448.18
730.568	2431.79
730.754	2278.19
730.94	2452.27
731.126	2392.88
731.313	2454.32
731.499	2386.74
731.685	2487.09
731.871	2425.65
732.057	2376.5
732.243	2394.93
732.429	2384.69
732.615	2407.22
732.801	2429.74
732.987	2347.83
733.173	2425.65
733.359	2435.89
733.545	2403.12
733.731	2294.58
733.917	2343.73
734.103	2421.55
734.289	2319.15
734.475	2360.11
734.661	2423.6
734.847	2356.02
735.033	2462.51
735.219	2386.74
735.404	2302.77
735.59	2364.21
735.776	2263.86
735.962	2308.91
736.148	2358.07
736.333	2372.4
736.519	2278.19
736.705	2413.36
736.89	2313.01
737.076	2347.83
737.262	2304.82
737.447	2214.71
737.633	2272.05
737.819	2272.05
738.004	2304.82
738.19	2253.62
738.375	2267.95
738.561	2331.44
738.747	2190.13
738.932	2229.04
739.118	2327.35
739.303	2186.04
739.489	2315.06
739.674	2247.48
739.859	2040.63
740.045	2179.89
740.23	2302.77
740.416	2145.08
740.601	2163.51
740.786	2255.67
740.972	2294.58
741.157	2204.47
741.342	2140.98
741.528	2083.64
741.713	2335.54
741.898	2130.74
742.084	2120.5
742.269	2163.51
742.454	2194.23
742.639	2124.6
742.824	2140.98
743.01	2253.62
743.195	2165.56
743.38	2026.29
743.565	2169.65
743.75	2157.36
743.935	2003.77
744.12	2075.45
744.305	2032.44
744.49	2052.92
744.675	2089.78
744.86	2063.16
745.045	2106.17
745.23	2065.21
745.415	2048.82
745.6	2018.1
745.785	1971
745.97	1995.57
746.155	1991.48
746.34	2100.02
746.525	1923.9
746.71	1954.62
746.895	1950.52
747.079	1950.52
747.264	1880.89
747.449	1954.62
747.634	1934.14
747.819	1944.38
748.003	1860.41
748.188	1835.83
748.373	1856.31
748.557	1831.74
748.742	1854.27
748.927	1862.46
749.111	1823.55
749.296	1786.68
749.481	1905.46
749.665	1770.3
749.85	1760.06
750.034	1741.63
750.219	1704.76
750.404	1708.86
750.588	1749.82
750.773	1628.99
750.957	1680.19
751.141	1733.43
751.326	1729.34
751.51	1657.66
751.695	1680.19
751.879	1655.61
752.064	1688.38
752.248	1657.66
752.432	1571.65
752.617	1715
752.801	1594.17
752.985	1610.56
753.17	1516.35
753.354	1561.41
753.538	1573.69
753.722	1524.54
753.907	1514.3
754.091	1446.72
754.275	1516.35
754.459	1459.01
754.643	1456.96
754.828	1438.53
755.012	1409.86
755.196	1491.77
755.38	1352.51
755.564	1409.86
755.748	1381.18
755.932	1418.05
756.116	1385.28
756.3	1409.86
756.484	1364.8
756.668	1311.55
756.852	1352.51
757.036	1403.71
757.22	1305.41
757.404	1225.54
757.588	1246.02
757.772	1229.63
757.956	1319.75
758.14	1280.83
758.323	1207.11
758.507	1358.66
758.691	1262.4
758.875	1266.5
759.059	1278.79
759.242	1180.48
759.426	1176.39
759.61	1246.02
759.794	1289.03
759.977	1213.25
760.161	1266.5
760.345	1172.29
760.528	1256.26
760.712	1207.11
760.895	1266.5
761.079	1102.66
761.263	1262.4
761.446	1149.76
761.63	1078.08
761.813	1248.07
761.997	1188.68
762.18	1078.08
762.364	1137.48
762.547	1020.74
762.731	1114.95
762.914	1114.95
763.098	969.54
763.281	1108.8
763.464	1026.89
763.648	1063.75
763.831	1098.56
764.015	1078.08
764.198	1016.65
764.381	963.4
764.564	1080.13
764.748	1073.99
764.931	932.68
765.114	971.59
765.297	1043.27
765.481	1041.22
765.664	1016.65
765.847	918.34
766.03	1094.47
766.213	975.69
766.397	938.82
766.58	895.82
766.763	1012.55
766.946	942.92
767.129	947.01
767.312	951.11
767.495	875.34
767.678	930.63
767.861	944.97
768.044	942.92
768.227	846.66
768.41	885.58
768.593	983.88
768.776	893.77
768.959	926.54
769.142	963.4
769.324	930.63
769.507	861
769.69	748.36
769.873	856.9
770.056	955.21
770.239	897.86
770.421	877.38
770.604	883.53
770.787	861
770.97	877.38
771.152	873.29
771.335	1002.31
771.518	820.04
771.7	809.8
771.883	877.38
772.066	803.66
772.248	781.13
772.431	795.47
772.613	846.66
772.796	824.14
772.978	768.84
773.161	801.61
773.343	709.45
773.526	822.09
773.708	758.6
773.891	803.66
774.073	795.47
774.256	779.08
774.438	861
774.621	772.94
774.803	680.78
774.985	820.04
775.168	787.27
775.35	705.35
775.532	725.83
775.715	680.78
775.897	676.68
776.079	779.08
776.261	725.83
776.444	707.4
776.626	731.98
776.808	715.59
776.99	617.29
777.173	715.59
777.355	682.83
777.537	742.22
777.719	697.16
777.901	664.4
778.083	607.05
778.265	697.16
778.447	627.53
778.629	574.28
778.811	623.44
778.993	625.48
779.175	682.83
779.357	691.02
779.539	592.72
779.721	562
779.903	656.2
780.085	625.48
780.267	596.81
780.449	656.2
780.631	576.33
780.812	510.8
780.994	586.57
781.176	562
781.358	586.57
781.54	529.23
781.721	559.95
781.903	516.94
782.085	578.38
782.267	549.71
782.448	551.76
782.63	465.74
782.812	459.6
782.993	562
783.175	525.13
783.357	488.27
783.538	478.03
783.72	500.56
783.901	508.75
784.083	521.04
784.264	467.79
784.446	461.65
784.627	484.17
784.809	463.69
784.99	418.64
785.172	496.46
785.353	478.03
785.535	488.27
785.716	516.94
785.897	381.78
786.079	494.41
786.26	469.84
786.441	496.46
786.623	486.22
786.804	471.89
786.985	428.88
787.167	432.97
787.348	424.78
787.529	498.51
787.71	467.79
787.891	365.39
788.073	414.54
788.254	398.16
788.435	314.19
788.616	320.34
788.797	377.68
788.978	492.37
789.159	410.45
789.34	410.45
789.522	373.58
789.703	389.97
789.884	377.68
790.065	439.12
790.246	377.68
790.427	365.39
790.607	365.39
790.788	338.77
790.969	277.33
791.15	426.83
791.331	340.82
791.512	330.58
791.693	373.58
791.874	312.14
792.054	389.97
792.235	369.49
792.416	373.58
792.597	324.43
792.778	346.96
792.958	287.57
793.139	361.3
793.32	320.34
793.5	303.95
793.681	361.3
793.862	406.35
794.042	336.72
794.223	267.09
794.404	351.06
794.584	320.34
794.765	273.23
794.945	295.76
795.126	287.57
795.306	306
795.487	312.14
795.667	287.57
795.848	271.19
796.028	281.43
796.209	265.04
796.389	258.9
796.57	353.1
796.75	312.14
796.93	299.86
797.111	291.66
797.291	250.71
797.471	271.19
797.652	248.66
797.832	265.04
798.012	303.95
798.192	265.04
798.373	262.99
798.553	222.03
798.733	172.88
798.913	193.36
799.093	232.27
799.274	234.32
799.454	328.53
799.634	289.62
799.814	226.13
799.994	240.47
800.174	228.18
800.354	265.04
800.534	246.61
800.714	224.08
800.894	230.23
801.074	189.27
801.254	291.66
801.434	238.42
801.614	287.57
801.794	207.7
801.974	797.51
802.154	287.57
802.334	191.31
802.514	82.77
802.693	148.31
802.873	238.42
803.053	222.03
803.233	176.98
803.413	230.23
803.592	195.41
803.772	246.61
803.952	213.84
804.131	189.27
804.311	213.84
804.491	246.61
804.67	105.3
804.85	217.94
805.03	281.43
805.209	248.66
805.389	187.22
805.568	238.42
805.748	262.99
805.928	168.79
806.107	267.09
806.287	197.46
806.466	181.07
806.646	168.79
806.825	156.5
807.004	262.99
807.184	144.21
807.363	189.27
807.543	164.69
807.722	201.55
807.901	222.03
808.081	230.23
808.26	136.02
808.439	181.07
808.619	162.64
808.798	215.89
808.977	187.22
809.156	213.84
809.336	129.88
809.515	189.27
809.694	109.4
809.873	209.75
810.052	125.78
810.231	191.31
810.411	197.46
810.59	222.03
810.769	166.74
810.948	164.69
811.127	240.47
811.306	146.26
811.485	146.26
811.664	183.12
811.843	90.96
812.022	191.31
812.201	82.77
812.38	133.97
812.559	168.79
812.737	164.69
812.916	90.96
813.095	111.44
813.274	80.72
813.453	152.4
813.632	78.68
813.811	283.47
813.989	123.73
814.168	121.68
814.347	86.87
814.526	115.54
814.704	111.44
814.883	158.55
815.062	164.69
815.24	138.07
815.419	131.92
815.598	140.12
815.776	148.31
815.955	144.21
816.133	86.87
816.312	107.35
816.49	115.54
816.669	148.31
816.847	88.92
817.026	185.17
817.204	148.31
817.383	148.31
817.561	103.25
817.74	189.27
817.918	131.92
818.097	123.73
818.275	133.97
818.453	111.44
818.632	164.69
818.81	136.02
818.988	111.44
819.167	117.59
819.345	105.3
819.523	117.59
819.701	123.73
819.879	123.73
820.058	140.12
820.236	197.46
820.414	113.49
820.592	76.63
820.77	56.15
820.948	140.12
821.127	152.4
821.305	133.97
821.483	93.01
821.661	101.2
821.839	136.02
822.017	197.46
822.195	66.39
822.373	138.07
822.551	107.35
822.729	156.5
822.907	111.44
823.085	160.59
823.262	191.31
823.44	86.87
823.618	199.51
823.796	58.2
823.974	41.81
824.152	41.81
824.329	127.83
824.507	58.2
824.685	131.92
824.863	136.02
825.04	74.58
825.218	80.72
825.396	80.72
825.574	115.54
825.751	123.73
825.929	76.63
826.107	41.81
826.284	142.16
826.462	64.34
826.639	17.24
826.817	21.33
826.994	115.54
827.172	52.05
827.349	164.69
827.527	103.25
827.704	121.68
827.882	154.45
828.059	117.59
828.237	103.25
828.414	107.35
828.591	74.58
828.769	37.72
828.946	76.63
829.124	121.68
829.301	172.88
829.478	181.07
829.655	74.58
829.833	105.3
830.01	54.1
830.187	54.1
830.364	-7.34
830.542	80.72
830.719	140.12
830.896	146.26
831.073	93.01
831.25	129.88
831.427	33.62
831.604	101.2
831.782	43.86
831.959	127.83
832.136	54.1
832.313	0.85
832.49	99.16
832.667	99.16
832.844	13.14
833.021	86.87
833.198	86.87
833.374	103.25
833.551	115.54
833.728	39.76
833.905	58.2
834.082	41.81
834.259	33.62
834.436	76.63
834.612	52.05
834.789	88.92
834.966	125.78
835.143	76.63
835.319	90.96
835.496	156.5
835.673	72.53
835.85	52.05
836.026	82.77
836.203	70.48
836.38	70.48
836.556	60.24
836.733	82.77
836.909	142.16
837.086	136.02
837.262	23.38
837.439	21.33
837.616	125.78
837.792	41.81
837.968	84.82
838.145	0.85
838.321	52.05
838.498	142.16
838.674	70.48
838.851	76.63
839.027	70.48
839.203	95.06
839.38	58.2
839.556	101.2
839.732	17.24
839.909	131.92
840.085	133.97
840.261	35.67
840.437	58.2
840.614	4.95
840.79	2.9
840.966	90.96
841.142	95.06
841.318	17.24
841.494	66.39
841.671	-3.24
841.847	62.29
842.023	-31.91
842.199	103.25
842.375	70.48
842.551	58.2
842.727	0.85
842.903	123.73
843.079	50
843.255	107.35
843.431	54.1
843.607	37.72
843.783	11.09
843.959	62.29
844.134	25.43
844.31	70.48
844.486	-17.58
844.662	90.96
844.838	17.24
845.013	113.49
845.189	115.54
845.365	43.86
845.541	-13.48
845.716	105.3
845.892	88.92
846.068	15.19
846.244	54.1
846.419	52.05
846.595	-7.34
846.77	50
846.946	76.63
847.122	74.58
847.297	58.2
847.473	97.11
847.648	-23.72
847.824	29.52
847.999	45.91
848.175	37.72
848.35	90.96
848.526	93.01
848.701	111.44
848.876	66.39
849.052	58.2
849.227	17.24
849.403	88.92
849.578	58.2
849.753	133.97
849.929	-5.29
850.104	11.09
850.279	41.81
850.454	50
850.63	25.43
850.805	41.81
850.98	43.86
851.155	21.33
851.33	105.3
851.505	66.39
851.681	54.1
851.856	-7.34
852.031	58.2
852.206	2.9
852.381	80.72
852.556	27.48
852.731	66.39
852.906	29.52
853.081	11.09
853.256	74.58
853.431	37.72
853.606	-5.29
853.781	-27.82
853.956	2.9
854.131	27.48
854.305	27.48
854.48	-13.48
854.655	27.48
854.83	-40.11
855.005	45.91
855.18	-5.29
855.354	68.44
855.529	82.77
855.704	2.9
855.879	37.72
856.053	13.14
856.228	60.24
856.403	54.1
856.577	37.72
856.752	52.05
856.926	64.34
857.101	-27.82
857.276	37.72
857.45	11.09
857.625	45.91
857.799	7
857.974	58.2
858.148	-7.34
858.323	4.95
858.497	37.72
858.672	-27.82
858.846	9.05
859.02	129.88
859.195	-7.34
859.369	11.09
859.543	25.43
859.718	25.43
859.892	-15.53
860.066	31.57
860.241	-48.3
860.415	11.09
860.589	-13.48
860.763	21.33
860.938	33.62
861.112	-38.06
861.286	68.44
861.46	17.24
861.634	41.81
861.808	78.68
861.982	64.34
862.157	52.05
862.331	9.05
862.505	-52.39
862.679	-15.53
862.853	88.92
863.027	37.72
863.201	80.72
863.375	-25.77
863.549	60.24
863.722	62.29
863.896	76.63
864.07	-31.91
864.244	35.67
864.418	33.62
864.592	9.05
864.766	-31.91
864.939	17.24
865.113	27.48
865.287	-23.72
865.461	13.14
865.634	70.48
865.808	50
865.982	50
866.156	-85.16
866.329	-15.53
866.503	17.24
866.676	17.24
866.85	-3.24
867.024	-48.3
867.197	-25.77
867.371	21.33
867.544	70.48
867.718	-79.02
867.891	19.29
868.065	-29.87
868.238	15.19
868.412	62.29
868.585	43.86
868.759	-23.72
868.932	-3.24
869.105	72.53
869.279	25.43
869.452	-38.06
869.625	-15.53
869.799	105.3
869.972	15.19
870.145	76.63
870.319	17.24
870.492	33.62
870.665	0.85
870.838	2.9
871.011	-21.67
871.185	-29.87
871.358	0.85
871.531	-56.49
871.704	-7.34
871.877	-11.43
872.05	9.05
872.223	-3.24
872.396	-15.53
872.569	29.52
872.742	-46.25
872.915	37.72
873.088	52.05
873.261	43.86
873.434	52.05
873.607	31.57
873.78	7
873.953	25.43
874.126	-44.2
874.299	2.9
874.471	-31.91
874.644	31.57
874.817	52.05
874.99	41.81
875.163	17.24
875.335	52.05
875.508	-3.24
875.681	33.62
875.853	-36.01
876.026	0.85
876.199	41.81
876.371	31.57
876.544	27.48
876.717	21.33
876.889	-44.2
877.062	45.91
877.234	62.29
877.407	41.81
877.579	58.2
877.752	9.05
877.924	-5.29
878.097	62.29
878.269	0.85
878.442	13.14
878.614	41.81
878.786	37.72
878.959	56.15
879.131	27.48
879.303	13.14
879.476	9.05
879.648	21.33
879.82	74.58
879.993	-40.11
880.165	0.85
880.337	-23.72
880.509	-72.87
880.681	-40.11
880.854	-46.25
881.026	37.72
881.198	74.58
881.37	-3.24
881.542	19.29
881.714	-9.39
881.886	4.95
882.058	21.33
882.23	-15.53
882.402	-46.25
882.574	41.81
882.746	13.14
882.918	15.19
883.09	11.09
883.262	11.09
883.434	2.9
883.606	-70.83
883.778	-31.91
883.95	45.91
884.122	37.72
884.293	93.01
884.465	29.52
884.637	17.24
884.809	4.95
884.98	-23.72
885.152	-44.2
885.324	-1.19
885.496	15.19
885.667	58.2
885.839	19.29
886.011	86.87
886.182	68.44
886.354	66.39
886.525	-9.39
886.697	-5.29
886.869	35.67
887.04	19.29
887.212	-7.34
887.383	-60.59
887.555	-3.24
887.726	-31.91
887.897	-66.73
888.069	-3.24
888.24	56.15
888.412	-25.77
888.583	33.62
888.754	-38.06
888.926	-7.34
889.097	-23.72
889.268	-7.34
889.44	123.73
889.611	-25.77
889.782	-13.48
889.953	-70.83
890.125	74.58
890.296	0.85
890.467	-27.82
890.638	41.81
890.809	-5.29
890.98	-3.24
891.151	31.57
891.323	17.24
891.494	17.24
891.665	19.29
891.836	-60.59
892.007	-38.06
892.178	70.48
892.349	80.72
892.52	2.9
892.691	37.72
892.862	-40.11
893.032	-15.53
893.203	78.68
893.374	2.9
893.545	19.29
893.716	13.14
893.887	74.58
894.057	33.62
894.228	21.33
894.399	-56.49
894.57	35.67
894.74	-38.06
894.911	9.05
895.082	-11.43
895.253	-91.31
895.423	0.85
895.594	13.14
895.764	25.43
895.935	9.05
896.106	25.43
896.276	0.85
896.447	-13.48
896.617	17.24
896.788	-13.48
896.958	56.15
897.129	19.29
897.299	-36.01
897.47	27.48
897.64	115.54
897.81	37.72
897.981	33.62
898.151	-21.67
898.322	-76.97
898.492	9.05
898.662	7
898.832	-46.25
899.003	23.38
899.173	62.29
899.343	13.14
899.513	-113.83
