Data from USB4F104151__161__14-19-41-963.txt Node

Date: Thu Mar 13 14:19:41 EDT 2025
User: louis
Spectrometer: USB4F10415
Trigger mode: 4
Integration Time (sec): 2.000000E-2
Scans to average: 1
Electric dark correction enabled: true
Nonlinearity correction enabled: false
Boxcar width: 0
XAxis mode: Wavelengths
Number of Pixels in Spectrum: 3648
>>>>>Begin Spectral Data<<<<<
178.204	-60.42
178.424	-60.42
178.644	-60.42
178.864	-162.81
179.084	-105.47
179.304	-23.55
179.524	19.46
179.744	13.31
179.964	9.22
180.184	-11.26
180.404	-3.07
180.624	33.79
180.844	-23.55
181.064	-17.41
181.283	5.12
181.503	-25.6
181.723	23.55
181.943	-44.03
182.163	62.46
182.383	-41.98
182.602	19.46
182.822	87.04
183.042	60.42
183.262	82.94
183.482	-41.98
183.701	-41.98
183.921	78.85
184.141	-46.08
184.361	54.27
184.58	7.17
184.8	-1.02
185.02	-3.07
185.239	-41.98
185.459	-58.37
185.679	-11.26
185.898	-72.7
186.118	58.37
186.338	33.79
186.557	21.5
186.777	-15.36
186.997	52.22
187.216	13.31
187.436	21.5
187.655	7.17
187.875	66.56
188.095	-35.84
188.314	-29.7
188.534	23.55
188.753	1.02
188.973	50.18
189.192	107.52
189.412	33.79
189.631	29.7
189.851	78.85
190.07	44.03
190.29	-58.37
190.509	-33.79
190.729	48.13
190.948	99.33
191.168	84.99
191.387	21.5
191.607	-19.46
191.826	-13.31
192.045	39.94
192.265	-19.46
192.484	31.74
192.704	-37.89
192.923	70.65
193.142	95.23
193.362	-19.46
193.581	54.27
193.8	-9.22
194.02	62.46
194.239	17.41
194.458	52.22
194.678	-5.12
194.897	35.84
195.116	-44.03
195.335	13.31
195.555	13.31
195.774	64.51
195.993	54.27
196.212	82.94
196.432	19.46
196.651	41.98
196.87	-11.26
197.089	134.14
197.308	103.42
197.528	89.09
197.747	-19.46
197.966	70.65
198.185	66.56
198.404	25.6
198.623	33.79
198.842	78.85
199.062	9.22
199.281	87.04
199.5	64.51
199.719	35.84
199.938	7.17
200.157	76.8
200.376	5.12
200.595	95.23
200.814	93.18
201.033	3.07
201.252	23.55
201.471	80.89
201.69	54.27
201.909	58.37
202.128	23.55
202.347	-25.6
202.566	21.5
202.785	-27.65
203.004	-25.6
203.223	113.66
203.442	37.89
203.661	-1.02
203.879	54.27
204.098	89.09
204.317	-9.22
204.536	87.04
204.755	-5.12
204.974	-31.74
205.193	37.89
205.411	52.22
205.63	95.23
205.849	25.6
206.068	-3.07
206.287	5.12
206.505	50.18
206.724	-11.26
206.943	-19.46
207.162	13.31
207.381	-11.26
207.599	-7.17
207.818	-23.55
208.037	68.61
208.255	56.32
208.474	89.09
208.693	29.7
208.911	-1.02
209.13	-17.41
209.349	25.6
209.567	64.51
209.786	109.57
210.005	-19.46
210.223	39.94
210.442	-93.18
210.661	-33.79
210.879	-56.32
211.098	64.51
211.316	41.98
211.535	111.61
211.753	13.31
211.972	70.65
212.191	21.5
212.409	37.89
212.628	29.7
212.846	-15.36
213.065	31.74
213.283	54.27
213.502	91.13
213.72	17.41
213.938	-5.12
214.157	33.79
214.375	72.7
214.594	-9.22
214.812	7.17
215.031	13.31
215.249	-25.6
215.467	29.7
215.686	-35.84
215.904	130.05
216.122	39.94
216.341	17.41
216.559	39.94
216.778	17.41
216.996	-23.55
217.214	-62.46
217.432	78.85
217.651	54.27
217.869	50.18
218.087	54.27
218.306	-23.55
218.524	-17.41
218.742	-27.65
218.96	70.65
219.179	44.03
219.397	-1.02
219.615	13.31
219.833	37.89
220.051	-74.75
220.27	70.65
220.488	66.56
220.706	-1.02
220.924	-7.17
221.142	-33.79
221.36	58.37
221.578	60.42
221.796	66.56
222.015	95.23
222.233	21.5
222.451	-7.17
222.669	-7.17
222.887	23.55
223.105	-56.32
223.323	105.47
223.541	13.31
223.759	37.89
223.977	19.46
224.195	50.18
224.413	13.31
224.631	37.89
224.849	-1.02
225.067	146.43
225.285	1.02
225.503	5.12
225.721	-74.75
225.939	-3.07
226.157	37.89
226.375	87.04
226.592	13.31
226.81	39.94
227.028	-19.46
227.246	58.37
227.464	21.5
227.682	21.5
227.9	5.12
228.117	-44.03
228.335	-52.22
228.553	39.94
228.771	17.41
228.989	31.74
229.206	70.65
229.424	29.7
229.642	11.26
229.86	-13.31
230.077	-17.41
230.295	78.85
230.513	25.6
230.731	27.65
230.948	62.46
231.166	66.56
231.384	41.98
231.601	5.12
231.819	70.65
232.037	37.89
232.254	29.7
232.472	-23.55
232.689	13.31
232.907	113.66
233.125	-9.22
233.342	13.31
233.56	-11.26
233.777	15.36
233.995	-3.07
234.213	48.13
234.43	58.37
234.648	56.32
234.865	35.84
235.083	1.02
235.3	107.52
235.518	50.18
235.735	-11.26
235.953	62.46
236.17	9.22
236.388	39.94
236.605	13.31
236.822	29.7
237.04	82.94
237.257	62.46
237.475	-84.99
237.692	37.89
237.909	62.46
238.127	-44.03
238.344	7.17
238.562	-44.03
238.779	29.7
238.996	46.08
239.214	44.03
239.431	31.74
239.648	46.08
239.865	-23.55
240.083	-1.02
240.3	7.17
240.517	-3.07
240.735	21.5
240.952	58.37
241.169	66.56
241.386	-29.7
241.603	-19.46
241.821	13.31
242.038	-33.79
242.255	48.13
242.472	21.5
242.689	13.31
242.907	-11.26
243.124	-25.6
243.341	5.12
243.558	64.51
243.775	37.89
243.992	54.27
244.209	64.51
244.426	109.57
244.643	105.47
244.86	50.18
245.078	17.41
245.295	13.31
245.512	17.41
245.729	-25.6
245.946	70.65
246.163	-19.46
246.38	-9.22
246.597	17.41
246.814	-1.02
247.031	9.22
247.248	31.74
247.464	78.85
247.681	44.03
247.898	21.5
248.115	1.02
248.332	17.41
248.549	31.74
248.766	44.03
248.983	80.89
249.2	-19.46
249.417	46.08
249.633	64.51
249.85	31.74
250.067	35.84
250.284	17.41
250.501	13.31
250.717	17.41
250.934	31.74
251.151	46.08
251.368	64.51
251.585	-11.26
251.801	-31.74
252.018	-5.12
252.235	13.31
252.451	3.07
252.668	41.98
252.885	1.02
253.102	66.56
253.318	76.8
253.535	-1.02
253.752	-15.36
253.968	46.08
254.185	-64.51
254.401	21.5
254.618	-13.31
254.835	17.41
255.051	31.74
255.268	46.08
255.484	7.17
255.701	17.41
255.917	68.61
256.134	-1.02
256.351	-1.02
256.567	-5.12
256.784	9.22
257	-54.27
257.217	23.55
257.433	5.12
257.65	33.79
257.866	78.85
258.082	25.6
258.299	62.46
258.515	87.04
258.732	58.37
258.948	-15.36
259.165	70.65
259.381	31.74
259.597	119.81
259.814	29.7
260.03	17.41
260.246	-7.17
260.463	29.7
260.679	46.08
260.895	72.7
261.112	31.74
261.328	17.41
261.544	-23.55
261.761	84.99
261.977	13.31
262.193	-19.46
262.409	-27.65
262.626	70.65
262.842	35.84
263.058	27.65
263.274	91.13
263.49	64.51
263.707	95.23
263.923	13.31
264.139	72.7
264.355	-58.37
264.571	39.94
264.787	25.6
265.004	146.43
265.22	41.98
265.436	5.12
265.652	132.09
265.868	113.66
266.084	41.98
266.3	21.5
266.516	-13.31
266.732	99.33
266.948	33.79
267.164	13.31
267.38	62.46
267.596	87.04
267.812	142.33
268.028	15.36
268.244	-33.79
268.46	78.85
268.676	39.94
268.892	1.02
269.108	-64.51
269.324	5.12
269.54	3.07
269.756	62.46
269.972	29.7
270.188	31.74
270.403	72.7
270.619	17.41
270.835	48.13
271.051	103.42
271.267	41.98
271.483	29.7
271.698	66.56
271.914	-19.46
272.13	-21.5
272.346	68.61
272.562	58.37
272.777	-27.65
272.993	-19.46
273.209	13.31
273.425	31.74
273.64	-11.26
273.856	50.18
274.072	37.89
274.287	7.17
274.503	78.85
274.719	95.23
274.934	60.42
275.15	37.89
275.366	9.22
275.581	64.51
275.797	-46.08
276.012	-19.46
276.228	5.12
276.444	-3.07
276.659	41.98
276.875	-35.84
277.09	37.89
277.306	-15.36
277.521	95.23
277.737	-27.65
277.952	41.98
278.168	1.02
278.383	46.08
278.599	35.84
278.814	33.79
279.03	-7.17
279.245	105.47
279.461	87.04
279.676	54.27
279.892	64.51
280.107	29.7
280.322	5.12
280.538	46.08
280.753	-41.98
280.969	44.03
281.184	19.46
281.399	72.7
281.615	41.98
281.83	33.79
282.045	-29.7
282.26	111.61
282.476	82.94
282.691	48.13
282.906	25.6
283.122	21.5
283.337	23.55
283.552	70.65
283.767	70.65
283.983	-3.07
284.198	-9.22
284.413	62.46
284.628	33.79
284.843	84.99
285.058	15.36
285.274	31.74
285.489	-3.07
285.704	-15.36
285.919	11.26
286.134	46.08
286.349	50.18
286.564	87.04
286.779	72.7
286.995	62.46
287.21	11.26
287.425	48.13
287.64	46.08
287.855	48.13
288.07	-35.84
288.285	62.46
288.5	64.51
288.715	62.46
288.93	60.42
289.145	54.27
289.36	52.22
289.575	13.31
289.79	62.46
290.004	37.89
290.219	130.05
290.434	-7.17
290.649	44.03
290.864	46.08
291.079	54.27
291.294	62.46
291.509	103.42
291.724	48.13
291.938	-9.22
292.153	56.32
292.368	41.98
292.583	62.46
292.798	46.08
293.012	-35.84
293.227	-7.17
293.442	33.79
293.657	56.32
293.871	113.66
294.086	-15.36
294.301	56.32
294.516	62.46
294.73	46.08
294.945	62.46
295.16	1.02
295.374	58.37
295.589	7.17
295.804	-3.07
296.018	21.5
296.233	62.46
296.447	-1.02
296.662	41.98
296.877	60.42
297.091	46.08
297.306	-3.07
297.52	21.5
297.735	13.31
297.949	5.12
298.164	33.79
298.378	58.37
298.593	-39.94
298.807	9.22
299.022	91.13
299.236	95.23
299.451	-60.42
299.665	68.61
299.88	31.74
300.094	-11.26
300.309	46.08
300.523	128
300.737	46.08
300.952	64.51
301.166	13.31
301.381	37.89
301.595	50.18
301.809	-9.22
302.024	78.85
302.238	128
302.452	31.74
302.667	99.33
302.881	54.27
303.095	41.98
303.309	52.22
303.524	31.74
303.738	64.51
303.952	-52.22
304.166	121.85
304.381	48.13
304.595	35.84
304.809	-23.55
305.023	41.98
305.237	-9.22
305.452	39.94
305.666	113.66
305.88	95.23
306.094	-3.07
306.308	78.85
306.522	21.5
306.736	60.42
306.95	25.6
307.164	54.27
307.379	-35.84
307.593	70.65
307.807	23.55
308.021	-19.46
308.235	-27.65
308.449	11.26
308.663	-41.98
308.877	89.09
309.091	54.27
309.305	74.75
309.519	25.6
309.733	35.84
309.947	13.31
310.161	111.61
310.374	17.41
310.588	78.85
310.802	-41.98
311.016	15.36
311.23	21.5
311.444	19.46
311.658	-9.22
311.872	99.33
312.085	52.22
312.299	128
312.513	56.32
312.727	72.7
312.941	25.6
313.154	19.46
313.368	13.31
313.582	56.32
313.796	46.08
314.009	9.22
314.223	19.46
314.437	52.22
314.651	41.98
314.864	44.03
315.078	29.7
315.292	-15.36
315.505	19.46
315.719	54.27
315.933	17.41
316.146	-3.07
316.36	37.89
316.573	-1.02
316.787	-17.41
317.001	95.23
317.214	-7.17
317.428	48.13
317.641	70.65
317.855	31.74
318.068	23.55
318.282	64.51
318.495	87.04
318.709	115.71
318.922	15.36
319.136	70.65
319.349	33.79
319.563	-9.22
319.776	7.17
319.99	76.8
320.203	33.79
320.417	-84.99
320.63	78.85
320.843	111.61
321.057	66.56
321.27	-27.65
321.483	29.7
321.697	74.75
321.91	39.94
322.124	95.23
322.337	35.84
322.55	21.5
322.763	99.33
322.977	37.89
323.19	3.07
323.403	44.03
323.617	31.74
323.83	78.85
324.043	56.32
324.256	39.94
324.469	46.08
324.683	54.27
324.896	-52.22
325.109	21.5
325.322	-1.02
325.535	13.31
325.748	89.09
325.962	-17.41
326.175	-19.46
326.388	-11.26
326.601	41.98
326.814	29.7
327.027	50.18
327.24	54.27
327.453	41.98
327.666	91.13
327.879	-7.17
328.092	37.89
328.305	70.65
328.518	31.74
328.731	-62.46
328.944	46.08
329.157	48.13
329.37	-3.07
329.583	56.32
329.796	31.74
330.009	-66.56
330.222	46.08
330.435	87.04
330.648	54.27
330.861	54.27
331.073	87.04
331.286	29.7
331.499	70.65
331.712	15.36
331.925	21.5
332.138	-41.98
332.35	64.51
332.563	74.75
332.776	39.94
332.989	7.17
333.202	48.13
333.414	66.56
333.627	41.98
333.84	195.58
334.053	31.74
334.265	87.04
334.478	7.17
334.691	41.98
334.903	76.8
335.116	31.74
335.329	19.46
335.541	87.04
335.754	95.23
335.966	25.6
336.179	80.89
336.392	41.98
336.604	87.04
336.817	50.18
337.029	93.18
337.242	7.17
337.454	121.85
337.667	121.85
337.88	66.56
338.092	48.13
338.305	37.89
338.517	-31.74
338.729	78.85
338.942	62.46
339.154	54.27
339.367	56.32
339.579	37.89
339.792	37.89
340.004	13.31
340.217	-11.26
340.429	72.7
340.641	-19.46
340.854	48.13
341.066	50.18
341.278	76.8
341.491	105.47
341.703	60.42
341.915	13.31
342.128	87.04
342.34	54.27
342.552	48.13
342.764	54.27
342.977	37.89
343.189	58.37
343.401	19.46
343.613	29.7
343.826	56.32
344.038	31.74
344.25	46.08
344.462	-7.17
344.674	13.31
344.886	74.75
345.099	89.09
345.311	68.61
345.523	23.55
345.735	-1.02
345.947	48.13
346.159	-11.26
346.371	37.89
346.583	33.79
346.795	121.85
347.007	70.65
347.219	29.7
347.431	64.51
347.643	56.32
347.855	29.7
348.067	82.94
348.279	17.41
348.491	-3.07
348.703	17.41
348.915	66.56
349.127	48.13
349.339	27.65
349.551	-23.55
349.763	152.57
349.975	41.98
350.187	76.8
350.399	115.71
350.61	-23.55
350.822	37.89
351.034	13.31
351.246	99.33
351.458	46.08
351.669	58.37
351.881	107.52
352.093	23.55
352.305	60.42
352.517	46.08
352.728	84.99
352.94	107.52
353.152	70.65
353.363	74.75
353.575	97.28
353.787	52.22
353.999	-11.26
354.21	9.22
354.422	87.04
354.633	7.17
354.845	46.08
355.057	23.55
355.268	74.75
355.48	54.27
355.692	27.65
355.903	17.41
356.115	19.46
356.326	-39.94
356.538	123.9
356.749	56.32
356.961	136.19
357.172	-3.07
357.384	39.94
357.595	62.46
357.807	128
358.018	29.7
358.23	37.89
358.441	78.85
358.653	-23.55
358.864	74.75
359.075	35.84
359.287	64.51
359.498	50.18
359.709	103.42
359.921	82.94
360.132	33.79
360.344	68.61
360.555	33.79
360.766	168.96
360.977	50.18
361.189	64.51
361.4	101.37
361.611	146.43
361.823	162.81
362.034	29.7
362.245	17.41
362.456	78.85
362.667	134.14
362.879	80.89
363.09	-19.46
363.301	48.13
363.512	-78.85
363.723	60.42
363.935	54.27
364.146	15.36
364.357	72.7
364.568	48.13
364.779	31.74
364.99	82.94
365.201	29.7
365.412	103.42
365.623	37.89
365.834	17.41
366.045	13.31
366.256	82.94
366.467	56.32
366.678	105.47
366.889	23.55
367.1	78.85
367.311	15.36
367.522	-7.17
367.733	41.98
367.944	46.08
368.155	103.42
368.366	89.09
368.577	103.42
368.788	33.79
368.999	17.41
369.209	33.79
369.42	64.51
369.631	144.38
369.842	25.6
370.053	74.75
370.264	31.74
370.474	46.08
370.685	68.61
370.896	64.51
371.107	54.27
371.317	66.56
371.528	17.41
371.739	130.05
371.95	56.32
372.16	76.8
372.371	72.7
372.582	23.55
372.792	87.04
373.003	99.33
373.214	70.65
373.424	119.81
373.635	-15.36
373.846	72.7
374.056	70.65
374.267	29.7
374.477	62.46
374.688	48.13
374.898	46.08
375.109	54.27
375.319	113.66
375.53	121.85
375.74	78.85
375.951	68.61
376.161	78.85
376.372	95.23
376.582	7.17
376.793	64.51
377.003	13.31
377.214	80.89
377.424	46.08
377.635	95.23
377.845	111.61
378.055	154.62
378.266	9.22
378.476	50.18
378.686	-7.17
378.897	78.85
379.107	130.05
379.317	64.51
379.528	48.13
379.738	111.61
379.948	5.12
380.158	72.7
380.369	70.65
380.579	70.65
380.789	103.42
380.999	62.46
381.21	95.23
381.42	130.05
381.63	62.46
381.84	3.07
382.05	44.03
382.261	48.13
382.471	78.85
382.681	132.09
382.891	29.7
383.101	21.5
383.311	56.32
383.521	70.65
383.731	66.56
383.941	179.2
384.151	64.51
384.361	60.42
384.571	109.57
384.781	56.32
384.991	97.28
385.201	37.89
385.411	89.09
385.621	56.32
385.831	103.42
386.041	31.74
386.251	111.61
386.461	119.81
386.671	39.94
386.881	119.81
387.091	54.27
387.301	89.09
387.511	70.65
387.72	144.38
387.93	89.09
388.14	54.27
388.35	-9.22
388.56	17.41
388.769	70.65
388.979	78.85
389.189	113.66
389.399	89.09
389.609	78.85
389.818	62.46
390.028	78.85
390.238	95.23
390.447	23.55
390.657	21.5
390.867	41.98
391.076	87.04
391.286	-3.07
391.496	109.57
391.705	21.5
391.915	97.28
392.125	134.14
392.334	115.71
392.544	119.81
392.753	119.81
392.963	-7.17
393.172	68.61
393.382	78.85
393.591	113.66
393.801	46.08
394.01	148.48
394.22	50.18
394.429	140.29
394.639	87.04
394.848	99.33
395.058	39.94
395.267	183.29
395.477	148.48
395.686	123.9
395.895	93.18
396.105	119.81
396.314	84.99
396.524	123.9
396.733	66.56
396.942	140.29
397.152	95.23
397.361	168.96
397.57	148.48
397.78	95.23
397.989	111.61
398.198	119.81
398.407	93.18
398.617	158.72
398.826	97.28
399.035	183.29
399.244	152.57
399.453	58.37
399.663	216.06
399.872	91.13
400.081	168.96
400.29	134.14
400.499	68.61
400.708	209.92
400.917	128
401.127	125.95
401.336	146.43
401.545	193.53
401.754	130.05
401.963	193.53
402.172	152.57
402.381	95.23
402.59	152.57
402.799	168.96
403.008	244.73
403.217	162.81
403.426	125.95
403.635	72.7
403.844	138.24
404.053	177.15
404.262	211.96
404.471	267.26
404.68	97.28
404.888	189.44
405.097	248.83
405.306	234.49
405.515	261.12
405.724	220.16
405.933	226.3
406.142	179.2
406.35	254.97
406.559	185.34
406.768	300.03
406.977	222.2
407.185	267.26
407.394	238.59
407.603	293.88
407.812	279.55
408.02	308.22
408.229	334.84
408.438	234.49
408.646	283.64
408.855	332.79
409.064	394.23
409.272	408.57
409.481	322.56
409.69	383.99
409.898	474.1
410.107	443.39
410.315	455.67
410.524	400.38
410.733	414.71
410.941	457.72
411.15	578.55
411.358	515.06
411.567	537.59
411.775	592.89
411.984	539.64
412.192	613.37
412.401	635.89
412.609	596.98
412.818	734.2
413.026	668.66
413.234	750.58
413.443	713.72
413.651	709.62
413.86	789.49
414.068	824.31
414.276	840.69
414.485	881.65
414.693	910.32
414.901	1065.97
415.11	988.14
415.318	1098.74
415.526	1080.3
415.734	1131.5
415.943	1133.55
416.151	1063.92
416.359	1188.85
416.567	1199.09
416.776	1223.66
416.984	1367.02
417.192	1397.74
417.4	1407.98
417.608	1340.4
417.817	1502.19
418.025	1520.62
418.233	1616.87
418.441	1612.78
418.649	1559.53
418.857	1852.39
419.065	1934.31
419.273	1702.89
419.481	1872.87
419.689	2003.94
419.897	2196.45
420.105	1944.55
420.313	2206.69
420.521	2348
420.729	2325.47
420.937	2333.66
421.145	2421.72
421.353	2528.22
421.561	2687.96
421.769	2718.68
421.977	2923.48
422.185	2833.36
422.393	2978.77
422.601	3128.27
422.809	3228.62
423.017	3179.47
423.224	3353.55
423.432	3537.87
423.64	3552.2
423.848	3857.35
424.056	3650.5
424.263	3980.23
424.471	3988.42
424.679	4051.91
424.887	4314.05
425.094	4420.54
425.302	4518.84
425.51	4692.92
425.718	4854.71
425.925	4764.6
426.133	5039.03
426.341	5239.73
426.548	5469.1
426.756	5424.05
426.964	5780.39
427.171	5972.9
427.379	6202.27
427.586	6050.72
427.794	6292.38
428.001	6583.2
428.209	6697.88
428.417	6861.72
428.624	7281.55
428.832	7130
429.039	7283.6
429.247	7121.81
429.454	7902.09
429.662	8237.95
429.869	7766.92
430.076	8334.21
430.284	8188.8
430.491	8616.83
430.699	9065.33
430.906	9089.91
431.114	9087.86
431.321	9450.35
431.528	9853.8
431.736	10165.09
431.943	10931.03
432.15	10292.07
432.358	10533.73
432.565	11289.43
432.772	11000.66
432.979	11637.58
433.187	11778.89
433.394	11854.67
433.601	12680
433.808	12673.85
434.016	12780.35
434.223	13118.26
434.43	13816.62
434.637	13607.73
434.844	14521.12
435.052	14768.93
435.259	14764.83
435.466	14869.28
435.673	14660.38
435.88	15733.52
436.087	16184.07
436.294	16532.23
436.501	15866.64
436.708	16415.49
436.915	16933.63
437.122	17537.78
437.329	17677.04
437.537	18012.91
437.743	18336.49
437.95	18297.58
438.157	19288.79
438.364	19925.71
438.571	19813.07
438.778	20089.55
438.985	22172.33
439.192	20869.83
439.399	21852.85
439.606	21154.49
439.813	22422.19
440.02	23730.84
440.227	23208.61
440.433	22903.46
440.64	23722.65
440.847	23769.75
441.054	24380.04
441.261	25625.21
441.467	25492.09
441.674	25676.41
441.881	26831.46
442.088	26751.59
442.294	26557.03
442.501	27406.94
442.708	27785.82
442.914	28699.21
443.121	30102.07
443.328	29006.41
443.534	31289.89
443.741	30155.32
443.948	30167.6
444.154	32029.21
444.361	31834.65
444.568	32315.92
444.774	32217.62
444.981	32705.04
445.187	33268.23
445.394	34681.33
445.6	34189.81
445.807	37536.2
446.013	35936.73
446.22	36784.59
446.426	37695.94
446.633	38410.68
446.839	39653.79
447.046	37923.26
447.252	39748
447.459	40210.84
447.665	39782.82
447.871	42140.03
448.078	43006.32
448.284	40989.07
448.491	42326.39
448.697	44073.31
448.903	44628.31
449.11	44855.64
449.316	44263.77
449.522	44837.2
449.728	45715.78
449.935	46430.52
450.141	46258.49
450.347	47536.43
450.553	45764.93
450.76	46412.09
450.966	47864.1
451.172	47474.99
451.378	48613.66
451.584	47520.04
451.791	49199.38
451.997	48640.28
452.203	49412.37
452.409	49121.55
452.615	49332.5
452.821	47446.32
453.027	46897.46
453.233	49309.97
453.44	47487.28
453.646	47802.66
453.852	48275.74
454.058	48425.25
454.264	47554.86
454.47	48490.78
454.676	47612.2
454.882	48720.15
455.088	44695.89
455.294	45754.69
455.5	46262.59
455.705	46803.25
455.911	44820.82
456.117	44149.09
456.323	43239.79
456.529	41234.83
456.735	42897.78
456.941	41707.91
457.147	41212.3
457.352	39801.25
457.558	39694.75
457.764	39618.98
457.97	39018.92
458.176	38295.99
458.381	37994.94
458.587	35926.49
458.793	36078.04
458.999	34597.36
459.204	37046.73
459.41	35553.76
459.616	33245.7
459.821	33538.56
460.027	33536.51
460.233	32893.45
460.438	30915.11
460.644	31599.13
460.85	30214.71
461.055	29479.49
461.261	29825.59
461.466	27130.47
461.672	26471.02
461.878	28836.42
462.083	26563.18
462.289	26151.54
462.494	25854.58
462.7	24916.61
462.905	23677.59
463.111	24656.52
463.316	25119.36
463.522	24562.31
463.727	24461.96
463.932	24248.97
464.138	24173.2
464.343	24089.23
464.549	23306.91
464.754	24470.15
464.959	24152.72
465.165	23669.4
465.37	22616.74
465.575	22413.99
465.781	23437.98
465.986	23470.75
466.191	22508.2
466.397	22162.09
466.602	21166.78
466.807	21660.34
467.012	21813.94
467.218	21467.83
467.423	21637.81
467.628	21234.36
467.833	22581.93
468.038	21516.98
468.244	20945.6
468.449	21942.96
468.654	21168.83
468.859	20869.83
469.064	20792
469.269	19985.1
469.474	19997.39
469.679	20417.22
469.885	20048.59
470.09	20105.93
470.295	20148.94
470.5	19532.5
470.705	19761.87
470.91	19102.43
471.115	19063.52
471.32	19114.72
471.525	19057.37
471.73	18535.14
471.935	18526.95
472.139	18051.82
472.344	18322.15
472.549	18457.32
472.754	17943.28
472.959	17371.89
473.164	17113.85
473.369	16964.35
473.574	17427.19
473.778	17122.04
473.983	17081.08
474.188	16894.72
474.393	16306.95
474.598	16499.46
474.802	16163.59
475.007	16202.5
475.212	16323.33
475.417	15670.03
475.621	15489.81
475.826	15692.56
476.031	15313.69
476.235	14844.7
476.44	15180.57
476.645	14877.47
476.849	15037.21
477.054	15022.87
477.259	14777.12
477.463	14668.58
477.668	13959.98
477.872	14181.16
478.077	14076.71
478.282	13665.07
478.486	13712.17
478.691	13781.81
478.895	13843.24
479.1	13730.61
479.304	13413.17
479.509	13368.12
479.713	13333.3
479.918	13235
480.122	12935.99
480.326	13204.28
480.531	13249.33
480.735	12862.27
480.94	12772.16
481.144	13161.27
481.348	12350.28
481.553	12800.83
481.757	12270.4
481.961	12669.76
482.166	12831.55
482.37	12641.09
482.574	12356.42
482.778	12499.78
482.983	12942.14
483.187	12489.54
483.391	12583.74
483.595	12456.77
483.8	12309.32
484.004	12448.58
484.208	12745.53
484.412	12428.1
484.616	12503.87
484.821	12292.93
485.025	12186.44
485.229	12442.43
485.433	12405.57
485.637	12348.23
485.841	12163.91
486.045	12219.21
486.249	12393.28
486.453	12231.49
486.657	12487.49
486.861	12350.28
487.065	12073.8
487.269	12534.59
487.473	12299.08
487.677	12487.49
487.881	12383.04
488.085	12335.94
488.289	12327.75
488.493	12088.14
488.697	12448.58
488.901	12448.58
489.105	12215.11
489.309	12591.94
489.512	12487.49
489.716	12538.69
489.92	12464.96
490.124	12487.49
490.328	12868.41
490.531	12596.03
490.735	12843.84
490.939	12784.44
491.143	12501.83
491.346	12901.18
491.55	12897.08
491.754	12829.5
491.958	12895.04
492.161	12806.97
492.365	12956.47
492.569	12972.86
492.772	13077.3
492.976	13075.26
493.18	12999.48
493.383	13298.49
493.587	13374.26
493.79	13521.71
493.994	13194.04
494.197	13505.33
494.401	13513.52
494.605	13605.68
494.808	13851.44
495.012	13904.68
495.215	13800.24
495.419	14041.9
495.622	13927.21
495.825	14332.71
496.029	14312.23
496.232	14646.05
496.436	14406.44
496.639	14893.85
496.843	14826.27
497.046	15215.38
497.249	15043.35
497.453	15207.19
497.656	15344.41
497.859	15291.16
498.063	15696.66
498.266	15938.32
498.469	15840.01
498.673	16163.59
498.876	16118.54
499.079	16483.08
499.282	16075.53
499.485	16841.47
499.689	16986.88
499.892	16966.4
500.095	17099.52
500.298	17484.53
500.501	17380.09
500.705	17844.98
500.908	17947.37
501.111	18123.5
501.314	18211.56
501.517	18273
501.72	18731.75
501.923	18467.56
502.126	19315.42
502.329	19067.61
502.532	19501.78
502.735	19569.37
502.938	19958.48
503.141	19790.55
503.344	20179.66
503.547	19958.48
503.75	20409.03
503.953	20890.31
504.156	21119.68
504.359	21115.58
504.562	21336.76
504.765	21598.9
504.968	21729.97
505.17	22266.54
505.373	22061.74
505.576	22473.39
505.779	22715.05
505.982	22786.72
506.185	23233.18
506.387	23394.97
506.59	23558.81
506.793	24107.66
506.996	23949.97
507.198	24896.13
507.401	24584.84
507.604	24644.23
507.807	25045.63
508.009	25260.67
508.212	25528.95
508.415	26110.58
508.617	26102.39
508.82	26380.91
509.022	26151.54
509.225	27159.14
509.428	26878.57
509.63	26995.3
509.833	27239.01
510.035	27890.26
510.238	28070.48
510.44	28207.7
510.643	28615.24
510.845	28609.1
511.048	28742.22
511.25	29553.21
511.453	29260.35
511.655	30507.57
511.858	30106.16
512.06	30276.15
512.262	31074.85
512.465	30515.76
512.667	31072.81
512.87	31490.59
513.072	31099.43
513.274	32164.37
513.477	32389.65
513.679	32459.28
513.881	33034.76
514.084	33212.93
514.286	33202.69
514.488	33296.9
514.69	34155
514.893	34544.11
515.095	34384.37
515.297	35293.67
515.499	34976.23
515.701	35303.91
515.904	35766.75
516.106	35873.24
516.308	36571.6
516.51	36395.48
516.712	36698.58
516.914	37157.32
517.116	37855.68
517.318	37722.56
517.52	37644.74
517.722	38367.67
517.925	38408.63
518.127	38699.44
518.329	39201.19
518.531	39209.39
518.733	39727.52
518.935	39905.7
519.136	40171.93
519.338	40925.58
519.54	40679.83
519.742	41380.23
519.944	41243.02
520.146	41480.58
520.348	42336.63
520.55	42156.41
520.752	42441.08
520.954	43125.1
521.155	42735.99
521.357	43813.22
521.559	43649.38
521.761	44259.68
521.963	43923.81
522.164	44478.81
522.366	44644.69
522.568	45044.05
522.77	45226.32
522.971	45928.77
523.173	45420.87
523.375	46174.53
523.576	45979.97
523.778	46293.31
523.98	46770.49
524.181	46917.94
524.383	46741.81
524.584	47200.56
524.786	47571.24
524.988	47282.48
525.189	48134.43
525.391	47696.17
525.592	48595.23
525.794	48552.22
525.995	48636.19
526.197	48623.9
526.398	48754.97
526.6	48949.53
526.801	49269.01
527.003	49277.2
527.204	49238.29
527.406	49623.31
527.607	49727.75
527.808	50067.72
528.01	49357.07
528.211	49926.41
528.412	50913.53
528.614	50493.69
528.815	50571.52
529.016	50868.47
529.218	50284.8
529.419	50686.2
529.62	50594.04
529.822	50735.35
530.023	50594.04
530.224	50737.4
530.425	50759.93
530.626	50628.86
530.828	50673.91
531.029	51517.68
531.23	51259.63
531.431	51003.64
531.632	51067.12
531.833	51372.27
532.035	51296.5
532.236	51529.97
532.437	51366.13
532.638	51177.72
532.839	51904.74
533.04	51366.13
533.241	51126.52
533.442	51681.52
533.643	51706.09
533.844	51669.23
534.045	51521.77
534.246	51407.09
534.447	51839.21
534.648	51722.47
534.849	51898.6
535.05	51159.28
535.251	51677.42
535.451	51448.05
535.652	51546.35
535.853	51640.56
536.054	51790.06
536.255	52044.01
536.456	51177.72
536.657	52519.13
536.857	51435.76
537.058	50981.11
537.259	52160.74
537.46	51560.69
537.66	51370.22
537.861	51593.45
538.062	51308.79
538.263	51888.36
538.463	51210.48
538.664	51456.24
538.865	51378.42
539.065	51527.92
539.266	51222.77
539.466	51704.04
539.667	51108.08
539.868	51783.91
540.068	51339.5
540.269	51503.34
540.469	51515.63
540.67	51020.02
540.87	50858.23
541.071	51605.74
541.271	51253.49
541.472	51198.19
541.672	50870.52
541.873	50866.42
542.073	50592
542.274	51468.53
542.474	51187.95
542.675	50688.25
542.875	51413.23
543.075	51060.98
543.276	50567.42
543.476	51556.59
543.676	50907.38
543.877	51101.94
544.077	50530.56
544.277	50802.94
544.478	51118.32
544.678	50825.46
544.878	50710.78
545.078	51001.59
545.279	50479.36
545.479	50497.79
545.679	51044.6
545.879	50512.13
546.079	50772.22
546.28	50895.1
546.48	50544.89
546.68	50723.07
546.88	50710.78
547.08	50505.98
547.28	50856.18
547.48	50080
547.68	50518.27
547.88	50196.74
548.081	50772.22
548.281	50237.7
548.481	50225.41
548.681	51048.69
548.881	50655.48
549.081	50520.32
549.28	50395.39
549.48	50505.98
549.68	50161.92
549.88	50931.96
550.08	50348.29
550.28	50456.83
550.48	50131.2
550.68	50358.53
550.88	50321.66
551.08	50170.11
551.279	50346.24
551.479	49514.76
551.679	50067.72
551.879	49875.21
552.079	50385.15
552.278	50055.43
552.478	50137.35
552.678	50170.11
552.878	50049.28
553.077	50204.93
553.277	49395.98
553.477	50258.18
553.676	49537.29
553.876	49797.38
554.076	49621.26
554.275	49359.12
554.475	49045.78
554.674	49737.99
554.874	49596.68
555.074	49209.62
555.273	49860.87
555.473	49668.36
555.672	49791.24
555.872	49412.37
556.071	49385.74
556.271	49260.82
556.47	48955.67
556.67	49017.11
556.869	49023.25
557.068	49117.46
557.268	49072.4
557.467	49101.07
557.667	49258.77
557.866	49031.44
558.065	48920.85
558.265	48687.39
558.464	48570.65
558.663	48970
558.863	48556.32
559.062	48994.58
559.261	47903.01
559.461	49182.99
559.66	48474.4
559.859	48478.49
560.058	48271.65
560.258	48398.62
560.457	48087.33
560.656	48802.07
560.855	47841.57
561.054	48224.54
561.253	47540.52
561.453	48089.38
561.652	48402.72
561.851	47827.24
562.05	47898.92
562.249	47647.02
562.448	47978.79
562.647	47898.92
562.846	47567.15
563.045	47843.62
563.244	47495.47
563.443	47794.47
563.642	47083.83
563.841	47286.57
564.04	47096.11
564.239	47898.92
564.438	46866.74
564.637	47292.72
564.836	47333.68
565.035	46889.27
565.234	46663.99
565.432	46614.84
565.631	46782.77
565.83	46598.46
566.029	45932.87
566.228	46483.77
566.427	46770.49
566.625	45996.35
566.824	45359.44
567.023	46223.68
567.222	45445.45
567.42	46281.02
567.619	45881.67
567.818	45697.35
568.016	45621.58
568.215	46084.42
568.414	45467.98
568.612	46029.12
568.811	45295.95
569.01	45660.49
569.208	44790.1
569.407	45254.99
569.605	44919.12
569.804	45220.17
570.002	44818.77
570.201	45226.32
570.4	44675.41
570.598	44697.94
570.797	44386.65
570.995	44749.14
571.193	44144.99
571.392	44855.64
571.59	44519.77
571.789	44278.11
571.987	43901.28
572.186	43991.39
572.384	43567.46
572.582	43815.27
572.781	43932
572.979	43649.38
573.177	43610.47
573.376	44112.22
573.574	43045.23
573.772	43331.95
573.971	43143.53
574.169	42969.46
574.367	43092.33
574.565	43168.11
574.763	42885.49
574.962	42613.11
575.16	42412.41
575.358	42707.32
575.556	42228.09
575.754	42899.83
575.952	41980.29
576.151	42566.01
576.349	42088.83
576.547	42090.88
576.745	42043.77
576.943	41812.35
577.141	41709.96
577.339	41752.96
577.537	41478.54
577.735	41386.38
577.933	41038.22
578.131	41322.89
578.329	40972.69
578.527	40913.3
578.725	41243.02
578.923	41066.89
579.121	41208.2
579.319	40853.9
579.516	40929.68
579.714	40896.91
579.912	40559
580.11	40280.47
580.308	40718.74
580.506	40253.85
580.704	39948.7
580.901	40591.76
581.099	40186.27
581.297	39645.6
581.495	39635.36
581.692	39692.71
581.89	39281.06
582.088	40047
582.285	39279.02
582.483	39444.9
582.681	39113.13
582.878	39088.56
583.076	38941.1
583.274	39063.98
583.471	38666.67
583.669	39018.92
583.866	38646.19
584.064	38807.98
584.262	38535.6
584.459	38513.08
584.657	38195.64
584.854	38685.11
585.052	37894.59
585.249	38355.38
585.447	38322.62
585.644	37628.35
585.841	37677.51
586.039	37812.67
586.236	37671.36
586.434	37554.63
586.631	37472.71
586.828	37355.97
587.026	37054.92
587.223	36930
587.42	36731.34
587.618	37317.06
587.815	36630.99
588.012	36768.21
588.21	36536.79
588.407	36946.38
588.604	36563.41
588.801	36110.81
588.999	36149.72
589.196	36026.84
589.393	35963.36
589.59	35842.53
589.787	35799.52
589.984	35494.37
590.182	35357.16
590.379	35637.73
590.576	35783.13
590.773	35609.06
590.97	35635.68
591.167	35215.85
591.364	34654.7
591.561	34685.42
591.758	34738.67
591.955	34689.52
592.152	34920.94
592.349	34580.98
592.546	34931.18
592.743	34677.23
592.94	34202.1
593.137	34511.35
593.334	34449.91
593.531	33704.45
593.727	34073.08
593.924	34030.07
594.121	33589.76
594.318	33835.52
594.515	33554.94
594.712	33708.54
594.908	33266.18
595.105	33733.12
595.302	32922.12
595.499	33427.97
595.696	33272.32
595.892	32561.68
596.089	33096.2
596.286	32588.3
596.482	32580.11
596.679	32784.91
596.876	32692.75
597.072	32322.07
597.269	32584.21
597.466	32115.22
597.662	32115.22
597.859	31939.1
598.055	32287.25
598.252	31666.72
598.448	31879.71
598.645	31711.77
598.841	31488.54
599.038	31912.47
599.234	31808.03
599.431	31230.5
599.627	31185.44
599.824	31279.65
600.02	30734.89
600.217	30939.69
600.413	30835.24
600.609	30593.58
600.806	30448.18
601.002	30829.1
601.198	30489.13
601.395	30368.3
601.591	30159.41
601.787	30523.95
601.984	30386.74
602.18	30538.29
602.376	29864.5
602.572	29772.35
602.769	29717.05
602.965	29665.85
603.161	29528.64
603.357	29344.32
603.553	29579.84
603.75	29624.89
603.946	29069.89
604.142	29348.42
604.338	28754.51
604.534	29149.76
604.73	28858.95
604.926	28883.53
605.122	28973.64
605.318	28619.34
605.514	28406.35
605.71	28459.6
605.906	28293.71
606.102	28631.63
606.298	28248.66
606.494	28338.77
606.69	28283.47
606.886	27890.26
607.082	27890.26
607.278	27939.41
607.474	27769.43
607.67	27947.61
607.866	27505.24
608.062	28195.41
608.257	27673.18
608.453	27656.79
608.649	27456.09
608.845	27271.78
609.041	27329.12
609.236	27384.41
609.432	27247.2
609.628	27071.07
609.824	27314.78
610.019	27306.59
610.215	27239.01
610.411	27390.56
610.606	27060.84
610.802	26983.01
610.998	26911.33
611.193	26952.29
611.389	26737.26
611.584	26798.7
611.78	26909.29
611.976	26722.92
612.171	26634.86
612.367	26661.48
612.562	26151.54
612.758	25920.12
612.953	26217.07
613.149	26286.7
613.344	26176.11
613.539	26722.92
613.735	26417.77
613.93	26129.01
614.126	26049.14
614.321	26124.91
614.517	26182.26
614.712	26010.23
614.907	26049.14
615.103	25981.56
615.298	25711.22
615.493	26006.13
615.688	25762.42
615.884	25940.6
616.079	25375.36
616.274	25371.26
616.47	25397.88
616.665	25754.23
616.86	25303.68
617.055	25358.97
617.25	25166.46
617.445	25537.15
617.641	24730.25
617.836	25449.08
618.031	24910.47
618.226	25320.06
618.421	24840.84
618.616	24982.15
618.811	24523.4
619.006	24924.8
619.201	24183.44
619.396	24650.38
619.591	24349.32
619.786	24627.85
619.981	23933.59
620.176	24113.81
620.371	23767.7
620.566	23610.01
620.761	23612.06
620.956	23857.81
621.151	23253.66
621.346	23442.07
621.541	23048.86
621.735	23499.42
621.93	22897.31
622.125	22889.12
622.32	22426.28
622.515	22672.04
622.709	22698.66
622.904	22520.49
623.099	22203.05
623.294	22264.49
623.488	22137.52
623.683	22424.23
623.878	21701.3
624.072	21871.28
624.267	22057.65
624.462	21476.02
624.656	21627.57
624.851	21768.88
625.046	21568.18
625.24	21394.11
625.435	21131.97
625.629	21121.73
625.824	20648.64
626.018	20669.12
626.213	20177.61
626.407	20574.92
626.602	20126.41
626.796	20132.56
626.991	20239.05
627.185	20155.08
627.38	20251.34
627.574	19757.78
627.768	19587.8
627.963	19514.07
628.157	19542.74
628.352	19796.69
628.546	19391.19
628.74	19321.56
628.935	19012.32
629.129	19206.87
629.323	18680.55
629.517	18653.92
629.712	18649.83
629.906	18954.97
630.1	18264.81
630.294	18815.71
630.489	18367.21
630.683	18506.47
630.877	18035.44
631.071	17928.94
631.265	18100.97
631.459	17986.29
631.653	17754.87
631.848	17853.17
632.042	17697.52
632.236	17654.51
632.43	17353.46
632.624	17511.16
632.818	17103.61
633.012	17171.19
633.206	17025.79
633.4	17079.04
633.594	16990.97
633.788	17025.79
633.982	16870.14
634.176	16651.01
634.369	16560.9
634.563	16464.64
634.757	16380.68
634.951	16507.65
635.145	16466.69
635.339	16220.94
635.533	16200.46
635.726	16425.73
635.92	15911.69
636.114	15749.9
636.308	15686.42
636.501	15723.28
636.695	15452.95
636.889	15495.96
637.083	15289.11
637.276	15282.97
637.47	15211.29
637.664	15029.02
637.857	15123.23
638.051	15145.75
638.244	15084.31
638.438	14930.72
638.632	14969.63
638.825	14701.34
639.019	14525.22
639.212	14582.56
639.406	14365.48
639.599	14263.08
639.793	14383.91
639.986	14281.51
640.18	14152.49
640.373	14226.21
640.567	14152.49
640.76	13802.29
640.954	13732.65
641.147	13853.48
641.34	13716.27
641.534	13701.93
641.727	13527.86
641.92	13421.36
642.114	13400.88
642.307	13335.35
642.5	13321.01
642.694	13060.92
642.887	13099.83
643.08	13187.89
643.273	13079.35
643.467	12876.6
643.66	12612.42
643.853	12895.04
644.046	12792.64
644.239	12735.29
644.432	12737.34
644.626	12626.75
644.819	12413.76
645.012	12440.39
645.205	12491.59
645.398	12419.91
645.591	12301.12
645.784	12153.67
645.977	11875.15
646.17	11942.73
646.363	12030.79
646.556	11944.78
646.749	11805.52
646.942	11885.39
647.135	11645.77
647.328	11490.13
647.521	11584.34
647.714	11498.32
647.907	11582.29
648.099	11553.62
648.292	11402.07
648.485	11391.83
648.678	11035.48
648.871	11215.7
649.064	11088.73
649.256	11021.14
649.449	11000.66
649.642	10967.9
649.835	10867.55
650.027	10875.74
650.22	10726.24
650.413	10943.32
650.605	10861.4
650.798	10656.61
650.991	10343.27
651.183	10359.65
651.376	10304.35
651.568	10382.18
651.761	10275.68
651.954	10306.4
652.146	10410.85
652.339	10109.8
652.531	10126.18
652.724	9995.11
652.916	10038.12
653.109	9997.16
653.301	10054.5
653.494	10019.69
653.686	9757.55
653.879	9861.99
654.071	9624.43
654.263	9634.67
654.456	9747.31
654.648	9651.05
654.84	9452.4
655.033	9476.98
655.225	9411.44
655.417	9296.75
655.61	9413.49
655.802	9411.44
655.994	9147.25
656.186	9323.38
656.379	9309.04
656.571	9282.42
656.763	8903.54
656.955	9051
657.148	8864.63
657.34	9046.9
657.532	8762.23
657.724	8883.06
657.916	8762.23
658.108	8795
658.3	8690.56
658.492	8721.27
658.684	8698.75
658.876	8520.57
659.068	8528.77
659.26	8352.64
659.452	8452.99
659.644	8452.99
659.836	8270.72
660.028	8395.65
660.22	8221.57
660.412	8262.53
660.604	8237.95
660.796	8186.76
660.988	8098.69
661.18	8037.25
661.372	7895.94
661.563	7867.27
661.755	7869.32
661.947	7916.42
662.139	7701.39
662.331	7803.78
662.522	7758.73
662.714	7654.28
662.906	7631.76
663.097	7488.4
663.289	7633.8
663.481	7646.09
663.673	7451.53
663.864	7404.43
664.056	7586.7
664.247	7418.77
664.439	7228.31
664.631	7353.23
664.822	7316.37
665.014	7295.89
665.205	7320.46
665.397	7119.76
665.588	7134.1
665.78	6986.65
665.971	6917.01
666.163	7164.82
666.354	6986.65
666.546	6837.14
666.737	6919.06
666.929	6900.63
667.12	6972.31
667.311	6871.96
667.503	6806.42
667.694	6917.01
667.885	6618.01
668.077	6648.73
668.268	6564.76
668.459	6575
668.651	6675.35
668.842	6597.53
669.033	6462.37
669.224	6581.15
669.416	6353.82
669.607	6534.04
669.798	6437.79
669.989	6343.58
670.18	6472.61
670.371	6329.25
670.563	6075.3
670.754	6181.79
670.945	6239.14
671.136	6157.22
671.327	6200.23
671.518	6181.79
671.709	6192.03
671.9	6165.41
672.091	6028.2
672.282	5874.6
672.473	5936.04
672.664	6083.49
672.855	5886.89
673.046	5792.68
673.237	6091.68
673.428	5989.28
673.619	5886.89
673.809	5659.56
674	5833.64
674.191	5874.6
674.382	5796.78
674.573	5714.86
674.764	5659.56
674.954	5723.05
675.145	5616.55
675.336	5694.38
675.527	5600.17
675.717	5647.27
675.908	5630.89
676.099	5503.92
676.289	5495.72
676.48	5401.52
676.671	5456.81
676.861	5362.61
677.052	5329.84
677.243	5434.29
677.433	5329.84
677.624	5295.02
677.814	5272.5
678.005	5303.22
678.195	5413.81
678.386	5241.78
678.576	5323.69
678.767	5206.96
678.957	5079.99
679.148	5241.78
679.338	5264.3
679.529	5018.55
679.719	5069.75
679.909	5051.31
680.1	5159.86
680.29	5065.65
680.481	5057.46
680.671	5045.17
680.861	4983.73
681.052	4912.05
681.242	5141.43
681.432	5055.41
681.622	5067.7
681.813	4924.34
682.003	4920.24
682.193	4729.78
682.383	4854.71
682.573	5002.16
682.764	4955.06
682.954	4778.94
683.144	4918.2
683.334	4727.74
683.524	4840.37
683.714	4766.65
683.904	4713.4
684.094	4795.32
684.284	4469.69
684.474	4842.42
684.664	4606.91
684.854	4699.06
685.044	4658.1
685.234	4643.77
685.424	4576.19
685.614	4469.69
685.804	4506.56
685.994	4674.49
686.184	4484.03
686.374	4584.38
686.564	4551.61
686.753	4596.67
686.943	4543.42
687.133	4430.78
687.323	4373.44
687.513	4385.73
687.702	4498.36
687.892	4328.38
688.082	4395.96
688.272	4445.12
688.461	4348.86
688.651	4207.55
688.841	4242.37
689.03	4254.66
689.22	4101.06
689.41	4094.91
689.599	4115.39
689.789	4180.93
689.979	4219.84
690.168	4230.08
690.358	4056
690.547	4035.52
690.737	4099.01
690.926	4109.25
691.116	3976.13
691.305	4010.95
691.495	4010.95
691.684	4033.47
691.874	4025.28
692.063	3986.37
692.252	3976.13
692.442	3834.82
692.631	3972.04
692.82	3996.61
693.01	3744.71
693.199	3863.49
693.388	3789.77
693.578	3806.15
693.767	3736.52
693.956	3836.87
694.146	3849.16
694.335	3742.66
694.524	3681.22
694.713	3734.47
694.902	3816.39
695.092	3695.56
695.281	3765.19
695.47	3593.16
695.659	3705.8
695.848	3634.12
696.037	3627.98
696.226	3681.22
696.415	3505.1
696.604	3607.5
696.793	3570.63
696.982	3541.96
697.171	3716.04
697.36	3447.76
697.549	3503.05
697.738	3595.21
697.927	3568.59
698.116	3509.19
698.305	3441.61
698.494	3458
698.683	3470.28
698.872	3417.04
699.061	3462.09
699.25	3455.95
699.438	3425.23
699.627	3464.14
699.816	3298.25
700.005	3474.38
700.193	3400.65
700.382	3480.52
700.571	3310.54
700.76	3367.88
700.948	3255.25
701.137	3339.21
701.326	3363.79
701.514	3355.6
701.703	3288.01
701.892	3335.12
702.08	3265.49
702.269	3318.73
702.457	3165.14
702.646	3154.9
702.834	3314.64
703.023	3115.98
703.212	3275.73
703.4	3206.1
703.589	3240.91
703.777	3191.76
703.965	3181.52
704.154	3193.81
704.342	3130.32
704.531	3013.59
704.719	3087.31
704.907	3120.08
705.096	3230.67
705.284	3120.08
705.472	3124.18
705.661	3101.65
705.849	3109.84
706.037	3066.83
706.226	3083.22
706.414	3165.14
706.602	3177.42
706.79	3009.49
706.979	2964.43
707.167	3095.5
707.355	3038.16
707.543	3097.55
707.731	3036.11
707.919	3134.42
708.107	2962.39
708.296	3054.55
708.484	2929.62
708.672	2950.1
708.86	2986.96
709.048	2931.67
709.236	2835.41
709.424	3009.49
709.612	3091.41
709.8	2839.51
709.988	2874.32
710.176	2855.89
710.364	2913.24
710.551	3029.97
710.739	2790.36
710.927	2941.91
711.115	2804.69
711.303	2939.86
711.491	2737.11
711.679	2896.85
711.866	2757.59
712.054	2810.84
712.242	2784.21
712.43	2929.62
712.617	2757.59
712.805	2739.16
712.993	2786.26
713.181	2751.45
713.368	2827.22
713.556	2788.31
713.744	2659.29
713.931	2712.53
714.119	2700.25
714.306	2751.45
714.494	2597.85
714.682	2700.25
714.869	2593.75
715.057	2616.28
715.244	2687.96
715.432	2819.03
715.619	2726.87
715.807	2692.05
715.994	2636.76
716.182	2612.18
716.369	2665.43
716.556	2601.94
716.744	2538.46
716.931	2747.35
717.119	2569.18
717.306	2554.84
717.493	2532.31
717.681	2659.29
717.868	2610.14
718.055	2659.29
718.242	2587.61
718.43	2577.37
718.617	2536.41
718.804	2683.86
718.991	2563.03
719.179	2644.95
719.366	2511.83
719.553	2622.42
719.74	2489.31
719.927	2479.07
720.114	2579.42
720.301	2520.03
720.488	2603.99
720.676	2444.25
720.863	2466.78
721.05	2450.39
721.237	2530.27
721.424	2491.35
721.611	2483.16
721.798	2350.04
721.985	2393.05
722.172	2274.27
722.358	2538.46
722.545	2462.68
722.732	2366.43
722.919	2479.07
723.106	2364.38
723.293	2419.68
723.48	2386.91
723.667	2331.61
723.853	2356.19
724.04	2409.44
724.227	2352.09
724.414	2335.71
724.6	2356.19
724.787	2368.48
724.974	2348
725.161	2345.95
725.347	2380.76
725.534	2331.61
725.72	2343.9
725.907	2407.39
726.094	2298.84
726.28	2225.12
726.467	2274.27
726.653	2298.84
726.84	2341.85
727.027	2354.14
727.213	2188.25
727.4	2319.32
727.586	2235.36
727.773	2376.67
727.959	2216.93
728.145	2276.32
728.332	2165.73
728.518	2192.35
728.705	2169.82
728.891	2251.74
729.077	2208.73
729.264	2245.6
729.45	2233.31
729.636	2227.17
729.823	2208.73
730.009	2274.27
730.195	2216.93
730.382	2345.95
730.568	2081.76
730.754	2184.16
730.94	2282.46
731.126	2186.21
731.313	2159.58
731.499	2137.06
731.685	2311.13
731.871	2081.76
732.057	2106.34
732.243	2188.25
732.429	2071.52
732.615	2110.43
732.801	2089.95
732.987	2061.28
733.173	2175.97
733.359	2112.48
733.545	1995.75
733.731	2094.05
733.917	2087.9
734.103	2073.57
734.289	2061.28
734.475	1977.31
734.661	2223.07
734.847	2071.52
735.033	2081.76
735.219	1991.65
735.404	2100.19
735.59	2071.52
735.776	2151.39
735.962	1997.79
736.148	2087.9
736.333	2079.71
736.519	2038.75
736.705	2046.94
736.89	2028.51
737.076	2053.09
737.262	1913.83
737.447	1995.75
737.633	2008.03
737.819	1985.51
738.004	1889.25
738.19	1979.36
738.375	2014.18
738.561	2020.32
738.747	1940.45
738.932	1938.4
739.118	1987.55
739.303	1737.7
739.489	2012.13
739.674	1891.3
739.859	1874.92
740.045	1917.92
740.23	1868.77
740.416	1813.48
740.601	1938.4
740.786	1948.64
740.972	1899.49
741.157	1987.55
741.342	1840.1
741.528	1833.96
741.713	1868.77
741.898	1784.8
742.084	1758.18
742.269	1889.25
742.454	1842.15
742.639	1919.97
742.824	1741.8
743.01	1840.1
743.195	1815.52
743.38	1655.78
743.565	1758.18
743.75	1774.56
743.935	1782.76
744.12	1807.33
744.305	1733.61
744.49	1700.84
744.675	1690.6
744.86	1616.87
745.045	1635.3
745.23	1684.45
745.415	1635.3
745.6	1620.97
745.785	1604.58
745.97	1704.93
746.155	1692.65
746.34	1629.16
746.525	1616.87
746.71	1569.77
746.895	1522.66
747.079	1639.4
747.264	1537
747.449	1537
747.634	1559.53
747.819	1547.24
748.003	1520.62
748.188	1504.23
748.373	1594.34
748.557	1518.57
748.742	1537
748.927	1565.67
749.111	1422.31
749.296	1430.51
749.481	1414.12
749.665	1498.09
749.85	1401.83
750.034	1467.37
750.219	1371.12
750.404	1381.35
750.588	1410.03
750.773	1362.92
750.957	1369.07
751.141	1401.83
751.326	1389.55
751.51	1291.24
751.695	1358.83
751.879	1338.35
752.064	1481.71
752.248	1235.95
752.432	1340.4
752.617	1350.64
752.801	1324.01
752.985	1276.91
753.17	1252.33
753.354	1242.09
753.538	1301.48
753.722	1225.71
753.907	1213.42
754.091	1248.24
754.275	1199.09
754.459	1223.66
754.643	1293.29
754.828	1252.33
755.012	1291.24
755.196	1168.37
755.38	1221.61
755.564	1176.56
755.748	1115.12
755.932	1121.26
756.116	1096.69
756.3	1086.45
756.484	1115.12
756.668	1145.84
756.852	1096.69
757.036	1137.65
757.22	1063.92
757.404	1004.53
757.588	1043.44
757.772	1143.79
757.956	1022.96
758.14	1055.73
758.323	1119.21
758.507	992.24
758.691	1041.39
758.875	982
759.059	1055.73
759.242	1072.11
759.426	1098.74
759.61	977.91
759.794	1004.53
759.977	1033.2
760.161	1088.5
760.345	1053.68
760.528	1020.91
760.712	1045.49
760.895	965.62
761.079	941.04
761.263	945.14
761.446	961.52
761.63	938.99
761.813	961.52
761.997	898.03
762.18	934.9
762.364	932.85
762.547	832.5
762.731	971.76
762.914	973.81
763.098	836.6
763.281	916.47
763.464	945.14
763.648	820.21
763.831	842.74
764.015	848.88
764.198	891.89
764.381	840.69
764.564	891.89
764.748	865.27
764.931	887.79
765.114	938.99
765.297	785.4
765.481	873.46
765.664	775.16
765.847	795.64
766.03	791.54
766.213	840.69
766.397	809.97
766.58	785.4
766.763	807.92
766.946	846.84
767.129	764.92
767.312	717.81
767.495	855.03
767.678	777.2
767.861	758.77
768.044	746.48
768.227	828.4
768.41	717.81
768.593	760.82
768.776	807.92
768.959	822.26
769.142	816.12
769.324	799.73
769.507	797.68
769.69	719.86
769.873	726
770.056	771.06
770.239	740.34
770.421	752.63
770.604	726
770.787	701.43
770.97	709.62
771.152	711.67
771.335	769.01
771.518	662.52
771.7	744.44
771.883	744.44
772.066	734.2
772.248	660.47
772.431	726
772.613	672.76
772.796	721.91
772.978	670.71
773.161	594.93
773.343	693.24
773.526	734.2
773.708	668.66
773.891	728.05
774.073	695.29
774.256	615.41
774.438	754.68
774.621	592.89
774.803	617.46
774.985	668.66
775.168	635.89
775.35	629.75
775.532	668.66
775.715	533.5
775.897	594.93
776.079	523.26
776.261	596.98
776.444	605.17
776.626	566.26
776.808	545.78
776.99	627.7
777.173	603.13
777.355	619.51
777.537	480.25
777.719	621.56
777.901	601.08
778.083	549.88
778.265	429.05
778.447	504.82
778.629	508.92
778.811	531.45
778.993	541.69
779.175	676.85
779.357	611.32
779.539	486.39
779.721	531.45
779.903	574.46
780.085	500.73
780.267	570.36
780.449	500.73
780.631	488.44
780.812	506.87
780.994	453.63
781.176	482.3
781.358	541.69
781.54	482.3
781.721	455.67
781.903	457.72
782.085	517.11
782.267	439.29
782.448	414.71
782.63	383.99
782.812	500.73
782.993	463.86
783.175	439.29
783.357	441.34
783.538	427
783.72	453.63
783.901	488.44
784.083	367.61
784.264	455.67
784.446	375.8
784.627	373.75
784.809	406.52
784.99	465.91
785.172	459.77
785.353	400.38
785.535	472.06
785.716	377.85
785.897	332.79
786.079	394.23
786.26	353.27
786.441	435.19
786.623	373.75
786.804	392.19
786.985	359.42
787.167	394.23
787.348	336.89
787.529	332.79
787.71	383.99
787.891	340.99
788.073	361.47
788.254	406.52
788.435	383.99
788.616	351.23
788.797	375.8
788.978	381.95
789.159	283.64
789.34	398.33
789.522	293.88
789.703	316.41
789.884	386.04
790.065	261.12
790.246	308.22
790.427	312.32
790.607	306.17
790.788	318.46
790.969	197.63
791.15	295.93
791.331	209.92
791.512	259.07
791.693	201.72
791.874	357.37
792.054	304.12
792.235	322.56
792.416	267.26
792.597	351.23
792.778	285.69
792.958	271.36
793.139	263.16
793.32	316.41
793.5	222.2
793.681	320.51
793.862	316.41
794.042	275.45
794.223	236.54
794.404	269.31
794.584	261.12
794.765	199.68
794.945	261.12
795.126	293.88
795.306	218.11
795.487	277.5
795.667	240.64
795.848	267.26
796.028	189.44
796.209	152.57
796.389	302.08
796.57	324.6
796.75	246.78
796.93	330.75
797.111	267.26
797.291	205.82
797.471	226.3
797.652	238.59
797.832	222.2
798.012	218.11
798.192	171.01
798.373	117.76
798.553	226.3
798.733	234.49
798.913	201.72
799.093	222.2
799.274	216.06
799.454	142.33
799.634	197.63
799.814	236.54
799.994	230.4
800.174	263.16
800.354	175.1
800.534	236.54
800.714	168.96
800.894	175.1
801.074	216.06
801.254	181.25
801.434	252.92
801.614	156.67
801.794	209.92
801.974	738.29
802.154	275.45
802.334	252.92
802.514	209.92
802.693	220.16
802.873	134.14
803.053	287.74
803.233	236.54
803.413	234.49
803.592	283.64
803.772	254.97
803.952	226.3
804.131	113.66
804.311	201.72
804.491	177.15
804.67	158.72
804.85	189.44
805.03	222.2
805.209	168.96
805.389	187.39
805.568	197.63
805.748	195.58
805.928	197.63
806.107	177.15
806.287	197.63
806.466	173.05
806.646	156.67
806.825	166.91
807.004	152.57
807.184	203.77
807.363	209.92
807.543	140.29
807.722	123.9
807.901	214.01
808.081	168.96
808.26	97.28
808.439	154.62
808.619	168.96
808.798	140.29
808.977	152.57
809.156	189.44
809.336	146.43
809.515	166.91
809.694	99.33
809.873	168.96
810.052	121.85
810.231	132.09
810.411	150.53
810.59	132.09
810.769	121.85
810.948	166.91
811.127	168.96
811.306	132.09
811.485	136.19
811.664	179.2
811.843	99.33
812.022	173.05
812.201	119.81
812.38	134.14
812.559	187.39
812.737	132.09
812.916	46.08
813.095	140.29
813.274	84.99
813.453	130.05
813.632	166.91
813.811	146.43
813.989	56.32
814.168	158.72
814.347	72.7
814.526	119.81
814.704	154.62
814.883	152.57
815.062	87.04
815.24	31.74
815.419	111.61
815.598	134.14
815.776	72.7
815.955	140.29
816.133	95.23
816.312	201.72
816.49	7.17
816.669	107.52
816.847	-44.03
817.026	128
817.204	74.75
817.383	123.9
817.561	44.03
817.74	138.24
817.918	33.79
818.097	13.31
818.275	93.18
818.453	130.05
818.632	201.72
818.81	134.14
818.988	95.23
819.167	72.7
819.345	103.42
819.523	113.66
819.701	148.48
819.879	173.05
820.058	37.89
820.236	175.1
820.414	144.38
820.592	50.18
820.77	144.38
820.948	113.66
821.127	41.98
821.305	103.42
821.483	107.52
821.661	148.48
821.839	144.38
822.017	99.33
822.195	117.76
822.373	134.14
822.551	175.1
822.729	142.33
822.907	93.18
823.085	62.46
823.262	31.74
823.44	97.28
823.618	82.94
823.796	164.86
823.974	97.28
824.152	99.33
824.329	37.89
824.507	103.42
824.685	119.81
824.863	97.28
825.04	87.04
825.218	99.33
825.396	58.37
825.574	119.81
825.751	46.08
825.929	97.28
826.107	101.37
826.284	115.71
826.462	105.47
826.639	13.31
826.817	25.6
826.994	46.08
827.172	27.65
827.349	105.47
827.527	70.65
827.704	66.56
827.882	70.65
828.059	70.65
828.237	21.5
828.414	68.61
828.591	41.98
828.769	7.17
828.946	97.28
829.124	64.51
829.301	46.08
829.478	54.27
829.655	136.19
829.833	37.89
830.01	62.46
830.187	115.71
830.364	68.61
830.542	66.56
830.719	101.37
830.896	89.09
831.073	97.28
831.25	87.04
831.427	48.13
831.604	97.28
831.782	19.46
831.959	41.98
832.136	54.27
832.313	-1.02
832.49	44.03
832.667	54.27
832.844	41.98
833.021	130.05
833.198	74.75
833.374	25.6
833.551	27.65
833.728	37.89
833.905	41.98
834.082	95.23
834.259	-1.02
834.436	107.52
834.612	25.6
834.789	168.96
834.966	97.28
835.143	146.43
835.319	1.02
835.496	87.04
835.673	103.42
835.85	48.13
836.026	132.09
836.203	97.28
836.38	23.55
836.556	97.28
836.733	9.22
836.909	87.04
837.086	37.89
837.262	44.03
837.439	78.85
837.616	56.32
837.792	5.12
837.968	39.94
838.145	46.08
838.321	46.08
838.498	89.09
838.674	80.89
838.851	74.75
839.027	-70.65
839.203	25.6
839.38	72.7
839.556	23.55
839.732	50.18
839.909	9.22
840.085	13.31
840.261	-9.22
840.437	37.89
840.614	33.79
840.79	101.37
840.966	15.36
841.142	62.46
841.318	17.41
841.494	72.7
841.671	128
841.847	-9.22
842.023	33.79
842.199	87.04
842.375	7.17
842.551	-15.36
842.727	17.41
842.903	54.27
843.079	-41.98
843.255	66.56
843.431	91.13
843.607	58.37
843.783	-35.84
843.959	80.89
844.134	-29.7
844.31	37.89
844.486	25.6
844.662	-19.46
844.838	5.12
845.013	-3.07
845.189	54.27
845.365	-1.02
845.541	-5.12
845.716	82.94
845.892	-27.65
846.068	70.65
846.244	5.12
846.419	74.75
846.595	-1.02
846.77	3.07
846.946	82.94
847.122	107.52
847.297	-7.17
847.473	89.09
847.648	21.5
847.824	152.57
847.999	31.74
848.175	27.65
848.35	27.65
848.526	111.61
848.701	46.08
848.876	37.89
849.052	87.04
849.227	29.7
849.403	87.04
849.578	15.36
849.753	95.23
849.929	13.31
850.104	-1.02
850.279	23.55
850.454	-1.02
850.63	80.89
850.805	37.89
850.98	48.13
851.155	54.27
851.33	62.46
851.505	17.41
851.681	33.79
851.856	39.94
852.031	46.08
852.206	54.27
852.381	-19.46
852.556	56.32
852.731	84.99
852.906	-48.13
853.081	99.33
853.256	39.94
853.431	29.7
853.606	29.7
853.781	44.03
853.956	3.07
854.131	33.79
854.305	-1.02
854.48	46.08
854.655	-1.02
854.83	-11.26
855.005	66.56
855.18	54.27
855.354	-19.46
855.529	39.94
855.704	25.6
855.879	5.12
856.053	21.5
856.228	-56.32
856.403	-17.41
856.577	37.89
856.752	37.89
856.926	5.12
857.101	7.17
857.276	70.65
857.45	-25.6
857.625	-31.74
857.799	-48.13
857.974	41.98
858.148	-19.46
858.323	-23.55
858.497	54.27
858.672	-9.22
858.846	62.46
859.02	62.46
859.195	-11.26
859.369	41.98
859.543	78.85
859.718	54.27
859.892	5.12
860.066	109.57
860.241	66.56
860.415	-15.36
860.589	27.65
860.763	-41.98
860.938	37.89
861.112	48.13
861.286	17.41
861.46	31.74
861.634	-17.41
861.808	37.89
861.982	-23.55
862.157	19.46
862.331	-3.07
862.505	-15.36
862.679	-11.26
862.853	-5.12
863.027	-39.94
863.201	64.51
863.375	-11.26
863.549	46.08
863.722	37.89
863.896	103.42
864.07	23.55
864.244	72.7
864.418	25.6
864.592	13.31
864.766	5.12
864.939	-9.22
865.113	-39.94
865.287	21.5
865.461	-9.22
865.634	-9.22
865.808	1.02
865.982	9.22
866.156	-17.41
866.329	13.31
866.503	-5.12
866.676	64.51
866.85	-5.12
867.024	21.5
867.197	39.94
867.371	23.55
867.544	72.7
867.718	25.6
867.891	-9.22
868.065	-23.55
868.238	15.36
868.412	-68.61
868.585	-13.31
868.759	-19.46
868.932	-3.07
869.105	19.46
869.279	1.02
869.452	21.5
869.625	13.31
869.799	13.31
869.972	-15.36
870.145	-44.03
870.319	9.22
870.492	29.7
870.665	62.46
870.838	-44.03
871.011	9.22
871.185	13.31
871.358	-3.07
871.531	-66.56
871.704	62.46
871.877	29.7
872.05	5.12
872.223	-11.26
872.396	-7.17
872.569	15.36
872.742	-35.84
872.915	50.18
873.088	-7.17
873.261	7.17
873.434	39.94
873.607	39.94
873.78	13.31
873.953	-7.17
874.126	29.7
874.299	50.18
874.471	21.5
874.644	-58.37
874.817	27.65
874.99	-17.41
875.163	-13.31
875.335	37.89
875.508	7.17
875.681	37.89
875.853	1.02
876.026	-9.22
876.199	48.13
876.371	29.7
876.544	-17.41
876.717	31.74
876.889	-23.55
877.062	78.85
877.234	-15.36
877.407	-29.7
877.579	99.33
877.752	37.89
877.924	48.13
878.097	-11.26
878.269	-19.46
878.442	-9.22
878.614	-17.41
878.786	46.08
878.959	-31.74
879.131	29.7
879.303	21.5
879.476	-7.17
879.648	56.32
879.82	13.31
879.993	33.79
880.165	-23.55
880.337	-35.84
880.509	29.7
880.681	25.6
880.854	39.94
881.026	-37.89
881.198	101.37
881.37	-35.84
881.542	60.42
881.714	-23.55
881.886	-31.74
882.058	-7.17
882.23	-9.22
882.402	-15.36
882.574	54.27
882.746	50.18
882.918	13.31
883.09	41.98
883.262	21.5
883.434	37.89
883.606	-48.13
883.778	39.94
883.95	-25.6
884.122	-44.03
884.293	62.46
884.465	-11.26
884.637	27.65
884.809	62.46
884.98	54.27
885.152	-23.55
885.324	87.04
885.496	-72.7
885.667	54.27
885.839	-44.03
886.011	105.47
886.182	5.12
886.354	29.7
886.525	54.27
886.697	44.03
886.869	-13.31
887.04	62.46
887.212	-3.07
887.383	21.5
887.555	-17.41
887.726	29.7
887.897	5.12
888.069	-15.36
888.24	31.74
888.412	-31.74
888.583	15.36
888.754	60.42
888.926	-15.36
889.097	-21.5
889.268	-74.75
889.44	11.26
889.611	52.22
889.782	-64.51
889.953	-84.99
890.125	62.46
890.296	31.74
890.467	-52.22
890.638	-62.46
890.809	-44.03
890.98	-76.8
891.151	21.5
891.323	9.22
891.494	54.27
891.665	60.42
891.836	-17.41
892.007	-3.07
892.178	23.55
892.349	54.27
892.52	-17.41
892.691	17.41
892.862	-56.32
893.032	-19.46
893.203	62.46
893.374	13.31
893.545	-15.36
893.716	-9.22
893.887	87.04
894.057	-17.41
894.228	-17.41
894.399	-66.56
894.57	46.08
894.74	-3.07
894.911	39.94
895.082	-39.94
895.253	-39.94
895.423	11.26
895.594	-27.65
895.764	-11.26
895.935	-11.26
896.106	-25.6
896.276	-1.02
896.447	-1.02
896.617	29.7
896.788	-29.7
896.958	-9.22
897.129	-50.18
897.299	64.51
897.47	78.85
897.64	29.7
897.81	56.32
897.981	-33.79
898.151	-19.46
898.322	-33.79
898.492	31.74
898.662	48.13
898.832	-99.33
899.003	-52.22
899.173	52.22
899.343	-39.94
899.513	-58.37
