Data from USB4F104151__43__14-16-45-687.txt Node

Date: Thu Mar 13 14:16:45 EDT 2025
User: louis
Spectrometer: USB4F10415
Trigger mode: 4
Integration Time (sec): 2.000000E-2
Scans to average: 1
Electric dark correction enabled: true
Nonlinearity correction enabled: false
Boxcar width: 0
XAxis mode: Wavelengths
Number of Pixels in Spectrum: 3648
>>>>>Begin Spectral Data<<<<<
178.204	-156.84
178.424	-156.84
178.644	-156.84
178.864	-52.39
179.084	-169.13
179.304	-40.11
179.524	-29.87
179.744	-56.49
179.964	41.81
180.184	-21.67
180.404	11.09
180.624	33.62
180.844	27.48
181.064	-17.58
181.283	33.62
181.503	0.85
181.723	17.24
181.943	-5.29
182.163	74.58
182.383	-1.19
182.602	62.29
182.822	90.96
183.042	56.15
183.262	-5.29
183.482	-23.72
183.701	-7.34
183.921	19.29
184.141	-56.49
184.361	29.52
184.58	-1.19
184.8	17.24
185.02	90.96
185.239	47.96
185.459	52.05
185.679	54.1
185.898	7
186.118	-7.34
186.338	-7.34
186.557	-5.29
186.777	-29.87
186.997	56.15
187.216	37.72
187.436	99.16
187.655	31.57
187.875	37.72
188.095	31.57
188.314	29.52
188.534	70.48
188.753	25.43
188.973	58.2
189.192	58.2
189.412	11.09
189.631	-40.11
189.851	93.01
190.07	17.24
190.29	-19.63
190.509	19.29
190.729	-23.72
190.948	41.81
191.168	144.21
191.387	9.05
191.607	47.96
191.826	0.85
192.045	29.52
192.265	50
192.484	35.67
192.704	17.24
192.923	-60.59
193.142	99.16
193.362	90.96
193.581	25.43
193.8	-31.91
194.02	58.2
194.239	7
194.458	0.85
194.678	-19.63
194.897	17.24
195.116	13.14
195.335	47.96
195.555	43.86
195.774	41.81
195.993	76.63
196.212	27.48
196.432	-40.11
196.651	-27.82
196.87	-11.43
197.089	29.52
197.308	41.81
197.528	35.67
197.747	19.29
197.966	21.33
198.185	82.77
198.404	4.95
198.623	41.81
198.842	19.29
199.062	78.68
199.281	58.2
199.5	-11.43
199.719	37.72
199.938	29.52
200.157	82.77
200.376	23.38
200.595	0.85
200.814	90.96
201.033	17.24
201.252	90.96
201.471	25.43
201.69	21.33
201.909	66.39
202.128	17.24
202.347	-19.63
202.566	29.52
202.785	41.81
203.004	41.81
203.223	136.02
203.442	-11.43
203.661	-13.48
203.879	60.24
204.098	181.07
204.317	-54.44
204.536	74.58
204.755	-15.53
204.974	37.72
205.193	-13.48
205.411	17.24
205.63	37.72
205.849	25.43
206.068	-62.63
206.287	84.82
206.505	17.24
206.724	13.14
206.943	52.05
207.162	-56.49
207.381	62.29
207.599	-40.11
207.818	54.1
208.037	-13.48
208.255	86.87
208.474	-40.11
208.693	33.62
208.911	58.2
209.13	2.9
209.349	82.77
209.567	119.64
209.786	93.01
210.005	50
210.223	23.38
210.442	-68.78
210.661	25.43
210.879	-46.25
211.098	25.43
211.316	2.9
211.535	66.39
211.753	43.86
211.972	2.9
212.191	-15.53
212.409	54.1
212.628	76.63
212.846	19.29
213.065	13.14
213.283	68.44
213.502	43.86
213.72	19.29
213.938	62.29
214.157	7
214.375	52.05
214.594	-36.01
214.812	37.72
215.031	111.44
215.249	25.43
215.467	27.48
215.686	-23.72
215.904	66.39
216.122	-15.53
216.341	105.3
216.559	-23.72
216.778	25.43
216.996	50
217.214	60.24
217.432	37.72
217.651	35.67
217.869	60.24
218.087	60.24
218.306	29.52
218.524	25.43
218.742	-7.34
218.96	58.2
219.179	-48.3
219.397	-5.29
219.615	33.62
219.833	27.48
220.051	-9.39
220.27	-1.19
220.488	-5.29
220.706	17.24
220.924	64.34
221.142	0.85
221.36	0.85
221.578	70.48
221.796	52.05
222.015	-29.87
222.233	66.39
222.451	31.57
222.669	66.39
222.887	41.81
223.105	4.95
223.323	31.57
223.541	13.14
223.759	-5.29
223.977	19.29
224.195	76.63
224.413	72.53
224.631	-15.53
224.849	-11.43
225.067	35.67
225.285	0.85
225.503	56.15
225.721	-33.96
225.939	58.2
226.157	11.09
226.375	99.16
226.592	66.39
226.81	7
227.028	-15.53
227.246	68.44
227.464	41.81
227.682	45.91
227.9	62.29
228.117	31.57
228.335	-3.24
228.553	7
228.771	95.06
228.989	97.11
229.206	29.52
229.424	-3.24
229.642	15.19
229.86	54.1
230.077	47.96
230.295	50
230.513	43.86
230.731	103.25
230.948	68.44
231.166	-11.43
231.384	0.85
231.601	-5.29
231.819	78.68
232.037	-15.53
232.254	21.33
232.472	41.81
232.689	9.05
232.907	58.2
233.125	50
233.342	11.09
233.56	-13.48
233.777	25.43
233.995	-9.39
234.213	29.52
234.43	-17.58
234.648	50
234.865	47.96
235.083	4.95
235.3	105.3
235.518	41.81
235.735	72.53
235.953	60.24
236.17	41.81
236.388	-7.34
236.605	-13.48
236.822	25.43
237.04	78.68
237.257	125.78
237.475	9.05
237.692	25.43
237.909	82.77
238.127	17.24
238.344	13.14
238.562	17.24
238.779	25.43
238.996	-29.87
239.214	50
239.431	99.16
239.648	17.24
239.865	117.59
240.083	29.52
240.3	2.9
240.517	50
240.735	52.05
240.952	17.24
241.169	68.44
241.386	103.25
241.603	25.43
241.821	37.72
242.038	41.81
242.255	64.34
242.472	7
242.689	25.43
242.907	25.43
243.124	58.2
243.341	-54.44
243.558	41.81
243.775	-1.19
243.992	-23.72
244.209	93.01
244.426	50
244.643	35.67
244.86	23.38
245.078	50
245.295	27.48
245.512	78.68
245.729	19.29
245.946	27.48
246.163	72.53
246.38	41.81
246.597	0.85
246.814	0.85
247.031	54.1
247.248	27.48
247.464	111.44
247.681	13.14
247.898	88.92
248.115	23.38
248.332	-23.72
248.549	68.44
248.766	107.35
248.983	17.24
249.2	99.16
249.417	68.44
249.633	37.72
249.85	58.2
250.067	37.72
250.284	-13.48
250.501	62.29
250.717	2.9
250.934	-29.87
251.151	95.06
251.368	-7.34
251.585	82.77
251.801	-40.11
252.018	29.52
252.235	27.48
252.451	-13.48
252.668	-17.58
252.885	2.9
253.102	66.39
253.318	-3.24
253.535	41.81
253.752	23.38
253.968	66.39
254.185	37.72
254.401	41.81
254.618	15.19
254.835	-38.06
255.051	107.35
255.268	17.24
255.484	52.05
255.701	88.92
255.917	52.05
256.134	62.29
256.351	90.96
256.567	-25.77
256.784	37.72
257	66.39
257.217	62.29
257.433	66.39
257.65	78.68
257.866	103.25
258.082	11.09
258.299	19.29
258.515	4.95
258.732	-29.87
258.948	0.85
259.165	29.52
259.381	15.19
259.597	68.44
259.814	39.76
260.03	54.1
260.246	23.38
260.463	29.52
260.679	17.24
260.895	74.58
261.112	17.24
261.328	31.57
261.544	45.91
261.761	39.76
261.977	7
262.193	29.52
262.409	84.82
262.626	93.01
262.842	68.44
263.058	35.67
263.274	93.01
263.49	41.81
263.707	45.91
263.923	86.87
264.139	9.05
264.355	-5.29
264.571	50
264.787	13.14
265.004	9.05
265.22	-1.19
265.436	19.29
265.652	21.33
265.868	27.48
266.084	7
266.3	39.76
266.516	-21.67
266.732	23.38
266.948	50
267.164	21.33
267.38	25.43
267.596	9.05
267.812	41.81
268.028	4.95
268.244	-38.06
268.46	-11.43
268.676	-7.34
268.892	74.58
269.108	-5.29
269.324	-31.91
269.54	-31.91
269.756	70.48
269.972	-76.97
270.188	101.2
270.403	35.67
270.619	15.19
270.835	39.76
271.051	64.34
271.267	9.05
271.483	23.38
271.698	41.81
271.914	37.72
272.13	58.2
272.346	-23.72
272.562	13.14
272.777	39.76
272.993	-9.39
273.209	9.05
273.425	37.72
273.64	-7.34
273.856	117.59
274.072	52.05
274.287	-21.67
274.503	62.29
274.719	9.05
274.934	23.38
275.15	27.48
275.366	2.9
275.581	2.9
275.797	68.44
276.012	21.33
276.228	-31.91
276.444	95.06
276.659	58.2
276.875	35.67
277.09	2.9
277.306	50
277.521	0.85
277.737	35.67
277.952	43.86
278.168	0.85
278.383	13.14
278.599	-11.43
278.814	66.39
279.03	7
279.245	17.24
279.461	99.16
279.676	47.96
279.892	90.96
280.107	45.91
280.322	-33.96
280.538	-74.92
280.753	-19.63
280.969	35.67
281.184	70.48
281.399	99.16
281.615	-44.2
281.83	-19.63
282.045	50
282.26	11.09
282.476	7
282.691	19.29
282.906	9.05
283.122	13.14
283.337	9.05
283.552	13.14
283.767	2.9
283.983	17.24
284.198	58.2
284.413	50
284.628	0.85
284.843	-3.24
285.058	70.48
285.274	35.67
285.489	-21.67
285.704	78.68
285.919	-38.06
286.134	50
286.349	31.57
286.564	-11.43
286.779	93.01
286.995	45.91
287.21	-54.44
287.425	-11.43
287.64	-5.29
287.855	56.15
288.07	37.72
288.285	107.35
288.5	123.73
288.715	93.01
288.93	33.62
289.145	72.53
289.36	68.44
289.575	33.62
289.79	50
290.004	62.29
290.219	43.86
290.434	29.52
290.649	47.96
290.864	19.29
291.079	25.43
291.294	62.29
291.509	27.48
291.724	-11.43
291.938	60.24
292.153	-29.87
292.368	60.24
292.583	43.86
292.798	27.48
293.012	33.62
293.227	97.11
293.442	-33.96
293.657	50
293.871	90.96
294.086	45.91
294.301	33.62
294.516	64.34
294.73	74.58
294.945	-40.11
295.16	54.1
295.374	133.97
295.589	50
295.804	68.44
296.018	25.43
296.233	21.33
296.447	70.48
296.662	19.29
296.877	25.43
297.091	37.72
297.306	9.05
297.52	-42.15
297.735	-13.48
297.949	52.05
298.164	33.62
298.378	4.95
298.593	37.72
298.807	-50.35
299.022	15.19
299.236	-5.29
299.451	37.72
299.665	0.85
299.88	21.33
300.094	50
300.309	-31.91
300.523	66.39
300.737	105.3
300.952	54.1
301.166	54.1
301.381	62.29
301.595	-33.96
301.809	-3.24
302.024	60.24
302.238	54.1
302.452	152.4
302.667	17.24
302.881	35.67
303.095	47.96
303.309	23.38
303.524	-5.29
303.738	31.57
303.952	-44.2
304.166	101.2
304.381	25.43
304.595	131.92
304.809	31.57
305.023	29.52
305.237	82.77
305.452	21.33
305.666	17.24
305.88	33.62
306.094	17.24
306.308	52.05
306.522	29.52
306.736	64.34
306.95	25.43
307.164	76.63
307.379	2.9
307.593	-5.29
307.807	68.44
308.021	-46.25
308.235	50
308.449	-15.53
308.663	39.76
308.877	33.62
309.091	78.68
309.305	66.39
309.519	-31.91
309.733	25.43
309.947	-7.34
310.161	72.53
310.374	90.96
310.588	-23.72
310.802	82.77
311.016	17.24
311.23	72.53
311.444	19.29
311.658	64.34
311.872	82.77
312.085	90.96
312.299	13.14
312.513	33.62
312.727	45.91
312.941	33.62
313.154	62.29
313.368	-44.2
313.582	60.24
313.796	-15.53
314.009	62.29
314.223	56.15
314.437	90.96
314.651	76.63
314.864	50
315.078	82.77
315.292	-29.87
315.505	-44.2
315.719	82.77
315.933	95.06
316.146	13.14
316.36	25.43
316.573	27.48
316.787	50
317.001	-50.35
317.214	-19.63
317.428	43.86
317.641	45.91
317.855	39.76
318.068	11.09
318.282	31.57
318.495	68.44
318.709	54.1
318.922	-13.48
319.136	95.06
319.349	13.14
319.563	-7.34
319.776	25.43
319.99	25.43
320.203	19.29
320.417	41.81
320.63	52.05
320.843	103.25
321.057	90.96
321.27	78.68
321.483	-3.24
321.697	35.67
321.91	27.48
322.124	41.81
322.337	2.9
322.55	50
322.763	13.14
322.977	95.06
323.19	-15.53
323.403	45.91
323.617	-15.53
323.83	60.24
324.043	25.43
324.256	133.97
324.469	31.57
324.683	45.91
324.896	13.14
325.109	56.15
325.322	29.52
325.535	64.34
325.748	84.82
325.962	74.58
326.175	95.06
326.388	64.34
326.601	27.48
326.814	68.44
327.027	58.2
327.24	17.24
327.453	9.05
327.666	68.44
327.879	146.26
328.092	60.24
328.305	19.29
328.518	107.35
328.731	52.05
328.944	41.81
329.157	39.76
329.37	15.19
329.583	138.07
329.796	66.39
330.009	84.82
330.222	15.19
330.435	35.67
330.648	82.77
330.861	15.19
331.073	72.53
331.286	31.57
331.499	84.82
331.712	33.62
331.925	0.85
332.138	35.67
332.35	103.25
332.563	15.19
332.776	84.82
332.989	19.29
333.202	7
333.414	33.62
333.627	70.48
333.84	66.39
334.053	107.35
334.265	52.05
334.478	25.43
334.691	45.91
334.903	33.62
335.116	52.05
335.329	86.87
335.541	109.4
335.754	142.16
335.966	33.62
336.179	-5.29
336.392	2.9
336.604	90.96
336.817	31.57
337.029	68.44
337.242	15.19
337.454	56.15
337.667	66.39
337.88	41.81
338.092	35.67
338.305	72.53
338.517	33.62
338.729	27.48
338.942	33.62
339.154	-15.53
339.367	9.05
339.579	101.2
339.792	25.43
340.004	72.53
340.217	70.48
340.429	90.96
340.641	37.72
340.854	107.35
341.066	-3.24
341.278	35.67
341.491	90.96
341.703	4.95
341.915	39.76
342.128	99.16
342.34	58.2
342.552	50
342.764	9.05
342.977	-7.34
343.189	23.38
343.401	66.39
343.613	21.33
343.826	31.57
344.038	-3.24
344.25	45.91
344.462	17.24
344.674	45.91
344.886	-23.72
345.099	82.77
345.311	19.29
345.523	70.48
345.735	-15.53
345.947	74.58
346.159	58.2
346.371	9.05
346.583	78.68
346.795	127.83
347.007	21.33
347.219	41.81
347.431	-15.53
347.643	47.96
347.855	17.24
348.067	33.62
348.279	-7.34
348.491	41.81
348.703	58.2
348.915	0.85
349.127	17.24
349.339	99.16
349.551	-23.72
349.763	95.06
349.975	25.43
350.187	35.67
350.399	9.05
350.61	41.81
350.822	58.2
351.034	41.81
351.246	50
351.458	82.77
351.669	21.33
351.881	88.92
352.093	119.64
352.305	41.81
352.517	50
352.728	78.68
352.94	41.81
353.152	54.1
353.363	35.67
353.575	82.77
353.787	66.39
353.999	68.44
354.21	50
354.422	17.24
354.633	121.68
354.845	35.67
355.057	-3.24
355.268	58.2
355.48	74.58
355.692	27.48
355.903	41.81
356.115	29.52
356.326	78.68
356.538	52.05
356.749	58.2
356.961	123.73
357.172	52.05
357.384	-42.15
357.595	107.35
357.807	13.14
358.018	-44.2
358.23	9.05
358.441	109.4
358.653	82.77
358.864	33.62
359.075	103.25
359.287	70.48
359.498	144.21
359.709	-42.15
359.921	101.2
360.132	27.48
360.344	37.72
360.555	52.05
360.766	64.34
360.977	-64.68
361.189	62.29
361.4	9.05
361.611	101.2
361.823	99.16
362.034	54.1
362.245	39.76
362.456	84.82
362.667	78.68
362.879	68.44
363.09	45.91
363.301	23.38
363.512	109.4
363.723	43.86
363.935	62.29
364.146	50
364.357	17.24
364.568	72.53
364.779	29.52
364.99	68.44
365.201	21.33
365.412	45.91
365.623	11.09
365.834	60.24
366.045	136.02
366.256	39.76
366.467	9.05
366.678	-40.11
366.889	19.29
367.1	107.35
367.311	119.64
367.522	-21.67
367.733	95.06
367.944	166.74
368.155	82.77
368.366	54.1
368.577	29.52
368.788	133.97
368.999	72.53
369.209	43.86
369.42	99.16
369.631	123.73
369.842	58.2
370.053	50
370.264	31.57
370.474	43.86
370.685	58.2
370.896	4.95
371.107	35.67
371.317	95.06
371.528	27.48
371.739	129.88
371.95	70.48
372.16	64.34
372.371	25.43
372.582	76.63
372.792	60.24
373.003	95.06
373.214	74.58
373.424	68.44
373.635	84.82
373.846	72.53
374.056	0.85
374.267	29.52
374.477	66.39
374.688	45.91
374.898	82.77
375.109	33.62
375.319	58.2
375.53	90.96
375.74	58.2
375.951	62.29
376.161	82.77
376.372	95.06
376.582	13.14
376.793	23.38
377.003	80.72
377.214	25.43
377.424	131.92
377.635	70.48
377.845	15.19
378.055	72.53
378.266	43.86
378.476	25.43
378.686	111.44
378.897	60.24
379.107	52.05
379.317	50
379.528	29.52
379.738	86.87
379.948	66.39
380.158	43.86
380.369	17.24
380.579	115.54
380.789	52.05
380.999	68.44
381.21	101.2
381.42	66.39
381.63	121.68
381.84	84.82
382.05	35.67
382.261	109.4
382.471	54.1
382.681	101.2
382.891	101.2
383.101	33.62
383.311	4.95
383.521	25.43
383.731	109.4
383.941	68.44
384.151	115.54
384.361	62.29
384.571	90.96
384.781	78.68
384.991	131.92
385.201	111.44
385.411	50
385.621	119.64
385.831	-15.53
386.041	-13.48
386.251	-15.53
386.461	66.39
386.671	9.05
386.881	-13.48
387.091	17.24
387.301	45.91
387.511	13.14
387.72	123.73
387.93	66.39
388.14	54.1
388.35	-40.11
388.56	84.82
388.769	103.25
388.979	17.24
389.189	23.38
389.399	62.29
389.609	9.05
389.818	93.01
390.028	78.68
390.238	52.05
390.447	37.72
390.657	80.72
390.867	78.68
391.076	41.81
391.286	27.48
391.496	68.44
391.705	127.83
391.915	119.64
392.125	133.97
392.334	95.06
392.544	99.16
392.753	43.86
392.963	66.39
393.172	66.39
393.382	90.96
393.591	80.72
393.801	-1.19
394.01	74.58
394.22	107.35
394.429	76.63
394.639	52.05
394.848	140.12
395.058	82.77
395.267	99.16
395.477	33.62
395.686	168.79
395.895	88.92
396.105	93.01
396.314	21.33
396.524	21.33
396.733	86.87
396.942	107.35
397.152	119.64
397.361	179.03
397.57	111.44
397.78	109.4
397.989	123.73
398.198	131.92
398.407	107.35
398.617	70.48
398.826	148.31
399.035	111.44
399.244	166.74
399.453	181.07
399.663	90.96
399.872	197.46
400.081	148.31
400.29	183.12
400.499	64.34
400.708	103.25
400.917	70.48
401.127	109.4
401.336	148.31
401.545	166.74
401.754	164.69
401.963	156.5
402.172	68.44
402.381	136.02
402.59	144.21
402.799	158.55
403.008	213.84
403.217	172.88
403.426	201.55
403.635	95.06
403.844	90.96
404.053	246.61
404.262	205.65
404.471	160.59
404.68	262.99
404.888	209.75
405.097	238.42
405.306	125.78
405.515	197.46
405.724	148.31
405.933	238.42
406.142	181.07
406.35	256.85
406.559	203.6
406.768	234.32
406.977	293.71
407.185	293.71
407.394	291.66
407.603	185.17
407.812	306
408.02	271.19
408.229	205.65
408.438	238.42
408.646	246.61
408.855	246.61
409.064	324.43
409.272	303.95
409.481	336.72
409.69	318.29
409.898	379.73
410.107	336.72
410.315	447.31
410.524	389.97
410.733	475.98
410.941	426.83
411.15	422.73
411.358	435.02
411.567	459.6
411.775	480.08
411.984	605
412.192	631.63
412.401	412.5
412.609	570.19
412.818	602.96
413.026	551.76
413.234	615.24
413.443	691.02
413.651	611.15
413.86	691.02
414.068	729.93
414.276	744.27
414.485	678.73
414.693	736.07
414.901	801.61
415.11	830.28
415.318	985.93
415.526	942.92
415.734	977.73
415.943	959.3
416.151	1035.08
416.359	983.88
416.567	1016.65
416.776	1045.32
416.984	1102.66
417.192	1176.39
417.4	1174.34
417.608	1215.3
417.817	1155.91
418.025	1319.75
418.233	1450.82
418.441	1434.43
418.649	1385.28
418.857	1432.38
419.065	1557.31
419.273	1534.78
419.481	1575.74
419.689	1712.96
419.897	1815.35
420.105	1819.45
420.313	1708.86
420.521	1844.03
420.729	2059.06
420.937	1927.99
421.145	2126.64
421.353	2128.69
421.561	2138.93
421.769	2380.59
421.977	2487.09
422.185	2349.87
422.393	2540.33
422.601	2675.5
422.809	2593.58
423.017	2769.71
423.224	2870.06
423.432	2937.64
423.64	2917.16
423.848	3136.29
424.056	3167.01
424.263	3539.74
424.471	3367.71
424.679	3367.71
424.887	3601.18
425.094	3728.16
425.302	3801.88
425.51	3818.27
425.718	3908.38
425.925	4113.17
426.133	4299.54
426.341	4375.31
426.548	4571.92
426.756	4637.45
426.964	4561.68
427.171	4887.31
427.379	5030.66
427.586	5190.41
427.794	5212.93
428.001	5501.7
428.209	5737.21
428.417	5610.24
428.624	5884.67
428.832	6089.46
429.039	6017.79
429.247	6075.13
429.454	6572.79
429.662	6980.33
429.869	6685.42
430.076	7058.15
430.284	6834.93
430.491	7224.04
430.699	7359.21
430.906	7520.99
431.114	7676.64
431.321	7926.49
431.528	8131.29
431.736	8549.07
431.943	8876.75
432.15	8831.69
432.358	8768.21
432.565	9274.06
432.772	9351.88
432.979	9775.81
433.187	9841.34
433.394	9996.99
433.601	10621.62
433.808	10855.09
434.016	10654.39
434.223	11059.88
434.43	11588.26
434.637	11377.32
434.844	12067.49
435.052	12348.06
435.259	12264.09
435.466	12419.74
435.673	12370.58
435.88	13132.43
436.087	13767.3
436.294	13804.16
436.501	13623.94
436.708	13730.44
436.915	14273.15
437.122	14860.91
437.329	14713.46
437.537	15401.58
437.743	15454.83
437.95	15338.09
438.157	16376.41
438.364	16980.56
438.571	16650.84
438.778	16892.5
438.985	18358.85
439.192	17941.06
439.399	18340.41
439.606	17957.44
439.813	18860.6
440.02	19767.85
440.227	19468.84
440.433	19692.07
440.64	19915.3
440.847	19814.95
441.054	20095.52
441.261	21742.09
441.467	21338.64
441.674	22028.81
441.881	22514.17
442.088	22643.2
442.294	22413.82
442.501	23065.08
442.708	23738.86
442.914	24302.05
443.121	25338.32
443.328	24451.55
443.534	26520
443.741	25635.28
443.948	25342.42
444.154	27226.55
444.361	27204.02
444.568	27124.15
444.774	27105.72
444.981	27541.94
445.187	28299.69
445.394	29555.09
445.6	29178.26
445.807	31830.38
446.013	30380.42
446.22	30775.68
446.426	32186.73
446.633	32303.46
446.839	33362.26
447.046	32174.44
447.252	33747.28
447.459	33960.27
447.665	33792.34
447.871	35166.52
448.078	36931.87
448.284	35113.28
448.491	36219.18
448.697	37273.88
448.903	38138.13
449.11	38394.12
449.316	37501.21
449.522	38496.52
449.728	39164.16
449.935	39465.21
450.141	39432.44
450.347	40644.84
450.553	39080.19
450.76	39608.57
450.966	40988.9
451.172	40605.93
451.378	41752.79
451.584	40843.49
451.791	41662.68
451.997	41591
452.203	42371.28
452.409	42465.49
452.615	42189.01
452.821	40403.18
453.027	40116.47
453.233	42195.15
453.44	40653.03
453.646	41251.04
453.852	41066.72
454.058	42098.9
454.264	40562.92
454.47	41539.8
454.676	40372.46
454.882	41631.96
455.088	37984.53
455.294	38975.75
455.5	39610.62
455.705	39874.8
455.911	38197.52
456.117	37437.72
456.323	37316.89
456.529	35172.67
456.735	36700.45
456.941	35590.45
457.147	35264.83
457.352	34281.8
457.558	34001.23
457.764	34113.87
457.97	33628.5
458.176	32903.52
458.381	32508.26
458.587	30861.69
458.793	31191.42
458.999	29282.71
459.204	31568.24
459.41	30228.87
459.616	28721.57
459.821	28369.32
460.027	28701.09
460.233	28260.77
460.438	26792.38
460.644	27031.99
460.85	25649.61
461.055	24969.69
461.261	25516.5
461.466	23278.07
461.672	22847.99
461.878	24240.61
462.083	22909.43
462.289	22247.94
462.494	21965.32
462.7	21160.47
462.905	20519.45
463.111	21236.24
463.316	21281.3
463.522	20881.94
463.727	20902.42
463.932	20666.91
464.138	20630.04
464.343	20714.01
464.549	20113.95
464.754	20765.21
464.959	20259.36
465.165	20185.63
465.37	19311.15
465.575	18885.17
465.781	19579.43
465.986	19925.54
466.191	19102.26
466.397	18735.67
466.602	17861.19
466.807	18453.05
467.012	18709.05
467.218	18584.12
467.423	18186.82
467.628	18686.52
467.833	19333.68
468.038	18244.16
468.244	17896
468.449	18668.09
468.654	17830.47
468.859	17877.57
469.064	17807.94
469.269	17164.88
469.474	17146.45
469.679	17621.58
469.885	16812.63
470.09	16945.75
470.295	16728.66
470.5	16591.45
470.705	16902.74
470.91	16478.81
471.115	16370.27
471.32	16775.77
471.525	16175.71
471.73	16030.3
471.935	16020.06
472.139	15393.39
472.344	15764.07
472.549	15424.11
472.754	15370.86
472.959	15075.95
473.164	14721.65
473.369	14484.09
473.574	15000.18
473.778	14881.39
473.983	14725.75
474.188	14717.56
474.393	14185.08
474.598	14101.12
474.802	13990.53
475.007	13886.08
475.212	13865.6
475.417	13329.03
475.621	13306.51
475.826	13296.27
476.031	13052.56
476.235	13079.18
476.44	13519.5
476.645	12790.42
476.849	12917.39
477.054	12751.51
477.259	12380.82
477.463	12438.17
477.668	12184.22
477.872	12419.74
478.077	12272.28
478.282	11946.66
478.486	11809.44
478.691	11711.14
478.895	11784.87
479.1	11655.84
479.304	11381.42
479.509	11428.52
479.713	11449
479.918	11223.72
480.122	10943.15
480.326	11229.87
480.531	11381.42
480.735	11113.13
480.94	11109.04
481.144	11291.31
481.348	10726.07
481.553	10943.15
481.757	10781.36
481.961	10904.24
482.166	10949.29
482.37	10853.04
482.574	10701.49
482.778	10724.02
482.983	10943.15
483.187	11029.17
483.391	10957.49
483.595	10619.57
483.8	10560.18
484.004	10597.04
484.208	10939.05
484.412	10760.88
484.616	10957.49
484.821	10715.83
485.025	10658.48
485.229	10650.29
485.433	10560.18
485.637	10781.36
485.841	10633.91
486.045	10855.09
486.249	10754.74
486.453	10506.93
486.657	10822.32
486.861	10861.23
487.065	10420.92
487.269	10789.55
487.473	10601.14
487.677	10963.63
487.881	10941.1
488.085	10855.09
488.289	10840.75
488.493	10672.82
488.697	10779.31
488.901	10885.81
489.105	10605.24
489.309	10902.19
489.512	10633.91
489.716	10894
489.92	10801.84
490.124	10857.14
490.328	11315.88
490.531	11045.55
490.735	11166.38
490.939	11283.11
491.143	11049.64
491.346	11190.95
491.55	11315.88
491.754	11082.41
491.958	11276.97
492.161	11297.45
492.365	11428.52
492.569	11276.97
492.772	11520.68
492.976	11514.53
493.18	11334.31
493.383	11893.41
493.587	11707.04
493.79	11915.94
493.994	11684.52
494.197	11870.88
494.401	11903.65
494.605	11793.06
494.808	12227.23
495.012	12204.7
495.215	12200.6
495.419	12243.61
495.622	12298.91
495.825	12432.02
496.029	12548.76
496.232	12671.64
496.436	12710.55
496.639	12976.78
496.843	12999.31
497.046	13101.71
497.249	13283.98
497.453	13388.43
497.656	13597.32
497.859	13480.58
498.063	13664.9
498.266	13914.75
498.469	13879.94
498.673	14185.08
498.876	14371.45
499.079	14455.42
499.282	14357.11
499.485	14817.91
499.689	15024.75
499.892	14930.55
500.095	15131.25
500.298	15366.76
500.501	15221.36
500.705	15678.05
500.908	15983.2
501.111	15970.91
501.314	16196.19
501.517	16335.45
501.72	16427.61
501.923	16409.18
502.126	16818.77
502.329	16937.55
502.532	17298
502.735	17191.5
502.938	17519.18
503.141	17502.79
503.344	18027.07
503.547	17922.63
503.75	18358.85
503.953	18563.64
504.156	18713.14
504.359	18836.02
504.562	18856.5
504.765	19663.4
504.968	19446.32
505.17	19679.79
505.373	19661.35
505.576	20351.52
505.779	20308.51
505.982	20484.64
506.185	20533.79
506.387	21092.88
506.59	21187.09
506.793	21539.34
506.996	21379.6
507.198	21967.37
507.401	21924.36
507.604	22088.2
507.807	22891
508.009	22684.16
508.212	22981.11
508.415	23259.63
508.617	23417.33
508.82	23474.67
509.022	23460.34
509.225	23970.28
509.428	24130.02
509.63	24541.66
509.833	24545.76
510.035	25371.09
510.238	25338.32
510.44	25596.37
510.643	25864.65
510.845	25979.34
511.048	25924.04
511.25	26274.24
511.453	26567.1
511.655	27300.28
511.858	27263.41
512.06	27228.6
512.262	27838.89
512.465	27443.63
512.667	28348.84
512.87	28789.15
513.072	28684.7
513.274	29178.26
513.477	29194.65
513.679	29475.22
513.881	29602.19
514.084	30116.23
514.286	29974.92
514.488	30169.48
514.69	30806.4
514.893	31297.91
515.095	31377.78
515.297	31670.64
515.499	31670.64
515.701	32029.04
515.904	32113
516.106	32711.01
516.308	33175.9
516.51	33628.5
516.712	33272.15
516.914	33812.82
517.116	34545.99
517.318	34662.72
517.52	34533.7
517.722	34799.94
517.925	35637.56
518.127	35600.69
518.329	35993.9
518.531	35791.16
518.733	36639.01
518.935	36679.97
519.136	36710.69
519.338	37384.47
519.54	37413.15
519.742	37746.97
519.944	38187.28
520.146	38625.54
520.348	38830.34
520.55	38861.06
520.752	39117.06
520.954	39887.09
521.155	39430.4
521.357	39702.78
521.559	40159.47
521.761	40679.66
521.963	40460.52
522.164	40765.67
522.366	41021.67
522.568	41367.77
522.77	41543.9
522.971	42410.19
523.173	42203.35
523.375	42485.97
523.576	42602.7
523.778	42467.53
523.98	43225.28
524.181	43526.33
524.383	43057.35
524.584	43851.96
524.786	43784.38
524.988	43620.54
525.189	44392.62
525.391	44556.46
525.592	44523.69
525.794	44736.68
525.995	44822.7
526.197	45170.85
526.398	45338.79
526.6	45502.62
526.801	45537.44
527.003	45672.6
527.204	45693.08
527.406	46432.4
527.607	46059.67
527.808	46456.98
528.01	45723.8
528.211	46057.62
528.412	46942.35
528.614	46688.4
528.815	46577.81
529.016	47057.03
529.218	46803.08
529.419	46903.43
529.62	47384.71
529.822	47302.79
530.023	47261.83
530.224	47544.45
530.425	47384.71
530.626	47003.78
530.828	47003.78
531.029	48013.43
531.23	47411.33
531.431	47521.92
531.632	48015.48
531.833	48078.97
532.035	47872.12
532.236	47863.93
532.437	48054.39
532.638	47544.45
532.839	47765.63
533.04	48253.05
533.241	47751.29
533.442	48513.14
533.643	48263.28
533.844	48160.89
534.045	48326.77
534.246	47382.66
534.447	48328.82
534.648	47927.42
534.849	48111.74
535.05	48035.96
535.251	48384.12
535.451	47921.27
535.652	48461.94
535.853	48070.78
536.054	48380.02
536.255	48238.71
536.456	47880.31
536.657	48984.17
536.857	47892.6
537.058	47802.49
537.259	48328.82
537.46	48486.51
537.66	48091.26
537.861	48103.54
538.062	48121.98
538.263	48048.25
538.463	47798.4
538.664	48201.85
538.865	48130.17
539.065	48443.51
539.266	47966.33
539.466	48330.87
539.667	47552.64
539.868	48294
540.068	47900.79
540.269	47741.05
540.469	48498.8
540.67	47616.13
540.87	47872.12
541.071	47761.53
541.271	48406.64
541.472	47825.02
541.672	47814.78
541.873	47550.59
542.073	46950.54
542.274	47800.44
542.474	47263.88
542.675	47583.36
542.875	48173.17
543.075	47503.49
543.276	47245.44
543.476	47986.81
543.676	47259.78
543.877	48265.33
544.077	47427.71
544.277	47403.14
544.478	47753.34
544.678	47702.14
544.878	47536.26
545.078	47982.71
545.279	47323.27
545.479	47538.3
545.679	47865.98
545.879	47935.61
546.079	47401.09
546.28	47513.73
546.48	47384.71
546.68	47423.62
546.88	47052.94
547.08	47474.82
547.28	47380.61
547.48	47046.79
547.68	47536.26
547.88	47224.96
548.081	47751.29
548.281	47112.33
548.481	47253.64
548.681	47343.75
548.881	47333.51
549.081	47216.77
549.28	46817.42
549.48	47638.65
549.68	47141
549.88	48074.87
550.08	47126.66
550.28	47247.49
550.48	47339.65
550.68	47427.71
550.88	47237.25
551.08	47065.22
551.279	47024.26
551.479	46942.35
551.679	47284.36
551.879	46649.49
552.079	47112.33
552.278	46741.64
552.478	46835.85
552.678	47265.92
552.878	47134.85
553.077	47065.22
553.277	46743.69
553.477	47388.8
553.676	46893.19
553.876	46706.83
554.076	46805.13
554.275	46932.11
554.475	46487.7
554.674	46921.87
554.874	46983.3
555.074	46491.79
555.273	46837.9
555.473	46862.47
555.672	46528.66
555.872	46545.04
556.071	46721.16
556.271	46624.91
556.47	46340.24
556.67	46295.19
556.869	46207.12
557.068	46315.67
557.268	46211.22
557.467	46180.5
557.667	46256.28
557.866	46475.41
558.065	46190.74
558.265	46147.73
558.464	45799.58
558.663	46792.84
558.863	45805.72
559.062	46323.86
559.261	45584.54
559.461	46268.56
559.66	45840.54
559.859	45994.14
560.058	45590.69
560.258	45873.31
560.457	45432.99
560.656	46110.87
560.855	45875.35
561.054	45795.48
561.253	45349.03
561.453	45498.53
561.652	45725.85
561.851	45121.7
562.05	45152.42
562.249	45252.77
562.448	45443.23
562.647	45207.72
562.846	45136.04
563.045	44912.81
563.244	44949.67
563.443	45320.35
563.642	44468.4
563.841	44650.67
564.04	44398.77
564.239	45207.72
564.438	44284.08
564.637	44464.3
564.836	44935.34
565.035	44163.25
565.234	44734.63
565.432	44007.61
565.631	44388.53
565.83	44974.25
566.029	44333.23
566.228	43821.24
566.427	44034.23
566.625	43802.81
566.824	43456.7
567.023	44128.44
567.222	43561.15
567.42	43739.32
567.619	43628.73
567.818	43405.5
568.016	43456.7
568.215	43747.51
568.414	43552.96
568.612	43079.88
568.811	43049.16
569.01	43299.01
569.208	42281.17
569.407	43055.3
569.605	42531.02
569.804	42950.85
570.002	42522.83
570.201	42864.84
570.4	42502.35
570.598	42133.71
570.797	41990.36
570.995	42275.02
571.193	41453.79
571.392	42213.59
571.59	42131.67
571.789	41996.5
571.987	41935.06
572.186	41867.48
572.384	41461.98
572.582	41527.52
572.781	41742.55
572.979	41402.59
573.177	41564.38
573.376	41425.12
573.574	41115.87
573.772	41504.99
573.971	40931.56
574.169	40786.15
574.367	40399.08
574.565	41031.91
574.763	40573.16
574.962	40583.4
575.16	40220.91
575.358	40259.82
575.556	40038.64
575.754	40511.72
575.952	39948.53
576.151	40532.2
576.349	39819.51
576.547	39696.63
576.745	39725.3
576.943	40001.78
577.141	39188.74
577.339	39778.55
577.537	39065.86
577.735	39203.07
577.933	38873.35
578.131	39545.08
578.329	39106.82
578.527	38949.12
578.725	39127.3
578.923	38869.25
579.121	38564.1
579.319	38576.39
579.516	38660.36
579.714	38703.37
579.912	38258.96
580.11	38334.73
580.308	38721.8
580.506	37937.43
580.704	37624.09
580.901	38043.92
581.099	38162.7
581.297	37576.98
581.495	37480.73
581.692	37525.78
581.89	37089.57
582.088	37751.06
582.285	37325.08
582.483	37992.72
582.681	37277.98
582.878	37108
583.076	36686.12
583.274	37026.08
583.471	36333.87
583.669	36722.98
583.866	36223.28
584.064	37024.03
584.262	36245.8
584.459	36634.92
584.657	35828.02
584.854	36526.38
585.052	35881.27
585.249	35723.57
585.447	36081.97
585.644	35551.54
585.841	35629.37
586.039	35940.66
586.236	35412.28
586.434	35461.43
586.631	34922.82
586.828	35518.78
587.026	35404.09
587.223	35277.12
587.42	35316.03
587.618	35182.91
587.815	34582.85
588.012	34840.9
588.21	34627.91
588.407	34734.4
588.604	34363.72
588.801	34439.5
588.999	34019.66
589.196	34130.25
589.393	34310.47
589.59	34005.33
589.787	33831.25
589.984	34074.96
590.182	33849.68
590.379	33501.53
590.576	33495.38
590.773	33626.45
590.97	33460.57
591.167	33431.9
591.364	33069.4
591.561	33261.91
591.758	32866.66
591.955	32999.77
592.152	32993.63
592.349	32911.71
592.546	32915.81
592.743	32891.23
592.94	32442.73
593.137	32715.11
593.334	32715.11
593.531	32016.75
593.727	32070
593.924	32502.12
594.121	31822.19
594.318	32313.7
594.515	31631.73
594.712	31826.29
594.908	31594.87
595.105	31863.15
595.302	31568.24
595.499	31746.42
595.696	31207.8
595.892	31183.23
596.089	31252.86
596.286	31269.24
596.482	31285.62
596.679	31103.35
596.876	30939.52
597.072	30802.3
597.269	31011.2
597.466	30593.41
597.662	30511.49
597.859	30474.63
598.055	30677.38
598.252	30499.2
598.448	30376.33
598.645	30491.01
598.841	29749.65
599.038	29720.98
599.234	29766.03
599.431	29587.86
599.627	29735.31
599.824	29696.4
600.02	29258.13
600.217	30040.46
600.413	29338.01
600.609	29546.9
600.806	28965.28
601.002	29311.38
601.198	29352.34
601.395	28594.59
601.591	28748.19
601.787	29014.43
601.984	28690.85
602.18	28850.59
602.376	28545.44
602.572	28125.61
602.769	28531.11
602.965	28113.32
603.161	28490.15
603.357	28254.63
603.553	28252.58
603.75	28068.27
603.946	27867.56
604.142	27961.77
604.338	27650.48
604.534	27711.92
604.73	27605.42
604.926	27521.46
605.122	27337.14
605.318	27165.11
605.514	27318.71
605.71	27359.67
605.906	27111.86
606.102	27242.93
606.298	27122.1
606.494	27034.04
606.69	27038.14
606.886	26704.32
607.082	26704.32
607.278	26933.69
607.474	26376.64
607.67	26675.65
607.866	26595.78
608.062	26520
608.257	26403.27
608.453	26436.03
608.649	26436.03
608.845	25956.81
609.041	25938.38
609.236	25997.77
609.432	25842.12
609.628	26077.64
609.824	26161.61
610.019	25534.93
610.215	26042.82
610.411	25833.93
610.606	25747.92
610.802	25567.7
610.998	25663.95
611.193	25473.49
611.389	25305.56
611.584	25309.65
611.78	25135.57
611.976	25500.11
612.171	25381.33
612.367	25252.31
612.562	25098.71
612.758	25008.6
612.953	25027.03
613.149	25416.15
613.344	25018.84
613.539	25514.45
613.735	25002.46
613.93	24977.88
614.126	24631.77
614.321	25078.23
614.517	24828.38
614.712	24789.47
614.907	24447.46
615.103	24857.05
615.298	24420.83
615.493	24824.28
615.688	24175.08
615.884	24676.83
616.079	24345.06
616.274	24734.17
616.47	24140.26
616.665	24265.19
616.86	23833.07
617.055	24236.52
617.25	23855.59
617.445	24046.05
617.641	23843.31
617.836	23806.44
618.031	23730.67
618.226	23687.66
618.421	23454.19
618.616	23620.08
618.811	23327.22
619.006	23749.1
619.201	22872.57
619.396	23257.59
619.591	22768.12
619.786	23169.52
619.981	22917.62
620.176	23202.29
620.371	22602.24
620.566	22891
620.761	22514.17
620.956	22557.18
621.151	22069.76
621.346	22053.38
621.541	22084.1
621.735	22075.91
621.93	21850.63
622.125	22186.5
622.32	21705.23
622.515	21717.51
622.709	21658.12
622.904	21438.99
623.099	21531.15
623.294	21568.01
623.488	20763.16
623.683	21303.82
623.878	20849.18
624.072	20709.91
624.267	20769.3
624.462	20763.16
624.656	20470.3
624.851	20650.52
625.046	20378.14
625.24	20169.25
625.435	20181.54
625.629	19898.92
625.824	19847.72
626.018	19943.97
626.213	19325.49
626.407	19274.29
626.602	19464.75
626.796	19579.43
626.991	19399.21
627.185	19169.84
627.38	18983.48
627.574	19079.73
627.768	18973.24
627.963	18747.96
628.157	18475.58
628.352	18614.84
628.546	18254.4
628.74	18815.54
628.935	18172.48
629.129	18211.39
629.323	17994.31
629.517	17945.16
629.712	18145.86
629.906	17887.81
630.1	17564.23
630.294	17566.28
630.489	17496.65
630.683	17556.04
630.877	17232.46
631.071	17263.18
631.265	17306.19
631.459	16974.42
631.653	16998.99
631.848	17087.06
632.042	16841.3
632.236	16820.82
632.43	16695.89
632.624	16802.39
632.818	16521.82
633.012	16302.68
633.206	16163.42
633.4	16403.04
633.594	16259.68
633.788	16015.97
633.982	16079.46
634.176	16018.02
634.369	15843.94
634.563	15604.33
634.757	15776.36
634.951	15645.29
635.145	15587.94
635.339	15463.02
635.533	15514.22
635.726	15499.88
635.92	14885.49
636.114	14983.79
636.308	15153.77
636.501	15037.04
636.695	15149.68
636.889	14733.94
637.083	14559.86
637.276	14660.21
637.47	14672.5
637.664	14426.75
637.857	14631.54
638.051	14226.04
638.244	14316.15
638.438	14361.21
638.632	14115.45
638.825	14056.06
639.019	13963.9
639.212	13927.04
639.406	13972.1
639.599	13843.07
639.793	13744.77
639.986	13601.41
640.18	13556.36
640.373	13714.05
640.567	13388.43
640.76	13183.63
640.954	13302.41
641.147	13243.02
641.34	13349.51
641.534	13109.9
641.727	13087.37
641.92	13189.77
642.114	12968.59
642.307	12972.69
642.5	12741.27
642.694	12733.08
642.887	12581.53
643.08	12624.53
643.273	12399.26
643.467	12434.07
643.66	12364.44
643.853	12176.03
644.046	12147.36
644.239	12149.4
644.432	12018.33
644.626	11911.84
644.819	11823.78
645.012	11938.46
645.205	11868.83
645.398	11854.5
645.591	11528.87
645.784	11715.23
645.977	11545.25
646.17	11721.38
646.363	11604.64
646.556	11262.63
646.749	11389.61
646.942	11291.31
647.135	11131.56
647.328	10953.39
647.521	11111.08
647.714	11121.32
647.907	10961.58
648.099	10904.24
648.292	11150
648.485	10916.53
648.678	10658.48
648.871	10674.87
649.064	10695.35
649.256	10707.63
649.449	10519.22
649.642	10425.01
649.835	10302.14
650.027	10379.96
650.22	10187.45
650.413	10119.87
650.605	10158.78
650.798	10422.97
650.991	10035.9
651.183	10248.89
651.376	10013.37
651.568	10105.53
651.761	10101.44
651.954	9857.73
652.146	9878.21
652.339	9626.31
652.531	9751.23
652.724	9614.02
652.916	9669.31
653.109	9431.75
653.301	9550.53
653.494	9571.01
653.686	9298.63
653.879	9568.96
654.071	9257.67
654.263	9048.78
654.456	9341.64
654.648	9259.72
654.84	8901.33
655.033	9192.14
655.225	9063.12
655.417	8809.17
655.61	8989.39
655.802	9065.16
655.994	8794.83
656.186	8794.83
656.379	8700.62
656.571	8696.53
656.763	8598.23
656.955	8854.22
657.148	8602.32
657.34	8618.71
657.532	8508.12
657.724	8311.51
657.916	8262.36
658.108	8272.6
658.3	8252.12
658.492	8334.04
658.684	8170.2
658.876	8166.1
659.068	8215.26
659.26	7951.07
659.452	7985.88
659.644	7955.16
659.836	7998.17
660.028	7895.77
660.22	7793.37
660.412	7799.52
660.604	7856.86
660.796	7779.04
660.988	7742.18
661.18	7701.22
661.372	7707.36
661.563	7545.57
661.755	7406.31
661.947	7424.74
662.139	7430.88
662.331	7326.44
662.522	7449.32
662.714	7326.44
662.906	7342.82
663.097	7252.71
663.289	7308.01
663.481	7162.6
663.673	7250.66
663.864	7023.34
664.056	7056.11
664.247	7205.61
664.439	7060.2
664.631	7064.3
664.822	6955.76
665.014	7140.07
665.205	6793.97
665.397	6826.73
665.588	6818.54
665.78	6759.15
665.971	6589.17
666.163	6707.95
666.354	6701.81
666.546	6556.4
666.737	6685.42
666.929	6525.68
667.12	6660.85
667.311	6617.84
667.503	6556.4
667.694	6587.12
667.885	6431.48
668.077	6300.41
668.268	6122.23
668.459	6382.32
668.651	6226.68
668.842	6298.36
669.033	6195.96
669.224	6169.34
669.416	6130.42
669.607	6161.14
669.798	6193.91
669.989	6255.35
670.18	5942.01
670.371	6050.55
670.563	6066.94
670.754	5950.2
670.945	5876.48
671.136	6091.51
671.327	5978.87
671.518	5933.82
671.709	5978.87
671.9	5907.2
672.091	5790.46
672.282	5927.67
672.473	5657.34
672.664	5606.14
672.855	5651.2
673.046	5794.56
673.237	5714.69
673.428	5798.65
673.619	5669.63
673.809	5733.12
674	5722.88
674.191	5751.55
674.382	5591.81
674.573	5423.87
674.764	5436.16
674.954	5473.03
675.145	5335.81
675.336	5556.99
675.527	5368.58
675.717	5563.14
675.908	5481.22
676.099	5290.76
676.289	5366.53
676.48	5264.13
676.671	5268.23
676.861	5163.78
677.052	5339.91
677.243	5268.23
677.433	5155.59
677.624	5255.94
677.814	5225.22
678.005	5081.86
678.195	5286.66
678.386	5202.69
678.576	5038.86
678.767	5161.73
678.957	5098.25
679.148	5225.22
679.338	4967.18
679.529	5153.54
679.719	4862.73
679.909	5114.63
680.1	5118.73
680.29	5053.19
680.481	5065.48
680.671	5174.02
680.861	4981.51
681.052	4928.27
681.242	4985.61
681.432	4989.71
681.622	4707.09
681.813	4780.81
682.003	4895.5
682.193	4875.02
682.383	4920.07
682.573	4776.72
682.764	4760.33
682.954	4866.83
683.144	4770.57
683.334	4743.95
683.524	4756.24
683.714	4707.09
683.904	4690.7
684.094	4764.43
684.284	4733.71
684.474	4825.87
684.664	4580.11
684.854	4670.22
685.044	4764.43
685.234	4633.36
685.424	4543.25
685.614	4459.28
685.804	4551.44
685.994	4510.48
686.184	4557.58
686.374	4490
686.564	4563.73
686.753	4330.26
686.943	4504.34
687.133	4498.19
687.323	4487.95
687.513	4528.91
687.702	4393.75
687.892	4408.08
688.082	4358.93
688.272	4330.26
688.461	4285.2
688.651	4395.79
688.841	4236.05
689.03	4391.7
689.22	4248.34
689.41	4225.81
689.599	4225.81
689.789	4143.89
689.979	4191
690.168	4188.95
690.358	4170.52
690.547	4172.57
690.737	4000.54
690.926	4045.59
691.116	3992.34
691.305	4084.5
691.495	4203.29
691.684	4000.54
691.874	4006.68
692.063	3922.71
692.252	3951.39
692.442	3973.91
692.631	3951.39
692.82	3998.49
693.01	3875.61
693.199	4047.64
693.388	3742.49
693.578	3842.84
693.767	3908.38
693.956	3986.2
694.146	3871.51
694.335	3754.78
694.524	3654.43
694.713	3828.51
694.902	3777.31
695.092	3638.05
695.281	3595.04
695.47	3875.61
695.659	3595.04
695.848	3668.77
696.037	3789.6
696.226	3853.08
696.415	3644.19
696.604	3785.5
696.793	3681.05
696.982	3580.7
697.171	3605.28
697.36	3705.63
697.549	3617.57
697.738	3679.01
697.927	3617.57
698.116	3494.69
698.305	3640.09
698.494	3535.65
698.683	3597.09
698.872	3566.37
699.061	3484.45
699.25	3519.26
699.438	3578.65
699.627	3484.45
699.816	3588.89
700.005	3631.9
700.193	3541.79
700.382	3449.63
700.571	3564.32
700.76	3461.92
700.948	3504.93
701.137	3549.98
701.326	3539.74
701.514	3466.02
701.703	3472.16
701.892	3490.59
702.08	3400.48
702.269	3418.91
702.457	3443.49
702.646	3396.39
702.834	3357.47
703.023	3515.17
703.212	3349.28
703.4	3441.44
703.589	3384.1
703.777	3353.38
703.965	3277.6
704.154	3363.62
704.342	3345.19
704.531	3457.82
704.719	3388.19
704.907	3341.09
705.096	3181.35
705.284	3199.78
705.472	3267.36
705.661	3187.49
705.849	3195.68
706.037	3246.88
706.226	3199.78
706.414	3214.12
706.602	3207.97
706.79	3255.08
706.979	3195.68
707.167	3224.36
707.355	3253.03
707.543	3142.44
707.731	3081
707.919	3158.82
708.107	3115.81
708.296	3228.45
708.484	3013.42
708.672	3138.34
708.86	3060.52
709.048	3121.96
709.236	3089.19
709.424	3007.27
709.612	3113.77
709.8	3128.1
709.988	3072.81
710.176	3167.01
710.364	3119.91
710.551	3111.72
710.739	3042.09
710.927	2968.36
711.115	2884.39
711.303	2992.94
711.491	2986.79
711.679	2851.63
711.866	3044.13
712.054	2915.11
712.242	2984.74
712.43	2954.02
712.617	2868.01
712.805	2868.01
712.993	3015.46
713.181	2888.49
713.368	3058.47
713.556	3031.85
713.744	2868.01
713.931	2890.54
714.119	2958.12
714.306	2880.3
714.494	2855.72
714.682	2919.21
714.869	2865.96
715.057	2857.77
715.244	2894.63
715.432	2898.73
715.619	2745.13
715.807	2947.88
715.994	2837.29
716.182	2892.59
716.369	2794.28
716.556	2788.14
716.744	2665.26
716.931	2747.18
717.119	2802.47
717.306	2890.54
717.493	2786.09
717.681	2734.89
717.868	2814.76
718.055	2718.51
718.242	2786.09
718.43	2771.76
718.617	2827.05
718.804	2587.44
718.991	2589.49
719.179	2679.6
719.366	2859.82
719.553	2661.16
719.74	2585.39
719.927	2720.56
720.114	2612.01
720.301	2583.34
720.488	2536.24
720.676	2743.08
720.863	2646.83
721.05	2732.84
721.237	2499.38
721.424	2585.39
721.611	2589.49
721.798	2409.26
721.985	2548.53
722.172	2573.1
722.358	2526
722.545	2517.81
722.732	2616.11
722.919	2585.39
723.106	2573.1
723.293	2509.62
723.48	2605.87
723.667	2429.74
723.853	2454.32
724.04	2573.1
724.227	2511.66
724.414	2493.23
724.6	2421.55
724.787	2423.6
724.974	2425.65
725.161	2407.22
725.347	2476.85
725.534	2605.87
725.72	2472.75
725.907	2519.85
726.094	2427.7
726.28	2478.9
726.467	2411.31
726.653	2507.57
726.84	2472.75
727.027	2523.95
727.213	2241.33
727.4	2401.07
727.586	2353.97
727.773	2401.07
727.959	2274.1
728.145	2288.43
728.332	2362.16
728.518	2325.3
728.705	2343.73
728.891	2425.65
729.077	2329.39
729.264	2337.59
729.45	2229.04
729.636	2427.7
729.823	2319.15
730.009	2337.59
730.195	2278.19
730.382	2333.49
730.568	2255.67
730.754	2319.15
730.94	2188.08
731.126	2319.15
731.313	2362.16
731.499	2333.49
731.685	2212.66
731.871	2409.26
732.057	2163.51
732.243	2331.44
732.429	2190.13
732.615	2294.58
732.801	2186.04
732.987	2165.56
733.173	2200.37
733.359	2190.13
733.545	2212.66
733.731	2218.8
733.917	2224.95
734.103	2149.17
734.289	2241.33
734.475	2196.28
734.661	2204.47
734.847	2286.39
735.033	2122.55
735.219	2206.52
735.404	2255.67
735.59	2136.88
735.776	2065.21
735.962	2196.28
736.148	2222.9
736.333	2069.3
736.519	2100.02
736.705	2163.51
736.89	2151.22
737.076	2110.26
737.262	2020.15
737.447	2097.97
737.633	2112.31
737.819	2114.36
738.004	1985.34
738.19	2108.21
738.375	2009.91
738.561	2001.72
738.747	2071.35
738.932	1913.66
739.118	1979.19
739.303	1968.95
739.489	2024.25
739.674	1940.28
739.859	1923.9
740.045	2046.77
740.23	2007.86
740.416	1897.27
740.601	2040.63
740.786	1954.62
740.972	1903.42
741.157	2014.01
741.342	1835.83
741.528	1952.57
741.713	1936.18
741.898	1909.56
742.084	1911.61
742.269	1999.67
742.454	1925.94
742.639	1954.62
742.824	1915.7
743.01	1831.74
743.195	1987.38
743.38	1827.64
743.565	1934.14
743.75	1889.08
743.935	1913.66
744.12	1872.7
744.305	1905.46
744.49	1706.81
744.675	1712.96
744.86	1770.3
745.045	1794.87
745.23	1772.35
745.415	1876.79
745.6	1760.06
745.785	1698.62
745.97	1743.67
746.155	1778.49
746.34	1700.67
746.525	1696.57
746.71	1717.05
746.895	1614.65
747.079	1696.57
747.264	1639.23
747.449	1628.99
747.634	1745.72
747.819	1528.64
748.003	1598.27
748.188	1579.84
748.373	1608.51
748.557	1567.55
748.742	1674.04
748.927	1518.4
749.111	1532.73
749.296	1459.01
749.481	1581.89
749.665	1479.49
749.85	1491.77
750.034	1528.64
750.219	1430.34
750.404	1407.81
750.588	1401.66
750.773	1510.21
750.957	1387.33
751.141	1491.77
751.326	1385.28
751.51	1424.19
751.695	1389.38
751.879	1434.43
752.064	1446.72
752.248	1360.7
752.432	1420.1
752.617	1305.41
752.801	1403.71
752.985	1368.9
753.17	1356.61
753.354	1379.14
753.538	1381.18
753.722	1336.13
753.907	1205.06
754.091	1250.11
754.275	1246.02
754.459	1180.48
754.643	1160
754.828	1364.8
755.012	1203.01
755.196	1155.91
755.38	1223.49
755.564	1241.92
755.748	1239.87
755.932	1215.3
756.116	1141.57
756.3	1174.34
756.484	1205.06
756.668	1215.3
756.852	1125.19
757.036	1180.48
757.22	1190.72
757.404	1143.62
757.588	1082.18
757.772	1133.38
757.956	1145.67
758.14	1098.56
758.323	1090.37
758.507	1098.56
758.691	1125.19
758.875	996.17
759.059	1155.91
759.242	951.11
759.426	959.3
759.61	1000.26
759.794	944.97
759.977	1069.89
760.161	1082.18
760.345	1059.65
760.528	1033.03
760.712	975.69
760.895	1000.26
761.079	901.96
761.263	961.35
761.446	861
761.63	979.78
761.813	918.34
761.997	893.77
762.18	893.77
762.364	1049.41
762.547	838.47
762.731	897.86
762.914	920.39
763.098	953.16
763.281	871.24
763.464	899.91
763.648	963.4
763.831	959.3
764.015	1041.22
764.198	951.11
764.381	891.72
764.564	920.39
764.748	869.19
764.931	807.75
765.114	869.19
765.297	906.06
765.481	877.38
765.664	975.69
765.847	938.82
766.03	895.82
766.213	813.9
766.397	906.06
766.58	838.47
766.763	781.13
766.946	828.23
767.129	901.96
767.312	731.98
767.495	879.43
767.678	762.7
767.861	822.09
768.044	893.77
768.227	803.66
768.41	772.94
768.593	774.99
768.776	738.12
768.959	820.04
769.142	840.52
769.324	848.71
769.507	797.51
769.69	809.8
769.873	758.6
770.056	748.36
770.239	844.62
770.421	764.75
770.604	670.54
770.787	770.89
770.97	748.36
771.152	682.83
771.335	848.71
771.518	783.18
771.7	805.71
771.883	734.03
772.066	781.13
772.248	656.2
772.431	750.41
772.613	631.63
772.796	746.31
772.978	811.85
773.161	770.89
773.343	729.93
773.526	738.12
773.708	711.5
773.891	645.96
774.073	787.27
774.256	709.45
774.438	729.93
774.621	664.4
774.803	707.4
774.985	664.4
775.168	656.2
775.35	691.02
775.532	619.34
775.715	570.19
775.897	635.72
776.079	623.44
776.261	568.14
776.444	557.9
776.626	615.24
776.808	562
776.99	598.86
777.173	592.72
777.355	592.72
777.537	664.4
777.719	617.29
777.901	629.58
778.083	576.33
778.265	510.8
778.447	652.11
778.629	484.17
778.811	682.83
778.993	658.25
779.175	578.38
779.357	502.61
779.539	516.94
779.721	572.24
779.903	568.14
780.085	564.04
780.267	588.62
780.449	521.04
780.631	555.85
780.812	557.9
780.994	557.9
781.176	525.13
781.358	537.42
781.54	447.31
781.721	570.19
781.903	494.41
782.085	426.83
782.267	512.85
782.448	482.13
782.63	453.45
782.812	486.22
782.993	471.89
783.175	492.37
783.357	445.26
783.538	422.73
783.72	355.15
783.901	418.64
784.083	486.22
784.264	447.31
784.446	418.64
784.627	349.01
784.809	435.02
784.99	451.41
785.172	383.82
785.353	357.2
785.535	451.41
785.716	396.11
785.897	357.2
786.079	467.79
786.26	402.26
786.441	328.53
786.623	387.92
786.804	338.77
786.985	338.77
787.167	451.41
787.348	357.2
787.529	328.53
787.71	375.63
787.891	336.72
788.073	252.75
788.254	330.58
788.435	394.06
788.616	381.78
788.797	326.48
788.978	295.76
789.159	322.38
789.34	361.3
789.522	336.72
789.703	392.02
789.884	344.91
790.065	308.05
790.246	402.26
790.427	273.23
790.607	342.86
790.788	312.14
790.969	308.05
791.15	267.09
791.331	240.47
791.512	246.61
791.693	308.05
791.874	267.09
792.054	328.53
792.235	322.38
792.416	316.24
792.597	260.95
792.778	271.19
792.958	273.23
793.139	293.71
793.32	265.04
793.5	232.27
793.681	449.36
793.862	256.85
794.042	230.23
794.223	285.52
794.404	205.65
794.584	232.27
794.765	242.51
794.945	142.16
795.126	355.15
795.306	295.76
795.487	312.14
795.667	287.57
795.848	222.03
796.028	262.99
796.209	258.9
796.389	312.14
796.57	267.09
796.75	185.17
796.93	252.75
797.111	287.57
797.291	242.51
797.471	265.04
797.652	267.09
797.832	234.32
798.012	238.42
798.192	213.84
798.373	172.88
798.553	181.07
798.733	281.43
798.913	267.09
799.093	314.19
799.274	314.19
799.454	246.61
799.634	250.71
799.814	215.89
799.994	240.47
800.174	262.99
800.354	197.46
800.534	217.94
800.714	230.23
800.894	181.07
801.074	230.23
801.254	181.07
801.434	273.23
801.614	230.23
801.794	187.22
801.974	680.78
802.154	232.27
802.334	275.28
802.514	207.7
802.693	234.32
802.873	224.08
803.053	222.03
803.233	224.08
803.413	172.88
803.592	154.45
803.772	199.51
803.952	158.55
804.131	154.45
804.311	166.74
804.491	273.23
804.67	142.16
804.85	125.78
805.03	140.12
805.209	185.17
805.389	209.75
805.568	193.36
805.748	174.93
805.928	181.07
806.107	252.75
806.287	252.75
806.466	144.21
806.646	181.07
806.825	158.55
807.004	193.36
807.184	166.74
807.363	166.74
807.543	172.88
807.722	156.5
807.901	150.36
808.081	234.32
808.26	164.69
808.439	160.59
808.619	115.54
808.798	201.55
808.977	148.31
809.156	181.07
809.336	238.42
809.515	213.84
809.694	181.07
809.873	125.78
810.052	115.54
810.231	222.03
810.411	136.02
810.59	215.89
810.769	144.21
810.948	201.55
811.127	99.16
811.306	158.55
811.485	129.88
811.664	127.83
811.843	158.55
812.022	109.4
812.201	197.46
812.38	119.64
812.559	150.36
812.737	136.02
812.916	111.44
813.095	125.78
813.274	211.79
813.453	142.16
813.632	179.03
813.811	150.36
813.989	95.06
814.168	172.88
814.347	172.88
814.526	115.54
814.704	115.54
814.883	107.35
815.062	142.16
815.24	156.5
815.419	133.97
815.598	78.68
815.776	113.49
815.955	213.84
816.133	109.4
816.312	86.87
816.49	105.3
816.669	127.83
816.847	56.15
817.026	101.2
817.204	99.16
817.383	181.07
817.561	50
817.74	148.31
817.918	172.88
818.097	93.01
818.275	131.92
818.453	156.5
818.632	150.36
818.81	181.07
818.988	80.72
819.167	21.33
819.345	99.16
819.523	123.73
819.701	62.29
819.879	103.25
820.058	148.31
820.236	109.4
820.414	150.36
820.592	74.58
820.77	129.88
820.948	93.01
821.127	117.59
821.305	148.31
821.483	21.33
821.661	125.78
821.839	47.96
822.017	164.69
822.195	76.63
822.373	148.31
822.551	152.4
822.729	193.36
822.907	80.72
823.085	82.77
823.262	156.5
823.44	82.77
823.618	84.82
823.796	101.2
823.974	70.48
824.152	127.83
824.329	41.81
824.507	160.59
824.685	45.91
824.863	50
825.04	131.92
825.218	66.39
825.396	41.81
825.574	142.16
825.751	82.77
825.929	99.16
826.107	82.77
826.284	13.14
826.462	86.87
826.639	2.9
826.817	74.58
826.994	93.01
827.172	117.59
827.349	166.74
827.527	52.05
827.704	58.2
827.882	68.44
828.059	70.48
828.237	43.86
828.414	99.16
828.591	21.33
828.769	74.58
828.946	39.76
829.124	109.4
829.301	109.4
829.478	121.68
829.655	93.01
829.833	117.59
830.01	125.78
830.187	119.64
830.364	84.82
830.542	41.81
830.719	0.85
830.896	152.4
831.073	74.58
831.25	50
831.427	19.29
831.604	93.01
831.782	111.44
831.959	76.63
832.136	101.2
832.313	29.52
832.49	76.63
832.667	50
832.844	25.43
833.021	136.02
833.198	88.92
833.374	62.29
833.551	29.52
833.728	25.43
833.905	90.96
834.082	33.62
834.259	68.44
834.436	95.06
834.612	35.67
834.789	52.05
834.966	58.2
835.143	54.1
835.319	0.85
835.496	50
835.673	86.87
835.85	80.72
836.026	140.12
836.203	84.82
836.38	-5.29
836.556	90.96
836.733	52.05
836.909	133.97
837.086	-7.34
837.262	66.39
837.439	-7.34
837.616	-23.72
837.792	35.67
837.968	66.39
838.145	47.96
838.321	66.39
838.498	64.34
838.674	17.24
838.851	11.09
839.027	41.81
839.203	0.85
839.38	45.91
839.556	25.43
839.732	58.2
839.909	88.92
840.085	66.39
840.261	39.76
840.437	17.24
840.614	27.48
840.79	90.96
840.966	66.39
841.142	29.52
841.318	21.33
841.494	66.39
841.671	74.58
841.847	-19.63
842.023	84.82
842.199	90.96
842.375	64.34
842.551	33.62
842.727	-19.63
842.903	99.16
843.079	-5.29
843.255	31.57
843.431	64.34
843.607	107.35
843.783	23.38
843.959	-7.34
844.134	11.09
844.31	35.67
844.486	37.72
844.662	90.96
844.838	74.58
845.013	86.87
845.189	70.48
845.365	64.34
845.541	58.2
845.716	41.81
845.892	58.2
846.068	47.96
846.244	-5.29
846.419	90.96
846.595	0.85
846.77	35.67
846.946	33.62
847.122	19.29
847.297	86.87
847.473	45.91
847.648	58.2
847.824	66.39
847.999	-105.64
848.175	107.35
848.35	35.67
848.526	52.05
848.701	95.06
848.876	-27.82
849.052	66.39
849.227	4.95
849.403	0.85
849.578	-42.15
849.753	72.53
849.929	82.77
850.104	-7.34
850.279	31.57
850.454	17.24
850.63	86.87
850.805	68.44
850.98	-9.39
851.155	-23.72
851.33	-38.06
851.505	58.2
851.681	93.01
851.856	29.52
852.031	103.25
852.206	-27.82
852.381	23.38
852.556	0.85
852.731	90.96
852.906	60.24
853.081	35.67
853.256	-9.39
853.431	11.09
853.606	9.05
853.781	41.81
853.956	-38.06
854.131	78.68
854.305	-1.19
854.48	-36.01
854.655	50
854.83	60.24
855.005	33.62
855.18	54.1
855.354	41.81
855.529	27.48
855.704	76.63
855.879	15.19
856.053	43.86
856.228	68.44
856.403	19.29
856.577	103.25
856.752	23.38
856.926	23.38
857.101	-29.87
857.276	-15.53
857.45	95.06
857.625	0.85
857.799	56.15
857.974	29.52
858.148	-64.68
858.323	66.39
858.497	17.24
858.672	-31.91
858.846	82.77
859.02	45.91
859.195	-23.72
859.369	17.24
859.543	90.96
859.718	-13.48
859.892	4.95
860.066	-31.91
860.241	-7.34
860.415	25.43
860.589	-7.34
860.763	-15.53
860.938	17.24
861.112	86.87
861.286	23.38
861.46	52.05
861.634	25.43
861.808	25.43
861.982	-46.25
862.157	-40.11
862.331	74.58
862.505	-15.53
862.679	17.24
862.853	-13.48
863.027	-36.01
863.201	136.02
863.375	-48.3
863.549	-31.91
863.722	52.05
863.896	93.01
864.07	-15.53
864.244	9.05
864.418	-11.43
864.592	13.14
864.766	37.72
864.939	50
865.113	-72.87
865.287	50
865.461	15.19
865.634	41.81
865.808	45.91
865.982	0.85
866.156	-9.39
866.329	0.85
866.503	29.52
866.676	-81.07
866.85	-9.39
867.024	2.9
867.197	50
867.371	76.63
867.544	-29.87
867.718	9.05
867.891	45.91
868.065	11.09
868.238	60.24
868.412	50
868.585	7
868.759	66.39
868.932	-66.73
869.105	-36.01
869.279	-7.34
869.452	15.19
869.625	9.05
869.799	-42.15
869.972	15.19
870.145	41.81
870.319	68.44
870.492	-46.25
870.665	33.62
870.838	-7.34
871.011	17.24
871.185	45.91
871.358	50
871.531	-31.91
871.704	70.48
871.877	-5.29
872.05	33.62
872.223	21.33
872.396	-46.25
872.569	33.62
872.742	84.82
872.915	84.82
873.088	35.67
873.261	0.85
873.434	33.62
873.607	-27.82
873.78	54.1
873.953	58.2
874.126	-7.34
874.299	0.85
874.471	2.9
874.644	9.05
874.817	-5.29
874.99	37.72
875.163	-29.87
875.335	-40.11
875.508	-3.24
875.681	82.77
875.853	-3.24
876.026	-40.11
876.199	0.85
876.371	-7.34
876.544	7
876.717	52.05
876.889	2.9
877.062	-21.67
877.234	-7.34
877.407	45.91
877.579	50
877.752	25.43
877.924	-23.72
878.097	-7.34
878.269	-33.96
878.442	-38.06
878.614	19.29
878.786	4.95
878.959	54.1
879.131	23.38
879.303	2.9
879.476	23.38
879.648	37.72
879.82	58.2
879.993	-21.67
880.165	2.9
880.337	-70.83
880.509	0.85
880.681	-21.67
880.854	-19.63
881.026	-25.77
881.198	68.44
881.37	-56.49
881.542	-23.72
881.714	-17.58
881.886	-1.19
882.058	-21.67
882.23	50
882.402	-13.48
882.574	17.24
882.746	-3.24
882.918	21.33
883.09	-15.53
883.262	27.48
883.434	-56.49
883.606	-31.91
883.778	50
883.95	54.1
884.122	58.2
884.293	-13.48
884.465	76.63
884.637	11.09
884.809	-40.11
884.98	60.24
885.152	-21.67
885.324	-25.77
885.496	13.14
885.667	29.52
885.839	-38.06
886.011	11.09
886.182	25.43
886.354	-5.29
886.525	25.43
886.697	11.09
886.869	-40.11
887.04	64.34
887.212	-19.63
887.383	82.77
887.555	-5.29
887.726	-7.34
887.897	58.2
888.069	4.95
888.24	19.29
888.412	80.72
888.583	-72.87
888.754	45.91
888.926	0.85
889.097	33.62
889.268	17.24
889.44	23.38
889.611	82.77
889.782	-42.15
889.953	9.05
890.125	74.58
890.296	52.05
890.467	21.33
890.638	31.57
890.809	-31.91
890.98	23.38
891.151	-7.34
891.323	54.1
891.494	13.14
891.665	13.14
891.836	29.52
892.007	-64.68
892.178	25.43
892.349	-40.11
892.52	-15.53
892.691	-13.48
892.862	-19.63
893.032	-40.11
893.203	19.29
893.374	-3.24
893.545	56.15
893.716	95.06
893.887	0.85
894.057	-72.87
894.228	2.9
894.399	-23.72
894.57	47.96
894.74	-29.87
894.911	-7.34
895.082	39.76
895.253	2.9
895.423	-31.91
895.594	-15.53
895.764	41.81
895.935	-113.83
896.106	33.62
896.276	4.95
896.447	82.77
896.617	-81.07
896.788	-38.06
896.958	19.29
897.129	27.48
897.299	-21.67
897.47	-31.91
897.64	41.81
897.81	70.48
897.981	-7.34
898.151	-27.82
898.322	25.43
898.492	-13.48
898.662	62.29
898.832	-23.72
899.003	78.68
899.173	-15.53
899.343	-13.48
899.513	-48.3
