Data from USB4F104151__268__14-23-13-228.txt Node

Date: Thu Mar 13 14:23:13 EDT 2025
User: louis
Spectrometer: USB4F10415
Trigger mode: 4
Integration Time (sec): 2.000000E-2
Scans to average: 1
Electric dark correction enabled: true
Nonlinearity correction enabled: false
Boxcar width: 0
XAxis mode: Wavelengths
Number of Pixels in Spectrum: 3648
>>>>>Begin Spectral Data<<<<<
178.204	-98.47
178.424	-98.47
178.644	-98.47
178.864	-65.71
179.084	-112.81
179.304	-0.17
179.524	5.97
179.744	3.93
179.964	-6.31
180.184	-32.94
180.404	18.26
180.624	-0.17
180.844	24.4
181.064	-28.84
181.283	-20.65
181.503	3.93
181.723	32.6
181.943	-57.51
182.163	8.02
182.383	10.07
182.602	77.65
182.822	34.64
183.042	10.07
183.262	-0.17
183.482	40.79
183.701	3.93
183.921	24.4
184.141	-16.55
184.361	83.8
184.58	20.31
184.8	-22.7
185.02	-55.47
185.239	85.84
185.459	3.93
185.679	-0.17
185.898	-118.95
186.118	106.32
186.338	24.4
186.557	48.98
186.777	-4.27
186.997	-82.09
187.216	44.88
187.436	61.27
187.655	-20.65
187.875	-0.17
188.095	18.26
188.314	91.99
188.534	48.98
188.753	-30.89
188.973	-22.7
189.192	36.69
189.412	24.4
189.631	-8.36
189.851	16.21
190.07	32.6
190.29	-8.36
190.509	-24.75
190.729	-4.27
190.948	59.22
191.168	48.98
191.387	-14.51
191.607	-53.42
191.826	30.55
192.045	-32.94
192.265	48.98
192.484	-10.41
192.704	77.65
192.923	20.31
193.142	18.26
193.362	53.08
193.581	128.85
193.8	18.26
194.02	-8.36
194.239	36.69
194.458	26.45
194.678	-16.55
194.897	24.4
195.116	44.88
195.335	20.31
195.555	-16.55
195.774	44.88
195.993	20.31
196.212	26.45
196.432	-14.51
196.651	8.02
196.87	34.64
197.089	89.94
197.308	-37.03
197.528	51.03
197.747	-24.75
197.966	8.02
198.185	40.79
198.404	26.45
198.623	8.02
198.842	42.84
199.062	61.27
199.281	36.69
199.5	-0.17
199.719	40.79
199.938	1.88
200.157	75.6
200.376	40.79
200.595	40.79
200.814	63.32
201.033	18.26
201.252	73.56
201.471	44.88
201.69	81.75
201.909	51.03
202.128	32.6
202.347	34.64
202.566	75.6
202.785	-4.27
203.004	-12.46
203.223	10.07
203.442	16.21
203.661	26.45
203.879	-20.65
204.098	10.07
204.317	-6.31
204.536	32.6
204.755	69.46
204.974	53.08
205.193	22.36
205.411	89.94
205.63	12.12
205.849	36.69
206.068	57.17
206.287	8.02
206.505	77.65
206.724	32.6
206.943	10.07
207.162	-12.46
207.381	-39.08
207.599	87.89
207.818	34.64
208.037	-12.46
208.255	-0.17
208.474	20.31
208.693	12.12
208.911	-12.46
209.13	102.23
209.349	20.31
209.567	65.36
209.786	114.52
210.005	-12.46
210.223	16.21
210.442	36.69
210.661	5.97
210.879	40.79
211.098	73.56
211.316	5.97
211.535	75.6
211.753	81.75
211.972	63.32
212.191	48.98
212.409	22.36
212.628	40.79
212.846	59.22
213.065	-43.18
213.283	32.6
213.502	-32.94
213.72	12.12
213.938	44.88
214.157	59.22
214.375	-22.7
214.594	8.02
214.812	10.07
215.031	-8.36
215.249	-34.99
215.467	18.26
215.686	89.94
215.904	12.12
216.122	24.4
216.341	83.8
216.559	69.46
216.778	73.56
216.996	44.88
217.214	26.45
217.432	-32.94
217.651	32.6
217.869	48.98
218.087	8.02
218.306	-51.37
218.524	73.56
218.742	-45.23
218.96	65.36
219.179	-80.04
219.397	59.22
219.615	73.56
219.833	32.6
220.051	30.55
220.27	59.22
220.488	-0.17
220.706	94.04
220.924	-8.36
221.142	-28.84
221.36	8.02
221.578	32.6
221.796	40.79
222.015	26.45
222.233	18.26
222.451	36.69
222.669	8.02
222.887	122.71
223.105	14.17
223.323	-8.36
223.541	-8.36
223.759	28.5
223.977	-0.17
224.195	57.17
224.413	-6.31
224.631	73.56
224.849	81.75
225.067	77.65
225.285	20.31
225.503	63.32
225.721	-57.51
225.939	65.36
226.157	-24.75
226.375	71.51
226.592	-4.27
226.81	-28.84
227.028	73.56
227.246	61.27
227.464	83.8
227.682	10.07
227.9	57.17
228.117	75.6
228.335	-49.32
228.553	26.45
228.771	79.7
228.989	38.74
229.206	24.4
229.424	51.03
229.642	10.07
229.86	40.79
230.077	-28.84
230.295	57.17
230.513	42.84
230.731	36.69
230.948	44.88
231.166	65.36
231.384	42.84
231.601	-8.36
231.819	20.31
232.037	34.64
232.254	-41.13
232.472	53.08
232.689	36.69
232.907	32.6
233.125	28.5
233.342	46.93
233.56	5.97
233.777	-8.36
233.995	42.84
234.213	114.52
234.43	-12.46
234.648	26.45
234.865	-20.65
235.083	59.22
235.3	-39.08
235.518	73.56
235.735	48.98
235.953	100.18
236.17	24.4
236.388	-24.75
236.605	-6.31
236.822	89.94
237.04	32.6
237.257	55.12
237.475	8.02
237.692	-47.27
237.909	40.79
238.127	16.21
238.344	40.79
238.562	16.21
238.779	-22.7
238.996	12.12
239.214	16.21
239.431	132.95
239.648	-10.41
239.865	-28.84
240.083	24.4
240.3	12.12
240.517	18.26
240.735	-6.31
240.952	40.79
241.169	63.32
241.386	102.23
241.603	-37.03
241.821	48.98
242.038	57.17
242.255	63.32
242.472	42.84
242.689	91.99
242.907	24.4
243.124	51.03
243.341	24.4
243.558	-65.71
243.775	73.56
243.992	-53.42
244.209	69.46
244.426	149.33
244.643	24.4
244.86	-24.75
245.078	-47.27
245.295	55.12
245.512	40.79
245.729	18.26
245.946	-16.55
246.163	18.26
246.38	28.5
246.597	8.02
246.814	-37.03
247.031	-41.13
247.248	22.36
247.464	24.4
247.681	-22.7
247.898	-6.31
248.115	24.4
248.332	14.17
248.549	10.07
248.766	77.65
248.983	59.22
249.2	-6.31
249.417	104.28
249.633	20.31
249.85	40.79
250.067	22.36
250.284	46.93
250.501	28.5
250.717	-77.99
250.934	8.02
251.151	1.88
251.368	40.79
251.585	12.12
251.801	3.93
252.018	-16.55
252.235	24.4
252.451	42.84
252.668	-8.36
252.885	75.6
253.102	44.88
253.318	28.5
253.535	65.36
253.752	-16.55
253.968	-0.17
254.185	-69.8
254.401	122.71
254.618	28.5
254.835	-28.84
255.051	8.02
255.268	-22.7
255.484	26.45
255.701	-8.36
255.917	61.27
256.134	-0.17
256.351	128.85
256.567	57.17
256.784	-14.51
257	8.02
257.217	85.84
257.433	51.03
257.65	89.94
257.866	106.32
258.082	46.93
258.299	-41.13
258.515	44.88
258.732	22.36
258.948	-4.27
259.165	40.79
259.381	-16.55
259.597	44.88
259.814	53.08
260.03	32.6
260.246	44.88
260.463	51.03
260.679	-41.13
260.895	28.5
261.112	126.8
261.328	18.26
261.544	-4.27
261.761	16.21
261.977	16.21
262.193	-6.31
262.409	32.6
262.626	55.12
262.842	81.75
263.058	42.84
263.274	65.36
263.49	81.75
263.707	73.56
263.923	40.79
264.139	40.79
264.355	65.36
264.571	61.27
264.787	18.26
265.004	22.36
265.22	36.69
265.436	94.04
265.652	12.12
265.868	32.6
266.084	-37.03
266.3	40.79
266.516	1.88
266.732	-55.47
266.948	8.02
267.164	-8.36
267.38	-14.51
267.596	-0.17
267.812	16.21
268.028	-0.17
268.244	48.98
268.46	12.12
268.676	75.6
268.892	53.08
269.108	10.07
269.324	-16.55
269.54	10.07
269.756	83.8
269.972	-4.27
270.188	-0.17
270.403	32.6
270.619	34.64
270.835	12.12
271.051	34.64
271.267	108.37
271.483	1.88
271.698	10.07
271.914	40.79
272.13	3.93
272.346	65.36
272.562	10.07
272.777	-8.36
272.993	48.98
273.209	65.36
273.425	-77.99
273.64	22.36
273.856	40.79
274.072	3.93
274.287	16.21
274.503	73.56
274.719	8.02
274.934	73.56
275.15	-6.31
275.366	42.84
275.581	-32.94
275.797	8.02
276.012	53.08
276.228	14.17
276.444	-28.84
276.659	73.56
276.875	-32.94
277.09	26.45
277.306	-6.31
277.521	-4.27
277.737	61.27
277.952	20.31
278.168	106.32
278.383	38.74
278.599	63.32
278.814	65.36
279.03	16.21
279.245	34.64
279.461	-20.65
279.676	48.98
279.892	-0.17
280.107	51.03
280.322	-65.71
280.538	22.36
280.753	-55.47
280.969	46.93
281.184	-49.32
281.399	81.75
281.615	75.6
281.83	51.03
282.045	-24.75
282.26	42.84
282.476	-6.31
282.691	48.98
282.906	55.12
283.122	34.64
283.337	-41.13
283.552	10.07
283.767	14.17
283.983	98.13
284.198	-24.75
284.413	36.69
284.628	-49.32
284.843	73.56
285.058	61.27
285.274	10.07
285.489	42.84
285.704	81.75
285.919	42.84
286.134	10.07
286.349	-14.51
286.564	26.45
286.779	44.88
286.995	24.4
287.21	16.21
287.425	122.71
287.64	-18.6
287.855	89.94
288.07	36.69
288.285	38.74
288.5	57.17
288.715	42.84
288.93	34.64
289.145	79.7
289.36	65.36
289.575	18.26
289.79	24.4
290.004	8.02
290.219	8.02
290.434	67.41
290.649	-14.51
290.864	42.84
291.079	10.07
291.294	14.17
291.509	-45.23
291.724	12.12
291.938	51.03
292.153	8.02
292.368	36.69
292.583	8.02
292.798	28.5
293.012	1.88
293.227	40.79
293.442	8.02
293.657	71.51
293.871	69.46
294.086	-8.36
294.301	73.56
294.516	48.98
294.73	40.79
294.945	26.45
295.16	8.02
295.374	114.52
295.589	14.17
295.804	61.27
296.018	75.6
296.233	42.84
296.447	8.02
296.662	44.88
296.877	10.07
297.091	83.8
297.306	1.88
297.52	10.07
297.735	48.98
297.949	48.98
298.164	8.02
298.378	-32.94
298.593	81.75
298.807	42.84
299.022	59.22
299.236	12.12
299.451	51.03
299.665	83.8
299.88	67.41
300.094	-2.22
300.309	20.31
300.523	65.36
300.737	-37.03
300.952	53.08
301.166	-0.17
301.381	-24.75
301.595	-28.84
301.809	46.93
302.024	-6.31
302.238	-4.27
302.452	30.55
302.667	-8.36
302.881	71.51
303.095	42.84
303.309	14.17
303.524	-30.89
303.738	-34.99
303.952	34.64
304.166	32.6
304.381	20.31
304.595	102.23
304.809	14.17
305.023	3.93
305.237	48.98
305.452	-4.27
305.666	34.64
305.88	34.64
306.094	57.17
306.308	24.4
306.522	18.26
306.736	42.84
306.95	44.88
307.164	81.75
307.379	24.4
307.593	98.13
307.807	34.64
308.021	3.93
308.235	-16.55
308.449	-26.79
308.663	28.5
308.877	61.27
309.091	48.98
309.305	69.46
309.519	-45.23
309.733	83.8
309.947	-8.36
310.161	91.99
310.374	-6.31
310.588	75.6
310.802	24.4
311.016	-18.6
311.23	73.56
311.444	8.02
311.658	-24.75
311.872	77.65
312.085	118.61
312.299	147.28
312.513	79.7
312.727	-6.31
312.941	32.6
313.154	32.6
313.368	40.79
313.582	-12.46
313.796	110.42
314.009	-0.17
314.223	104.28
314.437	98.13
314.651	34.64
314.864	-28.84
315.078	26.45
315.292	34.64
315.505	116.56
315.719	69.46
315.933	-6.31
316.146	-20.65
316.36	8.02
316.573	69.46
316.787	-16.55
317.001	-6.31
317.214	12.12
317.428	44.88
317.641	38.74
317.855	73.56
318.068	59.22
318.282	48.98
318.495	79.7
318.709	100.18
318.922	-6.31
319.136	16.21
319.349	26.45
319.563	-30.89
319.776	112.47
319.99	-37.03
320.203	69.46
320.417	20.31
320.63	24.4
320.843	155.47
321.057	-75.95
321.27	3.93
321.483	-24.75
321.697	-4.27
321.91	-0.17
322.124	18.26
322.337	81.75
322.55	16.21
322.763	3.93
322.977	-14.51
323.19	40.79
323.403	42.84
323.617	-10.41
323.83	36.69
324.043	-41.13
324.256	110.42
324.469	-14.51
324.683	130.9
324.896	46.93
325.109	16.21
325.322	12.12
325.535	75.6
325.748	5.97
325.962	124.76
326.175	-14.51
326.388	-41.13
326.601	108.37
326.814	32.6
327.027	18.26
327.24	106.32
327.453	32.6
327.666	-6.31
327.879	24.4
328.092	98.13
328.305	14.17
328.518	-61.61
328.731	-4.27
328.944	22.36
329.157	42.84
329.37	44.88
329.583	59.22
329.796	57.17
330.009	-49.32
330.222	12.12
330.435	36.69
330.648	81.75
330.861	14.17
331.073	87.89
331.286	89.94
331.499	48.98
331.712	98.13
331.925	44.88
332.138	34.64
332.35	65.36
332.563	26.45
332.776	-8.36
332.989	-8.36
333.202	20.31
333.414	59.22
333.627	89.94
333.84	40.79
334.053	22.36
334.265	51.03
334.478	36.69
334.691	22.36
334.903	38.74
335.116	3.93
335.329	12.12
335.541	75.6
335.754	91.99
335.966	-8.36
336.179	38.74
336.392	8.02
336.604	-16.55
336.817	89.94
337.029	28.5
337.242	40.79
337.454	48.98
337.667	10.07
337.88	18.26
338.092	20.31
338.305	61.27
338.517	-24.75
338.729	57.17
338.942	-12.46
339.154	24.4
339.367	18.26
339.579	16.21
339.792	59.22
340.004	48.98
340.217	18.26
340.429	100.18
340.641	8.02
340.854	-22.7
341.066	120.66
341.278	87.89
341.491	98.13
341.703	1.88
341.915	-6.31
342.128	1.88
342.34	42.84
342.552	55.12
342.764	-8.36
342.977	59.22
343.189	-20.65
343.401	-8.36
343.613	20.31
343.826	48.98
344.038	-12.46
344.25	18.26
344.462	10.07
344.674	-10.41
344.886	-16.55
345.099	63.32
345.311	14.17
345.523	81.75
345.735	1.88
345.947	-8.36
346.159	-20.65
346.371	-16.55
346.583	10.07
346.795	12.12
347.007	53.08
347.219	100.18
347.431	38.74
347.643	-30.89
347.855	24.4
348.067	8.02
348.279	3.93
348.491	-37.03
348.703	40.79
348.915	65.36
349.127	1.88
349.339	57.17
349.551	10.07
349.763	-24.75
349.975	71.51
350.187	106.32
350.399	108.37
350.61	-41.13
350.822	65.36
351.034	-24.75
351.246	-24.75
351.458	48.98
351.669	73.56
351.881	61.27
352.093	94.04
352.305	-34.99
352.517	81.75
352.728	75.6
352.94	16.21
353.152	-0.17
353.363	34.64
353.575	10.07
353.787	28.5
353.999	18.26
354.21	16.21
354.422	-22.7
354.633	16.21
354.845	69.46
355.057	96.08
355.268	48.98
355.48	67.41
355.692	16.21
355.903	44.88
356.115	28.5
356.326	44.88
356.538	67.41
356.749	81.75
356.961	116.56
357.172	18.26
357.384	24.4
357.595	67.41
357.807	65.36
358.018	-14.51
358.23	57.17
358.441	34.64
358.653	-6.31
358.864	53.08
359.075	73.56
359.287	26.45
359.498	83.8
359.709	48.98
359.921	-20.65
360.132	48.98
360.344	24.4
360.555	8.02
360.766	77.65
360.977	-6.31
361.189	79.7
361.4	46.93
361.611	-41.13
361.823	69.46
362.034	112.47
362.245	63.32
362.456	42.84
362.667	42.84
362.879	59.22
363.09	18.26
363.301	10.07
363.512	30.55
363.723	26.45
363.935	-0.17
364.146	75.6
364.357	1.88
364.568	-55.47
364.779	-8.36
364.99	81.75
365.201	106.32
365.412	83.8
365.623	-24.75
365.834	44.88
366.045	73.56
366.256	67.41
366.467	18.26
366.678	77.65
366.889	67.41
367.1	-34.99
367.311	48.98
367.522	112.47
367.733	55.12
367.944	116.56
368.155	36.69
368.366	75.6
368.577	118.61
368.788	42.84
368.999	42.84
369.209	12.12
369.42	48.98
369.631	110.42
369.842	40.79
370.053	32.6
370.264	59.22
370.474	63.32
370.685	102.23
370.896	3.93
371.107	30.55
371.317	69.46
371.528	32.6
371.739	100.18
371.95	28.5
372.16	69.46
372.371	24.4
372.582	20.31
372.792	16.21
373.003	98.13
373.214	8.02
373.424	34.64
373.635	-75.95
373.846	83.8
374.056	42.84
374.267	30.55
374.477	77.65
374.688	114.52
374.898	20.31
375.109	8.02
375.319	38.74
375.53	1.88
375.74	65.36
375.951	28.5
376.161	-14.51
376.372	106.32
376.582	85.84
376.793	36.69
377.003	73.56
377.214	34.64
377.424	57.17
377.635	67.41
377.845	22.36
378.055	16.21
378.266	-14.51
378.476	34.64
378.686	98.13
378.897	42.84
379.107	75.6
379.317	73.56
379.528	32.6
379.738	20.31
379.948	3.93
380.158	48.98
380.369	24.4
380.579	55.12
380.789	59.22
380.999	57.17
381.21	91.99
381.42	69.46
381.63	44.88
381.84	42.84
382.05	110.42
382.261	48.98
382.471	42.84
382.681	65.36
382.891	24.4
383.101	81.75
383.311	-4.27
383.521	10.07
383.731	126.8
383.941	81.75
384.151	-57.51
384.361	65.36
384.571	98.13
384.781	139.09
384.991	14.17
385.201	24.4
385.411	48.98
385.621	3.93
385.831	65.36
386.041	-12.46
386.251	40.79
386.461	48.98
386.671	57.17
386.881	81.75
387.091	-24.75
387.301	110.42
387.511	38.74
387.72	77.65
387.93	71.51
388.14	77.65
388.35	73.56
388.56	102.23
388.769	106.32
388.979	46.93
389.189	3.93
389.399	65.36
389.609	104.28
389.818	112.47
390.028	108.37
390.238	122.71
390.447	100.18
390.657	83.8
390.867	114.52
391.076	126.8
391.286	48.98
391.496	63.32
391.705	32.6
391.915	38.74
392.125	36.69
392.334	67.41
392.544	124.76
392.753	67.41
392.963	26.45
393.172	8.02
393.382	40.79
393.591	12.12
393.801	75.6
394.01	165.71
394.22	102.23
394.429	110.42
394.639	77.65
394.848	83.8
395.058	75.6
395.267	89.94
395.477	112.47
395.686	143.19
395.895	104.28
396.105	16.21
396.314	151.38
396.524	69.46
396.733	151.38
396.942	98.13
397.152	69.46
397.361	98.13
397.57	69.46
397.78	122.71
397.989	143.19
398.198	182.1
398.407	44.88
398.617	114.52
398.826	151.38
399.035	73.56
399.244	196.43
399.453	75.6
399.663	126.8
399.872	89.94
400.081	89.94
400.29	165.71
400.499	53.08
400.708	65.36
400.917	94.04
401.127	130.9
401.336	137.04
401.545	118.61
401.754	139.09
401.963	139.09
402.172	124.76
402.381	65.36
402.59	91.99
402.799	137.04
403.008	143.19
403.217	182.1
403.426	143.19
403.635	155.47
403.844	91.99
404.053	188.24
404.262	122.71
404.471	130.9
404.68	141.14
404.888	151.38
405.097	139.09
405.306	149.33
405.515	173.91
405.724	155.47
405.933	155.47
406.142	114.52
406.35	159.57
406.559	198.48
406.768	167.76
406.977	245.59
407.185	225.11
407.394	206.67
407.603	182.1
407.812	186.19
408.02	147.28
408.229	282.45
408.438	190.29
408.646	257.87
408.855	192.34
409.064	182.1
409.272	286.54
409.481	327.5
409.69	212.82
409.898	202.58
410.107	304.98
410.315	278.35
410.524	319.31
410.733	368.46
410.941	335.7
411.15	331.6
411.358	378.7
411.567	362.32
411.775	376.66
411.984	376.66
412.192	390.99
412.401	417.61
412.609	530.25
412.818	429.9
413.026	454.48
413.234	452.43
413.443	509.77
413.651	501.58
413.86	560.97
414.068	526.16
414.276	567.12
414.485	548.68
414.693	591.69
414.901	646.99
415.11	698.19
415.318	706.38
415.526	634.7
415.734	749.39
415.943	737.1
416.151	870.22
416.359	806.73
416.567	859.98
416.776	884.55
416.984	970.57
417.192	982.85
417.4	939.85
417.608	964.42
417.817	952.13
418.025	1027.91
418.233	1081.16
418.441	1122.12
418.649	1187.65
418.857	1253.19
419.065	1238.85
419.273	1269.57
419.481	1255.23
419.689	1322.82
419.897	1410.88
420.105	1494.85
420.313	1482.56
420.521	1515.33
420.729	1519.42
420.937	1537.85
421.145	1648.44
421.353	1709.88
421.561	1914.68
421.769	1863.48
421.977	1859.38
422.185	2027.32
422.393	2090.81
422.601	2000.69
422.809	2115.38
423.017	2170.68
423.224	2295.6
423.432	2428.72
423.64	2299.7
423.848	2576.17
424.056	2588.46
424.263	2635.57
424.471	2590.51
424.679	2778.92
424.887	2748.2
425.094	3022.63
425.302	2991.91
425.51	3100.45
425.718	3260.2
425.925	3245.86
426.133	3481.38
426.341	3460.9
426.548	3540.77
426.756	3761.95
426.964	3757.85
427.171	3893.02
427.379	4128.53
427.586	4075.29
427.794	4161.3
428.001	4423.44
428.209	4640.53
428.417	4570.9
428.624	4898.57
428.832	4908.81
429.039	4851.47
429.247	4906.76
429.454	5498.63
429.662	5568.26
429.869	5263.11
430.076	5846.78
430.284	5488.39
430.491	5787.39
430.699	6211.32
430.906	5998.33
431.114	6192.89
431.321	6369.01
431.528	6522.61
431.736	6747.89
431.943	7184.1
432.15	7007.98
432.358	7118.57
432.565	7489.25
432.772	7257.83
432.979	7829.21
433.187	7794.4
433.394	7872.22
433.601	8462.04
433.808	8466.13
434.016	8341.21
434.223	8947.4
434.43	9324.23
434.637	9307.85
434.844	9780.93
435.052	9922.24
435.259	9828.03
435.466	9883.33
435.673	9944.77
435.88	10604.21
436.087	11067.05
436.294	10911.41
436.501	10849.97
436.708	10970.8
436.915	11503.27
437.122	11749.03
437.329	11888.29
437.537	12539.54
437.743	12469.91
437.95	12306.07
438.157	13020.81
438.364	13321.87
438.571	13491.85
438.778	13344.39
438.985	14628.47
439.192	14182.01
439.399	14628.47
439.606	14331.51
439.813	15152.75
440.02	15881.83
440.227	15523.43
440.433	15554.15
440.64	15855.2
440.847	15947.36
441.054	16264.8
441.261	17311.31
441.467	17030.74
441.674	17499.72
441.881	18024
442.088	18128.45
442.294	17888.84
442.501	18478.65
442.708	18624.06
442.914	19275.31
443.121	20164.13
443.328	19922.47
443.534	21102.1
443.741	20581.92
443.948	20145.7
444.154	21599.76
444.361	21212.69
444.568	21601.8
444.774	21663.24
444.981	21972.49
445.187	22568.44
445.394	23549.42
445.6	23336.43
445.807	25443.79
446.013	24595.93
446.22	24593.89
446.426	25679.31
446.633	26013.13
446.839	26863.04
447.046	25794
447.252	27309.49
447.459	27284.92
447.665	26830.27
447.871	28003.75
448.078	29642.13
448.284	28140.97
448.491	28886.43
448.697	30213.51
448.903	30569.86
449.11	30571.91
449.316	29885.84
449.522	30383.49
449.728	31391.09
449.935	31440.25
450.141	31737.2
450.347	32445.8
450.553	31014.27
450.76	31888.75
450.966	33066.33
451.172	32640.36
451.378	33471.83
451.584	32677.22
451.791	33342.81
451.997	33533.27
452.203	34037.07
452.409	33746.26
452.615	33723.73
452.821	32185.71
453.027	32142.7
453.233	33903.95
453.44	32777.57
453.646	32892.26
453.852	33344.86
454.058	33635.67
454.264	32429.41
454.47	33424.73
454.676	32335.21
454.882	33705.3
455.088	30879.1
455.294	31208.83
455.5	31630.71
455.705	31976.81
455.911	30682.5
456.117	30268.81
456.323	29742.48
456.529	28231.08
456.735	29328.79
456.941	28738.97
457.147	28296.61
457.352	27454.9
457.558	27377.08
457.764	27493.81
457.97	27065.78
458.176	26351.04
458.381	26518.98
458.587	24616.41
458.793	24780.25
458.999	23743.98
459.204	25439.7
459.41	24655.33
459.616	23242.23
459.821	23115.25
460.027	22830.58
460.233	22838.78
460.438	21566.99
460.644	21812.74
460.85	20753.94
461.055	20561.44
461.261	20313.63
461.466	18603.58
461.672	18148.93
461.878	19631.66
462.083	18454.08
462.289	17897.03
462.494	17696.33
462.7	17190.48
462.905	16442.97
463.111	17135.18
463.316	17233.49
463.522	16662.1
463.727	16899.67
463.932	16877.14
464.138	16543.32
464.343	16866.9
464.549	16189.02
464.754	16713.3
464.959	16641.62
465.165	16268.89
465.37	16014.94
465.575	15502.95
465.781	16162.4
465.986	16076.38
466.191	15408.75
466.397	15105.65
466.602	14315.13
466.807	15171.18
467.012	14802.55
467.218	14900.85
467.423	14837.36
467.628	15079.02
467.833	15427.18
468.038	14909.04
468.244	14378.62
468.449	15206
468.654	14691.96
468.859	14458.49
469.064	14487.16
469.269	13880.96
469.474	13813.38
469.679	14282.36
469.885	13637.25
470.09	14007.94
470.295	14134.91
470.5	13418.12
470.705	13803.14
470.91	13475.46
471.115	13172.36
471.32	13479.56
471.525	13334.15
471.73	12945.04
471.935	12996.24
472.139	12441.24
472.344	12895.89
472.549	12707.48
472.754	12478.1
472.959	12273.31
473.164	11941.54
473.369	11871.9
473.574	12324.51
473.778	11935.39
473.983	12015.26
474.188	11951.77
474.393	11398.82
474.598	11615.91
474.802	11480.74
475.007	11290.28
475.212	11368.1
475.417	10919.6
475.621	10929.84
475.826	10970.8
476.031	10632.88
476.235	10575.54
476.44	10729.14
476.645	10430.13
476.849	10471.09
477.054	10266.3
477.259	10184.38
477.463	10079.93
477.668	9969.34
477.872	9995.96
478.077	9961.15
478.282	9760.45
478.486	9678.53
478.691	9592.51
478.895	9576.13
479.1	9592.51
479.304	9400.01
479.509	9365.19
479.713	9445.06
479.918	9408.2
480.122	9168.59
480.326	9217.74
480.531	9275.08
480.735	9232.07
480.94	8912.59
481.144	9293.51
481.348	8826.57
481.553	8990.41
481.757	8740.56
481.961	9043.66
482.166	9049.8
482.37	8963.79
482.574	8781.52
482.778	8849.1
482.983	8908.49
483.187	8802
483.391	8957.64
483.595	8758.99
483.8	8904.4
484.004	8840.91
484.208	8842.96
484.412	8521.43
484.616	8742.61
484.821	8810.19
485.025	8625.87
485.229	8691.41
485.433	8650.45
485.637	8947.4
485.841	8634.07
486.045	8650.45
486.249	8924.88
486.453	8689.36
486.657	8838.86
486.861	8842.96
487.065	8474.32
487.269	8693.46
487.473	8662.74
487.677	8971.98
487.881	9012.94
488.085	8715.98
488.289	8914.64
488.493	8853.2
488.697	8896.21
488.901	8896.21
489.105	8697.55
489.309	8945.36
489.512	8838.86
489.716	9043.66
489.92	8863.44
490.124	8945.36
490.328	8904.4
490.531	8834.77
490.735	9043.66
490.939	9043.66
491.143	9125.58
491.346	8984.27
491.55	9234.12
491.754	9268.94
491.958	9227.98
492.161	9096.91
492.365	9348.81
492.569	9449.16
492.772	9363.14
492.976	9486.02
493.18	9342.66
493.383	9701.06
493.587	9240.26
493.79	9713.35
493.994	9705.15
494.197	9723.58
494.401	9639.62
494.605	9864.89
494.808	10075.84
495.012	9907.9
495.215	10161.85
495.419	10049.21
495.622	9969.34
495.825	10266.3
496.029	10239.67
496.232	10477.24
496.436	10378.93
496.639	10802.86
496.843	10536.63
497.046	10788.53
497.249	10874.54
497.453	10823.34
497.656	11138.73
497.859	11114.16
498.063	11175.59
498.266	11368.1
498.469	11308.71
498.673	11564.71
498.876	11669.16
499.079	12013.21
499.282	11734.69
499.485	12172.96
499.689	12291.74
499.892	12357.27
500.095	12306.07
500.298	12719.76
500.501	12369.56
500.705	12967.57
500.908	12990.1
501.111	12981.9
501.314	13383.31
501.517	13291.15
501.72	13622.92
501.923	13428.36
502.126	13868.67
502.329	14132.86
502.532	14159.49
502.735	14093.95
502.938	14528.12
503.141	14741.11
503.344	14771.83
503.547	14974.58
503.75	14898.8
503.953	15187.57
504.156	15351.4
504.359	15621.73
504.562	15349.36
504.765	15857.25
504.968	16019.04
505.17	16301.66
505.373	16479.83
505.576	16543.32
505.779	16635.48
505.982	16903.76
506.185	17290.83
506.387	17026.64
506.59	17382.99
506.793	17757.77
506.996	17491.53
507.198	17874.5
507.401	17980.99
507.604	18290.24
507.807	18472.51
508.009	18798.13
508.212	18894.39
508.415	19238.45
508.617	19301.93
508.82	19521.07
509.022	19422.76
509.225	19840.55
509.428	20016.68
509.63	20182.56
509.833	20641.31
510.035	20674.07
510.238	20667.93
510.44	20882.97
510.643	21073.43
510.845	21386.77
511.048	21405.2
511.25	21857.8
511.453	21861.9
511.655	22593.02
511.858	22347.26
512.06	22586.88
512.262	22920.7
512.465	22941.18
512.667	23076.34
512.87	23692.78
513.072	23504.37
513.274	23911.91
513.477	24135.14
513.679	24571.36
513.881	25007.58
514.084	24821.21
514.286	24755.68
514.488	25142.74
514.69	25777.61
514.893	26025.42
515.095	25939.4
515.297	26439.11
515.499	26234.31
515.701	26494.4
515.904	26867.13
516.106	27049.4
516.308	27506.1
516.51	27735.47
516.712	27798.96
516.914	28161.45
517.116	28454.31
517.318	28636.58
517.52	28757.41
517.722	28792.22
517.925	29355.41
518.127	29556.11
518.329	30199.18
518.531	29672.85
518.733	30541.19
518.935	30881.15
519.136	30629.25
519.338	31516.02
519.54	31346.04
519.742	31706.48
519.944	31870.32
520.146	32132.46
520.348	32488.81
520.55	32433.51
520.752	32812.38
520.954	33121.63
521.155	33039.71
521.357	33817.94
521.559	33445.21
521.761	34026.83
521.963	34280.78
522.164	34319.69
522.366	34796.87
522.568	35319.1
522.77	34755.91
522.971	35472.7
523.173	35081.53
523.375	35425.59
523.576	35743.03
523.778	35632.44
523.98	36166.96
524.181	36326.7
524.383	35886.39
524.584	37000.48
524.786	37100.83
524.988	36621.61
525.189	37541.14
525.391	37410.07
525.592	37829.91
525.794	37694.74
525.995	37414.17
526.197	37836.05
526.398	37836.05
526.6	38468.87
526.801	38450.44
527.003	38698.25
527.204	38133.01
527.406	39243.01
527.607	39120.13
527.808	39494.91
528.01	38444.3
528.211	38999.3
528.412	39294.21
528.614	39464.19
528.815	39406.84
529.016	39699.7
529.218	39628.02
529.419	39515.39
529.62	40105.2
529.822	39464.19
530.023	39793.91
530.224	39791.86
530.425	39800.05
530.626	39763.19
530.828	39714.04
531.029	40238.32
531.23	39855.35
531.431	40033.52
531.632	40035.57
531.833	40543.47
532.035	39959.8
532.236	40402.16
532.437	40598.76
532.638	40082.67
532.839	40514.8
533.04	40285.42
533.241	40072.43
533.442	40721.64
533.643	40410.35
533.844	40338.67
534.045	40340.72
534.246	40090.87
534.447	40899.81
534.648	40379.63
534.849	40299.76
535.05	40037.62
535.251	40840.42
535.451	40322.29
535.652	40785.13
535.853	40201.46
536.054	40436.97
536.255	40551.66
536.456	40281.33
536.657	41182.43
536.857	39791.86
537.058	39818.49
537.259	40252.66
537.46	40756.46
537.66	40277.23
537.861	40543.47
538.062	40146.16
538.263	40396.01
538.463	40170.74
538.664	40066.29
538.865	40572.14
539.065	40127.73
539.266	39978.23
539.466	40629.48
539.667	39978.23
539.868	40551.66
540.068	40164.59
540.269	39980.28
540.469	39992.56
540.67	39843.06
540.87	40119.54
541.071	39775.48
541.271	40416.49
541.472	39757.05
541.672	40129.78
541.873	39746.81
542.073	39566.59
542.274	40097.01
542.474	39640.31
542.675	39537.91
542.875	39656.7
543.075	39625.98
543.276	38958.34
543.476	39787.77
543.676	39345.4
543.877	39830.77
544.077	39693.56
544.277	39578.87
544.478	39511.29
544.678	40039.67
544.878	39603.45
545.078	39732.47
545.279	39603.45
545.479	39507.19
545.679	40054
545.879	39435.52
546.079	39509.24
546.28	39034.11
546.48	38978.82
546.68	39570.68
546.88	39597.31
547.08	39546.11
547.28	39533.82
547.48	39468.28
547.68	39533.82
547.88	39613.69
548.081	39732.47
548.281	39730.42
548.481	39218.43
548.681	39634.17
548.881	39466.24
549.081	39208.19
549.28	39605.5
549.48	39644.41
549.68	39427.32
549.88	40072.43
550.08	39292.16
550.28	39355.64
550.48	39027.97
550.68	39456
550.88	39546.11
551.08	39163.14
551.279	39955.7
551.479	39238.91
551.679	39992.56
551.879	39148.8
552.079	39765.24
552.278	39480.57
552.478	39478.52
552.678	39349.5
552.878	39365.88
553.077	39324.93
553.277	39087.36
553.477	39742.71
553.676	39058.69
553.876	39286.01
554.076	38976.77
554.275	38995.2
554.475	38749.45
554.674	39113.98
554.874	39083.26
555.074	38890.76
555.273	39271.68
555.473	39488.76
555.672	38974.72
555.872	39378.17
556.071	39113.98
556.271	39562.49
556.47	39030.02
556.67	38884.61
556.869	39060.74
557.068	39202.05
557.268	38808.84
557.467	38712.58
557.667	38647.05
557.866	38782.21
558.065	38827.27
558.265	38538.51
558.464	38769.93
558.663	38956.29
558.863	38360.33
559.062	39060.74
559.261	38753.54
559.461	38599.94
559.66	38374.67
559.859	38511.88
560.058	38204.69
560.258	38405.39
560.457	37960.98
560.656	38352.14
560.855	38268.17
561.054	38237.45
561.253	37752.09
561.453	38149.39
561.652	38300.94
561.851	38270.22
562.05	37944.59
562.249	37610.78
562.448	38163.73
562.647	37889.3
562.846	37907.73
563.045	37465.37
563.244	37483.8
563.443	37999.89
563.642	37276.96
563.841	37399.83
564.04	37459.23
564.239	37809.43
564.438	37031.2
564.637	37487.9
564.836	37580.06
565.035	37174.56
565.234	37444.89
565.432	37090.59
565.631	36906.27
565.83	36926.75
566.029	36668.71
566.228	36963.62
566.427	36158.77
566.625	36572.46
566.824	36177.2
567.023	36781.35
567.222	35702.07
567.42	36687.14
567.619	36562.22
567.818	36140.33
568.016	36343.08
568.215	36277.55
568.414	35740.98
568.612	36148.53
568.811	35949.87
569.01	35964.21
569.208	35247.42
569.407	35867.95
569.605	35382.59
569.804	35757.36
570.002	35097.92
570.201	35441.98
570.4	35016
570.598	34757.95
570.797	35263.8
570.995	35077.44
571.193	34792.77
571.392	35099.97
571.59	34393.42
571.789	34547.01
571.987	34555.21
572.186	34432.33
572.384	34424.14
572.582	34471.24
572.781	34299.21
572.979	33961.3
573.177	33922.38
573.376	34219.34
573.574	33781.07
573.772	33697.11
573.971	33867.09
574.169	33258.84
574.367	33367.38
574.565	33611.09
574.763	33629.52
574.962	33733.97
575.16	33060.19
575.358	33187.16
575.556	32660.83
575.754	33322.33
575.952	32787.81
576.151	32963.93
576.349	32982.37
576.547	32347.5
576.745	32746.85
576.943	32630.12
577.141	32599.4
577.339	32632.16
577.537	32130.41
577.735	32064.88
577.933	32130.41
578.131	32228.71
578.329	32367.98
578.527	31671.67
578.725	31796.59
578.923	31640.95
579.121	31219.06
579.319	31466.87
579.516	31556.98
579.714	31448.44
579.912	31296.89
580.11	31192.44
580.308	31200.63
580.506	30875.01
580.704	30823.81
580.901	30606.72
581.099	30625.15
581.297	30467.46
581.495	30719.36
581.692	30655.87
581.89	30516.61
582.088	30537.09
582.285	30201.22
582.483	30360.97
582.681	30324.1
582.878	30098.83
583.076	29762.96
583.274	30631.3
583.471	29707.66
583.669	29699.47
583.866	29478.29
584.064	29746.58
584.262	29113.75
584.459	29562.26
584.657	29427.09
584.854	29255.06
585.052	28927.39
585.249	28876.19
585.447	28890.52
585.644	28857.76
585.841	28894.62
586.039	29130.14
586.236	28743.07
586.434	28618.14
586.631	28411.3
586.828	28710.3
587.026	28216.74
587.223	28478.88
587.42	28130.73
587.618	28255.65
587.815	27647.41
588.012	27905.45
588.21	27788.72
588.407	28423.59
588.604	27573.68
588.801	27461.04
588.999	27960.75
589.196	27420.08
589.393	27471.28
589.59	27545.01
589.787	27186.61
589.984	27200.95
590.182	26887.61
590.379	27170.23
590.576	27237.81
590.773	27065.78
590.97	26695.1
591.167	27055.54
591.364	26230.21
591.561	26623.42
591.758	26731.97
591.955	26451.39
592.152	26650.05
592.349	26533.31
592.546	26471.87
592.743	26031.56
592.94	26021.32
593.137	26041.8
593.334	26154.44
593.531	25630.16
593.727	26232.26
593.924	25855.43
594.121	25728.46
594.318	25851.34
594.515	25591.25
594.712	25556.43
594.908	25476.56
595.105	25347.54
595.302	25331.15
595.499	25247.19
595.696	25308.63
595.892	24937.94
596.089	24989.14
596.286	25087.45
596.482	24964.57
596.679	24704.48
596.876	24808.92
597.072	24583.65
597.269	24741.34
597.466	24729.05
597.662	24493.54
597.859	24413.66
598.055	24452.58
598.252	24540.64
598.448	24614.37
598.645	24260.07
598.841	23893.48
599.038	23969.26
599.234	24116.71
599.431	23758.31
599.627	23834.09
599.824	23944.68
600.02	23795.18
600.217	24010.21
600.413	23547.37
600.609	23600.62
600.806	23137.78
601.002	23514.61
601.198	23250.42
601.395	22996.47
601.591	23352.82
601.787	22951.42
601.984	22930.94
602.18	23109.11
602.376	22752.76
602.572	23070.2
602.769	23137.78
602.965	22490.62
603.161	22550.01
603.357	22552.06
603.553	22550.01
603.75	22308.35
603.946	22410.75
604.142	22451.71
604.338	22044.16
604.534	22472.19
604.73	21874.18
604.926	21970.44
605.122	22162.95
605.318	22165
605.514	21949.96
605.71	21896.71
605.906	21861.9
606.102	21925.38
606.298	21839.37
606.494	21837.32
606.69	21579.28
606.886	21640.72
607.082	21292.56
607.278	21648.91
607.474	21159.44
607.67	21499.41
607.866	21315.09
608.062	21546.51
608.257	21229.07
608.453	21087.76
608.649	21147.15
608.845	20946.45
609.041	21095.96
609.236	21118.48
609.432	20874.77
609.628	20702.75
609.824	20762.14
610.019	20725.27
610.215	20688.41
610.411	20905.49
610.606	20635.16
610.802	20827.67
610.998	20717.08
611.193	20784.66
611.389	20641.31
611.584	20479.52
611.78	20309.54
611.976	20301.34
612.171	20276.77
612.367	20405.79
612.562	19912.23
612.758	19949.09
612.953	20381.21
613.149	20287.01
613.344	20012.58
613.539	20000.29
613.735	19785.26
613.93	20141.6
614.126	19963.43
614.321	19840.55
614.517	19744.3
614.712	19592.75
614.907	19818.02
615.103	19834.41
615.298	19701.29
615.493	19985.96
615.688	19361.33
615.884	20223.52
616.079	19576.36
616.274	19564.07
616.47	19396.14
616.665	19723.82
616.86	19514.92
617.055	19195.44
617.25	19451.44
617.445	19682.86
617.641	19099.19
617.836	19248.69
618.031	19004.98
618.226	19301.93
618.421	19234.35
618.616	18865.72
618.811	18806.33
619.006	18980.4
619.201	18452.03
619.396	18667.06
619.591	18460.22
619.786	18613.82
619.981	18417.21
620.176	18527.8
620.371	18161.22
620.566	18445.88
620.761	18386.49
620.956	18091.59
621.151	17937.99
621.346	18071.11
621.541	17972.8
621.735	17907.27
621.93	17577.55
622.125	17757.77
622.32	17409.61
622.515	17419.85
622.709	17387.08
622.904	17217.1
623.099	17067.6
623.294	17215.05
623.488	17026.64
623.683	17141.33
623.878	16528.99
624.072	16856.66
624.267	16647.77
624.462	16899.67
624.656	16725.59
624.851	16248.41
625.046	16457.31
625.24	16459.35
625.435	16115.3
625.629	16117.34
625.824	16076.38
626.018	16164.45
626.213	15500.9
626.407	15787.62
626.602	15564.39
626.796	15761
626.991	15728.23
627.185	15296.11
627.38	15294.06
627.574	15136.37
627.768	15085.17
627.963	14935.67
628.157	15001.2
628.352	15212.14
628.546	14749.3
628.74	14863.99
628.935	14655.09
629.129	14806.64
629.323	14696.05
629.517	14282.36
629.712	14599.8
629.906	14229.12
630.1	14354.04
630.294	14235.26
630.489	14163.58
630.683	14026.37
630.877	13975.17
631.071	13657.73
631.265	13811.33
631.459	13665.92
631.653	13659.78
631.848	13743.75
632.042	13375.11
632.236	13633.16
632.43	13534.85
632.624	13242
632.818	13274.76
633.012	13188.75
633.206	13082.25
633.4	13082.25
633.594	12842.64
633.788	13262.47
633.982	12996.24
634.176	12865.17
634.369	12721.81
634.563	12656.28
634.757	12764.82
634.951	12684.95
635.145	12648.08
635.339	12584.6
635.533	12156.57
635.726	12256.92
635.92	12199.58
636.114	12213.91
636.308	12138.14
636.501	12064.41
636.695	12013.21
636.889	11771.55
637.083	11843.23
637.276	11701.92
637.47	11552.42
637.664	11708.07
637.857	11429.54
638.051	11624.1
638.244	11433.64
638.438	11402.92
638.632	11355.82
638.825	11243.18
639.019	11204.27
639.212	11083.44
639.406	11306.66
639.599	10892.98
639.793	11048.62
639.986	10653.36
640.18	10768.05
640.373	10833.58
640.567	10747.57
640.76	10862.26
640.954	10540.72
641.147	10374.84
641.34	10467
641.534	10575.54
641.727	10473.14
641.92	10141.37
642.114	10247.86
642.307	10059.45
642.5	10012.35
642.694	9987.77
642.887	9995.96
643.08	9912
643.273	9840.32
643.467	9871.04
643.66	9651.91
643.853	9723.58
644.046	9666.24
644.239	9543.36
644.432	9596.61
644.626	9504.45
644.819	9596.61
645.012	9406.15
645.205	9453.25
645.398	9258.7
645.591	9264.84
645.784	9199.3
645.977	9014.99
646.17	9084.62
646.363	8986.32
646.556	8832.72
646.749	8916.69
646.942	9041.61
647.135	8832.72
647.328	8953.55
647.521	8746.7
647.714	8709.84
647.907	8556.24
648.099	8740.56
648.292	8632.02
648.485	8580.82
648.678	8060.63
648.871	8484.56
649.064	8290.01
649.256	8406.74
649.449	8314.58
649.642	8330.97
649.835	8298.2
650.027	8038.11
650.22	8068.83
650.413	8175.32
650.605	7954.14
650.798	7907.04
650.991	7972.57
651.183	7915.23
651.376	7700.19
651.568	7900.89
651.761	7782.11
651.954	7743.2
652.146	7663.33
652.339	7694.05
652.531	7421.67
652.724	7438.05
652.916	7601.89
653.109	7380.71
653.301	7458.53
653.494	7470.82
653.686	7364.32
653.879	7274.21
654.071	7464.68
654.263	7323.37
654.456	7274.21
654.648	7304.93
654.84	6946.54
655.033	6956.78
655.225	6989.55
655.417	6993.64
655.61	6989.55
655.802	6997.74
655.994	6790.89
656.186	6856.43
656.379	6883.05
656.571	6858.48
656.763	6754.03
656.955	6717.17
657.148	6717.17
657.34	6672.11
657.532	6561.52
657.724	6668.02
657.916	6407.92
658.108	6545.14
658.3	6342.39
658.492	6512.37
658.684	6627.06
658.876	6246.13
659.068	6352.63
659.26	6190.84
659.452	6356.72
659.644	6174.46
659.836	6217.46
660.028	6180.6
660.22	5998.33
660.412	6196.98
660.604	6092.54
660.796	6098.68
660.988	6020.86
661.18	5967.61
661.372	6082.3
661.563	5971.71
661.755	5775.1
661.947	5844.73
662.139	5951.23
662.331	5744.38
662.522	5848.83
662.714	5799.68
662.906	5742.33
663.097	5660.41
663.289	5523.2
663.481	5648.13
663.673	5537.54
663.864	5586.69
664.056	5523.2
664.247	5560.06
664.439	5455.62
664.631	5498.63
664.822	5455.62
665.014	5363.46
665.205	5418.75
665.397	5347.08
665.588	5365.51
665.78	5297.92
665.971	5312.26
666.163	5152.52
666.354	5185.29
666.546	5246.73
666.737	5203.72
666.929	5193.48
667.12	5064.46
667.311	5127.94
667.503	4966.15
667.694	5138.18
667.885	5062.41
668.077	5078.79
668.268	4970.25
668.459	4822.8
668.651	4884.23
668.842	4814.6
669.033	4906.76
669.224	4941.58
669.416	4949.77
669.607	4826.89
669.798	4763.4
669.989	4923.15
670.18	4607.76
670.371	4757.26
670.563	4818.7
670.754	4757.26
670.945	4665.1
671.136	4747.02
671.327	4589.33
671.518	4501.26
671.709	4622.09
671.9	4529.94
672.091	4593.42
672.282	4501.26
672.473	4544.27
672.664	4624.14
672.855	4454.16
673.046	4593.42
673.237	4646.67
673.428	4488.98
673.619	4544.27
673.809	4366.1
674	4284.18
674.191	4312.85
674.382	4286.23
674.573	4415.25
674.764	4364.05
674.954	4505.36
675.145	4286.23
675.336	4427.54
675.527	4341.52
675.717	4265.75
675.908	4206.36
676.099	4169.49
676.289	4390.67
676.48	4292.37
676.671	4255.51
676.861	4331.28
677.052	4112.15
677.243	4249.36
677.433	4323.09
677.624	4349.71
677.814	4114.2
678.005	4124.44
678.195	4247.32
678.386	4073.24
678.576	4075.29
678.767	4038.42
678.957	4120.34
679.148	4112.15
679.338	4071.19
679.529	3952.41
679.719	4099.86
679.909	4341.52
680.1	4079.38
680.29	4065.05
680.481	4132.63
680.671	4026.14
680.861	3974.94
681.052	4013.85
681.242	4005.66
681.432	4063
681.622	3909.4
681.813	4060.95
682.003	4114.2
682.193	3856.15
682.383	3944.22
682.573	4024.09
682.764	3923.74
682.954	4030.23
683.144	3874.59
683.334	3903.26
683.524	3739.42
683.714	3913.5
683.904	3845.91
684.094	4038.42
684.284	3841.82
684.474	3942.17
684.664	3985.18
684.854	3878.68
685.044	3860.25
685.234	3747.61
685.424	3776.28
685.614	3870.49
685.804	3696.41
685.994	3802.91
686.184	3923.74
686.374	3718.94
686.564	3645.21
686.753	3874.59
686.943	3700.51
687.133	3677.98
687.323	3671.84
687.513	3667.74
687.702	3731.23
687.892	3686.17
688.082	3753.76
688.272	3698.46
688.461	3647.26
688.651	3809.05
688.841	3514.14
689.03	3493.66
689.22	3473.18
689.41	3718.94
689.599	3532.58
689.789	3551.01
689.979	3508
690.168	3534.62
690.358	3426.08
690.547	3573.53
690.737	3606.3
690.926	3526.43
691.116	3532.58
691.305	3522.34
691.495	3600.16
691.684	3350.31
691.874	3526.43
692.063	3469.09
692.252	3469.09
692.442	3387.17
692.631	3342.11
692.82	3399.46
693.01	3354.4
693.199	3292.96
693.388	3415.84
693.578	3348.26
693.767	3393.31
693.956	3338.02
694.146	3262.24
694.335	3338.02
694.524	3264.29
694.713	3262.24
694.902	3333.92
695.092	3301.15
695.281	3305.25
695.47	3284.77
695.659	3327.78
695.848	3182.37
696.037	3268.39
696.226	3190.56
696.415	3260.2
696.604	3227.43
696.793	3256.1
696.982	3180.32
697.171	3215.14
697.36	3237.67
697.549	3149.61
697.738	3186.47
697.927	3206.95
698.116	3344.16
698.305	3194.66
698.494	3163.94
698.683	2981.67
698.872	3178.28
699.061	3071.78
699.25	3178.28
699.438	3088.17
699.627	3170.08
699.816	3217.19
700.005	3184.42
700.193	3274.53
700.382	3202.85
700.571	3108.65
700.76	3082.02
700.948	3200.8
701.137	2998.06
701.326	3139.37
701.514	3131.17
701.703	3032.87
701.892	3219.24
702.08	3065.64
702.269	3176.23
702.457	2981.67
702.646	3098.41
702.834	3174.18
703.023	3088.17
703.212	3073.83
703.4	2963.24
703.589	2907.94
703.777	3051.3
703.965	3006.25
704.154	2965.29
704.342	2920.23
704.531	3034.92
704.719	2934.57
704.907	3034.92
705.096	2987.82
705.284	2993.96
705.472	2989.86
705.661	2924.33
705.849	3178.28
706.037	3002.15
706.226	3024.68
706.414	3075.88
706.602	2834.22
706.79	2942.76
706.979	2948.9
707.167	2950.95
707.355	2940.71
707.543	2905.9
707.731	2858.79
707.919	2940.71
708.107	2883.37
708.296	2877.23
708.484	2893.61
708.672	2981.67
708.86	2891.56
709.048	2826.03
709.236	3014.44
709.424	2938.66
709.612	2899.75
709.8	2807.59
709.988	2721.58
710.176	2973.48
710.364	2877.23
710.551	2930.47
710.739	2793.26
710.927	2701.1
711.115	2928.42
711.303	2836.27
711.491	2819.88
711.679	2764.59
711.866	2719.53
712.054	2821.93
712.242	2727.72
712.43	2846.51
712.617	2766.64
712.805	2789.16
712.993	2754.35
713.181	2764.59
713.368	2938.66
713.556	2711.34
713.744	2656.04
713.931	2744.11
714.119	2711.34
714.306	2697
714.494	2750.25
714.682	2707.24
714.869	2746.16
715.057	2684.72
715.244	2662.19
715.432	2764.59
715.619	2692.91
715.807	2711.34
715.994	2697
716.182	2596.65
716.369	2565.93
716.556	2682.67
716.744	2586.41
716.931	2649.9
717.119	2645.8
717.306	2627.37
717.493	2629.42
717.681	2498.35
717.868	2516.78
718.055	2719.53
718.242	2592.56
718.43	2557.74
718.617	2531.12
718.804	2606.89
718.991	2522.93
719.179	2580.27
719.366	2484.02
719.553	2637.61
719.74	2580.27
719.927	2633.52
720.114	2514.73
720.301	2459.44
720.488	2422.58
720.676	2496.3
720.863	2596.65
721.05	2539.31
721.237	2400.05
721.424	2481.97
721.611	2449.2
721.798	2434.86
721.985	2432.82
722.172	2641.71
722.358	2463.54
722.545	2531.12
722.732	2416.43
722.919	2363.19
723.106	2537.26
723.293	2395.95
723.48	2404.14
723.667	2475.82
723.853	2344.75
724.04	2404.14
724.227	2453.3
724.414	2346.8
724.6	2297.65
724.787	2389.81
724.974	2342.71
725.161	2486.06
725.347	2481.97
725.534	2404.14
725.72	2311.99
725.907	2410.29
726.094	2393.9
726.28	2307.89
726.467	2303.79
726.653	2344.75
726.84	2344.75
727.027	2420.53
727.213	2348.85
727.4	2459.44
727.586	2187.06
727.773	2285.36
727.959	2326.32
728.145	2342.71
728.332	2350.9
728.518	2393.9
728.705	2309.94
728.891	2213.68
729.077	2322.23
729.264	2244.4
729.45	2262.83
729.636	2318.13
729.823	2187.06
730.009	2268.98
730.195	2242.36
730.382	2318.13
730.568	2068.28
730.754	2328.37
730.94	2191.16
731.126	2252.59
731.313	2289.46
731.499	2197.3
731.685	2332.47
731.871	2211.64
732.057	2215.73
732.243	2150.2
732.429	2213.68
732.615	2187.06
732.801	2242.36
732.987	2158.39
733.173	2207.54
733.359	2170.68
733.545	2205.49
733.731	2156.34
733.917	2211.64
734.103	2289.46
734.289	2064.18
734.475	2119.48
734.661	2142
734.847	2178.87
735.033	2021.17
735.219	2111.29
735.404	2146.1
735.59	2101.05
735.776	2043.7
735.962	2088.76
736.148	2166.58
736.333	2119.48
736.519	2033.46
736.705	2049.85
736.89	2113.33
737.076	2043.7
737.262	2039.61
737.447	2076.47
737.633	1998.65
737.819	2027.32
738.004	2072.37
738.19	2019.13
738.375	2010.93
738.561	1959.74
738.747	1949.5
738.932	2006.84
739.118	1998.65
739.303	2017.08
739.489	2055.99
739.674	2006.84
739.859	1982.26
740.045	1871.67
740.23	2010.93
740.416	1845.05
740.601	2021.17
740.786	1843
740.972	1965.88
741.157	1912.63
741.342	2008.89
741.528	1871.67
741.713	1877.82
741.898	1879.86
742.084	1853.24
742.269	1867.58
742.454	1859.38
742.639	1793.85
742.824	1843
743.01	1818.43
743.195	1865.53
743.38	1789.75
743.565	1763.13
743.75	1849.15
743.935	1734.46
744.12	1777.47
744.305	1781.56
744.49	1752.89
744.675	1836.86
744.86	1769.27
745.045	1693.5
745.23	1759.03
745.415	1670.97
745.6	1771.32
745.785	1679.16
745.97	1658.68
746.155	1681.21
746.34	1681.21
746.525	1677.12
746.71	1730.36
746.895	1523.52
747.079	1572.67
747.264	1673.02
747.449	1705.79
747.634	1701.69
747.819	1589.05
748.003	1630.01
748.188	1634.11
748.373	1601.34
748.557	1500.99
748.742	1527.61
748.927	1507.13
749.111	1597.24
749.296	1427.26
749.481	1484.61
749.665	1550.14
749.85	1496.89
750.034	1576.77
750.219	1421.12
750.404	1421.12
750.588	1474.37
750.773	1474.37
750.957	1484.61
751.141	1441.6
751.326	1482.56
751.51	1404.74
751.695	1449.79
751.879	1351.49
752.064	1419.07
752.248	1363.78
752.432	1417.02
752.617	1378.11
752.801	1343.3
752.985	1365.82
753.17	1402.69
753.354	1337.15
753.538	1328.96
753.722	1285.95
753.907	1271.62
754.091	1242.95
754.275	1341.25
754.459	1359.68
754.643	1288
754.828	1163.08
755.012	1269.57
755.196	1187.65
755.38	1224.51
755.564	1234.75
755.748	1107.78
755.932	1222.47
756.116	1122.12
756.3	1156.93
756.484	1075.01
756.668	1099.59
756.852	1077.06
757.036	1224.51
757.22	1115.97
757.404	1097.54
757.588	1122.12
757.772	1105.73
757.956	1097.54
758.14	1148.74
758.323	1081.16
758.507	1048.39
758.691	1081.16
758.875	1097.54
759.059	1027.91
759.242	1013.57
759.426	1025.86
759.61	986.95
759.794	1142.6
759.977	1003.33
760.161	978.76
760.345	962.37
760.528	995.14
760.712	974.66
760.895	1025.86
761.079	894.79
761.263	935.75
761.446	964.42
761.63	966.47
761.813	894.79
761.997	954.18
762.18	945.99
762.364	1001.29
762.547	839.5
762.731	1021.77
762.914	847.69
763.098	843.59
763.281	812.87
763.464	829.26
763.648	911.18
763.831	884.55
764.015	853.83
764.198	876.36
764.381	927.56
764.564	835.4
764.748	905.03
764.931	841.54
765.114	939.85
765.297	880.46
765.481	802.63
765.664	819.02
765.847	802.63
766.03	761.67
766.213	812.87
766.397	941.89
766.58	794.44
766.763	874.31
766.946	726.86
767.129	898.89
767.312	710.47
767.495	802.63
767.678	737.1
767.861	819.02
768.044	794.44
768.227	788.3
768.41	767.82
768.593	788.3
768.776	845.64
768.959	769.87
769.142	788.3
769.324	819.02
769.507	753.48
769.69	653.13
769.873	724.81
770.056	876.36
770.239	814.92
770.421	755.53
770.604	681.8
770.787	829.26
770.97	704.33
771.152	733
771.335	704.33
771.518	790.35
771.7	741.19
771.883	769.87
772.066	765.77
772.248	696.14
772.431	712.52
772.613	655.18
772.796	593.74
772.978	755.53
773.161	687.95
773.343	761.67
773.526	616.27
773.708	622.41
773.891	659.28
774.073	663.37
774.256	663.37
774.438	683.85
774.621	704.33
774.803	675.66
774.985	673.61
775.168	618.32
775.35	606.03
775.532	671.56
775.715	595.79
775.897	632.65
776.079	548.68
776.261	597.84
776.444	558.92
776.626	638.8
776.808	556.88
776.99	522.06
777.173	653.13
777.355	646.99
777.537	589.64
777.719	571.21
777.901	558.92
778.083	577.36
778.265	524.11
778.447	581.45
778.629	550.73
778.811	526.16
778.993	581.45
779.175	532.3
779.357	550.73
779.539	571.21
779.721	511.82
779.903	474.96
780.085	540.49
780.267	479.05
780.449	554.83
780.631	507.73
780.812	522.06
780.994	491.34
781.176	538.45
781.358	483.15
781.54	462.67
781.721	470.86
781.903	487.25
782.085	474.96
782.267	517.97
782.448	311.12
782.63	442.19
782.812	436.05
782.993	468.81
783.175	401.23
783.357	384.85
783.538	501.58
783.72	442.19
783.901	364.37
784.083	425.81
784.264	388.94
784.446	421.71
784.627	329.55
784.809	436.05
784.99	384.85
785.172	427.85
785.353	411.47
785.535	417.61
785.716	384.85
785.897	415.57
786.079	417.61
786.26	360.27
786.441	343.89
786.623	360.27
786.804	427.85
786.985	352.08
787.167	378.7
787.348	366.42
787.529	393.04
787.71	372.56
787.891	386.9
788.073	327.5
788.254	331.6
788.435	378.7
788.616	345.94
788.797	329.55
788.978	388.94
789.159	218.96
789.34	372.56
789.522	321.36
789.703	347.98
789.884	307.02
790.065	304.98
790.246	403.28
790.427	253.78
790.607	341.84
790.788	311.12
790.969	347.98
791.15	388.94
791.331	302.93
791.512	345.94
791.693	323.41
791.874	331.6
792.054	311.12
792.235	380.75
792.416	309.07
792.597	294.74
792.778	350.03
792.958	257.87
793.139	264.02
793.32	294.74
793.5	270.16
793.681	212.82
793.862	290.64
794.042	225.11
794.223	235.35
794.404	272.21
794.584	216.91
794.765	198.48
794.945	233.3
795.126	272.21
795.306	329.55
795.487	214.87
795.667	286.54
795.848	237.39
796.028	194.39
796.209	270.16
796.389	249.68
796.57	233.3
796.75	253.78
796.93	255.83
797.111	196.43
797.291	190.29
797.471	180.05
797.652	200.53
797.832	188.24
798.012	239.44
798.192	268.11
798.373	231.25
798.553	173.91
798.733	192.34
798.913	237.39
799.093	190.29
799.274	261.97
799.454	147.28
799.634	198.48
799.814	149.33
799.994	167.76
800.174	270.16
800.354	208.72
800.534	180.05
800.714	167.76
800.894	89.94
801.074	188.24
801.254	249.68
801.434	259.92
801.614	204.63
801.794	157.52
801.974	776.01
802.154	171.86
802.334	161.62
802.514	167.76
802.693	182.1
802.873	180.05
803.053	173.91
803.233	218.96
803.413	288.59
803.592	89.94
803.772	225.11
803.952	180.05
804.131	173.91
804.311	192.34
804.491	200.53
804.67	114.52
804.85	147.28
805.03	147.28
805.209	237.39
805.389	161.62
805.568	114.52
805.748	178
805.928	157.52
806.107	149.33
806.287	270.16
806.466	167.76
806.646	169.81
806.825	180.05
807.004	223.06
807.184	153.43
807.363	196.43
807.543	165.71
807.722	116.56
807.901	212.82
808.081	106.32
808.26	100.18
808.439	180.05
808.619	186.19
808.798	165.71
808.977	192.34
809.156	141.14
809.336	114.52
809.515	186.19
809.694	110.42
809.873	157.52
810.052	110.42
810.231	139.09
810.411	141.14
810.59	188.24
810.769	63.32
810.948	171.86
811.127	135
811.306	157.52
811.485	139.09
811.664	167.76
811.843	102.23
812.022	122.71
812.201	120.66
812.38	141.14
812.559	108.37
812.737	182.1
812.916	124.76
813.095	135
813.274	102.23
813.453	124.76
813.632	85.84
813.811	135
813.989	163.67
814.168	145.24
814.347	141.14
814.526	57.17
814.704	137.04
814.883	157.52
815.062	130.9
815.24	116.56
815.419	20.31
815.598	110.42
815.776	61.27
815.955	96.08
816.133	44.88
816.312	143.19
816.49	71.51
816.669	124.76
816.847	34.64
817.026	98.13
817.204	65.36
817.383	165.71
817.561	59.22
817.74	132.95
817.918	130.9
818.097	126.8
818.275	157.52
818.453	143.19
818.632	77.65
818.81	112.47
818.988	48.98
819.167	102.23
819.345	77.65
819.523	71.51
819.701	63.32
819.879	149.33
820.058	182.1
820.236	149.33
820.414	44.88
820.592	71.51
820.77	106.32
820.948	145.24
821.127	40.79
821.305	38.74
821.483	98.13
821.661	147.28
821.839	87.89
822.017	94.04
822.195	40.79
822.373	122.71
822.551	94.04
822.729	81.75
822.907	73.56
823.085	81.75
823.262	132.95
823.44	63.32
823.618	28.5
823.796	44.88
823.974	91.99
824.152	89.94
824.329	83.8
824.507	69.46
824.685	116.56
824.863	67.41
825.04	94.04
825.218	83.8
825.396	118.61
825.574	198.48
825.751	110.42
825.929	40.79
826.107	16.21
826.284	108.37
826.462	32.6
826.639	98.13
826.817	89.94
826.994	40.79
827.172	18.26
827.349	65.36
827.527	8.02
827.704	85.84
827.882	106.32
828.059	71.51
828.237	-8.36
828.414	61.27
828.591	-45.23
828.769	100.18
828.946	20.31
829.124	124.76
829.301	81.75
829.478	89.94
829.655	85.84
829.833	87.89
830.01	12.12
830.187	108.37
830.364	51.03
830.542	24.4
830.719	53.08
830.896	114.52
831.073	40.79
831.25	130.9
831.427	112.47
831.604	16.21
831.782	81.75
831.959	48.98
832.136	122.71
832.313	106.32
832.49	98.13
832.667	32.6
832.844	100.18
833.021	116.56
833.198	75.6
833.374	65.36
833.551	22.36
833.728	122.71
833.905	85.84
834.082	30.55
834.259	73.56
834.436	180.05
834.612	65.36
834.789	42.84
834.966	77.65
835.143	67.41
835.319	-6.31
835.496	53.08
835.673	-26.79
835.85	106.32
836.026	-30.89
836.203	130.9
836.38	-8.36
836.556	24.4
836.733	57.17
836.909	81.75
837.086	-20.65
837.262	59.22
837.439	44.88
837.616	71.51
837.792	81.75
837.968	98.13
838.145	-0.17
838.321	116.56
838.498	69.46
838.674	69.46
838.851	100.18
839.027	61.27
839.203	108.37
839.38	116.56
839.556	18.26
839.732	71.51
839.909	12.12
840.085	16.21
840.261	1.88
840.437	130.9
840.614	65.36
840.79	48.98
840.966	91.99
841.142	53.08
841.318	48.98
841.494	48.98
841.671	48.98
841.847	42.84
842.023	83.8
842.199	114.52
842.375	51.03
842.551	18.26
842.727	20.31
842.903	32.6
843.079	-16.55
843.255	61.27
843.431	83.8
843.607	57.17
843.783	1.88
843.959	24.4
844.134	-2.22
844.31	104.28
844.486	5.97
844.662	44.88
844.838	-22.7
845.013	44.88
845.189	34.64
845.365	18.26
845.541	10.07
845.716	51.03
845.892	79.7
846.068	8.02
846.244	20.31
846.419	61.27
846.595	67.41
846.77	24.4
846.946	32.6
847.122	-37.03
847.297	-30.89
847.473	59.22
847.648	10.07
847.824	94.04
847.999	12.12
848.175	5.97
848.35	81.75
848.526	108.37
848.701	75.6
848.876	34.64
849.052	94.04
849.227	3.93
849.403	-8.36
849.578	75.6
849.753	44.88
849.929	81.75
850.104	106.32
850.279	57.17
850.454	1.88
850.63	77.65
850.805	-45.23
850.98	38.74
851.155	-8.36
851.33	132.95
851.505	-53.42
851.681	8.02
851.856	22.36
852.031	61.27
852.206	44.88
852.381	65.36
852.556	-4.27
852.731	40.79
852.906	16.21
853.081	57.17
853.256	22.36
853.431	59.22
853.606	63.32
853.781	44.88
853.956	24.4
854.131	89.94
854.305	-22.7
854.48	-69.8
854.655	28.5
854.83	36.69
855.005	32.6
855.18	48.98
855.354	-2.22
855.529	42.84
855.704	53.08
855.879	12.12
856.053	-4.27
856.228	40.79
856.403	3.93
856.577	57.17
856.752	-30.89
856.926	89.94
857.101	98.13
857.276	-16.55
857.45	18.26
857.625	57.17
857.799	-22.7
857.974	-6.31
858.148	1.88
858.323	12.12
858.497	3.93
858.672	-0.17
858.846	-39.08
859.02	81.75
859.195	61.27
859.369	-8.36
859.543	42.84
859.718	16.21
859.892	83.8
860.066	-30.89
860.241	5.97
860.415	20.31
860.589	59.22
860.763	5.97
860.938	24.4
861.112	139.09
861.286	8.02
861.46	-41.13
861.634	42.84
861.808	91.99
861.982	24.4
862.157	83.8
862.331	26.45
862.505	-4.27
862.679	-0.17
862.853	-49.32
863.027	-47.27
863.201	40.79
863.375	-45.23
863.549	-41.13
863.722	-16.55
863.896	32.6
864.07	3.93
864.244	-22.7
864.418	3.93
864.592	-37.03
864.766	-53.42
864.939	-2.22
865.113	57.17
865.287	51.03
865.461	-47.27
865.634	48.98
865.808	-8.36
865.982	20.31
866.156	-28.84
866.329	-14.51
866.503	16.21
866.676	63.32
866.85	-24.75
867.024	32.6
867.197	24.4
867.371	-0.17
867.544	40.79
867.718	-47.27
867.891	16.21
868.065	5.97
868.238	26.45
868.412	44.88
868.585	-14.51
868.759	-0.17
868.932	-45.23
869.105	75.6
869.279	-37.03
869.452	-6.31
869.625	1.88
869.799	-26.79
869.972	-24.75
870.145	-16.55
870.319	44.88
870.492	57.17
870.665	18.26
870.838	-4.27
871.011	-8.36
871.185	-8.36
871.358	-57.51
871.531	-12.46
871.704	-14.51
871.877	36.69
872.05	-41.13
872.223	-55.47
872.396	59.22
872.569	16.21
872.742	-8.36
872.915	16.21
873.088	1.88
873.261	-121
873.434	-20.65
873.607	22.36
873.78	91.99
873.953	-16.55
874.126	139.09
874.299	-32.94
874.471	-22.7
874.644	100.18
874.817	30.55
874.99	3.93
875.163	20.31
875.335	-49.32
875.508	-20.65
875.681	48.98
875.853	-4.27
876.026	8.02
876.199	26.45
876.371	3.93
876.544	46.93
876.717	-32.94
876.889	18.26
877.062	48.98
877.234	-10.41
877.407	22.36
877.579	22.36
877.752	-14.51
877.924	98.13
878.097	-49.32
878.269	-12.46
878.442	26.45
878.614	-6.31
878.786	59.22
878.959	48.98
879.131	-18.6
879.303	-45.23
879.476	1.88
879.648	67.41
879.82	34.64
879.993	-53.42
880.165	-32.94
880.337	-14.51
880.509	-47.27
880.681	-2.22
880.854	24.4
881.026	-80.04
881.198	40.79
881.37	-0.17
881.542	-16.55
881.714	75.6
881.886	-0.17
882.058	18.26
882.23	1.88
882.402	-22.7
882.574	1.88
882.746	28.5
882.918	73.56
883.09	-47.27
883.262	-0.17
883.434	57.17
883.606	-37.03
883.778	-30.89
883.95	12.12
884.122	-12.46
884.293	24.4
884.465	-32.94
884.637	57.17
884.809	12.12
884.98	53.08
885.152	-71.85
885.324	18.26
885.496	65.36
885.667	5.97
885.839	-6.31
886.011	-12.46
886.182	10.07
886.354	40.79
886.525	18.26
886.697	98.13
886.869	-32.94
887.04	-24.75
887.212	18.26
887.383	-8.36
887.555	1.88
887.726	20.31
887.897	-118.95
888.069	18.26
888.24	-22.7
888.412	-32.94
888.583	8.02
888.754	59.22
888.926	-14.51
889.097	24.4
889.268	-45.23
889.44	-20.65
889.611	18.26
889.782	24.4
889.953	-80.04
890.125	24.4
890.296	24.4
890.467	-0.17
890.638	16.21
890.809	1.88
890.98	-20.65
891.151	10.07
891.323	73.56
891.494	28.5
891.665	48.98
891.836	40.79
892.007	26.45
892.178	-39.08
892.349	-49.32
892.52	-6.31
892.691	16.21
892.862	-14.51
893.032	-61.61
893.203	-0.17
893.374	8.02
893.545	8.02
893.716	-0.17
893.887	-22.7
894.057	5.97
894.228	65.36
894.399	-80.04
894.57	106.32
894.74	-41.13
894.911	59.22
895.082	-37.03
895.253	-92.33
895.423	5.97
895.594	40.79
895.764	-65.71
895.935	-0.17
896.106	-34.99
896.276	28.5
896.447	-73.9
896.617	20.31
896.788	-16.55
896.958	-30.89
897.129	-39.08
897.299	1.88
897.47	-14.51
897.64	48.98
897.81	-49.32
897.981	89.94
898.151	16.21
898.322	-49.32
898.492	16.21
898.662	-32.94
898.832	-73.9
899.003	53.08
899.173	34.64
899.343	-18.6
899.513	-10.41
