Data from USB4F104151__158__14-19-35-606.txt Node

Date: Thu Mar 13 14:19:35 EDT 2025
User: louis
Spectrometer: USB4F10415
Trigger mode: 4
Integration Time (sec): 2.000000E-2
Scans to average: 1
Electric dark correction enabled: true
Nonlinearity correction enabled: false
Boxcar width: 0
XAxis mode: Wavelengths
Number of Pixels in Spectrum: 3648
>>>>>Begin Spectral Data<<<<<
178.204	-102.23
178.424	-102.23
178.644	-102.23
178.864	-67.41
179.084	-91.99
179.304	37.03
179.524	-48.98
179.744	24.75
179.964	-20.31
180.184	-12.12
180.404	-59.22
180.624	22.7
180.844	22.7
181.064	24.75
181.283	0.17
181.503	-18.26
181.723	26.79
181.943	-1.88
182.163	28.84
182.383	10.41
182.602	65.71
182.822	80.04
183.042	71.85
183.262	-14.17
183.482	63.66
183.701	28.84
183.921	28.84
184.141	86.19
184.361	61.61
184.58	-3.93
184.8	32.94
185.02	55.47
185.239	80.04
185.459	90.28
185.679	80.04
185.898	45.23
186.118	-3.93
186.338	98.47
186.557	116.9
186.777	14.51
186.997	102.57
187.216	39.08
187.436	172.2
187.655	-16.21
187.875	90.28
188.095	12.46
188.314	98.47
188.534	90.28
188.753	102.57
188.973	96.43
189.192	135.34
189.412	12.46
189.631	69.8
189.851	77.99
190.07	41.13
190.29	12.46
190.509	69.8
190.729	57.51
190.948	55.47
191.168	153.77
191.387	88.23
191.607	4.27
191.826	80.04
192.045	45.23
192.265	45.23
192.484	49.32
192.704	47.27
192.923	28.84
193.142	121
193.362	24.75
193.581	-16.21
193.8	69.8
194.02	69.8
194.239	-18.26
194.458	77.99
194.678	86.19
194.897	63.66
195.116	-8.02
195.335	-28.5
195.555	82.09
195.774	39.08
195.993	16.55
196.212	45.23
196.432	-20.31
196.651	77.99
196.87	45.23
197.089	53.42
197.308	47.27
197.528	57.51
197.747	-34.64
197.966	135.34
198.185	94.38
198.404	73.9
198.623	24.75
198.842	4.27
199.062	77.99
199.281	110.76
199.5	37.03
199.719	53.42
199.938	65.71
200.157	34.99
200.376	34.99
200.595	-34.64
200.814	80.04
201.033	61.61
201.252	159.91
201.471	65.71
201.69	69.8
201.909	90.28
202.128	123.05
202.347	90.28
202.566	88.23
202.785	28.84
203.004	-8.02
203.223	94.38
203.442	22.7
203.661	-44.88
203.879	28.84
204.098	53.42
204.317	22.7
204.536	14.51
204.755	45.23
204.974	51.37
205.193	69.8
205.411	30.89
205.63	-12.12
205.849	22.7
206.068	18.6
206.287	86.19
206.505	86.19
206.724	69.8
206.943	28.84
207.162	59.56
207.381	30.89
207.599	67.75
207.818	-12.12
208.037	6.31
208.255	12.46
208.474	71.85
208.693	96.43
208.911	32.94
209.13	61.61
209.349	63.66
209.567	147.62
209.786	28.84
210.005	59.56
210.223	28.84
210.442	-63.32
210.661	131.24
210.879	80.04
211.098	55.47
211.316	104.62
211.535	112.81
211.753	57.51
211.972	73.9
212.191	47.27
212.409	65.71
212.628	37.03
212.846	-26.45
213.065	63.66
213.283	88.23
213.502	-26.45
213.72	108.71
213.938	-14.17
214.157	-20.31
214.375	102.57
214.594	41.13
214.812	77.99
215.031	-44.88
215.249	80.04
215.467	-3.93
215.686	77.99
215.904	108.71
216.122	-20.31
216.341	88.23
216.559	69.8
216.778	102.57
216.996	16.55
217.214	12.46
217.432	34.99
217.651	69.8
217.869	16.55
218.087	37.03
218.306	63.66
218.524	75.95
218.742	30.89
218.96	65.71
219.179	73.9
219.397	129.19
219.615	39.08
219.833	69.8
220.051	12.46
220.27	143.53
220.488	-28.5
220.706	12.46
220.924	28.84
221.142	84.14
221.36	-53.08
221.578	37.03
221.796	39.08
222.015	77.99
222.233	45.23
222.451	53.42
222.669	-18.26
222.887	131.24
223.105	12.46
223.323	77.99
223.541	20.65
223.759	106.67
223.977	-20.31
224.195	116.9
224.413	71.85
224.631	118.95
224.849	16.55
225.067	80.04
225.285	-3.93
225.503	88.23
225.721	34.99
225.939	63.66
226.157	30.89
226.375	86.19
226.592	-3.93
226.81	82.09
227.028	37.03
227.246	155.82
227.464	114.86
227.682	69.8
227.9	94.38
228.117	88.23
228.335	65.71
228.553	39.08
228.771	90.28
228.989	24.75
229.206	69.8
229.424	59.56
229.642	57.51
229.86	26.79
230.077	30.89
230.295	37.03
230.513	55.47
230.731	61.61
230.948	69.8
231.166	102.57
231.384	41.13
231.601	67.75
231.819	69.8
232.037	20.65
232.254	77.99
232.472	10.41
232.689	51.37
232.907	45.23
233.125	53.42
233.342	-5.97
233.56	6.31
233.777	61.61
233.995	49.32
234.213	86.19
234.43	73.9
234.648	80.04
234.865	-16.21
235.083	73.9
235.3	69.8
235.518	61.61
235.735	92.33
235.953	135.34
236.17	-1.88
236.388	37.03
236.605	112.81
236.822	80.04
237.04	4.27
237.257	67.75
237.475	-32.6
237.692	61.61
237.909	-20.31
238.127	53.42
238.344	125.1
238.562	0.17
238.779	-38.74
238.996	14.51
239.214	53.42
239.431	61.61
239.648	57.51
239.865	90.28
240.083	28.84
240.3	82.09
240.517	-26.45
240.735	121
240.952	61.61
241.169	86.19
241.386	39.08
241.603	110.76
241.821	28.84
242.038	18.6
242.255	75.95
242.472	-5.97
242.689	28.84
242.907	16.55
243.124	47.27
243.341	22.7
243.558	30.89
243.775	4.27
243.992	18.6
244.209	45.23
244.426	18.6
244.643	-5.97
244.86	61.61
245.078	34.99
245.295	75.95
245.512	63.66
245.729	88.23
245.946	80.04
246.163	77.99
246.38	-34.64
246.597	118.95
246.814	6.31
247.031	77.99
247.248	37.03
247.464	71.85
247.681	-34.64
247.898	75.95
248.115	127.14
248.332	-48.98
248.549	57.51
248.766	110.76
248.983	37.03
249.2	84.14
249.417	39.08
249.633	69.8
249.85	49.32
250.067	141.48
250.284	47.27
250.501	53.42
250.717	174.25
250.934	12.46
251.151	53.42
251.368	20.65
251.585	131.24
251.801	53.42
252.018	12.46
252.235	77.99
252.451	47.27
252.668	88.23
252.885	127.14
253.102	49.32
253.318	10.41
253.535	77.99
253.752	69.8
253.968	47.27
254.185	30.89
254.401	22.7
254.618	37.03
254.835	39.08
255.051	61.61
255.268	73.9
255.484	8.36
255.701	98.47
255.917	69.8
256.134	4.27
256.351	77.99
256.567	-42.84
256.784	86.19
257	18.6
257.217	10.41
257.433	102.57
257.65	82.09
257.866	104.62
258.082	63.66
258.299	16.55
258.515	37.03
258.732	-53.08
258.948	59.56
259.165	30.89
259.381	22.7
259.597	37.03
259.814	127.14
260.03	24.75
260.246	112.81
260.463	77.99
260.679	94.38
260.895	8.36
261.112	90.28
261.328	32.94
261.544	45.23
261.761	69.8
261.977	53.42
262.193	-1.88
262.409	63.66
262.626	69.8
262.842	69.8
263.058	41.13
263.274	96.43
263.49	55.47
263.707	69.8
263.923	69.8
264.139	4.27
264.355	20.65
264.571	69.8
264.787	92.33
265.004	139.43
265.22	39.08
265.436	51.37
265.652	20.65
265.868	28.84
266.084	63.66
266.3	102.57
266.516	-44.88
266.732	51.37
266.948	86.19
267.164	30.89
267.38	110.76
267.596	88.23
267.812	110.76
268.028	65.71
268.244	69.8
268.46	90.28
268.676	98.47
268.892	28.84
269.108	22.7
269.324	-34.64
269.54	22.7
269.756	47.27
269.972	14.51
270.188	73.9
270.403	69.8
270.619	86.19
270.835	37.03
271.051	110.76
271.267	53.42
271.483	-28.5
271.698	30.89
271.914	88.23
272.13	80.04
272.346	4.27
272.562	37.03
272.777	106.67
272.993	-67.41
273.209	102.57
273.425	77.99
273.64	41.13
273.856	30.89
274.072	47.27
274.287	24.75
274.503	145.58
274.719	168.1
274.934	16.55
275.15	71.85
275.366	45.23
275.581	88.23
275.797	77.99
276.012	-26.45
276.228	94.38
276.444	43.18
276.659	67.75
276.875	-20.31
277.09	14.51
277.306	45.23
277.521	88.23
277.737	57.51
277.952	45.23
278.168	69.8
278.383	37.03
278.599	20.65
278.814	61.61
279.03	-1.88
279.245	73.9
279.461	30.89
279.676	129.19
279.892	20.65
280.107	53.42
280.322	16.55
280.538	96.43
280.753	-5.97
280.969	106.67
281.184	-18.26
281.399	30.89
281.615	45.23
281.83	22.7
282.045	41.13
282.26	94.38
282.476	77.99
282.691	114.86
282.906	4.27
283.122	4.27
283.337	-3.93
283.552	86.19
283.767	8.36
283.983	94.38
284.198	-57.17
284.413	71.85
284.628	28.84
284.843	118.95
285.058	43.18
285.274	63.66
285.489	94.38
285.704	63.66
285.919	59.56
286.134	37.03
286.349	6.31
286.564	86.19
286.779	94.38
286.995	127.14
287.21	16.55
287.425	49.32
287.64	34.99
287.855	30.89
288.07	-137.04
288.285	61.61
288.5	57.51
288.715	69.8
288.93	118.95
289.145	94.38
289.36	28.84
289.575	73.9
289.79	92.33
290.004	110.76
290.219	121
290.434	34.99
290.649	53.42
290.864	63.66
291.079	47.27
291.294	39.08
291.509	-22.36
291.724	30.89
291.938	63.66
292.153	73.9
292.368	45.23
292.583	98.47
292.798	71.85
293.012	69.8
293.227	59.56
293.442	94.38
293.657	53.42
293.871	166.06
294.086	24.75
294.301	123.05
294.516	98.47
294.73	57.51
294.945	-1.88
295.16	123.05
295.374	143.53
295.589	86.19
295.804	10.41
296.018	30.89
296.233	32.94
296.447	139.43
296.662	63.66
296.877	69.8
297.091	32.94
297.306	-51.03
297.52	57.51
297.735	57.51
297.949	80.04
298.164	39.08
298.378	73.9
298.593	20.65
298.807	28.84
299.022	16.55
299.236	86.19
299.451	-40.79
299.665	45.23
299.88	67.75
300.094	49.32
300.309	41.13
300.523	53.42
300.737	75.95
300.952	102.57
301.166	96.43
301.381	6.31
301.595	77.99
301.809	24.75
302.024	96.43
302.238	63.66
302.452	121
302.667	37.03
302.881	92.33
303.095	28.84
303.309	28.84
303.524	49.32
303.738	47.27
303.952	-14.17
304.166	39.08
304.381	59.56
304.595	55.47
304.809	39.08
305.023	41.13
305.237	0.17
305.452	71.85
305.666	47.27
305.88	90.28
306.094	61.61
306.308	94.38
306.522	98.47
306.736	131.24
306.95	106.67
307.164	51.37
307.379	28.84
307.593	121
307.807	20.65
308.021	51.37
308.235	73.9
308.449	43.18
308.663	61.61
308.877	110.76
309.091	30.89
309.305	86.19
309.519	30.89
309.733	114.86
309.947	-14.17
310.161	88.23
310.374	86.19
310.588	45.23
310.802	73.9
311.016	30.89
311.23	59.56
311.444	45.23
311.658	71.85
311.872	30.89
312.085	96.43
312.299	61.61
312.513	71.85
312.727	86.19
312.941	20.65
313.154	118.95
313.368	0.17
313.582	90.28
313.796	-20.31
314.009	108.71
314.223	61.61
314.437	22.7
314.651	37.03
314.864	86.19
315.078	69.8
315.292	45.23
315.505	24.75
315.719	6.31
315.933	110.76
316.146	55.47
316.36	69.8
316.573	102.57
316.787	4.27
317.001	69.8
317.214	-12.12
317.428	82.09
317.641	28.84
317.855	63.66
318.068	53.42
318.282	53.42
318.495	135.34
318.709	77.99
318.922	41.13
319.136	51.37
319.349	18.6
319.563	53.42
319.776	47.27
319.99	-16.21
320.203	137.38
320.417	94.38
320.63	63.66
320.843	34.99
321.057	94.38
321.27	10.41
321.483	84.14
321.697	151.72
321.91	61.61
322.124	61.61
322.337	61.61
322.55	57.51
322.763	69.8
322.977	86.19
323.19	4.27
323.403	53.42
323.617	86.19
323.83	69.8
324.043	92.33
324.256	92.33
324.469	51.37
324.683	121
324.896	20.65
325.109	59.56
325.322	-14.17
325.535	86.19
325.748	69.8
325.962	65.71
326.175	6.31
326.388	147.62
326.601	102.57
326.814	-16.21
327.027	86.19
327.24	118.95
327.453	12.46
327.666	104.62
327.879	63.66
328.092	94.38
328.305	121
328.518	32.94
328.731	-28.5
328.944	0.17
329.157	84.14
329.37	102.57
329.583	77.99
329.796	159.91
330.009	-8.02
330.222	71.85
330.435	67.75
330.648	53.42
330.861	75.95
331.073	123.05
331.286	77.99
331.499	94.38
331.712	43.18
331.925	12.46
332.138	49.32
332.35	41.13
332.563	12.46
332.776	86.19
332.989	69.8
333.202	110.76
333.414	41.13
333.627	73.9
333.84	73.9
334.053	20.65
334.265	24.75
334.478	82.09
334.691	104.62
334.903	98.47
335.116	22.7
335.329	112.81
335.541	49.32
335.754	153.77
335.966	32.94
336.179	55.47
336.392	65.71
336.604	37.03
336.817	104.62
337.029	41.13
337.242	49.32
337.454	112.81
337.667	30.89
337.88	94.38
338.092	69.8
338.305	86.19
338.517	61.61
338.729	22.7
338.942	137.38
339.154	32.94
339.367	69.8
339.579	80.04
339.792	104.62
340.004	28.84
340.217	26.79
340.429	18.6
340.641	45.23
340.854	108.71
341.066	30.89
341.278	84.14
341.491	39.08
341.703	8.36
341.915	49.32
342.128	55.47
342.34	121
342.552	30.89
342.764	22.7
342.977	53.42
343.189	53.42
343.401	47.27
343.613	-18.26
343.826	123.05
344.038	41.13
344.25	53.42
344.462	22.7
344.674	47.27
344.886	94.38
345.099	86.19
345.311	155.82
345.523	6.31
345.735	49.32
345.947	149.67
346.159	88.23
346.371	118.95
346.583	102.57
346.795	63.66
347.007	61.61
347.219	69.8
347.431	-26.45
347.643	147.62
347.855	-42.84
348.067	98.47
348.279	14.51
348.491	80.04
348.703	53.42
348.915	45.23
349.127	34.99
349.339	73.9
349.551	67.75
349.763	106.67
349.975	63.66
350.187	41.13
350.399	108.71
350.61	145.58
350.822	100.52
351.034	104.62
351.246	26.79
351.458	67.75
351.669	112.81
351.881	82.09
352.093	75.95
352.305	65.71
352.517	67.75
352.728	96.43
352.94	32.94
353.152	102.57
353.363	63.66
353.575	108.71
353.787	137.38
353.999	80.04
354.21	133.29
354.422	61.61
354.633	37.03
354.845	63.66
355.057	110.76
355.268	141.48
355.48	80.04
355.692	45.23
355.903	20.65
356.115	96.43
356.326	67.75
356.538	127.14
356.749	49.32
356.961	69.8
357.172	47.27
357.384	49.32
357.595	174.25
357.807	102.57
358.018	86.19
358.23	32.94
358.441	65.71
358.653	57.51
358.864	127.14
359.075	-3.93
359.287	82.09
359.498	67.75
359.709	73.9
359.921	63.66
360.132	102.57
360.344	49.32
360.555	73.9
360.766	73.9
360.977	104.62
361.189	137.38
361.4	94.38
361.611	20.65
361.823	90.28
362.034	67.75
362.245	77.99
362.456	6.31
362.667	104.62
362.879	57.51
363.09	71.85
363.301	59.56
363.512	151.72
363.723	18.6
363.935	86.19
364.146	135.34
364.357	10.41
364.568	63.66
364.779	57.51
364.99	178.34
365.201	55.47
365.412	112.81
365.623	-8.02
365.834	106.67
366.045	135.34
366.256	14.51
366.467	159.91
366.678	-40.79
366.889	57.51
367.1	131.24
367.311	69.8
367.522	168.1
367.733	94.38
367.944	125.1
368.155	159.91
368.366	71.85
368.577	112.81
368.788	45.23
368.999	39.08
369.209	26.79
369.42	77.99
369.631	123.05
369.842	4.27
370.053	20.65
370.264	106.67
370.474	73.9
370.685	47.27
370.896	104.62
371.107	67.75
371.317	129.19
371.528	92.33
371.739	116.9
371.95	112.81
372.16	63.66
372.371	69.8
372.582	47.27
372.792	77.99
373.003	94.38
373.214	30.89
373.424	121
373.635	77.99
373.846	102.57
374.056	110.76
374.267	137.38
374.477	118.95
374.688	22.7
374.898	73.9
375.109	94.38
375.319	88.23
375.53	82.09
375.74	110.76
375.951	69.8
376.161	159.91
376.372	100.52
376.582	94.38
376.793	22.7
377.003	90.28
377.214	153.77
377.424	92.33
377.635	123.05
377.845	26.79
378.055	43.18
378.266	69.8
378.476	118.95
378.686	123.05
378.897	94.38
379.107	118.95
379.317	88.23
379.528	57.51
379.738	104.62
379.948	28.84
380.158	61.61
380.369	57.51
380.579	53.42
380.789	37.03
380.999	159.91
381.21	69.8
381.42	151.72
381.63	69.8
381.84	80.04
382.05	106.67
382.261	37.03
382.471	84.14
382.681	12.46
382.891	139.43
383.101	75.95
383.311	86.19
383.521	0.17
383.731	170.15
383.941	94.38
384.151	94.38
384.361	159.91
384.571	37.03
384.781	102.57
384.991	184.49
385.201	112.81
385.411	147.62
385.621	86.19
385.831	86.19
386.041	59.56
386.251	71.85
386.461	192.68
386.671	45.23
386.881	123.05
387.091	92.33
387.301	217.26
387.511	121
387.72	104.62
387.93	141.48
388.14	30.89
388.35	194.73
388.56	145.58
388.769	102.57
388.979	139.43
389.189	22.7
389.399	114.86
389.609	123.05
389.818	129.19
390.028	26.79
390.238	135.34
390.447	129.19
390.657	20.65
390.867	8.36
391.076	32.94
391.286	121
391.496	53.42
391.705	168.1
391.915	98.47
392.125	188.58
392.334	94.38
392.544	161.96
392.753	110.76
392.963	94.38
393.172	145.58
393.382	86.19
393.591	104.62
393.801	127.14
394.01	100.52
394.22	102.57
394.429	127.14
394.639	80.04
394.848	157.86
395.058	211.11
395.267	155.82
395.477	155.82
395.686	161.96
395.895	125.1
396.105	168.1
396.314	178.34
396.524	108.71
396.733	127.14
396.942	168.1
397.152	153.77
397.361	127.14
397.57	168.1
397.78	123.05
397.989	149.67
398.198	159.91
398.407	114.86
398.617	188.58
398.826	139.43
399.035	110.76
399.244	231.59
399.453	164.01
399.663	190.63
399.872	247.97
400.081	213.16
400.29	127.14
400.499	129.19
400.708	227.5
400.917	92.33
401.127	147.62
401.336	94.38
401.545	200.87
401.754	182.44
401.963	227.5
402.172	159.91
402.381	170.15
402.59	194.73
402.799	188.58
403.008	200.87
403.217	202.92
403.426	186.54
403.635	215.21
403.844	145.58
404.053	159.91
404.262	207.02
404.471	276.65
404.68	270.5
404.888	233.64
405.097	200.87
405.306	217.26
405.515	258.21
405.724	217.26
405.933	270.5
406.142	227.5
406.35	233.64
406.559	225.45
406.768	219.3
406.977	315.56
407.185	299.17
407.394	297.13
407.603	186.54
407.812	309.41
408.02	317.61
408.229	274.6
408.438	333.99
408.646	241.83
408.855	272.55
409.064	397.48
409.272	381.09
409.481	467.11
409.69	370.85
409.898	389.28
410.107	467.11
410.315	454.82
410.524	405.67
410.733	512.16
410.941	489.64
411.15	530.59
411.358	585.89
411.567	622.75
411.775	659.62
411.984	626.85
412.192	680.1
412.401	649.38
412.609	653.47
412.818	755.87
413.026	706.72
413.234	786.59
413.443	811.17
413.651	741.54
413.86	811.17
414.068	907.42
414.276	858.27
414.485	880.8
414.693	880.8
414.901	909.47
415.11	1011.87
415.318	950.43
415.526	1026.2
415.734	1167.51
415.943	1179.8
416.151	1171.61
416.359	1161.37
416.567	1153.18
416.776	1392.79
416.984	1335.45
417.192	1261.72
417.4	1413.27
417.608	1511.57
417.817	1470.61
418.025	1599.63
418.233	1644.69
418.441	1577.11
418.649	1759.38
418.857	1788.05
419.065	1867.92
419.273	1833.1
419.481	1855.63
419.689	2134.15
419.897	2308.23
420.105	2101.39
420.313	2287.75
420.521	2379.91
420.729	2269.32
420.937	2359.43
421.145	2576.52
421.353	2609.28
421.561	2717.83
421.769	2879.61
421.977	2828.42
422.185	2904.19
422.393	3051.64
422.601	3242.11
422.809	3143.8
423.017	3215.48
423.224	3326.07
423.432	3600.5
423.64	3416.18
423.848	3709.04
424.056	3807.34
424.263	4006
424.471	4026.48
424.679	4053.1
424.887	4147.31
425.094	4391.02
425.302	4491.37
425.51	4642.92
425.718	4782.18
425.925	4831.33
426.133	5011.55
426.341	5328.99
426.548	5552.21
426.756	5455.96
426.964	5554.26
427.171	5959.76
427.379	5918.8
427.586	6199.37
427.794	6322.25
428.001	6574.15
428.209	6891.59
428.417	6871.11
428.624	7206.97
428.832	7381.05
429.039	7274.56
429.247	7241.79
429.454	8075.31
429.662	8583.21
429.869	7897.14
430.076	8550.44
430.284	8335.4
430.491	8435.75
430.699	9105.44
430.906	9062.43
431.114	9359.39
431.321	9666.58
431.528	9875.48
431.736	10299.41
431.943	10731.53
432.15	10358.8
432.358	10514.44
432.565	11309.05
432.772	11030.53
432.979	11612.15
433.187	11915.25
433.394	12042.23
433.601	12636.14
433.808	12881.89
434.016	12650.47
434.223	13357.02
434.43	14018.52
434.637	13492.19
434.844	14759.88
435.052	14911.43
435.259	14741.45
435.466	14733.26
435.673	14661.58
435.88	15751.1
436.087	16459.7
436.294	16322.48
436.501	16175.03
436.708	16508.85
436.915	17332.13
437.122	17690.52
437.329	17526.69
437.537	18071.45
437.743	18395.03
437.95	18315.16
438.157	19603.33
438.364	19924.86
438.571	19847.04
438.778	19902.33
438.985	22028.12
439.192	20903.79
439.399	21731.17
439.606	21213.03
439.813	22464.34
440.02	23461.7
440.227	23469.89
440.433	23007.05
440.64	23754.56
440.847	23439.17
441.054	24147.77
441.261	25714.47
441.467	25337.64
441.674	25978.65
441.881	26951.44
442.088	26879.76
442.294	26955.54
442.501	27019.02
442.708	27504.39
442.914	29085.42
443.121	30029.54
443.328	29193.97
443.534	31317.71
443.741	30414.55
443.948	29646.57
444.154	32300.73
444.361	31872.71
444.568	32036.55
444.774	32454.33
444.981	32489.15
445.187	33435.31
445.394	34750.1
445.6	34428.57
445.807	38014.57
446.013	35944.07
446.22	36781.69
446.426	37858.92
446.633	38475.36
446.839	39534.16
447.046	38098.53
447.252	40257.09
447.459	40164.93
447.665	40085.06
447.871	41944.62
448.078	43451.92
448.284	41236.02
448.491	42303.01
448.697	44240.39
448.903	44953.08
449.11	45227.51
449.316	44416.52
449.522	44944.89
449.728	46114.28
449.935	46149.1
450.141	46355.94
450.347	47656.4
450.553	46128.62
450.76	46341.61
450.966	47523.29
451.172	47617.49
451.378	49034.69
451.584	47488.47
451.791	48696.77
451.997	48434.63
452.203	49601.97
452.409	49401.27
452.615	49489.34
452.821	47392.22
453.027	46974.43
453.233	49694.13
453.44	47674.84
453.646	48203.21
453.852	48149.96
454.058	49079.74
454.264	47439.32
454.47	48530.89
454.676	47465.94
454.882	48952.77
455.088	45194.75
455.294	45454.84
455.5	46183.91
455.705	46757.35
455.911	44805.63
456.117	44322.31
456.323	43349.53
456.529	41418.29
456.735	42817.05
456.941	42122.79
457.147	41575.98
457.352	40087.11
457.558	39990.86
457.764	39654.99
457.97	38921.82
458.176	38196.84
458.381	38268.51
458.587	36183.68
458.793	36529.79
458.999	34633.37
459.204	37070.45
459.41	35821.19
459.616	33625.77
459.821	33762.98
460.027	33480.36
460.233	32900.79
460.438	31239.89
460.644	31592.14
460.85	29701.86
461.055	29619.94
461.261	29777.64
461.466	27696.9
461.672	26629.91
461.878	28630.77
462.083	26529.56
462.289	25755.43
462.494	25655.08
462.7	24702.77
462.905	24293.18
463.111	24921.9
463.316	25253.67
463.522	24430.39
463.727	24479.54
463.932	24432.44
464.138	24147.77
464.343	24258.36
464.549	23351.11
464.754	24319.8
464.959	24319.8
465.165	23887.68
465.37	22908.75
465.575	22456.15
465.781	23213.9
465.986	23330.63
466.191	22654.8
466.397	21968.73
466.602	20963.18
466.807	21632.86
467.012	21763.93
467.218	21497.7
467.423	21501.79
467.628	21540.71
467.833	22447.96
468.038	21559.14
468.244	20871.02
468.449	21673.82
468.654	21141.35
468.859	20981.61
469.064	20789.1
469.269	20017.02
469.474	20017.02
469.679	20844.4
469.885	19904.38
470.09	20287.35
470.295	19922.81
470.5	19672.96
470.705	19789.69
470.91	19126.15
471.115	19085.19
471.32	19201.93
471.525	19197.83
471.73	18718.61
471.935	18720.65
472.139	18096.02
472.344	18362.26
472.549	18116.5
472.754	17827.74
472.959	17624.99
473.164	17037.22
473.369	17082.28
473.574	17444.77
473.778	17420.19
473.983	17237.92
474.188	17264.55
474.393	16654.25
474.598	16619.44
474.802	16183.22
475.007	16330.67
475.212	16328.63
475.417	15794.11
475.621	15902.65
475.826	15730.62
476.031	15474.62
476.235	15120.32
476.44	15353.79
476.645	14968.77
476.849	15075.27
477.054	14749.64
477.259	14594
477.463	14608.33
477.668	14442.45
477.872	14374.86
478.077	14153.68
478.282	13858.78
478.486	13805.53
478.691	13826.01
478.895	13807.58
479.1	13440.99
479.304	13664.22
479.509	13221.86
479.713	13275.1
479.918	13072.36
480.122	12900.33
480.326	13146.08
480.531	13201.38
480.735	12816.36
480.94	12802.02
481.144	13244.38
481.348	12611.56
481.553	12732.39
481.757	12507.12
481.961	12742.63
482.166	12879.85
482.37	12548.08
482.574	12435.44
482.778	12685.29
482.983	12761.06
483.187	12644.33
483.391	12513.26
483.595	12353.52
483.8	12457.96
484.004	12488.68
484.208	12537.84
484.412	12562.41
484.616	12472.3
484.821	12746.73
485.025	12177.39
485.229	12554.22
485.433	12392.43
485.637	12619.75
485.841	12148.72
486.045	12177.39
486.249	12335.09
486.453	12435.44
486.657	12521.45
486.861	12617.71
487.065	12167.15
487.269	12140.53
487.473	12183.54
487.677	12521.45
487.881	12398.57
488.085	12279.79
488.289	12554.22
488.493	12562.41
488.697	12431.34
488.901	12326.89
489.105	12509.16
489.309	12406.77
489.512	12285.94
489.716	12505.07
489.92	12580.84
490.124	12595.18
490.328	12673
490.531	12261.36
490.735	12689.39
490.939	12734.44
491.143	12677.1
491.346	12627.95
491.55	13012.96
491.754	12992.48
491.958	12935.14
492.161	12896.23
492.365	13117.41
492.569	12939.24
492.772	13082.6
492.976	13223.9
493.18	13152.23
493.383	13326.3
493.587	13570.01
493.79	13684.7
493.994	13316.06
494.197	13488.09
494.401	13756.38
494.605	13582.3
494.808	13772.76
495.012	14084.05
495.215	13793.24
495.419	13860.82
495.622	14131.16
495.825	14086.1
496.029	14198.74
496.232	14639.05
496.436	14467.02
496.639	14839.75
496.843	14893
497.046	15060.93
497.249	15413.18
497.453	15353.79
497.656	15421.38
497.859	15278.02
498.063	15718.33
498.266	15767.48
498.469	15810.49
498.673	15785.91
498.876	16361.39
499.079	15982.52
499.282	16433.07
499.485	16736.17
499.689	16725.93
499.892	17078.18
500.095	17168.29
500.298	17477.54
500.501	17403.81
500.705	17643.42
500.908	17985.43
501.111	18202.52
501.314	18218.9
501.517	18450.32
501.72	19001.22
501.923	18655.12
502.126	19138.44
502.329	19597.18
502.532	19601.28
502.735	19709.82
502.938	19988.35
503.141	19969.91
503.344	20320.12
503.547	20399.99
503.75	20737.9
503.953	21065.58
504.156	21206.89
504.359	21122.92
504.562	21352.29
504.765	21608.29
504.968	22005.59
505.17	22267.73
505.373	22294.36
505.576	22787.92
505.779	22665.04
505.982	23045.96
506.185	23603.01
506.387	23232.33
506.59	23445.32
506.793	24190.78
506.996	24176.44
507.198	24704.82
507.401	24289.08
507.604	24882.99
507.807	25405.22
508.009	25345.83
508.212	25792.29
508.415	26066.72
508.617	26482.45
508.82	26464.02
509.022	26402.58
509.225	27049.74
509.428	27203.34
509.63	27481.86
509.833	27813.63
510.035	27866.88
510.238	27909.89
510.44	28411.64
510.643	28612.34
510.845	28608.25
511.048	29124.33
511.25	29454.06
511.453	29665
511.655	30244.57
511.858	30066.4
512.06	30750.42
512.262	30498.52
512.465	30965.46
512.667	31194.83
512.87	31436.49
513.072	31399.63
513.274	32188.1
513.477	32206.53
513.679	33035.95
513.881	33072.82
514.084	33265.33
514.286	33517.23
514.488	33566.38
514.69	34424.48
514.893	34457.24
515.095	34328.22
515.297	34725.53
515.499	35008.15
515.701	35438.22
515.904	35927.69
516.106	35958.41
516.308	36464.25
516.51	37219.95
516.712	36896.38
516.914	37176.95
517.116	37518.96
517.318	37590.64
517.52	37756.52
517.722	38190.69
517.925	38749.79
518.127	39016.02
518.329	39323.22
518.531	39130.71
518.733	39698
518.935	40285.76
519.136	40267.33
519.338	40797.76
519.54	40752.7
519.742	41176.63
519.944	41248.31
520.146	42012.2
520.348	42231.33
520.55	42364.45
520.752	42683.94
520.954	43210.26
521.155	42784.29
521.357	43548.18
521.559	43888.14
521.761	44412.42
521.963	44463.62
522.164	44297.73
522.366	44508.68
522.568	45231.61
522.77	45223.42
522.971	45884.91
523.173	45358.58
523.375	45768.18
523.576	46067.18
523.778	46425.57
523.98	46616.04
524.181	47156.7
524.383	46890.46
524.584	47578.58
524.786	47566.29
524.988	47257.05
525.189	47869.39
525.391	48192.97
525.592	48274.89
525.794	48487.88
525.995	48584.13
526.197	48911.81
526.398	48721.35
526.6	49102.27
526.801	49305.02
527.003	49450.42
527.204	49356.22
527.406	49937.84
527.607	49595.83
527.808	50458.02
528.01	49397.18
528.211	49911.22
528.412	50869.67
528.614	50550.18
528.815	50660.77
529.016	51160.48
529.218	50214.32
529.419	50828.71
529.62	50791.84
529.822	50711.97
530.023	50529.7
530.224	50742.69
530.425	51086.75
530.626	50648.49
530.828	50699.69
531.029	51885.46
531.23	51193.25
531.431	51451.29
531.632	50982.3
531.833	51594.65
532.035	51752.34
532.236	51484.06
532.437	51570.07
532.638	51123.61
532.839	51817.88
533.04	51512.73
533.241	51332.51
533.442	52190.61
533.643	51735.96
533.844	51860.88
534.045	52008.34
534.246	51312.03
534.447	52225.42
534.648	51473.82
534.849	51787.16
535.05	51199.39
535.251	51955.09
535.451	51582.36
535.652	51649.94
535.853	51361.18
536.054	51676.57
536.255	51682.71
536.456	51527.06
536.657	52354.44
536.857	51400.09
537.058	51324.32
537.259	51549.59
537.46	51740.05
537.66	51170.72
537.861	51547.54
538.062	51410.33
538.263	51889.55
538.463	51504.54
538.664	51570.07
538.865	52141.46
539.065	52006.29
539.266	51375.51
539.466	52110.74
539.667	51291.55
539.868	51484.06
540.068	51232.16
540.269	51121.57
540.469	51518.87
540.67	51682.71
540.87	51815.83
541.071	51533.21
541.271	51725.72
541.472	51051.94
541.672	50800.04
541.873	50976.16
542.073	50781.6
542.274	51598.74
542.474	51428.76
542.675	50904.48
542.875	51469.72
543.075	51258.78
543.276	50767.27
543.476	51731.86
543.676	51119.52
543.877	51185.05
544.077	50707.88
544.277	50881.95
544.478	50857.38
544.678	51283.36
544.878	50947.49
545.078	50992.54
545.279	50492.84
545.479	50453.93
545.679	50836.9
545.879	50900.39
546.079	51013.02
546.28	50623.91
546.48	50660.77
546.68	50996.64
546.88	50888.1
547.08	50455.98
547.28	50429.35
547.48	50658.73
547.68	50396.59
547.88	50122.16
548.081	50552.23
548.281	50738.6
548.481	50689.45
548.681	51043.74
548.881	50603.43
549.081	50800.04
549.28	50421.16
549.48	50668.97
549.68	50449.83
549.88	50855.33
550.08	50265.52
550.28	50527.66
550.48	50396.59
550.68	50664.87
550.88	49825.2
551.08	50324.91
551.279	50566.57
551.479	49624.5
551.679	50214.32
551.879	49679.8
552.079	50376.11
552.278	50308.52
552.478	50120.11
552.678	49700.28
552.878	50412.97
553.077	49845.68
553.277	49411.51
553.477	50455.98
553.676	49530.29
553.876	49839.54
554.076	49923.5
554.275	49366.46
554.475	49264.06
554.674	50019.76
554.874	49716.66
555.074	49741.24
555.273	50099.63
555.473	50197.93
555.672	49358.27
555.872	49573.3
556.071	49653.17
556.271	49509.82
556.47	49317.31
556.67	48838.08
556.869	48719.3
557.068	49255.87
557.268	49307.07
557.467	48879.04
557.667	48840.13
557.866	49184.19
558.065	49184.19
558.265	49186.24
558.464	48672.2
558.663	49104.32
558.863	48389.58
559.062	49321.4
559.261	48197.07
559.461	49161.66
559.66	48207.31
559.859	48768.45
560.058	47975.89
560.258	48506.31
560.457	47957.45
560.656	48471.5
560.855	48025.04
561.054	48301.51
561.253	48008.65
561.453	48336.33
561.652	48174.54
561.851	48244.17
562.05	47871.44
562.249	47926.74
562.448	47766.99
562.647	47961.55
562.846	47404.5
563.045	47527.38
563.244	47171.03
563.443	48094.67
563.642	46792.16
563.841	47173.08
564.04	47111.64
564.239	47875.54
564.438	46687.71
564.637	46790.11
564.836	47414.74
565.035	46566.88
565.234	47013.34
565.432	46546.4
565.631	46603.75
565.83	46986.72
566.029	46732.77
566.228	46704.1
566.427	47070.68
566.625	46390.76
566.824	45762.03
567.023	46284.26
567.222	45950.45
567.42	46128.62
567.619	46347.75
567.818	45688.31
568.016	45925.87
568.215	46007.79
568.414	45688.31
568.612	45909.49
568.811	45639.15
569.01	45655.54
569.208	45067.77
569.407	45155.83
569.605	45086.2
569.804	45716.98
570.002	44908.03
570.201	45215.22
570.4	44580.35
570.598	44807.68
570.797	44629.51
570.995	44754.43
571.193	44252.68
571.392	44785.15
571.59	44213.77
571.789	44195.34
571.987	43929.1
572.186	43955.72
572.384	43908.62
572.582	44187.14
572.781	44275.21
572.979	43261.46
573.177	43298.33
573.376	43882
573.574	43269.65
573.772	43281.94
573.971	43177.5
574.169	43179.54
574.367	42917.4
574.565	43554.32
574.763	43187.74
574.962	42722.85
575.16	42460.71
575.358	43034.14
575.556	42182.18
575.754	42657.31
575.952	42219.05
576.151	42268.2
576.349	41662
576.547	41889.32
576.745	42128.94
576.943	42108.46
577.141	41961
577.339	41846.32
577.537	41770.54
577.735	41723.44
577.933	41492.02
578.131	41567.79
578.329	41199.16
578.527	41219.64
578.725	41383.48
578.923	41188.92
579.121	40605.25
579.319	40871.48
579.516	41244.21
579.714	40924.73
579.912	40771.13
580.11	40568.38
580.308	40271.43
580.506	40402.5
580.704	40091.21
580.901	40189.51
581.099	40289.86
581.297	40058.44
581.495	39958.09
581.692	40087.11
581.89	39544.4
582.088	39704.14
582.285	39528.02
582.483	39599.69
582.681	39513.68
582.878	39315.03
583.076	39269.97
583.274	39063.13
583.471	38770.27
583.669	39233.11
583.866	38737.5
584.064	38839.9
584.262	38555.23
584.459	39085.65
584.657	38078.05
584.854	38612.57
585.052	38225.51
585.249	38463.07
585.447	38137.44
585.644	37785.19
585.841	37662.32
586.039	38207.08
586.236	37531.25
586.434	37658.22
586.631	37248.63
586.828	37381.74
587.026	37572.21
587.223	37314.16
587.42	36963.96
587.618	37099.12
587.815	37019.25
588.012	36363.9
588.21	36701.82
588.407	37246.58
588.604	36705.91
588.801	36206.21
588.999	36525.69
589.196	36284.03
589.393	36185.73
589.59	36038.28
589.787	35903.11
589.984	35726.99
590.182	35331.73
590.379	36036.23
590.576	35280.53
590.773	35577.48
590.97	35491.47
591.167	35227.28
591.364	34881.17
591.561	35311.25
591.758	34764.44
591.955	34827.93
592.152	35387.02
592.349	34934.42
592.546	34965.14
592.743	34680.47
592.94	33892.01
593.137	34467.48
593.334	34539.16
593.531	33916.58
593.727	34490.01
593.924	34092.71
594.121	33830.57
594.318	33670.82
594.515	33136.31
594.712	33730.22
594.908	33466.03
595.105	33414.83
595.302	33038
595.499	33404.59
595.696	32804.53
595.892	32990.9
596.089	33212.08
596.286	33130.16
596.482	33099.44
596.679	32683.7
596.876	33083.06
597.072	32345.79
597.269	32216.77
597.466	31854.28
597.662	32102.08
597.859	32179.9
598.055	32067.27
598.252	31936.2
598.448	32206.53
598.645	31567.56
598.841	31454.92
599.038	31936.2
599.234	31557.32
599.431	30930.64
599.627	30973.65
599.824	31301.33
600.02	31063.76
600.217	31364.81
600.413	31018.71
600.609	30666.45
600.806	30445.27
601.002	30654.17
601.198	30486.23
601.395	30500.57
601.591	30602.97
601.787	30301.92
601.984	30101.22
602.18	30369.5
602.376	30183.13
602.572	29920.99
602.769	29898.47
602.965	29501.16
603.161	29775.59
603.357	29540.07
603.553	29771.49
603.75	29605.61
603.946	28976.88
604.142	29615.85
604.338	28864.24
604.534	29212.4
604.73	28942.07
604.926	28909.3
605.122	28915.44
605.318	28786.42
605.514	28600.05
605.71	29075.18
605.906	28538.62
606.102	28438.26
606.298	28380.92
606.494	28571.38
606.69	28393.21
606.886	28573.43
607.082	27842.31
607.278	27948.8
607.474	27748.1
607.67	28139.26
607.866	27416.33
608.062	28114.69
608.257	27473.67
608.453	27770.63
608.649	27797.25
608.845	27301.64
609.041	27436.81
609.236	27391.75
609.432	27610.89
609.628	27363.08
609.824	27512.58
610.019	26998.54
610.215	27019.02
610.411	27176.72
610.606	27180.81
610.802	26894.1
610.998	27047.69
611.193	27270.92
611.389	26890
611.584	26595.09
611.78	26390.3
611.976	26816.27
612.171	26509.08
612.367	26720.02
612.562	26392.34
612.758	26337.05
612.953	26083.1
613.149	26617.62
613.344	26240.79
613.539	26826.51
613.735	26105.63
613.93	26464.02
614.126	26097.44
614.321	26212.12
614.517	25970.46
614.712	25888.54
614.907	25882.4
615.103	25902.88
615.298	25894.69
615.493	26152.73
615.688	25474.85
615.884	25956.13
616.079	25513.77
616.274	25696.03
616.47	25560.87
616.665	25483.05
616.86	25194.28
617.055	25501.48
617.25	25259.82
617.445	25384.74
617.641	25030.44
617.836	25306.92
618.031	24872.75
618.226	25007.92
618.421	24768.3
618.616	25016.11
618.811	24745.78
619.006	24698.67
619.201	24131.39
619.396	24737.59
619.591	24293.18
619.786	24393.53
619.981	23899.97
620.176	24233.78
620.371	23805.76
620.566	23793.47
620.761	23885.63
620.956	23904.06
621.151	23349.06
621.346	23705.41
621.541	23209.8
621.735	23517
621.93	23123.79
622.125	23029.58
622.32	23088.97
622.515	23031.63
622.709	22712.14
622.904	22671.18
623.099	22435.67
623.294	22845.26
623.488	22214.49
623.683	22509.4
623.878	21970.78
624.072	22298.45
624.267	21841.76
624.462	21475.17
624.656	21587.81
624.851	21622.62
625.046	21325.67
625.24	21342.05
625.435	21176.17
625.629	20911.98
625.824	20787.05
626.018	21022.57
626.213	20535.15
626.407	20516.72
626.602	20397.94
626.796	20442.99
626.991	20178.81
627.185	20064.12
627.38	19918.71
627.574	20070.26
627.768	19832.7
627.963	19498.88
628.157	19552.13
628.352	19609.47
628.546	19142.53
628.74	19564.42
628.935	19378.05
629.129	19103.62
629.323	18614.16
629.517	18839.44
629.712	18399.12
629.906	19079.05
630.1	18364.31
630.294	18522
630.489	18323.35
630.683	18421.65
630.877	18075.54
631.071	18067.35
631.265	18149.27
631.459	17782.68
631.653	17739.68
631.848	17754.01
632.042	17706.91
632.236	17665.95
632.43	17594.27
632.624	17522.59
632.818	17377.19
633.012	17029.03
633.206	17010.6
633.4	17104.81
633.594	16977.83
633.788	16879.53
633.982	16953.26
634.176	16797.61
634.369	16631.72
634.563	16736.17
634.757	16492.46
634.951	16406.45
635.145	16461.74
635.339	16431.02
635.533	16101.3
635.726	16166.84
635.92	15855.54
636.114	15847.35
636.308	15884.22
636.501	15534.01
636.695	15470.53
636.889	15511.49
637.083	15519.68
637.276	15609.79
637.47	15202.24
637.664	15179.72
637.857	15050.69
638.051	15019.97
638.244	15060.93
638.438	14958.53
638.632	14759.88
638.825	14800.84
639.019	14759.88
639.212	14774.22
639.406	14602.19
639.599	14434.25
639.793	14389.2
639.986	14204.88
640.18	14434.25
640.373	14065.62
640.567	13912.02
640.76	14065.62
640.954	13881.3
641.147	13809.62
641.34	13737.95
641.534	13725.66
641.727	13641.69
641.92	13516.76
642.114	13449.18
642.307	13617.11
642.5	13359.07
642.694	13098.98
642.887	13256.67
643.08	13369.31
643.273	13295.58
643.467	13039.59
643.66	12742.63
643.853	12879.85
644.046	12906.47
644.239	12910.57
644.432	12816.36
644.626	12513.26
644.819	12824.55
645.012	12802.02
645.205	12517.36
645.398	12107.76
645.591	12333.04
645.784	12095.47
645.977	12247.02
646.17	12167.15
646.363	11880.44
646.556	11960.31
646.749	11872.25
646.942	11958.26
647.135	11943.92
647.328	11759.61
647.521	11683.83
647.714	11565.05
647.907	11493.37
648.099	11468.8
648.292	11554.81
648.485	11405.31
648.678	11175.94
648.871	11098.11
649.064	11276.29
649.256	11137.02
649.449	10831.88
649.642	11186.18
649.835	11044.87
650.027	10989.57
650.22	10741.77
650.413	10694.66
650.605	10903.56
650.798	10700.81
650.991	10473.48
651.183	10543.11
651.376	10348.56
651.568	10389.52
651.761	10539.02
651.954	10346.51
652.146	10410
652.339	10311.69
652.531	10299.41
652.724	10117.14
652.916	10039.31
653.109	9986.07
653.301	9846.8
653.494	10119.18
653.686	9867.28
653.879	9820.18
654.071	9797.65
654.263	9697.3
654.456	9818.13
654.648	9791.51
654.84	9474.07
655.033	9486.36
655.225	9281.57
655.417	9439.26
655.61	9281.57
655.802	9465.88
655.994	9392.16
656.186	9287.71
656.379	9252.89
656.571	8941.6
656.763	9216.03
656.955	9044
657.148	8966.18
657.34	9070.62
657.532	9007.14
657.724	8898.59
657.916	8937.51
658.108	8849.44
658.3	8542.25
658.492	8611.88
658.684	8597.54
658.876	8650.79
659.068	8470.57
659.26	8536.1
659.452	8474.67
659.644	8509.48
659.836	8249.39
660.028	8280.11
660.22	8177.71
660.412	8132.65
660.604	8097.84
660.796	8190
660.988	8099.89
661.18	8126.51
661.372	8214.57
661.563	8003.63
661.755	7882.8
661.947	8040.5
662.139	7919.67
662.331	7979.06
662.522	7737.4
662.714	7917.62
662.906	7827.51
663.097	7747.64
663.289	7598.13
663.481	7696.44
663.673	7409.72
663.864	7632.95
664.056	7288.89
664.247	7454.78
664.439	7286.84
664.631	7397.43
664.822	7415.87
665.014	7258.17
665.205	7422.01
665.397	7145.53
665.588	7229.5
665.78	6989.89
665.971	7120.96
666.163	7073.85
666.354	7209.02
666.546	7059.52
666.737	7002.18
666.929	7059.52
667.12	6869.06
667.311	6916.16
667.503	6893.63
667.694	6871.11
667.885	6885.44
668.077	6748.23
668.268	6707.27
668.459	6680.64
668.651	6783.04
668.842	6758.47
669.033	6627.4
669.224	6543.43
669.416	6600.77
669.607	6559.81
669.798	6367.31
669.989	6557.77
670.18	6434.89
670.371	6391.88
670.563	6492.23
670.754	6412.36
670.945	6303.82
671.136	6320.2
671.327	6334.54
671.518	6258.76
671.709	6307.91
671.9	6201.42
672.091	6107.21
672.282	6180.94
672.473	6174.8
672.664	6264.91
672.855	6109.26
673.046	6111.31
673.237	6004.82
673.428	5953.62
673.619	5912.66
673.809	5869.65
674	5845.07
674.191	6019.15
674.382	5863.51
674.573	5996.62
674.764	5675.09
674.954	5834.83
675.145	5871.7
675.336	5734.48
675.527	5785.68
675.717	5843.03
675.908	5568.6
676.099	5777.49
676.289	6074.45
676.48	5642.32
676.671	5552.21
676.861	5666.9
677.052	5582.93
677.243	5494.87
677.433	5609.56
677.624	5625.94
677.814	5562.45
678.005	5519.45
678.195	5402.71
678.386	5572.69
678.576	5443.67
678.767	5568.6
678.957	5486.68
679.148	5371.99
679.338	5357.66
679.529	5386.33
679.719	5189.72
679.909	5544.02
680.1	5275.74
680.29	5376.09
680.481	5261.4
680.671	5296.22
680.861	5187.68
681.052	5212.25
681.242	5189.72
681.432	5361.75
681.622	5109.85
681.813	5025.89
682.003	5224.54
682.193	4962.4
682.383	5128.28
682.573	5054.56
682.764	5148.76
682.954	5009.5
683.144	5042.27
683.334	5132.38
683.524	4946.02
683.714	4952.16
683.904	4970.59
684.094	5120.09
684.284	4907.1
684.474	4980.83
684.664	4952.16
684.854	4980.83
685.044	5056.61
685.234	4792.42
685.424	4851.81
685.614	4829.28
685.804	4972.64
685.994	4894.82
686.184	4894.82
686.374	4812.9
686.564	4894.82
686.753	4853.86
686.943	4581.48
687.133	4608.1
687.323	4659.3
687.513	4561
687.702	4618.34
687.892	4530.28
688.082	4661.35
688.272	4536.42
688.461	4483.17
688.651	4642.92
688.841	4517.99
689.03	4493.41
689.22	4434.02
689.41	4425.83
689.599	4358.25
689.789	4474.98
689.979	4321.38
690.168	4374.63
690.358	4374.63
690.547	4245.61
690.737	4386.92
690.926	4239.47
691.116	4186.22
691.305	4194.41
691.495	4309.1
691.684	4128.88
691.874	4198.51
692.063	4089.96
692.252	4108.4
692.442	4112.49
692.631	4104.3
692.82	4132.97
693.01	4087.92
693.199	4128.88
693.388	4147.31
693.578	3930.22
693.767	4051.05
693.956	3995.76
694.146	3973.23
694.335	3879.02
694.524	3868.78
694.713	3928.17
694.902	3891.31
695.092	3934.32
695.281	3846.26
695.47	3881.07
695.659	3813.49
695.848	3772.53
696.037	3739.76
696.226	3764.34
696.415	3829.87
696.604	3809.39
696.793	3764.34
696.982	3780.72
697.171	3760.24
697.36	3729.52
697.549	3881.07
697.738	3727.47
697.927	3725.43
698.116	3668.08
698.305	3752.05
698.494	3690.61
698.683	3678.32
698.872	3616.88
699.061	3635.32
699.25	3719.28
699.438	3651.7
699.627	3625.08
699.816	3588.21
700.005	3563.64
700.193	3518.58
700.382	3471.48
700.571	3563.64
700.76	3522.68
700.948	3502.2
701.137	3451
701.326	3608.69
701.514	3479.67
701.703	3610.74
701.892	3403.89
702.08	3469.43
702.269	3545.2
702.457	3461.24
702.646	3537.01
702.834	3436.66
703.023	3381.37
703.212	3375.22
703.4	3457.14
703.589	3309.69
703.777	3416.18
703.965	3258.49
704.154	3344.5
704.342	3248.25
704.531	3254.39
704.719	3285.11
704.907	3268.73
705.096	3313.78
705.284	3321.98
705.472	3324.02
705.661	3248.25
705.849	3215.48
706.037	3291.26
706.226	3272.82
706.414	3326.07
706.602	3240.06
706.79	3188.86
706.979	3113.08
707.167	3192.95
707.355	3145.85
707.543	3227.77
707.731	3141.75
707.919	3119.23
708.107	3123.32
708.296	3033.21
708.484	3039.36
708.672	3170.43
708.86	3039.36
709.048	3084.41
709.236	3049.6
709.424	3137.66
709.612	3154.04
709.8	3018.88
709.988	3154.04
710.176	3100.8
710.364	3029.12
710.551	3084.41
710.739	3076.22
710.927	3248.25
711.115	2963.58
711.303	2961.53
711.491	2996.35
711.679	3059.84
711.866	2996.35
712.054	3045.5
712.242	3100.8
712.43	3068.03
712.617	2922.62
712.805	2949.25
712.993	2936.96
713.181	2781.31
713.368	2930.81
713.556	2904.19
713.744	3008.64
713.931	2877.57
714.119	2912.38
714.306	2977.92
714.494	2879.61
714.682	2910.33
714.869	2781.31
715.057	2850.94
715.244	2865.28
715.432	2906.24
715.619	2834.56
715.807	2863.23
715.994	2939.01
716.182	2758.78
716.369	2816.13
716.556	2848.9
716.744	2844.8
716.931	2807.94
717.119	2904.19
717.306	2863.23
717.493	2850.94
717.681	2846.85
717.868	2797.7
718.055	2822.27
718.242	2877.57
718.43	2785.41
718.617	2750.59
718.804	2789.5
718.991	2769.02
719.179	2623.62
719.366	2807.94
719.553	2758.78
719.74	2621.57
719.927	2689.15
720.114	2668.67
720.301	2699.39
720.488	2654.34
720.676	2707.59
720.863	2732.16
721.05	2687.11
721.237	2613.38
721.424	2556.04
721.611	2640
721.798	2726.02
721.985	2568.32
722.172	2510.98
722.358	2668.67
722.545	2584.71
722.732	2494.6
722.919	2672.77
723.106	2662.53
723.293	2551.94
723.48	2601.09
723.667	2551.94
723.853	2564.23
724.04	2584.71
724.227	2592.9
724.414	2474.12
724.6	2562.18
724.787	2594.95
724.974	2662.53
725.161	2637.95
725.347	2543.75
725.534	2445.45
725.72	2504.84
725.907	2494.6
726.094	2627.71
726.28	2451.59
726.467	2519.17
726.653	2379.91
726.84	2433.16
727.027	2545.8
727.213	2431.11
727.4	2484.36
727.586	2420.87
727.773	2439.3
727.959	2482.31
728.145	2465.93
728.332	2482.31
728.518	2496.64
728.705	2515.08
728.891	2435.21
729.077	2433.16
729.264	2394.25
729.45	2463.88
729.636	2369.67
729.823	2406.53
730.009	2482.31
730.195	2453.64
730.382	2457.73
730.568	2371.72
730.754	2398.34
730.94	2371.72
731.126	2392.2
731.313	2453.64
731.499	2347.14
731.685	2314.38
731.871	2369.67
732.057	2330.76
732.243	2384.01
732.429	2248.84
732.615	2494.6
732.801	2349.19
732.987	2351.24
733.173	2273.42
733.359	2396.29
733.545	2353.29
733.731	2246.79
733.917	2408.58
734.103	2273.42
734.289	2275.46
734.475	2390.15
734.661	2287.75
734.847	2338.95
735.033	2263.18
735.219	2254.98
735.404	2355.33
735.59	2211.98
735.776	2162.83
735.962	2218.12
736.148	2338.95
736.333	2209.93
736.519	2265.22
736.705	2199.69
736.89	2257.03
737.076	2220.17
737.262	2111.63
737.447	2273.42
737.633	2216.07
737.819	2185.35
738.004	2240.65
738.19	2199.69
738.375	2173.07
738.561	2144.39
738.747	2199.69
738.932	2070.67
739.118	2244.74
739.303	2216.07
739.489	2289.8
739.674	2150.54
739.859	2019.47
740.045	2111.63
740.23	2150.54
740.416	1990.8
740.601	2156.68
740.786	2160.78
740.972	2144.39
741.157	2050.19
741.342	2062.48
741.528	1898.64
741.713	2148.49
741.898	1908.88
742.084	2007.18
742.269	1953.93
742.454	1945.74
742.639	2134.15
742.824	1978.51
743.01	2042
743.195	1937.55
743.38	1847.44
743.565	1892.49
743.75	1970.32
743.935	1919.12
744.12	1986.7
744.305	1839.25
744.49	1908.88
744.675	1806.48
744.86	1953.93
745.045	1978.51
745.23	1917.07
745.415	1822.86
745.6	1949.84
745.785	1843.34
745.97	1867.92
746.155	1980.56
746.34	1898.64
746.525	1781.9
746.71	1833.1
746.895	1759.38
747.079	1822.86
747.264	1804.43
747.449	1775.76
747.634	1771.66
747.819	1712.27
748.003	1702.03
748.188	1609.87
748.373	1560.72
748.557	1626.26
748.742	1732.75
748.927	1652.88
749.111	1702.03
749.296	1626.26
749.481	1671.31
749.665	1642.64
749.85	1640.59
750.034	1603.73
750.219	1601.68
750.404	1560.72
750.588	1609.87
750.773	1507.48
750.957	1470.61
751.141	1579.15
751.326	1503.38
751.51	1548.44
751.695	1433.75
751.879	1495.19
752.064	1495.19
752.248	1532.05
752.432	1470.61
752.617	1413.27
752.801	1470.61
752.985	1460.37
753.17	1448.08
753.354	1396.89
753.538	1456.28
753.722	1294.49
753.907	1472.66
754.091	1312.92
754.275	1314.97
754.459	1396.89
754.643	1212.57
754.828	1304.73
755.012	1333.4
755.196	1337.49
755.38	1357.97
755.564	1284.25
755.748	1269.91
755.932	1325.21
756.116	1241.24
756.3	1349.78
756.484	1249.43
756.668	1274.01
756.852	1243.29
757.036	1259.67
757.22	1314.97
757.404	1099.93
757.588	1204.38
757.772	1183.9
757.956	1265.82
758.14	1233.05
758.323	1187.99
758.507	1085.59
758.691	1192.09
758.875	1126.55
759.059	1118.36
759.242	1077.4
759.426	1089.69
759.61	1093.79
759.794	1161.37
759.977	1185.94
760.161	1175.7
760.345	1030.3
760.528	1153.18
760.712	1036.44
760.895	1104.03
761.079	1069.21
761.263	991.39
761.446	1061.02
761.63	1190.04
761.813	1073.31
761.997	1024.16
762.18	1020.06
762.364	1093.79
762.547	1063.07
762.731	993.44
762.914	1011.87
763.098	991.39
763.281	1048.73
763.464	1026.2
763.648	1024.16
763.831	938.14
764.015	954.52
764.198	993.44
764.381	938.14
764.564	929.95
764.748	975
764.931	1007.77
765.114	1003.68
765.297	995.48
765.481	878.75
765.664	993.44
765.847	913.56
766.03	872.61
766.213	1003.68
766.397	868.51
766.58	891.04
766.763	880.8
766.946	970.91
767.129	852.13
767.312	882.85
767.495	905.37
767.678	913.56
767.861	913.56
768.044	809.12
768.227	858.27
768.41	823.45
768.593	815.26
768.776	891.04
768.959	839.84
769.142	891.04
769.324	848.03
769.507	839.84
769.69	876.7
769.873	921.76
770.056	915.61
770.239	856.22
770.421	884.89
770.604	821.41
770.787	807.07
770.97	819.36
771.152	839.84
771.335	845.98
771.518	786.59
771.7	805.02
771.883	864.41
772.066	882.85
772.248	698.53
772.431	733.34
772.613	798.88
772.796	843.93
772.978	888.99
773.161	829.6
773.343	723.1
773.526	731.3
773.708	733.34
773.891	651.42
774.073	786.59
774.256	729.25
774.438	782.49
774.621	725.15
774.803	759.97
774.985	731.3
775.168	753.82
775.35	639.14
775.532	669.86
775.715	647.33
775.897	788.64
776.079	602.27
776.261	774.3
776.444	706.72
776.626	622.75
776.808	688.29
776.99	606.37
777.173	577.7
777.355	684.19
777.537	618.66
777.719	577.7
777.901	635.04
778.083	688.29
778.265	641.18
778.447	614.56
778.629	594.08
778.811	587.94
778.993	585.89
779.175	647.33
779.357	610.47
779.539	561.31
779.721	587.94
779.903	544.93
780.085	598.18
780.267	557.22
780.449	587.94
780.631	594.08
780.812	557.22
780.994	618.66
781.176	559.27
781.358	487.59
781.54	528.55
781.721	573.6
781.903	557.22
782.085	530.59
782.267	432.29
782.448	528.55
782.63	553.12
782.812	506.02
782.993	465.06
783.175	479.4
783.357	477.35
783.538	536.74
783.72	440.48
783.901	409.76
784.083	479.4
784.264	583.84
784.446	479.4
784.627	442.53
784.809	463.01
784.99	415.91
785.172	516.26
785.353	458.92
785.535	465.06
785.716	463.01
785.897	420
786.079	483.49
786.26	467.11
786.441	438.44
786.623	413.86
786.804	422.05
786.985	350.37
787.167	381.09
787.348	467.11
787.529	424.1
787.71	438.44
787.891	409.76
788.073	407.72
788.254	377
788.435	356.52
788.616	473.25
788.797	370.85
788.978	381.09
789.159	415.91
789.34	465.06
789.522	323.75
789.703	338.09
789.884	377
790.065	348.33
790.246	385.19
790.427	338.09
790.607	405.67
790.788	366.76
790.969	360.61
791.15	381.09
791.331	344.23
791.512	340.13
791.693	333.99
791.874	319.65
792.054	399.52
792.235	393.38
792.416	276.65
792.597	344.23
792.778	342.18
792.958	348.33
793.139	270.5
793.32	338.09
793.5	299.17
793.681	381.09
793.862	311.46
794.042	354.47
794.223	235.69
794.404	313.51
794.584	295.08
794.765	260.26
794.945	231.59
795.126	329.89
795.306	381.09
795.487	276.65
795.667	340.13
795.848	303.27
796.028	303.27
796.209	231.59
796.389	237.74
796.57	223.4
796.75	237.74
796.93	192.68
797.111	237.74
797.291	368.81
797.471	342.18
797.652	239.78
797.832	295.08
798.012	266.41
798.192	184.49
798.373	307.37
798.553	284.84
798.733	256.17
798.913	223.4
799.093	241.83
799.274	243.88
799.454	284.84
799.634	301.22
799.814	342.18
799.994	295.08
800.174	336.04
800.354	290.98
800.534	221.35
800.714	166.06
800.894	182.44
801.074	225.45
801.254	278.69
801.434	235.69
801.614	233.64
801.794	223.4
801.974	798.88
802.154	204.97
802.334	241.83
802.514	260.26
802.693	227.5
802.873	182.44
803.053	272.55
803.233	225.45
803.413	282.79
803.592	278.69
803.772	209.06
803.952	358.57
804.131	161.96
804.311	264.36
804.491	209.06
804.67	143.53
804.85	202.92
805.03	217.26
805.209	241.83
805.389	252.07
805.568	270.5
805.748	229.54
805.928	252.07
806.107	184.49
806.287	241.83
806.466	157.86
806.646	192.68
806.825	200.87
807.004	256.17
807.184	241.83
807.363	282.79
807.543	211.11
807.722	170.15
807.901	204.97
808.081	270.5
808.26	118.95
808.439	157.86
808.619	237.74
808.798	145.58
808.977	233.64
809.156	237.74
809.336	145.58
809.515	121
809.694	137.38
809.873	155.82
810.052	227.5
810.231	202.92
810.411	184.49
810.59	186.54
810.769	202.92
810.948	172.2
811.127	209.06
811.306	125.1
811.485	180.39
811.664	159.91
811.843	254.12
812.022	184.49
812.201	213.16
812.38	184.49
812.559	147.62
812.737	225.45
812.916	176.3
813.095	227.5
813.274	239.78
813.453	88.23
813.632	196.78
813.811	180.39
813.989	90.28
814.168	278.69
814.347	225.45
814.526	82.09
814.704	215.21
814.883	180.39
815.062	145.58
815.24	145.58
815.419	186.54
815.598	200.87
815.776	194.73
815.955	172.2
816.133	86.19
816.312	96.43
816.49	94.38
816.669	237.74
816.847	149.67
817.026	145.58
817.204	225.45
817.383	164.01
817.561	161.96
817.74	204.97
817.918	114.86
818.097	69.8
818.275	123.05
818.453	127.14
818.632	213.16
818.81	82.09
818.988	110.76
819.167	172.2
819.345	184.49
819.523	96.43
819.701	65.71
819.879	151.72
820.058	164.01
820.236	143.53
820.414	168.1
820.592	123.05
820.77	145.58
820.948	194.73
821.127	139.43
821.305	139.43
821.483	118.95
821.661	178.34
821.839	151.72
822.017	82.09
822.195	131.24
822.373	190.63
822.551	73.9
822.729	141.48
822.907	178.34
823.085	176.3
823.262	164.01
823.44	116.9
823.618	151.72
823.796	137.38
823.974	180.39
824.152	69.8
824.329	121
824.507	112.81
824.685	100.52
824.863	174.25
825.04	63.66
825.218	129.19
825.396	67.75
825.574	104.62
825.751	100.52
825.929	121
826.107	30.89
826.284	77.99
826.462	47.27
826.639	49.32
826.817	110.76
826.994	153.77
827.172	94.38
827.349	147.62
827.527	88.23
827.704	168.1
827.882	47.27
828.059	145.58
828.237	106.67
828.414	102.57
828.591	43.18
828.769	49.32
828.946	80.04
829.124	86.19
829.301	65.71
829.478	118.95
829.655	180.39
829.833	69.8
830.01	77.99
830.187	145.58
830.364	145.58
830.542	114.86
830.719	143.53
830.896	116.9
831.073	106.67
831.25	53.42
831.427	151.72
831.604	100.52
831.782	94.38
831.959	49.32
832.136	2.22
832.313	110.76
832.49	112.81
832.667	90.28
832.844	106.67
833.021	139.43
833.198	75.95
833.374	41.13
833.551	-8.02
833.728	43.18
833.905	90.28
834.082	106.67
834.259	39.08
834.436	147.62
834.612	12.46
834.789	110.76
834.966	71.85
835.143	92.33
835.319	57.51
835.496	112.81
835.673	90.28
835.85	161.96
836.026	61.61
836.203	47.27
836.38	34.99
836.556	63.66
836.733	123.05
836.909	172.2
837.086	53.42
837.262	63.66
837.439	77.99
837.616	69.8
837.792	61.61
837.968	102.57
838.145	26.79
838.321	-20.31
838.498	90.28
838.674	69.8
838.851	10.41
839.027	106.67
839.203	24.75
839.38	37.03
839.556	30.89
839.732	143.53
839.909	94.38
840.085	94.38
840.261	47.27
840.437	77.99
840.614	47.27
840.79	98.47
840.966	63.66
841.142	77.99
841.318	98.47
841.494	118.95
841.671	112.81
841.847	45.23
842.023	63.66
842.199	133.29
842.375	90.28
842.551	37.03
842.727	63.66
842.903	112.81
843.079	0.17
843.255	108.71
843.431	65.71
843.607	114.86
843.783	-3.93
843.959	82.09
844.134	116.9
844.31	61.61
844.486	55.47
844.662	94.38
844.838	32.94
845.013	116.9
845.189	6.31
845.365	102.57
845.541	20.65
845.716	-8.02
845.892	45.23
846.068	67.75
846.244	71.85
846.419	39.08
846.595	18.6
846.77	63.66
846.946	8.36
847.122	139.43
847.297	77.99
847.473	53.42
847.648	69.8
847.824	86.19
847.999	106.67
848.175	53.42
848.35	28.84
848.526	112.81
848.701	55.47
848.876	104.62
849.052	55.47
849.227	65.71
849.403	53.42
849.578	129.19
849.753	110.76
849.929	16.55
850.104	88.23
850.279	43.18
850.454	53.42
850.63	-42.84
850.805	84.14
850.98	34.99
851.155	49.32
851.33	24.75
851.505	49.32
851.681	86.19
851.856	57.51
852.031	69.8
852.206	98.47
852.381	86.19
852.556	49.32
852.731	59.56
852.906	86.19
853.081	16.55
853.256	92.33
853.431	86.19
853.606	57.51
853.781	-3.93
853.956	84.14
854.131	149.67
854.305	71.85
854.48	-14.17
854.655	88.23
854.83	63.66
855.005	20.65
855.18	92.33
855.354	86.19
855.529	-57.17
855.704	104.62
855.879	143.53
856.053	92.33
856.228	45.23
856.403	4.27
856.577	88.23
856.752	24.75
856.926	30.89
857.101	82.09
857.276	4.27
857.45	92.33
857.625	164.01
857.799	53.42
857.974	10.41
858.148	0.17
858.323	30.89
858.497	80.04
858.672	30.89
858.846	30.89
859.02	67.75
859.195	20.65
859.369	94.38
859.543	45.23
859.718	118.95
859.892	-40.79
860.066	32.94
860.241	30.89
860.415	16.55
860.589	22.7
860.763	86.19
860.938	88.23
861.112	24.75
861.286	-16.21
861.46	12.46
861.634	37.03
861.808	106.67
861.982	41.13
862.157	4.27
862.331	30.89
862.505	-8.02
862.679	73.9
862.853	47.27
863.027	41.13
863.201	84.14
863.375	14.51
863.549	-24.4
863.722	41.13
863.896	45.23
864.07	18.6
864.244	-10.07
864.418	20.65
864.592	39.08
864.766	37.03
864.939	45.23
865.113	37.03
865.287	127.14
865.461	-3.93
865.634	90.28
865.808	-53.08
865.982	2.22
866.156	-44.88
866.329	-44.88
866.503	-18.26
866.676	28.84
866.85	10.41
867.024	49.32
867.197	8.36
867.371	69.8
867.544	59.56
867.718	4.27
867.891	30.89
868.065	57.51
868.238	28.84
868.412	118.95
868.585	4.27
868.759	0.17
868.932	-26.45
869.105	-12.12
869.279	30.89
869.452	53.42
869.625	8.36
869.799	22.7
869.972	18.6
870.145	-8.02
870.319	-98.13
870.492	0.17
870.665	-12.12
870.838	18.6
871.011	12.46
871.185	10.41
871.358	-16.21
871.531	67.75
871.704	110.76
871.877	71.85
872.05	12.46
872.223	20.65
872.396	22.7
872.569	22.7
872.742	-26.45
872.915	55.47
873.088	4.27
873.261	14.51
873.434	80.04
873.607	51.37
873.78	69.8
873.953	4.27
874.126	37.03
874.299	47.27
874.471	41.13
874.644	61.61
874.817	41.13
874.99	67.75
875.163	-38.74
875.335	26.79
875.508	14.51
875.681	45.23
875.853	61.61
876.026	26.79
876.199	18.6
876.371	14.51
876.544	22.7
876.717	55.47
876.889	41.13
877.062	49.32
877.234	0.17
877.407	37.03
877.579	34.99
877.752	12.46
877.924	51.37
878.097	53.42
878.269	-5.97
878.442	6.31
878.614	-1.88
878.786	12.46
878.959	53.42
879.131	37.03
879.303	-5.97
879.476	12.46
879.648	32.94
879.82	-22.36
879.993	49.32
880.165	80.04
880.337	47.27
880.509	100.52
880.681	2.22
880.854	-32.6
881.026	94.38
881.198	45.23
881.37	80.04
881.542	-20.31
881.714	26.79
881.886	-1.88
882.058	22.7
882.23	45.23
882.402	32.94
882.574	37.03
882.746	73.9
882.918	86.19
883.09	43.18
883.262	71.85
883.434	-12.12
883.606	18.6
883.778	-34.64
883.95	88.23
884.122	4.27
884.293	61.61
884.465	-20.31
884.637	96.43
884.809	12.46
884.98	16.55
885.152	57.51
885.324	121
885.496	-53.08
885.667	22.7
885.839	12.46
886.011	6.31
886.182	12.46
886.354	106.67
886.525	32.94
886.697	88.23
886.869	30.89
887.04	16.55
887.212	24.75
887.383	77.99
887.555	-34.64
887.726	53.42
887.897	-26.45
888.069	20.65
888.24	71.85
888.412	12.46
888.583	49.32
888.754	22.7
888.926	63.66
889.097	49.32
889.268	-20.31
889.44	47.27
889.611	2.22
889.782	12.46
889.953	-3.93
890.125	77.99
890.296	-8.02
890.467	28.84
890.638	-20.31
890.809	28.84
890.98	-10.07
891.151	47.27
891.323	94.38
891.494	41.13
891.665	-36.69
891.836	24.75
892.007	53.42
892.178	22.7
892.349	65.71
892.52	24.75
892.691	49.32
892.862	22.7
893.032	-14.17
893.203	-34.64
893.374	20.65
893.545	28.84
893.716	-1.88
893.887	63.66
894.057	34.99
894.228	-20.31
894.399	-51.03
894.57	26.79
894.74	4.27
894.911	30.89
895.082	37.03
895.253	55.47
895.423	-3.93
895.594	82.09
895.764	-28.5
895.935	53.42
896.106	53.42
896.276	-36.69
896.447	24.75
896.617	20.65
896.788	-71.51
896.958	-12.12
897.129	-12.12
897.299	69.8
897.47	28.84
897.64	90.28
897.81	6.31
897.981	77.99
898.151	-5.97
898.322	55.47
898.492	20.65
898.662	32.94
898.832	-38.74
899.003	24.75
899.173	84.14
899.343	-28.5
899.513	-30.55
