Data from USB4F104151__259__14-22-45-038.txt Node

Date: Thu Mar 13 14:22:45 EDT 2025
User: louis
Spectrometer: USB4F10415
Trigger mode: 4
Integration Time (sec): 2.000000E-2
Scans to average: 1
Electric dark correction enabled: true
Nonlinearity correction enabled: false
Boxcar width: 0
XAxis mode: Wavelengths
Number of Pixels in Spectrum: 3648
>>>>>Begin Spectral Data<<<<<
178.204	-127.49
178.424	-127.49
178.644	-127.49
178.864	-94.72
179.084	-135.68
179.304	-33.28
179.524	-35.33
179.744	34.3
179.964	9.73
180.184	9.73
180.404	5.63
180.624	-16.9
180.844	5.63
181.064	5.63
181.283	3.58
181.503	-12.8
181.723	24.06
181.943	26.11
182.163	36.35
182.383	-43.52
182.602	-20.99
182.822	9.73
183.042	32.26
183.262	28.16
183.482	-4.61
183.701	-4.61
183.921	-6.66
184.141	-72.19
184.361	77.31
184.58	24.06
184.8	28.16
185.02	-2.56
185.239	22.02
185.459	22.02
185.679	24.06
185.898	-18.94
186.118	28.16
186.338	40.45
186.557	7.68
186.777	-45.57
186.997	3.58
187.216	-18.94
187.436	44.54
187.655	22.02
187.875	19.97
188.095	40.45
188.314	54.78
188.534	30.21
188.753	110.08
188.973	19.97
189.192	65.02
189.412	22.02
189.631	-64
189.851	44.54
190.07	83.45
190.29	-25.09
190.509	-51.71
190.729	42.5
190.948	95.74
191.168	110.08
191.387	52.74
191.607	-43.52
191.826	48.64
192.045	-41.47
192.265	-43.52
192.484	-2.56
192.704	56.83
192.923	-41.47
193.142	103.93
193.362	60.93
193.581	85.5
193.8	85.5
194.02	-27.14
194.239	77.31
194.458	71.17
194.678	19.97
194.897	44.54
195.116	50.69
195.335	44.54
195.555	9.73
195.774	-4.61
195.993	73.21
196.212	11.78
196.432	-37.38
196.651	46.59
196.87	11.78
197.089	105.98
197.308	-8.7
197.528	44.54
197.747	-6.66
197.966	-14.85
198.185	36.35
198.404	44.54
198.623	83.45
198.842	22.02
199.062	56.83
199.281	62.98
199.5	69.12
199.719	7.68
199.938	7.68
200.157	-8.7
200.376	28.16
200.595	40.45
200.814	-29.18
201.033	19.97
201.252	13.82
201.471	-16.9
201.69	71.17
201.909	40.45
202.128	-23.04
202.347	46.59
202.566	15.87
202.785	-41.47
203.004	36.35
203.223	140.8
203.442	5.63
203.661	36.35
203.879	40.45
204.098	36.35
204.317	-6.66
204.536	7.68
204.755	83.45
204.974	-66.05
205.193	40.45
205.411	87.55
205.63	-8.7
205.849	-61.95
206.068	11.78
206.287	40.45
206.505	7.68
206.724	28.16
206.943	73.21
207.162	-45.57
207.381	69.12
207.599	22.02
207.818	56.83
208.037	-12.8
208.255	-14.85
208.474	54.78
208.693	-8.7
208.911	7.68
209.13	-25.09
209.349	79.36
209.567	54.78
209.786	5.63
210.005	44.54
210.223	65.02
210.442	-78.33
210.661	81.41
210.879	58.88
211.098	-10.75
211.316	19.97
211.535	79.36
211.753	36.35
211.972	24.06
212.191	32.26
212.409	3.58
212.628	44.54
212.846	-0.51
213.065	81.41
213.283	65.02
213.502	73.21
213.72	-0.51
213.938	19.97
214.157	15.87
214.375	69.12
214.594	36.35
214.812	46.59
215.031	22.02
215.249	-8.7
215.467	-16.9
215.686	-45.57
215.904	5.63
216.122	15.87
216.341	93.69
216.559	9.73
216.778	75.26
216.996	36.35
217.214	54.78
217.432	36.35
217.651	42.5
217.869	11.78
218.087	-20.99
218.306	44.54
218.524	71.17
218.742	-51.71
218.96	52.74
219.179	19.97
219.397	56.83
219.615	38.4
219.833	44.54
220.051	46.59
220.27	93.69
220.488	-2.56
220.706	52.74
220.924	40.45
221.142	-45.57
221.36	22.02
221.578	52.74
221.796	-35.33
222.015	19.97
222.233	44.54
222.451	71.17
222.669	19.97
222.887	93.69
223.105	-16.9
223.323	46.59
223.541	11.78
223.759	22.02
223.977	-14.85
224.195	26.11
224.413	15.87
224.631	30.21
224.849	-6.66
225.067	24.06
225.285	13.82
225.503	44.54
225.721	5.63
225.939	38.4
226.157	17.92
226.375	48.64
226.592	46.59
226.81	11.78
227.028	19.97
227.246	73.21
227.464	46.59
227.682	69.12
227.9	-39.42
228.117	134.65
228.335	5.63
228.553	-20.99
228.771	-29.18
228.989	-4.61
229.206	81.41
229.424	11.78
229.642	71.17
229.86	50.69
230.077	46.59
230.295	-18.94
230.513	77.31
230.731	11.78
230.948	62.98
231.166	22.02
231.384	65.02
231.601	-29.18
231.819	32.26
232.037	5.63
232.254	22.02
232.472	13.82
232.689	7.68
232.907	52.74
233.125	19.97
233.342	44.54
233.56	-27.14
233.777	-2.56
233.995	93.69
234.213	60.93
234.43	19.97
234.648	13.82
234.865	3.58
235.083	-8.7
235.3	11.78
235.518	-2.56
235.735	105.98
235.953	110.08
236.17	87.55
236.388	-61.95
236.605	95.74
236.822	44.54
237.04	60.93
237.257	11.78
237.475	-43.52
237.692	28.16
237.909	9.73
238.127	19.97
238.344	-35.33
238.562	28.16
238.779	30.21
238.996	-2.56
239.214	26.11
239.431	105.98
239.648	11.78
239.865	36.35
240.083	85.5
240.3	15.87
240.517	65.02
240.735	-0.51
240.952	19.97
241.169	-20.99
241.386	-47.62
241.603	-18.94
241.821	22.02
242.038	-10.75
242.255	40.45
242.472	-102.91
242.689	52.74
242.907	65.02
243.124	34.3
243.341	30.21
243.558	26.11
243.775	24.06
243.992	15.87
244.209	40.45
244.426	69.12
244.643	22.02
244.86	-10.75
245.078	28.16
245.295	19.97
245.512	-18.94
245.729	19.97
245.946	60.93
246.163	95.74
246.38	-10.75
246.597	69.12
246.814	-27.14
247.031	-8.7
247.248	5.63
247.464	-20.99
247.681	5.63
247.898	13.82
248.115	77.31
248.332	54.78
248.549	69.12
248.766	48.64
248.983	67.07
249.2	30.21
249.417	-82.43
249.633	1.54
249.85	-37.38
250.067	24.06
250.284	28.16
250.501	48.64
250.717	-12.8
250.934	54.78
251.151	-4.61
251.368	19.97
251.585	79.36
251.801	-4.61
252.018	65.02
252.235	28.16
252.451	-27.14
252.668	-51.71
252.885	-2.56
253.102	-25.09
253.318	-2.56
253.535	40.45
253.752	5.63
253.968	13.82
254.185	36.35
254.401	-6.66
254.618	-57.86
254.835	-12.8
255.051	65.02
255.268	67.07
255.484	-16.9
255.701	22.02
255.917	71.17
256.134	46.59
256.351	11.78
256.567	-8.7
256.784	60.93
257	-8.7
257.217	52.74
257.433	-8.7
257.65	54.78
257.866	3.58
258.082	-35.33
258.299	-27.14
258.515	60.93
258.732	52.74
258.948	-12.8
259.165	-6.66
259.381	58.88
259.597	28.16
259.814	5.63
260.03	-20.99
260.246	17.92
260.463	44.54
260.679	67.07
260.895	15.87
261.112	48.64
261.328	38.4
261.544	28.16
261.761	118.27
261.977	44.54
262.193	-51.71
262.409	93.69
262.626	60.93
262.842	155.13
263.058	-20.99
263.274	26.11
263.49	-4.61
263.707	-2.56
263.923	13.82
264.139	-8.7
264.355	-14.85
264.571	36.35
264.787	73.21
265.004	69.12
265.22	26.11
265.436	-59.9
265.652	-4.61
265.868	36.35
266.084	-4.61
266.3	15.87
266.516	40.45
266.732	52.74
266.948	3.58
267.164	46.59
267.38	71.17
267.596	11.78
267.812	32.26
268.028	46.59
268.244	-37.38
268.46	19.97
268.676	-31.23
268.892	-12.8
269.108	36.35
269.324	62.98
269.54	19.97
269.756	44.54
269.972	-10.75
270.188	-4.61
270.403	-45.57
270.619	36.35
270.835	48.64
271.051	52.74
271.267	38.4
271.483	15.87
271.698	26.11
271.914	-16.9
272.13	-23.04
272.346	-12.8
272.562	32.26
272.777	15.87
272.993	34.3
273.209	19.97
273.425	36.35
273.64	-29.18
273.856	-29.18
274.072	28.16
274.287	-72.19
274.503	52.74
274.719	89.6
274.934	-33.28
275.15	-45.57
275.366	48.64
275.581	-18.94
275.797	3.58
276.012	46.59
276.228	48.64
276.444	77.31
276.659	-16.9
276.875	22.02
277.09	-51.71
277.306	77.31
277.521	65.02
277.737	22.02
277.952	11.78
278.168	13.82
278.383	93.69
278.599	85.5
278.814	46.59
279.03	19.97
279.245	48.64
279.461	26.11
279.676	30.21
279.892	-2.56
280.107	15.87
280.322	-18.94
280.538	38.4
280.753	15.87
280.969	79.36
281.184	15.87
281.399	-16.9
281.615	38.4
281.83	54.78
282.045	-31.23
282.26	11.78
282.476	3.58
282.691	81.41
282.906	-16.9
283.122	65.02
283.337	-64
283.552	77.31
283.767	32.26
283.983	81.41
284.198	7.68
284.413	30.21
284.628	28.16
284.843	-27.14
285.058	28.16
285.274	-70.14
285.489	-4.61
285.704	32.26
285.919	19.97
286.134	-49.66
286.349	-2.56
286.564	3.58
286.779	67.07
286.995	3.58
287.21	-90.62
287.425	34.3
287.64	-86.53
287.855	30.21
288.07	-66.05
288.285	52.74
288.5	19.97
288.715	42.5
288.93	-16.9
289.145	42.5
289.36	15.87
289.575	-4.61
289.79	36.35
290.004	65.02
290.219	97.79
290.434	22.02
290.649	110.08
290.864	-20.99
291.079	-33.28
291.294	-20.99
291.509	-14.85
291.724	60.93
291.938	-64
292.153	71.17
292.368	24.06
292.583	71.17
292.798	93.69
293.012	46.59
293.227	-29.18
293.442	52.74
293.657	22.02
293.871	5.63
294.086	-51.71
294.301	34.3
294.516	56.83
294.73	-53.76
294.945	48.64
295.16	-8.7
295.374	30.21
295.589	65.02
295.804	44.54
296.018	-10.75
296.233	71.17
296.447	-4.61
296.662	-0.51
296.877	32.26
297.091	67.07
297.306	-37.38
297.52	34.3
297.735	87.55
297.949	3.58
298.164	11.78
298.378	3.58
298.593	1.54
298.807	13.82
299.022	22.02
299.236	40.45
299.451	30.21
299.665	-31.23
299.88	-37.38
300.094	54.78
300.309	32.26
300.523	3.58
300.737	11.78
300.952	38.4
301.166	122.37
301.381	73.21
301.595	19.97
301.809	-25.09
302.024	5.63
302.238	-0.51
302.452	44.54
302.667	-2.56
302.881	54.78
303.095	75.26
303.309	-20.99
303.524	69.12
303.738	44.54
303.952	5.63
304.166	79.36
304.381	22.02
304.595	105.98
304.809	-102.91
305.023	-10.75
305.237	77.31
305.452	-0.51
305.666	-8.7
305.88	-12.8
306.094	44.54
306.308	-8.7
306.522	48.64
306.736	-25.09
306.95	5.63
307.164	77.31
307.379	44.54
307.593	62.98
307.807	32.26
308.021	69.12
308.235	-4.61
308.449	-4.61
308.663	-2.56
308.877	65.02
309.091	81.41
309.305	50.69
309.519	-37.38
309.733	-4.61
309.947	-20.99
310.161	24.06
310.374	15.87
310.588	77.31
310.802	-14.85
311.016	54.78
311.23	79.36
311.444	-2.56
311.658	-43.52
311.872	38.4
312.085	75.26
312.299	60.93
312.513	-16.9
312.727	46.59
312.941	-12.8
313.154	3.58
313.368	-37.38
313.582	36.35
313.796	-18.94
314.009	-8.7
314.223	-2.56
314.437	24.06
314.651	42.5
314.864	13.82
315.078	-25.09
315.292	5.63
315.505	38.4
315.719	-37.38
315.933	-31.23
316.146	-59.9
316.36	-43.52
316.573	32.26
316.787	38.4
317.001	-12.8
317.214	-88.57
317.428	3.58
317.641	-14.85
317.855	11.78
318.068	-2.56
318.282	77.31
318.495	71.17
318.709	13.82
318.922	-20.99
319.136	19.97
319.349	36.35
319.563	-4.61
319.776	69.12
319.99	19.97
320.203	60.93
320.417	-2.56
320.63	50.69
320.843	11.78
321.057	-8.7
321.27	52.74
321.483	52.74
321.697	3.58
321.91	19.97
322.124	34.3
322.337	-43.52
322.55	69.12
322.763	32.26
322.977	13.82
323.19	22.02
323.403	73.21
323.617	28.16
323.83	54.78
324.043	52.74
324.256	7.68
324.469	-61.95
324.683	-29.18
324.896	-20.99
325.109	60.93
325.322	-31.23
325.535	-20.99
325.748	13.82
325.962	71.17
326.175	56.83
326.388	62.98
326.601	-2.56
326.814	32.26
327.027	7.68
327.24	54.78
327.453	13.82
327.666	5.63
327.879	83.45
328.092	28.16
328.305	28.16
328.518	3.58
328.731	-27.14
328.944	13.82
329.157	32.26
329.37	-2.56
329.583	-23.04
329.796	-12.8
330.009	-57.86
330.222	93.69
330.435	-53.76
330.648	-12.8
330.861	-8.7
331.073	19.97
331.286	95.74
331.499	-29.18
331.712	-45.57
331.925	-16.9
332.138	-53.76
332.35	69.12
332.563	-12.8
332.776	69.12
332.989	-18.94
333.202	46.59
333.414	-23.04
333.627	-25.09
333.84	22.02
334.053	73.21
334.265	-33.28
334.478	-29.18
334.691	5.63
334.903	40.45
335.116	103.93
335.329	30.21
335.541	19.97
335.754	42.5
335.966	-16.9
336.179	-49.66
336.392	62.98
336.604	62.98
336.817	15.87
337.029	-49.66
337.242	-37.38
337.454	97.79
337.667	11.78
337.88	-0.51
338.092	-2.56
338.305	40.45
338.517	87.55
338.729	-4.61
338.942	22.02
339.154	-27.14
339.367	-29.18
339.579	-10.75
339.792	7.68
340.004	69.12
340.217	-8.7
340.429	-10.75
340.641	-20.99
340.854	-0.51
341.066	-37.38
341.278	56.83
341.491	71.17
341.703	-10.75
341.915	-20.99
342.128	-27.14
342.34	65.02
342.552	40.45
342.764	13.82
342.977	95.74
343.189	13.82
343.401	69.12
343.613	11.78
343.826	-8.7
344.038	58.88
344.25	101.89
344.462	-27.14
344.674	103.93
344.886	13.82
345.099	120.32
345.311	-0.51
345.523	69.12
345.735	15.87
345.947	-12.8
346.159	7.68
346.371	46.59
346.583	44.54
346.795	69.12
347.007	60.93
347.219	69.12
347.431	28.16
347.643	-10.75
347.855	-8.7
348.067	69.12
348.279	-18.94
348.491	-27.14
348.703	48.64
348.915	60.93
349.127	-49.66
349.339	15.87
349.551	28.16
349.763	11.78
349.975	-2.56
350.187	83.45
350.399	62.98
350.61	5.63
350.822	75.26
351.034	54.78
351.246	7.68
351.458	99.84
351.669	24.06
351.881	60.93
352.093	22.02
352.305	3.58
352.517	3.58
352.728	44.54
352.94	52.74
353.152	44.54
353.363	30.21
353.575	7.68
353.787	-4.61
353.999	60.93
354.21	62.98
354.422	-12.8
354.633	15.87
354.845	30.21
355.057	-8.7
355.268	-8.7
355.48	3.58
355.692	-37.38
355.903	69.12
356.115	-2.56
356.326	-10.75
356.538	75.26
356.749	19.97
356.961	89.6
357.172	13.82
357.384	28.16
357.595	146.94
357.807	32.26
358.018	-0.51
358.23	15.87
358.441	17.92
358.653	19.97
358.864	128.51
359.075	-14.85
359.287	40.45
359.498	73.21
359.709	69.12
359.921	73.21
360.132	38.4
360.344	85.5
360.555	7.68
360.766	-4.61
360.977	-84.48
361.189	30.21
361.4	7.68
361.611	93.69
361.823	54.78
362.034	44.54
362.245	9.73
362.456	-45.57
362.667	-33.28
362.879	38.4
363.09	58.88
363.301	7.68
363.512	-20.99
363.723	32.26
363.935	5.63
364.146	17.92
364.357	34.3
364.568	32.26
364.779	-68.09
364.99	-25.09
365.201	-4.61
365.412	81.41
365.623	-29.18
365.834	5.63
366.045	75.26
366.256	52.74
366.467	40.45
366.678	34.3
366.889	48.64
367.1	-12.8
367.311	52.74
367.522	-51.71
367.733	95.74
367.944	67.07
368.155	11.78
368.366	3.58
368.577	50.69
368.788	7.68
368.999	-27.14
369.209	-29.18
369.42	77.31
369.631	28.16
369.842	13.82
370.053	60.93
370.264	65.02
370.474	-2.56
370.685	81.41
370.896	22.02
371.107	93.69
371.317	36.35
371.528	54.78
371.739	30.21
371.95	71.17
372.16	93.69
372.371	-33.28
372.582	7.68
372.792	32.26
373.003	5.63
373.214	-0.51
373.424	48.64
373.635	73.21
373.846	62.98
374.056	11.78
374.267	19.97
374.477	40.45
374.688	-78.33
374.898	34.3
375.109	-18.94
375.319	124.41
375.53	44.54
375.74	-8.7
375.951	-12.8
376.161	46.59
376.372	44.54
376.582	-4.61
376.793	3.58
377.003	11.78
377.214	34.3
377.424	69.12
377.635	58.88
377.845	-18.94
378.055	40.45
378.266	46.59
378.476	32.26
378.686	-35.33
378.897	56.83
379.107	32.26
379.317	1.54
379.528	69.12
379.738	48.64
379.948	11.78
380.158	52.74
380.369	28.16
380.579	52.74
380.789	44.54
380.999	26.11
381.21	54.78
381.42	118.27
381.63	110.08
381.84	54.78
382.05	77.31
382.261	50.69
382.471	-41.47
382.681	-27.14
382.891	3.58
383.101	3.58
383.311	48.64
383.521	69.12
383.731	40.45
383.941	-12.8
384.151	-4.61
384.361	7.68
384.571	28.16
384.781	-20.99
384.991	95.74
385.201	75.26
385.411	108.03
385.621	97.79
385.831	-16.9
386.041	-12.8
386.251	9.73
386.461	56.83
386.671	3.58
386.881	34.3
387.091	54.78
387.301	60.93
387.511	-37.38
387.72	44.54
387.93	-4.61
388.14	7.68
388.35	-25.09
388.56	50.69
388.769	42.5
388.979	3.58
389.189	30.21
389.399	15.87
389.609	5.63
389.818	5.63
390.028	3.58
390.238	81.41
390.447	19.97
390.657	9.73
390.867	24.06
391.076	28.16
391.286	62.98
391.496	-4.61
391.705	28.16
391.915	118.27
392.125	-45.57
392.334	28.16
392.544	15.87
392.753	11.78
392.963	97.79
393.172	44.54
393.382	44.54
393.591	91.65
393.801	19.97
394.01	161.28
394.22	40.45
394.429	69.12
394.639	-12.8
394.848	32.26
395.058	62.98
395.267	69.12
395.477	-4.61
395.686	52.74
395.895	15.87
396.105	77.31
396.314	136.7
396.524	44.54
396.733	83.45
396.942	95.74
397.152	62.98
397.361	114.17
397.57	15.87
397.78	87.55
397.989	11.78
398.198	134.65
398.407	52.74
398.617	-2.56
398.826	-2.56
399.035	38.4
399.244	52.74
399.453	69.12
399.663	15.87
399.872	50.69
400.081	-2.56
400.29	103.93
400.499	81.41
400.708	136.7
400.917	85.5
401.127	36.35
401.336	7.68
401.545	151.04
401.754	30.21
401.963	-14.85
402.172	44.54
402.381	5.63
402.59	81.41
402.799	60.93
403.008	95.74
403.217	85.5
403.426	69.12
403.635	105.98
403.844	71.17
404.053	130.56
404.262	65.02
404.471	85.5
404.68	52.74
404.888	77.31
405.097	11.78
405.306	112.13
405.515	101.89
405.724	97.79
405.933	101.89
406.142	134.65
406.35	118.27
406.559	22.02
406.768	85.5
406.977	208.38
407.185	118.27
407.394	120.32
407.603	48.64
407.812	159.23
408.02	105.98
408.229	198.14
408.438	142.85
408.646	89.6
408.855	85.5
409.064	85.5
409.272	95.74
409.481	200.19
409.69	108.03
409.898	151.04
410.107	140.8
410.315	189.95
410.524	112.13
410.733	122.37
410.941	171.52
411.15	329.21
411.358	204.28
411.567	292.35
411.775	253.44
411.984	269.82
412.192	253.44
412.401	210.43
412.609	241.15
412.818	339.45
413.026	376.31
413.234	323.07
413.443	275.96
413.651	290.3
413.86	323.07
414.068	321.02
414.276	398.84
414.485	298.49
414.693	376.31
414.901	447.99
415.11	300.54
415.318	411.13
415.526	423.42
415.734	398.84
415.943	417.27
416.151	493.05
416.359	386.55
416.567	462.33
416.776	523.77
416.984	595.45
417.192	484.86
417.4	503.29
417.608	536.06
417.817	472.57
418.025	503.29
418.233	650.74
418.441	706.04
418.649	658.93
418.857	697.85
419.065	759.28
419.273	744.95
419.481	775.67
419.689	710.13
419.897	908.79
420.105	824.82
420.313	880.11
420.521	919.03
420.729	1015.28
420.937	949.75
421.145	1076.72
421.353	951.79
421.561	1095.15
421.769	1089.01
421.977	1140.21
422.185	1099.25
422.393	1123.82
422.601	1265.13
422.809	1271.28
423.017	1363.44
423.224	1271.28
423.432	1388.01
423.64	1422.83
423.848	1441.26
424.056	1461.74
424.263	1502.7
424.471	1551.85
424.679	1615.34
424.887	1609.19
425.094	1723.88
425.302	1727.97
425.51	1897.96
425.718	1930.72
425.925	1916.39
426.133	1994.21
426.341	2102.75
426.548	2162.14
426.756	2129.38
426.964	2248.16
427.171	2235.87
427.379	2321.88
427.586	2293.21
427.794	2387.42
428.001	2641.37
428.209	2586.07
428.417	2657.75
428.624	2749.91
428.832	2844.12
429.039	2792.92
429.247	2719.19
429.454	3010
429.662	3309.01
429.869	3083.73
430.076	3409.36
430.284	3177.94
430.491	3364.3
430.699	3505.61
430.906	3468.75
431.114	3634.63
431.321	3622.34
431.528	3847.62
431.736	3945.92
431.943	4017.6
432.15	4091.33
432.358	4076.99
432.565	4312.51
432.772	4324.8
432.979	4617.66
433.187	4687.29
433.394	4658.62
433.601	4943.28
433.808	4879.8
434.016	4949.43
434.223	5137.84
434.43	5418.41
434.637	5182.9
434.844	5574.06
435.052	5764.52
435.259	5617.07
435.466	5854.63
435.673	5741.99
435.88	6038.95
436.087	6331.81
436.294	6442.4
436.501	6319.52
436.708	6362.53
436.915	6546.84
437.122	6862.23
437.329	6714.78
437.537	7093.65
437.743	7257.49
437.95	7230.87
438.157	7411.09
438.364	7634.32
438.571	7613.84
438.778	7650.7
438.985	8711.55
439.192	7998.85
439.399	8404.35
439.606	8326.53
439.813	8596.86
440.02	9223.54
440.227	9096.57
440.433	9125.24
440.64	9031.03
440.847	9078.13
441.054	9485.68
441.261	10108.26
441.467	9846.12
441.674	9874.79
441.881	10489.18
442.088	10399.07
442.294	10315.11
442.501	10601.82
442.708	10696.03
442.914	11122.01
443.121	11816.27
443.328	11457.87
443.534	12158.28
443.741	11677.01
443.948	11418.96
444.154	12524.86
444.361	12399.94
444.568	12504.39
444.774	12485.95
444.981	12651.84
445.187	13004.09
445.394	13438.26
445.6	13346.1
445.807	14632.22
446.013	13929.77
446.22	14204.2
446.426	14791.97
446.633	14783.77
446.839	15447.32
447.046	14822.69
447.252	15531.28
447.459	15600.91
447.665	15697.17
447.871	16284.94
448.078	17048.83
448.284	16284.94
448.491	16452.87
448.697	17507.57
448.903	17616.12
449.11	17603.83
449.316	17224.95
449.522	17526
449.728	18042.09
449.935	18060.52
450.141	18177.26
450.347	18975.97
450.553	18062.57
450.76	18519.27
450.966	19100.89
451.172	18627.81
451.378	19328.22
451.584	18982.11
451.791	19508.44
451.997	19373.27
452.203	19354.84
452.409	19668.18
452.615	19336.41
452.821	19004.64
453.027	18640.1
453.233	19723.48
453.44	18947.29
453.646	19317.98
453.852	19500.25
454.058	19614.93
454.264	19035.36
454.47	19217.63
454.676	18588.9
454.882	19621.08
455.088	17741.04
455.294	18267.37
455.5	18437.35
455.705	18707.68
455.911	17962.22
456.117	17415.41
456.323	17265.91
456.529	16303.37
456.735	17290.49
456.941	16798.98
457.147	16651.52
457.352	16047.37
457.558	15879.44
457.764	15918.35
457.97	15562
458.176	15453.46
458.381	15195.42
458.587	14376.23
458.793	14748.96
458.999	13905.2
459.204	14892.32
459.41	14435.62
459.616	13323.57
459.821	13475.12
460.027	13366.58
460.233	13290.81
460.438	12586.3
460.644	12909.88
460.85	12084.55
461.055	11857.23
461.261	11873.61
461.466	11105.62
461.672	10472.8
461.878	11496.78
462.083	10780
462.289	10495.33
462.494	10304.87
462.7	9882.99
462.905	9737.58
463.111	10007.91
463.316	9903.46
463.522	9708.91
463.727	9792.87
463.932	9588.08
464.138	9639.28
464.343	9633.13
464.549	9366.9
464.754	9870.7
464.959	9504.11
465.165	9530.73
465.37	9170.29
465.575	8902.01
465.781	9297.27
465.986	9293.17
466.191	8926.58
466.397	8955.26
466.602	8426.88
466.807	8652.16
467.012	8703.36
467.218	8777.08
467.423	8390.02
467.628	8637.82
467.833	8783.23
468.038	8666.49
468.244	8398.21
468.449	8746.36
468.654	8172.93
468.859	8502.65
469.064	8260.99
469.269	7890.31
469.474	8080.77
469.679	8119.68
469.885	8013.19
470.09	8203.65
470.295	7976.33
470.5	7927.18
470.705	7718.28
470.91	7773.58
471.115	7474.57
471.32	7724.43
471.525	7673.23
471.73	7607.69
471.935	7400.85
472.139	7239.06
472.344	7310.74
472.549	7331.22
472.754	7056.79
472.959	7005.59
473.164	6933.91
473.369	6860.18
473.574	7056.79
473.778	7105.94
473.983	6927.77
474.188	7064.98
474.393	6671.77
474.598	6475.17
474.802	6608.28
475.007	6520.22
475.212	6485.41
475.417	6333.86
475.621	6411.68
475.826	6415.77
476.031	6237.6
476.235	6114.72
476.44	6077.86
476.645	6114.72
476.849	6071.72
477.054	5959.08
477.259	5877.16
477.463	5975.46
477.668	5741.99
477.872	5875.11
478.077	5737.9
478.282	5402.03
478.486	5404.08
478.691	5494.19
478.895	5397.93
479.1	5397.93
479.304	5389.74
479.509	5352.88
479.713	5361.07
479.918	5266.86
480.122	5123.51
480.326	5227.95
480.531	5320.11
480.735	5150.13
480.94	5064.11
481.144	5318.06
481.348	5131.7
481.553	5135.79
481.757	5025.2
481.961	5060.02
482.166	5070.26
482.37	4883.89
482.574	5027.25
482.778	5008.82
482.983	5041.59
483.187	5017.01
483.391	4904.37
483.595	4896.18
483.8	5037.49
484.004	5115.31
484.208	4984.24
484.412	5002.68
484.616	5098.93
484.821	4971.96
485.025	4892.09
485.229	5012.92
485.433	5139.89
485.637	5027.25
485.841	4887.99
486.045	4851.13
486.249	4959.67
486.453	4926.9
486.657	4885.94
486.861	4865.46
487.065	4883.89
487.269	5076.4
487.473	4961.72
487.677	4959.67
487.881	5152.18
488.085	5055.92
488.289	4971.96
488.493	4871.61
488.697	4951.48
488.901	5113.27
489.105	4949.43
489.309	5008.82
489.512	4951.48
489.716	4986.29
489.92	5041.59
490.124	5133.75
490.328	5068.21
490.531	4984.24
490.735	5139.89
490.939	5090.74
491.143	5125.55
491.346	5066.16
491.55	5242.29
491.754	5100.98
491.958	5281.2
492.161	5236.14
492.365	5322.16
492.569	5121.46
492.772	5086.64
492.976	5316.01
493.18	5258.67
493.383	5373.36
493.587	5557.68
493.79	5463.47
493.994	5250.48
494.197	5371.31
494.401	5412.27
494.605	5486
494.808	5516.72
495.012	5651.88
495.215	5672.36
495.419	5803.43
495.622	5664.17
495.825	5698.99
496.029	5733.8
496.232	5903.78
496.436	5950.89
496.639	5821.86
496.843	5871.01
497.046	6010.28
497.249	6131.11
497.453	6065.57
497.656	6061.48
497.859	6131.11
498.063	6274.46
498.266	6311.33
498.469	6415.77
498.673	6350.24
498.876	6489.5
499.079	6591.9
499.282	6698.39
499.485	6815.13
499.689	6706.59
499.892	6804.89
500.095	6849.94
500.298	7118.23
500.501	6946.2
500.705	7097.75
500.908	7228.82
501.111	7296.4
501.314	7417.23
501.517	7495.05
501.72	7411.09
501.923	7460.24
502.126	7589.26
502.329	7812.49
502.532	8011.14
502.735	8052.1
502.938	7933.32
503.141	7763.34
503.344	8461.69
503.547	8295.81
503.75	8351.1
503.953	8342.91
504.156	8363.39
504.359	8643.96
504.562	8535.42
504.765	8715.64
504.968	8930.68
505.17	8777.08
505.373	9035.13
505.576	9088.37
505.779	9231.73
505.982	9192.82
506.185	9534.83
506.387	9387.38
506.59	9686.38
506.793	9782.63
506.996	9563.5
507.198	9989.48
507.401	9989.48
507.604	10132.84
507.807	10229.09
508.009	10071.4
508.212	10517.86
508.415	10464.61
508.617	10693.98
508.82	10548.58
509.022	10657.12
509.225	10849.63
509.428	10892.63
509.63	11218.26
509.833	11285.84
510.035	11287.89
510.238	11255.12
510.44	11560.27
510.643	11722.06
510.845	11646.29
511.048	11789.64
511.25	11969.87
511.453	12029.26
511.655	12555.58
511.858	12315.97
512.06	12555.58
512.262	12631.36
512.465	12270.92
512.667	12776.77
512.87	12825.92
513.072	12930.36
513.274	13118.78
513.477	13344.05
513.679	13075.77
513.881	13217.08
514.084	13438.26
514.286	13434.16
514.488	13770.03
514.69	14077.23
514.893	14015.79
515.095	14214.44
515.297	14370.08
515.499	14388.52
515.701	14671.14
515.904	14570.79
516.106	14667.04
516.308	14875.93
516.51	15019.29
516.712	15201.56
516.914	15365.4
517.116	15717.65
517.318	15525.14
517.52	15717.65
517.722	15506.71
517.925	15926.54
518.127	16227.59
518.329	16237.83
518.531	15930.64
518.733	16620.8
518.935	16700.67
519.136	16645.38
519.338	16823.55
519.54	17147.13
519.742	17399.03
519.944	17054.97
520.146	17487.09
520.348	17734.9
520.55	17738.99
520.752	17493.24
520.954	17726.71
521.155	18029.8
521.357	18330.86
521.559	18304.23
521.761	18556.13
521.963	18519.27
522.164	18521.32
522.366	18574.56
522.568	18926.82
522.77	18828.51
522.971	19346.65
523.173	18978.01
523.375	19393.75
523.576	19778.77
523.778	19356.89
523.98	19643.6
524.181	19815.63
524.383	19782.87
524.584	20182.22
524.786	20348.11
524.988	20032.72
525.189	20307.15
525.391	20552.9
525.592	20444.36
525.794	20616.39
525.995	20565.19
526.197	20753.6
526.398	20649.16
526.6	20747.46
526.801	21005.5
527.003	21152.96
527.204	21234.88
527.406	21548.22
527.607	21271.74
527.808	21345.47
528.01	20919.49
528.211	21388.47
528.412	21566.65
528.614	21904.56
528.815	21535.93
529.016	21933.23
529.218	21478.58
529.419	21646.52
529.62	21796.02
529.822	21753.01
530.023	21836.98
530.224	22099.12
530.425	21925.04
530.626	22140.08
530.828	21810.36
531.029	22480.04
531.23	21679.29
531.431	22031.54
531.632	22199.47
531.833	22275.24
532.035	22211.76
532.236	22310.06
532.437	22658.21
532.638	22234.28
532.839	22211.76
533.04	22518.95
533.241	21978.29
533.442	22662.31
533.643	22615.21
533.844	22434.99
534.045	22590.63
534.246	22273.2
534.447	22738.09
534.648	22420.65
534.849	22502.57
535.05	22389.93
535.251	22453.42
535.451	22549.67
535.652	22500.52
535.853	22330.54
536.054	22596.78
536.255	22592.68
536.456	22351.02
536.657	22736.04
536.857	22203.57
537.058	22312.11
537.259	22740.13
537.46	22525.1
537.66	22508.71
537.861	22426.79
538.062	22391.98
538.263	22506.66
538.463	22410.41
538.664	22346.92
538.865	22705.32
539.065	22641.83
539.266	22064.3
539.466	22584.49
539.667	22226.09
539.868	22539.43
540.068	22916.26
540.269	22424.75
540.469	22604.97
540.67	22324.4
540.87	22449.32
541.071	22518.95
541.271	22424.75
541.472	22525.1
541.672	22342.83
541.873	21986.48
542.073	22031.54
542.274	22533.29
542.474	22363.31
542.675	22197.42
542.875	22385.83
543.075	22295.72
543.276	22095.02
543.476	22156.46
543.676	22027.44
543.877	22084.78
544.077	22103.21
544.277	22072.5
544.478	22181.04
544.678	22166.7
544.878	22217.9
545.078	22260.91
545.279	22082.74
545.479	22389.93
545.679	22209.71
545.879	22265
546.079	22181.04
546.28	22135.98
546.48	22154.41
546.68	22187.18
546.88	21982.38
547.08	21832.88
547.28	22031.54
547.48	21916.85
547.68	22340.78
547.88	21636.28
548.081	22308.01
548.281	21929.14
548.481	21781.68
548.681	22166.7
548.881	22115.5
549.081	21925.04
549.28	22068.4
549.48	22095.02
549.68	21728.44
549.88	22115.5
550.08	21879.99
550.28	21843.12
550.48	21611.7
550.68	22072.5
550.88	21728.44
551.08	21918.9
551.279	22117.55
551.479	21499.06
551.679	21957.81
551.879	21820.6
552.079	21920.95
552.278	22031.54
552.478	21892.27
552.678	21810.36
552.878	21955.76
553.077	21761.2
553.277	21662.9
553.477	22037.68
553.676	21626.04
553.876	21992.62
554.076	21726.39
554.275	21431.48
554.475	21564.6
554.674	21851.31
554.874	21748.92
555.074	21513.4
555.273	21871.79
555.473	21818.55
555.672	21466.3
555.872	21331.13
556.071	21626.04
556.271	21920.95
556.47	21568.69
556.67	21218.49
556.869	21556.41
557.068	21398.71
557.268	21370.04
557.467	21580.98
557.667	21507.26
557.866	21257.4
558.065	21542.07
558.265	21126.33
558.464	21042.37
558.663	21449.91
558.863	20847.81
559.062	21445.82
559.261	20964.54
559.461	21570.74
559.66	21060.8
559.859	21136.57
560.058	20749.51
560.258	21138.62
560.457	21036.22
560.656	21558.46
560.855	21005.5
561.054	21267.64
561.253	20761.8
561.453	20866.24
561.652	20841.67
561.851	20778.18
562.05	21005.5
562.249	20643.01
562.448	20759.75
562.647	20464.84
562.846	20597.96
563.045	20643.01
563.244	20628.68
563.443	20489.42
563.642	20436.17
563.841	20532.42
564.04	20366.54
564.239	20370.63
564.438	20104.4
564.637	20407.5
564.836	20229.32
565.035	20317.39
565.234	20411.59
565.432	20071.63
565.631	20221.13
565.83	20059.34
566.029	20094.16
566.228	20075.73
566.427	19870.93
566.625	19614.93
566.824	19805.39
567.023	20030.67
567.222	19651.8
567.42	20081.87
567.619	19651.8
567.818	19717.33
568.016	19576.02
568.215	19696.85
568.414	19479.77
568.612	19766.48
568.811	19346.65
569.01	19420.38
569.208	19313.88
569.407	19299.55
569.605	19068.13
569.804	19139.8
570.002	19403.99
570.201	19166.43
570.4	18924.77
570.598	18943.2
570.797	18992.35
570.995	19102.94
571.193	18703.59
571.392	18873.57
571.59	18830.56
571.789	18908.38
571.987	18658.53
572.186	18869.47
572.384	18795.75
572.582	18799.84
572.781	18734.31
572.979	18437.35
573.177	18330.86
573.376	18386.15
573.574	18214.12
573.772	18533.61
573.971	18459.88
574.169	18234.6
574.367	18105.58
574.565	18281.71
574.763	18185.45
574.962	18078.96
575.16	17943.79
575.358	18023.66
575.556	17829.1
575.754	17939.69
575.952	17886.45
576.151	17911.02
576.349	17505.52
576.547	17689.84
576.745	17636.59
576.943	17593.59
577.141	17745.14
577.339	17810.67
577.537	17503.48
577.735	17708.27
577.933	17298.68
578.131	17427.7
578.329	17390.84
578.527	17265.91
578.725	17302.78
578.923	17329.4
579.121	17251.58
579.319	17263.86
579.516	17106.17
579.714	17272.06
579.912	17206.52
580.11	16946.43
580.308	16930.05
580.506	16778.5
580.704	16391.43
580.901	16948.48
581.099	17026.3
581.297	16735.49
581.495	16682.24
581.692	16737.54
581.89	16585.99
582.088	16512.26
582.285	16428.29
582.483	16622.85
582.681	16504.07
582.878	16534.79
583.076	16477.44
583.274	16485.64
583.471	16139.53
583.669	16305.42
583.866	15998.22
584.064	16084.23
584.262	15934.73
584.459	15942.92
584.657	15758.61
584.854	16194.82
585.052	15897.87
585.249	15938.83
585.447	15879.44
585.644	15615.25
585.841	15721.74
586.039	15738.13
586.236	15555.86
586.434	15545.62
586.631	15555.86
586.828	15615.25
587.026	15578.39
587.223	15572.24
587.42	15494.42
587.618	15396.12
587.815	15303.96
588.012	15535.38
588.21	15168.79
588.407	15176.98
588.604	15187.22
588.801	15023.39
588.999	15078.68
589.196	15219.99
589.393	15033.63
589.59	14970.14
589.787	14923.04
589.984	14859.55
590.182	14798.11
590.379	14845.21
590.576	14562.59
590.773	14558.5
590.97	14667.04
591.167	14753.05
591.364	14570.79
591.561	14292.26
591.758	14361.89
591.955	14382.37
592.152	14593.31
592.349	14372.13
592.546	14421.28
592.743	14224.68
592.94	14216.49
593.137	14374.18
593.334	14445.86
593.531	14036.27
593.727	14212.39
593.924	14056.75
594.121	14064.94
594.318	14011.69
594.515	13851.95
594.712	13849.9
594.908	13733.17
595.105	13774.13
595.302	13554.99
595.499	13589.81
595.696	13643.06
595.892	13634.86
596.089	13696.3
596.286	13573.42
596.482	13319.48
596.679	13661.49
596.876	13438.26
597.072	13421.88
597.269	13454.64
597.466	13159.74
597.662	13217.08
597.859	13208.89
598.055	13161.78
598.252	13141.3
598.448	13229.37
598.645	12993.85
598.841	13065.53
599.038	13036.86
599.234	12993.85
599.431	12952.89
599.627	13028.67
599.824	12817.72
600.02	12776.77
600.217	12913.98
600.413	12719.42
600.609	12868.92
600.806	12596.54
601.002	12735.81
601.198	12492.1
601.395	12436.8
601.591	12545.34
601.787	12711.23
601.984	12320.07
602.18	12449.09
602.376	12369.22
602.572	12379.46
602.769	12442.95
602.965	12080.46
603.161	12221.77
603.357	12070.22
603.553	12086.6
603.75	11937.1
603.946	11799.88
604.142	12246.34
604.338	11949.39
604.534	12096.84
604.73	12014.92
604.926	11914.57
605.122	11875.66
605.318	11832.65
605.514	11738.44
605.71	11646.29
605.906	11513.17
606.102	11867.47
606.298	11634
606.494	11392.34
606.69	11849.04
606.886	11640.14
607.082	11416.91
607.278	11496.78
607.474	11443.54
607.67	11576.66
607.866	11212.12
608.062	11507.02
608.257	11414.87
608.453	11373.91
608.649	11408.72
608.845	11347.28
609.041	11285.84
609.236	11281.75
609.432	10997.08
609.628	11259.22
609.824	11134.29
610.019	11369.81
610.215	11289.94
610.411	11083.09
610.606	11242.84
610.802	11079
610.998	10964.31
611.193	11083.09
611.389	11175.25
611.584	10892.63
611.78	10972.5
611.976	10943.83
612.171	10704.22
612.367	10974.55
612.562	10831.19
612.758	10859.87
612.953	10759.52
613.149	10802.52
613.344	10831.19
613.539	10657.12
613.735	10820.95
613.93	10857.82
614.126	10833.24
614.321	10720.6
614.517	10710.36
614.712	10741.08
614.907	10440.03
615.103	10782.04
615.298	10472.8
615.493	10644.83
615.688	10444.13
615.884	10919.26
616.079	10509.66
616.274	10540.38
616.47	10360.16
616.665	10421.6
616.86	10519.9
617.055	10526.05
617.25	10284.39
617.445	10554.72
617.641	10163.56
617.836	10331.49
618.031	10304.87
618.226	10466.66
618.421	10235.24
618.616	10489.18
618.811	10005.86
619.006	10268
619.201	10204.52
619.396	10007.91
619.591	10020.2
619.786	10061.16
619.981	9850.22
620.176	10065.25
620.371	9813.35
620.566	9868.65
620.761	9694.57
620.956	9854.31
621.151	9504.11
621.346	9874.79
621.541	9514.35
621.735	9475.44
621.93	9444.72
622.125	9237.88
622.32	9368.95
622.515	9313.65
622.709	9393.52
622.904	9475.44
623.099	9137.52
623.294	9258.35
623.488	9006.45
623.683	9031.03
623.878	8990.07
624.072	8994.17
624.267	8979.83
624.462	8828.28
624.656	8824.19
624.851	8863.1
625.046	8811.9
625.24	8754.55
625.435	8811.9
625.629	8713.6
625.824	8568.19
626.018	8609.15
626.213	8451.46
626.407	8443.26
626.602	8402.3
626.796	8289.67
626.991	8293.76
627.185	8189.32
627.38	8134.02
627.574	8220.03
627.768	7857.54
627.963	8195.46
628.157	8072.58
628.352	7935.37
628.546	7863.69
628.74	8017.29
628.935	7902.6
629.129	7939.46
629.323	7771.53
629.517	7736.71
629.712	7767.43
629.906	7753.1
630.1	7622.03
630.294	7654.8
630.489	7421.33
630.683	7646.6
630.877	7536.01
631.071	7349.65
631.265	7484.81
631.459	7290.26
631.653	7198.1
631.848	7314.83
632.042	7261.59
632.236	7232.91
632.43	7200.15
632.624	7452.05
632.818	7116.18
633.012	7187.86
633.206	7007.64
633.4	6880.66
633.594	6815.13
633.788	7003.54
633.982	6831.51
634.176	6696.35
634.369	6892.95
634.563	6692.25
634.757	6608.28
634.951	6761.88
635.145	6688.15
635.339	6565.28
635.533	6581.66
635.726	6585.76
635.92	6520.22
636.114	6550.94
636.308	6475.17
636.501	6352.29
636.695	6399.39
636.889	6278.56
637.083	6292.9
637.276	6360.48
637.47	6270.37
637.664	6264.22
637.857	6229.41
638.051	6086.05
638.244	6061.48
638.438	6010.28
638.632	6124.96
638.825	6016.42
639.019	5885.35
639.212	5950.89
639.406	6127.01
639.599	6032.8
639.793	6018.47
639.986	5901.73
640.18	5885.35
640.373	5856.68
640.567	5856.68
640.76	5682.6
640.954	5746.09
641.147	5590.44
641.34	5684.65
641.534	5647.79
641.727	5617.07
641.92	5510.57
642.114	5246.38
642.307	5422.51
642.5	5313.97
642.694	5440.94
642.887	5371.31
643.08	5486
643.273	5565.87
643.467	5086.64
643.66	5223.86
643.853	5254.58
644.046	5230
644.239	5182.9
644.432	5006.77
644.626	5082.55
644.819	5117.36
645.012	5209.52
645.205	5270.96
645.398	5057.97
645.591	5150.13
645.784	5086.64
645.977	4920.76
646.17	4920.76
646.363	4937.14
646.556	4777.4
646.749	4828.6
646.942	4855.22
647.135	4783.54
647.328	4773.3
647.521	4898.23
647.714	4619.71
647.907	4707.77
648.099	4699.58
648.292	4804.02
648.485	4634.04
648.678	4652.47
648.871	4654.52
649.064	4687.29
649.256	4568.51
649.449	4459.96
649.642	4459.96
649.835	4492.73
650.027	4378.05
650.22	4484.54
650.413	4427.2
650.605	4533.69
650.798	4427.2
650.991	4363.71
651.183	4480.44
651.376	4367.81
651.568	4300.22
651.761	4255.17
651.954	4351.42
652.146	4279.74
652.339	4197.82
652.531	4238.78
652.724	4220.35
652.916	4099.52
653.109	4158.91
653.301	4173.25
653.494	4099.52
653.686	4040.13
653.879	4089.28
654.071	4165.06
654.263	3970.5
654.456	4017.6
654.648	3884.48
654.84	3872.2
655.033	3902.92
655.225	3927.49
655.417	3696.07
655.61	3921.35
655.802	3950.02
655.994	3716.55
656.186	3829.19
656.379	3874.24
656.571	3757.51
656.763	3665.35
656.955	3640.78
657.148	3648.97
657.34	3765.7
657.532	3761.61
657.724	3624.39
657.916	3638.73
658.108	3560.91
658.3	3438.03
658.492	3675.59
658.684	3558.86
658.876	3476.94
659.068	3542.47
659.26	3485.13
659.452	3554.76
659.644	3460.56
659.836	3290.57
660.028	3466.7
660.22	3345.87
660.412	3462.6
660.604	3366.35
660.796	3329.49
660.988	3315.15
661.18	3341.77
661.372	3378.64
661.563	3333.58
661.755	3263.95
661.947	3341.77
662.139	3239.37
662.331	3190.22
662.522	3124.69
662.714	3341.77
662.906	3200.46
663.097	3266
663.289	3124.69
663.481	3124.69
663.673	3182.03
663.864	3149.26
664.056	3038.67
664.247	3165.65
664.439	3077.59
664.631	3022.29
664.822	3018.19
665.014	3059.15
665.205	2971.09
665.397	3016.15
665.588	3102.16
665.78	2893.27
665.971	3020.24
666.163	3018.19
666.354	2969.04
666.546	2880.98
666.737	2897.36
666.929	2864.6
667.12	2864.6
667.311	2946.52
667.503	2911.7
667.694	2878.93
667.885	2764.25
668.077	2862.55
668.268	2694.61
668.459	2960.85
668.651	2790.87
668.842	2827.73
669.033	2751.96
669.224	2715.09
669.416	2797.01
669.607	2854.36
669.798	2897.36
669.989	2772.44
670.18	2756.05
670.371	2647.51
670.563	2670.04
670.754	2678.23
670.945	2657.75
671.136	2536.92
671.327	2565.59
671.518	2608.6
671.709	2680.28
671.9	2676.18
672.091	2637.27
672.282	2545.11
672.473	2612.7
672.664	2651.61
672.855	2553.31
673.046	2545.11
673.237	2643.42
673.428	2547.16
673.619	2581.98
673.809	2502.11
674	2487.77
674.191	2506.2
674.382	2414.04
674.573	2436.57
674.764	2430.43
674.954	2389.47
675.145	2403.8
675.336	2397.66
675.527	2389.47
675.717	2407.9
675.908	2364.89
676.099	2409.95
676.289	2375.13
676.48	2403.8
676.671	2428.38
676.861	2514.39
677.052	2448.86
677.243	2444.76
677.433	2244.06
677.624	2399.71
677.814	2495.96
678.005	2330.08
678.195	2379.23
678.386	2399.71
678.576	2391.52
678.767	2416.09
678.957	2338.27
679.148	2354.65
679.338	2414.04
679.529	2428.38
679.719	2416.09
679.909	2485.72
680.1	2264.54
680.29	2266.59
680.481	2403.8
680.671	2346.46
680.861	2362.84
681.052	2264.54
681.242	2340.32
681.432	2272.73
681.622	2307.55
681.813	2325.98
682.003	2297.31
682.193	2313.69
682.383	2321.88
682.573	2244.06
682.764	2364.89
682.954	2203.1
683.144	2371.04
683.334	2239.97
683.524	2282.97
683.714	2342.36
683.904	2264.54
684.094	2291.17
684.284	2096.61
684.474	2194.91
684.664	2143.71
684.854	2231.77
685.044	2354.65
685.234	2272.73
685.424	2215.39
685.614	2149.86
685.804	2170.33
685.994	2293.21
686.184	2209.25
686.374	2182.62
686.564	2043.36
686.753	2180.57
686.943	2100.7
687.133	2133.47
687.323	2063.84
687.513	2076.13
687.702	2156
687.892	2199.01
688.082	2088.42
688.272	2125.28
688.461	2141.66
688.651	2110.94
688.841	1969.63
689.03	2084.32
689.22	1963.49
689.41	1996.26
689.599	2065.89
689.789	2002.4
689.979	2043.36
690.168	2045.41
690.358	2076.13
690.547	1924.58
690.737	2002.4
690.926	1943.01
691.116	1875.43
691.305	2063.84
691.495	2018.79
691.684	1840.61
691.874	1992.16
692.063	1940.96
692.252	1844.71
692.442	1953.25
692.631	1912.29
692.82	1934.82
693.01	1871.33
693.199	1908.19
693.388	2035.17
693.578	1891.81
693.767	1791.46
693.956	1973.73
694.146	1871.33
694.335	1895.91
694.524	1795.56
694.713	1895.91
694.902	1809.89
695.092	1846.76
695.281	1744.36
695.47	1781.22
695.659	1865.19
695.848	1752.55
696.037	1762.79
696.226	1752.55
696.415	1830.37
696.604	1789.41
696.793	1707.49
696.982	1699.3
697.171	1746.41
697.36	1752.55
697.549	1811.94
697.738	1650.15
697.927	1668.58
698.116	1762.79
698.305	1717.73
698.494	1754.6
698.683	1760.74
698.872	1744.36
699.061	1742.31
699.25	1707.49
699.438	1764.84
699.627	1725.93
699.816	1836.52
700.005	1672.68
700.193	1738.21
700.382	1732.07
700.571	1719.78
700.76	1668.58
700.948	1699.3
701.137	1736.17
701.326	1670.63
701.514	1703.4
701.703	1719.78
701.892	1652.2
702.08	1811.94
702.269	1732.07
702.457	1660.39
702.646	1715.69
702.834	1752.55
703.023	1768.93
703.212	1762.79
703.4	1691.11
703.589	1617.38
703.777	1752.55
703.965	1693.16
704.154	1662.44
704.342	1609.19
704.531	1795.56
704.719	1713.64
704.907	1691.11
705.096	1639.91
705.284	1627.62
705.472	1789.41
705.661	1740.26
705.849	1756.65
706.037	1768.93
706.226	1652.2
706.414	1703.4
706.602	1607.14
706.79	1666.53
706.979	1725.93
707.167	1695.21
707.355	1654.25
707.543	1711.59
707.731	1619.43
707.919	1701.35
708.107	1678.82
708.296	1641.96
708.484	1641.96
708.672	1555.94
708.86	1666.53
709.048	1773.03
709.236	1666.53
709.424	1635.82
709.612	1689.06
709.8	1662.44
709.988	1553.9
710.176	1644.01
710.364	1629.67
710.551	1707.49
710.739	1715.69
710.927	1609.19
711.115	1646.05
711.303	1730.02
711.491	1609.19
711.679	1644.01
711.866	1617.38
712.054	1625.58
712.242	1662.44
712.43	1605.1
712.617	1605.1
712.805	1742.31
712.993	1664.49
713.181	1644.01
713.368	1682.92
713.556	1680.87
713.744	1553.9
713.931	1838.56
714.119	1691.11
714.306	1709.54
714.494	1674.73
714.682	1646.05
714.869	1601
715.057	1660.39
715.244	1682.92
715.432	1693.16
715.619	1611.24
715.807	1715.69
715.994	1658.34
716.182	1725.93
716.369	1666.53
716.556	1740.26
716.744	1633.77
716.931	1623.53
717.119	1682.92
717.306	1676.77
717.493	1742.31
717.681	1764.84
717.868	1691.11
718.055	1709.54
718.242	1601
718.43	1752.55
718.617	1641.96
718.804	1646.05
718.991	1727.97
719.179	1732.07
719.366	1674.73
719.553	1709.54
719.74	1641.96
719.927	1693.16
720.114	1680.87
720.301	1644.01
720.488	1676.77
720.676	1660.39
720.863	1789.41
721.05	1631.72
721.237	1709.54
721.424	1813.99
721.611	1637.86
721.798	1682.92
721.985	1682.92
722.172	1603.05
722.358	1773.03
722.545	1742.31
722.732	1652.2
722.919	1650.15
723.106	1695.21
723.293	1603.05
723.48	1644.01
723.667	1748.45
723.853	1691.11
724.04	1695.21
724.227	1715.69
724.414	1656.29
724.6	1695.21
724.787	1725.93
724.974	1666.53
725.161	1650.15
725.347	1670.63
725.534	1719.78
725.72	1621.48
725.907	1658.34
726.094	1805.8
726.28	1555.94
726.467	1680.87
726.653	1578.47
726.84	1697.25
727.027	1756.65
727.213	1607.14
727.4	1678.82
727.586	1682.92
727.773	1678.82
727.959	1740.26
728.145	1646.05
728.332	1689.06
728.518	1699.3
728.705	1646.05
728.891	1680.87
729.077	1627.62
729.264	1650.15
729.45	1676.77
729.636	1740.26
729.823	1707.49
730.009	1676.77
730.195	1717.73
730.382	1639.91
730.568	1658.34
730.754	1660.39
730.94	1641.96
731.126	1801.7
731.313	1641.96
731.499	1697.25
731.685	1750.5
731.871	1707.49
732.057	1758.69
732.243	1619.43
732.429	1699.3
732.615	1699.3
732.801	1666.53
732.987	1625.58
733.173	1678.82
733.359	1668.58
733.545	1633.77
733.731	1617.38
733.917	1654.25
734.103	1740.26
734.289	1601
734.475	1670.63
734.661	1734.12
734.847	1674.73
735.033	1691.11
735.219	1752.55
735.404	1611.24
735.59	1684.97
735.776	1666.53
735.962	1658.34
736.148	1666.53
736.333	1582.57
736.519	1727.97
736.705	1639.91
736.89	1574.38
737.076	1662.44
737.262	1687.01
737.447	1605.1
737.633	1687.01
737.819	1633.77
738.004	1619.43
738.19	1666.53
738.375	1619.43
738.561	1553.9
738.747	1641.96
738.932	1592.81
739.118	1658.34
739.303	1635.82
739.489	1699.3
739.674	1627.62
739.859	1539.56
740.045	1586.66
740.23	1674.73
740.416	1521.13
740.601	1570.28
740.786	1592.81
740.972	1637.86
741.157	1566.18
741.342	1459.69
741.528	1529.32
741.713	1527.27
741.898	1527.27
742.084	1568.23
742.269	1594.86
742.454	1514.98
742.639	1453.55
742.824	1441.26
743.01	1584.62
743.195	1564.14
743.38	1570.28
743.565	1494.51
743.75	1580.52
743.935	1551.85
744.12	1457.64
744.305	1453.55
744.49	1402.35
744.675	1488.36
744.86	1439.21
745.045	1469.93
745.23	1428.97
745.415	1420.78
745.6	1365.48
745.785	1426.92
745.97	1437.16
746.155	1426.92
746.34	1504.75
746.525	1379.82
746.71	1388.01
746.895	1367.53
747.079	1412.59
747.264	1392.11
747.449	1363.44
747.634	1275.37
747.819	1404.39
748.003	1248.75
748.188	1388.01
748.373	1265.13
748.557	1351.15
748.742	1252.84
748.927	1381.87
749.111	1273.32
749.296	1248.75
749.481	1273.32
749.665	1340.91
749.85	1191.41
750.034	1330.67
750.219	1224.17
750.404	1244.65
750.588	1199.6
750.773	1160.69
750.957	1211.89
751.141	1175.02
751.326	1242.61
751.51	1027.57
751.695	1113.58
751.879	1160.69
752.064	1240.56
752.248	1201.65
752.432	1160.69
752.617	1181.17
752.801	1250.8
752.985	1011.18
753.17	1209.84
753.354	1121.77
753.538	1150.45
753.722	1076.72
753.907	1013.23
754.091	970.23
754.275	1134.06
754.459	1080.82
754.643	1035.76
754.828	1052.14
755.012	1007.09
755.196	1013.23
755.38	935.41
755.564	1052.14
755.748	931.31
755.932	978.42
756.116	964.08
756.3	1052.14
756.484	955.89
756.668	933.36
756.852	970.23
757.036	1066.48
757.22	919.03
757.404	845.3
757.588	912.88
757.772	1041.9
757.956	876.02
758.14	898.55
758.323	865.78
758.507	876.02
758.691	851.44
758.875	927.22
759.059	964.08
759.242	890.35
759.426	833.01
759.61	804.34
759.794	800.24
759.977	888.31
760.161	890.35
760.345	966.13
760.528	912.88
760.712	816.63
760.895	888.31
761.079	773.62
761.263	814.58
761.446	781.81
761.63	810.48
761.813	861.68
761.997	898.55
762.18	798.2
762.364	912.88
762.547	716.28
762.731	798.2
762.914	785.91
763.098	736.76
763.281	732.66
763.464	724.47
763.648	761.33
763.831	833.01
764.015	652.79
764.198	763.38
764.381	732.66
764.564	714.23
764.748	706.04
764.931	749.04
765.114	796.15
765.297	814.58
765.481	691.7
765.664	732.66
765.847	761.33
766.03	675.32
766.213	654.84
766.397	693.75
766.58	646.65
766.763	716.28
766.946	673.27
767.129	626.17
767.312	677.37
767.495	626.17
767.678	667.13
767.861	703.99
768.044	722.42
768.227	701.94
768.41	642.55
768.593	671.22
768.776	699.89
768.959	601.59
769.142	714.23
769.324	628.21
769.507	648.69
769.69	634.36
769.873	624.12
770.056	720.37
770.239	638.45
770.421	701.94
770.604	634.36
770.787	570.87
770.97	603.64
771.152	654.84
771.335	650.74
771.518	572.92
771.7	710.13
771.883	587.26
772.066	566.78
772.248	695.8
772.431	646.65
772.613	628.21
772.796	583.16
772.978	579.06
773.161	599.54
773.343	587.26
773.526	574.97
773.708	476.66
773.891	546.3
774.073	607.73
774.256	531.96
774.438	581.11
774.621	505.34
774.803	640.5
774.985	509.43
775.168	523.77
775.35	544.25
775.532	577.02
775.715	536.06
775.897	470.52
776.079	441.85
776.261	544.25
776.444	617.97
776.626	445.95
776.808	556.54
776.99	447.99
777.173	536.06
777.355	437.75
777.537	560.63
777.719	478.71
777.901	540.15
778.083	519.67
778.265	433.66
778.447	534.01
778.629	384.51
778.811	423.42
778.993	447.99
779.175	511.48
779.357	380.41
779.539	390.65
779.721	355.83
779.903	540.15
780.085	452.09
780.267	417.27
780.449	355.83
780.631	472.57
780.812	380.41
780.994	382.46
781.176	429.56
781.358	364.03
781.54	396.79
781.721	462.33
781.903	380.41
782.085	388.6
782.267	327.16
782.448	331.26
782.63	318.97
782.812	400.89
782.993	421.37
783.175	355.83
783.357	357.88
783.538	392.7
783.72	331.26
783.901	364.03
784.083	417.27
784.264	306.68
784.446	292.35
784.627	292.35
784.809	327.16
784.99	343.55
785.172	351.74
785.353	288.25
785.535	339.45
785.716	339.45
785.897	308.73
786.079	335.35
786.26	308.73
786.441	235
786.623	230.91
786.804	376.31
786.985	347.64
787.167	339.45
787.348	404.99
787.529	327.16
787.71	306.68
787.891	261.63
788.073	347.64
788.254	232.96
788.435	331.26
788.616	286.2
788.797	232.96
788.978	271.87
789.159	329.21
789.34	265.72
789.522	314.88
789.703	306.68
789.884	300.54
790.065	267.77
790.246	292.35
790.427	314.88
790.607	374.27
790.788	282.11
790.969	218.62
791.15	159.23
791.331	306.68
791.512	241.15
791.693	200.19
791.874	226.81
792.054	284.16
792.235	226.81
792.416	253.44
792.597	257.53
792.778	235
792.958	292.35
793.139	210.43
793.32	185.85
793.5	159.23
793.681	243.2
793.862	249.34
794.042	241.15
794.223	185.85
794.404	253.44
794.584	169.47
794.765	214.52
794.945	220.67
795.126	204.28
795.306	220.67
795.487	179.71
795.667	208.38
795.848	269.82
796.028	232.96
796.209	101.89
796.389	187.9
796.57	224.76
796.75	177.66
796.93	198.14
797.111	216.57
797.291	235
797.471	202.24
797.652	296.44
797.832	187.9
798.012	171.52
798.192	142.85
798.373	144.89
798.553	183.81
798.733	175.61
798.913	153.09
799.093	200.19
799.274	212.48
799.454	187.9
799.634	171.52
799.814	214.52
799.994	151.04
800.174	175.61
800.354	181.76
800.534	208.38
800.714	224.76
800.894	185.85
801.074	85.5
801.254	151.04
801.434	249.34
801.614	204.28
801.794	167.42
801.974	687.61
802.154	202.24
802.334	128.51
802.514	101.89
802.693	161.28
802.873	196.09
803.053	153.09
803.233	192
803.413	167.42
803.592	185.85
803.772	136.7
803.952	54.78
804.131	171.52
804.311	116.22
804.491	194.05
804.67	103.93
804.85	103.93
805.03	128.51
805.209	192
805.389	89.6
805.568	81.41
805.748	153.09
805.928	157.18
806.107	75.26
806.287	134.65
806.466	140.8
806.646	108.03
806.825	89.6
807.004	124.41
807.184	171.52
807.363	179.71
807.543	210.43
807.722	200.19
807.901	167.42
808.081	77.31
808.26	60.93
808.439	71.17
808.619	126.46
808.798	87.55
808.977	60.93
809.156	103.93
809.336	105.98
809.515	126.46
809.694	110.08
809.873	91.65
810.052	95.74
810.231	151.04
810.411	46.59
810.59	142.85
810.769	153.09
810.948	83.45
811.127	62.98
811.306	136.7
811.485	108.03
811.664	171.52
811.843	85.5
812.022	140.8
812.201	83.45
812.38	194.05
812.559	114.17
812.737	85.5
812.916	163.33
813.095	142.85
813.274	85.5
813.453	73.21
813.632	103.93
813.811	105.98
813.989	38.4
814.168	93.69
814.347	28.16
814.526	110.08
814.704	144.89
814.883	120.32
815.062	69.12
815.24	126.46
815.419	126.46
815.598	105.98
815.776	65.02
815.955	81.41
816.133	40.45
816.312	134.65
816.49	110.08
816.669	19.97
816.847	81.41
817.026	142.85
817.204	50.69
817.383	134.65
817.561	126.46
817.74	151.04
817.918	93.69
818.097	28.16
818.275	148.99
818.453	36.35
818.632	77.31
818.81	60.93
818.988	112.13
819.167	187.9
819.345	81.41
819.523	69.12
819.701	7.68
819.879	169.47
820.058	71.17
820.236	118.27
820.414	91.65
820.592	148.99
820.77	110.08
820.948	112.13
821.127	93.69
821.305	95.74
821.483	93.69
821.661	138.75
821.839	46.59
822.017	126.46
822.195	130.56
822.373	79.36
822.551	85.5
822.729	34.3
822.907	97.79
823.085	56.83
823.262	69.12
823.44	97.79
823.618	93.69
823.796	30.21
823.974	48.64
824.152	32.26
824.329	173.57
824.507	26.11
824.685	62.98
824.863	99.84
825.04	44.54
825.218	85.5
825.396	60.93
825.574	112.13
825.751	75.26
825.929	206.33
826.107	112.13
826.284	69.12
826.462	11.78
826.639	69.12
826.817	77.31
826.994	79.36
827.172	44.54
827.349	36.35
827.527	91.65
827.704	48.64
827.882	60.93
828.059	32.26
828.237	46.59
828.414	81.41
828.591	19.97
828.769	44.54
828.946	52.74
829.124	77.31
829.301	196.09
829.478	58.88
829.655	38.4
829.833	44.54
830.01	-27.14
830.187	69.12
830.364	67.07
830.542	3.58
830.719	60.93
830.896	73.21
831.073	7.68
831.25	32.26
831.427	118.27
831.604	11.78
831.782	40.45
831.959	40.45
832.136	-6.66
832.313	73.21
832.49	-29.18
832.667	81.41
832.844	120.32
833.021	19.97
833.198	79.36
833.374	38.4
833.551	44.54
833.728	3.58
833.905	22.02
834.082	81.41
834.259	58.88
834.436	22.02
834.612	38.4
834.789	3.58
834.966	26.11
835.143	50.69
835.319	-25.09
835.496	11.78
835.673	7.68
835.85	81.41
836.026	28.16
836.203	22.02
836.38	30.21
836.556	22.02
836.733	-18.94
836.909	126.46
837.086	7.68
837.262	15.87
837.439	77.31
837.616	52.74
837.792	3.58
837.968	19.97
838.145	-12.8
838.321	114.17
838.498	-18.94
838.674	46.59
838.851	44.54
839.027	54.78
839.203	-16.9
839.38	60.93
839.556	1.54
839.732	105.98
839.909	32.26
840.085	138.75
840.261	-37.38
840.437	97.79
840.614	19.97
840.79	56.83
840.966	71.17
841.142	-4.61
841.318	-29.18
841.494	69.12
841.671	22.02
841.847	-61.95
842.023	46.59
842.199	77.31
842.375	3.58
842.551	19.97
842.727	26.11
842.903	101.89
843.079	-66.05
843.255	77.31
843.431	46.59
843.607	50.69
843.783	5.63
843.959	54.78
844.134	28.16
844.31	56.83
844.486	-16.9
844.662	-25.09
844.838	-16.9
845.013	77.31
845.189	3.58
845.365	69.12
845.541	-27.14
845.716	-16.9
845.892	58.88
846.068	-23.04
846.244	-10.75
846.419	89.6
846.595	-4.61
846.77	-68.09
846.946	77.31
847.122	28.16
847.297	-0.51
847.473	128.51
847.648	77.31
847.824	5.63
847.999	7.68
848.175	-12.8
848.35	3.58
848.526	-12.8
848.701	62.98
848.876	93.69
849.052	85.5
849.227	69.12
849.403	-4.61
849.578	52.74
849.753	30.21
849.929	54.78
850.104	-37.38
850.279	42.5
850.454	89.6
850.63	73.21
850.805	22.02
850.98	-0.51
851.155	17.92
851.33	67.07
851.505	19.97
851.681	83.45
851.856	-10.75
852.031	36.35
852.206	-6.66
852.381	77.31
852.556	56.83
852.731	81.41
852.906	-16.9
853.081	52.74
853.256	13.82
853.431	7.68
853.606	15.87
853.781	79.36
853.956	-4.61
854.131	11.78
854.305	24.06
854.48	-2.56
854.655	5.63
854.83	-12.8
855.005	13.82
855.18	52.74
855.354	48.64
855.529	9.73
855.704	-74.24
855.879	1.54
856.053	44.54
856.228	40.45
856.403	9.73
856.577	42.5
856.752	-51.71
856.926	-8.7
857.101	15.87
857.276	30.21
857.45	-53.76
857.625	19.97
857.799	17.92
857.974	28.16
858.148	-66.05
858.323	28.16
858.497	-10.75
858.672	28.16
858.846	-39.42
859.02	15.87
859.195	38.4
859.369	65.02
859.543	50.69
859.718	30.21
859.892	-16.9
860.066	13.82
860.241	-4.61
860.415	-10.75
860.589	11.78
860.763	69.12
860.938	-18.94
861.112	-23.04
861.286	11.78
861.46	-27.14
861.634	3.58
861.808	-25.09
861.982	13.82
862.157	-12.8
862.331	54.78
862.505	26.11
862.679	-29.18
862.853	-4.61
863.027	30.21
863.201	44.54
863.375	-8.7
863.549	-18.94
863.722	38.4
863.896	3.58
864.07	13.82
864.244	26.11
864.418	56.83
864.592	-2.56
864.766	30.21
864.939	5.63
865.113	1.54
865.287	22.02
865.461	-23.04
865.634	60.93
865.808	-0.51
865.982	136.7
866.156	3.58
866.329	69.12
866.503	28.16
866.676	-2.56
866.85	52.74
867.024	65.02
867.197	50.69
867.371	48.64
867.544	44.54
867.718	17.92
867.891	-12.8
868.065	-31.23
868.238	-10.75
868.412	-12.8
868.585	-41.47
868.759	-20.99
868.932	28.16
869.105	-27.14
869.279	-18.94
869.452	7.68
869.625	-35.33
869.799	-14.85
869.972	-55.81
870.145	13.82
870.319	116.22
870.492	54.78
870.665	26.11
870.838	24.06
871.011	-45.57
871.185	-8.7
871.358	-33.28
871.531	50.69
871.704	-39.42
871.877	-2.56
872.05	-37.38
872.223	-70.14
872.396	105.98
872.569	32.26
872.742	-4.61
872.915	19.97
873.088	34.3
873.261	-6.66
873.434	28.16
873.607	38.4
873.78	-2.56
873.953	-45.57
874.126	-33.28
874.299	24.06
874.471	3.58
874.644	-4.61
874.817	-12.8
874.99	112.13
875.163	54.78
875.335	9.73
875.508	40.45
875.681	-0.51
875.853	-12.8
876.026	3.58
876.199	60.93
876.371	46.59
876.544	-2.56
876.717	7.68
876.889	-45.57
877.062	-43.52
877.234	-55.81
877.407	-27.14
877.579	-27.14
877.752	15.87
877.924	46.59
878.097	-4.61
878.269	11.78
878.442	-14.85
878.614	19.97
878.786	44.54
878.959	-57.86
879.131	11.78
879.303	-12.8
879.476	5.63
879.648	-0.51
879.82	22.02
879.993	-74.24
880.165	-4.61
880.337	-29.18
880.509	19.97
880.681	-4.61
880.854	36.35
881.026	54.78
881.198	17.92
881.37	-66.05
881.542	38.4
881.714	-8.7
881.886	-29.18
882.058	28.16
882.23	69.12
882.402	13.82
882.574	48.64
882.746	7.68
882.918	-45.57
883.09	-12.8
883.262	40.45
883.434	3.58
883.606	9.73
883.778	3.58
883.95	13.82
884.122	-20.99
884.293	15.87
884.465	30.21
884.637	11.78
884.809	34.3
884.98	-8.7
885.152	22.02
885.324	-4.61
885.496	-94.72
885.667	-45.57
885.839	-14.85
886.011	22.02
886.182	3.58
886.354	79.36
886.525	19.97
886.697	-68.09
886.869	-23.04
887.04	-29.18
887.212	19.97
887.383	30.21
887.555	19.97
887.726	-4.61
887.897	22.02
888.069	52.74
888.24	38.4
888.412	-45.57
888.583	19.97
888.754	42.5
888.926	-29.18
889.097	11.78
889.268	-0.51
889.44	71.17
889.611	-37.38
889.782	13.82
889.953	-12.8
890.125	97.79
890.296	-12.8
890.467	-80.38
890.638	-70.14
890.809	-45.57
890.98	-43.52
891.151	-18.94
891.323	30.21
891.494	-35.33
891.665	69.12
891.836	-35.33
892.007	-29.18
892.178	17.92
892.349	13.82
892.52	65.02
892.691	-35.33
892.862	5.63
893.032	-18.94
893.203	-29.18
893.374	77.31
893.545	44.54
893.716	32.26
893.887	58.88
894.057	-16.9
894.228	-12.8
894.399	-45.57
894.57	56.83
894.74	-31.23
894.911	5.63
895.082	48.64
895.253	54.78
895.423	-39.42
895.594	-51.71
895.764	60.93
895.935	30.21
896.106	17.92
896.276	-61.95
896.447	-4.61
896.617	-59.9
896.788	-70.14
896.958	-14.85
897.129	-49.66
897.299	-45.57
897.47	71.17
897.64	-12.8
897.81	52.74
897.981	5.63
898.151	65.02
898.322	28.16
898.492	9.73
898.662	24.06
898.832	-14.85
899.003	-10.75
899.173	-84.48
899.343	-8.7
899.513	28.16
