Data from USB4F104151__111__14-18-18-353.txt Node

Date: Thu Mar 13 14:18:18 EDT 2025
User: louis
Spectrometer: USB4F10415
Trigger mode: 4
Integration Time (sec): 2.000000E-2
Scans to average: 1
Electric dark correction enabled: true
Nonlinearity correction enabled: false
Boxcar width: 0
XAxis mode: Wavelengths
Number of Pixels in Spectrum: 3648
>>>>>Begin Spectral Data<<<<<
178.204	-113.66
178.424	-113.66
178.644	-113.66
178.864	-130.05
179.084	-156.67
179.304	17.41
179.524	-5.12
179.744	-1.02
179.964	9.22
180.184	-29.7
180.404	-46.08
180.624	44.03
180.844	9.22
181.064	-25.6
181.283	-21.5
181.503	35.84
181.723	13.31
181.943	-103.42
182.163	95.23
182.383	17.41
182.602	52.22
182.822	54.27
183.042	-15.36
183.262	13.31
183.482	54.27
183.701	-11.26
183.921	3.07
184.141	1.02
184.361	25.6
184.58	-3.07
184.8	-48.13
185.02	-19.46
185.239	50.18
185.459	91.13
185.679	52.22
185.898	-41.98
186.118	41.98
186.338	17.41
186.557	44.03
186.777	-17.41
186.997	-64.51
187.216	-29.7
187.436	11.26
187.655	37.89
187.875	37.89
188.095	-3.07
188.314	111.61
188.534	64.51
188.753	41.98
188.973	15.36
189.192	91.13
189.412	27.65
189.631	25.6
189.851	5.12
190.07	52.22
190.29	-62.46
190.509	46.08
190.729	101.37
190.948	9.22
191.168	111.61
191.387	130.05
191.607	15.36
191.826	13.31
192.045	-29.7
192.265	-25.6
192.484	33.79
192.704	25.6
192.923	-1.02
193.142	68.61
193.362	17.41
193.581	17.41
193.8	-5.12
194.02	52.22
194.239	52.22
194.458	62.46
194.678	19.46
194.897	5.12
195.116	119.81
195.335	1.02
195.555	1.02
195.774	9.22
195.993	-3.07
196.212	-9.22
196.432	25.6
196.651	-25.6
196.87	58.37
197.089	89.09
197.308	29.7
197.528	74.75
197.747	-58.37
197.966	27.65
198.185	-50.18
198.404	5.12
198.623	35.84
198.842	70.65
199.062	74.75
199.281	64.51
199.5	-15.36
199.719	35.84
199.938	27.65
200.157	15.36
200.376	-19.46
200.595	21.5
200.814	13.31
201.033	13.31
201.252	33.79
201.471	27.65
201.69	27.65
201.909	-48.13
202.128	-27.65
202.347	95.23
202.566	-27.65
202.785	-60.42
203.004	33.79
203.223	76.8
203.442	-56.32
203.661	1.02
203.879	-48.13
204.098	113.66
204.317	41.98
204.536	56.32
204.755	35.84
204.974	29.7
205.193	1.02
205.411	31.74
205.63	60.42
205.849	-5.12
206.068	-1.02
206.287	-31.74
206.505	17.41
206.724	7.17
206.943	62.46
207.162	-5.12
207.381	46.08
207.599	29.7
207.818	9.22
208.037	-23.55
208.255	9.22
208.474	-25.6
208.693	-11.26
208.911	11.26
209.13	50.18
209.349	33.79
209.567	-23.55
209.786	41.98
210.005	35.84
210.223	3.07
210.442	-56.32
210.661	37.89
210.879	27.65
211.098	66.56
211.316	72.7
211.535	13.31
211.753	9.22
211.972	29.7
212.191	3.07
212.409	-56.32
212.628	1.02
212.846	-23.55
213.065	58.37
213.283	107.52
213.502	50.18
213.72	-7.17
213.938	17.41
214.157	25.6
214.375	-25.6
214.594	-35.84
214.812	-46.08
215.031	11.26
215.249	-5.12
215.467	44.03
215.686	35.84
215.904	25.6
216.122	27.65
216.341	62.46
216.559	-58.37
216.778	13.31
216.996	9.22
217.214	11.26
217.432	3.07
217.651	-13.31
217.869	37.89
218.087	33.79
218.306	-29.7
218.524	50.18
218.742	-7.17
218.96	17.41
219.179	7.17
219.397	54.27
219.615	11.26
219.833	27.65
220.051	68.61
220.27	35.84
220.488	70.65
220.706	35.84
220.924	1.02
221.142	-46.08
221.36	9.22
221.578	-7.17
221.796	-39.94
222.015	-13.31
222.233	-23.55
222.451	41.98
222.669	-5.12
222.887	33.79
223.105	17.41
223.323	17.41
223.541	25.6
223.759	84.99
223.977	31.74
224.195	50.18
224.413	146.43
224.631	17.41
224.849	-23.55
225.067	29.7
225.285	97.28
225.503	-25.6
225.721	-37.89
225.939	1.02
226.157	-19.46
226.375	44.03
226.592	-56.32
226.81	1.02
227.028	50.18
227.246	109.57
227.464	-31.74
227.682	17.41
227.9	5.12
228.117	54.27
228.335	33.79
228.553	-7.17
228.771	3.07
228.989	9.22
229.206	50.18
229.424	-84.99
229.642	-35.84
229.86	25.6
230.077	-21.5
230.295	33.79
230.513	50.18
230.731	74.75
230.948	66.56
231.166	58.37
231.384	-31.74
231.601	-3.07
231.819	128
232.037	-23.55
232.254	17.41
232.472	58.37
232.689	50.18
232.907	84.99
233.125	-35.84
233.342	99.33
233.56	9.22
233.777	35.84
233.995	-19.46
234.213	52.22
234.43	39.94
234.648	41.98
234.865	-5.12
235.083	7.17
235.3	5.12
235.518	-23.55
235.735	29.7
235.953	17.41
236.17	-13.31
236.388	134.14
236.605	52.22
236.822	84.99
237.04	52.22
237.257	-15.36
237.475	17.41
237.692	66.56
237.909	82.94
238.127	-54.27
238.344	41.98
238.562	13.31
238.779	50.18
238.996	-76.8
239.214	1.02
239.431	11.26
239.648	-35.84
239.865	-39.94
240.083	41.98
240.3	17.41
240.517	-27.65
240.735	-25.6
240.952	15.36
241.169	-3.07
241.386	44.03
241.603	29.7
241.821	3.07
242.038	44.03
242.255	-5.12
242.472	-37.89
242.689	70.65
242.907	-29.7
243.124	52.22
243.341	-29.7
243.558	21.5
243.775	-52.22
243.992	56.32
244.209	-11.26
244.426	74.75
244.643	68.61
244.86	-23.55
245.078	21.5
245.295	-31.74
245.512	27.65
245.729	5.12
245.946	-11.26
246.163	-80.89
246.38	11.26
246.597	21.5
246.814	82.94
247.031	11.26
247.248	25.6
247.464	-29.7
247.681	25.6
247.898	-52.22
248.115	11.26
248.332	-15.36
248.549	13.31
248.766	82.94
248.983	91.13
249.2	35.84
249.417	78.85
249.633	41.98
249.85	-9.22
250.067	5.12
250.284	-37.89
250.501	1.02
250.717	121.85
250.934	17.41
251.151	11.26
251.368	93.18
251.585	29.7
251.801	17.41
252.018	3.07
252.235	37.89
252.451	29.7
252.668	15.36
252.885	1.02
253.102	-7.17
253.318	29.7
253.535	37.89
253.752	-5.12
253.968	-48.13
254.185	-48.13
254.401	13.31
254.618	7.17
254.835	17.41
255.051	44.03
255.268	46.08
255.484	25.6
255.701	41.98
255.917	113.66
256.134	17.41
256.351	58.37
256.567	-39.94
256.784	-11.26
257	-11.26
257.217	44.03
257.433	84.99
257.65	84.99
257.866	33.79
258.082	33.79
258.299	-23.55
258.515	5.12
258.732	-21.5
258.948	123.9
259.165	-3.07
259.381	-23.55
259.597	37.89
259.814	52.22
260.03	60.42
260.246	3.07
260.463	68.61
260.679	115.71
260.895	1.02
261.112	-5.12
261.328	27.65
261.544	-33.79
261.761	74.75
261.977	25.6
262.193	-7.17
262.409	58.37
262.626	-31.74
262.842	50.18
263.058	-29.7
263.274	52.22
263.49	-13.31
263.707	50.18
263.923	29.7
264.139	-1.02
264.355	35.84
264.571	44.03
264.787	52.22
265.004	60.42
265.22	66.56
265.436	72.7
265.652	60.42
265.868	70.65
266.084	-62.46
266.3	64.51
266.516	19.46
266.732	33.79
266.948	37.89
267.164	23.55
267.38	19.46
267.596	33.79
267.812	41.98
268.028	35.84
268.244	13.31
268.46	-29.7
268.676	-3.07
268.892	99.33
269.108	-50.18
269.324	11.26
269.54	54.27
269.756	17.41
269.972	-58.37
270.188	27.65
270.403	29.7
270.619	58.37
270.835	-37.89
271.051	64.51
271.267	46.08
271.483	-5.12
271.698	-19.46
271.914	17.41
272.13	52.22
272.346	52.22
272.562	-13.31
272.777	33.79
272.993	13.31
273.209	62.46
273.425	17.41
273.64	7.17
273.856	74.75
274.072	-46.08
274.287	56.32
274.503	19.46
274.719	25.6
274.934	35.84
275.15	1.02
275.366	62.46
275.581	-13.31
275.797	76.8
276.012	25.6
276.228	23.55
276.444	21.5
276.659	132.09
276.875	1.02
277.09	76.8
277.306	11.26
277.521	91.13
277.737	-15.36
277.952	-5.12
278.168	-9.22
278.383	62.46
278.599	58.37
278.814	44.03
279.03	5.12
279.245	60.42
279.461	60.42
279.676	111.61
279.892	-7.17
280.107	-9.22
280.322	3.07
280.538	9.22
280.753	-19.46
280.969	5.12
281.184	17.41
281.399	44.03
281.615	19.46
281.83	37.89
282.045	74.75
282.26	107.52
282.476	82.94
282.691	33.79
282.906	64.51
283.122	-5.12
283.337	56.32
283.552	39.94
283.767	-21.5
283.983	35.84
284.198	-3.07
284.413	33.79
284.628	5.12
284.843	-27.65
285.058	11.26
285.274	68.61
285.489	-21.5
285.704	58.37
285.919	-91.13
286.134	9.22
286.349	31.74
286.564	50.18
286.779	87.04
286.995	41.98
287.21	70.65
287.425	62.46
287.64	-23.55
287.855	41.98
288.07	-44.03
288.285	37.89
288.5	19.46
288.715	-7.17
288.93	17.41
289.145	25.6
289.36	-1.02
289.575	13.31
289.79	54.27
290.004	101.37
290.219	66.56
290.434	50.18
290.649	-23.55
290.864	50.18
291.079	29.7
291.294	25.6
291.509	21.5
291.724	33.79
291.938	48.13
292.153	29.7
292.368	3.07
292.583	87.04
292.798	68.61
293.012	46.08
293.227	-50.18
293.442	-15.36
293.657	17.41
293.871	140.29
294.086	-48.13
294.301	60.42
294.516	115.71
294.73	82.94
294.945	50.18
295.16	33.79
295.374	41.98
295.589	-11.26
295.804	17.41
296.018	25.6
296.233	68.61
296.447	33.79
296.662	33.79
296.877	-5.12
297.091	31.74
297.306	13.31
297.52	-25.6
297.735	-11.26
297.949	21.5
298.164	3.07
298.378	33.79
298.593	50.18
298.807	-11.26
299.022	39.94
299.236	3.07
299.451	-23.55
299.665	-72.7
299.88	60.42
300.094	9.22
300.309	17.41
300.523	17.41
300.737	23.55
300.952	-13.31
301.166	72.7
301.381	-15.36
301.595	-70.65
301.809	107.52
302.024	-19.46
302.238	-84.99
302.452	52.22
302.667	21.5
302.881	50.18
303.095	132.09
303.309	17.41
303.524	15.36
303.738	68.61
303.952	-54.27
304.166	48.13
304.381	-23.55
304.595	9.22
304.809	23.55
305.023	31.74
305.237	1.02
305.452	35.84
305.666	82.94
305.88	97.28
306.094	37.89
306.308	17.41
306.522	1.02
306.736	15.36
306.95	9.22
307.164	11.26
307.379	25.6
307.593	-23.55
307.807	121.85
308.021	5.12
308.235	19.46
308.449	-31.74
308.663	11.26
308.877	50.18
309.091	13.31
309.305	-68.61
309.519	33.79
309.733	33.79
309.947	15.36
310.161	89.09
310.374	91.13
310.588	25.6
310.802	-15.36
311.016	-13.31
311.23	52.22
311.444	95.23
311.658	9.22
311.872	19.46
312.085	21.5
312.299	25.6
312.513	21.5
312.727	58.37
312.941	-7.17
313.154	95.23
313.368	66.56
313.582	-9.22
313.796	48.13
314.009	50.18
314.223	17.41
314.437	62.46
314.651	35.84
314.864	64.51
315.078	-21.5
315.292	29.7
315.505	37.89
315.719	27.65
315.933	19.46
316.146	-27.65
316.36	56.32
316.573	41.98
316.787	3.07
317.001	-1.02
317.214	-105.47
317.428	3.07
317.641	-15.36
317.855	-31.74
318.068	64.51
318.282	37.89
318.495	101.37
318.709	27.65
318.922	-7.17
319.136	80.89
319.349	95.23
319.563	66.56
319.776	3.07
319.99	74.75
320.203	70.65
320.417	87.04
320.63	17.41
320.843	148.48
321.057	68.61
321.27	84.99
321.483	-3.07
321.697	58.37
321.91	91.13
322.124	33.79
322.337	-3.07
322.55	54.27
322.763	-19.46
322.977	78.85
323.19	-21.5
323.403	74.75
323.617	-11.26
323.83	17.41
324.043	17.41
324.256	39.94
324.469	-23.55
324.683	9.22
324.896	39.94
325.109	-23.55
325.322	-15.36
325.535	66.56
325.748	17.41
325.962	119.81
326.175	-5.12
326.388	76.8
326.601	-17.41
326.814	41.98
327.027	41.98
327.24	54.27
327.453	15.36
327.666	89.09
327.879	56.32
328.092	33.79
328.305	-31.74
328.518	-15.36
328.731	9.22
328.944	1.02
329.157	89.09
329.37	17.41
329.583	54.27
329.796	3.07
330.009	46.08
330.222	52.22
330.435	29.7
330.648	17.41
330.861	66.56
331.073	-3.07
331.286	80.89
331.499	87.04
331.712	-7.17
331.925	27.65
332.138	13.31
332.35	39.94
332.563	-21.5
332.776	46.08
332.989	-7.17
333.202	5.12
333.414	84.99
333.627	58.37
333.84	37.89
334.053	58.37
334.265	27.65
334.478	-37.89
334.691	50.18
334.903	74.75
335.116	50.18
335.329	50.18
335.541	7.17
335.754	70.65
335.966	23.55
336.179	-46.08
336.392	84.99
336.604	41.98
336.817	25.6
337.029	70.65
337.242	9.22
337.454	44.03
337.667	13.31
337.88	84.99
338.092	72.7
338.305	9.22
338.517	-23.55
338.729	1.02
338.942	35.84
339.154	15.36
339.367	11.26
339.579	27.65
339.792	-1.02
340.004	35.84
340.217	82.94
340.429	33.79
340.641	-52.22
340.854	21.5
341.066	19.46
341.278	74.75
341.491	15.36
341.703	-11.26
341.915	-15.36
342.128	27.65
342.34	66.56
342.552	15.36
342.764	58.37
342.977	72.7
343.189	64.51
343.401	-35.84
343.613	7.17
343.826	25.6
344.038	44.03
344.25	21.5
344.462	-29.7
344.674	171.01
344.886	-37.89
345.099	-15.36
345.311	50.18
345.523	1.02
345.735	54.27
345.947	50.18
346.159	-27.65
346.371	-11.26
346.583	25.6
346.795	50.18
347.007	-7.17
347.219	123.9
347.431	35.84
347.643	95.23
347.855	9.22
348.067	95.23
348.279	44.03
348.491	50.18
348.703	17.41
348.915	3.07
349.127	-1.02
349.339	-17.41
349.551	-11.26
349.763	99.33
349.975	-39.94
350.187	44.03
350.399	11.26
350.61	82.94
350.822	33.79
351.034	58.37
351.246	48.13
351.458	25.6
351.669	58.37
351.881	95.23
352.093	115.71
352.305	29.7
352.517	1.02
352.728	37.89
352.94	111.61
353.152	74.75
353.363	48.13
353.575	68.61
353.787	50.18
353.999	41.98
354.21	58.37
354.422	119.81
354.633	-27.65
354.845	46.08
355.057	44.03
355.268	115.71
355.48	27.65
355.692	97.28
355.903	-27.65
356.115	15.36
356.326	-31.74
356.538	84.99
356.749	25.6
356.961	70.65
357.172	41.98
357.384	50.18
357.595	111.61
357.807	17.41
358.018	33.79
358.23	25.6
358.441	99.33
358.653	19.46
358.864	9.22
359.075	46.08
359.287	115.71
359.498	58.37
359.709	15.36
359.921	119.81
360.132	33.79
360.344	25.6
360.555	-37.89
360.766	46.08
360.977	173.05
361.189	70.65
361.4	62.46
361.611	33.79
361.823	58.37
362.034	123.9
362.245	62.46
362.456	74.75
362.667	109.57
362.879	9.22
363.09	13.31
363.301	54.27
363.512	27.65
363.723	-15.36
363.935	-21.5
364.146	21.5
364.357	17.41
364.568	62.46
364.779	50.18
364.99	54.27
365.201	50.18
365.412	74.75
365.623	15.36
365.834	66.56
366.045	29.7
366.256	134.14
366.467	54.27
366.678	58.37
366.889	93.18
367.1	-11.26
367.311	-27.65
367.522	11.26
367.733	91.13
367.944	50.18
368.155	17.41
368.366	66.56
368.577	78.85
368.788	99.33
368.999	-54.27
369.209	74.75
369.42	91.13
369.631	117.76
369.842	37.89
370.053	50.18
370.264	52.22
370.474	-15.36
370.685	91.13
370.896	35.84
371.107	152.57
371.317	3.07
371.528	62.46
371.739	91.13
371.95	60.42
372.16	87.04
372.371	-35.84
372.582	35.84
372.792	91.13
373.003	29.7
373.214	54.27
373.424	84.99
373.635	-29.7
373.846	68.61
374.056	-5.12
374.267	17.41
374.477	52.22
374.688	58.37
374.898	78.85
375.109	74.75
375.319	-21.5
375.53	37.89
375.74	74.75
375.951	3.07
376.161	-13.31
376.372	109.57
376.582	54.27
376.793	82.94
377.003	33.79
377.214	9.22
377.424	7.17
377.635	64.51
377.845	66.56
378.055	33.79
378.266	60.42
378.476	93.18
378.686	19.46
378.897	99.33
379.107	76.8
379.317	44.03
379.528	39.94
379.738	62.46
379.948	23.55
380.158	60.42
380.369	-35.84
380.579	82.94
380.789	25.6
380.999	13.31
381.21	62.46
381.42	101.37
381.63	66.56
381.84	78.85
382.05	3.07
382.261	50.18
382.471	19.46
382.681	50.18
382.891	89.09
383.101	60.42
383.311	46.08
383.521	44.03
383.731	58.37
383.941	64.51
384.151	78.85
384.361	52.22
384.571	132.09
384.781	50.18
384.991	27.65
385.201	29.7
385.411	35.84
385.621	-33.79
385.831	107.52
386.041	74.75
386.251	41.98
386.461	66.56
386.671	105.47
386.881	62.46
387.091	17.41
387.301	72.7
387.511	41.98
387.72	84.99
387.93	82.94
388.14	41.98
388.35	-27.65
388.56	91.13
388.769	93.18
388.979	13.31
389.189	37.89
389.399	95.23
389.609	78.85
389.818	89.09
390.028	19.46
390.238	87.04
390.447	52.22
390.657	156.67
390.867	27.65
391.076	41.98
391.286	27.65
391.496	99.33
391.705	33.79
391.915	134.14
392.125	138.24
392.334	27.65
392.544	197.63
392.753	125.95
392.963	-15.36
393.172	58.37
393.382	123.9
393.591	58.37
393.801	64.51
394.01	111.61
394.22	93.18
394.429	52.22
394.639	37.89
394.848	107.52
395.058	58.37
395.267	97.28
395.477	119.81
395.686	58.37
395.895	117.76
396.105	189.44
396.314	91.13
396.524	107.52
396.733	119.81
396.942	144.38
397.152	70.65
397.361	142.33
397.57	111.61
397.78	168.96
397.989	138.24
398.198	187.39
398.407	95.23
398.617	87.04
398.826	175.1
399.035	115.71
399.244	173.05
399.453	123.9
399.663	197.63
399.872	140.29
400.081	134.14
400.29	142.33
400.499	70.65
400.708	105.47
400.917	101.37
401.127	136.19
401.336	62.46
401.545	189.44
401.754	156.67
401.963	211.96
402.172	44.03
402.381	87.04
402.59	144.38
402.799	117.76
403.008	181.25
403.217	115.71
403.426	185.34
403.635	168.96
403.844	173.05
404.053	250.88
404.262	193.53
404.471	230.4
404.68	193.53
404.888	197.63
405.097	175.1
405.306	148.48
405.515	175.1
405.724	181.25
405.933	242.68
406.142	265.21
406.35	250.88
406.559	279.55
406.768	214.01
406.977	310.27
407.185	209.92
407.394	328.7
407.603	216.06
407.812	250.88
408.02	293.88
408.229	363.51
408.438	306.17
408.646	324.6
408.855	271.36
409.064	433.15
409.272	373.75
409.481	410.62
409.69	367.61
409.898	418.81
410.107	400.38
410.315	486.39
410.524	537.59
410.733	410.62
410.941	445.43
411.15	453.63
411.358	535.54
411.567	652.28
411.775	576.5
411.984	558.07
412.192	574.46
412.401	576.5
412.609	697.33
412.818	703.48
413.026	726
413.234	660.47
413.443	726
413.651	758.77
413.86	740.34
414.068	850.93
414.276	879.6
414.485	836.6
414.693	867.31
414.901	910.32
415.11	924.66
415.318	1004.53
415.526	1043.44
415.734	996.34
415.943	1029.1
416.151	1213.42
416.359	1082.35
416.567	1108.98
416.776	1174.51
416.984	1252.33
417.192	1299.44
417.4	1278.96
417.608	1326.06
417.817	1389.55
418.025	1426.41
418.233	1600.49
418.441	1537
418.649	1586.15
418.857	1786.85
419.065	1758.18
419.273	1793
419.481	1917.92
419.689	1942.5
419.897	1934.31
420.105	2096.1
420.313	2141.15
420.521	2175.97
420.729	2257.89
420.937	2270.17
421.145	2333.66
421.353	2573.27
421.561	2622.42
421.769	2814.93
421.977	2802.65
422.185	2804.69
422.393	2976.72
422.601	3089.36
422.809	3042.26
423.017	3220.43
423.224	3310.54
423.432	3433.42
423.64	3414.99
423.848	3666.89
424.056	3644.36
424.263	3826.63
424.471	3988.42
424.679	3998.66
424.887	4391.87
425.094	4246.46
425.302	4299.71
425.51	4656.06
425.718	4527.03
425.925	4641.72
426.133	4891.57
426.341	5030.84
426.548	5290.93
426.756	5295.02
426.964	5516.2
427.171	5745.58
427.379	5872.55
427.586	6007.72
427.794	6136.74
428.001	6474.65
428.209	6736.79
428.417	6620.06
428.624	7168.91
428.832	7107.48
429.039	7162.77
429.247	7136.15
429.454	7719.82
429.662	8178.56
429.869	7709.58
430.076	8332.16
430.284	7816.07
430.491	8246.15
430.699	8668.03
430.906	8786.81
431.114	8835.96
431.321	9376.62
431.528	9405.3
431.736	9997.16
431.943	10423.14
432.15	10312.55
432.358	10234.72
432.565	10709.85
432.772	11029.34
432.979	11348.82
433.187	11735.88
433.394	11539.28
433.601	12260.16
433.808	12653.37
434.016	12200.77
434.223	12706.62
434.43	13779.76
434.637	13404.98
434.844	14105.38
435.052	14371.62
435.259	14193.45
435.466	14811.93
435.673	14609.19
435.88	15323.93
436.087	16122.63
436.294	16057.1
436.501	15688.46
436.708	15909.65
436.915	16579.33
437.122	17378.04
437.329	17072.89
437.537	17969.9
437.743	18098.92
437.95	18027.24
438.157	18842.34
438.364	19368.66
438.571	19227.35
438.778	19571.41
438.985	21541.56
439.192	20427.46
439.399	21168.83
439.606	20687.56
439.813	22033.07
440.02	23249.57
440.227	22801.06
440.433	22602.41
440.64	23136.93
440.847	23067.3
441.054	23669.4
441.261	25176.7
441.467	24783.49
441.674	25471.61
441.881	25866.87
442.088	26380.91
442.294	26200.69
442.501	26630.76
442.708	27099.75
442.914	28316.24
443.121	29217.35
443.328	28408.4
443.534	30417.46
443.741	29547.07
443.948	29299.26
444.154	31382.05
444.361	31255.08
444.568	31580.7
444.774	31371.81
444.981	31943.19
445.187	32229.91
445.394	34187.77
445.6	33782.27
445.807	37116.36
446.013	34884.08
446.22	35885.53
446.426	37339.59
446.633	37644.74
446.839	38609.33
447.046	37163.46
447.252	39209.39
447.459	39352.74
447.665	38990.25
447.871	40602
448.078	42387.83
448.284	40493.46
448.491	41480.58
448.697	43137.39
448.903	44243.29
449.11	43729.25
449.316	43327.85
449.522	43891.04
449.728	45109.58
449.935	45128.02
450.141	45326.67
450.347	46348.6
450.553	45125.97
450.76	45553.99
450.966	47178.03
451.172	46471.48
451.378	47460.65
451.584	46596.41
451.791	47761.7
451.997	47677.74
452.203	48365.85
452.409	48326.94
452.615	48554.27
452.821	46254.4
453.027	46195.01
453.233	48572.7
453.44	46911.8
453.646	47057.2
453.852	47294.77
454.058	48247.07
454.264	46989.62
454.47	47913.25
454.676	46491.96
454.882	48445.72
455.088	43567.46
455.294	44669.27
455.5	45232.46
455.705	45719.88
455.911	44220.77
456.117	42752.37
456.323	42391.93
456.529	40251.8
456.735	42242.43
456.941	41105.8
457.147	40978.83
457.352	39139.75
457.558	38818.22
457.764	39037.36
457.97	38148.54
458.176	37550.53
458.381	37016.01
458.587	35967.45
458.793	35219.94
458.999	33767.93
459.204	36237.78
459.41	35424.74
459.616	32938.51
459.821	32938.51
460.027	33042.95
460.233	31867.42
460.438	30857.77
460.644	30984.74
460.85	29659.71
461.055	29069.89
461.261	29364.8
461.466	26692.2
461.672	26206.83
461.878	27978.33
462.083	26374.77
462.289	25727.61
462.494	25369.21
462.7	24408.72
462.905	23624.34
463.111	24208.01
463.316	24470.15
463.522	24060.56
463.727	23982.74
463.932	24234.64
464.138	23411.35
464.343	23696.02
464.549	23300.76
464.754	23806.61
464.959	23730.84
465.165	23470.75
465.37	22579.88
465.575	21902
465.781	22678.18
465.986	22876.83
466.191	22063.79
466.397	21639.86
466.602	20720.32
466.807	21603
467.012	21553.85
467.218	21222.08
467.423	20972.22
467.628	21193.4
467.833	22039.22
468.038	21224.12
468.244	20640.45
468.449	21414.59
468.654	20955.84
468.859	20603.59
469.064	20298.44
469.269	19563.22
469.474	20150.99
469.679	20361.93
469.885	19606.23
470.09	20044.49
470.295	19784.4
470.5	19170.01
470.705	19620.56
470.91	19110.62
471.115	18688.74
471.32	18924.26
471.525	19100.38
471.73	18524.9
471.935	18309.86
472.139	17711.86
472.344	18053.87
472.549	17603.32
472.754	17711.86
472.959	17539.83
473.164	17113.85
473.369	16888.57
473.574	17277.69
473.778	17216.25
473.983	17115.9
474.188	16868.09
474.393	16311.05
474.598	16290.57
474.802	16089.87
475.007	15874.83
475.212	16018.19
475.417	15569.68
475.621	15614.74
475.826	15549.2
476.031	15166.23
476.235	15018.78
476.44	15342.36
476.645	14983.96
476.849	15029.02
477.054	14658.34
477.259	14586.66
477.463	14549.79
477.668	14082.86
477.872	14281.51
478.077	14175.02
478.282	13550.39
478.486	13542.19
478.691	13577.01
478.895	13347.64
479.1	13501.23
479.304	13288.25
479.509	12974.91
479.713	13243.19
479.918	12905.28
480.122	12854.08
480.326	13017.91
480.531	13019.96
480.735	12837.69
480.94	12899.13
481.144	13218.61
481.348	12534.59
481.553	12649.28
481.757	12176.2
481.961	12360.52
482.166	12669.76
482.37	12583.74
482.574	12567.36
482.778	12567.36
482.983	12917.56
483.187	12591.94
483.391	12600.13
483.595	12426.05
483.8	12286.79
484.004	12313.41
484.208	12626.75
484.412	12342.08
484.616	12475.2
484.821	12333.89
485.025	12284.74
485.229	12485.44
485.433	12270.4
485.637	12528.45
485.841	12346.18
486.045	12221.25
486.249	12559.17
486.453	12266.31
486.657	12424
486.861	12608.32
487.065	12061.51
487.269	12409.67
487.473	12272.45
487.677	12434.24
487.881	12520.26
488.085	12335.94
488.289	12344.13
488.493	12374.85
488.697	12469.06
488.901	12436.29
489.105	12092.23
489.309	12645.18
489.512	12555.07
489.716	12553.02
489.92	12405.57
490.124	12321.6
490.328	12688.19
490.531	12628.8
490.735	12716.86
490.939	12673.85
491.143	12421.95
491.346	12995.39
491.55	12956.47
491.754	12804.92
491.958	12831.55
492.161	12716.86
492.365	13026.11
492.569	13153.08
492.772	12788.54
492.976	13245.24
493.18	13237.05
493.383	13321.01
493.587	13284.15
493.79	13456.18
493.994	13327.16
494.197	13517.62
494.401	13624.11
494.605	13527.86
494.808	13851.44
495.012	13730.61
495.215	14125.86
495.419	13976.36
495.622	14039.85
495.825	14287.65
496.029	14416.68
496.232	14684.96
496.436	14357.28
496.639	14992.16
496.843	14846.75
497.046	15131.42
497.249	15250.2
497.453	15282.97
497.656	15571.73
497.859	15262.49
498.063	15633.17
498.266	16067.34
498.469	15790.86
498.673	16089.87
498.876	16352.01
499.079	16495.36
499.282	16526.08
499.485	16511.75
499.689	16847.61
499.892	16999.16
500.095	17085.18
500.298	17627.89
500.501	17318.65
500.705	18068.2
500.908	18049.77
501.111	17990.38
501.314	18488.04
501.517	18684.64
501.72	18719.46
501.923	18903.78
502.126	19270.36
502.329	19682
502.532	19663.57
502.735	19411.67
502.938	20017.87
503.141	20216.52
503.344	20204.24
503.547	20290.25
503.75	20859.59
503.953	20959.94
504.156	21562.04
504.359	21369.53
504.562	21117.63
504.765	21912.24
504.968	22260.4
505.17	22098.61
505.373	22583.98
505.576	22882.98
505.779	23243.42
505.982	23061.15
506.185	23620.25
506.387	23870.1
506.59	24015.51
506.793	24318.6
506.996	24236.69
507.198	24865.41
507.401	24879.75
507.604	24826.5
507.807	25756.28
508.009	25606.78
508.212	25948.79
508.415	26215.02
508.617	26532.46
508.82	26757.74
509.022	26554.99
509.225	27122.27
509.428	27355.74
509.63	27685.47
509.833	27679.32
510.035	28369.49
510.238	28267.09
510.44	28836.42
510.643	28832.33
510.845	29231.68
511.048	29205.06
511.25	29696.57
511.453	29809.21
511.655	30554.67
511.858	30546.48
512.06	30738.99
512.262	31253.03
512.465	31238.69
512.667	31699.48
512.87	31795.74
513.072	32174.61
513.274	32322.07
513.477	33038.86
513.679	32977.42
513.881	33440.26
514.084	33966.59
514.286	33706.49
514.488	34056.7
514.69	34812.4
514.893	34861.55
515.095	34892.27
515.297	35426.79
515.499	35795.42
515.701	36157.91
515.904	36407.76
516.106	36614.61
516.308	37059.02
516.51	37175.75
516.712	37079.5
516.914	37347.78
517.116	38310.33
517.318	38359.48
517.52	38699.44
517.722	38738.35
517.925	39336.36
518.127	39588.26
518.329	40358.3
518.531	39983.52
518.733	40786.32
518.935	40559
519.136	40227.23
519.338	41279.88
519.54	41175.44
519.742	42219.9
519.944	42193.28
520.146	42285.43
520.348	42727.8
520.55	42817.91
520.752	43434.35
520.954	43829.6
521.155	43733.35
521.357	44046.69
521.559	44493.15
521.761	45011.28
521.963	45238.61
522.164	45375.82
522.366	45242.7
522.568	46053.7
522.77	45660.49
522.971	46477.63
523.173	46369.08
523.375	46534.97
523.576	46700.86
523.778	47382.83
523.98	47442.22
524.181	48052.51
524.383	47759.66
524.584	48322.85
524.786	48066.85
524.988	48109.86
525.189	48400.67
525.391	48867.61
525.592	49101.07
525.794	49379.6
525.995	49477.9
526.197	49553.68
526.398	49453.33
526.6	49985.8
526.801	50020.61
527.003	50446.59
527.204	50172.16
527.406	51091.7
527.607	50958.58
527.808	50530.56
528.01	50303.23
528.211	51200.24
528.412	51941.61
528.614	51126.52
528.815	51878.12
529.016	52240.61
529.218	51443.95
529.419	51738.86
529.62	51853.54
529.822	52347.11
530.023	52193.51
530.224	51886.31
530.425	51982.57
530.626	51990.76
530.828	51202.29
531.029	53027.03
531.23	52113.64
531.431	52533.47
531.632	52240.61
531.833	52713.69
532.035	52789.47
532.236	52865.24
532.437	52910.3
532.638	52541.66
532.839	52822.23
533.04	53160.15
533.241	52330.72
533.442	53608.65
533.643	53037.27
533.844	53332.18
534.045	52926.68
534.246	52752.6
534.447	52941.02
534.648	53022.93
534.849	53315.79
535.05	52936.92
535.251	53326.03
535.451	52531.42
535.652	53149.91
535.853	52584.67
536.054	53307.6
536.255	53393.62
536.456	52631.77
536.657	53461.2
536.857	53037.27
537.058	52846.81
537.259	53154
537.46	53098.71
537.66	52664.54
537.861	53008.6
538.062	53289.17
538.263	53086.42
538.463	52924.63
538.664	53117.14
538.865	53063.89
539.065	53092.57
539.266	52564.19
539.466	53158.1
539.667	52211.94
539.868	53186.77
540.068	53342.42
540.269	52898.01
540.469	53414.1
540.67	52803.8
540.87	52967.64
541.071	52900.06
541.271	53139.67
541.472	52992.22
541.672	52646.11
541.873	52725.98
542.073	52127.97
542.274	53197.01
542.474	52795.61
542.675	52752.6
542.875	53160.15
543.075	52486.37
543.276	52072.68
543.476	53313.75
543.676	52418.78
543.877	52803.8
544.077	52543.71
544.277	52773.08
544.478	52947.16
544.678	52783.32
544.878	52678.88
545.078	52744.41
545.279	51943.66
545.479	52850.91
545.679	52474.08
545.879	52781.27
546.079	52394.21
546.28	52398.3
546.48	52156.64
546.68	52635.87
546.88	52619.49
547.08	52457.7
547.28	52441.31
547.48	52269.28
547.68	52652.25
547.88	52177.12
548.081	52601.05
548.281	52363.49
548.481	52328.67
548.681	52443.36
548.881	52478.18
549.081	52582.62
549.28	52089.06
549.48	52173.03
549.68	51886.31
549.88	52660.44
550.08	51814.63
550.28	52326.63
550.48	51814.63
550.68	52539.61
550.88	51845.35
551.08	51917.03
551.279	52091.11
551.479	51749.1
551.679	51968.23
551.879	52156.64
552.079	52107.49
552.278	51894.5
552.478	52220.13
552.678	52013.29
552.878	52467.94
553.077	51906.79
553.277	51357.94
553.477	52236.51
553.676	51706.09
553.876	51656.94
554.076	51493.1
554.275	51374.32
554.475	51357.94
554.674	51536.11
554.874	51603.69
555.074	51468.53
555.273	52138.21
555.473	51689.71
555.672	51298.55
555.872	51482.86
556.071	52037.86
556.271	51861.74
556.47	51034.36
556.67	51050.74
556.869	50874.62
557.068	51122.42
557.268	50972.92
557.467	51177.72
557.667	51112.18
557.866	51163.38
558.065	51075.32
558.265	50911.48
558.464	50573.56
558.663	51558.64
558.863	50118.92
559.062	51101.94
559.261	50483.45
559.461	51138.8
559.66	49993.99
559.859	50465.02
560.058	50700.54
560.258	50589.95
560.457	49975.56
560.656	50788.6
560.855	50237.7
561.054	50327.81
561.253	50141.44
561.453	49934.6
561.652	50368.77
561.851	50254.08
562.05	50188.55
562.249	49912.07
562.448	49821.96
562.647	50004.23
562.846	49535.24
563.045	49623.31
563.244	49527.05
563.443	49781
563.642	49494.28
563.841	49565.96
564.04	48797.98
564.239	49529.1
564.438	49004.82
564.637	49402.13
564.836	49281.3
565.035	48464.16
565.234	48935.19
565.432	48978.2
565.631	48621.85
565.83	48849.17
566.029	48681.24
566.228	48613.66
566.427	48472.35
566.625	48206.11
566.824	47857.96
567.023	48369.95
567.222	47536.43
567.42	48552.22
567.619	47974.69
567.818	47577.39
568.016	47864.1
568.215	48019.75
568.414	47577.39
568.612	48193.82
568.811	47561
569.01	47364.4
569.208	47087.92
569.407	47239.47
569.605	46803.25
569.804	47108.4
570.002	46657.85
570.201	47010.1
570.4	46807.35
570.598	46915.89
570.797	46278.97
570.995	46577.98
571.193	45568.33
571.392	46586.17
571.59	46315.84
571.789	45998.4
571.987	46068.03
572.186	46285.12
572.384	45467.98
572.582	45666.63
572.781	45930.82
572.979	45115.73
573.177	45879.62
573.376	45625.67
573.574	45136.21
573.772	45553.99
573.971	44841.3
574.169	44898.64
574.367	44927.31
574.565	45259.09
574.763	44693.85
574.962	44749.14
575.16	44269.92
575.358	44732.76
575.556	43735.4
575.754	44495.19
575.952	44050.78
576.151	44382.55
576.349	43401.58
576.547	43688.29
576.745	44294.49
576.943	43968.87
577.141	43268.46
577.339	43923.81
577.537	43194.73
577.735	43592.04
577.933	43018.61
578.131	43614.57
578.329	42785.14
578.527	42647.93
578.725	42905.97
578.923	42783.09
579.121	42398.07
579.319	42545.53
579.516	42795.38
579.714	42756.47
579.912	42350.97
580.11	42068.35
580.308	42092.93
580.506	42418.55
580.704	41390.47
580.901	41761.15
581.099	42101.12
581.297	41453.96
581.495	41163.15
581.692	41806.21
581.89	41238.92
582.088	41535.88
582.285	41132.43
582.483	41615.75
582.681	41066.89
582.878	40520.09
583.076	40456.6
583.274	40765.84
583.471	40159.64
583.669	40434.07
583.866	40405.4
584.064	40507.8
584.262	40044.96
584.459	40405.4
584.657	40120.73
584.854	40165.79
585.052	39184.81
585.249	39745.95
585.447	39707.04
585.644	39348.65
585.841	39557.54
586.039	39422.37
586.236	38777.26
586.434	38814.13
586.631	38717.87
586.828	39074.22
587.026	38515.12
587.223	38683.06
587.42	38496.69
587.618	38382.01
587.815	38271.42
588.012	38173.11
588.21	38250.94
588.407	38130.11
588.604	37982.65
588.801	37614.02
588.999	37874.11
589.196	37620.16
589.393	37915.07
589.59	37343.69
589.787	37542.34
589.984	37507.52
590.182	37026.25
590.379	37198.28
590.576	37091.79
590.773	36960.72
590.97	36712.91
591.167	36798.93
591.364	36194.78
591.561	36735.44
591.758	35770.85
591.955	36493.78
592.152	36340.18
592.349	35895.77
592.546	36307.41
592.743	36090.33
592.94	35285.48
593.137	36325.85
593.334	35713.5
593.531	35138.02
593.727	35391.97
593.924	35232.23
594.121	35166.7
594.318	35398.12
594.515	35049.96
594.712	34791.92
594.908	34736.62
595.105	35226.09
595.302	34406.9
595.499	34843.12
595.696	34357.75
595.892	34277.88
596.089	34556.4
596.286	34261.49
596.482	33679.87
596.679	33888.76
596.876	34157.05
597.072	33937.91
597.269	33901.05
597.466	33278.47
597.662	33761.79
597.859	33591.81
598.055	33714.69
598.252	33270.28
598.448	33311.24
598.645	33067.53
598.841	32442.9
599.038	32870.92
599.234	32893.45
599.431	32731.66
599.627	32250.39
599.824	32659.98
600.02	32449.04
600.217	32559.63
600.413	32234
600.609	31787.55
600.806	31994.39
601.002	31961.62
601.198	31719.96
601.395	31613.47
601.591	31855.13
601.787	31627.81
601.984	31549.98
602.18	31396.38
602.376	31152.68
602.572	31214.12
602.769	31128.1
602.965	31021.61
603.161	30794.28
603.357	30845.48
603.553	30702.12
603.75	31064.61
603.946	30706.22
604.142	30769.71
604.338	30179.89
604.534	30589.49
604.73	30509.61
604.926	30095.92
605.122	30425.65
605.318	29741.63
605.514	29778.49
605.71	29809.21
605.906	29475.39
606.102	29532.73
606.298	29602.36
606.494	29579.84
606.69	29446.72
606.886	29774.39
607.082	29311.55
607.278	29237.83
607.474	29010.5
607.67	29321.79
607.866	28764.75
608.062	29000.26
608.257	28756.55
608.453	29071.94
608.649	29131.33
608.845	28650.06
609.041	28498.51
609.236	28774.98
609.432	28660.3
609.628	28541.52
609.824	28439.12
610.019	28359.25
610.215	28469.84
610.411	28322.38
610.606	27980.37
610.802	28373.58
610.998	28260.94
611.193	27722.33
611.389	28050
611.584	27906.65
611.78	27877.97
611.976	27902.55
612.171	27865.69
612.367	27744.86
612.562	27642.46
612.758	27300.45
612.953	27408.99
613.149	27413.09
613.344	26911.33
613.539	27394.65
613.735	27732.57
613.93	27738.71
614.126	27196
614.321	27480.67
614.517	27175.52
614.712	27322.98
614.907	27193.95
615.103	26933.86
615.298	26817.13
615.493	27308.64
615.688	26620.52
615.884	27130.47
616.079	26147.44
616.274	26798.7
616.47	26853.99
616.665	26804.84
616.86	26604.14
617.055	26509.93
617.25	26198.64
617.445	26536.56
617.641	26270.32
617.836	26446.44
618.031	26004.08
618.226	25928.31
618.421	26200.69
618.616	26081.91
618.811	25717.37
619.006	26026.61
619.201	25469.56
619.396	25770.61
619.591	25262.72
619.786	25684.6
619.981	24877.7
620.176	25272.96
620.371	24904.32
620.566	25174.66
620.761	25051.78
620.956	24988.29
621.151	24332.94
621.346	24760.97
621.541	24189.58
621.735	24576.65
621.93	23810.71
622.125	24101.52
622.32	23698.07
622.515	24025.75
622.709	23843.48
622.904	23550.62
623.099	23552.66
623.294	23446.17
623.488	23087.78
623.683	23538.33
623.878	23057.06
624.072	23032.48
624.267	22979.23
624.462	22973.09
624.656	22756
624.851	22645.41
625.046	22594.22
625.24	22114.99
625.435	22186.67
625.629	21873.33
625.824	21858.99
626.018	22031.02
626.213	21482.17
626.407	21762.74
626.602	21428.92
626.796	21656.25
626.991	21375.67
627.185	21181.12
627.38	20794.05
627.574	20759.24
627.768	20640.45
627.963	21015.23
628.157	20716.23
628.352	20546.25
628.546	19985.1
628.74	20300.49
628.935	20116.17
629.129	20105.93
629.323	19522.26
629.517	20042.45
629.712	19622.61
629.906	19800.79
630.1	19581.65
630.294	19819.22
630.489	19307.23
630.683	19389.14
630.877	19004.13
631.071	19032.8
631.265	18895.58
631.459	18780.9
631.653	18877.15
631.848	18619.11
632.042	18416.36
632.236	18621.16
632.43	18428.65
632.624	18662.12
632.818	18021.1
633.012	17918.7
633.206	17867.5
633.4	18060.01
633.594	17556.21
633.788	17650.42
633.982	17654.51
634.176	17505.01
634.369	17545.97
634.563	17408.76
634.757	17445.62
634.951	17193.72
635.145	17312.5
635.339	17189.63
635.533	16986.88
635.726	17138.43
635.92	16499.46
636.114	16624.39
636.308	16655.11
636.501	16587.52
636.695	16450.31
636.889	16288.52
637.083	16263.94
637.276	16147.21
637.47	16147.21
637.664	15729.42
637.857	15987.47
638.051	16126.73
638.244	15641.36
638.438	15872.78
638.632	15545.11
638.825	15495.96
639.019	15461.14
639.212	15487.76
639.406	15436.56
639.599	15246.1
639.793	15399.7
639.986	14836.51
640.18	15002.4
640.373	15217.43
640.567	14660.38
640.76	14666.53
640.954	14723.87
641.147	14488.35
641.34	14455.59
641.534	14809.89
641.727	14435.11
641.92	14578.47
642.114	14336.81
642.307	14105.38
642.5	14068.52
642.694	13855.53
642.887	13839.15
643.08	14011.18
643.273	13808.43
643.467	13706.03
643.66	13626.16
643.853	13835.05
644.046	13394.74
644.239	13587.25
644.432	13296.44
644.626	13212.47
644.819	13355.83
645.012	13318.96
645.205	13194.04
645.398	13243.19
645.591	12886.84
645.784	13052.73
645.977	12819.26
646.17	12718.91
646.363	12616.51
646.556	12536.64
646.749	12600.13
646.942	12809.02
647.135	12415.81
647.328	12409.67
647.521	12491.59
647.714	11965.26
647.907	12428.1
648.099	11969.35
648.292	12221.25
648.485	11963.21
648.678	11793.23
648.871	11793.23
649.064	11735.88
649.256	11889.48
649.449	11717.45
649.642	11469.65
649.835	11309.91
650.027	11635.53
650.22	11301.72
650.413	11088.73
650.605	11193.17
650.798	11215.7
650.991	11111.25
651.183	11117.4
651.376	11021.14
651.568	11035.48
651.761	11152.21
651.954	11023.19
652.146	11025.24
652.339	10691.42
652.531	10779.48
652.724	10697.56
652.916	10421.09
653.109	10681.18
653.301	10595.17
653.494	10443.62
653.686	10175.33
653.879	10595.17
654.071	10273.64
654.263	10275.68
654.456	10326.88
654.648	10013.54
654.84	9950.06
655.033	9821.03
655.225	9962.34
655.417	10044.26
655.61	9909.1
655.802	9864.04
655.994	9743.21
656.186	9853.8
656.379	9753.45
656.571	9730.92
656.763	9472.88
656.955	9405.3
657.148	9687.92
657.34	9513.84
657.532	9438.06
657.724	9360.24
657.916	9194.36
658.108	9259.89
658.3	9188.21
658.492	9268.08
658.684	9102.2
658.876	9063.29
659.068	9005.94
659.26	9087.86
659.452	9069.43
659.644	9028.47
659.836	8848.25
660.028	8905.59
660.22	8668.03
660.412	8727.42
660.604	8584.06
660.796	8590.2
660.988	8653.69
661.18	8518.53
661.372	8371.07
661.563	8399.74
661.755	8383.36
661.947	8381.31
662.139	8321.92
662.331	8084.36
662.522	8184.71
662.714	8172.42
662.906	8147.84
663.097	7934.85
663.289	8100.74
663.481	8074.12
663.673	7848.84
663.864	7881.61
664.056	7818.12
664.247	7910.28
664.439	7826.31
664.631	7900.04
664.822	7693.19
665.014	7560.08
665.205	7791.5
665.397	7572.36
665.588	7617.42
665.78	7484.3
665.971	7562.12
666.163	7652.24
666.354	7373.71
666.546	7383.95
666.737	7209.87
666.929	7218.07
667.12	7453.58
667.311	7299.98
667.503	7195.54
667.694	7160.72
667.885	7066.52
668.077	7072.66
668.268	6912.92
668.459	6978.45
668.651	7138.2
668.842	6876.06
669.033	6884.25
669.224	7005.08
669.416	6986.65
669.607	6718.36
669.798	6726.55
669.989	6890.39
670.18	6661.02
670.371	6833.05
670.563	6679.45
670.754	6681.5
670.945	6656.92
671.136	6613.92
671.327	6466.46
671.518	6658.97
671.709	6695.83
671.9	6593.44
672.091	6480.8
672.282	6327.2
672.473	6454.17
672.664	6497.18
672.855	6431.65
673.046	6398.88
673.237	6349.73
673.428	6273.95
673.619	6179.75
673.809	6296.48
674	6255.52
674.191	6235.04
674.382	6122.4
674.573	6276
674.764	6122.4
674.954	6110.11
675.145	6022.05
675.336	5936.04
675.527	5936.04
675.717	6007.72
675.908	6009.76
676.099	6026.15
676.289	5944.23
676.48	5933.99
676.671	5778.34
676.861	5972.9
677.052	5761.96
677.243	5901.22
677.433	5747.62
677.624	5723.05
677.814	5757.86
678.005	5864.36
678.195	5792.68
678.386	5770.15
678.576	5712.81
678.767	5542.83
678.957	5671.85
679.148	5698.47
679.338	5620.65
679.529	5649.32
679.719	5581.74
679.909	5761.96
680.1	5565.36
680.29	5620.65
680.481	5436.33
680.671	5667.75
680.861	5551.02
681.052	5460.91
681.242	5424.05
681.432	5548.97
681.622	5374.89
681.813	5368.75
682.003	5295.02
682.193	5309.36
682.383	5338.03
682.573	5436.33
682.764	5358.51
682.954	5440.43
683.144	5395.37
683.334	5401.52
683.524	5211.06
683.714	5311.41
683.904	5419.95
684.094	5331.89
684.284	5178.29
684.474	5206.96
684.664	5286.83
684.854	5172.15
685.044	5211.06
685.234	5129.14
685.424	5190.58
685.614	5098.42
685.804	5063.6
685.994	5200.82
686.184	5172.15
686.374	4934.58
686.564	4862.9
686.753	5043.12
686.943	4883.38
687.133	5008.31
687.323	4985.78
687.513	5034.93
687.702	4793.27
687.892	4838.33
688.082	4854.71
688.272	4735.93
688.461	4867
688.651	4815.8
688.841	4649.91
689.03	4754.36
689.22	4760.5
689.41	4705.21
689.599	4809.65
689.789	4697.02
689.979	4588.47
690.168	4666.3
690.358	4613.05
690.547	4545.47
690.737	4492.22
690.926	4477.88
691.116	4559.8
691.305	4584.38
691.495	4465.6
691.684	4522.94
691.874	4475.84
692.063	4273.09
692.252	4248.51
692.442	4510.65
692.631	4332.48
692.82	4414.4
693.01	4334.53
693.199	4203.46
693.388	4215.74
693.578	4221.89
693.767	4105.15
693.956	4219.84
694.146	4348.86
694.335	4135.87
694.524	4144.06
694.713	4062.15
694.902	4146.11
695.092	4086.72
695.281	4187.07
695.47	4158.4
695.659	4178.88
695.848	4019.14
696.037	3900.36
696.226	4039.62
696.415	4131.78
696.604	3972.04
696.793	4043.71
696.982	3976.13
697.171	4056
697.36	3961.8
697.549	3926.98
697.738	3949.51
697.927	3926.98
698.116	4152.26
698.305	3918.79
698.494	3843.01
698.683	3912.64
698.872	3916.74
699.061	3965.89
699.25	3843.01
699.438	3855.3
699.627	3822.53
699.816	3912.64
700.005	3818.44
700.193	3861.45
700.382	3902.4
700.571	3943.36
700.76	3877.83
700.948	3765.19
701.137	3797.96
701.326	3810.25
701.514	3873.73
701.703	3746.76
701.892	3589.07
702.08	3779.53
702.269	3769.29
702.457	3675.08
702.646	3666.89
702.834	3646.41
703.023	3591.11
703.212	3728.33
703.4	3707.85
703.589	3552.2
703.777	3656.65
703.965	3675.08
704.154	3531.72
704.342	3492.81
704.531	3613.64
704.719	3603.4
704.907	3451.85
705.096	3564.49
705.284	3455.95
705.472	3439.56
705.661	3462.09
705.849	3593.16
706.037	3527.63
706.226	3496.91
706.414	3603.4
706.602	3335.12
706.79	3519.43
706.979	3523.53
707.167	3548.11
707.355	3521.48
707.543	3417.04
707.731	3429.32
707.919	3398.6
708.107	3591.11
708.296	3369.93
708.484	3331.02
708.672	3322.83
708.86	3458
709.048	3369.93
709.236	3374.03
709.424	3337.17
709.612	3294.16
709.8	3240.91
709.988	3392.46
710.176	3328.97
710.364	3310.54
710.551	3361.74
710.739	3294.16
710.927	3222.48
711.115	3408.84
711.303	3451.85
711.491	3214.29
711.679	3343.31
711.866	3322.83
712.054	3339.21
712.242	3138.51
712.43	3228.62
712.617	3224.53
712.805	3253.2
712.993	3191.76
713.181	3269.58
713.368	3263.44
713.556	3318.73
713.744	3173.33
713.931	3296.21
714.119	3253.2
714.306	3308.49
714.494	3283.92
714.682	3236.81
714.869	3075.03
715.057	3140.56
715.244	3185.62
715.432	3283.92
715.619	3089.36
715.807	3154.9
715.994	3072.98
716.182	3156.94
716.369	3126.22
716.556	3077.07
716.744	3089.36
716.931	3036.11
717.119	3101.65
717.306	3130.32
717.493	3081.17
717.681	3089.36
717.868	2925.52
718.055	3052.5
718.242	2976.72
718.43	3060.69
718.617	3126.22
718.804	3122.13
718.991	2997.2
719.179	2968.53
719.366	2993.11
719.553	2966.48
719.74	2925.52
719.927	3023.83
720.114	2950.1
720.301	2941.91
720.488	3001.3
720.676	2931.67
720.863	2925.52
721.05	3023.83
721.237	3023.83
721.424	2913.24
721.611	3032.02
721.798	3015.63
721.985	2859.99
722.172	2843.6
722.358	2849.75
722.545	2837.46
722.732	2900.95
722.919	2900.95
723.106	2970.58
723.293	2943.96
723.48	3001.3
723.667	2950.1
723.853	2763.73
724.04	2874.32
724.227	2814.93
724.414	2900.95
724.6	2862.04
724.787	2884.56
724.974	2802.65
725.161	2878.42
725.347	2851.8
725.534	2917.33
725.72	2929.62
725.907	2745.3
726.094	2679.77
726.28	2790.36
726.467	2796.5
726.653	2825.17
726.84	2704.34
727.027	2931.67
727.213	2706.39
727.4	2974.67
727.586	2782.17
727.773	2757.59
727.959	2743.25
728.145	2743.25
728.332	2655.19
728.518	2745.3
728.705	2882.52
728.891	2671.58
729.077	2679.77
729.264	2690.01
729.45	2712.53
729.636	2737.11
729.823	2634.71
730.009	2720.73
730.195	2614.23
730.382	2696.15
730.568	2724.82
730.754	2696.15
730.94	2724.82
731.126	2698.2
731.313	2687.96
731.499	2573.27
731.685	2673.62
731.871	2728.92
732.057	2647
732.243	2671.58
732.429	2632.66
732.615	2642.9
732.801	2571.22
732.987	2671.58
733.173	2556.89
733.359	2565.08
733.545	2661.34
733.731	2532.31
733.917	2603.99
734.103	2630.62
734.289	2622.42
734.475	2536.41
734.661	2696.15
734.847	2571.22
735.033	2528.22
735.219	2577.37
735.404	2565.08
735.59	2601.94
735.776	2630.62
735.962	2610.14
736.148	2575.32
736.333	2573.27
736.519	2388.96
736.705	2606.04
736.89	2534.36
737.076	2511.83
737.262	2444.25
737.447	2554.84
737.633	2376.67
737.819	2499.55
738.004	2466.78
738.19	2419.68
738.375	2573.27
738.561	2526.17
738.747	2577.37
738.932	2479.07
739.118	2466.78
739.303	2491.35
739.489	2343.9
739.674	2403.29
739.859	2288.61
740.045	2442.2
740.23	2397.15
740.416	2391
740.601	2423.77
740.786	2362.33
740.972	2302.94
741.157	2327.52
741.342	2313.18
741.528	2315.23
741.713	2333.66
741.898	2221.02
742.084	2376.67
742.269	2233.31
742.454	2292.7
742.639	2319.32
742.824	2218.97
743.01	2292.7
743.195	2290.65
743.38	2229.21
743.565	2319.32
743.75	2282.46
743.935	2208.73
744.12	2227.17
744.305	2118.62
744.49	2141.15
744.675	2180.06
744.86	2272.22
745.045	2163.68
745.23	2098.14
745.415	2135.01
745.6	2126.82
745.785	2040.8
745.97	2110.43
746.155	2171.87
746.34	2079.71
746.525	2026.47
746.71	2083.81
746.895	1985.51
747.079	2008.03
747.264	2034.66
747.449	1956.83
747.634	2059.23
747.819	1971.17
748.003	1942.5
748.188	2014.18
748.373	2038.75
748.557	1934.31
748.742	1854.44
748.927	1838.05
749.111	1928.16
749.296	1838.05
749.481	1827.81
749.665	1870.82
749.85	1864.68
750.034	1844.2
750.219	1911.78
750.404	1768.42
750.588	1706.98
750.773	1713.13
750.957	1760.23
751.141	1698.79
751.326	1741.8
751.51	1766.37
751.695	1641.45
751.879	1672.17
752.064	1723.37
752.248	1637.35
752.432	1655.78
752.617	1704.93
752.801	1692.65
752.985	1594.34
753.17	1672.17
753.354	1643.49
753.538	1608.68
753.722	1551.34
753.907	1555.43
754.091	1565.67
754.275	1625.06
754.459	1561.58
754.643	1565.67
754.828	1461.23
755.012	1516.52
755.196	1559.53
755.38	1455.08
755.564	1551.34
755.748	1416.17
755.932	1483.75
756.116	1428.46
756.3	1463.27
756.484	1393.64
756.668	1438.7
756.852	1293.29
757.036	1442.79
757.22	1362.92
757.404	1340.4
757.588	1254.38
757.772	1356.78
757.956	1328.11
758.14	1352.68
758.323	1289.2
758.507	1303.53
758.691	1356.78
758.875	1354.73
759.059	1303.53
759.242	1272.81
759.426	1270.76
759.61	1321.96
759.794	1266.67
759.977	1246.19
760.161	1336.3
760.345	1180.65
760.528	1176.56
760.712	1176.56
760.895	1135.6
761.079	1164.27
761.263	1229.81
761.446	1065.97
761.63	1059.82
761.813	1190.89
761.997	1117.17
762.18	1131.5
762.364	1143.79
762.547	1119.21
762.731	1154.03
762.914	1119.21
763.098	1137.65
763.281	1084.4
763.464	1133.55
763.648	1166.32
763.831	1106.93
764.015	1043.44
764.198	1160.17
764.381	1065.97
764.564	1162.22
764.748	1098.74
764.931	1125.36
765.114	992.24
765.297	1016.82
765.481	1037.3
765.664	996.34
765.847	1061.87
766.03	1098.74
766.213	1041.39
766.397	1008.62
766.58	943.09
766.763	1043.44
766.946	961.52
767.129	1014.77
767.312	969.71
767.495	914.42
767.678	986.1
767.861	936.95
768.044	934.9
768.227	1041.39
768.41	947.19
768.593	1088.5
768.776	1010.67
768.959	967.67
769.142	1006.58
769.324	865.27
769.507	961.52
769.69	887.79
769.873	975.86
770.056	959.47
770.239	918.51
770.421	959.47
770.604	869.36
770.787	885.75
770.97	869.36
771.152	945.14
771.335	781.3
771.518	889.84
771.7	914.42
771.883	873.46
772.066	783.35
772.248	809.97
772.431	918.51
772.613	828.4
772.796	863.22
772.978	828.4
773.161	906.23
773.343	803.83
773.526	893.94
773.708	750.58
773.891	863.22
774.073	764.92
774.256	738.29
774.438	826.36
774.621	807.92
774.803	779.25
774.985	799.73
775.168	762.87
775.35	838.64
775.532	734.2
775.715	812.02
775.897	717.81
776.079	721.91
776.261	754.68
776.444	721.91
776.626	713.72
776.808	683
776.99	615.41
777.173	791.54
777.355	705.53
777.537	738.29
777.719	709.62
777.901	687.09
778.083	713.72
778.265	648.18
778.447	748.53
778.629	594.93
778.811	623.61
778.993	748.53
779.175	639.99
779.357	713.72
779.539	664.57
779.721	615.41
779.903	680.95
780.085	635.89
780.267	635.89
780.449	607.22
780.631	586.74
780.812	687.09
780.994	586.74
781.176	623.61
781.358	568.31
781.54	625.65
781.721	603.13
781.903	605.17
782.085	525.3
782.267	574.46
782.448	566.26
782.63	541.69
782.812	545.78
782.993	592.89
783.175	584.7
783.357	576.5
783.538	515.06
783.72	439.29
783.901	506.87
784.083	549.88
784.264	560.12
784.446	476.15
784.627	508.92
784.809	513.02
784.99	480.25
785.172	482.3
785.353	529.4
785.535	506.87
785.716	451.58
785.897	422.91
786.079	504.82
786.26	525.3
786.441	474.1
786.623	494.58
786.804	484.34
786.985	365.56
787.167	527.35
787.348	367.61
787.529	451.58
787.71	486.39
787.891	484.34
788.073	451.58
788.254	353.27
788.435	429.05
788.616	484.34
788.797	418.81
788.978	320.51
789.159	429.05
789.34	379.9
789.522	379.9
789.703	394.23
789.884	443.39
790.065	400.38
790.246	353.27
790.427	410.62
790.607	404.47
790.788	367.61
790.969	363.51
791.15	377.85
791.331	328.7
791.512	357.37
791.693	343.03
791.874	330.75
792.054	445.43
792.235	363.51
792.416	336.89
792.597	304.12
792.778	375.8
792.958	470.01
793.139	361.47
793.32	312.32
793.5	281.6
793.681	394.23
793.862	336.89
794.042	289.79
794.223	322.56
794.404	240.64
794.584	308.22
794.765	371.71
794.945	291.84
795.126	363.51
795.306	310.27
795.487	328.7
795.667	291.84
795.848	281.6
796.028	259.07
796.209	328.7
796.389	287.74
796.57	254.97
796.75	295.93
796.93	246.78
797.111	287.74
797.291	214.01
797.471	263.16
797.652	238.59
797.832	218.11
798.012	353.27
798.192	295.93
798.373	246.78
798.553	177.15
798.733	250.88
798.913	201.72
799.093	218.11
799.274	261.12
799.454	316.41
799.634	289.79
799.814	265.21
799.994	355.32
800.174	289.79
800.354	216.06
800.534	214.01
800.714	199.68
800.894	230.4
801.074	230.4
801.254	222.2
801.434	269.31
801.614	279.55
801.794	218.11
801.974	705.53
802.154	205.82
802.334	189.44
802.514	218.11
802.693	179.2
802.873	224.25
803.053	287.74
803.233	277.5
803.413	230.4
803.592	236.54
803.772	177.15
803.952	134.14
804.131	132.09
804.311	205.82
804.491	181.25
804.67	152.57
804.85	181.25
805.03	175.1
805.209	279.55
805.389	136.19
805.568	136.19
805.748	132.09
805.928	263.16
806.107	306.17
806.287	259.07
806.466	142.33
806.646	273.4
806.825	140.29
807.004	152.57
807.184	201.72
807.363	214.01
807.543	185.34
807.722	123.9
807.901	148.48
808.081	171.01
808.26	201.72
808.439	240.64
808.619	146.43
808.798	214.01
808.977	150.53
809.156	209.92
809.336	123.9
809.515	214.01
809.694	199.68
809.873	177.15
810.052	164.86
810.231	189.44
810.411	226.3
810.59	207.87
810.769	119.81
810.948	168.96
811.127	87.04
811.306	128
811.485	138.24
811.664	214.01
811.843	173.05
812.022	156.67
812.201	109.57
812.38	195.58
812.559	195.58
812.737	191.49
812.916	64.51
813.095	199.68
813.274	99.33
813.453	154.62
813.632	152.57
813.811	234.49
813.989	228.35
814.168	216.06
814.347	140.29
814.526	156.67
814.704	166.91
814.883	70.65
815.062	101.37
815.24	224.25
815.419	93.18
815.598	128
815.776	175.1
815.955	134.14
816.133	46.08
816.312	134.14
816.49	144.38
816.669	144.38
816.847	166.91
817.026	113.66
817.204	156.67
817.383	173.05
817.561	132.09
817.74	140.29
817.918	211.96
818.097	158.72
818.275	56.32
818.453	185.34
818.632	60.42
818.81	132.09
818.988	95.23
819.167	87.04
819.345	91.13
819.523	128
819.701	146.43
819.879	95.23
820.058	160.77
820.236	125.95
820.414	179.2
820.592	80.89
820.77	84.99
820.948	132.09
821.127	109.57
821.305	119.81
821.483	107.52
821.661	226.3
821.839	103.42
822.017	158.72
822.195	111.61
822.373	134.14
822.551	33.79
822.729	123.9
822.907	164.86
823.085	156.67
823.262	107.52
823.44	17.41
823.618	70.65
823.796	175.1
823.974	82.94
824.152	101.37
824.329	25.6
824.507	74.75
824.685	99.33
824.863	44.03
825.04	123.9
825.218	33.79
825.396	17.41
825.574	82.94
825.751	68.61
825.929	205.82
826.107	66.56
826.284	76.8
826.462	123.9
826.639	132.09
826.817	89.09
826.994	107.52
827.172	109.57
827.349	84.99
827.527	121.85
827.704	52.22
827.882	109.57
828.059	105.47
828.237	95.23
828.414	62.46
828.591	70.65
828.769	123.9
828.946	48.13
829.124	41.98
829.301	87.04
829.478	76.8
829.655	68.61
829.833	66.56
830.01	60.42
830.187	173.05
830.364	66.56
830.542	111.61
830.719	152.57
830.896	189.44
831.073	99.33
831.25	62.46
831.427	41.98
831.604	70.65
831.782	5.12
831.959	119.81
832.136	44.03
832.313	48.13
832.49	82.94
832.667	58.37
832.844	-23.55
833.021	87.04
833.198	37.89
833.374	25.6
833.551	37.89
833.728	91.13
833.905	76.8
834.082	-15.36
834.259	52.22
834.436	93.18
834.612	58.37
834.789	41.98
834.966	76.8
835.143	58.37
835.319	9.22
835.496	68.61
835.673	144.38
835.85	132.09
836.026	101.37
836.203	9.22
836.38	11.26
836.556	66.56
836.733	44.03
836.909	60.42
837.086	50.18
837.262	76.8
837.439	50.18
837.616	74.75
837.792	27.65
837.968	41.98
838.145	-52.22
838.321	72.7
838.498	64.51
838.674	66.56
838.851	134.14
839.027	-15.36
839.203	-1.02
839.38	3.07
839.556	41.98
839.732	29.7
839.909	74.75
840.085	17.41
840.261	35.84
840.437	64.51
840.614	33.79
840.79	41.98
840.966	31.74
841.142	76.8
841.318	33.79
841.494	91.13
841.671	80.89
841.847	123.9
842.023	-60.42
842.199	50.18
842.375	101.37
842.551	35.84
842.727	37.89
842.903	117.76
843.079	21.5
843.255	9.22
843.431	-7.17
843.607	82.94
843.783	33.79
843.959	99.33
844.134	-39.94
844.31	82.94
844.486	39.94
844.662	17.41
844.838	-23.55
845.013	58.37
845.189	82.94
845.365	60.42
845.541	54.27
845.716	17.41
845.892	62.46
846.068	3.07
846.244	66.56
846.419	109.57
846.595	9.22
846.77	58.37
846.946	54.27
847.122	37.89
847.297	-31.74
847.473	39.94
847.648	74.75
847.824	27.65
847.999	19.46
848.175	82.94
848.35	89.09
848.526	107.52
848.701	19.46
848.876	60.42
849.052	17.41
849.227	-48.13
849.403	-27.65
849.578	60.42
849.753	27.65
849.929	76.8
850.104	-39.94
850.279	93.18
850.454	58.37
850.63	113.66
850.805	87.04
850.98	54.27
851.155	19.46
851.33	-23.55
851.505	21.5
851.681	87.04
851.856	-15.36
852.031	78.85
852.206	25.6
852.381	1.02
852.556	-80.89
852.731	54.27
852.906	-5.12
853.081	39.94
853.256	80.89
853.431	9.22
853.606	3.07
853.781	11.26
853.956	-62.46
854.131	33.79
854.305	9.22
854.48	-3.07
854.655	5.12
854.83	39.94
855.005	9.22
855.18	52.22
855.354	-5.12
855.529	25.6
855.704	25.6
855.879	68.61
856.053	-3.07
856.228	39.94
856.403	29.7
856.577	-7.17
856.752	-21.5
856.926	17.41
857.101	66.56
857.276	-74.75
857.45	78.85
857.625	-35.84
857.799	1.02
857.974	44.03
858.148	-39.94
858.323	54.27
858.497	25.6
858.672	52.22
858.846	41.98
859.02	-48.13
859.195	-46.08
859.369	60.42
859.543	74.75
859.718	54.27
859.892	-13.31
860.066	74.75
860.241	105.47
860.415	19.46
860.589	-46.08
860.763	-29.7
860.938	1.02
861.112	46.08
861.286	62.46
861.46	-7.17
861.634	-68.61
861.808	3.07
861.982	-21.5
862.157	76.8
862.331	-72.7
862.505	-7.17
862.679	-23.55
862.853	-39.94
863.027	11.26
863.201	50.18
863.375	-48.13
863.549	115.71
863.722	48.13
863.896	33.79
864.07	48.13
864.244	-64.51
864.418	50.18
864.592	33.79
864.766	50.18
864.939	1.02
865.113	-31.74
865.287	33.79
865.461	-68.61
865.634	17.41
865.808	5.12
865.982	21.5
866.156	46.08
866.329	-37.89
866.503	-82.94
866.676	13.31
866.85	-23.55
867.024	13.31
867.197	-68.61
867.371	-5.12
867.544	-31.74
867.718	9.22
867.891	19.46
868.065	-48.13
868.238	25.6
868.412	-9.22
868.585	-21.5
868.759	-46.08
868.932	50.18
869.105	41.98
869.279	62.46
869.452	72.7
869.625	-5.12
869.799	9.22
869.972	-35.84
870.145	-3.07
870.319	-72.7
870.492	-37.89
870.665	17.41
870.838	-48.13
871.011	-39.94
871.185	1.02
871.358	33.79
871.531	-5.12
871.704	58.37
871.877	9.22
872.05	37.89
872.223	13.31
872.396	-7.17
872.569	31.74
872.742	-68.61
872.915	13.31
873.088	15.36
873.261	29.7
873.434	-15.36
873.607	1.02
873.78	33.79
873.953	-27.65
874.126	9.22
874.299	5.12
874.471	-29.7
874.644	25.6
874.817	13.31
874.99	41.98
875.163	-3.07
875.335	56.32
875.508	41.98
875.681	19.46
875.853	-31.74
876.026	-37.89
876.199	-9.22
876.371	17.41
876.544	27.65
876.717	1.02
876.889	150.53
877.062	50.18
877.234	-48.13
877.407	-27.65
877.579	46.08
877.752	44.03
877.924	15.36
878.097	-13.31
878.269	-1.02
878.442	27.65
878.614	41.98
878.786	25.6
878.959	66.56
879.131	54.27
879.303	-72.7
879.476	44.03
879.648	64.51
879.82	-41.98
879.993	-9.22
880.165	19.46
880.337	-44.03
880.509	9.22
880.681	23.55
880.854	-23.55
881.026	58.37
881.198	66.56
881.37	-31.74
881.542	-1.02
881.714	-39.94
881.886	37.89
882.058	-19.46
882.23	17.41
882.402	23.55
882.574	74.75
882.746	-54.27
882.918	-13.31
883.09	-23.55
883.262	19.46
883.434	-31.74
883.606	50.18
883.778	-46.08
883.95	17.41
884.122	1.02
884.293	54.27
884.465	-11.26
884.637	17.41
884.809	-19.46
884.98	35.84
885.152	-46.08
885.324	11.26
885.496	-17.41
885.667	39.94
885.839	-31.74
886.011	33.79
886.182	17.41
886.354	54.27
886.525	3.07
886.697	48.13
886.869	33.79
887.04	-15.36
887.212	50.18
887.383	9.22
887.555	-39.94
887.726	-23.55
887.897	-23.55
888.069	-13.31
888.24	19.46
888.412	-60.42
888.583	-13.31
888.754	58.37
888.926	-19.46
889.097	-27.65
889.268	-7.17
889.44	33.79
889.611	-68.61
889.782	11.26
889.953	-113.66
890.125	-3.07
890.296	-23.55
890.467	-29.7
890.638	-52.22
890.809	-52.22
890.98	-29.7
891.151	5.12
891.323	41.98
891.494	-58.37
891.665	-11.26
891.836	-37.89
892.007	13.31
892.178	13.31
892.349	29.7
892.52	-31.74
892.691	64.51
892.862	3.07
893.032	-48.13
893.203	-13.31
893.374	-70.65
893.545	35.84
893.716	17.41
893.887	72.7
894.057	-56.32
894.228	-31.74
894.399	-9.22
894.57	95.23
894.74	33.79
894.911	58.37
895.082	-64.51
895.253	-27.65
895.423	17.41
895.594	35.84
895.764	-41.98
895.935	15.36
896.106	41.98
896.276	-64.51
896.447	-1.02
896.617	-31.74
896.788	-50.18
896.958	-23.55
897.129	56.32
897.299	-72.7
897.47	60.42
897.64	11.26
897.81	-27.65
897.981	-39.94
898.151	-19.46
898.322	25.6
898.492	-35.84
898.662	19.46
898.832	-78.85
899.003	-15.36
899.173	1.02
899.343	-13.31
899.513	7.17
