Data from USB4F104151__275__14-23-19-669.txt Node

Date: Thu Mar 13 14:23:19 EDT 2025
User: louis
Spectrometer: USB4F10415
Trigger mode: 4
Integration Time (sec): 2.000000E-2
Scans to average: 1
Electric dark correction enabled: true
Nonlinearity correction enabled: false
Boxcar width: 0
XAxis mode: Wavelengths
Number of Pixels in Spectrum: 3648
>>>>>Begin Spectral Data<<<<<
178.204	-137.9
178.424	-137.9
178.644	-137.9
178.864	-92.84
179.084	-113.32
179.304	23.89
179.524	-33.45
179.744	7.51
179.964	44.37
180.184	-6.83
180.404	60.76
180.624	-49.83
180.844	75.09
181.064	-115.37
181.283	-0.68
181.503	-17.07
181.723	11.61
181.943	-37.55
182.163	40.28
182.383	-35.5
182.602	9.56
182.822	-2.73
183.042	58.71
183.262	40.28
183.482	-17.07
183.701	15.7
183.921	27.99
184.141	-8.87
184.361	21.85
184.58	-33.45
184.8	-8.87
185.02	42.32
185.239	15.7
185.459	40.28
185.679	-0.68
185.898	-0.68
186.118	3.41
186.338	11.61
186.557	73.04
186.777	23.89
186.997	7.51
187.216	79.19
187.436	66.9
187.655	64.85
187.875	71
188.095	7.51
188.314	15.7
188.534	89.43
188.753	36.18
188.973	44.37
189.192	97.62
189.412	-21.16
189.631	71
189.851	-49.83
190.07	89.43
190.29	-19.11
190.509	19.8
190.729	73.04
190.948	30.04
191.168	89.43
191.387	36.18
191.607	25.94
191.826	83.28
192.045	44.37
192.265	64.85
192.484	23.89
192.704	-2.73
192.923	-43.69
193.142	40.28
193.362	23.89
193.581	56.66
193.8	120.15
194.02	85.33
194.239	-6.83
194.458	7.51
194.678	-23.21
194.897	-55.98
195.116	62.8
195.335	32.08
195.555	25.94
195.774	32.08
195.993	42.32
196.212	23.89
196.432	-39.59
196.651	81.24
196.87	56.66
197.089	120.15
197.308	48.47
197.528	27.99
197.747	-12.97
197.966	48.47
198.185	66.9
198.404	-2.73
198.623	60.76
198.842	60.76
199.062	17.75
199.281	93.52
199.5	-12.97
199.719	75.09
199.938	40.28
200.157	89.43
200.376	1.37
200.595	66.9
200.814	-15.02
201.033	9.56
201.252	40.28
201.471	32.08
201.69	68.95
201.909	-0.68
202.128	114
202.347	48.47
202.566	99.67
202.785	11.61
203.004	19.8
203.223	-12.97
203.442	-2.73
203.661	44.37
203.879	105.81
204.098	48.47
204.317	-37.55
204.536	60.76
204.755	5.46
204.974	38.23
205.193	-29.35
205.411	89.43
205.63	-15.02
205.849	9.56
206.068	32.08
206.287	48.47
206.505	46.42
206.724	54.61
206.943	11.61
207.162	-41.64
207.381	-21.16
207.599	50.52
207.818	-29.35
208.037	87.38
208.255	15.7
208.474	40.28
208.693	99.67
208.911	116.05
209.13	13.65
209.349	17.75
209.567	68.95
209.786	42.32
210.005	60.76
210.223	95.57
210.442	7.51
210.661	122.2
210.879	89.43
211.098	42.32
211.316	27.99
211.535	-2.73
211.753	7.51
211.972	54.61
212.191	-60.07
212.409	-17.07
212.628	17.75
212.846	40.28
213.065	54.61
213.283	58.71
213.502	-12.97
213.72	32.08
213.938	40.28
214.157	77.14
214.375	40.28
214.594	81.24
214.812	42.32
215.031	71
215.249	17.75
215.467	-33.45
215.686	-8.87
215.904	103.76
216.122	83.28
216.341	64.85
216.559	-12.97
216.778	81.24
216.996	56.66
217.214	-55.98
217.432	114
217.651	64.85
217.869	32.08
218.087	-0.68
218.306	36.18
218.524	73.04
218.742	-8.87
218.96	9.56
219.179	48.47
219.397	107.86
219.615	97.62
219.833	15.7
220.051	-0.68
220.27	97.62
220.488	48.47
220.706	118.1
220.924	40.28
221.142	34.13
221.36	7.51
221.578	56.66
221.796	81.24
222.015	64.85
222.233	50.52
222.451	32.08
222.669	-0.68
222.887	38.23
223.105	42.32
223.323	48.47
223.541	40.28
223.759	40.28
223.977	66.9
224.195	87.38
224.413	77.14
224.631	58.71
224.849	87.38
225.067	97.62
225.285	-4.78
225.503	48.47
225.721	56.66
225.939	-41.64
226.157	60.76
226.375	183.63
226.592	-39.59
226.81	44.37
227.028	5.46
227.246	91.48
227.464	64.85
227.682	36.18
227.9	101.72
228.117	3.41
228.335	1.37
228.553	83.28
228.771	11.61
228.989	91.48
229.206	68.95
229.424	-8.87
229.642	23.89
229.86	44.37
230.077	91.48
230.295	40.28
230.513	75.09
230.731	54.61
230.948	95.57
231.166	116.05
231.384	27.99
231.601	77.14
231.819	114
232.037	9.56
232.254	7.51
232.472	48.47
232.689	-17.07
232.907	25.94
233.125	-0.68
233.342	7.51
233.56	81.24
233.777	-8.87
233.995	3.41
234.213	120.15
234.43	36.18
234.648	48.47
234.865	-23.21
235.083	11.61
235.3	64.85
235.518	58.71
235.735	66.9
235.953	64.85
236.17	42.32
236.388	83.28
236.605	-21.16
236.822	75.09
237.04	32.08
237.257	-8.87
237.475	7.51
237.692	97.62
237.909	1.37
238.127	-6.83
238.344	-21.16
238.562	42.32
238.779	66.9
238.996	32.08
239.214	91.48
239.431	-4.78
239.648	17.75
239.865	34.13
240.083	15.7
240.3	-17.07
240.517	50.52
240.735	32.08
240.952	120.15
241.169	17.75
241.386	60.76
241.603	11.61
241.821	11.61
242.038	56.66
242.255	81.24
242.472	-29.35
242.689	-4.78
242.907	50.52
243.124	66.9
243.341	36.18
243.558	7.51
243.775	42.32
243.992	-0.68
244.209	75.09
244.426	83.28
244.643	52.56
244.86	-17.07
245.078	93.52
245.295	-12.97
245.512	91.48
245.729	48.47
245.946	3.41
246.163	77.14
246.38	48.47
246.597	15.7
246.814	73.04
247.031	99.67
247.248	11.61
247.464	68.95
247.681	99.67
247.898	75.09
248.115	15.7
248.332	77.14
248.549	38.23
248.766	15.7
248.983	56.66
249.2	34.13
249.417	58.71
249.633	89.43
249.85	68.95
250.067	9.56
250.284	7.51
250.501	58.71
250.717	13.65
250.934	1.37
251.151	5.46
251.368	9.56
251.585	15.7
251.801	-23.21
252.018	-33.45
252.235	34.13
252.451	1.37
252.668	-66.22
252.885	19.8
253.102	79.19
253.318	58.71
253.535	-41.64
253.752	17.75
253.968	27.99
254.185	32.08
254.401	36.18
254.618	44.37
254.835	-88.75
255.051	89.43
255.268	66.9
255.484	83.28
255.701	44.37
255.917	64.85
256.134	64.85
256.351	7.51
256.567	50.52
256.784	48.47
257	-23.21
257.217	52.56
257.433	81.24
257.65	44.37
257.866	52.56
258.082	93.52
258.299	-17.07
258.515	77.14
258.732	23.89
258.948	25.94
259.165	23.89
259.381	9.56
259.597	32.08
259.814	42.32
260.03	40.28
260.246	77.14
260.463	25.94
260.679	75.09
260.895	7.51
261.112	93.52
261.328	-39.59
261.544	17.75
261.761	95.57
261.977	27.99
262.193	44.37
262.409	19.8
262.626	56.66
262.842	52.56
263.058	-10.92
263.274	42.32
263.49	40.28
263.707	66.9
263.923	66.9
264.139	34.13
264.355	48.47
264.571	32.08
264.787	99.67
265.004	25.94
265.22	122.2
265.436	122.2
265.652	83.28
265.868	81.24
266.084	23.89
266.3	114
266.516	40.28
266.732	34.13
266.948	40.28
267.164	40.28
267.38	-33.45
267.596	85.33
267.812	36.18
268.028	52.56
268.244	7.51
268.46	60.76
268.676	64.85
268.892	25.94
269.108	19.8
269.324	32.08
269.54	17.75
269.756	97.62
269.972	50.52
270.188	1.37
270.403	-31.4
270.619	68.95
270.835	50.52
271.051	71
271.267	-0.68
271.483	56.66
271.698	17.75
271.914	42.32
272.13	23.89
272.346	52.56
272.562	1.37
272.777	93.52
272.993	-21.16
273.209	81.24
273.425	9.56
273.64	91.48
273.856	-27.31
274.072	11.61
274.287	62.8
274.503	56.66
274.719	44.37
274.934	56.66
275.15	3.41
275.366	11.61
275.581	13.65
275.797	30.04
276.012	85.33
276.228	7.51
276.444	11.61
276.659	62.8
276.875	-43.69
277.09	42.32
277.306	56.66
277.521	1.37
277.737	-17.07
277.952	56.66
278.168	-0.68
278.383	56.66
278.599	27.99
278.814	52.56
279.03	52.56
279.245	77.14
279.461	-39.59
279.676	77.14
279.892	-4.78
280.107	23.89
280.322	-4.78
280.538	17.75
280.753	17.75
280.969	48.47
281.184	-41.64
281.399	89.43
281.615	9.56
281.83	21.85
282.045	3.41
282.26	-37.55
282.476	-25.26
282.691	27.99
282.906	48.47
283.122	1.37
283.337	25.94
283.552	103.76
283.767	36.18
283.983	48.47
284.198	93.52
284.413	36.18
284.628	32.08
284.843	62.8
285.058	-15.02
285.274	48.47
285.489	48.47
285.704	44.37
285.919	-10.92
286.134	66.9
286.349	44.37
286.564	-17.07
286.779	97.62
286.995	93.52
287.21	7.51
287.425	46.42
287.64	56.66
287.855	50.52
288.07	27.99
288.285	42.32
288.5	32.08
288.715	-0.68
288.93	23.89
289.145	9.56
289.36	1.37
289.575	122.2
289.79	48.47
290.004	32.08
290.219	7.51
290.434	-17.07
290.649	64.85
290.864	-17.07
291.079	83.28
291.294	32.08
291.509	1.37
291.724	60.76
291.938	-8.87
292.153	21.85
292.368	30.04
292.583	44.37
292.798	48.47
293.012	81.24
293.227	50.52
293.442	68.95
293.657	95.57
293.871	101.72
294.086	-19.11
294.301	36.18
294.516	91.48
294.73	58.71
294.945	-39.59
295.16	42.32
295.374	17.75
295.589	-25.26
295.804	-10.92
296.018	32.08
296.233	83.28
296.447	17.75
296.662	91.48
296.877	85.33
297.091	9.56
297.306	23.89
297.52	77.14
297.735	40.28
297.949	50.52
298.164	71
298.378	-8.87
298.593	32.08
298.807	11.61
299.022	66.9
299.236	-15.02
299.451	25.94
299.665	-37.55
299.88	68.95
300.094	-10.92
300.309	64.85
300.523	36.18
300.737	-12.97
300.952	89.43
301.166	25.94
301.381	32.08
301.595	58.71
301.809	-19.11
302.024	-8.87
302.238	17.75
302.452	85.33
302.667	-0.68
302.881	105.81
303.095	114
303.309	56.66
303.524	32.08
303.738	50.52
303.952	42.32
304.166	75.09
304.381	34.13
304.595	116.05
304.809	23.89
305.023	58.71
305.237	97.62
305.452	42.32
305.666	-51.88
305.88	19.8
306.094	64.85
306.308	25.94
306.522	7.51
306.736	-0.68
306.95	97.62
307.164	54.61
307.379	75.09
307.593	32.08
307.807	85.33
308.021	7.51
308.235	-41.64
308.449	32.08
308.663	-47.79
308.877	97.62
309.091	15.7
309.305	58.71
309.519	40.28
309.733	109.91
309.947	75.09
310.161	111.96
310.374	56.66
310.588	54.61
310.802	-25.26
311.016	21.85
311.23	7.51
311.444	-17.07
311.658	23.89
311.872	15.7
312.085	32.08
312.299	73.04
312.513	122.2
312.727	-17.07
312.941	9.56
313.154	81.24
313.368	122.2
313.582	89.43
313.796	19.8
314.009	40.28
314.223	85.33
314.437	132.44
314.651	42.32
314.864	36.18
315.078	75.09
315.292	50.52
315.505	64.85
315.719	-23.21
315.933	21.85
316.146	5.46
316.36	50.52
316.573	107.86
316.787	79.19
317.001	36.18
317.214	32.08
317.428	75.09
317.641	21.85
317.855	60.76
318.068	-41.64
318.282	-8.87
318.495	56.66
318.709	93.52
318.922	42.32
319.136	58.71
319.349	73.04
319.563	73.04
319.776	89.43
319.99	13.65
320.203	73.04
320.417	58.71
320.63	91.48
320.843	124.24
321.057	95.57
321.27	13.65
321.483	-6.83
321.697	114
321.91	73.04
322.124	13.65
322.337	-0.68
322.55	83.28
322.763	75.09
322.977	58.71
323.19	1.37
323.403	5.46
323.617	15.7
323.83	42.32
324.043	38.23
324.256	25.94
324.469	60.76
324.683	146.77
324.896	75.09
325.109	11.61
325.322	9.56
325.535	93.52
325.748	93.52
325.962	60.76
326.175	19.8
326.388	27.99
326.601	95.57
326.814	136.53
327.027	81.24
327.24	169.3
327.453	27.99
327.666	44.37
327.879	89.43
328.092	68.95
328.305	48.47
328.518	52.56
328.731	-2.73
328.944	66.9
329.157	44.37
329.37	7.51
329.583	138.58
329.796	19.8
330.009	27.99
330.222	30.04
330.435	89.43
330.648	42.32
330.861	68.95
331.073	89.43
331.286	9.56
331.499	58.71
331.712	48.47
331.925	83.28
332.138	27.99
332.35	32.08
332.563	7.51
332.776	81.24
332.989	75.09
333.202	7.51
333.414	17.75
333.627	9.56
333.84	21.85
334.053	58.71
334.265	17.75
334.478	3.41
334.691	34.13
334.903	23.89
335.116	-4.78
335.329	68.95
335.541	60.76
335.754	48.47
335.966	30.04
336.179	50.52
336.392	77.14
336.604	48.47
336.817	89.43
337.029	27.99
337.242	56.66
337.454	3.41
337.667	17.75
337.88	64.85
338.092	85.33
338.305	114
338.517	-27.31
338.729	95.57
338.942	107.86
339.154	-33.45
339.367	91.48
339.579	58.71
339.792	-6.83
340.004	64.85
340.217	40.28
340.429	73.04
340.641	36.18
340.854	40.28
341.066	-21.16
341.278	40.28
341.491	58.71
341.703	48.47
341.915	-33.45
342.128	64.85
342.34	46.42
342.552	40.28
342.764	-25.26
342.977	81.24
343.189	17.75
343.401	48.47
343.613	3.41
343.826	62.8
344.038	-15.02
344.25	66.9
344.462	93.52
344.674	60.76
344.886	19.8
345.099	17.75
345.311	85.33
345.523	75.09
345.735	-10.92
345.947	25.94
346.159	89.43
346.371	118.1
346.583	103.76
346.795	163.15
347.007	116.05
347.219	21.85
347.431	7.51
347.643	75.09
347.855	3.41
348.067	66.9
348.279	52.56
348.491	75.09
348.703	126.29
348.915	56.66
349.127	134.48
349.339	81.24
349.551	11.61
349.763	11.61
349.975	75.09
350.187	44.37
350.399	40.28
350.61	154.96
350.822	-6.83
351.034	81.24
351.246	23.89
351.458	60.76
351.669	-12.97
351.881	68.95
352.093	157.01
352.305	97.62
352.517	81.24
352.728	89.43
352.94	50.52
353.152	58.71
353.363	64.85
353.575	25.94
353.787	124.24
353.999	122.2
354.21	48.47
354.422	105.81
354.633	58.71
354.845	15.7
355.057	32.08
355.268	73.04
355.48	48.47
355.692	-17.07
355.903	-2.73
356.115	9.56
356.326	-25.26
356.538	60.76
356.749	66.9
356.961	79.19
357.172	15.7
357.384	107.86
357.595	81.24
357.807	101.72
358.018	27.99
358.23	142.68
358.441	60.76
358.653	32.08
358.864	-8.87
359.075	42.32
359.287	38.23
359.498	50.52
359.709	7.51
359.921	48.47
360.132	34.13
360.344	62.8
360.555	64.85
360.766	42.32
360.977	27.99
361.189	66.9
361.4	-8.87
361.611	32.08
361.823	130.39
362.034	-17.07
362.245	-33.45
362.456	7.51
362.667	-31.4
362.879	64.85
363.09	40.28
363.301	-4.78
363.512	85.33
363.723	-33.45
363.935	15.7
364.146	15.7
364.357	44.37
364.568	130.39
364.779	48.47
364.99	54.61
365.201	34.13
365.412	64.85
365.623	23.89
365.834	40.28
366.045	56.66
366.256	116.05
366.467	44.37
366.678	50.52
366.889	32.08
367.1	83.28
367.311	105.81
367.522	95.57
367.733	126.29
367.944	73.04
368.155	36.18
368.366	48.47
368.577	97.62
368.788	40.28
368.999	38.23
369.209	89.43
369.42	134.48
369.631	79.19
369.842	64.85
370.053	56.66
370.264	142.68
370.474	42.32
370.685	21.85
370.896	15.7
371.107	114
371.317	-0.68
371.528	56.66
371.739	64.85
371.95	19.8
372.16	25.94
372.371	83.28
372.582	83.28
372.792	146.77
373.003	124.24
373.214	42.32
373.424	48.47
373.635	56.66
373.846	52.56
374.056	91.48
374.267	52.56
374.477	66.9
374.688	-4.78
374.898	1.37
375.109	48.47
375.319	9.56
375.53	107.86
375.74	109.91
375.951	56.66
376.161	32.08
376.372	48.47
376.582	64.85
376.793	89.43
377.003	15.7
377.214	13.65
377.424	134.48
377.635	15.7
377.845	19.8
378.055	91.48
378.266	56.66
378.476	32.08
378.686	7.51
378.897	77.14
379.107	42.32
379.317	109.91
379.528	-12.97
379.738	114
379.948	91.48
380.158	1.37
380.369	97.62
380.579	32.08
380.789	60.76
380.999	73.04
381.21	42.32
381.42	146.77
381.63	11.61
381.84	105.81
382.05	89.43
382.261	97.62
382.471	-6.83
382.681	73.04
382.891	132.44
383.101	58.71
383.311	77.14
383.521	54.61
383.731	77.14
383.941	142.68
384.151	44.37
384.361	71
384.571	85.33
384.781	114
384.991	140.63
385.201	109.91
385.411	93.52
385.621	-8.87
385.831	-12.97
386.041	75.09
386.251	95.57
386.461	91.48
386.671	91.48
386.881	23.89
387.091	116.05
387.301	40.28
387.511	64.85
387.72	9.56
387.93	32.08
388.14	-41.64
388.35	175.44
388.56	169.3
388.769	169.3
388.979	114
389.189	107.86
389.399	66.9
389.609	44.37
389.818	-17.07
390.028	124.24
390.238	-19.11
390.447	21.85
390.657	93.52
390.867	148.82
391.076	13.65
391.286	83.28
391.496	91.48
391.705	64.85
391.915	44.37
392.125	101.72
392.334	77.14
392.544	58.71
392.753	66.9
392.963	11.61
393.172	136.53
393.382	99.67
393.591	181.59
393.801	68.95
394.01	257.36
394.22	81.24
394.429	11.61
394.639	130.39
394.848	97.62
395.058	64.85
395.267	-8.87
395.477	105.81
395.686	73.04
395.895	154.96
396.105	97.62
396.314	163.15
396.524	130.39
396.733	75.09
396.942	148.82
397.152	40.28
397.361	154.96
397.57	17.75
397.78	144.72
397.989	122.2
398.198	122.2
398.407	171.35
398.617	101.72
398.826	148.82
399.035	64.85
399.244	93.52
399.453	87.38
399.663	167.25
399.872	114
400.081	68.95
400.29	103.76
400.499	56.66
400.708	101.72
400.917	83.28
401.127	191.83
401.336	142.68
401.545	171.35
401.754	132.44
401.963	97.62
402.172	195.92
402.381	109.91
402.59	114
402.799	114
403.008	146.77
403.217	89.43
403.426	163.15
403.635	99.67
403.844	228.69
404.053	114
404.262	181.59
404.471	195.92
404.68	167.25
404.888	124.24
405.097	175.44
405.306	159.06
405.515	130.39
405.724	161.11
405.933	189.78
406.142	226.64
406.35	263.51
406.559	142.68
406.768	148.82
406.977	259.41
407.185	208.21
407.394	216.4
407.603	224.59
407.812	292.18
408.02	351.57
408.229	279.89
408.438	261.46
408.646	263.51
408.855	251.22
409.064	238.93
409.272	324.94
409.481	251.22
409.69	304.46
409.898	331.09
410.107	380.24
410.315	345.42
410.524	343.38
410.733	326.99
410.941	288.08
411.15	339.28
411.358	353.62
411.567	374.1
411.775	439.63
411.984	341.33
412.192	441.68
412.401	525.65
412.609	507.21
412.818	509.26
413.026	552.27
413.234	560.46
413.443	548.17
413.651	589.13
413.86	558.41
414.068	712.01
414.276	675.15
414.485	605.52
414.693	705.87
414.901	712.01
415.11	755.02
415.318	695.63
415.526	683.34
415.734	757.07
415.943	810.31
416.151	861.51
416.359	853.32
416.567	884.04
416.776	949.57
416.984	978.25
417.192	1039.69
417.4	949.57
417.608	1015.11
417.817	1080.64
418.025	1178.95
418.233	1240.39
418.441	1170.76
418.649	1137.99
418.857	1353.02
419.065	1359.17
419.273	1350.98
419.481	1314.11
419.689	1416.51
419.897	1611.07
420.105	1572.16
420.313	1666.36
420.521	1719.61
420.729	1727.8
420.937	1740.09
421.145	1680.7
421.353	1852.73
421.561	1969.46
421.769	2065.72
421.977	2229.56
422.185	2145.59
422.393	2192.69
422.601	2381.11
422.809	2420.02
423.017	2313.52
423.224	2604.33
423.432	2467.12
423.64	2590
423.848	2790.7
424.056	2727.21
424.263	2966.82
424.471	2858.28
424.679	2915.62
424.887	3056.93
425.094	3364.13
425.302	3392.8
425.51	3274.02
425.718	3448.1
425.925	3505.44
426.133	3648.8
426.341	3892.51
426.548	4209.94
426.756	4070.68
426.964	4173.08
427.171	4267.28
427.379	4404.5
427.586	4490.51
427.794	4560.14
428.001	4908.3
428.209	5022.98
428.417	4955.4
428.624	5350.66
428.832	5326.08
429.039	5332.23
429.247	5244.17
429.454	5797.12
429.662	6167.8
429.869	5811.45
430.076	6280.44
430.284	5860.6
430.491	6229.24
430.699	6495.47
430.906	6407.41
431.114	6593.78
431.321	6995.18
431.528	7068.91
431.736	7486.69
431.943	7886.05
432.15	7707.87
432.358	7871.71
432.565	7961.82
432.772	8109.27
432.979	8555.73
433.187	8617.17
433.394	8676.56
433.601	9131.21
433.808	9313.48
434.016	9137.35
434.223	9645.25
434.43	10165.43
434.637	10171.58
434.844	10570.93
435.052	10888.37
435.259	10702
435.466	10859.7
435.673	10986.67
435.88	11508.9
436.087	11924.64
436.294	12084.38
436.501	11834.53
436.708	12070.05
436.915	12369.05
437.122	12948.62
437.329	13059.21
437.537	13345.93
437.743	13646.98
437.95	13534.34
438.157	13868.16
438.364	14646.39
438.571	14312.57
438.778	14670.97
438.985	16077.92
439.192	15307.88
439.399	15889.51
439.606	15539.3
439.813	16235.61
440.02	17425.48
440.227	17112.14
440.433	16956.5
440.64	17693.77
440.847	17429.58
441.054	17769.54
441.261	18879.54
441.467	18766.9
441.674	19293.23
441.881	19680.3
442.088	19815.46
442.294	19399.73
442.501	19962.92
442.708	20360.22
442.914	21306.38
443.121	22064.13
443.328	21689.35
443.534	23215.09
443.741	22447.1
443.948	22137.86
444.154	23618.54
444.361	23698.41
444.568	23602.16
444.774	23733.23
444.981	23868.39
445.187	24720.35
445.394	25402.32
445.6	25459.66
445.807	27952.04
446.013	26391.49
446.22	26923.96
446.426	28126.12
446.633	28275.62
446.839	28992.41
447.046	28005.29
447.252	29588.37
447.459	29830.03
447.665	29395.86
447.871	30794.62
448.078	32117.61
448.284	30589.83
448.491	31521.65
448.697	32639.84
448.903	33387.35
449.11	33788.75
449.316	33131.36
449.522	33790.8
449.728	34519.88
449.935	34417.48
450.141	34634.56
450.347	35420.98
450.553	34216.78
450.76	34802.5
450.966	35648.31
451.172	35408.7
451.378	36557.61
451.584	35803.95
451.791	36623.14
451.997	36416.3
452.203	37112.61
452.409	36963.11
452.615	37098.27
452.821	35654.45
453.027	35373.88
453.233	37397.27
453.44	35806
453.646	36080.43
453.852	36150.06
454.058	36821.8
454.264	35629.88
454.47	36528.94
454.676	35580.73
454.882	36795.17
455.088	33459.03
455.294	34528.07
455.5	34687.81
455.705	35076.93
455.911	33366.87
456.117	33155.93
456.323	32643.94
456.529	30813.06
456.735	32500.58
456.941	31488.88
457.147	31120.25
457.352	30309.25
457.558	29533.07
457.764	30110.6
457.97	29549.46
458.176	28869.53
458.381	28666.78
458.587	27405.24
458.793	27489.2
458.999	26328
459.204	28130.22
459.41	27163.57
459.616	25293.78
459.821	25480.14
460.027	25514.96
460.233	24693.72
460.438	23798.76
460.644	23684.08
460.85	22815.74
461.055	22393.86
461.261	22453.25
461.466	20782.1
461.672	20257.82
461.878	21345.3
462.083	20220.96
462.289	19819.56
462.494	19477.55
462.7	18414.65
462.905	18193.47
463.111	18969.65
463.316	19057.71
463.522	18363.45
463.727	18560.06
463.932	18283.58
464.138	18197.57
464.343	18435.13
464.549	17794.12
464.754	18381.88
464.959	18375.74
465.165	17798.21
465.37	17456.2
465.575	17087.57
465.781	17534.03
465.986	17765.45
466.191	17144.91
466.397	16655.45
466.602	15828.07
466.807	16497.75
467.012	16436.31
467.218	16454.75
467.423	16120.93
467.628	16385.12
467.833	17022.03
468.038	16241.76
468.244	15887.46
468.449	16643.16
468.654	16079.97
468.859	15957.09
469.064	15881.32
469.269	15019.12
469.474	15320.17
469.679	15535.21
469.885	15060.08
470.09	15252.59
470.295	15391.85
470.5	14990.45
470.705	15154.29
470.91	14560.38
471.115	14531.7
471.32	14580.85
471.525	14699.64
471.73	14451.83
471.935	14189.69
472.139	13802.63
472.344	13933.7
472.549	13972.61
472.754	13773.96
472.959	13528.2
473.164	13089.93
473.369	13057.17
473.574	13429.9
473.778	13286.54
473.983	13261.96
474.188	13063.31
474.393	12467.35
474.598	12723.35
474.802	12526.74
475.007	12360.86
475.212	12412.06
475.417	12141.72
475.621	12115.1
475.826	12225.69
476.031	11975.84
476.235	11629.73
476.44	11838.62
476.645	11386.02
476.849	11523.24
477.054	11426.98
477.259	11343.02
477.463	11439.27
477.668	10867.89
477.872	11103.4
478.077	10968.24
478.282	10808.5
478.486	10570.93
478.691	10570.93
478.895	10349.75
479.1	10284.22
479.304	10607.8
479.509	10202.3
479.713	10472.63
479.918	10140.86
480.122	9987.26
480.326	10099.9
480.531	10091.71
480.735	9792.7
480.94	9915.58
481.144	10140.86
481.348	9682.11
481.553	9637.06
481.757	9737.41
481.961	9895.1
482.166	9682.11
482.37	9856.19
482.574	9569.48
482.778	9546.95
482.983	9766.08
483.187	9667.78
483.391	9766.08
483.595	9493.7
483.8	9520.32
484.004	9804.99
484.208	9602.24
484.412	9768.13
484.616	9698.5
484.821	9620.67
485.025	9458.88
485.229	9620.67
485.433	9587.91
485.637	9809.09
485.841	9620.67
486.045	9700.55
486.249	9587.91
486.453	9643.2
486.657	9716.93
486.861	9686.21
487.065	9231.56
487.269	9686.21
487.473	9487.56
487.677	9784.51
487.881	9678.02
488.085	9673.92
488.289	9874.62
488.493	9442.5
488.697	9649.35
488.901	9534.66
489.105	9788.61
489.309	9864.38
489.512	9747.65
489.716	9825.47
489.92	9856.19
490.124	9759.94
490.328	9915.58
490.531	9694.4
490.735	10050.75
490.939	9843.9
491.143	10116.28
491.346	10011.84
491.55	9981.12
491.754	10218.68
491.958	9960.64
492.161	9985.21
492.365	10214.59
492.569	10022.08
492.772	10044.6
492.976	10460.34
493.18	10353.85
493.383	10269.88
493.587	10560.69
493.79	10624.18
493.994	10626.23
494.197	10724.53
494.401	10712.24
494.605	10720.43
494.808	11048.11
495.012	11037.87
495.215	11091.12
495.419	11138.22
495.622	10951.85
495.825	11162.79
496.029	11058.35
496.232	11248.81
496.436	11367.59
496.639	11631.78
496.843	11748.51
497.046	12010.65
497.249	11879.58
497.453	12108.96
497.656	12293.27
497.859	12246.17
498.063	12387.48
498.266	12600.47
498.469	12393.62
498.673	12635.28
498.876	12649.62
499.079	12831.89
499.282	12866.7
499.485	13331.59
499.689	13188.24
499.892	13581.45
500.095	13714.56
500.298	13859.97
500.501	13567.11
500.705	14318.71
500.908	14171.26
501.111	14304.38
501.314	14402.68
501.517	14634.1
501.72	14689.4
501.923	14783.6
502.126	15172.72
502.329	15375.47
502.532	15522.92
502.735	15449.19
502.938	16010.34
503.141	15883.36
503.344	16002.15
503.547	16065.63
503.75	16415.83
503.953	16573.53
504.156	16901.2
504.359	17157.2
504.562	16874.58
504.765	17597.51
504.968	17538.12
505.17	17833.03
505.373	17914.95
505.576	17978.44
505.779	18291.77
505.982	18418.75
506.185	18881.59
506.387	18914.36
506.59	19090.48
506.793	19774.5
506.996	19448.88
507.198	19913.77
507.401	19944.49
507.604	20014.12
507.807	20513.82
508.009	20454.43
508.212	20636.7
508.415	21130.26
508.617	21146.64
508.82	21275.66
509.022	21369.87
509.225	22101
509.428	22121.48
509.63	22094.85
509.833	22324.22
510.035	22875.13
510.238	22707.19
510.44	23122.93
510.643	23280.63
510.845	23505.9
511.048	23274.48
511.25	23983.08
511.453	24374.24
511.655	24695.77
511.858	24656.86
512.06	24869.85
512.262	25232.34
512.465	25336.79
512.667	25705.42
512.87	25883.59
513.072	25768.91
513.274	26315.72
513.477	26495.94
513.679	26833.85
513.881	27073.46
514.084	27333.56
514.286	27491.25
514.488	27704.24
514.69	28539.81
514.893	28459.94
515.095	28543.91
515.297	29000.6
515.499	28697.5
515.701	29404.05
515.904	29746.06
516.106	30014.35
516.308	29719.44
516.51	30509.96
516.712	30432.13
516.914	30817.15
517.116	31505.27
517.318	31613.81
517.52	31630.19
517.722	31591.28
517.925	31951.73
518.127	32754.53
518.329	32889.7
518.531	32613.22
518.733	33248.09
518.935	33659.73
519.136	33612.63
519.338	34298.7
519.54	34298.7
519.742	34478.92
519.944	34777.92
520.146	35068.73
520.348	35287.87
520.55	35283.77
520.752	35666.74
520.954	36473.64
521.155	36555.56
521.357	36811.56
521.559	37122.85
521.761	37589.78
521.963	37323.55
522.164	37534.49
522.366	37788.44
522.568	37982.99
522.77	38198.03
522.971	39158.53
523.173	38816.52
523.375	38810.37
523.576	39232.25
523.778	39457.53
523.98	39809.78
524.181	40069.87
524.383	40125.17
524.584	40112.88
524.786	40137.46
524.988	40514.28
525.189	40782.57
525.391	40805.09
525.592	41568.99
525.794	41380.57
525.995	41020.13
526.197	41425.63
526.398	42097.36
526.6	42363.6
526.801	41775.83
527.003	42699.47
527.204	42203.86
527.406	42435.28
527.607	42744.52
527.808	42545.87
528.01	42457.81
528.211	42840.78
528.412	43541.18
528.614	43444.93
528.815	43215.55
529.016	43717.31
529.218	43102.92
529.419	43215.55
529.62	43467.45
529.822	43215.55
530.023	43541.18
530.224	43713.21
530.425	43846.33
530.626	43330.24
530.828	43825.85
531.029	44487.34
531.23	44008.12
531.431	43588.28
531.632	43958.97
531.833	44331.7
532.035	43813.56
532.236	44192.43
532.437	44337.84
532.638	44190.39
532.839	44214.96
533.04	44079.8
533.241	43940.53
533.442	44919.46
533.643	44362.42
533.844	44182.2
534.045	44114.61
534.246	43561.66
534.447	44700.33
534.648	44096.18
534.849	44640.94
535.05	43864.76
535.251	44184.24
535.451	44204.72
535.652	44538.54
535.853	44186.29
536.054	44229.3
536.255	44194.48
536.456	43559.61
536.657	44534.45
536.857	44024.5
537.058	43813.56
537.259	44257.97
537.46	44014.26
537.66	43877.05
537.861	43662.01
538.062	43913.91
538.263	44143.28
538.463	43819.7
538.664	44063.41
538.865	43930.29
539.065	44026.55
539.266	43543.23
539.466	44217.01
539.667	43537.08
539.868	43999.93
540.068	44176.05
540.269	43528.89
540.469	43924.15
540.67	43909.82
540.87	43434.69
541.071	43524.8
541.271	43670.2
541.472	43375.3
541.672	43602.62
541.873	43598.52
542.073	43141.83
542.274	43913.91
542.474	43573.95
542.675	43188.93
542.875	43539.13
543.075	43164.35
543.276	42707.66
543.476	43891.38
543.676	42894.02
543.877	43578.04
544.077	43379.39
544.277	43553.47
544.478	43485.89
544.678	43340.48
544.878	43064
545.078	43592.38
545.279	43352.77
545.479	43119.3
545.679	43371.2
545.879	43360.96
546.079	43231.94
546.28	43619
546.48	43254.47
546.68	43233.99
546.88	43045.57
547.08	43537.08
547.28	43057.86
547.48	42965.7
547.68	43469.5
547.88	42889.93
548.081	43174.59
548.281	43076.29
548.481	43201.22
548.681	43444.93
548.881	43172.55
549.081	43420.35
549.28	43023.04
549.48	43391.68
549.68	43225.79
549.88	43705.02
550.08	42777.29
550.28	43326.14
550.48	42961.61
550.68	43279.04
550.88	43111.11
551.08	43182.79
551.279	43074.24
551.479	42777.29
551.679	43340.48
551.879	42746.57
552.079	43283.14
552.278	42957.51
552.478	42965.7
552.678	42943.17
552.878	43455.17
553.077	43152.07
553.277	42662.6
553.477	43338.43
553.676	43029.19
553.876	42853.06
554.076	42996.42
554.275	42951.37
554.475	42519.24
554.674	42896.07
554.874	42717.9
555.074	42828.49
555.273	43299.52
555.473	43299.52
555.672	42289.87
555.872	42773.19
556.071	42969.8
556.271	42863.3
556.47	42693.32
556.67	42422.99
556.869	42425.04
557.068	43092.68
557.268	42650.31
557.467	42941.13
557.667	42322.64
557.866	42783.43
558.065	42810.06
558.265	42484.43
558.464	42222.29
558.663	42683.08
558.863	41716.44
559.062	42588.88
559.261	42332.88
559.461	42439.37
559.66	42021.59
559.859	41911
560.058	41734.87
560.258	42066.64
560.457	41464.54
560.656	41880.28
560.855	41843.41
561.054	42005.2
561.253	41603.8
561.453	41890.52
561.652	41798.36
561.851	41769.69
562.05	41417.44
562.249	41317.09
562.448	41980.63
562.647	41517.79
562.846	41069.28
563.045	41933.53
563.244	40993.51
563.443	41478.88
563.642	40956.64
563.841	41071.33
564.04	41222.88
564.239	41546.46
564.438	40801
564.637	40737.51
564.836	41317.09
565.035	40391.4
565.234	40622.83
565.432	40762.09
565.631	40262.38
565.83	40567.53
566.029	40323.82
566.228	40219.38
566.427	40205.04
566.625	40094.45
566.824	39568.12
567.023	40518.38
567.222	39570.17
567.42	40379.12
567.619	39910.13
567.818	39750.39
568.016	39488.25
568.215	39848.69
568.414	39117.57
568.612	39619.32
568.811	39779.06
569.01	39523.07
569.208	38757.13
569.407	39406.33
569.605	38802.18
569.804	39213.82
570.002	39015.17
570.201	39246.59
570.4	38693.64
570.598	38425.35
570.797	38466.31
570.995	38558.47
571.193	38112.02
571.392	38845.19
571.59	37784.34
571.789	38175.5
571.987	37835.54
572.186	38275.85
572.384	37665.56
572.582	37925.65
572.781	37997.33
572.979	37554.97
573.177	37677.85
573.376	37571.35
573.574	37215.01
573.772	37745.43
573.971	37059.36
574.169	36954.91
574.367	36854.56
574.565	36877.09
574.763	36883.23
574.962	36756.26
575.16	36215.6
575.358	36623.14
575.556	36195.12
575.754	36799.27
575.952	36201.26
576.151	36414.25
576.349	35685.17
576.547	35752.76
576.745	35822.39
576.943	35857.2
577.141	35707.7
577.339	35932.98
577.537	35435.32
577.735	35740.47
577.933	35320.63
578.131	35775.28
578.329	34990.91
578.527	34982.72
578.725	34999.1
578.923	35466.04
579.121	34636.61
579.319	34804.55
579.516	35050.3
579.714	34499.4
579.912	34749.25
580.11	34386.76
580.308	34450.25
580.506	34446.15
580.704	33676.12
580.901	33782.61
581.099	34122.57
581.297	33917.78
581.495	33651.54
581.692	34009.93
581.89	33358.68
582.088	33868.62
582.285	33141.6
582.483	33604.44
582.681	33469.27
582.878	33301.34
583.076	32947.04
583.274	33348.44
583.471	33096.54
583.669	32715.62
583.866	32600.93
584.064	32856.93
584.262	32416.61
584.459	32639.84
584.657	32529.25
584.854	32297.83
585.052	31884.14
585.249	32443.24
585.447	31953.77
585.644	31787.89
585.841	32109.42
586.039	32179.05
586.236	31658.87
586.434	31806.32
586.631	31351.67
586.828	31685.49
587.026	31652.72
587.223	31255.42
587.42	31292.28
587.618	31355.77
587.815	31073.15
588.012	30872.45
588.21	30948.22
588.407	31212.41
588.604	30729.09
588.801	30514.05
588.999	30813.06
589.196	30669.7
589.393	30405.51
589.59	30217.1
589.787	30055.31
589.984	30178.18
590.182	29883.28
590.379	29971.34
590.576	29731.73
590.773	29991.82
590.97	29660.05
591.167	29940.62
591.364	29553.55
591.561	29758.35
591.758	29209.5
591.955	29072.28
592.152	29545.36
592.349	29082.52
592.546	29221.78
592.743	29500.31
592.94	28253.09
593.137	28963.74
593.334	28896.16
593.531	28515.23
593.727	28947.36
593.924	28689.31
594.121	28246.95
594.318	28541.86
594.515	28244.9
594.712	28515.23
594.908	27906.99
595.105	28046.25
595.302	28011.43
595.499	28033.96
595.696	28119.98
595.892	27661.23
596.089	27863.98
596.286	27837.36
596.482	27659.18
596.679	27491.25
596.876	27595.7
597.072	27425.71
597.269	27294.64
597.466	27167.67
597.662	26979.26
597.859	27190.2
598.055	26991.55
598.252	27014.07
598.448	26575.81
598.645	26516.42
598.841	26299.33
599.038	26575.81
599.234	26588.1
599.431	26330.05
599.627	26276.8
599.824	26500.03
600.02	26647.49
600.217	26289.09
600.413	26182.6
600.609	26053.58
600.806	25750.48
601.002	25975.75
601.198	25721.8
601.395	25764.81
601.591	25586.64
601.787	25633.74
601.984	25146.33
602.18	25693.13
602.376	25261.01
602.572	25166.81
602.769	25297.88
602.965	25084.89
603.161	25111.51
603.357	24857.56
603.553	25097.17
603.75	24706.01
603.946	24835.03
604.142	24724.44
604.338	24632.29
604.534	24841.18
604.73	24450.02
604.926	24490.98
605.122	24706.01
605.318	24323.04
605.514	24132.58
605.71	24249.32
605.906	24052.71
606.102	24243.17
606.298	24200.16
606.494	23880.68
606.69	24208.36
606.886	23987.18
607.082	23946.22
607.278	24075.24
607.474	23473.14
607.67	23849.96
607.866	23485.42
608.062	23731.18
608.257	23206.9
608.453	23356.4
608.649	23596.01
608.845	23208.95
609.041	23454.7
609.236	23487.47
609.432	23202.8
609.628	22905.85
609.824	22979.57
610.019	23198.71
610.215	23239.67
610.411	23110.64
610.606	22723.58
610.802	22727.67
610.998	22756.35
611.193	22887.42
611.389	22658.04
611.584	22604.8
611.78	22371.33
611.976	22692.86
612.171	22221.83
612.367	22719.48
612.562	22529.02
612.758	22139.91
612.953	22084.61
613.149	22445.05
613.344	22164.48
613.539	22508.54
613.735	22109.19
613.93	22324.22
614.126	22135.81
614.321	22285.31
614.517	21832.71
614.712	21931.01
614.907	21961.73
615.103	22101
615.298	21634.06
615.493	22105.09
615.688	21830.66
615.884	22014.98
616.079	21867.53
616.274	21589
616.47	21535.76
616.665	21941.25
616.86	21502.99
617.055	21421.07
617.25	21203.99
617.445	21664.78
617.641	20802.58
617.836	21142.55
618.031	20978.71
618.226	21402.64
618.421	20972.57
618.616	21277.71
618.811	20634.65
619.006	21109.78
619.201	20747.29
619.396	20896.79
619.591	20413.47
619.786	20644.89
619.981	20372.51
620.176	20562.97
620.371	20077.6
620.566	20325.41
620.761	19881
620.956	20470.81
621.151	20075.56
621.346	20300.83
621.541	19682.35
621.735	19692.58
621.93	19538.99
622.125	19336.24
622.32	19092.53
622.515	19553.32
622.709	19293.23
622.904	19420.21
623.099	19199.02
623.294	18854.97
623.488	18547.77
623.683	18850.87
623.878	18324.54
624.072	18449.47
624.267	18570.3
624.462	18580.54
624.656	18375.74
624.851	18240.58
625.046	18287.68
625.24	17851.46
625.435	18060.35
625.629	17566.79
625.824	17663.05
626.018	17452.11
626.213	17409.1
626.407	17450.06
626.602	17028.18
626.796	17183.82
626.991	17048.66
627.185	16829.52
627.38	16784.47
627.574	16870.48
627.768	16737.37
627.963	16800.85
628.157	16432.22
628.352	16374.88
628.546	16288.86
628.74	16448.6
628.935	16094.3
629.129	16239.71
629.323	15883.36
629.517	16135.26
629.712	15950.95
629.906	15713.38
630.1	15715.43
630.294	15606.89
630.489	15473.77
630.683	15543.4
630.877	15400.04
631.071	15203.44
631.265	15254.64
631.459	15033.46
631.653	14949.49
631.848	15076.46
632.042	14777.46
632.236	15041.65
632.43	14785.65
632.624	14869.62
632.818	14546.04
633.012	14507.13
633.206	14392.44
633.4	14421.11
633.594	14242.94
633.788	14253.18
633.982	14122.11
634.176	14189.69
634.369	14027.9
634.563	13950.08
634.757	13945.98
634.951	13814.91
635.145	13767.81
635.339	13741.19
635.533	13755.52
635.726	13458.57
635.92	13489.29
636.114	13481.1
636.308	13280.39
636.501	13460.62
636.695	13372.55
636.889	13048.97
637.083	13169.8
637.276	13120.65
637.47	13022.35
637.664	12977.3
637.857	12534.93
638.051	12774.55
638.244	12852.37
638.438	12635.28
638.632	12475.54
638.825	12536.98
639.019	12299.42
639.212	12246.17
639.406	12223.64
639.599	12381.34
639.793	12147.87
639.986	12008.61
640.18	11965.6
640.373	12072.09
640.567	11801.76
640.76	11771.04
640.954	11648.16
641.147	11670.69
641.34	11379.88
641.534	11572.39
641.727	11365.54
641.92	11447.46
642.114	11312.3
642.307	11240.62
642.5	11338.92
642.694	10894.51
642.887	10984.62
643.08	11197.61
643.273	10992.81
643.467	10933.42
643.66	10822.83
643.853	10874.03
644.046	10716.34
644.239	10697.91
644.432	10484.92
644.626	10278.07
644.819	10454.2
645.012	10550.45
645.205	10347.7
645.398	10292.41
645.591	10349.75
645.784	10157.24
645.977	10181.82
646.17	10108.09
646.363	10001.6
646.556	9764.03
646.749	10075.32
646.942	9899.2
647.135	9698.5
647.328	9755.84
647.521	9661.63
647.714	9563.33
647.907	9581.76
648.099	9612.48
648.292	9653.44
648.485	9473.22
648.678	9264.33
648.871	9295.05
649.064	9284.81
649.256	9053.39
649.449	9149.64
649.642	9108.68
649.835	9127.11
650.027	9043.15
650.22	8991.95
650.413	8957.13
650.605	8805.58
650.798	8805.58
650.991	8748.24
651.183	8799.44
651.376	8776.91
651.568	8600.79
651.761	8551.63
651.954	8600.79
652.146	8436.95
652.339	8590.55
652.531	8367.32
652.724	8488.15
652.916	8105.18
653.109	8293.59
653.301	8277.21
653.494	8256.73
653.686	8193.24
653.879	8125.66
654.071	7949.53
654.263	7849.18
654.456	8053.98
654.648	7916.76
654.84	7761.12
655.033	7990.49
655.225	7920.86
655.417	7705.82
655.61	7865.57
655.802	7795.93
655.994	7711.97
656.186	7589.09
656.379	7474.4
656.571	7668.96
656.763	7531.75
656.955	7343.33
657.148	7439.59
657.34	7406.82
657.532	7103.72
657.724	7191.78
657.916	7144.68
658.108	7226.6
658.3	7191.78
658.492	7134.44
658.684	7138.54
658.876	7070.95
659.068	6900.97
659.26	6900.97
659.452	7118.06
659.644	6956.27
659.836	6817.01
660.028	6986.99
660.22	6774
660.412	6798.57
660.604	6757.61
660.796	6671.6
660.988	6702.32
661.18	6575.35
661.372	6565.11
661.563	6712.56
661.755	6470.9
661.947	6485.23
662.139	6425.84
662.331	6382.84
662.522	6364.4
662.714	6368.5
662.906	6366.45
663.097	6401.27
663.289	6274.29
663.481	6247.67
663.673	6194.42
663.864	6110.46
664.056	6237.43
664.247	6237.43
664.439	5930.23
664.631	6114.55
664.822	5932.28
665.014	6022.39
665.205	6079.74
665.397	6010.11
665.588	5981.43
665.78	5739.77
665.971	5817.6
666.163	5750.01
666.354	5733.63
666.546	5684.48
666.737	5717.25
666.929	5637.38
667.12	5631.23
667.311	5659.9
667.503	5528.83
667.694	5653.76
667.885	5571.84
668.077	5590.27
668.268	5496.07
668.459	5496.07
668.651	5250.31
668.842	5438.72
669.033	5358.85
669.224	5276.93
669.416	5422.34
669.607	5225.73
669.798	5152.01
669.989	5487.87
670.18	5061.9
670.371	5205.25
670.563	5276.93
670.754	5188.87
670.945	5061.9
671.136	5092.62
671.327	5006.6
671.518	5031.18
671.709	5152.01
671.9	5080.33
672.091	5029.13
672.282	5037.32
672.473	4889.87
672.664	4973.83
672.855	4912.39
673.046	4998.41
673.237	5020.94
673.428	4797.71
673.619	4963.59
673.809	4793.61
674	4832.52
674.191	4812.04
674.382	4816.14
674.573	4836.62
674.764	4740.37
674.954	4685.07
675.145	4734.22
675.336	4537.62
675.527	4662.54
675.717	4586.77
675.908	4599.06
676.099	4603.15
676.289	4680.97
676.48	4519.18
676.671	4463.89
676.861	4484.37
677.052	4447.51
677.243	4390.16
677.433	4498.7
677.624	4519.18
677.814	4394.26
678.005	4465.94
678.195	4510.99
678.386	4504.85
678.576	4349.2
678.767	4443.41
678.957	4361.49
679.148	4351.25
679.338	4416.79
679.529	4517.14
679.719	4326.68
679.909	4345.11
680.1	4318.48
680.29	4164.89
680.481	4422.93
680.671	4304.15
680.861	4125.97
681.052	4257.04
681.242	4255
681.432	4218.13
681.622	4066.58
681.813	4181.27
682.003	4103.45
682.193	4148.5
682.383	4238.61
682.573	4175.13
682.764	4138.26
682.954	4162.84
683.144	4060.44
683.334	4111.64
683.524	4056.34
683.714	4136.21
683.904	3980.57
684.094	4078.87
684.284	4193.56
684.474	4113.69
684.664	3972.38
684.854	4109.59
685.044	3915.03
685.234	3939.61
685.424	4025.62
685.614	3941.66
685.804	3894.55
685.994	4029.72
686.184	3931.42
686.374	3829.02
686.564	3966.23
686.753	3845.4
686.943	3763.48
687.133	3929.37
687.323	3859.74
687.513	3849.5
687.702	3814.68
687.892	3669.28
688.082	3704.09
688.272	3689.76
688.461	3726.62
688.651	3919.13
688.841	3724.57
689.03	3654.94
689.22	3564.83
689.41	3728.67
689.599	3583.26
689.789	3661.09
689.979	3702.04
690.168	3675.42
690.358	3648.8
690.547	3581.21
690.737	3693.85
690.926	3546.4
691.116	3575.07
691.305	3656.99
691.495	3720.48
691.684	3661.09
691.874	3525.92
692.063	3448.1
692.252	3659.04
692.442	3530.02
692.631	3403.04
692.82	3575.07
693.01	3425.57
693.199	3448.1
693.388	3450.14
693.578	3398.95
693.767	3513.63
693.956	3509.54
694.146	3460.38
694.335	3450.14
694.524	3329.31
694.713	3407.14
694.902	3382.56
695.092	3386.66
695.281	3345.7
695.47	3384.61
695.659	3343.65
695.848	3306.79
696.037	3448.1
696.226	3452.19
696.415	3355.94
696.604	3398.95
696.793	3368.23
696.982	3464.48
697.171	3308.83
697.36	3302.69
697.549	3284.26
697.738	3355.94
697.927	3294.5
698.116	3431.71
698.305	3267.88
698.494	3362.08
698.683	3386.66
698.872	3466.53
699.061	3360.03
699.25	3349.79
699.438	3239.2
699.627	3382.56
699.816	3353.89
700.005	3243.3
700.193	3237.16
700.382	3269.92
700.571	3368.23
700.76	3216.68
700.948	3278.12
701.137	3226.92
701.326	3198.24
701.514	3161.38
701.703	3214.63
701.892	3214.63
702.08	3153.19
702.269	3366.18
702.457	3089.7
702.646	3163.43
702.834	3134.76
703.023	3194.15
703.212	3097.89
703.4	3114.28
703.589	3237.16
703.777	3222.82
703.965	3095.85
704.154	3212.58
704.342	3015.98
704.531	3036.46
704.719	3056.93
704.907	3112.23
705.096	3104.04
705.284	3097.89
705.472	3044.65
705.661	3136.81
705.849	3253.54
706.037	3126.57
706.226	3122.47
706.414	3024.17
706.602	3083.56
706.79	3237.16
706.979	3038.5
707.167	2987.3
707.355	3005.74
707.543	3007.78
707.731	3054.89
707.919	3015.98
708.107	3071.27
708.296	3013.93
708.484	2972.97
708.672	2970.92
708.86	3022.12
709.048	3054.89
709.236	2932.01
709.424	3065.13
709.612	2882.86
709.8	2934.06
709.988	2958.63
710.176	3018.02
710.364	2905.39
710.551	2917.67
710.739	2960.68
710.927	2884.91
711.115	2942.25
711.303	2977.06
711.491	2784.55
711.679	2817.32
711.866	2874.67
712.054	2850.09
712.242	2786.6
712.43	2893.1
712.617	2792.75
712.805	2852.14
712.993	2792.75
713.181	2843.95
713.368	2903.34
713.556	2809.13
713.744	2784.55
713.931	2876.71
714.119	2688.3
714.306	2827.56
714.494	2798.89
714.682	2858.28
714.869	2800.94
715.057	2743.6
715.244	2729.26
715.432	2698.54
715.619	2653.48
715.807	2577.71
715.994	2678.06
716.182	2759.98
716.369	2710.83
716.556	2739.5
716.744	2630.96
716.931	2624.81
717.119	2714.92
717.306	2649.39
717.493	2686.25
717.681	2686.25
717.868	2559.28
718.055	2653.48
718.242	2653.48
718.43	2657.58
718.617	2477.36
718.804	2581.81
718.991	2665.77
719.179	2600.24
719.366	2628.91
719.553	2622.77
719.74	2438.45
719.927	2598.19
720.114	2473.26
720.301	2477.36
720.488	2483.5
720.676	2503.98
720.863	2497.84
721.05	2493.74
721.237	2557.23
721.424	2571.57
721.611	2551.09
721.798	2364.72
721.985	2415.92
722.172	2444.59
722.358	2430.26
722.545	2565.42
722.732	2477.36
722.919	2444.59
723.106	2442.54
723.293	2338.1
723.48	2309.43
723.667	2440.5
723.853	2350.39
724.04	2460.98
724.227	2432.3
724.414	2407.73
724.6	2422.06
724.787	2522.41
724.974	2366.77
725.161	2329.91
725.347	2301.23
725.534	2409.78
725.72	2450.74
725.907	2442.54
726.094	2393.39
726.28	2428.21
726.467	2303.28
726.653	2149.68
726.84	2317.62
727.027	2278.71
727.213	2190.64
727.4	2319.67
727.586	2342.19
727.773	2327.86
727.959	2358.58
728.145	2231.6
728.332	2250.03
728.518	2327.86
728.705	2252.08
728.891	2276.66
729.077	2254.13
729.264	2121.01
729.45	2295.09
729.636	2182.45
729.823	2164.02
730.009	2268.47
730.195	2221.36
730.382	2225.46
730.568	2145.59
730.754	2192.69
730.94	2188.6
731.126	2305.33
731.313	2198.84
731.499	2035
731.685	2196.79
731.871	2252.08
732.057	2153.78
732.243	2229.56
732.429	2204.98
732.615	2090.29
732.801	2290.99
732.987	2104.63
733.173	2051.38
733.359	2096.44
733.545	2041.14
733.731	2104.63
733.917	2096.44
734.103	2178.36
734.289	2114.87
734.475	2094.39
734.661	2196.79
734.847	2104.63
735.033	2209.08
735.219	2071.86
735.404	1965.37
735.59	2022.71
735.776	2037.05
735.962	1983.8
736.148	2022.71
736.333	2141.49
736.519	1932.6
736.705	2006.33
736.89	2039.09
737.076	2049.33
737.262	1979.7
737.447	1967.42
737.633	1948.98
737.819	1957.18
738.004	2030.9
738.19	2032.95
738.375	1891.64
738.561	2000.18
738.747	1973.56
738.932	1760.57
739.118	1908.02
739.303	1965.37
739.489	1928.5
739.674	1871.16
739.859	1819.96
740.045	1910.07
740.23	1850.68
740.416	1854.78
740.601	1940.79
740.786	1836.35
740.972	1817.91
741.157	1946.94
741.342	1869.11
741.528	1934.65
741.713	1817.91
741.898	1891.64
742.084	1760.57
742.269	1799.48
742.454	1789.24
742.639	1867.06
742.824	1735.99
743.01	1955.13
743.195	1817.91
743.38	1760.57
743.565	1764.67
743.75	1764.67
743.935	1654.08
744.12	1822.01
744.305	1727.8
744.49	1656.12
744.675	1604.92
744.86	1656.12
745.045	1826.11
745.23	1690.94
745.415	1680.7
745.6	1654.08
745.785	1541.44
745.97	1594.69
746.155	1617.21
746.34	1576.25
746.525	1563.97
746.71	1527.1
746.895	1451.33
747.079	1549.63
747.264	1451.33
747.449	1537.34
747.634	1652.03
747.819	1623.36
748.003	1547.58
748.188	1557.82
748.373	1418.56
748.557	1457.47
748.742	1529.15
748.927	1484.09
749.111	1398.08
749.296	1459.52
749.481	1467.71
749.665	1508.67
749.85	1385.79
750.034	1400.13
750.219	1348.93
750.404	1332.55
750.588	1506.62
750.773	1318.21
750.957	1303.87
751.141	1428.8
751.326	1361.22
751.51	1334.59
751.695	1326.4
751.879	1367.36
752.064	1344.83
752.248	1267.01
752.432	1326.4
752.617	1303.87
752.801	1420.61
752.985	1287.49
753.17	1293.63
753.354	1195.33
753.538	1254.72
753.722	1197.38
753.907	1203.52
754.091	1256.77
754.275	1228.1
754.459	1146.18
754.643	1250.63
754.828	1248.58
755.012	1187.14
755.196	1158.47
755.38	1086.79
755.564	1195.33
755.748	1240.39
755.932	1113.41
756.116	1068.36
756.3	1187.14
756.484	1013.06
756.668	1068.36
756.852	1006.92
757.036	1047.88
757.22	1015.11
757.404	1035.59
757.588	1080.64
757.772	1039.69
757.956	1064.26
758.14	1031.49
758.323	1031.49
758.507	1041.73
758.691	1033.54
758.875	1039.69
759.059	1113.41
759.242	1064.26
759.426	959.81
759.61	910.66
759.794	1023.3
759.977	916.81
760.161	1015.11
760.345	957.77
760.528	1101.12
760.712	920.9
760.895	929.1
761.079	965.96
761.263	986.44
761.446	904.52
761.63	812.36
761.813	918.86
761.997	845.13
762.18	937.29
762.364	953.67
762.547	877.9
762.731	935.24
762.914	857.42
763.098	970.05
763.281	877.9
763.464	828.74
763.648	935.24
763.831	838.98
764.015	881.99
764.198	912.71
764.381	841.03
764.564	910.66
764.748	935.24
764.931	892.23
765.114	775.5
765.297	994.63
765.481	771.4
765.664	834.89
765.847	838.98
766.03	929.1
766.213	834.89
766.397	843.08
766.58	845.13
766.763	752.97
766.946	785.74
767.129	763.21
767.312	757.07
767.495	699.72
767.678	812.36
767.861	734.54
768.044	789.83
768.227	804.17
768.41	781.64
768.593	777.55
768.776	847.18
768.959	789.83
769.142	781.64
769.324	720.2
769.507	740.68
769.69	769.35
769.873	761.16
770.056	828.74
770.239	707.91
770.421	703.82
770.604	712.01
770.787	769.35
770.97	691.53
771.152	654.67
771.335	761.16
771.518	666.96
771.7	746.83
771.883	744.78
772.066	654.67
772.248	683.34
772.431	611.66
772.613	744.78
772.796	744.78
772.978	695.63
773.161	675.15
773.343	685.39
773.526	654.67
773.708	683.34
773.891	605.52
774.073	703.82
774.256	535.89
774.438	675.15
774.621	564.56
774.803	544.08
774.985	638.28
775.168	722.25
775.35	697.67
775.532	601.42
775.715	591.18
775.897	654.67
776.079	621.9
776.261	687.43
776.444	640.33
776.626	716.11
776.808	570.7
776.99	660.81
777.173	615.76
777.355	595.28
777.537	593.23
777.719	613.71
777.901	533.84
778.083	517.45
778.265	539.98
778.447	572.75
778.629	558.41
778.811	564.56
778.993	609.61
779.175	572.75
779.357	634.19
779.539	562.51
779.721	523.6
779.903	494.93
780.085	564.56
780.267	548.17
780.449	523.6
780.631	548.17
780.812	533.84
780.994	468.3
781.176	443.73
781.358	585.04
781.54	435.53
781.721	484.69
781.903	494.93
782.085	488.78
782.267	449.87
782.448	484.69
782.63	404.82
782.812	449.87
782.993	490.83
783.175	441.68
783.357	474.45
783.538	449.87
783.72	388.43
783.901	400.72
784.083	429.39
784.264	474.45
784.446	324.94
784.627	378.19
784.809	529.74
784.99	396.62
785.172	441.68
785.353	445.77
785.535	406.86
785.716	324.94
785.897	419.15
786.079	394.58
786.26	378.19
786.441	435.53
786.623	324.94
786.804	390.48
786.985	300.37
787.167	433.49
787.348	400.72
787.529	329.04
787.71	408.91
787.891	396.62
788.073	294.22
788.254	392.53
788.435	335.18
788.616	345.42
788.797	283.99
788.978	376.14
789.159	353.62
789.34	335.18
789.522	417.1
789.703	345.42
789.884	320.85
790.065	335.18
790.246	310.61
790.427	335.18
790.607	290.13
790.788	331.09
790.969	240.98
791.15	386.38
791.331	347.47
791.512	363.86
791.693	310.61
791.874	355.66
792.054	425.29
792.235	294.22
792.416	341.33
792.597	234.83
792.778	314.7
792.958	261.46
793.139	310.61
793.32	251.22
793.5	267.6
793.681	396.62
793.862	310.61
794.042	306.51
794.223	236.88
794.404	157.01
794.584	259.41
794.765	288.08
794.945	214.35
795.126	304.46
795.306	263.51
795.487	261.46
795.667	243.03
795.848	388.43
796.028	261.46
796.209	279.89
796.389	300.37
796.57	212.31
796.75	191.83
796.93	253.27
797.111	269.65
797.291	302.42
797.471	238.93
797.652	224.59
797.832	181.59
798.012	247.12
798.192	232.79
798.373	204.11
798.553	187.73
798.733	249.17
798.913	228.69
799.093	212.31
799.274	267.6
799.454	304.46
799.634	245.07
799.814	312.66
799.994	253.27
800.174	253.27
800.354	187.73
800.534	140.63
800.714	236.88
800.894	142.68
801.074	150.87
801.254	232.79
801.434	187.73
801.614	163.15
801.794	255.31
801.974	769.35
802.154	265.55
802.334	171.35
802.514	179.54
802.693	175.44
802.873	267.6
803.053	181.59
803.233	179.54
803.413	206.16
803.592	159.06
803.772	89.43
803.952	220.5
804.131	173.39
804.311	189.78
804.491	279.89
804.67	181.59
804.85	189.78
805.03	206.16
805.209	191.83
805.389	165.2
805.568	161.11
805.748	173.39
805.928	204.11
806.107	124.24
806.287	191.83
806.466	150.87
806.646	191.83
806.825	216.4
807.004	148.82
807.184	146.77
807.363	171.35
807.543	140.63
807.722	146.77
807.901	232.79
808.081	138.58
808.26	128.34
808.439	171.35
808.619	206.16
808.798	136.53
808.977	138.58
809.156	189.78
809.336	171.35
809.515	214.35
809.694	44.37
809.873	165.2
810.052	179.54
810.231	204.11
810.411	204.11
810.59	179.54
810.769	128.34
810.948	187.73
811.127	114
811.306	138.58
811.485	181.59
811.664	247.12
811.843	132.44
812.022	118.1
812.201	240.98
812.38	195.92
812.559	105.81
812.737	146.77
812.916	97.62
813.095	132.44
813.274	118.1
813.453	154.96
813.632	148.82
813.811	163.15
813.989	169.3
814.168	181.59
814.347	93.52
814.526	169.3
814.704	173.39
814.883	99.67
815.062	157.01
815.24	138.58
815.419	89.43
815.598	167.25
815.776	173.39
815.955	202.07
816.133	23.89
816.312	105.81
816.49	197.97
816.669	132.44
816.847	154.96
817.026	171.35
817.204	167.25
817.383	97.62
817.561	122.2
817.74	116.05
817.918	52.56
818.097	122.2
818.275	140.63
818.453	114
818.632	105.81
818.81	132.44
818.988	89.43
819.167	148.82
819.345	130.39
819.523	105.81
819.701	118.1
819.879	107.86
820.058	91.48
820.236	89.43
820.414	107.86
820.592	40.28
820.77	95.57
820.948	93.52
821.127	97.62
821.305	118.1
821.483	107.86
821.661	126.29
821.839	124.24
822.017	99.67
822.195	97.62
822.373	73.04
822.551	34.13
822.729	97.62
822.907	40.28
823.085	187.73
823.262	105.81
823.44	134.48
823.618	89.43
823.796	136.53
823.974	85.33
824.152	56.66
824.329	64.85
824.507	105.81
824.685	130.39
824.863	206.16
825.04	95.57
825.218	73.04
825.396	93.52
825.574	114
825.751	103.76
825.929	58.71
826.107	71
826.284	66.9
826.462	66.9
826.639	23.89
826.817	73.04
826.994	87.38
827.172	30.04
827.349	132.44
827.527	48.47
827.704	50.52
827.882	64.85
828.059	99.67
828.237	56.66
828.414	146.77
828.591	83.28
828.769	75.09
828.946	40.28
829.124	154.96
829.301	60.76
829.478	50.52
829.655	91.48
829.833	40.28
830.01	38.23
830.187	81.24
830.364	42.32
830.542	77.14
830.719	130.39
830.896	21.85
831.073	81.24
831.25	50.52
831.427	107.86
831.604	99.67
831.782	-35.5
831.959	32.08
832.136	83.28
832.313	116.05
832.49	64.85
832.667	89.43
832.844	46.42
833.021	116.05
833.198	81.24
833.374	60.76
833.551	126.29
833.728	-27.31
833.905	36.18
834.082	34.13
834.259	19.8
834.436	68.95
834.612	52.56
834.789	7.51
834.966	62.8
835.143	83.28
835.319	75.09
835.496	111.96
835.673	91.48
835.85	122.2
836.026	34.13
836.203	138.58
836.38	56.66
836.556	48.47
836.733	52.56
836.909	136.53
837.086	9.56
837.262	23.89
837.439	32.08
837.616	-10.92
837.792	107.86
837.968	79.19
838.145	25.94
838.321	3.41
838.498	89.43
838.674	93.52
838.851	25.94
839.027	32.08
839.203	50.52
839.38	19.8
839.556	1.37
839.732	32.08
839.909	99.67
840.085	101.72
840.261	54.61
840.437	-0.68
840.614	42.32
840.79	138.58
840.966	11.61
841.142	56.66
841.318	32.08
841.494	148.82
841.671	83.28
841.847	52.56
842.023	56.66
842.199	89.43
842.375	40.28
842.551	25.94
842.727	30.04
842.903	97.62
843.079	27.99
843.255	44.37
843.431	56.66
843.607	91.48
843.783	-37.55
843.959	52.56
844.134	140.63
844.31	97.62
844.486	46.42
844.662	19.8
844.838	-15.02
845.013	105.81
845.189	-31.4
845.365	15.7
845.541	-8.87
845.716	50.52
845.892	40.28
846.068	103.76
846.244	64.85
846.419	95.57
846.595	23.89
846.77	93.52
846.946	-6.83
847.122	73.04
847.297	7.51
847.473	99.67
847.648	-17.07
847.824	52.56
847.999	23.89
848.175	-8.87
848.35	105.81
848.526	73.04
848.701	32.08
848.876	17.75
849.052	52.56
849.227	15.7
849.403	7.51
849.578	77.14
849.753	32.08
849.929	64.85
850.104	50.52
850.279	50.52
850.454	73.04
850.63	77.14
850.805	64.85
850.98	15.7
851.155	56.66
851.33	73.04
851.505	-0.68
851.681	85.33
851.856	44.37
852.031	52.56
852.206	73.04
852.381	50.52
852.556	-8.87
852.731	36.18
852.906	25.94
853.081	7.51
853.256	48.47
853.431	83.28
853.606	54.61
853.781	71
853.956	36.18
854.131	21.85
854.305	-72.36
854.48	48.47
854.655	97.62
854.83	-29.35
855.005	62.8
855.18	40.28
855.354	7.51
855.529	56.66
855.704	73.04
855.879	97.62
856.053	52.56
856.228	50.52
856.403	-29.35
856.577	42.32
856.752	-17.07
856.926	50.52
857.101	105.81
857.276	-15.02
857.45	5.46
857.625	71
857.799	48.47
857.974	64.85
858.148	-109.22
858.323	73.04
858.497	17.75
858.672	62.8
858.846	-33.45
859.02	68.95
859.195	-49.83
859.369	7.51
859.543	-2.73
859.718	44.37
859.892	36.18
860.066	58.71
860.241	89.43
860.415	58.71
860.589	68.95
860.763	5.46
860.938	25.94
861.112	36.18
861.286	25.94
861.46	64.85
861.634	15.7
861.808	89.43
861.982	-29.35
862.157	-53.93
862.331	15.7
862.505	64.85
862.679	-49.83
862.853	-23.21
863.027	-45.74
863.201	73.04
863.375	9.56
863.549	32.08
863.722	64.85
863.896	17.75
864.07	7.51
864.244	-17.07
864.418	23.89
864.592	93.52
864.766	23.89
864.939	21.85
865.113	-58.03
865.287	68.95
865.461	23.89
865.634	-0.68
865.808	48.47
865.982	81.24
866.156	5.46
866.329	40.28
866.503	48.47
866.676	64.85
866.85	-6.83
867.024	-17.07
867.197	81.24
867.371	7.51
867.544	-12.97
867.718	1.37
867.891	68.95
868.065	9.56
868.238	48.47
868.412	-4.78
868.585	56.66
868.759	34.13
868.932	54.61
869.105	-8.87
869.279	34.13
869.452	32.08
869.625	-8.87
869.799	-12.97
869.972	-10.92
870.145	-6.83
870.319	21.85
870.492	56.66
870.665	11.61
870.838	23.89
871.011	-45.74
871.185	-55.98
871.358	58.71
871.531	7.51
871.704	17.75
871.877	56.66
872.05	-19.11
872.223	17.75
872.396	-29.35
872.569	58.71
872.742	52.56
872.915	9.56
873.088	25.94
873.261	-27.31
873.434	-70.31
873.607	23.89
873.78	3.41
873.953	-47.79
874.126	-27.31
874.299	-8.87
874.471	15.7
874.644	56.66
874.817	-4.78
874.99	42.32
875.163	64.85
875.335	66.9
875.508	95.57
875.681	32.08
875.853	7.51
876.026	21.85
876.199	54.61
876.371	23.89
876.544	30.04
876.717	-37.55
876.889	-23.21
877.062	77.14
877.234	-41.64
877.407	-49.83
877.579	52.56
877.752	-39.59
877.924	54.61
878.097	42.32
878.269	56.66
878.442	1.37
878.614	58.71
878.786	-47.79
878.959	3.41
879.131	75.09
879.303	-8.87
879.476	-55.98
879.648	-25.26
879.82	71
879.993	23.89
880.165	23.89
880.337	-58.03
880.509	114
880.681	-4.78
880.854	60.76
881.026	36.18
881.198	140.63
881.37	19.8
881.542	40.28
881.714	15.7
881.886	19.8
882.058	-23.21
882.23	7.51
882.402	1.37
882.574	15.7
882.746	107.86
882.918	89.43
883.09	9.56
883.262	50.52
883.434	30.04
883.606	-4.78
883.778	-8.87
883.95	50.52
884.122	15.7
884.293	-8.87
884.465	7.51
884.637	42.32
884.809	25.94
884.98	27.99
885.152	-6.83
885.324	30.04
885.496	68.95
885.667	48.47
885.839	-33.45
886.011	-12.97
886.182	32.08
886.354	3.41
886.525	-12.97
886.697	11.61
886.869	-29.35
887.04	77.14
887.212	62.8
887.383	54.61
887.555	27.99
887.726	-55.98
887.897	-15.02
888.069	58.71
888.24	48.47
888.412	56.66
888.583	9.56
888.754	23.89
888.926	-33.45
889.097	-29.35
889.268	-0.68
889.44	7.51
889.611	-45.74
889.782	-15.02
889.953	-39.59
890.125	60.76
890.296	-15.02
890.467	-0.68
890.638	-43.69
890.809	25.94
890.98	19.8
891.151	9.56
891.323	32.08
891.494	-6.83
891.665	44.37
891.836	17.75
892.007	-0.68
892.178	-31.4
892.349	-6.83
892.52	3.41
892.691	-33.45
892.862	34.13
893.032	7.51
893.203	48.47
893.374	40.28
893.545	44.37
893.716	7.51
893.887	48.47
894.057	-4.78
894.228	-6.83
894.399	11.61
894.57	13.65
894.74	32.08
894.911	-8.87
895.082	40.28
895.253	-15.02
895.423	27.99
895.594	-37.55
895.764	52.56
895.935	40.28
896.106	27.99
896.276	15.7
896.447	7.51
896.617	-49.83
896.788	-21.16
896.958	-0.68
897.129	-17.07
897.299	32.08
897.47	50.52
897.64	17.75
897.81	52.56
897.981	-45.74
898.151	-0.68
898.322	71
898.492	-23.21
898.662	48.47
898.832	3.41
899.003	32.08
899.173	5.46
899.343	32.08
899.513	-17.07
