Data from USB4F104151__240__14-22-16-588.txt Node

Date: Thu Mar 13 14:22:16 EDT 2025
User: louis
Spectrometer: USB4F10415
Trigger mode: 4
Integration Time (sec): 2.000000E-2
Scans to average: 1
Electric dark correction enabled: true
Nonlinearity correction enabled: false
Boxcar width: 0
XAxis mode: Wavelengths
Number of Pixels in Spectrum: 3648
>>>>>Begin Spectral Data<<<<<
178.204	-111.78
178.424	-111.78
178.644	-111.78
178.864	-158.89
179.084	-177.32
179.304	-48.3
179.524	11.09
179.744	9.05
179.964	25.43
180.184	2.9
180.404	25.43
180.624	-3.24
180.844	11.09
181.064	-52.39
181.283	27.48
181.503	-40.11
181.723	31.57
181.943	-74.92
182.163	43.86
182.383	-13.48
182.602	-40.11
182.822	66.39
183.042	2.9
183.262	19.29
183.482	21.33
183.701	21.33
183.921	41.81
184.141	-38.06
184.361	9.05
184.58	-31.91
184.8	19.29
185.02	50
185.239	84.82
185.459	-7.34
185.679	41.81
185.898	0.85
186.118	-23.72
186.338	17.24
186.557	41.81
186.777	-19.63
186.997	25.43
187.216	19.29
187.436	144.21
187.655	-1.19
187.875	-72.87
188.095	-13.48
188.314	37.72
188.534	119.64
188.753	-5.29
188.973	-60.59
189.192	17.24
189.412	19.29
189.631	23.38
189.851	7
190.07	41.81
190.29	-115.88
190.509	29.52
190.729	-48.3
190.948	123.73
191.168	90.96
191.387	107.35
191.607	-7.34
191.826	27.48
192.045	-38.06
192.265	-29.87
192.484	2.9
192.704	25.43
192.923	-56.49
193.142	-7.34
193.362	41.81
193.581	60.24
193.8	-40.11
194.02	68.44
194.239	-36.01
194.458	2.9
194.678	-21.67
194.897	52.05
195.116	-15.53
195.335	-62.63
195.555	-15.53
195.774	-29.87
195.993	17.24
196.212	84.82
196.432	-62.63
196.651	25.43
196.87	17.24
197.089	88.92
197.308	43.86
197.528	0.85
197.747	-56.49
197.966	-27.82
198.185	15.19
198.404	45.91
198.623	9.05
198.842	41.81
199.062	25.43
199.281	33.62
199.5	0.85
199.719	37.72
199.938	-54.44
200.157	41.81
200.376	-48.3
200.595	60.24
200.814	-15.53
201.033	-9.39
201.252	45.91
201.471	-11.43
201.69	86.87
201.909	4.95
202.128	-52.39
202.347	13.14
202.566	15.19
202.785	0.85
203.004	-17.58
203.223	39.76
203.442	-42.15
203.661	-48.3
203.879	-42.15
204.098	23.38
204.317	-54.44
204.536	66.39
204.755	-15.53
204.974	17.24
205.193	-40.11
205.411	82.77
205.63	-7.34
205.849	-31.91
206.068	0.85
206.287	23.38
206.505	-5.29
206.724	9.05
206.943	-87.21
207.162	-3.24
207.381	45.91
207.599	-5.29
207.818	13.14
208.037	-62.63
208.255	-31.91
208.474	-40.11
208.693	19.29
208.911	-5.29
209.13	58.2
209.349	-56.49
209.567	-31.91
209.786	27.48
210.005	-36.01
210.223	0.85
210.442	-54.44
210.661	-5.29
210.879	9.05
211.098	-52.39
211.316	97.11
211.535	2.9
211.753	-54.44
211.972	31.57
212.191	-76.97
212.409	-23.72
212.628	66.39
212.846	41.81
213.065	78.68
213.283	33.62
213.502	9.05
213.72	-27.82
213.938	-54.44
214.157	-36.01
214.375	-44.2
214.594	-56.49
214.812	62.29
215.031	-9.39
215.249	17.24
215.467	-1.19
215.686	25.43
215.904	-25.77
216.122	27.48
216.341	0.85
216.559	27.48
216.778	27.48
216.996	60.24
217.214	43.86
217.432	11.09
217.651	-38.06
217.869	29.52
218.087	-23.72
218.306	-7.34
218.524	-79.02
218.742	-19.63
218.96	62.29
219.179	45.91
219.397	45.91
219.615	33.62
219.833	50
220.051	-29.87
220.27	50
220.488	19.29
220.706	-15.53
220.924	-19.63
221.142	13.14
221.36	-52.39
221.578	-21.67
221.796	-27.82
222.015	2.9
222.233	11.09
222.451	50
222.669	-64.68
222.887	115.54
223.105	-56.49
223.323	43.86
223.541	-70.83
223.759	66.39
223.977	25.43
224.195	107.35
224.413	-9.39
224.631	37.72
224.849	13.14
225.067	31.57
225.285	9.05
225.503	-15.53
225.721	-60.59
225.939	9.05
226.157	111.44
226.375	101.2
226.592	-68.78
226.81	-15.53
227.028	-11.43
227.246	74.58
227.464	11.09
227.682	4.95
227.9	-11.43
228.117	70.48
228.335	-21.67
228.553	39.76
228.771	-7.34
228.989	0.85
229.206	11.09
229.424	4.95
229.642	11.09
229.86	33.62
230.077	-7.34
230.295	-7.34
230.513	23.38
230.731	-48.3
230.948	9.05
231.166	29.52
231.384	-23.72
231.601	-21.67
231.819	-7.34
232.037	9.05
232.254	35.67
232.472	-44.2
232.689	17.24
232.907	37.72
233.125	-29.87
233.342	41.81
233.56	50
233.777	60.24
233.995	-23.72
234.213	70.48
234.43	25.43
234.648	66.39
234.865	-25.77
235.083	17.24
235.3	-31.91
235.518	21.33
235.735	74.58
235.953	23.38
236.17	13.14
236.388	33.62
236.605	11.09
236.822	50
237.04	-1.19
237.257	-87.21
237.475	31.57
237.692	33.62
237.909	-21.67
238.127	17.24
238.344	17.24
238.562	15.19
238.779	-15.53
238.996	-44.2
239.214	-3.24
239.431	25.43
239.648	15.19
239.865	109.4
240.083	-1.19
240.3	41.81
240.517	-27.82
240.735	-13.48
240.952	13.14
241.169	17.24
241.386	17.24
241.603	-1.19
241.821	52.05
242.038	88.92
242.255	9.05
242.472	-9.39
242.689	4.95
242.907	15.19
243.124	84.82
243.341	-21.67
243.558	68.44
243.775	-54.44
243.992	-62.63
244.209	52.05
244.426	125.78
244.643	25.43
244.86	50
245.078	-11.43
245.295	35.67
245.512	50
245.729	-50.35
245.946	74.58
246.163	50
246.38	2.9
246.597	54.1
246.814	-5.29
247.031	54.1
247.248	-15.53
247.464	25.43
247.681	9.05
247.898	-5.29
248.115	33.62
248.332	-9.39
248.549	68.44
248.766	119.64
248.983	25.43
249.2	23.38
249.417	-56.49
249.633	33.62
249.85	52.05
250.067	-29.87
250.284	13.14
250.501	21.33
250.717	-76.97
250.934	7
251.151	60.24
251.368	-5.29
251.585	13.14
251.801	-40.11
252.018	0.85
252.235	68.44
252.451	-44.2
252.668	-23.72
252.885	4.95
253.102	2.9
253.318	50
253.535	-23.72
253.752	17.24
253.968	-7.34
254.185	-31.91
254.401	-56.49
254.618	27.48
254.835	-15.53
255.051	25.43
255.268	-15.53
255.484	-5.29
255.701	-3.24
255.917	7
256.134	-15.53
256.351	119.64
256.567	-54.44
256.784	74.58
257	-64.68
257.217	9.05
257.433	-21.67
257.65	-7.34
257.866	4.95
258.082	-13.48
258.299	68.44
258.515	41.81
258.732	-60.59
258.948	-27.82
259.165	-56.49
259.381	-76.97
259.597	37.72
259.814	2.9
260.03	-9.39
260.246	33.62
260.463	50
260.679	-1.19
260.895	-7.34
261.112	50
261.328	-74.92
261.544	31.57
261.761	52.05
261.977	66.39
262.193	-64.68
262.409	11.09
262.626	21.33
262.842	9.05
263.058	-31.91
263.274	19.29
263.49	29.52
263.707	80.72
263.923	58.2
264.139	-40.11
264.355	23.38
264.571	66.39
264.787	15.19
265.004	50
265.22	-3.24
265.436	-23.72
265.652	-3.24
265.868	78.68
266.084	-48.3
266.3	-23.72
266.516	11.09
266.732	-48.3
266.948	13.14
267.164	41.81
267.38	29.52
267.596	-31.91
267.812	33.62
268.028	54.1
268.244	-56.49
268.46	58.2
268.676	33.62
268.892	0.85
269.108	-19.63
269.324	-44.2
269.54	9.05
269.756	64.34
269.972	-25.77
270.188	25.43
270.403	-15.53
270.619	19.29
270.835	7
271.051	35.67
271.267	21.33
271.483	-17.58
271.698	17.24
271.914	7
272.13	39.76
272.346	9.05
272.562	17.24
272.777	90.96
272.993	-15.53
273.209	54.1
273.425	-11.43
273.64	-7.34
273.856	-21.67
274.072	17.24
274.287	-15.53
274.503	45.91
274.719	2.9
274.934	-27.82
275.15	-21.67
275.366	78.68
275.581	17.24
275.797	50
276.012	-101.55
276.228	70.48
276.444	11.09
276.659	25.43
276.875	-93.35
277.09	-79.02
277.306	-52.39
277.521	-13.48
277.737	-13.48
277.952	62.29
278.168	-11.43
278.383	60.24
278.599	60.24
278.814	-38.06
279.03	58.2
279.245	15.19
279.461	-29.87
279.676	9.05
279.892	33.62
280.107	11.09
280.322	27.48
280.538	25.43
280.753	25.43
280.969	50
281.184	70.48
281.399	43.86
281.615	43.86
281.83	21.33
282.045	-64.68
282.26	50
282.476	23.38
282.691	37.72
282.906	4.95
283.122	25.43
283.337	-7.34
283.552	68.44
283.767	66.39
283.983	58.2
284.198	27.48
284.413	19.29
284.628	0.85
284.843	2.9
285.058	-23.72
285.274	9.05
285.489	88.92
285.704	0.85
285.919	45.91
286.134	58.2
286.349	-23.72
286.564	-60.59
286.779	41.81
286.995	-15.53
287.21	39.76
287.425	33.62
287.64	17.24
287.855	13.14
288.07	-66.73
288.285	60.24
288.5	62.29
288.715	-40.11
288.93	21.33
289.145	-19.63
289.36	0.85
289.575	-21.67
289.79	-23.72
290.004	-54.44
290.219	66.39
290.434	41.81
290.649	-27.82
290.864	-31.91
291.079	50
291.294	41.81
291.509	82.77
291.724	-19.63
291.938	-7.34
292.153	13.14
292.368	37.72
292.583	25.43
292.798	70.48
293.012	45.91
293.227	103.25
293.442	-21.67
293.657	7
293.871	19.29
294.086	23.38
294.301	35.67
294.516	27.48
294.73	33.62
294.945	27.48
295.16	2.9
295.374	45.91
295.589	-46.25
295.804	31.57
296.018	17.24
296.233	-19.63
296.447	9.05
296.662	-1.19
296.877	50
297.091	64.34
297.306	35.67
297.52	-62.63
297.735	-38.06
297.949	19.29
298.164	19.29
298.378	-7.34
298.593	-11.43
298.807	-3.24
299.022	70.48
299.236	66.39
299.451	-13.48
299.665	101.2
299.88	17.24
300.094	-9.39
300.309	35.67
300.523	41.81
300.737	66.39
300.952	-46.25
301.166	29.52
301.381	-11.43
301.595	-7.34
301.809	0.85
302.024	-7.34
302.238	33.62
302.452	93.01
302.667	-3.24
302.881	-7.34
303.095	35.67
303.309	52.05
303.524	-54.44
303.738	-36.01
303.952	109.4
304.166	19.29
304.381	-11.43
304.595	78.68
304.809	33.62
305.023	27.48
305.237	11.09
305.452	-31.91
305.666	88.92
305.88	45.91
306.094	21.33
306.308	33.62
306.522	27.48
306.736	58.2
306.95	13.14
307.164	2.9
307.379	7
307.593	9.05
307.807	76.63
308.021	33.62
308.235	-70.83
308.449	-31.91
308.663	9.05
308.877	62.29
309.091	33.62
309.305	19.29
309.519	31.57
309.733	-7.34
309.947	-25.77
310.161	45.91
310.374	2.9
310.588	70.48
310.802	-13.48
311.016	0.85
311.23	43.86
311.444	41.81
311.658	66.39
311.872	21.33
312.085	50
312.299	41.81
312.513	60.24
312.727	62.29
312.941	25.43
313.154	2.9
313.368	15.19
313.582	23.38
313.796	68.44
314.009	54.1
314.223	11.09
314.437	35.67
314.651	82.77
314.864	43.86
315.078	-19.63
315.292	-72.87
315.505	9.05
315.719	33.62
315.933	21.33
316.146	13.14
316.36	58.2
316.573	74.58
316.787	99.16
317.001	78.68
317.214	0.85
317.428	-13.48
317.641	-48.3
317.855	25.43
318.068	-5.29
318.282	19.29
318.495	43.86
318.709	-38.06
318.922	-7.34
319.136	84.82
319.349	17.24
319.563	21.33
319.776	19.29
319.99	-27.82
320.203	80.72
320.417	25.43
320.63	109.4
320.843	123.73
321.057	39.76
321.27	68.44
321.483	54.1
321.697	-3.24
321.91	-13.48
322.124	-21.67
322.337	-3.24
322.55	58.2
322.763	-54.44
322.977	60.24
323.19	-23.72
323.403	0.85
323.617	78.68
323.83	72.53
324.043	50
324.256	19.29
324.469	56.15
324.683	99.16
324.896	52.05
325.109	37.72
325.322	29.52
325.535	29.52
325.748	2.9
325.962	50
326.175	-42.15
326.388	7
326.601	78.68
326.814	-11.43
327.027	68.44
327.24	50
327.453	35.67
327.666	-31.91
327.879	58.2
328.092	107.35
328.305	58.2
328.518	25.43
328.731	7
328.944	66.39
329.157	29.52
329.37	66.39
329.583	76.63
329.796	52.05
330.009	2.9
330.222	-15.53
330.435	54.1
330.648	66.39
330.861	-40.11
331.073	17.24
331.286	-7.34
331.499	35.67
331.712	41.81
331.925	2.9
332.138	50
332.35	37.72
332.563	-44.2
332.776	41.81
332.989	-38.06
333.202	62.29
333.414	-36.01
333.627	37.72
333.84	95.06
334.053	25.43
334.265	-38.06
334.478	13.14
334.691	4.95
334.903	7
335.116	21.33
335.329	35.67
335.541	25.43
335.754	50
335.966	-40.11
336.179	13.14
336.392	97.11
336.604	35.67
336.817	90.96
337.029	66.39
337.242	-27.82
337.454	39.76
337.667	50
337.88	93.01
338.092	41.81
338.305	19.29
338.517	-17.58
338.729	-25.77
338.942	58.2
339.154	11.09
339.367	-5.29
339.579	35.67
339.792	-23.72
340.004	13.14
340.217	-7.34
340.429	29.52
340.641	-42.15
340.854	50
341.066	29.52
341.278	33.62
341.491	13.14
341.703	70.48
341.915	68.44
342.128	52.05
342.34	99.16
342.552	-3.24
342.764	33.62
342.977	47.96
343.189	41.81
343.401	54.1
343.613	35.67
343.826	56.15
344.038	25.43
344.25	23.38
344.462	86.87
344.674	52.05
344.886	58.2
345.099	99.16
345.311	43.86
345.523	-15.53
345.735	-21.67
345.947	27.48
346.159	43.86
346.371	21.33
346.583	19.29
346.795	7
347.007	-46.25
347.219	0.85
347.431	-60.59
347.643	-19.63
347.855	-5.29
348.067	27.48
348.279	9.05
348.491	58.2
348.703	-48.3
348.915	11.09
349.127	-7.34
349.339	-19.63
349.551	-48.3
349.763	33.62
349.975	-19.63
350.187	9.05
350.399	76.63
350.61	-21.67
350.822	-11.43
351.034	74.58
351.246	-19.63
351.458	43.86
351.669	82.77
351.881	39.76
352.093	90.96
352.305	-27.82
352.517	0.85
352.728	101.2
352.94	52.05
353.152	56.15
353.363	-15.53
353.575	43.86
353.787	66.39
353.999	33.62
354.21	66.39
354.422	-15.53
354.633	-23.72
354.845	-36.01
355.057	109.4
355.268	25.43
355.48	-7.34
355.692	-40.11
355.903	-9.39
356.115	99.16
356.326	-15.53
356.538	56.15
356.749	2.9
356.961	107.35
357.172	-33.96
357.384	39.76
357.595	74.58
357.807	52.05
358.018	70.48
358.23	45.91
358.441	56.15
358.653	13.14
358.864	-44.2
359.075	47.96
359.287	33.62
359.498	-3.24
359.709	17.24
359.921	19.29
360.132	50
360.344	27.48
360.555	66.39
360.766	-17.58
360.977	37.72
361.189	25.43
361.4	62.29
361.611	50
361.823	74.58
362.034	-5.29
362.245	50
362.456	74.58
362.667	-11.43
362.879	47.96
363.09	45.91
363.301	115.54
363.512	41.81
363.723	4.95
363.935	9.05
364.146	123.73
364.357	-7.34
364.568	119.64
364.779	25.43
364.99	86.87
365.201	84.82
365.412	35.67
365.623	37.72
365.834	86.87
366.045	-93.35
366.256	15.19
366.467	50
366.678	-64.68
366.889	66.39
367.1	17.24
367.311	13.14
367.522	109.4
367.733	90.96
367.944	50
368.155	-29.87
368.366	82.77
368.577	25.43
368.788	35.67
368.999	50
369.209	-19.63
369.42	152.4
369.631	123.73
369.842	60.24
370.053	17.24
370.264	37.72
370.474	4.95
370.685	45.91
370.896	80.72
371.107	107.35
371.317	50
371.528	27.48
371.739	21.33
371.95	101.2
372.16	-21.67
372.371	0.85
372.582	4.95
372.792	41.81
373.003	-3.24
373.214	-23.72
373.424	93.01
373.635	0.85
373.846	37.72
374.056	9.05
374.267	43.86
374.477	66.39
374.688	68.44
374.898	45.91
375.109	29.52
375.319	-3.24
375.53	52.05
375.74	80.72
375.951	19.29
376.161	66.39
376.372	13.14
376.582	0.85
376.793	119.64
377.003	11.09
377.214	33.62
377.424	-15.53
377.635	82.77
377.845	19.29
378.055	115.54
378.266	-1.19
378.476	17.24
378.686	93.01
378.897	11.09
379.107	66.39
379.317	52.05
379.528	39.76
379.738	25.43
379.948	50
380.158	82.77
380.369	45.91
380.579	19.29
380.789	115.54
380.999	13.14
381.21	84.82
381.42	9.05
381.63	68.44
381.84	72.53
382.05	-3.24
382.261	99.16
382.471	9.05
382.681	9.05
382.891	37.72
383.101	82.77
383.311	-44.2
383.521	-36.01
383.731	58.2
383.941	84.82
384.151	4.95
384.361	31.57
384.571	21.33
384.781	-29.87
384.991	76.63
385.201	64.34
385.411	76.63
385.621	90.96
385.831	-13.48
386.041	60.24
386.251	-5.29
386.461	82.77
386.671	78.68
386.881	64.34
387.091	17.24
387.301	62.29
387.511	-36.01
387.72	90.96
387.93	101.2
388.14	-15.53
388.35	74.58
388.56	43.86
388.769	33.62
388.979	60.24
389.189	62.29
389.399	21.33
389.609	66.39
389.818	90.96
390.028	90.96
390.238	107.35
390.447	43.86
390.657	-31.91
390.867	64.34
391.076	60.24
391.286	2.9
391.496	99.16
391.705	0.85
391.915	107.35
392.125	176.98
392.334	66.39
392.544	78.68
392.753	107.35
392.963	115.54
393.172	50
393.382	17.24
393.591	166.74
393.801	43.86
394.01	152.4
394.22	156.5
394.429	189.27
394.639	123.73
394.848	50
395.058	179.03
395.267	90.96
395.477	60.24
395.686	140.12
395.895	115.54
396.105	107.35
396.314	131.92
396.524	84.82
396.733	140.12
396.942	111.44
397.152	164.69
397.361	156.5
397.57	125.78
397.78	156.5
397.989	107.35
398.198	185.17
398.407	115.54
398.617	54.1
398.826	13.14
399.035	189.27
399.244	56.15
399.453	56.15
399.663	115.54
399.872	107.35
400.081	166.74
400.29	99.16
400.499	66.39
400.708	156.5
400.917	168.79
401.127	107.35
401.336	90.96
401.545	168.79
401.754	125.78
401.963	125.78
402.172	70.48
402.381	189.27
402.59	199.51
402.799	148.31
403.008	154.45
403.217	181.07
403.426	168.79
403.635	181.07
403.844	199.51
404.053	222.03
404.262	150.36
404.471	234.32
404.68	150.36
404.888	156.5
405.097	142.16
405.306	199.51
405.515	205.65
405.724	230.23
405.933	281.43
406.142	242.51
406.35	219.99
406.559	234.32
406.768	222.03
406.977	402.26
407.185	226.13
407.394	262.99
407.603	281.43
407.812	250.71
408.02	361.3
408.229	338.77
408.438	295.76
408.646	238.42
408.855	344.91
409.064	349.01
409.272	326.48
409.481	412.5
409.69	387.92
409.898	385.87
410.107	463.69
410.315	422.73
410.524	500.56
410.733	463.69
410.941	416.59
411.15	463.69
411.358	525.13
411.567	594.76
411.775	592.72
411.984	512.85
412.192	697.16
412.401	582.48
412.609	650.06
412.818	666.44
413.026	709.45
413.234	758.6
413.443	824.14
413.651	805.71
413.86	813.9
414.068	803.66
414.276	918.34
414.485	883.53
414.693	887.62
414.901	951.11
415.11	1002.31
415.318	1012.55
415.526	1117
415.734	1098.56
415.943	1192.77
416.151	1221.44
416.359	1227.59
416.567	1264.45
416.776	1381.18
416.984	1379.14
417.192	1465.15
417.4	1461.06
417.608	1508.16
417.817	1487.68
418.025	1588.03
418.233	1649.47
418.441	1700.67
418.649	1780.54
418.857	1809.21
419.065	1909.56
419.273	1811.26
419.481	2018.1
419.689	2140.98
419.897	2249.52
420.105	2167.6
420.313	2274.1
420.521	2310.96
420.729	2382.64
420.937	2536.24
421.145	2646.83
421.353	2851.63
421.561	2753.32
421.769	2841.39
421.977	2954.02
422.185	3042.09
422.393	3187.49
422.601	3242.79
422.809	3291.94
423.017	3400.48
423.224	3429.15
423.432	3662.62
423.64	3621.66
423.848	4057.88
424.056	3910.43
424.263	4223.76
424.471	4205.33
424.679	4285.2
424.887	4596.5
425.094	4533.01
425.302	4694.8
425.51	4948.75
425.718	4965.13
425.925	5262.09
426.133	5346.05
426.341	5489.41
426.548	5778.17
426.756	5731.07
426.964	5655.3
427.171	6257.4
427.379	6400.76
427.586	6417.14
427.794	6669.04
428.001	6824.69
428.209	7332.58
428.417	7107.3
428.624	7631.58
428.832	7549.67
429.039	7600.87
429.247	7545.57
429.454	8342.23
429.662	8880.85
429.869	8155.86
430.076	8948.43
430.284	8610.51
430.491	8831.69
430.699	9585.35
430.906	9487.04
431.114	9632.45
431.321	10011.32
431.528	10023.61
431.736	10900.14
431.943	11137.71
432.15	10922.67
432.358	11078.32
432.565	11850.4
432.772	11492.01
432.979	12460.7
433.187	12618.39
433.394	12325.53
433.601	13451.91
433.808	13384.33
434.016	13466.25
434.223	14017.15
434.43	14901.87
434.637	14348.92
434.844	15344.24
435.052	15735.4
435.259	15465.07
435.466	15618.66
435.673	15346.28
435.88	16575.06
436.087	17226.32
436.294	17156.69
436.501	16998.99
436.708	17384.01
436.915	18074.18
437.122	18764.34
437.329	18625.08
437.537	19321.39
437.743	19370.54
437.95	19405.36
438.157	20537.88
438.364	21103.12
438.571	20881.94
438.778	21314.06
438.985	22868.47
439.192	22084.1
439.399	22850.04
439.606	22297.09
439.813	23775.72
440.02	24934.87
440.227	24535.52
440.433	24396.26
440.64	25037.27
440.847	24721.88
441.054	25706.96
441.261	26972.6
441.467	26831.29
441.674	27304.37
441.881	28649.89
442.088	28092.84
442.294	28191.14
442.501	28744.09
442.708	29338.01
442.914	30464.39
443.121	31830.38
443.328	30990.72
443.534	32862.56
443.741	32141.67
443.948	31652.21
444.154	33849.68
444.361	33780.05
444.568	33859.92
444.774	33851.73
444.981	34003.28
445.187	35281.21
445.394	36319.53
445.6	36065.58
445.807	39637.24
446.013	37691.67
446.22	38310.16
446.426	40085.75
446.633	40591.59
446.839	41640.15
447.046	40317.17
447.252	42150.1
447.459	42518.73
447.665	41842.9
447.871	43974.84
448.078	45852.83
448.284	43391.17
448.491	44607.66
448.697	46280.85
448.903	47550.59
449.11	47788.16
449.316	46489.74
449.522	47323.27
449.728	48767.09
449.935	48740.46
450.141	48932.97
450.347	50268.25
450.553	48197.75
450.76	49227.88
450.966	50796.62
451.172	50604.11
451.378	51435.59
451.584	50296.92
451.791	52254.78
451.997	51562.56
452.203	52432.95
452.409	52324.41
452.615	52246.58
452.821	50501.71
453.027	49604.7
453.233	52385.85
453.44	50804.81
453.646	50956.36
453.852	51030.09
454.058	52246.58
454.264	50430.04
454.47	51423.3
454.676	49913.95
454.882	51988.54
455.088	47757.44
455.294	48230.52
455.5	49281.13
455.705	49825.89
455.911	47538.3
456.117	46823.56
456.323	46614.67
456.529	43790.52
456.735	45930.65
456.941	44662.96
457.147	44372.14
457.352	43047.11
457.558	42375.37
457.764	42471.63
457.97	41562.33
458.176	40911.08
458.381	41167.07
458.587	38992.13
458.793	39061.76
458.999	36952.35
459.204	39696.63
459.41	38586.63
459.616	36284.72
459.821	36137.26
460.027	36051.25
460.233	35236.16
460.438	33581.4
460.644	34156.88
460.85	32293.22
461.055	31682.93
461.261	31848.82
461.466	29159.83
461.672	28318.12
461.878	30867.84
462.083	28946.84
462.289	28088.74
462.494	27894.19
462.7	26735.04
462.905	25946.57
463.111	26706.37
463.316	27005.37
463.522	26485.19
463.727	26476.99
463.932	26044.87
464.138	26044.87
464.343	25928.14
464.549	25348.56
464.754	26063.3
464.959	26159.56
465.165	25809.36
465.37	24834.52
465.575	24119.78
465.781	25217.49
465.986	24756.7
466.191	24279.52
466.397	23771.63
466.602	22575.61
466.807	23585.26
467.012	23626.22
467.218	23575.02
467.423	22841.85
467.628	23167.48
467.833	24150.5
468.038	23446
468.244	22602.24
468.449	23142.9
468.654	22661.63
468.859	22563.33
469.064	22153.73
469.269	21574.16
469.474	21711.37
469.679	22364.67
469.885	21735.95
470.09	21758.47
470.295	21936.65
470.5	21174.8
470.705	21203.47
470.91	20920.85
471.115	20632.09
471.32	21256.72
471.525	20857.37
471.73	20148.77
471.935	20210.21
472.139	19956.26
472.344	19900.97
472.549	19714.6
472.754	19530.28
472.959	19022.39
473.164	18709.05
473.369	18555.45
473.574	19143.22
473.778	18940.47
473.983	18727.48
474.188	19049.01
474.393	17756.74
474.598	18172.48
474.802	18025.03
475.007	17578.57
475.212	17850.95
475.417	17482.31
475.621	16923.22
475.826	17146.45
476.031	16898.64
476.235	16552.54
476.44	16755.29
476.645	16378.46
476.849	16583.26
477.054	16231.01
477.259	15991.39
477.463	16177.76
477.668	15491.69
477.872	15622.76
478.077	15448.68
478.282	15145.58
478.486	15073.9
478.691	15100.53
478.895	14905.97
479.1	15075.95
479.304	14848.63
479.509	14406.27
479.713	14666.36
479.918	14293.63
480.122	14338.68
480.326	14246.52
480.531	14254.72
480.735	14142.08
480.94	14008.96
481.144	14508.66
481.348	13818.5
481.553	14099.07
481.757	13621.89
481.961	13785.73
482.166	14172.8
482.37	13951.62
482.574	13836.93
482.778	13609.61
482.983	13951.62
483.187	13785.73
483.391	13814.4
483.595	13431.43
483.8	13501.06
484.004	13828.74
484.208	13847.17
484.412	13732.48
484.616	13865.6
484.821	13636.23
485.025	13501.06
485.229	13904.51
485.433	13595.27
485.637	13845.12
485.841	13703.81
486.045	13413
486.249	13585.03
486.453	13451.91
486.657	13566.6
486.861	13730.44
487.065	13316.75
487.269	13593.22
487.473	13263.5
487.677	13738.63
487.881	13914.75
488.085	13515.4
488.289	13828.74
488.493	13462.15
488.697	14039.68
488.901	13728.39
489.105	13707.91
489.309	13566.6
489.512	13808.26
489.716	13853.31
489.92	13935.23
490.124	13785.73
490.328	13947.52
490.531	13767.3
490.735	14090.88
490.939	14262.91
491.143	13861.51
491.346	14043.78
491.55	14340.73
491.754	14109.31
491.958	14267
492.161	14406.27
492.365	14328.44
492.569	14369.4
492.772	14475.9
492.976	14678.65
493.18	14688.89
493.383	14768.76
493.587	14721.65
493.79	14762.61
493.994	14688.89
494.197	14893.68
494.401	15168.11
494.605	15348.33
494.808	15344.24
495.012	15121.01
495.215	15364.71
495.419	15886.95
495.622	15460.97
495.825	16056.93
496.029	16015.97
496.232	16093.79
496.436	16120.42
496.639	16589.4
496.843	16310.88
497.046	16671.32
497.249	16939.6
497.453	16986.71
497.656	17074.77
497.859	17304.14
498.063	17240.65
498.266	17705.54
498.469	17699.4
498.673	17873.48
498.876	17885.76
499.079	18205.25
499.282	18168.38
499.485	18731.58
499.689	18502.2
499.892	19087.92
500.095	18868.79
500.298	19200.56
500.501	19311.15
500.705	19845.67
500.908	20185.63
501.111	20429.34
501.314	20722.2
501.517	20898.33
501.72	20959.77
501.923	20976.15
502.126	21226
502.329	21479.95
502.532	21770.76
502.735	21883.4
502.938	22307.33
503.141	22520.32
503.344	22864.38
503.547	22850.04
503.75	23007.73
503.953	23366.13
504.156	23433.71
504.359	23960.04
504.562	24062.44
504.765	24646.11
504.968	24803.8
505.17	24883.67
505.373	25225.68
505.576	25534.93
505.779	25776.59
505.982	25758.16
506.185	26569.15
506.387	26517.95
506.59	26665.41
506.793	27136.44
506.996	27097.53
507.198	27959.72
507.401	27439.54
507.604	28387.75
507.807	28731.81
508.009	28897.69
508.212	28909.98
508.415	29350.29
508.617	29669.78
508.82	29581.71
509.022	29536.66
509.225	30505.35
509.428	30861.69
509.63	31177.08
509.833	31203.71
510.035	31932.78
510.238	31377.78
510.44	32059.76
510.643	32369
510.845	32616.8
511.048	32495.97
511.25	33300.83
511.453	33327.45
511.655	34562.37
511.858	33939.79
512.06	34412.87
512.262	34906.43
512.465	34969.92
512.667	35385.66
512.87	35803.44
513.072	35520.82
513.274	36692.26
513.477	36563.24
513.679	37302.56
513.881	37259.55
514.084	37845.27
514.286	38281.49
514.488	38095.12
514.69	38940.93
514.893	39135.49
515.095	39328
515.297	40093.94
515.499	39565.56
515.701	40143.09
515.904	40569.07
516.106	41050.34
516.308	41404.64
516.51	41717.98
516.712	41705.69
516.914	42031.32
517.116	43153.6
517.318	42582.22
517.52	43256
517.722	43454.65
517.925	44255.41
518.127	44136.63
518.329	44918.95
518.531	44794.03
518.733	45207.72
518.935	45605.02
519.136	45547.68
519.338	46055.57
519.54	46258.32
519.742	47100.04
519.944	46964.87
520.146	47409.28
520.348	47911.03
520.55	48271.48
520.752	48873.58
520.954	49354.85
521.155	48631.92
521.357	49469.54
521.559	49862.75
521.761	50722.9
521.963	50296.92
522.164	50681.94
522.366	50919.5
522.568	51148.87
522.77	51544.13
522.971	52385.85
523.173	52312.12
523.375	52133.95
523.576	52422.71
523.778	52254.78
523.98	53573.67
524.181	53250.09
524.383	53698.59
524.584	54104.09
524.786	54016.03
524.988	53790.75
525.189	54564.88
525.391	54767.63
525.592	54941.71
525.794	55160.84
525.995	54980.62
526.197	55126.03
526.398	55367.69
526.6	55834.63
526.801	55578.63
527.003	56332.28
527.204	55951.36
527.406	56612.85
527.607	56752.12
527.808	57042.93
528.01	56008.7
528.211	57030.64
528.412	57796.58
528.614	57415.66
528.815	57477.1
529.016	57864.16
529.218	57317.35
529.419	57800.68
529.62	57661.41
529.822	57462.76
530.023	58167.26
530.224	57890.79
530.425	58318.81
530.626	57710.56
530.828	57413.61
531.029	58865.62
531.23	58038.24
531.431	58169.31
531.632	58462.17
531.833	58509.27
532.035	58535.9
532.236	58718.17
532.437	58783.7
532.638	58402.78
532.839	59084.75
533.04	58959.83
533.241	58392.54
533.442	59318.22
533.643	59121.62
533.844	58978.26
534.045	58898.39
534.246	58148.83
534.447	58918.87
534.648	58515.42
534.849	59183.05
535.05	58836.95
535.251	59447.24
535.451	58791.89
535.652	58839
535.853	58656.73
536.054	59000.79
536.255	59160.53
536.456	58574.81
536.657	59207.63
536.857	58800.08
537.058	58957.78
537.259	59148.24
537.46	59142.09
537.66	58673.11
537.861	58947.54
538.062	59002.83
538.263	58925.01
538.463	58726.36
538.664	58630.1
538.865	58732.5
539.065	59305.93
539.266	58447.83
539.466	59305.93
539.667	58114.01
539.868	59160.53
540.068	58865.62
540.269	58922.96
540.469	58773.46
540.67	58269.66
540.87	58642.39
541.071	58742.74
541.271	58943.44
541.472	58316.76
541.672	58537.94
541.873	58519.51
542.073	57921.51
542.274	58812.37
542.474	58345.44
542.675	58679.25
542.875	59307.98
543.075	58378.2
543.276	57690.09
543.476	59144.14
543.676	58202.08
543.877	58314.72
544.077	58722.26
544.277	58439.64
544.478	58318.81
544.678	58685.4
544.878	58707.93
545.078	58431.45
545.279	58023.9
545.479	57870.31
545.679	58169.31
545.879	58658.77
546.079	58023.9
546.28	58388.44
546.48	57569.25
546.68	58388.44
546.88	58324.96
547.08	58134.49
547.28	57745.38
547.48	57552.87
547.68	58132.45
547.88	57694.18
548.081	58290.14
548.281	58378.2
548.481	57634.79
548.681	58234.84
548.881	58126.3
549.081	57978.85
549.28	57898.98
549.48	58128.35
549.68	57786.34
549.88	58161.12
550.08	58046.43
550.28	57923.55
550.48	57815.01
550.68	58308.57
550.88	57610.21
551.08	57604.07
551.279	57907.17
551.479	57391.08
551.679	57769.96
551.879	57694.18
552.079	58054.62
552.278	57593.83
552.478	57634.79
552.678	57782.24
552.878	57833.44
553.077	57741.28
553.277	56956.91
553.477	57989.09
553.676	57669.61
553.876	57231.34
554.076	57436.14
554.275	57327.59
554.475	56834.03
554.674	57309.16
554.874	57350.12
555.074	56979.44
555.273	57858.02
555.473	57659.37
555.672	57051.12
555.872	57249.77
556.071	56834.03
556.271	57356.27
556.47	56819.7
556.67	56657.91
556.869	56727.54
557.068	57012.21
557.268	56530.93
557.467	56971.25
557.667	56862.71
557.866	56793.07
558.065	56856.56
558.265	56547.32
558.464	56055.81
558.663	56872.95
558.863	56506.36
559.062	57247.72
559.261	56059.9
559.461	56813.55
559.66	55896.06
559.859	56152.06
560.058	56031.23
560.258	56553.46
560.457	55578.63
560.656	56498.17
560.855	56592.37
561.054	56578.04
561.253	55957.5
561.453	55744.51
561.652	55980.03
561.851	56131.58
562.05	55777.28
562.249	55566.34
562.448	56006.65
562.647	55678.98
562.846	55398.41
563.045	55689.22
563.244	55101.45
563.443	55775.23
563.642	54327.32
563.841	54966.29
564.04	54925.33
564.239	55652.36
564.438	54620.18
564.637	55154.7
564.836	55072.78
565.035	54495.25
565.234	54831.12
565.432	54333.46
565.631	54521.88
565.83	54607.89
566.029	54284.31
566.228	54093.85
566.427	54288.41
566.625	54075.42
566.824	53755.94
567.023	53979.17
567.222	53270.57
567.42	54310.94
567.619	53557.28
567.818	53794.85
568.016	53661.73
568.215	53870.62
568.414	53448.74
568.612	53454.89
568.811	53893.15
569.01	53209.13
569.208	52820.02
569.407	53440.55
569.605	52518.96
569.804	53303.34
570.002	52574.26
570.201	52596.79
570.4	52637.75
570.598	52115.51
570.797	52043.84
570.995	52699.19
571.193	51724.35
571.392	51861.57
571.59	51836.99
571.789	51900.48
571.987	51869.76
572.186	51642.43
572.384	51400.77
572.582	51828.8
572.781	51990.59
572.979	50987.08
573.177	51658.82
573.376	51505.22
573.574	51443.78
573.772	51515.46
573.971	50735.18
574.169	50509.91
574.367	50868.3
574.565	50837.58
574.763	50520.15
574.962	50567.25
575.16	49946.72
575.358	50366.55
575.556	49813.6
575.754	50434.13
575.952	49674.34
576.151	50294.87
576.349	49576.03
576.547	49803.36
576.745	49590.37
576.943	49639.52
577.141	49342.56
577.339	49721.44
577.537	48973.93
577.735	49352.8
577.933	48697.45
578.131	49404
578.329	48742.51
578.527	48230.52
578.725	48691.31
578.923	48840.81
579.121	48490.61
579.319	48107.64
579.516	48724.08
579.714	48412.79
579.912	48140.41
580.11	47788.16
580.308	47837.31
580.506	47724.67
580.704	47114.37
580.901	47358.08
581.099	47698.05
581.297	47038.6
581.495	47192.2
581.692	47196.29
581.89	46387.35
582.088	46782.6
582.285	46841.99
582.483	46981.26
582.681	46422.16
582.878	46348.43
583.076	46241.94
583.274	46514.32
583.471	45856.92
583.669	45942.94
583.866	45930.65
584.064	46143.64
584.262	45645.98
584.459	45619.36
584.657	45422.75
584.854	45703.32
585.052	44826.79
585.249	45144.23
585.447	45340.83
585.644	44642.48
585.841	44871.85
586.039	44902.57
586.236	44400.82
586.434	44533.93
586.631	44064.95
586.828	44341.42
587.026	44361.9
587.223	44030.13
587.42	43632.83
587.618	43864.25
587.815	43464.89
588.012	43602.11
588.21	43458.75
588.407	43620.54
588.604	43360.45
588.801	42873.03
588.999	42957
589.196	42940.61
589.393	43088.07
589.59	42995.91
589.787	42817.74
589.984	42217.68
590.182	41658.59
590.379	42154.19
590.576	41920.73
590.773	41933.01
590.97	41898.2
591.167	42031.32
591.364	41218.27
591.561	41781.46
591.758	41652.44
591.955	41195.74
592.152	41521.37
592.349	41113.83
592.546	41214.18
592.743	40929.51
592.94	40351.98
593.137	40599.79
593.334	40816.87
593.531	39991.54
593.727	40544.49
593.924	40474.86
594.121	39799.03
594.318	40368.37
594.515	39569.66
594.712	40249.58
594.908	39596.28
595.105	39760.12
595.302	39481.59
595.499	39205.12
595.696	39076.1
595.892	39088.38
596.089	39307.52
596.286	38990.08
596.482	38883.59
596.679	38643.98
596.876	38832.39
597.072	38252.81
597.269	38363.4
597.466	38275.34
597.662	38068.5
597.859	38021.39
598.055	38164.75
598.252	37613.85
598.448	37757.21
598.645	37845.27
598.841	37441.82
599.038	37484.83
599.234	37294.36
599.431	36696.36
599.627	36921.63
599.824	37128.48
600.02	36682.02
600.217	37069.09
600.413	36831.52
600.609	36739.36
600.806	36333.87
601.002	36264.24
601.198	36262.19
601.395	35985.71
601.591	36090.16
601.787	36161.84
601.984	35688.76
602.18	36198.7
602.376	35633.46
602.572	35633.46
602.769	35127.61
602.965	34982.21
603.161	35490.1
603.357	34902.34
603.553	34931.01
603.75	34949.44
603.946	34447.69
604.142	35223.87
604.338	34230.6
604.534	34818.37
604.73	34369.86
604.926	34449.74
605.122	33954.13
605.318	34040.14
605.514	33579.35
605.71	33849.68
605.906	33800.53
606.102	33245.53
606.298	33751.38
606.494	33716.56
606.69	33425.75
606.886	33698.13
607.082	32903.52
607.278	33476.95
607.474	32487.78
607.67	33198.43
607.866	32827.74
608.062	33180
608.257	32932.19
608.453	33177.95
608.649	32743.78
608.845	32334.18
609.041	32631.14
609.236	32649.57
609.432	32473.45
609.628	32465.25
609.824	32080.24
610.019	32268.65
610.215	32414.05
610.411	32377.19
610.606	31953.26
610.802	32233.83
610.998	31781.23
611.193	31807.86
611.389	31500.66
611.584	31633.78
611.78	31543.67
611.976	31709.55
612.171	31541.62
612.367	31560.05
612.562	31433.08
612.758	30886.27
612.953	31150.46
613.149	31295.86
613.344	31029.63
613.539	31191.42
613.735	31107.45
613.93	31183.23
614.126	30921.09
614.321	31273.34
614.517	31129.98
614.712	30951.81
614.907	30697.86
615.103	30910.85
615.298	30560.64
615.493	31136.12
615.688	29817.23
615.884	30890.37
616.079	30253.45
616.274	30830.97
616.47	30503.3
616.665	30331.27
616.86	30056.84
617.055	30155.15
617.25	29874.57
617.445	30499.2
617.641	29555.09
617.836	30134.67
618.031	29342.1
618.226	30034.32
618.421	29417.88
618.616	29712.78
618.811	29178.26
619.006	29602.19
619.201	28780.96
619.396	29389.2
619.591	28705.18
619.786	28803.49
619.981	28729.76
620.176	28815.77
620.371	28512.67
620.566	28504.48
620.761	28240.29
620.956	28441
621.151	28064.17
621.346	28160.42
621.541	27902.38
621.735	27900.33
621.93	27552.18
622.125	27390.39
622.32	26982.84
622.515	27359.67
622.709	26999.23
622.904	27015.61
623.099	26661.31
623.294	26694.08
623.488	26200.52
623.683	26579.39
623.878	26188.23
624.072	25993.67
624.267	26022.34
624.462	25999.82
624.656	25498.06
624.851	25801.16
625.046	25342.42
625.24	25285.08
625.435	24947.16
625.629	25203.16
625.824	24386.02
626.018	24785.37
626.213	24314.34
626.407	24695.26
626.602	24252.9
626.796	24310.24
626.991	24201.7
627.185	24029.67
627.38	23761.39
627.574	23486.96
627.768	23349.75
627.963	23491.05
628.157	23015.93
628.352	23364.08
628.546	23071.22
628.74	23341.55
628.935	22800.89
629.129	22987.25
629.323	22616.57
629.517	22587.9
629.712	22516.22
629.906	22454.78
630.1	21946.89
630.294	21924.36
630.489	21821.96
630.683	22055.43
630.877	21766.67
631.071	21703.18
631.265	21553.68
631.459	21565.96
631.653	21037.59
631.848	21420.56
632.042	21309.97
632.236	21422.61
632.43	20902.42
632.624	20849.18
632.818	20849.18
633.012	20312.61
633.206	20314.66
633.4	20607.51
633.594	20435.49
633.788	20281.89
633.982	20234.78
634.176	19995.17
634.369	19905.06
634.563	19911.21
634.757	19604.01
634.951	19714.6
635.145	19163.7
635.339	19866.15
635.533	19393.07
635.726	19411.5
635.92	19278.38
636.114	19081.78
636.308	18940.47
636.501	19042.87
636.695	18766.39
636.889	18444.86
637.083	18784.82
637.276	18412.09
637.47	18297.41
637.664	18274.88
637.857	18448.96
638.051	18233.92
638.244	17803.85
638.438	18027.07
638.632	18065.99
638.825	17705.54
639.019	17472.07
639.212	17222.22
639.406	17476.17
639.599	17535.56
639.793	17646.15
639.986	17140.3
640.18	17171.02
640.373	16992.85
640.567	16804.44
640.76	16888.4
640.954	16697.94
641.147	16751.19
641.34	16542.3
641.534	16605.78
641.727	16357.98
641.92	16411.23
642.114	16304.73
642.307	16292.44
642.5	16120.42
642.694	16026.21
642.887	16005.73
643.08	15888.99
643.273	15872.61
643.467	15975.01
643.66	15440.49
643.853	15483.5
644.046	15274.6
644.239	15215.21
644.432	15327.85
644.626	15313.52
644.819	15053.42
645.012	14938.74
645.205	15010.42
645.398	15075.95
645.591	14967.41
645.784	14512.76
645.977	14742.13
646.17	14467.7
646.363	14703.22
646.556	14338.68
646.749	14283.39
646.942	14398.07
647.135	14154.37
647.328	14264.96
647.521	13929.09
647.714	13742.72
647.907	14051.97
648.099	13795.97
648.292	13841.03
648.485	13763.2
648.678	13361.8
648.871	13591.17
649.064	13759.11
649.256	13664.9
649.449	13316.75
649.642	13464.2
649.835	13157
650.027	13275.79
650.22	13331.08
650.413	13165.2
650.605	13054.61
650.798	12946.06
650.991	12681.88
651.183	12638.87
651.376	12464.79
651.568	12790.42
651.761	12632.72
651.954	12591.77
652.146	12393.11
652.339	12534.42
652.531	12329.63
652.724	12184.22
652.916	12024.48
653.109	12202.65
653.301	11936.42
653.494	11977.37
653.686	11844.26
653.879	11989.66
654.071	11737.76
654.263	11661.99
654.456	11975.33
654.648	11522.73
654.84	11483.81
655.033	11328.17
655.225	11555.49
655.417	11291.31
655.61	11344.55
655.802	11430.57
655.994	10941.1
656.186	11203.24
656.379	11066.03
656.571	11018.93
656.763	11051.69
656.955	10986.16
657.148	11156.14
657.34	10875.57
657.532	10746.55
657.724	10584.76
657.916	10621.62
658.108	10549.94
658.3	10582.71
658.492	10441.4
658.684	10431.16
658.876	10412.73
659.068	10365.62
659.26	10201.79
659.452	10183.35
659.644	10365.62
659.836	10085.05
660.028	9937.6
660.22	9816.77
660.412	9968.32
660.604	9765.57
660.796	10005.18
660.988	9646.79
661.18	9679.55
661.372	9493.19
661.563	9749.18
661.755	9593.54
661.947	9695.94
662.139	9560.77
662.331	9437.89
662.522	9413.32
662.714	9308.87
662.906	9177.8
663.097	9345.73
663.289	9048.78
663.481	9112.27
663.673	9093.83
663.864	8981.2
664.056	9056.97
664.247	8741.58
664.439	8626.9
664.631	8825.55
664.822	8909.52
665.014	8948.43
665.205	8729.3
665.397	8792.78
665.588	8751.82
665.78	8647.38
665.971	8678.1
666.163	8575.7
666.354	8620.75
666.546	8327.89
666.737	8405.72
666.929	8512.21
667.12	8219.35
667.311	8221.4
667.503	8112.86
667.694	8379.09
667.885	7987.93
668.077	8139.48
668.268	8135.39
668.459	7910.11
668.651	7791.33
668.842	8110.81
669.033	7881.44
669.224	7897.82
669.416	7973.6
669.607	7791.33
669.798	7690.98
669.989	7793.37
670.18	7711.46
670.371	7709.41
670.563	7670.5
670.754	7652.06
670.945	7576.29
671.136	7490.28
671.327	7578.34
671.518	7365.35
671.709	7332.58
671.9	7381.73
672.091	7308.01
672.282	7389.92
672.473	7480.04
672.664	7228.14
672.855	7228.14
673.046	7037.67
673.237	7224.04
673.428	7119.59
673.619	7004.91
673.809	6937.32
674	7154.41
674.191	7017.19
674.382	7004.91
674.573	7023.34
674.764	6808.3
674.954	6834.93
675.145	6822.64
675.336	6951.66
675.527	6728.43
675.717	6767.34
675.908	6810.35
676.099	6642.42
676.289	6824.69
676.48	6759.15
676.671	6626.03
676.861	6742.77
677.052	6603.5
677.243	6572.79
677.433	6652.66
677.624	6677.23
677.814	6507.25
678.005	6439.67
678.195	6550.26
678.386	6490.87
678.576	6492.91
678.767	6499.06
678.957	6265.59
679.148	6566.64
679.338	6308.6
679.529	6378.23
679.719	6390.52
679.909	6417.14
680.1	6230.77
680.29	6269.69
680.481	6183.67
680.671	6216.44
680.861	6349.56
681.052	6169.34
681.242	6259.45
681.432	6150.9
681.622	6056.7
681.813	5935.87
682.003	5958.39
682.193	6089.46
682.383	5962.49
682.573	6040.31
682.764	5987.07
682.954	5948.15
683.144	5890.81
683.334	5815.04
683.524	5939.96
683.714	5976.83
683.904	5925.63
684.094	6036.22
684.284	5896.96
684.474	5853.95
684.664	6064.89
684.854	5825.28
685.044	5991.16
685.234	5585.66
685.424	5817.08
685.614	5710.59
685.804	5751.55
685.994	5784.32
686.184	5565.18
686.374	5710.59
686.564	5657.34
686.753	5556.99
686.943	5548.8
687.133	5538.56
687.323	5528.32
687.513	5692.16
687.702	5425.92
687.892	5456.64
688.082	5401.35
688.272	5604.1
688.461	5403.39
688.651	5483.27
688.841	5208.84
689.03	5323.52
689.22	5235.46
689.41	5235.46
689.599	5276.42
689.789	5276.42
689.979	5235.46
690.168	5249.8
690.358	5139.21
690.547	5225.22
690.737	5153.54
690.926	5067.53
691.116	5022.47
691.305	5210.89
691.495	4995.85
691.684	4924.17
691.874	4963.08
692.063	4936.46
692.252	4838.16
692.442	4969.23
692.631	4827.92
692.82	4899.59
693.01	4872.97
693.199	4776.72
693.388	4883.21
693.578	4911.88
693.767	4686.61
693.956	4735.76
694.146	4782.86
694.335	4721.42
694.524	4686.61
694.713	4702.99
694.902	4645.65
695.092	4786.96
695.281	4541.2
695.47	4582.16
695.659	4655.89
695.848	4367.12
696.037	4598.54
696.226	4496.14
696.415	4385.55
696.604	4580.11
696.793	4320.02
696.982	4416.27
697.171	4530.96
697.36	4401.94
697.549	4313.88
697.738	4229.91
697.927	4494.1
698.116	4410.13
698.305	4350.74
698.494	4342.55
698.683	4399.89
698.872	4260.63
699.061	4293.4
699.25	4246.29
699.438	4317.97
699.627	4244.24
699.816	4236.05
700.005	4221.72
700.193	4272.92
700.382	4313.88
700.571	4147.99
700.76	4221.72
700.948	4191
701.137	4170.52
701.326	4145.94
701.514	4023.06
701.703	4266.77
701.892	4088.6
702.08	4168.47
702.269	4037.4
702.457	4033.3
702.646	4014.87
702.834	3986.2
703.023	4064.02
703.212	3992.34
703.4	3988.25
703.589	3916.57
703.777	4109.08
703.965	3867.42
704.154	3932.95
704.342	3826.46
704.531	3928.86
704.719	3805.98
704.907	3918.62
705.096	3916.57
705.284	3926.81
705.472	3812.12
705.661	3779.36
705.849	3773.21
706.037	3842.84
706.226	3801.88
706.414	3691.29
706.602	3822.36
706.79	3679.01
706.979	3785.5
707.167	3851.03
707.355	3681.05
707.543	3812.12
707.731	3752.73
707.919	3685.15
708.107	3746.59
708.296	3801.88
708.484	3556.13
708.672	3627.81
708.86	3498.78
709.048	3597.09
709.236	3697.44
709.424	3500.83
709.612	3576.61
709.8	3775.26
709.988	3568.41
710.176	3654.43
710.364	3525.41
710.551	3539.74
710.739	3488.54
710.927	3494.69
711.115	3435.3
711.303	3543.84
711.491	3531.55
711.679	3468.06
711.866	3423.01
712.054	3377.95
712.242	3408.67
712.43	3396.39
712.617	3369.76
712.805	3418.91
712.993	3509.02
713.181	3361.57
713.368	3349.28
713.556	3351.33
713.744	3293.99
713.931	3547.94
714.119	3326.75
714.306	3248.93
714.494	3343.14
714.682	3257.12
714.869	3353.38
715.057	3304.23
715.244	3216.16
715.432	3265.32
715.619	3314.47
715.807	3318.56
715.994	3339.04
716.182	3236.64
716.369	3261.22
716.556	3363.62
716.744	3246.88
716.931	3124.01
717.119	3267.36
717.306	3220.26
717.493	3218.21
717.681	3226.4
717.868	3121.96
718.055	3142.44
718.242	3093.29
718.43	3189.54
718.617	3019.56
718.804	3115.81
718.991	3156.77
719.179	3132.2
719.366	3187.49
719.553	3054.37
719.74	3040.04
719.927	3121.96
720.114	3056.42
720.301	3054.37
720.488	3066.66
720.676	2978.6
720.863	3009.32
721.05	3017.51
721.237	3003.18
721.424	2827.05
721.611	3101.48
721.798	2921.26
721.985	2882.35
722.172	2970.41
722.358	2941.74
722.545	2949.93
722.732	2980.65
722.919	3031.85
723.106	2843.43
723.293	2878.25
723.48	2861.87
723.667	2796.33
723.853	2851.63
724.04	2892.59
724.227	2818.86
724.414	2892.59
724.6	2788.14
724.787	2827.05
724.974	2958.12
725.161	2710.32
725.347	2820.91
725.534	2843.43
725.72	2976.55
725.907	2722.6
726.094	2773.8
726.28	2771.76
726.467	2747.18
726.653	2849.58
726.84	2650.92
727.027	2847.53
727.213	2689.84
727.4	2695.98
727.586	2788.14
727.773	2767.66
727.959	2673.45
728.145	2773.8
728.332	2769.71
728.518	2741.04
728.705	2738.99
728.891	2642.73
729.077	2671.4
729.264	2632.49
729.45	2673.45
729.636	2738.99
729.823	2667.31
730.009	2663.21
730.195	2642.73
730.382	2620.21
730.568	2612.01
730.754	2673.45
730.94	2556.72
731.126	2743.08
731.313	2655.02
731.499	2579.25
731.685	2468.66
731.871	2546.48
732.057	2657.07
732.243	2605.87
732.429	2560.81
732.615	2587.44
732.801	2685.74
732.987	2679.6
733.173	2446.13
733.359	2546.48
733.545	2433.84
733.731	2593.58
733.917	2458.42
734.103	2542.38
734.289	2593.58
734.475	2417.46
734.661	2542.38
734.847	2579.25
735.033	2493.23
735.219	2442.03
735.404	2499.38
735.59	2470.7
735.776	2601.77
735.962	2552.62
736.148	2499.38
736.333	2442.03
736.519	2405.17
736.705	2474.8
736.89	2304.82
737.076	2405.17
737.262	2327.35
737.447	2435.89
737.633	2401.07
737.819	2448.18
738.004	2351.92
738.19	2360.11
738.375	2349.87
738.561	2278.19
738.747	2245.43
738.932	2388.78
739.118	2331.44
739.303	2343.73
739.489	2351.92
739.674	2335.54
739.859	2220.85
740.045	2327.35
740.23	2405.17
740.416	2229.04
740.601	2286.39
740.786	2220.85
740.972	2204.47
741.157	2335.54
741.342	2118.45
741.528	2208.56
741.713	2163.51
741.898	2231.09
742.084	2059.06
742.269	2138.93
742.454	2140.98
742.639	2128.69
742.824	2114.36
743.01	2210.61
743.195	2157.36
743.38	2140.98
743.565	2112.31
743.75	2054.97
743.935	2026.29
744.12	2167.6
744.305	2106.17
744.49	2034.49
744.675	1884.98
744.86	2046.77
745.045	2036.53
745.23	2024.25
745.415	2110.26
745.6	2044.73
745.785	1985.34
745.97	2147.12
746.155	1913.66
746.34	1975.1
746.525	2001.72
746.71	1934.14
746.895	1909.56
747.079	1856.31
747.264	1815.35
747.449	1897.27
747.634	1764.15
747.819	1803.07
748.003	1852.22
748.188	1831.74
748.373	1762.11
748.557	1868.6
748.742	1827.64
748.927	1780.54
749.111	1766.2
749.296	1731.39
749.481	1774.39
749.665	1747.77
749.85	1786.68
750.034	1680.19
750.219	1667.9
750.404	1725.24
750.588	1700.67
750.773	1688.38
750.957	1655.61
751.141	1577.79
751.326	1631.04
751.51	1604.41
751.695	1655.61
751.879	1508.16
752.064	1712.96
752.248	1508.16
752.432	1694.52
752.617	1577.79
752.801	1577.79
752.985	1502.01
753.17	1626.94
753.354	1495.87
753.538	1598.27
753.722	1487.68
753.907	1477.44
754.091	1430.34
754.275	1454.91
754.459	1512.25
754.643	1450.82
754.828	1475.39
755.012	1385.28
755.196	1424.19
755.38	1461.06
755.564	1366.85
755.748	1325.89
755.932	1336.13
756.116	1428.29
756.3	1258.31
756.484	1237.83
756.668	1387.33
756.852	1336.13
757.036	1332.03
757.22	1434.43
757.404	1266.5
757.588	1319.75
757.772	1401.66
757.956	1372.99
758.14	1364.8
758.323	1106.76
758.507	1297.22
758.691	1196.87
758.875	1151.81
759.059	1213.25
759.242	1186.63
759.426	1198.92
759.61	1207.11
759.794	1250.11
759.977	1239.87
760.161	1192.77
760.345	1155.91
760.528	1110.85
760.712	1123.14
760.895	1092.42
761.079	1063.75
761.263	1010.5
761.446	1057.61
761.63	1176.39
761.813	1059.65
761.997	1084.23
762.18	1045.32
762.364	1086.28
762.547	1098.56
762.731	1020.74
762.914	1024.84
763.098	1065.8
763.281	1143.62
763.464	967.49
763.648	983.88
763.831	987.97
764.015	973.64
764.198	893.77
764.381	1076.04
764.564	1059.65
764.748	1047.37
764.931	1059.65
765.114	967.49
765.297	967.49
765.481	926.54
765.664	1088.32
765.847	992.07
766.03	1004.36
766.213	983.88
766.397	977.73
766.58	955.21
766.763	940.87
766.946	971.59
767.129	983.88
767.312	944.97
767.495	961.35
767.678	953.16
767.861	944.97
768.044	865.1
768.227	975.69
768.41	895.82
768.593	901.96
768.776	975.69
768.959	944.97
769.142	854.86
769.324	891.72
769.507	817.99
769.69	996.17
769.873	912.2
770.056	975.69
770.239	895.82
770.421	852.81
770.604	787.27
770.787	842.57
770.97	844.62
771.152	766.79
771.335	758.6
771.518	746.31
771.7	883.53
771.883	807.75
772.066	920.39
772.248	772.94
772.431	893.77
772.613	813.9
772.796	836.42
772.978	824.14
773.161	830.28
773.343	701.26
773.526	750.41
773.708	789.32
773.891	666.44
774.073	861
774.256	740.17
774.438	729.93
774.621	695.11
774.803	766.79
774.985	777.03
775.168	762.7
775.35	797.51
775.532	674.64
775.715	770.89
775.897	672.59
776.079	752.46
776.261	795.47
776.444	734.03
776.626	688.97
776.808	719.69
776.99	666.44
777.173	664.4
777.355	662.35
777.537	621.39
777.719	672.59
777.901	623.44
778.083	572.24
778.265	686.92
778.447	713.55
778.629	594.76
778.811	549.71
778.993	625.48
779.175	650.06
779.357	656.2
779.539	617.29
779.721	484.17
779.903	551.76
780.085	492.37
780.267	625.48
780.449	531.28
780.631	627.53
780.812	562
780.994	562
781.176	580.43
781.358	527.18
781.54	623.44
781.721	523.09
781.903	549.71
782.085	543.57
782.267	559.95
782.448	445.26
782.63	437.07
782.812	508.75
782.993	607.05
783.175	584.52
783.357	410.45
783.538	557.9
783.72	494.41
783.901	410.45
784.083	500.56
784.264	453.45
784.446	373.58
784.627	400.21
784.809	475.98
784.99	404.3
785.172	508.75
785.353	480.08
785.535	424.78
785.716	480.08
785.897	398.16
786.079	480.08
786.26	428.88
786.441	410.45
786.623	430.93
786.804	432.97
786.985	394.06
787.167	469.84
787.348	353.1
787.529	414.54
787.71	396.11
787.891	435.02
788.073	369.49
788.254	404.3
788.435	385.87
788.616	435.02
788.797	349.01
788.978	445.26
789.159	373.58
789.34	363.34
789.522	287.57
789.703	410.45
789.884	359.25
790.065	365.39
790.246	344.91
790.427	295.76
790.607	361.3
790.788	426.83
790.969	297.81
791.15	271.19
791.331	406.35
791.512	320.34
791.693	396.11
791.874	353.1
792.054	297.81
792.235	363.34
792.416	306
792.597	324.43
792.778	379.73
792.958	330.58
793.139	322.38
793.32	279.38
793.5	244.56
793.681	361.3
793.862	375.63
794.042	340.82
794.223	209.75
794.404	275.28
794.584	238.42
794.765	228.18
794.945	295.76
795.126	287.57
795.306	336.72
795.487	287.57
795.667	306
795.848	209.75
796.028	308.05
796.209	265.04
796.389	228.18
796.57	316.24
796.75	238.42
796.93	320.34
797.111	217.94
797.291	275.28
797.471	254.8
797.652	256.85
797.832	232.27
798.012	299.86
798.192	191.31
798.373	238.42
798.553	281.43
798.733	181.07
798.913	236.37
799.093	277.33
799.274	234.32
799.454	275.28
799.634	142.16
799.814	338.77
799.994	265.04
800.174	248.66
800.354	197.46
800.534	189.27
800.714	242.51
800.894	197.46
801.074	213.84
801.254	199.51
801.434	219.99
801.614	230.23
801.794	197.46
801.974	680.78
802.154	156.5
802.334	254.8
802.514	234.32
802.693	322.38
802.873	207.7
803.053	238.42
803.233	271.19
803.413	226.13
803.592	199.51
803.772	191.31
803.952	269.14
804.131	248.66
804.311	258.9
804.491	260.95
804.67	224.08
804.85	183.12
805.03	172.88
805.209	140.12
805.389	160.59
805.568	205.65
805.748	150.36
805.928	119.64
806.107	217.94
806.287	142.16
806.466	269.14
806.646	101.2
806.825	189.27
807.004	201.55
807.184	189.27
807.363	176.98
807.543	193.36
807.722	191.31
807.901	211.79
808.081	189.27
808.26	260.95
808.439	166.74
808.619	193.36
808.798	156.5
808.977	166.74
809.156	133.97
809.336	142.16
809.515	172.88
809.694	68.44
809.873	160.59
810.052	205.65
810.231	203.6
810.411	183.12
810.59	99.16
810.769	127.83
810.948	90.96
811.127	117.59
811.306	123.73
811.485	90.96
811.664	217.94
811.843	142.16
812.022	201.55
812.201	131.92
812.38	217.94
812.559	129.88
812.737	115.54
812.916	68.44
813.095	80.72
813.274	119.64
813.453	127.83
813.632	127.83
813.811	119.64
813.989	224.08
814.168	93.01
814.347	154.45
814.526	123.73
814.704	140.12
814.883	123.73
815.062	86.87
815.24	162.64
815.419	60.24
815.598	68.44
815.776	25.43
815.955	109.4
816.133	25.43
816.312	121.68
816.49	95.06
816.669	107.35
816.847	125.78
817.026	131.92
817.204	41.81
817.383	185.17
817.561	58.2
817.74	138.07
817.918	99.16
818.097	52.05
818.275	140.12
818.453	150.36
818.632	109.4
818.81	140.12
818.988	133.97
819.167	109.4
819.345	74.58
819.523	82.77
819.701	129.88
819.879	107.35
820.058	99.16
820.236	9.05
820.414	95.06
820.592	9.05
820.77	41.81
820.948	93.01
821.127	50
821.305	90.96
821.483	131.92
821.661	84.82
821.839	74.58
822.017	50
822.195	107.35
822.373	152.4
822.551	82.77
822.729	82.77
822.907	60.24
823.085	144.21
823.262	111.44
823.44	33.62
823.618	17.24
823.796	58.2
823.974	62.29
824.152	54.1
824.329	95.06
824.507	99.16
824.685	82.77
824.863	58.2
825.04	117.59
825.218	82.77
825.396	74.58
825.574	70.48
825.751	103.25
825.929	115.54
826.107	70.48
826.284	50
826.462	68.44
826.639	150.36
826.817	99.16
826.994	43.86
827.172	58.2
827.349	138.07
827.527	33.62
827.704	35.67
827.882	95.06
828.059	33.62
828.237	99.16
828.414	107.35
828.591	-7.34
828.769	58.2
828.946	37.72
829.124	127.83
829.301	-36.01
829.478	97.11
829.655	25.43
829.833	166.74
830.01	-31.91
830.187	7
830.364	4.95
830.542	127.83
830.719	86.87
830.896	97.11
831.073	144.21
831.25	41.81
831.427	82.77
831.604	95.06
831.782	82.77
831.959	58.2
832.136	35.67
832.313	150.36
832.49	41.81
832.667	99.16
832.844	47.96
833.021	66.39
833.198	19.29
833.374	-66.73
833.551	101.2
833.728	70.48
833.905	142.16
834.082	52.05
834.259	78.68
834.436	140.12
834.612	56.15
834.789	142.16
834.966	4.95
835.143	50
835.319	27.48
835.496	52.05
835.673	45.91
835.85	111.44
836.026	74.58
836.203	66.39
836.38	-23.72
836.556	76.63
836.733	60.24
836.909	25.43
837.086	60.24
837.262	80.72
837.439	4.95
837.616	-3.24
837.792	33.62
837.968	60.24
838.145	-31.91
838.321	50
838.498	76.63
838.674	27.48
838.851	41.81
839.027	13.14
839.203	95.06
839.38	66.39
839.556	15.19
839.732	47.96
839.909	0.85
840.085	93.01
840.261	25.43
840.437	66.39
840.614	62.29
840.79	60.24
840.966	0.85
841.142	107.35
841.318	2.9
841.494	90.96
841.671	17.24
841.847	41.81
842.023	90.96
842.199	72.53
842.375	0.85
842.551	109.4
842.727	11.09
842.903	25.43
843.079	82.77
843.255	52.05
843.431	27.48
843.607	-7.34
843.783	-42.15
843.959	0.85
844.134	54.1
844.31	27.48
844.486	52.05
844.662	35.67
844.838	21.33
845.013	52.05
845.189	-23.72
845.365	23.38
845.541	0.85
845.716	62.29
845.892	-31.91
846.068	-15.53
846.244	4.95
846.419	54.1
846.595	0.85
846.77	-5.29
846.946	50
847.122	95.06
847.297	-1.19
847.473	25.43
847.648	-1.19
847.824	19.29
847.999	21.33
848.175	-7.34
848.35	47.96
848.526	50
848.701	50
848.876	62.29
849.052	33.62
849.227	90.96
849.403	-111.78
849.578	33.62
849.753	-31.91
849.929	66.39
850.104	-62.63
850.279	4.95
850.454	9.05
850.63	25.43
850.805	11.09
850.98	86.87
851.155	37.72
851.33	11.09
851.505	-19.63
851.681	76.63
851.856	-46.25
852.031	43.86
852.206	-11.43
852.381	-40.11
852.556	52.05
852.731	35.67
852.906	7
853.081	31.57
853.256	-38.06
853.431	41.81
853.606	-7.34
853.781	-40.11
853.956	-23.72
854.131	-46.25
854.305	21.33
854.48	2.9
854.655	35.67
854.83	9.05
855.005	-76.97
855.18	-5.29
855.354	45.91
855.529	60.24
855.704	25.43
855.879	0.85
856.053	-17.58
856.228	17.24
856.403	-40.11
856.577	11.09
856.752	-38.06
856.926	15.19
857.101	-42.15
857.276	13.14
857.45	-42.15
857.625	-19.63
857.799	45.91
857.974	52.05
858.148	-36.01
858.323	13.14
858.497	-21.67
858.672	17.24
858.846	-1.19
859.02	50
859.195	-72.87
859.369	-15.53
859.543	-68.78
859.718	9.05
859.892	41.81
860.066	-23.72
860.241	-48.3
860.415	4.95
860.589	52.05
860.763	43.86
860.938	2.9
861.112	54.1
861.286	21.33
861.46	-23.72
861.634	9.05
861.808	50
861.982	-58.54
862.157	-62.63
862.331	-17.58
862.505	37.72
862.679	9.05
862.853	29.52
863.027	9.05
863.201	9.05
863.375	62.29
863.549	-21.67
863.722	-70.83
863.896	54.1
864.07	-11.43
864.244	9.05
864.418	-23.72
864.592	-11.43
864.766	-64.68
864.939	29.52
865.113	-48.3
865.287	-31.91
865.461	-15.53
865.634	0.85
865.808	9.05
865.982	-56.49
866.156	2.9
866.329	-54.44
866.503	-15.53
866.676	62.29
866.85	-3.24
867.024	-97.45
867.197	-40.11
867.371	-56.49
867.544	-21.67
867.718	-11.43
867.891	50
868.065	-15.53
868.238	-40.11
868.412	109.4
868.585	-31.91
868.759	-60.59
868.932	-91.31
869.105	-19.63
869.279	-27.82
869.452	0.85
869.625	4.95
869.799	41.81
869.972	-23.72
870.145	-31.91
870.319	4.95
870.492	47.96
870.665	-5.29
870.838	-29.87
871.011	-54.44
871.185	9.05
871.358	-97.45
871.531	54.1
871.704	0.85
871.877	-23.72
872.05	-56.49
872.223	-38.06
872.396	-70.83
872.569	23.38
872.742	2.9
872.915	-46.25
873.088	-15.53
873.261	-19.63
873.434	-5.29
873.607	25.43
873.78	-117.93
873.953	17.24
874.126	37.72
874.299	19.29
874.471	-68.78
874.644	-27.82
874.817	19.29
874.99	-19.63
875.163	-23.72
875.335	-29.87
875.508	-23.72
875.681	-23.72
875.853	15.19
876.026	-15.53
876.199	-36.01
876.371	-5.29
876.544	-54.44
876.717	-54.44
876.889	-38.06
877.062	27.48
877.234	-17.58
877.407	-54.44
877.579	19.29
877.752	-17.58
877.924	-3.24
878.097	2.9
878.269	-29.87
878.442	17.24
878.614	-40.11
878.786	-81.07
878.959	0.85
879.131	-11.43
879.303	-5.29
879.476	-44.2
879.648	9.05
879.82	-5.29
879.993	11.09
880.165	-54.44
880.337	-54.44
880.509	-38.06
880.681	-72.87
880.854	-3.24
881.026	-111.78
881.198	103.25
881.37	17.24
881.542	17.24
881.714	-54.44
881.886	-46.25
882.058	-36.01
882.23	-17.58
882.402	-56.49
882.574	-62.63
882.746	-11.43
882.918	9.05
883.09	41.81
883.262	31.57
883.434	11.09
883.606	35.67
883.778	-21.67
883.95	35.67
884.122	-1.19
884.293	17.24
884.465	-48.3
884.637	4.95
884.809	-52.39
884.98	-13.48
885.152	74.58
885.324	-29.87
885.496	-21.67
885.667	-36.01
885.839	-25.77
886.011	148.31
886.182	66.39
886.354	13.14
886.525	47.96
886.697	-31.91
886.869	-58.54
887.04	43.86
887.212	39.76
887.383	-64.68
887.555	-81.07
887.726	-19.63
887.897	25.43
888.069	-29.87
888.24	27.48
888.412	-27.82
888.583	-40.11
888.754	60.24
888.926	35.67
889.097	17.24
889.268	-33.96
889.44	-17.58
889.611	9.05
889.782	-48.3
889.953	19.29
890.125	25.43
890.296	-38.06
890.467	-91.31
890.638	-44.2
890.809	-11.43
890.98	-29.87
891.151	-23.72
891.323	-54.44
891.494	-3.24
891.665	-40.11
891.836	-29.87
892.007	-19.63
892.178	-56.49
892.349	-52.39
892.52	-44.2
892.691	-50.35
892.862	29.52
893.032	-21.67
893.203	-1.19
893.374	7
893.545	45.91
893.716	-25.77
893.887	0.85
894.057	-15.53
894.228	-21.67
894.399	-46.25
894.57	17.24
894.74	33.62
894.911	4.95
895.082	33.62
895.253	-38.06
895.423	21.33
895.594	-9.39
895.764	-56.49
895.935	64.34
896.106	-15.53
896.276	4.95
896.447	17.24
896.617	29.52
896.788	-81.07
896.958	-23.72
897.129	-97.45
897.299	-89.26
897.47	-15.53
897.64	0.85
897.81	23.38
897.981	-46.25
898.151	-7.34
898.322	-25.77
898.492	-21.67
898.662	-31.91
898.832	-31.91
899.003	27.48
899.173	-33.96
899.343	-44.2
899.513	-1.19
