Data from USB4F104151__179__14-20-06-375.txt Node

Date: Thu Mar 13 14:20:06 EDT 2025
User: louis
Spectrometer: USB4F10415
Trigger mode: 4
Integration Time (sec): 2.000000E-2
Scans to average: 1
Electric dark correction enabled: true
Nonlinearity correction enabled: false
Boxcar width: 0
XAxis mode: Wavelengths
Number of Pixels in Spectrum: 3648
>>>>>Begin Spectral Data<<<<<
178.204	-138.75
178.424	-138.75
178.644	-138.75
178.864	-148.99
179.084	-148.99
179.304	-24.06
179.524	16.9
179.744	-24.06
179.964	8.7
180.184	-22.02
180.404	-19.97
180.624	25.09
180.844	-34.3
181.064	2.56
181.283	-5.63
181.503	25.09
181.723	51.71
181.943	-89.6
182.163	107.01
182.383	-15.87
182.602	35.33
182.822	51.71
183.042	-32.26
183.262	23.04
183.482	-32.26
183.701	-38.4
183.921	41.47
184.141	-19.97
184.361	74.24
184.58	18.94
184.8	107.01
185.02	-24.06
185.239	57.86
185.459	-38.4
185.679	78.33
185.898	27.14
186.118	49.66
186.338	55.81
186.557	49.66
186.777	2.56
186.997	-48.64
187.216	35.33
187.436	98.81
187.655	84.48
187.875	20.99
188.095	-52.74
188.314	107.01
188.534	25.09
188.753	-5.63
188.973	-24.06
189.192	98.81
189.412	47.62
189.631	29.18
189.851	35.33
190.07	66.05
190.29	-46.59
190.509	117.25
190.729	-46.59
190.948	31.23
191.168	98.81
191.387	37.38
191.607	49.66
191.826	76.29
192.045	86.53
192.265	14.85
192.484	-3.58
192.704	12.8
192.923	-11.78
193.142	80.38
193.362	27.14
193.581	37.38
193.8	59.9
194.02	102.91
194.239	12.8
194.458	31.23
194.678	43.52
194.897	43.52
195.116	20.99
195.335	35.33
195.555	41.47
195.774	55.81
195.993	43.52
196.212	-40.45
196.432	-46.59
196.651	-22.02
196.87	49.66
197.089	147.97
197.308	-24.06
197.528	98.81
197.747	-32.26
197.966	86.53
198.185	37.38
198.404	64
198.623	16.9
198.842	41.47
199.062	10.75
199.281	55.81
199.5	-26.11
199.719	64
199.938	82.43
200.157	57.86
200.376	33.28
200.595	74.24
200.814	4.61
201.033	41.47
201.252	23.04
201.471	-5.63
201.69	49.66
201.909	25.09
202.128	2.56
202.347	0.51
202.566	49.66
202.785	51.71
203.004	-15.87
203.223	66.05
203.442	16.9
203.661	35.33
203.879	25.09
204.098	102.91
204.317	33.28
204.536	49.66
204.755	45.57
204.974	29.18
205.193	20.99
205.411	117.25
205.63	-9.73
205.849	27.14
206.068	59.9
206.287	25.09
206.505	20.99
206.724	41.47
206.943	53.76
207.162	43.52
207.381	29.18
207.599	-9.73
207.818	61.95
208.037	-52.74
208.255	-7.68
208.474	-13.82
208.693	23.04
208.911	68.09
209.13	90.62
209.349	8.7
209.567	25.09
209.786	4.61
210.005	98.81
210.223	4.61
210.442	-22.02
210.661	-48.64
210.879	49.66
211.098	-52.74
211.316	6.66
211.535	107.01
211.753	20.99
211.972	2.56
212.191	-13.82
212.409	74.24
212.628	16.9
212.846	27.14
213.065	39.42
213.283	-65.02
213.502	33.28
213.72	66.05
213.938	37.38
214.157	49.66
214.375	66.05
214.594	-22.02
214.812	64
215.031	47.62
215.249	-56.83
215.467	-7.68
215.686	78.33
215.904	49.66
216.122	-54.78
216.341	76.29
216.559	-5.63
216.778	123.39
216.996	2.56
217.214	45.57
217.432	12.8
217.651	43.52
217.869	43.52
218.087	27.14
218.306	59.9
218.524	-30.21
218.742	-36.35
218.96	74.24
219.179	10.75
219.397	8.7
219.615	18.94
219.833	35.33
220.051	4.61
220.27	49.66
220.488	37.38
220.706	8.7
220.924	20.99
221.142	-28.16
221.36	18.94
221.578	25.09
221.796	68.09
222.015	35.33
222.233	-54.78
222.451	23.04
222.669	-5.63
222.887	-24.06
223.105	-26.11
223.323	16.9
223.541	18.94
223.759	16.9
223.977	-22.02
224.195	92.67
224.413	49.66
224.631	-1.54
224.849	-40.45
225.067	74.24
225.285	41.47
225.503	53.76
225.721	20.99
225.939	66.05
226.157	51.71
226.375	74.24
226.592	-15.87
226.81	0.51
227.028	84.48
227.246	92.67
227.464	49.66
227.682	27.14
227.9	66.05
228.117	74.24
228.335	59.9
228.553	76.29
228.771	16.9
228.989	10.75
229.206	27.14
229.424	-13.82
229.642	16.9
229.86	-9.73
230.077	94.72
230.295	66.05
230.513	64
230.731	35.33
230.948	16.9
231.166	43.52
231.384	25.09
231.601	-22.02
231.819	0.51
232.037	43.52
232.254	57.86
232.472	0.51
232.689	88.57
232.907	147.97
233.125	23.04
233.342	4.61
233.56	45.57
233.777	61.95
233.995	8.7
234.213	2.56
234.43	-44.54
234.648	66.05
234.865	-7.68
235.083	76.29
235.3	-19.97
235.518	31.23
235.735	-5.63
235.953	47.62
236.17	39.42
236.388	12.8
236.605	41.47
236.822	102.91
237.04	18.94
237.257	59.9
237.475	41.47
237.692	33.28
237.909	25.09
238.127	-19.97
238.344	18.94
238.562	51.71
238.779	-22.02
238.996	20.99
239.214	31.23
239.431	74.24
239.648	-38.4
239.865	102.91
240.083	2.56
240.3	27.14
240.517	29.18
240.735	33.28
240.952	25.09
241.169	57.86
241.386	-24.06
241.603	-13.82
241.821	4.61
242.038	100.86
242.255	41.47
242.472	25.09
242.689	12.8
242.907	-7.68
243.124	-26.11
243.341	33.28
243.558	-5.63
243.775	25.09
243.992	-69.12
244.209	-13.82
244.426	147.97
244.643	68.09
244.86	16.9
245.078	20.99
245.295	12.8
245.512	25.09
245.729	18.94
245.946	16.9
246.163	64
246.38	29.18
246.597	45.57
246.814	70.14
247.031	2.56
247.248	86.53
247.464	92.67
247.681	-5.63
247.898	121.34
248.115	41.47
248.332	-38.4
248.549	41.47
248.766	96.77
248.983	37.38
249.2	-7.68
249.417	0.51
249.633	33.28
249.85	115.2
250.067	-52.74
250.284	12.8
250.501	12.8
250.717	117.25
250.934	-32.26
251.151	37.38
251.368	53.76
251.585	-5.63
251.801	102.91
252.018	-1.54
252.235	117.25
252.451	49.66
252.668	119.29
252.885	127.49
253.102	2.56
253.318	-38.4
253.535	-1.54
253.752	-40.45
253.968	31.23
254.185	-87.55
254.401	18.94
254.618	57.86
254.835	27.14
255.051	86.53
255.268	41.47
255.484	18.94
255.701	25.09
255.917	33.28
256.134	-44.54
256.351	-32.26
256.567	31.23
256.784	82.43
257	-54.78
257.217	43.52
257.433	14.85
257.65	68.09
257.866	43.52
258.082	-7.68
258.299	49.66
258.515	20.99
258.732	94.72
258.948	12.8
259.165	16.9
259.381	-40.45
259.597	-15.87
259.814	-13.82
260.03	41.47
260.246	-22.02
260.463	10.75
260.679	2.56
260.895	109.05
261.112	59.9
261.328	-19.97
261.544	31.23
261.761	92.67
261.977	8.7
262.193	-73.21
262.409	82.43
262.626	35.33
262.842	20.99
263.058	-36.35
263.274	82.43
263.49	78.33
263.707	27.14
263.923	16.9
264.139	2.56
264.355	33.28
264.571	37.38
264.787	14.85
265.004	29.18
265.22	37.38
265.436	107.01
265.652	-7.68
265.868	82.43
266.084	23.04
266.3	76.29
266.516	57.86
266.732	84.48
266.948	-71.17
267.164	45.57
267.38	-73.21
267.596	2.56
267.812	35.33
268.028	29.18
268.244	29.18
268.46	70.14
268.676	2.56
268.892	51.71
269.108	16.9
269.324	-11.78
269.54	82.43
269.756	88.57
269.972	-87.55
270.188	-22.02
270.403	-7.68
270.619	96.77
270.835	43.52
271.051	2.56
271.267	23.04
271.483	-50.69
271.698	35.33
271.914	33.28
272.13	-15.87
272.346	57.86
272.562	18.94
272.777	88.57
272.993	-79.36
273.209	90.62
273.425	35.33
273.64	49.66
273.856	25.09
274.072	-5.63
274.287	16.9
274.503	-13.82
274.719	43.52
274.934	49.66
275.15	-24.06
275.366	2.56
275.581	31.23
275.797	25.09
276.012	-17.92
276.228	53.76
276.444	-24.06
276.659	31.23
276.875	12.8
277.09	8.7
277.306	29.18
277.521	51.71
277.737	-15.87
277.952	0.51
278.168	41.47
278.383	20.99
278.599	-7.68
278.814	66.05
279.03	-7.68
279.245	72.19
279.461	31.23
279.676	57.86
279.892	49.66
280.107	-28.16
280.322	10.75
280.538	107.01
280.753	27.14
280.969	33.28
281.184	-15.87
281.399	70.14
281.615	49.66
281.83	59.9
282.045	4.61
282.26	29.18
282.476	-40.45
282.691	82.43
282.906	-24.06
283.122	23.04
283.337	-1.54
283.552	43.52
283.767	-13.82
283.983	47.62
284.198	25.09
284.413	37.38
284.628	2.56
284.843	18.94
285.058	92.67
285.274	-5.63
285.489	25.09
285.704	70.14
285.919	-32.26
286.134	133.63
286.349	0.51
286.564	25.09
286.779	16.9
286.995	35.33
287.21	14.85
287.425	41.47
287.64	2.56
287.855	55.81
288.07	-5.63
288.285	43.52
288.5	0.51
288.715	131.58
288.93	-17.92
289.145	25.09
289.36	70.14
289.575	49.66
289.79	-24.06
290.004	78.33
290.219	-7.68
290.434	45.57
290.649	68.09
290.864	16.9
291.079	16.9
291.294	-60.93
291.509	49.66
291.724	59.9
291.938	94.72
292.153	68.09
292.368	-5.63
292.583	107.01
292.798	64
293.012	66.05
293.227	8.7
293.442	47.62
293.657	82.43
293.871	174.59
294.086	-44.54
294.301	37.38
294.516	61.95
294.73	76.29
294.945	57.86
295.16	33.28
295.374	-34.3
295.589	88.57
295.804	35.33
296.018	33.28
296.233	57.86
296.447	66.05
296.662	33.28
296.877	8.7
297.091	18.94
297.306	39.42
297.52	0.51
297.735	37.38
297.949	45.57
298.164	68.09
298.378	0.51
298.593	8.7
298.807	-40.45
299.022	66.05
299.236	31.23
299.451	78.33
299.665	51.71
299.88	33.28
300.094	82.43
300.309	37.38
300.523	70.14
300.737	18.94
300.952	6.66
301.166	-24.06
301.381	-3.58
301.595	25.09
301.809	4.61
302.024	16.9
302.238	8.7
302.452	-42.5
302.667	90.62
302.881	92.67
303.095	45.57
303.309	18.94
303.524	-22.02
303.738	35.33
303.952	-7.68
304.166	27.14
304.381	41.47
304.595	88.57
304.809	18.94
305.023	70.14
305.237	47.62
305.452	-7.68
305.666	18.94
305.88	61.95
306.094	0.51
306.308	31.23
306.522	27.14
306.736	8.7
306.95	92.67
307.164	41.47
307.379	33.28
307.593	117.25
307.807	-17.92
308.021	37.38
308.235	37.38
308.449	51.71
308.663	-32.26
308.877	49.66
309.091	8.7
309.305	49.66
309.519	70.14
309.733	-5.63
309.947	-7.68
310.161	31.23
310.374	-3.58
310.588	41.47
310.802	-7.68
311.016	16.9
311.23	57.86
311.444	-5.63
311.658	25.09
311.872	66.05
312.085	25.09
312.299	33.28
312.513	43.52
312.727	8.7
312.941	45.57
313.154	-7.68
313.368	-30.21
313.582	20.99
313.796	37.38
314.009	70.14
314.223	41.47
314.437	74.24
314.651	-15.87
314.864	41.47
315.078	-11.78
315.292	-19.97
315.505	66.05
315.719	-22.02
315.933	41.47
316.146	59.9
316.36	4.61
316.573	119.29
316.787	74.24
317.001	51.71
317.214	16.9
317.428	45.57
317.641	107.01
317.855	37.38
318.068	92.67
318.282	90.62
318.495	107.01
318.709	94.72
318.922	29.18
319.136	72.19
319.349	123.39
319.563	66.05
319.776	-26.11
319.99	23.04
320.203	29.18
320.417	2.56
320.63	16.9
320.843	74.24
321.057	33.28
321.27	94.72
321.483	92.67
321.697	20.99
321.91	-9.73
322.124	37.38
322.337	-42.5
322.55	14.85
322.763	78.33
322.977	57.86
323.19	-30.21
323.403	8.7
323.617	8.7
323.83	76.29
324.043	-42.5
324.256	0.51
324.469	82.43
324.683	43.52
324.896	-15.87
325.109	74.24
325.322	14.85
325.535	117.25
325.748	66.05
325.962	49.66
326.175	74.24
326.388	33.28
326.601	111.1
326.814	84.48
327.027	-3.58
327.24	41.47
327.453	-22.02
327.666	74.24
327.879	66.05
328.092	53.76
328.305	72.19
328.518	-22.02
328.731	4.61
328.944	18.94
329.157	45.57
329.37	84.48
329.583	109.05
329.796	-5.63
330.009	-3.58
330.222	57.86
330.435	53.76
330.648	76.29
330.861	66.05
331.073	-32.26
331.286	55.81
331.499	127.49
331.712	88.57
331.925	20.99
332.138	41.47
332.35	25.09
332.563	37.38
332.776	98.81
332.989	53.76
333.202	2.56
333.414	37.38
333.627	53.76
333.84	-7.68
334.053	104.96
334.265	20.99
334.478	-32.26
334.691	16.9
334.903	49.66
335.116	27.14
335.329	-19.97
335.541	51.71
335.754	27.14
335.966	25.09
336.179	53.76
336.392	49.66
336.604	-19.97
336.817	57.86
337.029	57.86
337.242	53.76
337.454	-5.63
337.667	41.47
337.88	98.81
338.092	72.19
338.305	74.24
338.517	45.57
338.729	84.48
338.942	31.23
339.154	45.57
339.367	29.18
339.579	51.71
339.792	-30.21
340.004	-24.06
340.217	-22.02
340.429	45.57
340.641	10.75
340.854	33.28
341.066	47.62
341.278	16.9
341.491	57.86
341.703	18.94
341.915	-67.07
342.128	82.43
342.34	-22.02
342.552	39.42
342.764	33.28
342.977	96.77
343.189	72.19
343.401	107.01
343.613	-15.87
343.826	55.81
344.038	27.14
344.25	82.43
344.462	25.09
344.674	31.23
344.886	80.38
345.099	55.81
345.311	33.28
345.523	-9.73
345.735	76.29
345.947	-1.54
346.159	25.09
346.371	90.62
346.583	49.66
346.795	135.68
347.007	35.33
347.219	141.82
347.431	33.28
347.643	150.01
347.855	12.8
348.067	113.15
348.279	-40.45
348.491	49.66
348.703	39.42
348.915	49.66
349.127	51.71
349.339	41.47
349.551	-17.92
349.763	98.81
349.975	-5.63
350.187	8.7
350.399	51.71
350.61	27.14
350.822	-7.68
351.034	29.18
351.246	-5.63
351.458	59.9
351.669	47.62
351.881	92.67
352.093	131.58
352.305	84.48
352.517	70.14
352.728	49.66
352.94	16.9
353.152	61.95
353.363	29.18
353.575	-50.69
353.787	117.25
353.999	74.24
354.21	80.38
354.422	0.51
354.633	33.28
354.845	61.95
355.057	10.75
355.268	31.23
355.48	80.38
355.692	-15.87
355.903	47.62
356.115	16.9
356.326	-15.87
356.538	53.76
356.749	35.33
356.961	84.48
357.172	39.42
357.384	18.94
357.595	172.54
357.807	18.94
358.018	57.86
358.23	49.66
358.441	107.01
358.653	20.99
358.864	107.01
359.075	4.61
359.287	41.47
359.498	86.53
359.709	98.81
359.921	29.18
360.132	20.99
360.344	94.72
360.555	2.56
360.766	25.09
360.977	25.09
361.189	137.73
361.4	20.99
361.611	29.18
361.823	66.05
362.034	18.94
362.245	27.14
362.456	20.99
362.667	-19.97
362.879	41.47
363.09	4.61
363.301	10.75
363.512	-54.78
363.723	31.23
363.935	6.66
364.146	68.09
364.357	4.61
364.568	51.71
364.779	-7.68
364.99	27.14
365.201	37.38
365.412	12.8
365.623	70.14
365.834	-22.02
366.045	43.52
366.256	98.81
366.467	92.67
366.678	16.9
366.889	-11.78
367.1	16.9
367.311	49.66
367.522	76.29
367.733	16.9
367.944	90.62
368.155	10.75
368.366	117.25
368.577	133.63
368.788	68.09
368.999	43.52
369.209	66.05
369.42	109.05
369.631	68.09
369.842	94.72
370.053	4.61
370.264	68.09
370.474	51.71
370.685	33.28
370.896	0.51
371.107	-13.82
371.317	84.48
371.528	12.8
371.739	90.62
371.95	25.09
372.16	164.35
372.371	-1.54
372.582	27.14
372.792	41.47
373.003	10.75
373.214	29.18
373.424	98.81
373.635	45.57
373.846	18.94
374.056	80.38
374.267	33.28
374.477	41.47
374.688	41.47
374.898	74.24
375.109	86.53
375.319	27.14
375.53	49.66
375.74	57.86
375.951	12.8
376.161	25.09
376.372	82.43
376.582	-5.63
376.793	92.67
377.003	25.09
377.214	8.7
377.424	61.95
377.635	61.95
377.845	43.52
378.055	125.44
378.266	49.66
378.476	57.86
378.686	74.24
378.897	16.9
379.107	16.9
379.317	74.24
379.528	20.99
379.738	74.24
379.948	20.99
380.158	12.8
380.369	49.66
380.579	-3.58
380.789	2.56
380.999	33.28
381.21	39.42
381.42	27.14
381.63	61.95
381.84	150.01
382.05	72.19
382.261	84.48
382.471	139.77
382.681	41.47
382.891	123.39
383.101	25.09
383.311	39.42
383.521	68.09
383.731	90.62
383.941	102.91
384.151	111.1
384.361	33.28
384.571	-19.97
384.781	53.76
384.991	115.2
385.201	102.91
385.411	53.76
385.621	135.68
385.831	53.76
386.041	25.09
386.251	82.43
386.461	109.05
386.671	82.43
386.881	37.38
387.091	33.28
387.301	74.24
387.511	84.48
387.72	14.85
387.93	84.48
388.14	-24.06
388.35	74.24
388.56	49.66
388.769	109.05
388.979	127.49
389.189	14.85
389.399	45.57
389.609	20.99
389.818	31.23
390.028	41.47
390.238	6.66
390.447	66.05
390.657	90.62
390.867	115.2
391.076	39.42
391.286	49.66
391.496	8.7
391.705	94.72
391.915	84.48
392.125	74.24
392.334	90.62
392.544	107.01
392.753	61.95
392.963	8.7
393.172	-22.02
393.382	49.66
393.591	115.2
393.801	125.44
394.01	139.77
394.22	135.68
394.429	51.71
394.639	53.76
394.848	43.52
395.058	57.86
395.267	74.24
395.477	37.38
395.686	53.76
395.895	180.73
396.105	100.86
396.314	86.53
396.524	31.23
396.733	111.1
396.942	147.97
397.152	70.14
397.361	127.49
397.57	143.87
397.78	49.66
397.989	190.97
398.198	215.55
398.407	127.49
398.617	127.49
398.826	66.05
399.035	107.01
399.244	121.34
399.453	158.21
399.663	150.01
399.872	172.54
400.081	109.05
400.29	139.77
400.499	49.66
400.708	131.58
400.917	94.72
401.127	133.63
401.336	100.86
401.545	201.21
401.754	162.3
401.963	41.47
402.172	102.91
402.381	150.01
402.59	158.21
402.799	197.12
403.008	154.11
403.217	141.82
403.426	172.54
403.635	141.82
403.844	127.49
404.053	190.97
404.262	190.97
404.471	154.11
404.68	143.87
404.888	139.77
405.097	139.77
405.306	174.59
405.515	180.73
405.724	164.35
405.933	119.29
406.142	207.36
406.35	152.06
406.559	154.11
406.768	240.12
406.977	270.84
407.185	197.12
407.394	201.21
407.603	289.28
407.812	197.12
408.02	254.46
408.229	221.69
408.438	152.06
408.646	233.98
408.855	258.56
409.064	219.64
409.272	299.52
409.481	352.76
409.69	260.6
409.898	285.18
410.107	352.76
410.315	305.66
410.524	320
410.733	397.82
410.941	385.53
411.15	338.43
411.358	403.96
411.567	453.11
411.775	487.93
411.984	434.68
412.192	410.11
412.401	530.94
412.609	559.61
412.818	541.18
413.026	518.65
413.234	459.26
413.443	508.41
413.651	508.41
413.86	664.05
414.068	651.77
414.276	682.49
414.485	659.96
414.693	676.34
414.901	805.36
415.11	760.31
415.318	713.21
415.526	741.88
415.734	811.51
415.943	745.97
416.151	899.57
416.359	823.8
416.567	1008.11
416.776	952.82
416.984	1026.54
417.192	975.35
417.4	997.87
417.608	1114.61
417.817	1061.36
418.025	1212.91
418.233	1303.02
418.441	1214.96
418.649	1286.64
418.857	1411.56
419.065	1499.63
419.273	1434.09
419.481	1520.1
419.689	1481.19
419.897	1538.54
420.105	1573.35
420.313	1663.46
420.521	1745.38
420.729	1729
420.937	1747.43
421.145	1796.58
421.353	1941.99
421.561	2073.06
421.769	2097.63
421.977	2292.19
422.185	2171.36
422.393	2179.55
422.601	2421.21
422.809	2382.3
423.017	2370.01
423.224	2576.86
423.432	2611.67
423.64	2683.35
423.848	2951.63
424.056	2722.26
424.263	3004.88
424.471	3054.03
424.679	2953.68
424.887	3310.03
425.094	3279.31
425.302	3359.18
425.51	3391.95
425.718	3559.88
425.925	3719.62
426.133	3844.55
426.341	4008.39
426.548	4200.9
426.756	4106.69
426.964	4284.86
427.171	4485.56
427.379	4368.83
427.586	4622.78
427.794	4796.85
428.001	4952.5
428.209	5159.35
428.417	5122.48
428.624	5517.74
428.832	5433.77
429.039	5521.84
429.247	5278.13
429.454	5966.24
429.662	6506.91
429.869	5900.71
430.076	6357.41
430.284	6218.15
430.491	6492.57
430.699	6961.56
430.906	6693.27
431.114	6982.04
431.321	7170.45
431.528	7322
431.736	7901.58
431.943	8071.56
432.15	7743.88
432.358	7911.82
432.565	8487.29
432.772	8429.95
432.979	8868.22
433.187	8917.37
433.394	9183.6
433.601	9812.33
433.808	9750.89
434.016	9462.13
434.223	9959.78
434.43	10649.95
434.637	10520.93
434.844	10946.9
435.052	10928.47
435.259	11059.54
435.466	11231.57
435.673	11235.67
435.88	11694.41
436.087	12415.3
436.294	12366.15
436.501	12085.58
436.708	12310.85
436.915	12665.15
437.122	13216.05
437.329	13248.82
437.537	13701.42
437.743	13912.36
437.95	13988.14
438.157	14551.33
438.364	15022.36
438.571	15216.92
438.778	15206.68
438.985	16326.92
439.192	15886.61
439.399	16304.39
439.606	16032.01
439.813	17131.77
440.02	18071.79
440.227	17414.39
440.433	17484.02
440.64	17842.42
440.847	17858.8
441.054	18356.46
441.261	19661.01
441.467	19429.59
441.674	19759.31
441.881	20381.9
442.088	20316.36
442.294	19968.21
442.501	20963.52
442.708	21039.29
442.914	21887.15
443.121	22788.26
443.328	22151.34
443.534	23793.81
443.741	22904.99
443.948	22675.62
444.154	24526.99
444.361	24154.26
444.568	24565.9
444.774	24334.48
444.981	24719.49
445.187	25524.35
445.394	26523.76
445.6	26323.05
445.807	28962.89
446.013	27308.13
446.22	28020.82
446.426	29063.24
446.633	29245.51
446.839	30300.21
447.046	28747.85
447.252	30367.79
447.459	30685.23
447.665	30541.87
447.871	31545.37
448.078	33114.12
448.284	31359.01
448.491	32323.6
448.697	33632.25
448.903	33939.45
449.11	34363.38
449.316	33562.62
449.522	34336.76
449.728	35098.6
449.935	35276.77
450.141	35413.99
450.347	36274.13
450.553	34979.82
450.76	35342.31
450.966	36786.13
451.172	36507.6
451.378	37199.82
451.584	36751.31
451.791	37314.5
451.997	37566.4
452.203	38025.15
452.409	38260.66
452.615	37896.13
452.821	36560.85
453.027	35948.51
453.233	38084.54
453.44	36341.72
453.646	36898.76
453.852	37138.38
454.058	37689.28
454.264	36341.72
454.47	37400.52
454.676	36532.18
454.882	37695.42
455.088	34471.92
455.294	34914.28
455.5	35573.73
455.705	35844.06
455.911	34164.73
456.117	33679.36
456.323	33187.85
456.529	31346.72
456.735	33095.69
456.941	32247.83
457.147	31590.43
457.352	30593.07
457.558	30257.2
457.764	30474.29
457.97	29851.7
458.176	29087.81
458.381	29200.45
458.587	27713.63
458.793	27760.73
458.999	26581.1
459.204	28547.15
459.41	27635.8
459.616	25462.91
459.821	25825.4
460.027	25669.75
460.233	24907.91
460.438	24033.43
460.644	24223.89
460.85	22859.94
461.055	22649
461.261	22716.58
461.466	20859.07
461.672	20226.25
461.878	21868.72
462.083	20570.31
462.289	20082.89
462.494	20017.36
462.7	18770.15
462.905	18350.31
463.111	18878.69
463.316	19116.25
463.522	18602.21
463.727	18604.26
463.932	18579.68
464.138	18497.77
464.343	18383.08
464.549	17756.4
464.754	18571.49
464.959	18284.78
465.165	18499.81
465.37	17473.78
465.575	17015.04
465.781	17744.11
465.986	17881.33
466.191	17293.56
466.397	16795.9
466.602	15982.86
466.807	16593.15
467.012	16642.31
467.218	16546.05
467.423	16083.21
467.628	16527.62
467.833	16992.51
468.038	16402.69
468.244	16120.07
468.449	16679.17
468.654	16099.59
468.859	16001.29
469.064	16034.06
469.269	15178.01
469.474	15675.66
469.679	15751.44
469.885	15233.3
470.09	15388.95
470.295	15417.62
470.5	14948.64
470.705	15204.63
470.91	14600.48
471.115	14467.36
471.32	14852.38
471.525	14723.36
471.73	14420.26
471.935	14450.98
472.139	13717.81
472.344	14387.49
472.549	13988.14
472.754	13805.87
472.959	13533.49
473.164	13205.81
473.369	13136.18
473.574	13537.59
473.778	13230.39
473.983	13214.01
474.188	13287.73
474.393	12699.97
474.598	12898.62
474.802	12333.38
475.007	12613.95
475.212	12482.88
475.417	11993.42
475.621	12026.18
475.826	12106.06
476.031	11874.63
476.235	11616.59
476.44	11784.52
476.645	11471.18
476.849	11536.72
477.054	11497.81
477.259	11284.82
477.463	11239.76
477.668	10936.67
477.872	11196.76
478.077	10977.62
478.282	10602.85
478.486	10697.05
478.691	10518.88
478.895	10412.39
479.1	10289.51
479.304	10553.69
479.509	10142.05
479.713	10459.49
479.918	10113.38
480.122	9896.3
480.326	9978.22
480.531	9990.5
480.735	10017.13
480.94	9855.34
481.144	10183.01
481.348	9814.38
481.553	9820.52
481.757	9539.95
481.961	9920.87
482.166	9980.26
482.37	9781.61
482.574	9562.48
482.778	9589.1
482.983	9834.86
483.187	9595.25
483.391	9482.61
483.595	9605.49
483.8	9568.62
484.004	9554.29
484.208	9851.24
484.412	9535.85
484.616	9718.12
484.821	9763.18
485.025	9431.41
485.229	9630.06
485.433	9560.43
485.637	9621.87
485.841	9578.86
486.045	9605.49
486.249	9746.8
486.453	9412.98
486.657	9666.92
486.861	9705.84
487.065	9314.67
487.269	9628.01
487.473	9439.6
487.677	9511.28
487.881	9671.02
488.085	9480.56
488.289	9935.21
488.493	9574.77
488.697	9795.95
488.901	9654.64
489.105	9701.74
489.309	9916.78
489.512	9687.4
489.716	9677.16
489.92	9597.29
490.124	9933.16
490.328	9945.45
490.531	9943.4
490.735	9832.81
490.939	9982.31
491.143	10064.23
491.346	9892.2
491.55	9994.6
491.754	10070.37
491.958	10082.66
492.161	10094.95
492.365	10135.91
492.569	10013.03
492.772	10037.61
492.976	10148.2
493.18	10264.93
493.383	10408.29
493.587	10494.3
493.79	10371.43
493.994	10393.95
494.197	10570.08
494.401	10705.24
494.605	10479.97
494.808	10910.04
495.012	10701.15
495.215	10807.64
495.419	11057.5
495.622	10844.51
495.825	11178.33
496.029	11207
496.232	11338.07
496.436	11188.57
496.639	11630.93
496.843	11546.96
497.046	11774.28
497.249	11764.04
497.453	11796.81
497.656	11944.27
497.859	12138.82
498.063	12061
498.266	12437.83
498.469	12566.85
498.673	12579.14
498.876	12673.34
499.079	12837.18
499.282	12556.61
499.485	13066.55
499.689	13359.41
499.892	13320.5
500.095	13396.28
500.298	13588.78
500.501	13650.22
500.705	14160.17
500.908	13986.09
501.111	14264.61
501.314	14389.54
501.517	14340.39
501.72	14534.95
501.923	14620.96
502.126	14897.44
502.329	15294.74
502.532	15368.47
502.735	15329.56
502.938	15444.24
503.141	15810.83
503.344	16015.63
503.547	16060.68
503.75	16345.35
503.953	16425.22
504.156	16269.58
504.359	16437.51
504.562	16636.16
504.765	17090.81
504.968	17195.26
505.17	17623.28
505.373	17408.25
505.576	17660.15
505.779	17965.29
505.982	18149.61
506.185	18264.3
506.387	18702.56
506.59	18508.01
506.793	19341.53
506.996	18962.65
507.198	19648.72
507.401	19241.18
507.604	19722.45
507.807	20037.84
508.009	19970.26
508.212	20123.85
508.415	20480.2
508.617	20555.97
508.82	20762.82
509.022	20689.09
509.225	21350.59
509.428	21354.68
509.63	21602.49
509.833	21432.5
510.035	22257.84
510.238	21928.11
510.44	22233.26
510.643	22569.13
510.845	22784.16
511.048	23064.74
511.25	23187.61
511.453	23257.25
511.655	24068.24
511.858	23611.54
512.06	23931.03
512.262	24428.68
512.465	24287.37
512.667	24453.26
512.87	25006.21
513.072	25309.31
513.274	25438.33
513.477	25538.68
513.679	25792.63
513.881	26019.95
514.084	26218.61
514.286	26470.51
514.488	26650.73
514.69	27226.21
514.893	27398.24
515.095	27603.03
515.297	27543.64
515.499	27578.46
515.701	28016.72
515.904	28498
516.106	28733.51
516.308	28534.86
516.51	29235.27
516.712	29116.48
516.914	29225.03
517.116	29882.42
517.318	30160.95
517.52	30203.96
517.722	30029.88
517.925	30689.32
518.127	31021.09
518.329	30969.9
518.531	30947.37
518.733	31711.26
518.935	31756.32
519.136	31864.86
519.338	32378.9
519.54	32526.35
519.742	32610.32
519.944	32753.68
520.146	33208.33
520.348	33617.92
520.55	33652.73
520.752	33875.96
520.954	34258.93
521.155	34215.93
521.357	34701.29
521.559	35043.31
521.761	35143.66
521.963	35260.39
522.164	35483.62
522.366	34959.34
522.568	35739.61
522.77	36083.67
522.971	36763.6
523.173	36184.02
523.375	36630.48
523.576	36968.4
523.778	36911.05
523.98	37377.99
524.181	37547.97
524.383	37064.65
524.584	38064.06
524.786	38055.87
524.988	38080.44
525.189	38514.61
525.391	38299.58
525.592	38518.71
525.794	38832.05
525.995	38727.6
526.197	39069.61
526.398	38916.01
526.6	39071.66
526.801	39546.79
527.003	39278.5
527.204	39620.52
527.406	39792.54
527.607	39696.29
527.808	40144.8
528.01	39770.02
528.211	40394.65
528.412	40654.74
528.614	40314.78
528.815	40468.37
529.016	40812.43
529.218	40341.4
529.419	40630.16
529.62	40679.32
529.822	40603.54
530.023	40720.27
530.224	40753.04
530.425	40783.76
530.626	40529.81
530.828	40574.87
531.029	42041.21
531.23	41394.06
531.431	40972.17
531.632	41054.09
531.833	41258.89
532.035	41279.37
532.236	41076.62
532.437	41613.19
532.638	41244.55
532.839	41326.47
533.04	41549.7
533.241	40783.76
533.442	42078.08
533.643	41217.93
533.844	41058.19
534.045	41803.65
534.246	41291.66
534.447	41684.87
534.648	41817.99
534.849	41676.68
535.05	41652.1
535.251	41414.54
535.451	41559.94
535.652	41889.66
535.853	41621.38
536.054	41670.53
536.255	41883.52
536.456	41506.69
536.657	42112.89
536.857	41908.1
537.058	41605
537.259	41910.14
537.46	41533.32
537.66	41787.27
537.861	41922.43
538.062	41435.02
538.263	41555.85
538.463	41383.82
538.664	41480.07
538.865	41367.43
539.065	41799.55
539.266	41066.38
539.466	41643.91
539.667	40931.22
539.868	41541.51
540.068	41443.21
540.269	41379.72
540.469	41637.76
540.67	41209.74
540.87	41396.1
541.071	41398.15
541.271	41260.94
541.472	41205.64
541.672	41006.99
541.873	41643.91
542.073	40552.34
542.274	41643.91
542.474	41353.1
542.675	41004.94
542.875	41535.37
543.075	41099.15
543.276	40851.34
543.476	41631.62
543.676	40859.54
543.877	41211.79
544.077	41365.38
544.277	41201.55
544.478	40779.67
544.678	40920.98
544.878	40693.65
545.078	41244.55
545.279	40589.2
545.479	41103.24
545.679	41009.04
545.879	40538.01
546.079	40900.5
546.28	40818.58
546.48	40292.25
546.68	40937.36
546.88	41043.85
547.08	40798.1
547.28	40912.78
547.48	40697.75
547.68	40695.7
547.88	40386.46
548.081	41011.09
548.281	40818.58
548.481	40570.77
548.681	41322.38
548.881	40939.41
549.081	40630.16
549.28	40667.03
549.48	41154.44
549.68	41031.57
549.88	41285.51
550.08	40617.88
550.28	40810.39
550.48	40540.05
550.68	40939.41
550.88	40720.27
551.08	40335.26
551.279	40529.81
551.479	40667.03
551.679	40798.1
551.879	40454.04
552.079	40744.85
552.278	40603.54
552.478	40361.88
552.678	40628.12
552.878	40677.27
553.077	40443.8
553.277	40230.81
553.477	40564.63
553.676	40540.05
553.876	40181.66
554.076	39929.76
554.275	40384.41
554.475	39741.35
554.674	40013.73
554.874	40318.87
555.074	40413.08
555.273	40048.54
555.473	40535.96
555.672	40132.51
555.872	40060.83
556.071	40361.88
556.271	40075.16
556.47	40066.97
556.67	39884.7
556.869	39737.25
557.068	40015.77
557.268	39935.9
557.467	39970.72
557.667	39755.68
557.866	39774.11
558.065	39763.87
558.265	39708.58
558.464	39694.24
558.663	39821.22
558.863	39499.69
559.062	40083.36
559.261	39233.45
559.461	39954.33
559.66	39153.58
559.859	39653.28
560.058	39348.14
560.258	39620.52
560.457	39024.56
560.656	39606.18
560.855	39047.08
561.054	39288.74
561.253	39004.08
561.453	39206.83
561.652	39258.02
561.851	39376.81
562.05	38637.49
562.249	38602.67
562.448	39131.05
562.647	38715.31
562.846	38621.11
563.045	38786.99
563.244	38543.28
563.443	39188.39
563.642	38307.77
563.841	38549.43
564.04	38619.06
564.239	38619.06
564.438	38115.26
564.637	38420.41
564.836	38383.54
565.035	37355.46
565.234	38340.53
565.432	37908.41
565.631	37908.41
565.83	37844.93
566.029	37255.11
566.228	37902.27
566.427	37910.46
566.625	37785.54
566.824	37261.26
567.023	37691.33
567.222	37007.31
567.42	37750.72
567.619	37343.17
567.818	37103.56
568.016	37019.6
568.215	37203.91
568.414	37048.27
568.612	37154.76
568.811	36546.51
569.01	36749.26
569.208	36448.21
569.407	36530.13
569.605	35917.79
569.804	36880.33
570.002	36270.04
570.201	36855.76
570.4	36317.14
570.598	36337.62
570.797	36118.49
570.995	36204.5
571.193	35618.78
571.392	35993.56
571.59	35856.35
571.789	35688.42
571.987	35483.62
572.186	35536.87
572.384	35348.45
572.582	35686.37
572.781	35768.29
572.979	35123.18
573.177	35213.29
573.376	35387.36
573.574	35366.88
573.772	35266.53
573.971	34918.38
574.169	34748.4
574.367	34394.1
574.565	34998.25
574.763	34945
574.962	34691.05
575.16	34353.14
575.358	34359.28
575.556	34310.13
575.754	34486.26
575.952	34154.49
576.151	34473.97
576.349	34334.71
576.547	33916.92
576.745	33923.07
576.943	33808.38
577.141	34025.46
577.339	33961.98
577.537	33726.46
577.735	33566.72
577.933	33208.33
578.131	33327.11
578.329	33566.72
578.527	33153.03
578.725	33292.29
578.923	33294.34
579.121	32997.38
579.319	32940.04
579.516	33255.43
579.714	32808.97
579.912	32937.99
580.11	32845.83
580.308	32686.09
580.506	32647.18
580.704	32372.75
580.901	32432.15
581.099	32442.38
581.297	32075.8
581.495	32057.37
581.692	32249.88
581.89	31875.1
582.088	32280.6
582.285	31629.34
582.483	31871
582.681	31549.47
582.878	31567.9
583.076	31334.43
583.274	31637.53
583.471	31207.46
583.669	31655.96
583.866	31160.36
584.064	31457.31
584.262	30988.33
584.459	31334.43
584.657	31174.69
584.854	31064.1
585.052	30320.69
585.249	30765.1
585.447	30900.26
585.644	30380.08
585.841	30595.12
586.039	30769.19
586.236	30261.3
586.434	30281.78
586.631	30253.11
586.828	30418.99
587.026	30318.64
587.223	29900.86
587.42	30150.71
587.618	30046.26
587.815	29878.33
588.012	29655.1
588.21	29165.63
588.407	29751.35
588.604	29458.49
588.801	29286.47
588.999	29489.21
589.196	29392.96
589.393	29372.48
589.59	29034.56
589.787	28973.13
589.984	29081.67
590.182	28921.93
590.379	28805.19
590.576	28674.12
590.773	28680.27
590.97	28575.82
591.167	28360.78
591.364	28227.67
591.561	28366.93
591.758	27865.17
591.955	27979.86
592.152	28020.82
592.349	28035.16
592.546	27889.75
592.743	27988.05
592.94	27529.31
593.137	27643.99
593.334	27883.61
593.531	27377.76
593.727	27680.86
593.924	27627.61
594.121	26906.73
594.318	27265.12
594.515	26966.12
594.712	27351.13
594.908	26962.02
595.105	27095.14
595.302	26804.33
595.499	26785.9
595.696	26435.69
595.892	26601.58
596.089	26814.57
596.286	26570.86
596.482	26544.23
596.679	26249.33
596.876	26595.43
597.072	26191.98
597.269	26441.84
597.466	26005.62
597.662	25921.65
597.859	25925.75
598.055	25892.98
598.252	25639.03
598.448	25571.45
598.645	25987.19
598.841	25505.91
599.038	25632.89
599.234	25555.07
599.431	25120.9
599.627	25256.06
599.824	25653.37
600.02	25047.17
600.217	25251.97
600.413	25278.59
600.609	24762.5
600.806	24834.18
601.002	24938.63
601.198	24690.82
601.395	24830.09
601.591	24635.53
601.787	24907.91
601.984	24299.66
602.18	24762.5
602.376	24277.13
602.572	24047.76
602.769	24002.71
602.965	23660.69
603.161	24101.01
603.357	23883.92
603.553	23873.68
603.75	23824.53
603.946	23607.45
604.142	23777.43
604.338	23306.4
604.534	23468.19
604.73	23240.86
604.926	23363.74
605.122	23464.09
605.318	23412.89
605.514	23142.56
605.71	23199.9
605.906	23089.31
606.102	23249.05
606.298	23255.2
606.494	22984.87
606.69	23171.23
606.886	22716.58
607.082	22513.83
607.278	22646.95
607.474	22536.36
607.67	22767.78
607.866	22388.91
608.062	22773.92
608.257	22626.47
608.453	22612.13
608.649	22751.4
608.845	22184.11
609.041	22388.91
609.236	22313.13
609.432	22110.38
609.628	22360.23
609.824	21901.49
610.019	22063.28
610.215	21962.93
610.411	22337.71
610.606	21807.28
610.802	21997.74
610.998	21901.49
611.193	21991.6
611.389	21702.84
611.584	21915.83
611.78	21577.91
611.976	21643.45
612.171	22087.85
612.367	21553.34
612.562	21416.12
612.758	21170.36
612.953	21332.15
613.149	21665.97
613.344	20785.35
613.539	21758.13
613.735	21014.72
613.93	21178.56
614.126	21225.66
614.321	21176.51
614.517	21139.65
614.712	20928.7
614.907	20949.18
615.103	21356.73
615.298	21080.25
615.493	20998.34
615.688	20508.87
615.884	21196.99
616.079	20734.15
616.274	20932.8
616.47	20775.11
616.665	20951.23
616.86	20662.47
617.055	20691.14
617.25	20598.98
617.445	20648.13
617.641	20205.77
617.836	20392.14
618.031	20179.15
618.226	20422.86
618.421	20273.35
618.616	20455.62
618.811	20293.83
619.006	20238.54
619.201	19919.06
619.396	20078.8
619.591	19980.5
619.786	19765.46
619.981	19824.85
620.176	19794.13
620.371	19536.09
620.566	19607.76
620.761	19415.26
620.956	19620.05
621.151	19065.05
621.346	19179.74
621.541	19003.61
621.735	19091.68
621.93	18710.75
622.125	18741.47
622.32	18606.31
622.515	18919.65
622.709	18319.59
622.904	18452.71
623.099	18288.87
623.294	18198.76
623.488	18055.4
623.683	18114.8
623.878	18075.88
624.072	18047.21
624.267	17910
624.462	17719.54
624.656	17438.97
624.851	17660.15
625.046	17553.65
625.24	17281.27
625.435	17103.1
625.629	17125.63
625.824	17221.88
626.018	16996.6
626.213	16673.03
626.407	16634.11
626.602	16392.45
626.796	16707.84
626.991	16748.8
627.185	16476.42
627.38	16240.9
627.574	16437.51
627.768	16109.83
627.963	15952.14
628.157	16013.58
628.352	15868.17
628.546	15907.09
628.74	15806.73
628.935	15456.53
629.129	15718.67
629.323	15360.28
629.517	15368.47
629.712	15272.21
629.906	15196.44
630.1	15112.47
630.294	15081.75
630.489	14979.36
630.683	15012.12
630.877	14885.15
631.071	14655.78
631.265	14903.58
631.459	14557.47
631.653	14524.71
631.848	14336.29
632.042	14373.16
632.236	14440.74
632.43	14285.09
632.624	14373.16
632.818	14051.63
633.012	13967.66
633.206	13891.88
633.4	13777.2
633.594	13756.72
633.788	13850.92
633.982	13867.31
634.176	13734.19
634.369	13596.98
634.563	13455.67
634.757	13455.67
634.951	13181.24
635.145	13197.62
635.339	13293.88
635.533	13238.58
635.726	13197.62
635.92	13154.62
636.114	12992.83
636.308	12833.08
636.501	12828.99
636.695	12728.64
636.889	12818.75
637.083	12745.02
637.276	12484.93
637.47	12777.79
637.664	12558.66
637.857	12427.59
638.051	12460.35
638.244	12273.99
638.438	12017.99
638.632	12026.18
638.825	12142.92
639.019	11903.31
639.212	11837.77
639.406	11952.46
639.599	12108.1
639.793	11759.95
639.986	11661.65
640.18	11641.17
640.373	11768.14
640.567	11360.59
640.76	11364.69
640.954	11407.7
641.147	11278.68
641.34	11096.41
641.534	11434.32
641.727	11125.08
641.92	11235.67
642.114	11045.21
642.307	11100.5
642.5	10944.86
642.694	10819.93
642.887	10711.39
643.08	10977.62
643.273	10666.33
643.467	10559.84
643.66	10686.81
643.853	10654.05
644.046	10365.28
644.239	10400.1
644.432	10305.89
644.626	10420.58
644.819	10269.03
645.012	10352.99
645.205	10285.41
645.398	10146.15
645.591	9918.82
645.784	10148.2
645.977	10117.48
646.17	9888.11
646.363	9726.32
646.556	9757.04
646.749	9734.51
646.942	9922.92
647.135	9910.63
647.328	9527.66
647.521	9468.27
647.714	9558.38
647.907	9466.22
648.099	9251.19
648.292	9421.17
648.485	9292.15
648.678	9314.67
648.871	9011.57
649.064	8982.9
649.256	9156.98
649.449	9050.49
649.642	9036.15
649.835	9142.64
650.027	9046.39
650.22	9021.81
650.413	8683.9
650.605	8864.12
650.798	8716.67
650.991	8735.1
651.183	8671.61
651.376	8675.71
651.568	8593.79
651.761	8630.65
651.954	8491.39
652.146	8409.47
652.339	8556.93
652.531	8468.86
652.724	8356.22
652.916	8200.58
653.109	8233.35
653.301	8032.65
653.494	8180.1
653.686	7960.97
653.879	8323.46
654.071	8022.41
654.263	7932.29
654.456	7975.3
654.648	7866.76
654.84	7856.52
655.033	7815.56
655.225	7754.12
655.417	7741.83
655.61	7664.01
655.802	7690.63
655.994	7608.72
656.186	7639.44
656.379	7483.79
656.571	7547.28
656.763	7463.31
656.955	7297.42
657.148	7455.12
657.34	7360.91
657.532	7336.34
657.724	7248.27
657.916	7180.69
658.108	7147.92
658.3	7233.94
658.492	7229.84
658.684	7051.67
658.876	7119.25
659.068	7176.59
659.26	6844.82
659.452	6908.31
659.644	7215.51
659.836	6865.3
660.028	6922.65
660.22	6537.63
660.412	6767
660.604	6640.03
660.796	6742.43
660.988	6551.96
661.18	6631.83
661.372	6572.44
661.563	6668.7
661.755	6562.2
661.947	6293.92
662.139	6447.52
662.331	6453.66
662.522	6353.31
662.714	6312.35
662.906	6304.16
663.097	6463.9
663.289	6259.1
663.481	6207.91
663.673	6349.22
663.864	6074.79
664.056	6130.08
664.247	6066.6
664.439	6160.8
664.631	6201.76
664.822	6146.47
665.014	6017.44
665.205	5927.33
665.397	5933.48
665.588	5849.51
665.78	5947.81
665.971	5816.74
666.163	5900.71
666.354	5859.75
666.546	5802.41
666.737	5816.74
666.929	5611.95
667.12	5669.29
667.311	5593.51
667.503	5759.4
667.694	5706.15
667.885	5558.7
668.077	5583.27
668.268	5392.81
668.459	5556.65
668.651	5568.94
668.842	5388.72
669.033	5470.64
669.224	5276.08
669.416	5317.04
669.607	5456.3
669.798	5319.09
669.989	5333.42
670.18	5339.57
670.371	5226.93
670.563	5358
670.754	5194.16
670.945	5231.02
671.136	5169.59
671.327	5165.49
671.518	5069.23
671.709	5208.5
671.9	5198.26
672.091	5054.9
672.282	5036.47
672.473	5114.29
672.664	5155.25
672.855	5020.08
673.046	4960.69
673.237	5022.13
673.428	4952.5
673.619	5085.62
673.809	4905.4
674	4753.85
674.191	4983.22
674.382	4846.01
674.573	4846.01
674.764	4905.4
674.954	4870.58
675.145	4706.74
675.336	4743.61
675.527	4694.46
675.717	4803
675.908	4590.01
676.099	4776.38
676.289	4792.76
676.48	4569.53
676.671	4663.74
676.861	4673.98
677.052	4571.58
677.243	4608.44
677.433	4483.52
677.624	4620.73
677.814	4528.57
678.005	4784.57
678.195	4475.32
678.386	4514.24
678.576	4473.28
678.767	4501.95
678.957	4467.13
679.148	4528.57
679.338	4514.24
679.529	4368.83
679.719	4383.17
679.909	4473.28
680.1	4497.85
680.29	4317.63
680.481	4350.4
680.671	4434.36
680.861	4522.43
681.052	4344.25
681.242	4329.92
681.432	4415.93
681.622	4329.92
681.813	4252.1
682.003	4280.77
682.193	4184.51
682.383	4270.53
682.573	4293.05
682.764	4260.29
682.954	4329.92
683.144	4266.43
683.334	3989.96
683.524	4211.14
683.714	4006.34
683.904	4235.71
684.094	4094.4
684.284	4137.41
684.474	4243.9
684.664	4209.09
684.854	4145.6
685.044	4121.03
685.234	4065.73
685.424	4129.22
685.614	4086.21
685.804	3981.76
685.994	3883.46
686.184	4100.55
686.374	4051.39
686.564	3781.06
686.753	4020.67
686.943	3918.28
687.133	3901.89
687.323	4139.46
687.513	3877.32
687.702	3871.17
687.892	3873.22
688.082	3801.54
688.272	3834.31
688.461	3598.79
688.651	3776.97
688.841	3760.58
689.03	3852.74
689.22	3627.46
689.41	3703.24
689.599	3621.32
689.789	3723.72
689.979	3611.08
690.168	3652.04
690.358	3629.51
690.547	3666.38
690.737	3584.46
690.926	3625.42
691.116	3449.29
691.305	3606.98
691.495	3531.21
691.684	3437
691.874	3480.01
692.063	3611.08
692.252	3473.87
692.442	3461.58
692.631	3318.22
692.82	3465.68
693.01	3377.61
693.199	3400.14
693.388	3408.33
693.578	3459.53
693.767	3334.61
693.956	3326.41
694.146	3283.41
694.335	3287.5
694.524	3303.89
694.713	3301.84
694.902	3246.54
695.092	3256.78
695.281	3264.97
695.47	3187.15
695.659	3103.18
695.848	3185.1
696.037	3279.31
696.226	3146.19
696.415	3094.99
696.604	3121.62
696.793	3211.73
696.982	3123.66
697.171	3215.82
697.36	3187.15
697.549	3076.56
697.738	3076.56
697.927	2965.97
698.116	3142.1
698.305	3082.7
698.494	3070.42
698.683	3062.23
698.872	3148.24
699.061	2984.4
699.25	2994.64
699.438	3164.62
699.627	2976.21
699.816	2992.59
700.005	2902.48
700.193	2951.63
700.382	3051.99
700.571	3080.66
700.76	2976.21
700.948	2978.26
701.137	3090.9
701.326	2902.48
701.514	3033.55
701.703	3068.37
701.892	2961.87
702.08	2984.4
702.269	3072.47
702.457	3039.7
702.646	3078.61
702.834	2886.1
703.023	3033.55
703.212	2918.87
703.4	2947.54
703.589	2857.43
703.777	3031.51
703.965	2898.39
704.154	2867.67
704.342	2859.48
704.531	2965.97
704.719	2812.37
704.907	2925.01
705.096	2855.38
705.284	2863.57
705.472	2730.45
705.661	2769.37
705.849	2752.98
706.037	2888.15
706.226	2871.76
706.414	2771.41
706.602	2851.28
706.79	2816.47
706.979	2900.44
707.167	2826.71
707.355	2699.73
707.543	2810.33
707.731	2802.13
707.919	2728.41
708.107	2839
708.296	2802.13
708.484	2890.2
708.672	2861.52
708.86	2767.32
709.048	2777.56
709.236	2798.04
709.424	2687.45
709.612	2810.33
709.8	2709.97
709.988	2761.17
710.176	2830.8
710.364	2757.08
710.551	2857.43
710.739	2679.26
710.927	2779.61
711.115	2785.75
711.303	2658.78
711.491	2671.06
711.679	2603.48
711.866	2750.93
712.054	2722.26
712.242	2707.93
712.43	2734.55
712.617	2714.07
712.805	2671.06
712.993	2755.03
713.181	2632.15
713.368	2681.3
713.556	2771.41
713.744	2601.43
713.931	2683.35
714.119	2648.54
714.306	2722.26
714.494	2509.27
714.682	2685.4
714.869	2638.3
715.057	2773.46
715.244	2548.19
715.432	2687.45
715.619	2656.73
715.807	2664.92
715.994	2632.15
716.182	2585.05
716.369	2621.91
716.556	2597.34
716.744	2486.75
716.931	2535.9
717.119	2724.31
717.306	2550.23
717.493	2626.01
717.681	2695.64
717.868	2576.86
718.055	2658.78
718.242	2669.02
718.43	2609.62
718.617	2640.34
718.804	2568.66
718.991	2527.71
719.179	2515.42
719.366	2593.24
719.553	2494.94
719.74	2609.62
719.927	2519.51
720.114	2585.05
720.301	2615.77
720.488	2427.35
720.676	2583
720.863	2580.95
721.05	2630.1
721.237	2533.85
721.424	2466.27
721.611	2531.8
721.798	2585.05
721.985	2370.01
722.172	2474.46
722.358	2519.51
722.545	2466.27
722.732	2404.83
722.919	2548.19
723.106	2482.65
723.293	2591.19
723.48	2537.95
723.667	2484.7
723.853	2552.28
724.04	2431.45
724.227	2523.61
724.414	2537.95
724.6	2415.07
724.787	2525.66
724.974	2576.86
725.161	2361.82
725.347	2462.17
725.534	2527.71
725.72	2400.73
725.907	2494.94
726.094	2394.59
726.28	2470.36
726.467	2441.69
726.653	2441.69
726.84	2525.66
727.027	2357.72
727.213	2394.59
727.4	2484.7
727.586	2466.27
727.773	2499.03
727.959	2345.44
728.145	2445.79
728.332	2318.81
728.518	2476.51
728.705	2449.88
728.891	2558.42
729.077	2499.03
729.264	2339.29
729.45	2490.84
729.636	2511.32
729.823	2437.59
730.009	2564.57
730.195	2408.92
730.382	2365.92
730.568	2431.45
730.754	2445.79
730.94	2451.93
731.126	2394.59
731.313	2257.37
731.499	2482.65
731.685	2392.54
731.871	2390.49
732.057	2273.76
732.243	2437.59
732.429	2394.59
732.615	2425.31
732.801	2365.92
732.987	2351.58
733.173	2402.78
733.359	2394.59
733.545	2359.77
733.731	2404.83
733.917	2484.7
734.103	2347.48
734.289	2376.16
734.475	2380.25
734.661	2398.68
734.847	2238.94
735.033	2351.58
735.219	2359.77
735.404	2474.46
735.59	2343.39
735.776	2453.98
735.962	2378.2
736.148	2353.63
736.333	2314.72
736.519	2310.62
736.705	2329.05
736.89	2269.66
737.076	2220.51
737.262	2228.7
737.447	2314.72
737.633	2302.43
737.819	2271.71
738.004	2261.47
738.19	2222.56
738.375	2329.05
738.561	2302.43
738.747	2294.24
738.932	2154.98
739.118	2269.66
739.303	2281.95
739.489	2218.46
739.674	2212.32
739.859	2224.61
740.045	2189.79
740.23	2277.85
740.416	2157.02
740.601	2126.3
740.786	2228.7
740.972	2142.69
741.157	2159.07
741.342	2146.78
741.528	2224.61
741.713	2144.74
741.898	2171.36
742.084	2101.73
742.269	2107.87
742.454	2097.63
742.639	2191.84
742.824	2032.1
743.01	2052.58
743.195	2187.74
743.38	2126.3
743.565	2001.38
743.75	2138.59
743.935	2138.59
744.12	2101.73
744.305	1974.75
744.49	2050.53
744.675	1946.08
744.86	1892.84
745.045	2040.29
745.23	1952.23
745.415	1966.56
745.6	1935.84
745.785	1974.75
745.97	2099.68
746.155	1999.33
746.34	1929.7
746.525	2028
746.71	2083.3
746.895	1919.46
747.079	1954.27
747.264	1806.82
747.449	2021.86
747.634	1937.89
747.819	1956.32
748.003	1837.54
748.188	1806.82
748.373	1829.35
748.557	1737.19
748.742	1855.97
748.927	1700.33
749.111	1706.47
749.296	1788.39
749.481	1634.79
749.665	1829.35
749.85	1712.61
750.034	1808.87
750.219	1788.39
750.404	1626.6
750.588	1679.85
750.773	1694.18
750.957	1706.47
751.141	1683.94
751.326	1630.7
751.51	1634.79
751.695	1485.29
751.879	1665.51
752.064	1671.65
752.248	1624.55
752.432	1638.89
752.617	1593.83
752.801	1653.22
752.985	1513.96
753.17	1559.02
753.354	1610.22
753.538	1606.12
753.722	1487.34
753.907	1468.91
754.091	1491.43
754.275	1434.09
754.459	1518.06
754.643	1436.14
754.828	1442.28
755.012	1389.03
755.196	1393.13
755.38	1333.74
755.564	1319.4
755.748	1335.79
755.932	1376.75
756.116	1438.19
756.3	1386.99
756.484	1368.56
756.668	1391.08
756.852	1272.3
757.036	1372.65
757.22	1262.06
757.404	1307.12
757.588	1305.07
757.772	1292.78
757.956	1309.16
758.14	1317.36
758.323	1204.72
758.507	1237.49
758.691	1204.72
758.875	1180.14
759.059	1323.5
759.242	1237.49
759.426	1190.38
759.61	1124.85
759.794	1233.39
759.977	1303.02
760.161	1266.16
760.345	1270.25
760.528	1180.14
760.712	1174
760.895	1159.66
761.079	1178.09
761.263	1069.55
761.446	1090.03
761.63	1024.5
761.813	1147.37
761.997	1071.6
762.18	1210.86
762.364	1057.26
762.547	1024.5
762.731	1139.18
762.914	1081.84
763.098	1108.46
763.281	1130.99
763.464	1055.22
763.648	1004.02
763.831	1028.59
764.015	987.63
764.198	1008.11
764.381	989.68
764.564	1130.99
764.748	1069.55
764.931	1071.6
765.114	961.01
765.297	989.68
765.481	987.63
765.664	954.87
765.847	987.63
766.03	1061.36
766.213	913.91
766.397	958.96
766.58	967.15
766.763	961.01
766.946	963.06
767.129	918
767.312	885.23
767.495	881.14
767.678	936.43
767.861	909.81
768.044	895.47
768.227	924.15
768.41	893.43
768.593	897.52
768.776	936.43
768.959	936.43
769.142	893.43
769.324	905.71
769.507	860.66
769.69	881.14
769.873	844.28
770.056	928.24
770.239	838.13
770.421	958.96
770.604	872.95
770.787	909.81
770.97	844.28
771.152	772.6
771.335	893.43
771.518	854.51
771.7	975.35
771.883	879.09
772.066	877.04
772.248	852.47
772.431	844.28
772.613	838.13
772.796	784.88
772.978	844.28
773.161	764.4
773.343	764.4
773.526	741.88
773.708	778.74
773.891	805.36
774.073	854.51
774.256	723.44
774.438	868.85
774.621	729.59
774.803	768.5
774.985	725.49
775.168	786.93
775.35	727.54
775.532	791.03
775.715	717.3
775.897	739.83
776.079	737.78
776.261	782.84
776.444	627.19
776.626	680.44
776.808	715.25
776.99	705.01
777.173	668.15
777.355	627.19
777.537	705.01
777.719	682.49
777.901	639.48
778.083	653.81
778.265	600.57
778.447	608.76
778.629	674.29
778.811	623.09
778.993	535.03
779.175	639.48
779.357	672.25
779.539	635.38
779.721	590.33
779.903	614.9
780.085	602.61
780.267	627.19
780.449	627.19
780.631	578.04
780.812	621.05
780.994	532.98
781.176	559.61
781.358	619
781.54	567.8
781.721	608.76
781.903	549.37
782.085	516.6
782.267	494.07
782.448	453.11
782.63	467.45
782.812	438.78
782.993	606.71
783.175	555.51
783.357	518.65
783.538	594.42
783.72	453.11
783.901	481.78
784.083	506.36
784.264	481.78
784.446	449.02
784.627	541.18
784.809	520.7
784.99	436.73
785.172	463.35
785.353	446.97
785.535	502.26
785.716	365.05
785.897	489.98
786.079	412.15
786.26	360.95
786.441	467.45
786.623	387.58
786.804	389.63
786.985	385.53
787.167	426.49
787.348	395.77
787.529	467.45
787.71	537.08
787.891	422.39
788.073	391.67
788.254	340.47
788.435	387.58
788.616	381.43
788.797	367.1
788.978	352.76
789.159	444.92
789.34	479.74
789.522	334.33
789.703	422.39
789.884	424.44
790.065	406.01
790.246	328.19
790.427	375.29
790.607	342.52
790.788	371.19
790.969	326.14
791.15	393.72
791.331	342.52
791.512	338.43
791.693	381.43
791.874	320
792.054	395.77
792.235	326.14
792.416	299.52
792.597	334.33
792.778	401.91
792.958	344.57
793.139	371.19
793.32	260.6
793.5	393.72
793.681	346.62
793.862	354.81
794.042	254.46
794.223	254.46
794.404	328.19
794.584	295.42
794.765	217.6
794.945	336.38
795.126	360.95
795.306	281.08
795.487	320
795.667	311.8
795.848	320
796.028	229.88
796.209	270.84
796.389	328.19
796.57	274.94
796.75	311.8
796.93	287.23
797.111	205.31
797.291	324.09
797.471	295.42
797.652	340.47
797.832	262.65
798.012	229.88
798.192	254.46
798.373	238.08
798.553	213.5
798.733	254.46
798.913	256.51
799.093	238.08
799.274	211.45
799.454	223.74
799.634	287.23
799.814	272.89
799.994	246.27
800.174	233.98
800.354	246.27
800.534	262.65
800.714	213.5
800.894	203.26
801.074	238.08
801.254	287.23
801.434	207.36
801.614	260.6
801.794	215.55
801.974	754.16
802.154	205.31
802.334	225.79
802.514	223.74
802.693	147.97
802.873	225.79
803.053	295.42
803.233	254.46
803.413	229.88
803.592	199.16
803.772	197.12
803.952	231.93
804.131	219.64
804.311	184.83
804.491	225.79
804.67	231.93
804.85	231.93
805.03	221.69
805.209	182.78
805.389	229.88
805.568	283.13
805.748	139.77
805.928	143.87
806.107	225.79
806.287	164.35
806.466	219.64
806.646	164.35
806.825	205.31
807.004	168.45
807.184	166.4
807.363	213.5
807.543	199.16
807.722	197.12
807.901	182.78
808.081	254.46
808.26	74.24
808.439	262.65
808.619	186.88
808.798	197.12
808.977	201.21
809.156	266.75
809.336	166.4
809.515	131.58
809.694	139.77
809.873	164.35
810.052	246.27
810.231	190.97
810.411	166.4
810.59	207.36
810.769	150.01
810.948	180.73
811.127	174.59
811.306	188.93
811.485	164.35
811.664	184.83
811.843	178.69
812.022	184.83
812.201	154.11
812.38	133.63
812.559	164.35
812.737	156.16
812.916	78.33
813.095	139.77
813.274	246.27
813.453	176.64
813.632	172.54
813.811	174.59
813.989	156.16
814.168	115.2
814.347	109.05
814.526	139.77
814.704	188.93
814.883	174.59
815.062	147.97
815.24	201.21
815.419	29.18
815.598	127.49
815.776	74.24
815.955	174.59
816.133	156.16
816.312	207.36
816.49	107.01
816.669	141.82
816.847	164.35
817.026	107.01
817.204	82.43
817.383	213.5
817.561	80.38
817.74	143.87
817.918	156.16
818.097	100.86
818.275	182.78
818.453	123.39
818.632	82.43
818.81	127.49
818.988	96.77
819.167	92.67
819.345	107.01
819.523	135.68
819.701	115.2
819.879	125.44
820.058	164.35
820.236	135.68
820.414	88.57
820.592	115.2
820.77	139.77
820.948	96.77
821.127	152.06
821.305	160.25
821.483	115.2
821.661	150.01
821.839	158.21
822.017	74.24
822.195	74.24
822.373	82.43
822.551	109.05
822.729	168.45
822.907	35.33
823.085	164.35
823.262	94.72
823.44	190.97
823.618	86.53
823.796	27.14
823.974	33.28
824.152	109.05
824.329	109.05
824.507	164.35
824.685	100.86
824.863	156.16
825.04	172.54
825.218	117.25
825.396	139.77
825.574	115.2
825.751	49.66
825.929	117.25
826.107	61.95
826.284	51.71
826.462	168.45
826.639	61.95
826.817	74.24
826.994	98.81
827.172	33.28
827.349	113.15
827.527	45.57
827.704	115.2
827.882	80.38
828.059	76.29
828.237	109.05
828.414	225.79
828.591	45.57
828.769	59.9
828.946	107.01
829.124	47.62
829.301	92.67
829.478	98.81
829.655	98.81
829.833	70.14
830.01	82.43
830.187	139.77
830.364	37.38
830.542	147.97
830.719	102.91
830.896	135.68
831.073	57.86
831.25	102.91
831.427	201.21
831.604	160.25
831.782	-42.5
831.959	123.39
832.136	86.53
832.313	41.47
832.49	53.76
832.667	0.51
832.844	70.14
833.021	119.29
833.198	64
833.374	43.52
833.551	90.62
833.728	16.9
833.905	23.04
834.082	45.57
834.259	98.81
834.436	92.67
834.612	33.28
834.789	98.81
834.966	49.66
835.143	90.62
835.319	66.05
835.496	94.72
835.673	129.53
835.85	82.43
836.026	6.66
836.203	117.25
836.38	41.47
836.556	90.62
836.733	41.47
836.909	131.58
837.086	33.28
837.262	115.2
837.439	57.86
837.616	-22.02
837.792	70.14
837.968	82.43
838.145	43.52
838.321	10.75
838.498	41.47
838.674	131.58
838.851	59.9
839.027	-24.06
839.203	37.38
839.38	0.51
839.556	35.33
839.732	49.66
839.909	82.43
840.085	35.33
840.261	-1.54
840.437	27.14
840.614	18.94
840.79	123.39
840.966	111.1
841.142	68.09
841.318	-46.59
841.494	121.34
841.671	133.63
841.847	78.33
842.023	41.47
842.199	90.62
842.375	25.09
842.551	14.85
842.727	-7.68
842.903	49.66
843.079	-5.63
843.255	82.43
843.431	80.38
843.607	-17.92
843.783	-24.06
843.959	53.76
844.134	49.66
844.31	43.52
844.486	37.38
844.662	0.51
844.838	6.66
845.013	82.43
845.189	76.29
845.365	51.71
845.541	18.94
845.716	18.94
845.892	74.24
846.068	66.05
846.244	45.57
846.419	82.43
846.595	90.62
846.77	49.66
846.946	-52.74
847.122	12.8
847.297	78.33
847.473	117.25
847.648	23.04
847.824	49.66
847.999	-13.82
848.175	51.71
848.35	8.7
848.526	8.7
848.701	88.57
848.876	29.18
849.052	84.48
849.227	0.51
849.403	53.76
849.578	86.53
849.753	107.01
849.929	43.52
850.104	-7.68
850.279	39.42
850.454	59.9
850.63	66.05
850.805	49.66
850.98	31.23
851.155	45.57
851.33	88.57
851.505	55.81
851.681	100.86
851.856	53.76
852.031	129.53
852.206	12.8
852.381	-13.82
852.556	35.33
852.731	16.9
852.906	0.51
853.081	117.25
853.256	41.47
853.431	51.71
853.606	-56.83
853.781	-40.45
853.956	-11.78
854.131	72.19
854.305	70.14
854.48	-9.73
854.655	10.75
854.83	-56.83
855.005	-42.5
855.18	-30.21
855.354	72.19
855.529	33.28
855.704	8.7
855.879	51.71
856.053	-22.02
856.228	0.51
856.403	33.28
856.577	78.33
856.752	-19.97
856.926	49.66
857.101	35.33
857.276	0.51
857.45	25.09
857.625	51.71
857.799	119.29
857.974	86.53
858.148	-5.63
858.323	45.57
858.497	-22.02
858.672	59.9
858.846	4.61
859.02	33.28
859.195	-36.35
859.369	16.9
859.543	23.04
859.718	29.18
859.892	86.53
860.066	12.8
860.241	49.66
860.415	25.09
860.589	49.66
860.763	-52.74
860.938	-7.68
861.112	-7.68
861.286	-65.02
861.46	23.04
861.634	14.85
861.808	70.14
861.982	8.7
862.157	35.33
862.331	78.33
862.505	49.66
862.679	-1.54
862.853	18.94
863.027	49.66
863.201	55.81
863.375	-60.93
863.549	35.33
863.722	-22.02
863.896	10.75
864.07	-1.54
864.244	2.56
864.418	18.94
864.592	-7.68
864.766	-28.16
864.939	88.57
865.113	10.75
865.287	27.14
865.461	16.9
865.634	49.66
865.808	25.09
865.982	-22.02
866.156	-17.92
866.329	25.09
866.503	16.9
866.676	94.72
866.85	23.04
867.024	-40.45
867.197	45.57
867.371	96.77
867.544	66.05
867.718	25.09
867.891	18.94
868.065	-24.06
868.238	35.33
868.412	96.77
868.585	10.75
868.759	8.7
868.932	20.99
869.105	82.43
869.279	61.95
869.452	0.51
869.625	-24.06
869.799	-52.74
869.972	-40.45
870.145	92.67
870.319	70.14
870.492	57.86
870.665	-52.74
870.838	16.9
871.011	-81.41
871.185	16.9
871.358	29.18
871.531	51.71
871.704	29.18
871.877	-13.82
872.05	-19.97
872.223	8.7
872.396	-44.54
872.569	45.57
872.742	-40.45
872.915	55.81
873.088	16.9
873.261	59.9
873.434	92.67
873.607	-30.21
873.78	33.28
873.953	29.18
874.126	-67.07
874.299	-3.58
874.471	-24.06
874.644	-15.87
874.817	0.51
874.99	68.09
875.163	-40.45
875.335	16.9
875.508	72.19
875.681	59.9
875.853	100.86
876.026	-7.68
876.199	25.09
876.371	-5.63
876.544	16.9
876.717	27.14
876.889	0.51
877.062	57.86
877.234	-11.78
877.407	33.28
877.579	-32.26
877.752	-7.68
877.924	25.09
878.097	-11.78
878.269	76.29
878.442	-32.26
878.614	-28.16
878.786	-54.78
878.959	-7.68
879.131	68.09
879.303	72.19
879.476	76.29
879.648	25.09
879.82	41.47
879.993	4.61
880.165	72.19
880.337	10.75
880.509	41.47
880.681	0.51
880.854	66.05
881.026	57.86
881.198	45.57
881.37	-60.93
881.542	33.28
881.714	33.28
881.886	66.05
882.058	35.33
882.23	49.66
882.402	-1.54
882.574	43.52
882.746	0.51
882.918	57.86
883.09	-56.83
883.262	-67.07
883.434	8.7
883.606	4.61
883.778	-13.82
883.95	94.72
884.122	-7.68
884.293	-26.11
884.465	59.9
884.637	23.04
884.809	8.7
884.98	-22.02
885.152	33.28
885.324	61.95
885.496	-28.16
885.667	-17.92
885.839	20.99
886.011	-19.97
886.182	8.7
886.354	2.56
886.525	33.28
886.697	14.85
886.869	-54.78
887.04	51.71
887.212	59.9
887.383	47.62
887.555	47.62
887.726	16.9
887.897	-60.93
888.069	0.51
888.24	27.14
888.412	-9.73
888.583	53.76
888.754	-24.06
888.926	-22.02
889.097	8.7
889.268	53.76
889.44	59.9
889.611	-40.45
889.782	-56.83
889.953	-24.06
890.125	-19.97
890.296	-1.54
890.467	-15.87
890.638	53.76
890.809	-11.78
890.98	-15.87
891.151	49.66
891.323	4.61
891.494	-48.64
891.665	14.85
891.836	31.23
892.007	-11.78
892.178	-28.16
892.349	12.8
892.52	25.09
892.691	-7.68
892.862	-30.21
893.032	-60.93
893.203	10.75
893.374	33.28
893.545	59.9
893.716	8.7
893.887	12.8
894.057	-50.69
894.228	43.52
894.399	-15.87
894.57	33.28
894.74	-79.36
894.911	102.91
895.082	-9.73
895.253	-19.97
895.423	4.61
895.594	27.14
895.764	16.9
895.935	41.47
896.106	18.94
896.276	-24.06
896.447	-73.21
896.617	76.29
896.788	2.56
896.958	98.81
897.129	33.28
897.299	16.9
897.47	61.95
897.64	61.95
897.81	53.76
897.981	59.9
898.151	-58.88
898.322	27.14
898.492	2.56
898.662	35.33
898.832	-19.97
899.003	20.99
899.173	8.7
899.343	-15.87
899.513	39.42
