Data from USB4F104151__306__14-24-09-488.txt Node

Date: Thu Mar 13 14:24:09 EDT 2025
User: louis
Spectrometer: USB4F10415
Trigger mode: 4
Integration Time (sec): 2.000000E-2
Scans to average: 1
Electric dark correction enabled: true
Nonlinearity correction enabled: false
Boxcar width: 0
XAxis mode: Wavelengths
Number of Pixels in Spectrum: 3648
>>>>>Begin Spectral Data<<<<<
178.204	-65.54
178.424	-65.54
178.644	-65.54
178.864	-73.73
179.084	-124.93
179.304	-59.39
179.524	77.82
179.744	20.48
179.964	14.34
180.184	-20.48
180.404	-18.43
180.624	-61.44
180.844	28.67
181.064	-18.43
181.283	0
181.503	40.96
181.723	-4.1
181.943	-69.63
182.163	32.77
182.383	20.48
182.602	102.4
182.822	69.63
183.042	65.54
183.262	-26.62
183.482	38.91
183.701	69.63
183.921	-20.48
184.141	-12.29
184.361	94.21
184.58	28.67
184.8	-20.48
185.02	36.86
185.239	14.34
185.459	77.82
185.679	65.54
185.898	-69.63
186.118	96.25
186.338	30.72
186.557	47.1
186.777	53.25
186.997	-16.38
187.216	-61.44
187.436	36.86
187.655	-12.29
187.875	-49.15
188.095	-53.25
188.314	143.36
188.534	16.38
188.753	8.19
188.973	143.36
189.192	94.21
189.412	-38.91
189.631	4.1
189.851	45.06
190.07	135.17
190.29	47.1
190.509	4.1
190.729	-12.29
190.948	-2.05
191.168	88.06
191.387	47.1
191.607	-8.19
191.826	-20.48
192.045	30.72
192.265	45.06
192.484	28.67
192.704	67.58
192.923	40.96
193.142	77.82
193.362	73.73
193.581	6.14
193.8	6.14
194.02	73.73
194.239	-8.19
194.458	26.62
194.678	45.06
194.897	8.19
195.116	-4.1
195.335	22.53
195.555	30.72
195.774	12.29
195.993	49.15
196.212	-49.15
196.432	30.72
196.651	36.86
196.87	-20.48
197.089	34.82
197.308	79.87
197.528	73.73
197.747	-2.05
197.966	-8.19
198.185	55.3
198.404	-67.58
198.623	36.86
198.842	4.1
199.062	36.86
199.281	77.82
199.5	-32.77
199.719	-36.86
199.938	22.53
200.157	0
200.376	-4.1
200.595	51.2
200.814	6.14
201.033	55.3
201.252	30.72
201.471	53.25
201.69	55.3
201.909	14.34
202.128	20.48
202.347	53.25
202.566	-10.24
202.785	8.19
203.004	-10.24
203.223	137.21
203.442	53.25
203.661	-28.67
203.879	24.58
204.098	30.72
204.317	43.01
204.536	77.82
204.755	-14.34
204.974	8.19
205.193	26.62
205.411	71.68
205.63	77.82
205.849	22.53
206.068	32.77
206.287	-28.67
206.505	102.4
206.724	0
206.943	-43.01
207.162	-59.39
207.381	-28.67
207.599	-77.82
207.818	67.58
208.037	53.25
208.255	-49.15
208.474	63.49
208.693	-4.1
208.911	18.43
209.13	53.25
209.349	-16.38
209.567	32.77
209.786	77.82
210.005	88.06
210.223	14.34
210.442	-28.67
210.661	63.49
210.879	30.72
211.098	12.29
211.316	63.49
211.535	67.58
211.753	30.72
211.972	55.3
212.191	20.48
212.409	12.29
212.628	34.82
212.846	-8.19
213.065	-18.43
213.283	100.35
213.502	-92.16
213.72	32.77
213.938	4.1
214.157	77.82
214.375	8.19
214.594	45.06
214.812	4.1
215.031	32.77
215.249	-10.24
215.467	32.77
215.686	20.48
215.904	38.91
216.122	4.1
216.341	-20.48
216.559	-18.43
216.778	102.4
216.996	8.19
217.214	-45.06
217.432	32.77
217.651	8.19
217.869	30.72
218.087	30.72
218.306	6.14
218.524	16.38
218.742	-18.43
218.96	67.58
219.179	-40.96
219.397	73.73
219.615	47.1
219.833	32.77
220.051	-12.29
220.27	61.44
220.488	49.15
220.706	34.82
220.924	-12.29
221.142	53.25
221.36	57.34
221.578	16.38
221.796	4.1
222.015	-4.1
222.233	-2.05
222.451	47.1
222.669	-81.92
222.887	24.58
223.105	16.38
223.323	-12.29
223.541	22.53
223.759	20.48
223.977	61.44
224.195	22.53
224.413	36.86
224.631	98.3
224.849	53.25
225.067	86.01
225.285	-40.96
225.503	28.67
225.721	-16.38
225.939	30.72
226.157	69.63
226.375	81.92
226.592	-16.38
226.81	-34.82
227.028	79.87
227.246	45.06
227.464	90.11
227.682	24.58
227.9	-4.1
228.117	49.15
228.335	53.25
228.553	-10.24
228.771	71.68
228.989	-22.53
229.206	47.1
229.424	22.53
229.642	49.15
229.86	51.2
230.077	53.25
230.295	45.06
230.513	75.77
230.731	96.25
230.948	-2.05
231.166	77.82
231.384	38.91
231.601	-32.77
231.819	45.06
232.037	8.19
232.254	81.92
232.472	36.86
232.689	-16.38
232.907	86.01
233.125	-30.72
233.342	-20.48
233.56	32.77
233.777	32.77
233.995	51.2
234.213	22.53
234.43	-16.38
234.648	6.14
234.865	14.34
235.083	79.87
235.3	6.14
235.518	86.01
235.735	-8.19
235.953	59.39
236.17	-18.43
236.388	88.06
236.605	-12.29
236.822	96.25
237.04	55.3
237.257	-2.05
237.475	4.1
237.692	-28.67
237.909	120.83
238.127	49.15
238.344	63.49
238.562	32.77
238.779	-4.1
238.996	-2.05
239.214	96.25
239.431	28.67
239.648	-32.77
239.865	2.05
240.083	6.14
240.3	-24.58
240.517	12.29
240.735	-65.54
240.952	61.44
241.169	20.48
241.386	18.43
241.603	-30.72
241.821	6.14
242.038	43.01
242.255	75.77
242.472	-12.29
242.689	77.82
242.907	151.55
243.124	-18.43
243.341	22.53
243.558	-4.1
243.775	34.82
243.992	-16.38
244.209	57.34
244.426	26.62
244.643	86.01
244.86	36.86
245.078	34.82
245.295	90.11
245.512	73.73
245.729	20.48
245.946	61.44
246.163	12.29
246.38	4.1
246.597	20.48
246.814	-20.48
247.031	65.54
247.248	30.72
247.464	30.72
247.681	0
247.898	20.48
248.115	12.29
248.332	61.44
248.549	18.43
248.766	38.91
248.983	20.48
249.2	137.21
249.417	53.25
249.633	12.29
249.85	53.25
250.067	-8.19
250.284	-2.05
250.501	32.77
250.717	22.53
250.934	43.01
251.151	-2.05
251.368	30.72
251.585	192.51
251.801	28.67
252.018	6.14
252.235	34.82
252.451	-34.82
252.668	22.53
252.885	71.68
253.102	4.1
253.318	-20.48
253.535	-34.82
253.752	-2.05
253.968	-4.1
254.185	22.53
254.401	-2.05
254.618	45.06
254.835	26.62
255.051	86.01
255.268	28.67
255.484	38.91
255.701	-36.86
255.917	57.34
256.134	43.01
256.351	20.48
256.567	-49.15
256.784	122.88
257	-20.48
257.217	4.1
257.433	-16.38
257.65	12.29
257.866	59.39
258.082	-2.05
258.299	4.1
258.515	32.77
258.732	34.82
258.948	75.77
259.165	-49.15
259.381	73.73
259.597	-36.86
259.814	-4.1
260.03	26.62
260.246	75.77
260.463	28.67
260.679	81.92
260.895	102.4
261.112	49.15
261.328	12.29
261.544	30.72
261.761	49.15
261.977	-26.62
262.193	-26.62
262.409	30.72
262.626	0
262.842	-4.1
263.058	4.1
263.274	57.34
263.49	36.86
263.707	4.1
263.923	6.14
264.139	10.24
264.355	8.19
264.571	94.21
264.787	40.96
265.004	69.63
265.22	34.82
265.436	28.67
265.652	53.25
265.868	32.77
266.084	-26.62
266.3	30.72
266.516	24.58
266.732	-8.19
266.948	22.53
267.164	18.43
267.38	6.14
267.596	-90.11
267.812	59.39
268.028	53.25
268.244	14.34
268.46	-16.38
268.676	20.48
268.892	43.01
269.108	12.29
269.324	32.77
269.54	24.58
269.756	43.01
269.972	-28.67
270.188	-40.96
270.403	-12.29
270.619	26.62
270.835	6.14
271.051	4.1
271.267	-24.58
271.483	45.06
271.698	47.1
271.914	61.44
272.13	-8.19
272.346	4.1
272.562	36.86
272.777	49.15
272.993	-34.82
273.209	12.29
273.425	47.1
273.64	20.48
273.856	34.82
274.072	12.29
274.287	55.3
274.503	45.06
274.719	34.82
274.934	36.86
275.15	-4.1
275.366	-2.05
275.581	-16.38
275.797	30.72
276.012	-28.67
276.228	-40.96
276.444	28.67
276.659	53.25
276.875	-36.86
277.09	28.67
277.306	30.72
277.521	-4.1
277.737	-49.15
277.952	-4.1
278.168	-10.24
278.383	-18.43
278.599	4.1
278.814	-18.43
279.03	22.53
279.245	20.48
279.461	36.86
279.676	110.59
279.892	4.1
280.107	-57.34
280.322	8.19
280.538	32.77
280.753	77.82
280.969	34.82
281.184	-28.67
281.399	90.11
281.615	-53.25
281.83	-28.67
282.045	-67.58
282.26	8.19
282.476	-49.15
282.691	-2.05
282.906	20.48
283.122	-16.38
283.337	-40.96
283.552	-4.1
283.767	6.14
283.983	53.25
284.198	-6.14
284.413	69.63
284.628	-4.1
284.843	53.25
285.058	110.59
285.274	12.29
285.489	-12.29
285.704	2.05
285.919	34.82
286.134	-40.96
286.349	51.2
286.564	4.1
286.779	-12.29
286.995	-38.91
287.21	4.1
287.425	81.92
287.64	12.29
287.855	90.11
288.07	-20.48
288.285	49.15
288.5	18.43
288.715	22.53
288.93	2.05
289.145	28.67
289.36	-12.29
289.575	-12.29
289.79	63.49
290.004	69.63
290.219	63.49
290.434	47.1
290.649	36.86
290.864	40.96
291.079	61.44
291.294	55.3
291.509	8.19
291.724	40.96
291.938	55.3
292.153	28.67
292.368	0
292.583	-4.1
292.798	81.92
293.012	12.29
293.227	16.38
293.442	-10.24
293.657	28.67
293.871	86.01
294.086	4.1
294.301	86.01
294.516	49.15
294.73	12.29
294.945	-71.68
295.16	63.49
295.374	106.49
295.589	-12.29
295.804	12.29
296.018	-32.77
296.233	53.25
296.447	12.29
296.662	55.3
296.877	102.4
297.091	126.97
297.306	4.1
297.52	26.62
297.735	63.49
297.949	-40.96
298.164	104.45
298.378	-49.15
298.593	-36.86
298.807	-14.34
299.022	-4.1
299.236	88.06
299.451	-24.58
299.665	53.25
299.88	-69.63
300.094	-36.86
300.309	-12.29
300.523	-26.62
300.737	36.86
300.952	20.48
301.166	-10.24
301.381	24.58
301.595	-49.15
301.809	-36.86
302.024	-18.43
302.238	83.97
302.452	69.63
302.667	22.53
302.881	22.53
303.095	30.72
303.309	63.49
303.524	12.29
303.738	96.25
303.952	79.87
304.166	-36.86
304.381	-45.06
304.595	36.86
304.809	-28.67
305.023	-8.19
305.237	24.58
305.452	6.14
305.666	28.67
305.88	69.63
306.094	10.24
306.308	88.06
306.522	40.96
306.736	59.39
306.95	38.91
307.164	-22.53
307.379	59.39
307.593	22.53
307.807	32.77
308.021	55.3
308.235	59.39
308.449	-53.25
308.663	47.1
308.877	110.59
309.091	0
309.305	81.92
309.519	0
309.733	63.49
309.947	-32.77
310.161	65.54
310.374	36.86
310.588	47.1
310.802	12.29
311.016	28.67
311.23	-10.24
311.444	45.06
311.658	-26.62
311.872	69.63
312.085	40.96
312.299	45.06
312.513	53.25
312.727	90.11
312.941	0
313.154	53.25
313.368	26.62
313.582	-12.29
313.796	51.2
314.009	53.25
314.223	-20.48
314.437	14.34
314.651	36.86
314.864	-16.38
315.078	-51.2
315.292	-28.67
315.505	53.25
315.719	55.3
315.933	14.34
316.146	4.1
316.36	4.1
316.573	16.38
316.787	102.4
317.001	86.01
317.214	73.73
317.428	-45.06
317.641	18.43
317.855	-43.01
318.068	-61.44
318.282	-28.67
318.495	43.01
318.709	-18.43
318.922	71.68
319.136	32.77
319.349	49.15
319.563	26.62
319.776	20.48
319.99	-22.53
320.203	79.87
320.417	-18.43
320.63	28.67
320.843	45.06
321.057	59.39
321.27	8.19
321.483	69.63
321.697	102.4
321.91	32.77
322.124	24.58
322.337	38.91
322.55	-63.49
322.763	0
322.977	-8.19
323.19	6.14
323.403	22.53
323.617	-45.06
323.83	4.1
324.043	-51.2
324.256	16.38
324.469	-8.19
324.683	45.06
324.896	-16.38
325.109	14.34
325.322	-16.38
325.535	53.25
325.748	36.86
325.962	-16.38
326.175	20.48
326.388	30.72
326.601	-4.1
326.814	81.92
327.027	67.58
327.24	98.3
327.453	-20.48
327.666	131.07
327.879	67.58
328.092	94.21
328.305	12.29
328.518	-20.48
328.731	-16.38
328.944	-45.06
329.157	8.19
329.37	28.67
329.583	79.87
329.796	28.67
330.009	-69.63
330.222	36.86
330.435	59.39
330.648	12.29
330.861	49.15
331.073	-8.19
331.286	67.58
331.499	20.48
331.712	10.24
331.925	36.86
332.138	20.48
332.35	104.45
332.563	-32.77
332.776	65.54
332.989	14.34
333.202	94.21
333.414	18.43
333.627	86.01
333.84	24.58
334.053	-32.77
334.265	55.3
334.478	-36.86
334.691	61.44
334.903	24.58
335.116	-43.01
335.329	-10.24
335.541	18.43
335.754	69.63
335.966	-10.24
336.179	40.96
336.392	88.06
336.604	57.34
336.817	-43.01
337.029	20.48
337.242	0
337.454	12.29
337.667	36.86
337.88	75.77
338.092	-36.86
338.305	75.77
338.517	-32.77
338.729	67.58
338.942	20.48
339.154	32.77
339.367	0
339.579	98.3
339.792	-43.01
340.004	36.86
340.217	96.25
340.429	34.82
340.641	12.29
340.854	-45.06
341.066	-8.19
341.278	20.48
341.491	51.2
341.703	47.1
341.915	26.62
342.128	40.96
342.34	61.44
342.552	-18.43
342.764	83.97
342.977	61.44
343.189	24.58
343.401	88.06
343.613	-2.05
343.826	-28.67
344.038	-12.29
344.25	40.96
344.462	20.48
344.674	45.06
344.886	53.25
345.099	43.01
345.311	-10.24
345.523	-22.53
345.735	-26.62
345.947	36.86
346.159	55.3
346.371	-26.62
346.583	4.1
346.795	65.54
347.007	45.06
347.219	12.29
347.431	53.25
347.643	-18.43
347.855	6.14
348.067	116.73
348.279	-2.05
348.491	20.48
348.703	22.53
348.915	38.91
349.127	32.77
349.339	0
349.551	20.48
349.763	26.62
349.975	81.92
350.187	45.06
350.399	79.87
350.61	53.25
350.822	16.38
351.034	28.67
351.246	28.67
351.458	63.49
351.669	14.34
351.881	28.67
352.093	92.16
352.305	16.38
352.517	49.15
352.728	65.54
352.94	-45.06
353.152	14.34
353.363	32.77
353.575	79.87
353.787	2.05
353.999	59.39
354.21	51.2
354.422	-69.63
354.633	49.15
354.845	12.29
355.057	14.34
355.268	14.34
355.48	4.1
355.692	47.1
355.903	20.48
356.115	53.25
356.326	18.43
356.538	126.97
356.749	18.43
356.961	45.06
357.172	12.29
357.384	4.1
357.595	151.55
357.807	53.25
358.018	-28.67
358.23	30.72
358.441	63.49
358.653	16.38
358.864	22.53
359.075	30.72
359.287	53.25
359.498	-43.01
359.709	14.34
359.921	22.53
360.132	30.72
360.344	-32.77
360.555	-30.72
360.766	-10.24
360.977	79.87
361.189	22.53
361.4	55.3
361.611	-2.05
361.823	77.82
362.034	30.72
362.245	-45.06
362.456	16.38
362.667	10.24
362.879	45.06
363.09	22.53
363.301	135.17
363.512	-18.43
363.723	30.72
363.935	-24.58
364.146	145.41
364.357	-4.1
364.568	30.72
364.779	-10.24
364.99	75.77
365.201	45.06
365.412	69.63
365.623	49.15
365.834	28.67
366.045	108.54
366.256	59.39
366.467	96.25
366.678	53.25
366.889	86.01
367.1	10.24
367.311	-34.82
367.522	12.29
367.733	55.3
367.944	81.92
368.155	55.3
368.366	61.44
368.577	112.64
368.788	38.91
368.999	40.96
369.209	67.58
369.42	73.73
369.631	63.49
369.842	118.78
370.053	30.72
370.264	34.82
370.474	30.72
370.685	55.3
370.896	-4.1
371.107	96.25
371.317	71.68
371.528	12.29
371.739	28.67
371.95	30.72
372.16	77.82
372.371	2.05
372.582	65.54
372.792	4.1
373.003	55.3
373.214	26.62
373.424	63.49
373.635	4.1
373.846	65.54
374.056	28.67
374.267	57.34
374.477	4.1
374.688	-45.06
374.898	69.63
375.109	98.3
375.319	88.06
375.53	57.34
375.74	77.82
375.951	-12.29
376.161	53.25
376.372	104.45
376.582	10.24
376.793	77.82
377.003	20.48
377.214	10.24
377.424	14.34
377.635	90.11
377.845	-16.38
378.055	88.06
378.266	-34.82
378.476	-32.77
378.686	53.25
378.897	12.29
379.107	-26.62
379.317	14.34
379.528	-16.38
379.738	61.44
379.948	8.19
380.158	69.63
380.369	28.67
380.579	69.63
380.789	-20.48
380.999	6.14
381.21	77.82
381.42	90.11
381.63	28.67
381.84	22.53
382.05	43.01
382.261	28.67
382.471	49.15
382.681	-18.43
382.891	22.53
383.101	8.19
383.311	98.3
383.521	16.38
383.731	-22.53
383.941	151.55
384.151	61.44
384.361	36.86
384.571	57.34
384.781	67.58
384.991	67.58
385.201	67.58
385.411	32.77
385.621	69.63
385.831	28.67
386.041	36.86
386.251	59.39
386.461	77.82
386.671	38.91
386.881	40.96
387.091	-12.29
387.301	57.34
387.511	4.1
387.72	-12.29
387.93	40.96
388.14	28.67
388.35	-14.34
388.56	-45.06
388.769	40.96
388.979	65.54
389.189	-88.06
389.399	20.48
389.609	71.68
389.818	63.49
390.028	92.16
390.238	73.73
390.447	57.34
390.657	67.58
390.867	47.1
391.076	-32.77
391.286	20.48
391.496	86.01
391.705	-28.67
391.915	43.01
392.125	75.77
392.334	57.34
392.544	63.49
392.753	55.3
392.963	-34.82
393.172	47.1
393.382	65.54
393.591	69.63
393.801	63.49
394.01	98.3
394.22	110.59
394.429	92.16
394.639	-12.29
394.848	-12.29
395.058	75.77
395.267	51.2
395.477	77.82
395.686	94.21
395.895	133.12
396.105	61.44
396.314	10.24
396.524	67.58
396.733	73.73
396.942	135.17
397.152	47.1
397.361	98.3
397.57	88.06
397.78	118.78
397.989	94.21
398.198	73.73
398.407	32.77
398.617	14.34
398.826	63.49
399.035	94.21
399.244	129.02
399.453	104.45
399.663	32.77
399.872	104.45
400.081	155.65
400.29	96.25
400.499	81.92
400.708	129.02
400.917	69.63
401.127	45.06
401.336	30.72
401.545	114.69
401.754	83.97
401.963	75.77
402.172	77.82
402.381	104.45
402.59	81.92
402.799	55.3
403.008	100.35
403.217	61.44
403.426	83.97
403.635	49.15
403.844	102.4
404.053	28.67
404.262	79.87
404.471	174.08
404.68	94.21
404.888	137.21
405.097	137.21
405.306	149.5
405.515	61.44
405.724	104.45
405.933	210.94
406.142	131.07
406.35	104.45
406.559	83.97
406.768	145.41
406.977	106.49
407.185	178.17
407.394	155.65
407.603	63.49
407.812	176.13
408.02	143.36
408.229	145.41
408.438	176.13
408.646	112.64
408.855	143.36
409.064	161.79
409.272	192.51
409.481	145.41
409.69	266.24
409.898	167.93
410.107	204.8
410.315	190.46
410.524	235.52
410.733	258.04
410.941	229.37
411.15	235.52
411.358	260.09
411.567	350.2
411.775	309.24
411.984	239.61
412.192	321.53
412.401	301.05
412.609	307.2
412.818	421.88
413.026	303.1
413.234	311.29
413.443	331.77
413.651	380.92
413.86	380.92
414.068	475.13
414.276	380.92
414.485	471.03
414.693	530.42
414.901	561.14
415.11	430.07
415.318	464.89
415.526	593.91
415.734	552.95
415.943	653.3
416.151	585.72
416.359	561.14
416.567	659.45
416.776	649.21
416.984	638.97
417.192	692.21
417.4	720.88
417.608	751.6
417.817	757.75
418.025	792.56
418.233	946.16
418.441	866.29
418.649	808.95
418.857	972.79
419.065	995.31
419.273	892.91
419.481	989.17
419.689	1105.9
419.897	1177.58
420.105	1028.08
420.313	1126.38
420.521	1155.05
420.729	1134.57
420.937	1257.45
421.145	1366
421.353	1388.52
421.561	1376.24
421.769	1378.28
421.977	1437.67
422.185	1495.02
422.393	1583.08
422.601	1648.61
422.809	1753.06
423.017	1716.2
423.224	1728.49
423.432	1781.73
423.64	1814.5
423.848	1998.82
424.056	1888.23
424.263	1970.15
424.471	2002.91
424.679	2080.74
424.887	2158.56
425.094	2316.25
425.302	2355.16
425.51	2275.29
425.718	2484.19
425.925	2432.99
426.133	2445.27
426.341	2615.26
426.548	2791.38
426.756	2715.61
426.964	2777.05
427.171	3004.37
427.379	3174.35
427.586	3049.43
427.794	3198.93
428.001	3416.01
428.209	3413.96
428.417	3375.05
428.624	3719.11
428.832	3682.25
429.039	3436.49
429.247	3790.79
429.454	4005.83
429.662	4396.99
429.869	3985.35
430.076	4372.41
430.284	4190.14
430.491	4329.41
430.699	4657.08
430.906	4614.07
431.114	4775.86
431.321	4802.49
431.528	4847.54
431.736	5185.46
431.943	5511.08
432.15	5439.4
432.358	5425.07
432.565	5703.59
432.772	5650.35
432.979	5992.36
433.187	5926.82
433.394	5996.45
433.601	6524.83
433.808	6508.44
434.016	6447.01
434.223	6705.05
434.43	7384.98
434.637	6913.94
434.844	7514
435.052	7442.32
435.259	7462.8
435.466	7446.41
435.673	7315.34
435.88	8021.89
436.087	8671.1
436.294	8329.09
436.501	8236.93
436.708	8523.65
436.915	8685.44
437.122	9256.82
437.329	8877.94
437.537	9158.52
437.743	9326.45
437.95	9291.63
438.157	9721.71
438.364	10065.77
438.571	10082.15
438.778	10119.01
438.985	11263.83
439.192	10706.78
439.399	10968.92
439.606	10825.56
439.813	11628.37
440.02	11951.95
440.227	11896.65
440.433	11806.54
440.64	12173.13
440.847	11980.62
441.054	12339.01
441.261	13082.42
441.467	12951.35
441.674	13414.2
441.881	13733.68
442.088	13678.38
442.294	13627.18
442.501	13954.86
442.708	14335.78
442.914	14800.67
443.121	15324.95
443.328	14874.4
443.534	15943.44
443.741	15656.72
443.948	15488.79
444.154	16189.19
444.361	16228.1
444.568	16576.26
444.774	16303.88
444.981	16545.54
445.187	16944.89
445.394	17794.8
445.6	17852.14
445.807	19347.16
446.013	18411.24
446.22	19042.01
446.426	19601.11
446.633	19752.66
446.839	20586.18
447.046	19699.41
447.252	20432.58
447.459	20491.98
447.665	20598.47
447.871	21440.18
448.078	22529.7
448.284	21176
448.491	21468.86
448.697	22843.04
448.903	23223.97
449.11	23129.76
449.316	22761.12
449.522	23355.04
449.728	23967.38
449.935	24020.63
450.141	24020.63
450.347	24559.24
450.553	23950.99
450.76	24245.9
450.966	24761.99
451.172	24608.39
451.378	25400.96
451.584	24811.14
451.791	25542.27
451.997	25142.91
452.203	25624.18
452.409	25906.8
452.615	25470.59
452.821	24536.71
453.027	24555.15
453.233	25497.21
453.44	24782.47
453.646	25173.63
453.852	24919.68
454.058	25441.92
454.264	24635.02
454.47	25190.02
454.676	24530.57
454.882	25204.35
455.088	23307.93
455.294	23465.63
455.5	23864.98
455.705	24235.66
455.911	23117.47
456.117	23033.5
456.323	22613.67
456.529	21534.39
456.735	22486.7
456.941	21544.63
457.147	21198.52
457.352	20934.34
457.558	20637.38
457.764	20881.09
457.97	20426.44
458.176	20043.47
458.381	19814.1
458.587	18646.76
458.793	18763.49
458.999	18034.41
459.204	19283.67
459.41	18343.66
459.616	17655.54
459.821	17381.11
460.027	17614.58
460.233	17020.67
460.438	16338.69
460.644	16561.92
460.85	15679.25
461.055	15279.89
461.261	15472.4
461.466	14440.23
461.672	13637.42
461.878	14876.44
462.083	13922.09
462.289	13547.31
462.494	13391.67
462.7	12803.9
462.905	12646.21
463.111	12846.91
463.316	13014.84
463.522	12824.38
463.727	12652.35
463.932	12683.07
464.138	12547.9
464.343	12629.82
464.549	12175.17
464.754	12793.66
464.959	12576.58
465.165	12273.48
465.37	11964.23
465.575	11579.22
465.781	11972.43
465.986	12113.74
466.191	11636.56
466.397	11474.77
466.602	10800.99
466.807	11333.46
467.012	11243.35
467.218	11226.96
467.423	11134.81
467.628	11026.26
467.833	11392.85
468.038	11042.65
468.244	10907.48
468.449	11315.03
468.654	10880.86
468.859	10735.45
469.064	10876.76
469.269	10458.98
469.474	10356.58
469.679	10762.08
469.885	10415.97
470.09	10403.68
470.295	10614.62
470.5	10297.19
470.705	10424.16
470.91	9940.84
471.115	10073.96
471.32	10098.53
471.525	9779.05
471.73	9709.42
471.935	9754.48
472.139	9447.28
472.344	9375.6
472.549	9535.34
472.754	9312.11
472.959	9195.38
473.164	9219.96
473.369	9019.25
473.574	9262.96
473.778	9092.98
473.983	9039.73
474.188	8949.62
474.393	8439.68
474.598	8546.17
474.802	8519.55
475.007	8404.86
475.212	8499.07
475.417	8155.01
475.621	8386.43
475.826	8312.71
476.031	8126.34
476.235	7874.44
476.44	8073.09
476.645	7903.11
476.849	7786.38
477.054	7745.42
477.259	7778.19
477.463	7690.12
477.668	7557
477.872	7729.03
478.077	7341.97
478.282	7251.86
478.486	7235.47
478.691	7194.51
478.895	7253.91
479.1	7178.13
479.304	6850.46
479.509	7016.34
479.713	7083.92
479.918	6834.07
480.122	6893.46
480.326	6989.72
480.531	6836.12
480.735	6805.4
480.94	6811.54
481.144	6918.04
481.348	6541.21
481.553	6805.4
481.757	6680.47
481.961	6649.75
482.166	6731.67
482.37	6643.61
482.574	6451.1
482.778	6639.51
482.983	6709.15
483.187	6684.57
483.391	6539.16
483.595	6559.64
483.8	6440.86
484.004	6600.6
484.208	6631.32
484.412	6573.98
484.616	6565.79
484.821	6678.43
485.025	6559.64
485.229	6758.3
485.433	6631.32
485.637	6643.61
485.841	6502.3
486.045	6487.96
486.249	6526.88
486.453	6545.31
486.657	6696.86
486.861	6784.92
487.065	6549.4
487.269	6490.01
487.473	6324.13
487.677	6598.56
487.881	6561.69
488.085	6600.6
488.289	6709.15
488.493	6694.81
488.697	6791.06
488.901	6721.43
489.105	6668.19
489.309	6614.94
489.512	6641.56
489.716	6625.18
489.92	6737.82
490.124	6545.31
490.328	6836.12
490.531	6731.67
490.735	6721.43
490.939	6836.12
491.143	6770.58
491.346	6678.43
491.55	6881.17
491.754	6909.85
491.958	7090.07
492.161	6901.65
492.365	6985.62
492.569	6983.57
492.772	6961.05
492.976	7069.59
493.18	7110.55
493.383	7147.41
493.587	7198.61
493.79	7077.78
493.994	7116.69
494.197	7112.6
494.401	7317.39
494.605	7370.64
494.808	7542.67
495.012	7466.89
495.215	7346.06
495.419	7663.5
495.622	7653.26
495.825	7630.73
496.029	7606.16
496.232	7903.11
496.436	7798.66
496.639	7995.27
496.843	7993.22
497.046	8112
497.249	8089.48
497.453	8232.83
497.656	8284.03
497.859	8114.05
498.063	8476.54
498.266	8552.32
498.469	8626.04
498.673	8558.46
498.876	8609.66
499.079	8720.25
499.282	8638.33
499.485	8959.86
499.689	9043.83
499.892	9252.72
500.095	9303.92
500.298	9461.62
500.501	9547.63
500.705	9844.59
500.908	9805.67
501.111	9707.37
501.314	9881.45
501.517	9977.7
501.72	10198.88
501.923	10051.43
502.126	10198.88
502.329	10514.27
502.532	10559.33
502.735	10514.27
502.938	10850.14
503.141	10872.67
503.344	10854.23
503.547	10970.97
503.75	11071.32
503.953	11302.74
504.156	11427.67
504.359	11376.47
504.562	11423.57
504.765	11816.78
504.968	11972.43
505.17	12103.5
505.373	12037.96
505.576	12453.7
505.779	12334.92
505.982	12449.6
506.185	12619.58
506.387	12670.78
506.59	12742.46
506.793	13031.23
506.996	13104.95
507.198	13596.46
507.401	13422.39
507.604	13492.02
507.807	13623.09
508.009	13901.61
508.212	13934.38
508.415	14032.68
508.617	14229.29
508.82	14268.2
509.022	14458.66
509.225	14698.27
509.428	14757.66
509.63	15134.49
509.833	14980.89
510.035	15322.9
510.238	15433.49
510.44	15572.75
510.643	15712.02
510.845	15968.01
511.048	15787.79
511.25	15789.84
511.453	15986.44
511.655	16776.96
511.858	16514.82
512.06	16580.35
512.262	17014.52
512.465	16723.71
512.667	17467.13
512.87	17487.61
513.072	17223.42
513.274	17684.21
513.477	17616.63
513.679	18183.91
513.881	18310.89
514.084	18464.49
514.286	18501.35
514.488	18841.31
514.69	19103.45
514.893	19173.08
515.095	19087.07
515.297	19637.97
515.499	19517.14
515.701	19709.65
515.904	20006.61
516.106	20180.68
516.308	20297.42
516.51	20530.89
516.712	20526.79
516.914	20627.14
517.116	21083.84
517.318	21180.09
517.52	21141.18
517.722	21358.27
517.925	21927.6
518.127	21833.39
518.329	22030
518.531	21941.94
518.733	22341.29
518.935	22574.76
519.136	22544.04
519.338	22927.01
519.54	22929.06
519.742	23170.72
519.944	23332.51
520.146	23664.28
520.348	23783.06
520.55	24194.7
520.752	23957.14
520.954	24366.73
521.155	24389.26
521.357	24411.79
521.559	24919.68
521.761	25284.22
521.963	25249.41
522.164	25460.35
522.366	25665.14
522.568	25362.04
522.77	25847.41
522.971	25951.86
523.173	25771.64
523.375	26398.32
523.576	26302.06
523.778	26502.76
523.98	26416.75
524.181	26750.57
524.383	27188.83
524.584	27334.24
524.786	27123.3
524.988	27082.34
525.189	27616.86
525.391	27801.18
525.592	27876.95
525.794	27776.6
525.995	27999.83
526.197	28272.21
526.398	28243.54
526.6	28393.04
526.801	28485.2
527.003	28739.15
527.204	28626.51
527.406	28829.26
527.607	28675.66
527.808	29224.51
528.01	28671.56
528.211	28833.35
528.412	29451.84
528.614	29220.42
528.815	29337.15
529.016	29476.41
529.218	29181.51
529.419	29488.7
529.62	29537.85
529.822	29599.29
530.023	29644.35
530.224	29644.35
530.425	29468.22
530.626	29630.01
530.828	29582.91
531.029	30119.48
531.23	29941.3
531.431	29853.24
531.632	29949.49
531.833	30037.56
532.035	30049.85
532.236	29873.72
532.437	29867.58
532.638	29982.26
532.839	30256.69
533.04	30453.3
533.241	29947.45
533.442	30625.32
533.643	30266.93
533.844	30379.57
534.045	30770.73
534.246	30260.79
534.447	30537.26
534.648	30385.71
534.849	30285.36
535.05	30015.03
535.251	30385.71
535.451	30330.42
535.652	30701.1
535.853	30289.46
536.054	30416.43
536.255	30473.78
536.456	30201.4
536.657	30713.39
536.857	30307.89
537.058	30213.68
537.259	30752.3
537.46	30211.64
537.66	30635.56
537.861	30524.97
538.062	30428.72
538.263	30101.04
538.463	29883.96
538.664	30203.44
538.865	30293.55
539.065	30422.58
539.266	29994.55
539.466	30615.08
539.667	29974.07
539.868	30649.9
540.068	30395.95
540.269	30168.63
540.469	30084.66
540.67	29990.45
540.87	30142
541.071	30117.43
541.271	30447.15
541.472	30158.39
541.672	30072.37
541.873	29900.34
542.073	29701.69
542.274	30242.35
542.474	30103.09
542.675	30170.68
542.875	30473.78
543.075	30101.04
543.276	30015.03
543.476	30002.74
543.676	29941.3
543.877	29918.78
544.077	29969.97
544.277	29769.27
544.478	29845.05
544.678	30012.98
544.878	29781.56
545.078	29937.21
545.279	29376.06
545.479	29523.52
545.679	29820.47
545.879	29978.17
546.079	29578.81
546.28	29630.01
546.48	29636.16
546.68	30144.05
546.88	30150.2
547.08	29795.9
547.28	29791.8
547.48	29236.8
547.68	29869.62
547.88	29703.74
548.081	29994.55
548.281	29763.13
548.481	29916.73
548.681	30150.2
548.881	30047.8
549.081	29656.64
549.28	29691.45
549.48	29918.78
549.68	29812.28
549.88	30213.68
550.08	29654.59
550.28	29656.64
550.48	29265.47
550.68	30101.04
550.88	29457.98
551.08	29554.24
551.279	29857.34
551.479	29314.62
551.679	29740.6
551.879	29595.2
552.079	29707.83
552.278	29482.56
552.478	29445.69
552.678	29771.32
552.878	29767.23
553.077	29474.37
553.277	29460.03
553.477	29883.96
553.676	29646.4
553.876	29371.97
554.076	29695.55
554.275	29226.56
554.475	29326.91
554.674	29539.9
554.874	29400.64
555.074	29253.19
555.273	29535.81
555.473	29533.76
555.672	29351.49
555.872	29195.84
556.071	29087.3
556.271	29580.86
556.47	29115.97
556.67	28962.37
556.869	29613.63
557.068	29357.63
557.268	29228.61
557.467	29130.31
557.667	29021.77
557.866	29105.73
558.065	29064.77
558.265	28984.9
558.464	28993.09
558.663	29040.2
558.863	28651.08
559.062	29023.81
559.261	28630.6
559.461	29222.47
559.66	28563.02
559.859	28878.41
560.058	28720.71
560.258	28601.93
560.457	28337.74
560.656	28507.72
560.855	28276.3
561.054	28657.23
561.253	28692.04
561.453	28593.74
561.652	28624.46
561.851	28700.23
562.05	28352.08
562.249	27825.75
562.448	28280.4
562.647	28325.46
562.846	28388.94
563.045	28272.21
563.244	28192.34
563.443	28307.02
563.642	27573.85
563.841	27983.44
564.04	28003.92
564.239	28368.46
564.438	27999.83
564.637	27663.96
564.836	28005.97
565.035	27442.78
565.234	27680.35
565.432	27590.24
565.631	27831.9
565.83	27559.52
566.029	27631.19
566.228	27416.16
566.427	27340.38
566.625	27049.57
566.824	26848.87
567.023	27721.31
567.222	26725.99
567.42	27430.49
567.619	27164.26
567.818	26564.2
568.016	26570.35
568.215	26639.98
568.414	26842.73
568.612	26912.36
568.811	26682.98
569.01	26695.27
569.208	26340.97
569.407	26406.51
569.605	26175.09
569.804	26779.24
570.002	26115.7
570.201	26127.99
570.4	26087.03
570.598	25871.99
570.797	26306.16
570.995	26021.49
571.193	25585.27
571.392	25986.68
571.59	25699.96
571.789	25618.04
571.987	25634.42
572.186	25708.15
572.384	25777.78
572.582	25753.21
572.781	25415.29
572.979	25056.9
573.177	25314.94
573.376	25546.36
573.574	25421.44
573.772	25314.94
573.971	25017.99
574.169	24753.8
574.367	24753.8
574.565	25169.54
574.763	24702.6
574.962	24852.1
575.16	24370.83
575.358	24796.81
575.556	24338.06
575.754	24446.6
575.952	24350.35
576.151	24481.42
576.349	24280.72
576.547	24120.98
576.745	24338.06
576.943	24329.87
577.141	24454.79
577.339	24280.72
577.537	24133.26
577.735	24008.34
577.933	23807.64
578.131	23738.01
578.329	23664.28
578.527	23529.11
578.725	23832.21
578.923	23578.26
579.121	23539.35
579.319	23332.51
579.516	23654.04
579.714	23537.3
579.912	23273.12
580.11	23051.94
580.308	23070.37
580.506	23393.95
580.704	22877.86
580.901	23031.46
581.099	23060.13
581.297	23008.93
581.495	22730.41
581.692	23127.71
581.89	22623.91
582.088	23088.8
582.285	22623.91
582.483	22781.6
582.681	22828.71
582.878	22277.8
583.076	22382.25
583.274	22478.5
583.471	21941.94
583.669	22257.32
583.866	22044.34
584.064	22380.2
584.262	22060.72
584.459	22425.26
584.657	22132.4
584.854	22050.48
585.052	21587.64
585.249	22027.95
585.447	21399.23
585.644	21796.53
585.841	22079.15
586.039	21808.82
586.236	21548.73
586.434	21497.53
586.631	21372.6
586.828	21243.58
587.026	21542.58
587.223	21479.1
587.42	21079.74
587.618	21278.4
587.815	21200.57
588.012	20842.18
588.21	21022.4
588.407	20983.49
588.604	20842.18
588.801	20672.2
588.999	20608.71
589.196	20395.72
589.393	20747.97
589.59	20700.87
589.787	20416.2
589.984	20524.74
590.182	20444.87
590.379	20469.45
590.576	20176.59
590.773	20362.95
590.97	20291.27
591.167	20313.8
591.364	20131.53
591.561	20119.24
591.758	19801.81
591.955	19713.75
592.152	19914.45
592.349	19922.64
592.546	19996.37
592.743	19584.73
592.94	19760.85
593.137	19777.23
593.334	19906.26
593.531	19291.87
593.727	19455.7
593.924	19361.5
594.121	19517.14
594.318	19453.66
594.515	19107.55
594.712	19545.81
594.908	19492.57
595.105	19365.59
595.302	18861.79
595.499	19017.44
595.696	19097.31
595.892	18706.15
596.089	18783.97
596.286	18880.22
596.482	18956
596.679	18749.15
596.876	18765.54
597.072	18456.29
597.269	18800.35
597.466	18251.5
597.662	18198.25
597.859	18347.75
598.055	18255.59
598.252	18097.9
598.448	18153.19
598.645	18296.55
598.841	17921.77
599.038	18325.22
599.234	18089.71
599.431	17882.86
599.627	18044.65
599.824	17823.47
600.02	17628.92
600.217	17645.3
600.413	17526.52
600.609	17759.99
600.806	17563.38
601.002	17659.63
601.198	17391.35
601.395	17264.38
601.591	17479.41
601.787	17305.34
601.984	17104.64
602.18	17323.77
602.376	17166.07
602.572	17176.31
602.769	17135.35
602.965	16989.95
603.161	16862.97
603.357	17065.72
603.553	16971.52
603.75	17014.52
603.946	16994.04
604.142	16793.34
604.338	16510.72
604.534	16709.38
604.73	16619.27
604.926	16570.12
605.122	16305.93
605.318	16293.64
605.514	16258.82
605.71	16256.78
605.906	16264.97
606.102	16137.99
606.298	16437
606.494	16377.61
606.69	16342.79
606.886	16264.97
607.082	16119.56
607.278	16281.35
607.474	15777.55
607.67	16011.02
607.866	15955.72
608.062	16109.32
608.257	15882
608.453	15863.57
608.649	16000.78
608.845	15830.8
609.041	15773.46
609.236	15886.09
609.432	15691.54
609.628	15666.96
609.824	15640.34
610.019	15306.52
610.215	15421.2
610.411	15636.24
610.606	15507.22
610.802	15570.71
610.998	15707.92
611.193	15642.39
611.389	15476.5
611.584	15636.24
611.78	15333.14
611.976	15392.53
612.171	15451.92
612.367	15214.36
612.562	15195.93
612.758	15015.71
612.953	14872.35
613.149	15232.79
613.344	14870.3
613.539	15243.03
613.735	14980.89
613.93	15200.02
614.126	15208.22
614.321	15154.97
614.517	15054.62
614.712	15036.19
614.907	14960.41
615.103	14987.04
615.298	14774.05
615.493	14866.21
615.688	14569.25
615.884	14905.12
616.079	14724.9
616.274	15021.85
616.47	14667.55
616.665	14642.98
616.86	14561.06
617.055	14638.88
617.25	14724.9
617.445	14659.36
617.641	14380.84
617.836	14432.04
618.031	14249.77
618.226	14530.34
618.421	14085.93
618.616	14389.03
618.811	14104.36
619.006	14497.57
619.201	14122.79
619.396	14012.2
619.591	13881.13
619.786	14243.62
619.981	13950.76
620.176	13848.36
620.371	13770.54
620.566	13760.3
620.761	13688.62
620.956	13721.39
621.151	13489.97
621.346	13541.17
621.541	13377.33
621.735	13545.27
621.93	13268.79
622.125	13389.62
622.32	12984.12
622.515	12939.07
622.709	13043.51
622.904	12894.01
623.099	13102.9
623.294	12951.35
623.488	12896.06
623.683	12670.78
623.878	12564.29
624.072	12474.18
624.267	12652.35
624.462	12382.02
624.656	12339.01
624.851	12531.52
625.046	12281.67
625.24	12076.87
625.435	12171.08
625.629	11757.39
625.824	12083.02
626.018	11786.06
626.213	11775.82
626.407	11994.95
626.602	11575.12
626.796	11822.92
626.991	11702.09
627.185	11597.65
627.38	11571.02
627.574	11341.65
627.768	11513.68
627.963	11267.92
628.157	11345.75
628.352	11179.86
628.546	10964.82
628.74	11007.83
628.935	11085.65
629.129	10944.34
629.323	10678.11
629.517	10768.22
629.712	10858.33
629.906	10702.68
630.1	10284.9
630.294	10561.37
630.489	10342.24
630.683	10690.4
630.877	10243.94
631.071	10342.24
631.265	10481.5
631.459	10155.88
631.653	10338.15
631.848	10192.74
632.042	10254.18
632.236	10186.6
632.43	10057.57
632.624	10108.77
632.818	9768.81
633.012	9727.85
633.206	9772.91
633.4	9725.8
633.594	9641.84
633.788	9609.07
633.982	9635.69
634.176	9564.01
634.369	9619.31
634.563	9293.68
634.757	9314.16
634.951	9492.34
635.145	9439.09
635.339	9154.42
635.533	9533.29
635.726	9252.72
635.92	9193.33
636.114	9129.84
636.308	8990.58
636.501	9025.4
636.695	8929.14
636.889	8998.77
637.083	8925.05
637.276	8675.2
637.47	8843.13
637.664	8601.47
637.857	8646.52
638.051	8558.46
638.244	8451.97
638.438	8433.54
638.632	8583.04
638.825	8544.13
639.019	8368
639.212	8359.81
639.406	8329.09
639.599	8241.03
639.793	8220.55
639.986	8081.28
640.18	7993.22
640.373	8058.76
640.567	8023.94
640.76	8128.39
640.954	7991.17
641.147	7956.36
641.34	7890.82
641.534	7720.84
641.727	7704.46
641.92	7696.27
642.114	7608.2
642.307	7753.61
642.5	7526.29
642.694	7384.98
642.887	7593.87
643.08	7536.52
643.273	7528.33
643.467	7421.84
643.66	7397.26
643.853	7360.4
644.046	7292.82
644.239	7366.54
644.432	7241.62
644.626	7163.79
644.819	7131.03
645.012	7245.71
645.205	7198.61
645.398	7012.24
645.591	6948.76
645.784	6940.57
645.977	6899.61
646.17	6860.7
646.363	7040.92
646.556	6674.33
646.749	6739.87
646.942	6836.12
647.135	6836.12
647.328	6666.14
647.521	6703
647.714	6508.44
647.907	6541.21
648.099	6322.08
648.292	6479.77
648.485	6557.6
648.678	6350.75
648.871	6348.7
649.064	6340.51
649.256	6221.73
649.449	6418.33
649.642	6072.23
649.835	6111.14
650.027	6197.15
650.22	6031.27
650.413	6123.43
650.605	6182.82
650.798	5973.92
650.991	6037.41
651.183	6082.47
651.376	5935.01
651.568	6049.7
651.761	6061.99
651.954	5783.46
652.146	5937.06
652.339	5894.05
652.531	5849
652.724	5660.59
652.916	5724.07
653.109	5523.37
653.301	5730.22
653.494	5689.26
653.686	5603.24
653.879	5787.56
654.071	5455.79
654.263	5554.09
654.456	5459.88
654.648	5525.42
654.84	5447.6
655.033	5339.05
655.225	5377.97
655.417	5382.06
655.61	5486.51
655.802	5410.73
655.994	5279.66
656.186	5337.01
656.379	5183.41
656.571	5101.49
656.763	5068.72
656.955	5048.24
657.148	5066.67
657.34	5068.72
657.532	5009.33
657.724	4835.25
657.916	5078.96
658.108	4976.56
658.3	4978.61
658.492	4949.94
658.684	4878.26
658.876	4845.49
659.068	4945.84
659.26	4874.17
659.452	4847.54
659.644	4890.55
659.836	4728.76
660.028	4782.01
660.22	4558.78
660.412	4786.1
660.604	4583.35
660.796	4675.51
660.988	4624.31
661.18	4640.7
661.372	4554.68
661.563	4534.2
661.755	4648.89
661.947	4329.41
662.139	4403.13
662.331	4519.87
662.522	4437.95
662.714	4411.32
662.906	4356.03
663.097	4339.65
663.289	4423.61
663.481	4323.26
663.673	4231.1
663.864	4257.73
664.056	4161.47
664.247	4337.6
664.439	4321.21
664.631	4366.27
664.822	4321.21
665.014	4255.68
665.205	4278.21
665.397	4132.8
665.588	4243.39
665.78	4124.61
665.971	4126.66
666.163	4143.04
666.354	4009.92
666.546	3948.48
666.737	4059.07
666.929	3952.58
667.12	4124.61
667.311	3928
667.503	3899.33
667.694	3874.76
667.885	3805.13
668.077	3971.01
668.268	3852.23
668.459	3880.9
668.651	3882.95
668.842	3764.17
669.033	3813.32
669.224	3887.04
669.416	3747.78
669.607	3741.64
669.798	3768.26
669.989	3807.17
670.18	3702.73
670.371	3657.67
670.563	3817.41
670.754	3710.92
670.945	3723.21
671.136	3602.38
671.327	3684.3
671.518	3708.87
671.709	3563.47
671.9	3710.92
672.091	3665.86
672.282	3624.9
672.473	3499.98
672.664	3657.67
672.855	3592.14
673.046	3573.71
673.237	3618.76
673.428	3559.37
673.619	3506.12
673.809	3510.22
674	3332.05
674.191	3569.61
674.382	3418.06
674.573	3452.88
674.764	3497.93
674.954	3463.12
675.145	3416.01
675.336	3342.28
675.527	3438.54
675.717	3387.34
675.908	3299.28
676.099	3485.64
676.289	3370.96
676.48	3405.77
676.671	3317.71
676.861	3456.97
677.052	3420.11
677.243	3254.22
677.433	3321.81
677.624	3395.53
677.814	3334.09
678.005	3366.86
678.195	3213.26
678.386	3418.06
678.576	3291.09
678.767	3336.14
678.957	3241.93
679.148	3317.71
679.338	3323.85
679.529	3205.07
679.719	3291.09
679.909	3340.24
680.1	3209.17
680.29	3203.02
680.481	3266.51
680.671	3039.19
680.861	3121.1
681.052	3321.81
681.242	3053.52
681.432	3317.71
681.622	3067.86
681.813	3243.98
682.003	3258.32
682.193	3293.13
682.383	3209.17
682.573	3211.22
682.764	3170.26
682.954	3184.59
683.144	3114.96
683.334	3051.47
683.524	3020.75
683.714	3243.98
683.904	3137.49
684.094	3092.43
684.284	3061.71
684.474	3135.44
684.664	3221.45
684.854	3143.63
685.044	3084.24
685.234	3051.47
685.424	3071.95
685.614	3078.1
685.804	3102.67
685.994	2965.46
686.184	3018.71
686.374	3065.81
686.564	3020.75
686.753	3051.47
686.943	2947.03
687.133	3008.47
687.323	2822.1
687.513	3151.82
687.702	2801.62
687.892	2969.55
688.082	2983.89
688.272	3076.05
688.461	2975.7
688.651	2928.6
688.841	2856.92
689.03	2877.4
689.22	2906.07
689.41	2881.49
689.599	2936.79
689.789	2793.43
689.979	2785.24
690.168	2850.77
690.358	2856.92
690.547	2777.05
690.737	2799.57
690.926	2775
691.116	2652.12
691.305	2785.24
691.495	2650.07
691.684	2684.89
691.874	2717.65
692.063	2740.18
692.252	2713.56
692.442	2686.93
692.631	2594.78
692.82	2723.8
693.01	2715.61
693.199	2682.84
693.388	2666.46
693.578	2674.65
693.767	2592.73
693.956	2643.93
694.146	2537.43
694.335	2478.04
694.524	2584.54
694.713	2559.96
694.902	2510.81
695.092	2512.86
695.281	2617.3
695.47	2531.29
695.659	2568.15
695.848	2537.43
696.037	2568.15
696.226	2580.44
696.415	2473.95
696.604	2514.91
696.793	2559.96
696.982	2510.81
697.171	2619.35
697.36	2525.15
697.549	2506.71
697.738	2568.15
697.927	2486.23
698.116	2564.06
698.305	2492.38
698.494	2404.32
698.683	2562.01
698.872	2482.14
699.061	2385.88
699.25	2566.1
699.438	2379.74
699.627	2465.75
699.816	2404.32
700.005	2416.6
700.193	2521.05
700.382	2445.27
700.571	2502.62
700.76	2445.27
700.948	2469.85
701.137	2387.93
701.326	2461.66
701.514	2541.53
701.703	2420.7
701.892	2389.98
702.08	2490.33
702.269	2463.71
702.457	2346.97
702.646	2445.27
702.834	2351.07
703.023	2424.8
703.212	2392.03
703.4	2469.85
703.589	2414.56
703.777	2457.56
703.965	2334.68
704.154	2404.32
704.342	2420.7
704.531	2338.78
704.719	2428.89
704.907	2410.46
705.096	2306.01
705.284	2379.74
705.472	2400.22
705.661	2404.32
705.849	2461.66
706.037	2504.67
706.226	2490.33
706.414	2273.25
706.602	2457.56
706.79	2387.93
706.979	2322.4
707.167	2402.27
707.355	2404.32
707.543	2291.68
707.731	2420.7
707.919	2389.98
708.107	2371.55
708.296	2367.45
708.484	2461.66
708.672	2400.22
708.86	2297.82
709.048	2316.25
709.236	2322.4
709.424	2383.84
709.612	2377.69
709.8	2299.87
709.988	2451.42
710.176	2330.59
710.364	2355.16
710.551	2277.34
710.739	2394.08
710.927	2306.01
711.115	2383.84
711.303	2340.83
711.491	2236.38
711.679	2400.22
711.866	2418.65
712.054	2346.97
712.242	2306.01
712.43	2412.51
712.617	2351.07
712.805	2349.02
712.993	2371.55
713.181	2314.2
713.368	2449.37
713.556	2412.51
713.744	2306.01
713.931	2338.78
714.119	2306.01
714.306	2346.97
714.494	2355.16
714.682	2400.22
714.869	2248.67
715.057	2377.69
715.244	2269.15
715.432	2330.59
715.619	2295.77
715.807	2330.59
715.994	2326.49
716.182	2265.05
716.369	2338.78
716.556	2277.34
716.744	2289.63
716.931	2275.29
717.119	2310.11
717.306	2240.48
717.493	2283.49
717.681	2332.64
717.868	2385.88
718.055	2269.15
718.242	2240.48
718.43	2349.02
718.617	2232.29
718.804	2265.05
718.991	2389.98
719.179	2226.14
719.366	2199.52
719.553	2314.2
719.74	2338.78
719.927	2293.72
720.114	2215.9
720.301	2248.67
720.488	2232.29
720.676	2240.48
720.863	2289.63
721.05	2269.15
721.237	2346.97
721.424	2379.74
721.611	2328.54
721.798	2203.61
721.985	2344.92
722.172	2273.25
722.358	2183.13
722.545	2279.39
722.732	2252.77
722.919	2254.81
723.106	2174.94
723.293	2285.53
723.48	2301.92
723.667	2336.73
723.853	2252.77
724.04	2193.37
724.227	2260.96
724.414	2222.05
724.6	2144.22
724.787	2160.61
724.974	2363.36
725.161	2185.18
725.347	2170.85
725.534	2252.77
725.72	2248.67
725.907	2064.35
726.094	2215.9
726.28	2131.94
726.467	2205.66
726.653	2250.72
726.84	2269.15
727.027	2281.44
727.213	2123.74
727.4	2181.09
727.586	2152.42
727.773	2248.67
727.959	2136.03
728.145	2211.81
728.332	2166.75
728.518	2170.85
728.705	2129.89
728.891	2201.57
729.077	2129.89
729.264	2183.13
729.45	2226.14
729.636	2242.53
729.823	2150.37
730.009	2150.37
730.195	2230.24
730.382	2195.42
730.568	2224.09
730.754	2113.5
730.94	2187.23
731.126	2234.33
731.313	2236.38
731.499	2105.31
731.685	2277.34
731.871	2201.57
732.057	2158.56
732.243	2107.36
732.429	2220
732.615	2185.18
732.801	2176.99
732.987	2056.16
733.173	2232.29
733.359	2052.06
733.545	2193.37
733.731	2058.21
733.917	2176.99
734.103	2150.37
734.289	2119.65
734.475	2215.9
734.661	2297.82
734.847	2215.9
735.033	2121.7
735.219	2187.23
735.404	2109.41
735.59	2187.23
735.776	2119.65
735.962	2162.65
736.148	2203.61
736.333	2060.26
736.519	2013.15
736.705	2181.09
736.89	2050.02
737.076	2119.65
737.262	2084.83
737.447	1996.77
737.633	2054.11
737.819	2009.06
738.004	2101.22
738.19	2109.41
738.375	2076.64
738.561	2152.42
738.747	1994.72
738.932	1957.86
739.118	2191.33
739.303	2078.69
739.489	1982.43
739.674	2080.74
739.859	2052.06
740.045	2013.15
740.23	2013.15
740.416	1961.95
740.601	2019.3
740.786	2060.26
740.972	1994.72
741.157	1892.32
741.342	1822.69
741.528	1902.56
741.713	1970.15
741.898	2074.59
742.084	1964
742.269	1920.99
742.454	2037.73
742.639	1994.72
742.824	1914.85
743.01	2078.69
743.195	1906.66
743.38	1947.62
743.565	1839.08
743.75	1937.38
743.935	1976.29
744.12	1976.29
744.305	1920.99
744.49	1966.05
744.675	1855.46
744.86	1847.27
745.045	1863.65
745.23	1746.92
745.415	1857.51
745.6	1810.4
745.785	1828.84
745.97	1857.51
746.155	1767.4
746.34	1777.64
746.525	1748.97
746.71	1812.45
746.895	1693.67
747.079	1665
747.264	1667.05
747.449	1708.01
747.634	1871.84
747.819	1703.91
748.003	1646.57
748.188	1544.17
748.373	1675.24
748.557	1691.62
748.742	1581.03
748.927	1687.53
749.111	1628.14
749.296	1683.43
749.481	1619.94
749.665	1597.42
749.85	1515.5
750.034	1587.18
750.219	1480.68
750.404	1556.46
750.588	1454.06
750.773	1566.7
750.957	1462.25
751.141	1605.61
751.326	1431.53
751.51	1470.44
751.695	1380.33
751.879	1564.65
752.064	1505.26
752.248	1374.19
752.432	1497.07
752.617	1433.58
752.801	1458.15
752.985	1417.19
753.17	1382.38
753.354	1437.67
753.538	1419.24
753.722	1322.99
753.907	1300.46
754.091	1294.32
754.275	1310.7
754.459	1390.57
754.643	1290.22
754.828	1259.5
755.012	1282.03
755.196	1286.12
755.38	1300.46
755.564	1232.88
755.748	1284.08
755.932	1292.27
756.116	1243.12
756.3	1171.44
756.484	1167.34
756.668	1337.32
756.852	1159.15
757.036	1193.97
757.22	1116.14
757.404	1153.01
757.588	1191.92
757.772	1249.26
757.956	1257.45
758.14	1288.17
758.323	1144.81
758.507	1132.53
758.691	1091.57
758.875	1150.96
759.059	1150.96
759.242	1093.62
759.426	1157.1
759.61	1089.52
759.794	978.93
759.977	1044.46
760.161	1122.29
760.345	1169.39
760.528	1130.48
760.712	1048.56
760.895	1038.32
761.079	1050.61
761.263	1015.79
761.446	1050.61
761.63	1066.99
761.813	997.36
761.997	985.07
762.18	892.91
762.364	1019.89
762.547	1019.89
762.731	958.45
762.914	931.83
763.098	1056.75
763.281	1015.79
763.464	958.45
763.648	921.59
763.831	980.98
764.015	913.39
764.198	980.98
764.381	937.97
764.564	890.87
764.748	923.63
764.931	856.05
765.114	892.91
765.297	815.09
765.481	843.76
765.664	880.63
765.847	933.87
766.03	872.43
766.213	819.19
766.397	872.43
766.58	767.99
766.763	868.34
766.946	821.24
767.129	776.18
767.312	833.52
767.495	880.63
767.678	782.32
767.861	841.72
768.044	892.91
768.227	884.72
768.41	774.13
768.593	913.39
768.776	776.18
768.959	761.84
769.142	798.71
769.324	817.14
769.507	823.28
769.69	833.52
769.873	741.36
770.056	833.52
770.239	767.99
770.421	778.23
770.604	817.14
770.787	806.9
770.97	774.13
771.152	778.23
771.335	864.24
771.518	714.74
771.7	798.71
771.883	798.71
772.066	708.6
772.248	686.07
772.431	784.37
772.613	765.94
772.796	704.5
772.978	700.41
773.161	811
773.343	677.88
773.526	759.8
773.708	673.78
773.891	634.87
774.073	720.88
774.256	671.73
774.438	677.88
774.621	710.65
774.803	737.27
774.985	595.96
775.168	667.64
775.35	571.38
775.532	770.04
775.715	620.53
775.897	653.3
776.079	571.38
776.261	630.77
776.444	661.49
776.626	657.4
776.808	587.77
776.99	610.29
777.173	569.34
777.355	638.97
777.537	520.18
777.719	561.14
777.901	563.19
778.083	530.42
778.265	585.72
778.447	614.39
778.629	520.18
778.811	634.87
778.993	557.05
779.175	495.61
779.357	520.18
779.539	479.22
779.721	499.7
779.903	550.9
780.085	471.03
780.267	524.28
780.449	550.9
780.631	546.81
780.812	514.04
780.994	532.47
781.176	456.7
781.358	471.03
781.54	425.98
781.721	487.42
781.903	473.08
782.085	438.27
782.267	428.03
782.448	462.84
782.63	421.88
782.812	507.9
782.993	397.31
783.175	473.08
783.357	497.66
783.538	462.84
783.72	446.46
783.901	438.27
784.083	411.64
784.264	415.74
784.446	327.67
784.627	372.73
784.809	413.69
784.99	360.44
785.172	460.79
785.353	385.02
785.535	454.65
785.716	409.59
785.897	403.45
786.079	438.27
786.26	333.82
786.441	514.04
786.623	382.97
786.804	385.02
786.985	360.44
787.167	372.73
787.348	315.39
787.529	413.69
787.71	407.55
787.891	348.15
788.073	372.73
788.254	358.39
788.435	454.65
788.616	378.87
788.797	372.73
788.978	358.39
789.159	292.86
789.34	389.11
789.522	315.39
789.703	325.63
789.884	364.54
790.065	360.44
790.246	413.69
790.427	337.91
790.607	325.63
790.788	364.54
790.969	307.2
791.15	294.91
791.331	307.2
791.512	243.71
791.693	299
791.874	286.72
792.054	344.06
792.235	356.35
792.416	397.31
792.597	321.53
792.778	256
792.958	274.43
793.139	258.04
793.32	321.53
793.5	256
793.681	288.76
793.862	299
794.042	258.04
794.223	233.47
794.404	270.33
794.584	282.62
794.765	239.61
794.945	233.47
795.126	278.52
795.306	305.15
795.487	243.71
795.667	223.23
795.848	233.47
796.028	237.56
796.209	210.94
796.389	307.2
796.57	280.57
796.75	149.5
796.93	210.94
797.111	208.89
797.291	225.28
797.471	221.18
797.652	241.66
797.832	221.18
798.012	251.9
798.192	133.12
798.373	215.04
798.553	237.56
798.733	169.98
798.913	247.8
799.093	251.9
799.274	235.52
799.454	208.89
799.634	215.04
799.814	245.76
799.994	217.08
800.174	223.23
800.354	180.22
800.534	151.55
800.714	192.51
800.894	180.22
801.074	184.32
801.254	129.02
801.434	178.17
801.614	194.56
801.794	131.07
801.974	659.45
802.154	180.22
802.334	176.13
802.514	145.41
802.693	192.51
802.873	157.69
803.053	167.93
803.233	157.69
803.413	241.66
803.592	217.08
803.772	184.32
803.952	221.18
804.131	102.4
804.311	219.13
804.491	229.37
804.67	184.32
804.85	120.83
805.03	270.33
805.209	161.79
805.389	208.89
805.568	176.13
805.748	167.93
805.928	192.51
806.107	217.08
806.287	122.88
806.466	182.27
806.646	219.13
806.825	141.31
807.004	178.17
807.184	200.7
807.363	133.12
807.543	53.25
807.722	204.8
807.901	243.71
808.081	155.65
808.26	81.92
808.439	200.7
808.619	133.12
808.798	176.13
808.977	174.08
809.156	172.03
809.336	126.97
809.515	145.41
809.694	139.26
809.873	196.61
810.052	102.4
810.231	139.26
810.411	129.02
810.59	172.03
810.769	145.41
810.948	118.78
811.127	118.78
811.306	94.21
811.485	126.97
811.664	118.78
811.843	126.97
812.022	153.6
812.201	94.21
812.38	129.02
812.559	126.97
812.737	260.09
812.916	131.07
813.095	86.01
813.274	143.36
813.453	153.6
813.632	90.11
813.811	137.21
813.989	94.21
814.168	126.97
814.347	94.21
814.526	98.3
814.704	159.74
814.883	169.98
815.062	106.49
815.24	139.26
815.419	40.96
815.598	169.98
815.776	96.25
815.955	55.3
816.133	126.97
816.312	102.4
816.49	151.55
816.669	161.79
816.847	38.91
817.026	129.02
817.204	143.36
817.383	126.97
817.561	53.25
817.74	145.41
817.918	145.41
818.097	96.25
818.275	114.69
818.453	112.64
818.632	96.25
818.81	161.79
818.988	135.17
819.167	145.41
819.345	155.65
819.523	118.78
819.701	110.59
819.879	120.83
820.058	63.49
820.236	28.67
820.414	79.87
820.592	169.98
820.77	108.54
820.948	61.44
821.127	71.68
821.305	79.87
821.483	104.45
821.661	96.25
821.839	55.3
822.017	28.67
822.195	69.63
822.373	126.97
822.551	131.07
822.729	53.25
822.907	98.3
823.085	94.21
823.262	26.62
823.44	45.06
823.618	112.64
823.796	69.63
823.974	79.87
824.152	63.49
824.329	104.45
824.507	137.21
824.685	102.4
824.863	38.91
825.04	71.68
825.218	94.21
825.396	147.45
825.574	30.72
825.751	112.64
825.929	110.59
826.107	26.62
826.284	104.45
826.462	100.35
826.639	26.62
826.817	71.68
826.994	96.25
827.172	0
827.349	100.35
827.527	106.49
827.704	204.8
827.882	86.01
828.059	61.44
828.237	88.06
828.414	73.73
828.591	-59.39
828.769	69.63
828.946	26.62
829.124	73.73
829.301	71.68
829.478	98.3
829.655	122.88
829.833	14.34
830.01	4.1
830.187	102.4
830.364	-24.58
830.542	120.83
830.719	81.92
830.896	77.82
831.073	20.48
831.25	106.49
831.427	77.82
831.604	102.4
831.782	55.3
831.959	38.91
832.136	30.72
832.313	92.16
832.49	112.64
832.667	104.45
832.844	-20.48
833.021	151.55
833.198	67.58
833.374	77.82
833.551	12.29
833.728	45.06
833.905	90.11
834.082	45.06
834.259	110.59
834.436	118.78
834.612	81.92
834.789	120.83
834.966	55.3
835.143	79.87
835.319	57.34
835.496	53.25
835.673	-8.19
835.85	65.54
836.026	-32.77
836.203	114.69
836.38	40.96
836.556	114.69
836.733	28.67
836.909	53.25
837.086	49.15
837.262	20.48
837.439	12.29
837.616	110.59
837.792	73.73
837.968	77.82
838.145	26.62
838.321	69.63
838.498	59.39
838.674	28.67
838.851	22.53
839.027	61.44
839.203	75.77
839.38	61.44
839.556	20.48
839.732	-10.24
839.909	55.3
840.085	55.3
840.261	98.3
840.437	110.59
840.614	16.38
840.79	88.06
840.966	65.54
841.142	53.25
841.318	51.2
841.494	63.49
841.671	67.58
841.847	53.25
842.023	10.24
842.199	59.39
842.375	106.49
842.551	38.91
842.727	16.38
842.903	73.73
843.079	40.96
843.255	-4.1
843.431	16.38
843.607	126.97
843.783	-20.48
843.959	75.77
844.134	26.62
844.31	94.21
844.486	4.1
844.662	36.86
844.838	38.91
845.013	-20.48
845.189	57.34
845.365	14.34
845.541	45.06
845.716	106.49
845.892	96.25
846.068	30.72
846.244	71.68
846.419	-12.29
846.595	26.62
846.77	20.48
846.946	14.34
847.122	96.25
847.297	-12.29
847.473	81.92
847.648	-4.1
847.824	47.1
847.999	-12.29
848.175	53.25
848.35	79.87
848.526	94.21
848.701	110.59
848.876	98.3
849.052	45.06
849.227	6.14
849.403	30.72
849.578	61.44
849.753	49.15
849.929	81.92
850.104	20.48
850.279	12.29
850.454	-20.48
850.63	43.01
850.805	14.34
850.98	71.68
851.155	22.53
851.33	36.86
851.505	-22.53
851.681	110.59
851.856	51.2
852.031	96.25
852.206	14.34
852.381	-20.48
852.556	4.1
852.731	-20.48
852.906	8.19
853.081	88.06
853.256	65.54
853.431	-32.77
853.606	0
853.781	30.72
853.956	-45.06
854.131	20.48
854.305	32.77
854.48	-32.77
854.655	28.67
854.83	36.86
855.005	90.11
855.18	2.05
855.354	12.29
855.529	59.39
855.704	4.1
855.879	12.29
856.053	-10.24
856.228	4.1
856.403	6.14
856.577	22.53
856.752	67.58
856.926	61.44
857.101	-4.1
857.276	-26.62
857.45	-4.1
857.625	92.16
857.799	45.06
857.974	2.05
858.148	-8.19
858.323	10.24
858.497	6.14
858.672	-18.43
858.846	43.01
859.02	16.38
859.195	-20.48
859.369	63.49
859.543	-8.19
859.718	28.67
859.892	40.96
860.066	6.14
860.241	0
860.415	38.91
860.589	47.1
860.763	-18.43
860.938	-8.19
861.112	14.34
861.286	-26.62
861.46	14.34
861.634	16.38
861.808	79.87
861.982	28.67
862.157	55.3
862.331	-16.38
862.505	-32.77
862.679	-67.58
862.853	83.97
863.027	-53.25
863.201	102.4
863.375	45.06
863.549	43.01
863.722	-18.43
863.896	34.82
864.07	2.05
864.244	53.25
864.418	-22.53
864.592	4.1
864.766	47.1
864.939	10.24
865.113	14.34
865.287	143.36
865.461	-90.11
865.634	59.39
865.808	4.1
865.982	-12.29
866.156	-79.87
866.329	-20.48
866.503	28.67
866.676	32.77
866.85	4.1
867.024	53.25
867.197	-14.34
867.371	28.67
867.544	81.92
867.718	-4.1
867.891	-12.29
868.065	-12.29
868.238	-10.24
868.412	61.44
868.585	-2.05
868.759	45.06
868.932	18.43
869.105	28.67
869.279	28.67
869.452	36.86
869.625	32.77
869.799	-24.58
869.972	-26.62
870.145	-36.86
870.319	40.96
870.492	77.82
870.665	8.19
870.838	-40.96
871.011	-38.91
871.185	53.25
871.358	-4.1
871.531	-75.77
871.704	-40.96
871.877	47.1
872.05	-20.48
872.223	-40.96
872.396	-12.29
872.569	57.34
872.742	12.29
872.915	28.67
873.088	-36.86
873.261	28.67
873.434	53.25
873.607	24.58
873.78	-10.24
873.953	-2.05
874.126	-4.1
874.299	47.1
874.471	-61.44
874.644	40.96
874.817	14.34
874.99	36.86
875.163	-16.38
875.335	88.06
875.508	69.63
875.681	-12.29
875.853	-4.1
876.026	32.77
876.199	8.19
876.371	12.29
876.544	104.45
876.717	28.67
876.889	-10.24
877.062	77.82
877.234	-24.58
877.407	63.49
877.579	-22.53
877.752	73.73
877.924	47.1
878.097	-14.34
878.269	-30.72
878.442	47.1
878.614	-53.25
878.786	-36.86
878.959	24.58
879.131	-61.44
879.303	38.91
879.476	69.63
879.648	61.44
879.82	30.72
879.993	-14.34
880.165	-8.19
880.337	-38.91
880.509	38.91
880.681	-34.82
880.854	-36.86
881.026	-22.53
881.198	63.49
881.37	8.19
881.542	-94.21
881.714	24.58
881.886	20.48
882.058	-18.43
882.23	57.34
882.402	32.77
882.574	24.58
882.746	73.73
882.918	18.43
883.09	-20.48
883.262	-24.58
883.434	10.24
883.606	30.72
883.778	34.82
883.95	-43.01
884.122	57.34
884.293	2.05
884.465	8.19
884.637	-12.29
884.809	-24.58
884.98	4.1
885.152	4.1
885.324	0
885.496	-6.14
885.667	-61.44
885.839	20.48
886.011	47.1
886.182	57.34
886.354	18.43
886.525	73.73
886.697	-28.67
886.869	-10.24
887.04	-43.01
887.212	28.67
887.383	4.1
887.555	10.24
887.726	12.29
887.897	-16.38
888.069	36.86
888.24	-8.19
888.412	6.14
888.583	-65.54
888.754	45.06
888.926	-67.58
889.097	20.48
889.268	-16.38
889.44	4.1
889.611	-28.67
889.782	-16.38
889.953	-2.05
890.125	38.91
890.296	-71.68
890.467	4.1
890.638	-10.24
890.809	-51.2
890.98	-18.43
891.151	-8.19
891.323	45.06
891.494	14.34
891.665	28.67
891.836	16.38
892.007	0
892.178	-61.44
892.349	22.53
892.52	63.49
892.691	-75.77
892.862	-47.1
893.032	-32.77
893.203	-20.48
893.374	-36.86
893.545	-26.62
893.716	-4.1
893.887	28.67
894.057	-22.53
894.228	22.53
894.399	-32.77
894.57	4.1
894.74	28.67
894.911	53.25
895.082	59.39
895.253	-26.62
895.423	77.82
895.594	79.87
895.764	8.19
895.935	-8.19
896.106	12.29
896.276	22.53
896.447	4.1
896.617	-26.62
896.788	16.38
896.958	-4.1
897.129	-2.05
897.299	-45.06
897.47	20.48
897.64	22.53
897.81	-40.96
897.981	90.11
898.151	10.24
898.322	73.73
898.492	-40.96
898.662	-32.77
898.832	12.29
899.003	-45.06
899.173	-12.29
899.343	-26.62
899.513	-98.3
