Data from USB4F104151__138__14-19-12-414.txt Node

Date: Thu Mar 13 14:19:12 EDT 2025
User: louis
Spectrometer: USB4F10415
Trigger mode: 4
Integration Time (sec): 2.000000E-2
Scans to average: 1
Electric dark correction enabled: true
Nonlinearity correction enabled: false
Boxcar width: 0
XAxis mode: Wavelengths
Number of Pixels in Spectrum: 3648
>>>>>Begin Spectral Data<<<<<
178.204	-121.34
178.424	-121.34
178.644	-121.34
178.864	-96.77
179.084	-150.01
179.304	-12.8
179.524	-41.47
179.744	-6.66
179.964	-0.51
180.184	-49.66
180.404	15.87
180.624	-2.56
180.844	22.02
181.064	-16.9
181.283	44.54
181.503	40.45
181.723	7.68
181.943	-55.81
182.163	112.13
182.383	40.45
182.602	42.5
182.822	89.6
183.042	-6.66
183.262	40.45
183.482	-6.66
183.701	-33.28
183.921	9.73
184.141	-16.9
184.361	-2.56
184.58	30.21
184.8	44.54
185.02	22.02
185.239	95.74
185.459	48.64
185.679	79.36
185.898	-64
186.118	13.82
186.338	95.74
186.557	34.3
186.777	-4.61
186.997	32.26
187.216	-39.42
187.436	40.45
187.655	48.64
187.875	69.12
188.095	24.06
188.314	9.73
188.534	-2.56
188.753	-18.94
188.973	54.78
189.192	99.84
189.412	56.83
189.631	38.4
189.851	17.92
190.07	5.63
190.29	17.92
190.509	24.06
190.729	97.79
190.948	69.12
191.168	140.8
191.387	40.45
191.607	24.06
191.826	62.98
192.045	-23.04
192.265	-10.75
192.484	-66.05
192.704	-51.71
192.923	46.59
193.142	32.26
193.362	77.31
193.581	-16.9
193.8	11.78
194.02	9.73
194.239	13.82
194.458	-18.94
194.678	30.21
194.897	32.26
195.116	50.69
195.335	15.87
195.555	32.26
195.774	-10.75
195.993	5.63
196.212	-8.7
196.432	-2.56
196.651	30.21
196.87	-18.94
197.089	99.84
197.308	-4.61
197.528	-8.7
197.747	-35.33
197.966	38.4
198.185	56.83
198.404	-35.33
198.623	32.26
198.842	1.54
199.062	-23.04
199.281	50.69
199.5	13.82
199.719	13.82
199.938	83.45
200.157	46.59
200.376	32.26
200.595	81.41
200.814	-78.33
201.033	19.97
201.252	-2.56
201.471	22.02
201.69	46.59
201.909	54.78
202.128	-43.52
202.347	71.17
202.566	-0.51
202.785	56.83
203.004	48.64
203.223	56.83
203.442	15.87
203.661	-51.71
203.879	77.31
204.098	3.58
204.317	-76.29
204.536	79.36
204.755	-25.09
204.974	26.11
205.193	44.54
205.411	122.37
205.63	54.78
205.849	38.4
206.068	50.69
206.287	3.58
206.505	42.5
206.724	7.68
206.943	17.92
207.162	62.98
207.381	26.11
207.599	5.63
207.818	46.59
208.037	-12.8
208.255	11.78
208.474	28.16
208.693	83.45
208.911	-12.8
209.13	62.98
209.349	71.17
209.567	81.41
209.786	7.68
210.005	-0.51
210.223	5.63
210.442	42.5
210.661	5.63
210.879	36.35
211.098	19.97
211.316	1.54
211.535	54.78
211.753	40.45
211.972	38.4
212.191	9.73
212.409	44.54
212.628	118.27
212.846	79.36
213.065	1.54
213.283	103.93
213.502	-31.23
213.72	5.63
213.938	22.02
214.157	22.02
214.375	-2.56
214.594	62.98
214.812	-6.66
215.031	-23.04
215.249	9.73
215.467	7.68
215.686	-43.52
215.904	79.36
216.122	-0.51
216.341	91.65
216.559	-25.09
216.778	5.63
216.996	30.21
217.214	13.82
217.432	-27.14
217.651	-4.61
217.869	69.12
218.087	56.83
218.306	-8.7
218.524	65.02
218.742	-27.14
218.96	124.41
219.179	11.78
219.397	81.41
219.615	46.59
219.833	-37.38
220.051	46.59
220.27	62.98
220.488	-8.7
220.706	54.78
220.924	5.63
221.142	34.3
221.36	-43.52
221.578	19.97
221.796	-35.33
222.015	-10.75
222.233	62.98
222.451	97.79
222.669	40.45
222.887	-10.75
223.105	-12.8
223.323	-39.42
223.541	13.82
223.759	22.02
223.977	91.65
224.195	116.22
224.413	34.3
224.631	50.69
224.849	-33.28
225.067	38.4
225.285	-20.99
225.503	30.21
225.721	-64
225.939	-39.42
226.157	28.16
226.375	11.78
226.592	-33.28
226.81	30.21
227.028	62.98
227.246	-8.7
227.464	-37.38
227.682	30.21
227.9	62.98
228.117	-68.09
228.335	7.68
228.553	22.02
228.771	32.26
228.989	32.26
229.206	-23.04
229.424	-8.7
229.642	1.54
229.86	32.26
230.077	28.16
230.295	40.45
230.513	85.5
230.731	79.36
230.948	83.45
231.166	58.88
231.384	-41.47
231.601	15.87
231.819	56.83
232.037	-2.56
232.254	38.4
232.472	19.97
232.689	-0.51
232.907	22.02
233.125	69.12
233.342	-10.75
233.56	1.54
233.777	-35.33
233.995	-10.75
234.213	46.59
234.43	-29.18
234.648	-8.7
234.865	7.68
235.083	1.54
235.3	-41.47
235.518	15.87
235.735	56.83
235.953	54.78
236.17	-20.99
236.388	-14.85
236.605	73.21
236.822	48.64
237.04	67.07
237.257	50.69
237.475	-2.56
237.692	83.45
237.909	-27.14
238.127	30.21
238.344	42.5
238.562	13.82
238.779	-18.94
238.996	-29.18
239.214	44.54
239.431	-0.51
239.648	9.73
239.865	65.02
240.083	-20.99
240.3	-10.75
240.517	-45.57
240.735	-51.71
240.952	5.63
241.169	95.74
241.386	-2.56
241.603	-10.75
241.821	-27.14
242.038	3.58
242.255	71.17
242.472	-35.33
242.689	65.02
242.907	58.88
243.124	-8.7
243.341	40.45
243.558	-18.94
243.775	7.68
243.992	36.35
244.209	71.17
244.426	40.45
244.643	13.82
244.86	112.13
245.078	22.02
245.295	-68.09
245.512	9.73
245.729	-10.75
245.946	50.69
246.163	75.26
246.38	13.82
246.597	32.26
246.814	15.87
247.031	48.64
247.248	48.64
247.464	52.74
247.681	56.83
247.898	13.82
248.115	-8.7
248.332	-57.86
248.549	120.32
248.766	38.4
248.983	46.59
249.2	40.45
249.417	7.68
249.633	-10.75
249.85	24.06
250.067	-14.85
250.284	42.5
250.501	13.82
250.717	77.31
250.934	3.58
251.151	91.65
251.368	62.98
251.585	62.98
251.801	40.45
252.018	-49.66
252.235	-6.66
252.451	50.69
252.668	-16.9
252.885	11.78
253.102	108.03
253.318	9.73
253.535	-80.38
253.752	1.54
253.968	7.68
254.185	-27.14
254.401	1.54
254.618	-66.05
254.835	-33.28
255.051	118.27
255.268	24.06
255.484	67.07
255.701	62.98
255.917	-8.7
256.134	-2.56
256.351	36.35
256.567	9.73
256.784	108.03
257	-68.09
257.217	42.5
257.433	-18.94
257.65	22.02
257.866	58.88
258.082	48.64
258.299	17.92
258.515	46.59
258.732	-31.23
258.948	-2.56
259.165	-51.71
259.381	15.87
259.597	22.02
259.814	40.45
260.03	34.3
260.246	-90.62
260.463	62.98
260.679	40.45
260.895	28.16
261.112	15.87
261.328	7.68
261.544	-37.38
261.761	83.45
261.977	22.02
262.193	-8.7
262.409	15.87
262.626	44.54
262.842	67.07
263.058	-33.28
263.274	58.88
263.49	26.11
263.707	85.5
263.923	9.73
264.139	-10.75
264.355	77.31
264.571	36.35
264.787	-14.85
265.004	-12.8
265.22	17.92
265.436	-10.75
265.652	-90.62
265.868	-8.7
266.084	-76.29
266.3	32.26
266.516	-57.86
266.732	22.02
266.948	-10.75
267.164	40.45
267.38	34.3
267.596	30.21
267.812	38.4
268.028	-23.04
268.244	-39.42
268.46	34.3
268.676	30.21
268.892	65.02
269.108	-2.56
269.324	-92.67
269.54	9.73
269.756	58.88
269.972	-12.8
270.188	9.73
270.403	-6.66
270.619	28.16
270.835	-20.99
271.051	-35.33
271.267	-27.14
271.483	36.35
271.698	-27.14
271.914	9.73
272.13	30.21
272.346	-10.75
272.562	-2.56
272.777	81.41
272.993	17.92
273.209	-23.04
273.425	-0.51
273.64	50.69
273.856	50.69
274.072	50.69
274.287	77.31
274.503	30.21
274.719	15.87
274.934	-10.75
275.15	-80.38
275.366	-35.33
275.581	26.11
275.797	48.64
276.012	1.54
276.228	-33.28
276.444	-12.8
276.659	-2.56
276.875	7.68
277.09	5.63
277.306	5.63
277.521	-18.94
277.737	42.5
277.952	48.64
278.168	62.98
278.383	91.65
278.599	7.68
278.814	85.5
279.03	30.21
279.245	75.26
279.461	103.93
279.676	108.03
279.892	-49.66
280.107	75.26
280.322	-6.66
280.538	38.4
280.753	-20.99
280.969	136.7
281.184	7.68
281.399	87.55
281.615	83.45
281.83	54.78
282.045	3.58
282.26	-35.33
282.476	50.69
282.691	15.87
282.906	32.26
283.122	58.88
283.337	-100.86
283.552	-2.56
283.767	26.11
283.983	13.82
284.198	13.82
284.413	54.78
284.628	-4.61
284.843	3.58
285.058	40.45
285.274	34.3
285.489	34.3
285.704	54.78
285.919	75.26
286.134	52.74
286.349	30.21
286.564	19.97
286.779	75.26
286.995	73.21
287.21	34.3
287.425	-51.71
287.64	34.3
287.855	40.45
288.07	-10.75
288.285	24.06
288.5	-27.14
288.715	54.78
288.93	65.02
289.145	22.02
289.36	62.98
289.575	22.02
289.79	44.54
290.004	44.54
290.219	-2.56
290.434	-25.09
290.649	62.98
290.864	1.54
291.079	-10.75
291.294	-6.66
291.509	13.82
291.724	-31.23
291.938	54.78
292.153	13.82
292.368	42.5
292.583	-25.09
292.798	17.92
293.012	-18.94
293.227	-16.9
293.442	-16.9
293.657	22.02
293.871	54.78
294.086	30.21
294.301	95.74
294.516	46.59
294.73	13.82
294.945	-29.18
295.16	-0.51
295.374	26.11
295.589	116.22
295.804	-18.94
296.018	7.68
296.233	46.59
296.447	9.73
296.662	-10.75
296.877	22.02
297.091	48.64
297.306	-59.9
297.52	-31.23
297.735	71.17
297.949	54.78
298.164	50.69
298.378	15.87
298.593	-10.75
298.807	34.3
299.022	-10.75
299.236	1.54
299.451	46.59
299.665	-27.14
299.88	-2.56
300.094	5.63
300.309	-27.14
300.523	79.36
300.737	5.63
300.952	-10.75
301.166	26.11
301.381	79.36
301.595	3.58
301.809	26.11
302.024	38.4
302.238	-111.1
302.452	17.92
302.667	-8.7
302.881	58.88
303.095	71.17
303.309	1.54
303.524	15.87
303.738	17.92
303.952	5.63
304.166	42.5
304.381	-92.67
304.595	56.83
304.809	-2.56
305.023	50.69
305.237	15.87
305.452	83.45
305.666	-10.75
305.88	54.78
306.094	-27.14
306.308	62.98
306.522	19.97
306.736	32.26
306.95	30.21
307.164	-0.51
307.379	-29.18
307.593	17.92
307.807	19.97
308.021	-0.51
308.235	99.84
308.449	-51.71
308.663	-6.66
308.877	48.64
309.091	22.02
309.305	9.73
309.519	-27.14
309.733	87.55
309.947	22.02
310.161	-16.9
310.374	-23.04
310.588	81.41
310.802	1.54
311.016	32.26
311.23	38.4
311.444	42.5
311.658	65.02
311.872	83.45
312.085	13.82
312.299	83.45
312.513	15.87
312.727	67.07
312.941	-2.56
313.154	17.92
313.368	38.4
313.582	-16.9
313.796	40.45
314.009	81.41
314.223	-35.33
314.437	-25.09
314.651	56.83
314.864	-0.51
315.078	-55.81
315.292	-55.81
315.505	-20.99
315.719	-29.18
315.933	3.58
316.146	62.98
316.36	-47.62
316.573	13.82
316.787	101.89
317.001	32.26
317.214	40.45
317.428	13.82
317.641	-43.52
317.855	19.97
318.068	97.79
318.282	5.63
318.495	95.74
318.709	26.11
318.922	54.78
319.136	83.45
319.349	67.07
319.563	-0.51
319.776	22.02
319.99	-8.7
320.203	50.69
320.417	1.54
320.63	81.41
320.843	60.93
321.057	42.5
321.27	-35.33
321.483	-68.09
321.697	28.16
321.91	1.54
322.124	-59.9
322.337	46.59
322.55	48.64
322.763	-55.81
322.977	-43.52
323.19	46.59
323.403	40.45
323.617	13.82
323.83	112.13
324.043	13.82
324.256	15.87
324.469	62.98
324.683	38.4
324.896	7.68
325.109	22.02
325.322	-16.9
325.535	50.69
325.748	32.26
325.962	9.73
326.175	-35.33
326.388	-27.14
326.601	13.82
326.814	-10.75
327.027	-10.75
327.24	-8.7
327.453	87.55
327.666	101.89
327.879	1.54
328.092	85.5
328.305	67.07
328.518	40.45
328.731	-8.7
328.944	30.21
329.157	22.02
329.37	26.11
329.583	38.4
329.796	93.69
330.009	-76.29
330.222	5.63
330.435	-4.61
330.648	40.45
330.861	15.87
331.073	40.45
331.286	60.93
331.499	-25.09
331.712	46.59
331.925	-27.14
332.138	65.02
332.35	73.21
332.563	-59.9
332.776	118.27
332.989	9.73
333.202	-2.56
333.414	26.11
333.627	11.78
333.84	46.59
334.053	71.17
334.265	97.79
334.478	46.59
334.691	13.82
334.903	42.5
335.116	34.3
335.329	97.79
335.541	-27.14
335.754	87.55
335.966	-43.52
336.179	54.78
336.392	15.87
336.604	26.11
336.817	28.16
337.029	30.21
337.242	17.92
337.454	17.92
337.667	-47.62
337.88	81.41
338.092	71.17
338.305	-4.61
338.517	30.21
338.729	93.69
338.942	-10.75
339.154	-8.7
339.367	54.78
339.579	-2.56
339.792	-16.9
340.004	40.45
340.217	46.59
340.429	5.63
340.641	1.54
340.854	52.74
341.066	13.82
341.278	-0.51
341.491	73.21
341.703	46.59
341.915	-0.51
342.128	-10.75
342.34	24.06
342.552	24.06
342.764	46.59
342.977	19.97
343.189	110.08
343.401	34.3
343.613	40.45
343.826	-2.56
344.038	22.02
344.25	-6.66
344.462	-2.56
344.674	46.59
344.886	34.3
345.099	46.59
345.311	9.73
345.523	79.36
345.735	46.59
345.947	-35.33
346.159	83.45
346.371	13.82
346.583	-47.62
346.795	56.83
347.007	17.92
347.219	73.21
347.431	26.11
347.643	48.64
347.855	-16.9
348.067	-0.51
348.279	15.87
348.491	46.59
348.703	71.17
348.915	-27.14
349.127	-6.66
349.339	7.68
349.551	30.21
349.763	95.74
349.975	-4.61
350.187	13.82
350.399	87.55
350.61	54.78
350.822	28.16
351.034	50.69
351.246	24.06
351.458	-2.56
351.669	77.31
351.881	17.92
352.093	69.12
352.305	-66.05
352.517	48.64
352.728	116.22
352.94	-33.28
353.152	87.55
353.363	-2.56
353.575	-47.62
353.787	103.93
353.999	30.21
354.21	-27.14
354.422	-0.51
354.633	95.74
354.845	62.98
355.057	26.11
355.268	112.13
355.48	40.45
355.692	11.78
355.903	69.12
356.115	-35.33
356.326	-27.14
356.538	93.69
356.749	24.06
356.961	-0.51
357.172	22.02
357.384	17.92
357.595	103.93
357.807	22.02
358.018	36.35
358.23	132.61
358.441	62.98
358.653	15.87
358.864	26.11
359.075	40.45
359.287	54.78
359.498	-6.66
359.709	75.26
359.921	81.41
360.132	1.54
360.344	22.02
360.555	54.78
360.766	108.03
360.977	22.02
361.189	140.8
361.4	-8.7
361.611	58.88
361.823	62.98
362.034	11.78
362.245	40.45
362.456	50.69
362.667	62.98
362.879	7.68
363.09	15.87
363.301	54.78
363.512	38.4
363.723	26.11
363.935	-4.61
364.146	24.06
364.357	50.69
364.568	1.54
364.779	11.78
364.99	13.82
365.201	36.35
365.412	-16.9
365.623	1.54
365.834	17.92
366.045	46.59
366.256	62.98
366.467	28.16
366.678	50.69
366.889	-2.56
367.1	-41.47
367.311	-0.51
367.522	62.98
367.733	118.27
367.944	103.93
368.155	62.98
368.366	40.45
368.577	73.21
368.788	32.26
368.999	-8.7
369.209	62.98
369.42	22.02
369.631	177.66
369.842	30.21
370.053	-27.14
370.264	46.59
370.474	54.78
370.685	24.06
370.896	83.45
371.107	-59.9
371.317	52.74
371.528	52.74
371.739	50.69
371.95	54.78
372.16	58.88
372.371	19.97
372.582	19.97
372.792	40.45
373.003	38.4
373.214	-14.85
373.424	-35.33
373.635	-29.18
373.846	101.89
374.056	22.02
374.267	73.21
374.477	22.02
374.688	75.26
374.898	54.78
375.109	36.35
375.319	-61.95
375.53	83.45
375.74	30.21
375.951	5.63
376.161	62.98
376.372	65.02
376.582	13.82
376.793	71.17
377.003	-23.04
377.214	22.02
377.424	54.78
377.635	62.98
377.845	26.11
378.055	83.45
378.266	34.3
378.476	71.17
378.686	34.3
378.897	81.41
379.107	79.36
379.317	-29.18
379.528	30.21
379.738	22.02
379.948	5.63
380.158	50.69
380.369	42.5
380.579	38.4
380.789	5.63
380.999	56.83
381.21	87.55
381.42	161.28
381.63	13.82
381.84	56.83
382.05	13.82
382.261	93.69
382.471	9.73
382.681	40.45
382.891	73.21
383.101	22.02
383.311	-14.85
383.521	79.36
383.731	52.74
383.941	65.02
384.151	34.3
384.361	34.3
384.571	73.21
384.781	54.78
384.991	7.68
385.201	153.09
385.411	62.98
385.621	46.59
385.831	26.11
386.041	52.74
386.251	-4.61
386.461	67.07
386.671	50.69
386.881	44.54
387.091	58.88
387.301	116.22
387.511	46.59
387.72	71.17
387.93	46.59
388.14	65.02
388.35	28.16
388.56	32.26
388.769	83.45
388.979	65.02
389.189	19.97
389.399	7.68
389.609	-8.7
389.818	95.74
390.028	79.36
390.238	87.55
390.447	22.02
390.657	95.74
390.867	-8.7
391.076	-45.57
391.286	30.21
391.496	40.45
391.705	5.63
391.915	58.88
392.125	5.63
392.334	-76.29
392.544	54.78
392.753	58.88
392.963	-0.51
393.172	105.98
393.382	67.07
393.591	85.5
393.801	13.82
394.01	24.06
394.22	19.97
394.429	5.63
394.639	81.41
394.848	87.55
395.058	9.73
395.267	114.17
395.477	22.02
395.686	87.55
395.895	95.74
396.105	54.78
396.314	40.45
396.524	120.32
396.733	17.92
396.942	105.98
397.152	54.78
397.361	62.98
397.57	50.69
397.78	71.17
397.989	142.85
398.198	95.74
398.407	62.98
398.617	62.98
398.826	99.84
399.035	71.17
399.244	17.92
399.453	26.11
399.663	54.78
399.872	81.41
400.081	87.55
400.29	144.89
400.499	-18.94
400.708	62.98
400.917	26.11
401.127	110.08
401.336	67.07
401.545	148.99
401.754	87.55
401.963	81.41
402.172	79.36
402.381	79.36
402.59	30.21
402.799	50.69
403.008	77.31
403.217	73.21
403.426	79.36
403.635	71.17
403.844	83.45
404.053	153.09
404.262	138.75
404.471	85.5
404.68	163.33
404.888	130.56
405.097	34.3
405.306	122.37
405.515	103.93
405.724	103.93
405.933	157.18
406.142	142.85
406.35	148.99
406.559	136.7
406.768	171.52
406.977	218.62
407.185	140.8
407.394	173.57
407.603	95.74
407.812	144.89
408.02	214.52
408.229	251.39
408.438	194.05
408.646	171.52
408.855	198.14
409.064	210.43
409.272	212.48
409.481	271.87
409.69	220.67
409.898	208.38
410.107	192
410.315	210.43
410.524	251.39
410.733	271.87
410.941	255.48
411.15	284.16
411.358	325.12
411.567	327.16
411.775	300.54
411.984	345.59
412.192	384.51
412.401	456.19
412.609	368.12
412.818	433.66
413.026	450.04
413.234	304.64
413.443	423.42
413.651	441.85
413.86	495.1
414.068	439.8
414.276	572.92
414.485	450.04
414.693	585.21
414.901	558.58
415.11	673.27
415.318	622.07
415.526	538.1
415.734	622.07
415.943	685.56
416.151	638.45
416.359	751.09
416.567	712.18
416.776	681.46
416.984	751.09
417.192	779.76
417.4	816.63
417.608	796.15
417.817	804.34
418.025	933.36
418.233	1000.94
418.441	880.11
418.649	906.74
418.857	1062.38
419.065	1086.96
419.273	1050.1
419.481	1097.2
419.689	1166.83
419.897	1232.37
420.105	1127.92
420.313	1244.65
420.521	1318.38
420.729	1367.53
420.937	1394.15
421.145	1447.4
421.353	1488.36
421.561	1619.43
421.769	1566.18
421.977	1623.53
422.185	1531.37
422.393	1705.45
422.601	1889.76
422.809	1875.43
423.017	1924.58
423.224	1990.11
423.432	2010.59
423.64	2094.56
423.848	2221.53
424.056	2215.39
424.263	2317.79
424.471	2293.21
424.679	2465.24
424.887	2586.07
425.094	2667.99
425.302	2569.69
425.51	2706.9
425.718	2807.25
425.925	2782.68
426.133	2899.41
426.341	3093.97
426.548	3124.69
426.756	3300.81
426.964	3276.24
427.171	3341.77
427.379	3552.71
427.586	3548.62
427.794	3646.92
428.001	3847.62
428.209	3872.2
428.417	3896.77
428.624	4281.79
428.832	4175.3
429.039	4242.88
429.247	4265.41
429.454	4687.29
429.662	4867.51
429.869	4646.33
430.076	4943.28
430.284	4814.26
430.491	5086.64
430.699	5518.76
430.906	5414.32
431.114	5273.01
431.321	5545.39
431.528	5754.28
431.736	5959.08
431.943	6141.35
432.15	5944.74
432.358	6118.82
432.565	6493.6
432.772	6473.12
432.979	6968.73
433.187	6989.21
433.394	6878.62
433.601	7431.57
433.808	7495.05
434.016	7349.65
434.223	7619.98
434.43	8078.72
434.637	7888.26
434.844	8508.8
435.052	8576.38
435.259	8492.41
435.466	8729.98
435.673	8580.48
435.88	9155.96
436.087	9594.22
436.294	9717.1
436.501	9348.47
436.708	9772.39
436.915	9848.17
437.122	10210.66
437.329	10296.67
437.537	10507.62
437.743	10798.43
437.95	10642.78
438.157	11349.33
438.364	11789.64
438.571	11521.36
438.778	11943.24
438.985	12825.92
439.192	12139.85
439.399	12455.23
439.606	12477.76
439.813	13102.39
440.02	13976.87
440.227	13821.23
440.433	13397.3
440.64	13813.04
440.847	13708.59
441.054	14200.1
441.261	15140.12
441.467	14986.52
441.674	15252.76
441.881	15666.45
442.088	15496.47
442.294	15574.29
442.501	16155.91
442.708	16266.5
442.914	16768.26
443.121	17511.67
443.328	16923.9
443.534	18353.38
443.741	17882.35
443.948	17833.2
444.154	19215.58
444.361	18580.71
444.568	19021.02
444.774	19240.15
444.981	19098.84
445.187	19412.18
445.394	20501.7
445.6	20497.61
445.807	22097.07
446.013	21279.93
446.22	21595.32
446.426	22191.28
446.633	22611.11
446.839	23389.34
447.046	22340.78
447.252	23438.49
447.459	23577.75
447.665	23768.21
447.871	24583.3
448.078	25674.87
448.284	24460.43
448.491	24917.12
448.697	26170.48
448.903	26492.01
449.11	26696.81
449.316	26211.44
449.522	26995.81
449.728	27442.27
449.935	27647.07
450.141	27348.06
450.347	28372.05
450.553	27366.49
450.76	27409.5
450.966	28793.93
451.172	28568.65
451.378	28793.93
451.584	28288.08
451.791	29103.17
451.997	29000.77
452.203	29545.53
452.409	29701.18
452.615	29213.76
452.821	27974.74
453.027	28335.18
453.233	29580.35
453.44	28064.85
453.646	29056.07
453.852	29301.82
454.058	29228.1
454.264	28632.14
454.47	29109.32
454.676	28470.35
454.882	29506.62
455.088	26702.95
455.294	27513.95
455.5	27653.21
455.705	28071
455.911	27116.64
456.117	26596.46
456.323	25945.2
456.529	24677.51
456.735	25732.22
456.941	25158.78
457.147	24906.88
457.352	23970.96
457.558	23739.54
457.764	23788.69
457.97	23598.23
458.176	23069.86
458.381	22891.68
458.587	21810.36
458.793	21986.48
458.999	20724.93
459.204	22486.18
459.41	21523.64
459.616	20169.93
459.821	20247.76
460.027	20069.58
460.233	19754.19
460.438	18832.61
460.644	18965.73
460.85	18177.26
461.055	17984.75
461.261	17734.9
461.466	16409.86
461.672	16065.8
461.878	16995.58
462.083	15824.14
462.289	15576.34
462.494	15623.44
462.7	14818.59
462.905	14447.91
463.111	15021.34
463.316	15162.65
463.522	14736.67
463.727	14746.91
463.932	14472.48
464.138	14646.56
464.343	14552.35
464.549	14069.03
464.754	14687.52
464.959	14310.69
465.165	14345.51
465.37	13899.05
465.575	13204.79
465.781	14173.48
465.986	13874.48
466.191	13575.47
466.397	13194.55
466.602	12457.28
466.807	12989.75
467.012	12840.25
467.218	12928.31
467.423	12830.01
467.628	12703.04
467.833	13133.11
468.038	12813.63
468.244	12584.26
468.449	13057.34
468.654	12610.88
468.859	12469.57
469.064	12569.92
469.269	11916.62
469.474	12174.66
469.679	12248.39
469.885	11918.67
470.09	12080.46
470.295	11783.5
470.5	11564.37
470.705	11740.49
470.91	11373.91
471.115	11253.08
471.32	11539.79
471.525	11453.78
471.73	11363.67
471.935	11124.05
472.139	10837.34
472.344	10749.28
472.549	10843.48
472.754	10849.63
472.959	10579.29
473.164	10411.36
473.369	10188.13
473.574	10401.12
473.778	10321.25
473.983	10204.52
474.188	10327.39
474.393	9977.19
474.598	9835.88
474.802	9770.35
475.007	9737.58
475.212	9670
475.417	9301.36
475.621	9414
475.826	9399.66
476.031	9106.81
476.235	8988.02
476.44	9188.72
476.645	8918.39
476.849	8959.35
477.054	8756.6
477.259	8856.95
477.463	8793.47
477.668	8646.01
477.872	8686.97
478.077	8449.41
478.282	8394.11
478.486	8287.62
478.691	8123.78
478.895	8152.45
479.1	8142.21
479.304	8123.78
479.509	7898.5
479.713	8107.4
479.918	7918.98
480.122	7792.01
480.326	7918.98
480.531	7945.61
480.735	7714.19
480.94	7714.19
481.144	7828.87
481.348	7472.53
481.553	7816.58
481.757	7423.37
481.961	7472.53
482.166	7591.31
482.37	7546.25
482.574	7415.18
482.778	7517.58
482.983	7525.77
483.187	7632.27
483.391	7609.74
483.595	7511.44
483.8	7398.8
484.004	7478.67
484.208	7433.61
484.412	7486.86
484.616	7695.75
484.821	7402.9
485.025	7452.05
485.229	7505.29
485.433	7333.26
485.637	7558.54
485.841	7611.79
486.045	7232.91
486.249	7550.35
486.453	7419.28
486.657	7419.28
486.861	7564.68
487.065	7519.63
487.269	7509.39
487.473	7343.5
487.677	7415.18
487.881	7445.9
488.085	7310.74
488.289	7433.61
488.493	7458.19
488.697	7579.02
488.901	7527.82
489.105	7431.57
489.309	7558.54
489.512	7552.4
489.716	7593.36
489.92	7509.39
490.124	7454.09
490.328	7683.47
490.531	7677.32
490.735	7705.99
490.939	7751.05
491.143	7654.8
491.346	7517.58
491.55	7814.54
491.754	7832.97
491.958	7863.69
492.161	7869.83
492.365	7771.53
492.569	7736.71
492.772	7734.67
492.976	7755.15
493.18	7968.13
493.383	8045.96
493.587	8172.93
493.79	8158.6
493.994	8127.88
494.197	8267.14
494.401	8344.96
494.605	8314.24
494.808	8504.7
495.012	8418.69
495.215	8443.26
495.419	8508.8
495.622	8496.51
495.825	8502.65
496.029	8578.43
496.232	8693.12
496.436	8801.66
496.639	8953.21
496.843	8902.01
497.046	9094.52
497.249	9282.93
497.453	9289.07
497.656	9459.06
497.859	9174.39
498.063	9233.78
498.266	9495.92
498.469	9483.63
498.673	9686.38
498.876	9964.9
499.079	9819.5
499.282	9825.64
499.485	9925.99
499.689	10433.89
499.892	10241.38
500.095	10495.33
500.298	10620.25
500.501	10397.03
500.705	10851.67
500.908	10986.84
501.111	11095.38
501.314	10941.79
501.517	11500.88
501.72	11304.28
501.923	11285.84
502.126	11529.55
502.329	11621.71
502.532	11896.14
502.735	11906.38
502.938	12137.8
503.141	12107.08
503.344	12449.09
503.547	12588.35
503.75	12391.75
503.953	12633.41
504.156	12887.36
504.359	12836.16
504.562	13110.58
504.765	13260.09
504.968	13350.2
505.17	13335.86
505.373	13389.11
505.576	13577.52
505.779	13978.92
505.982	14048.55
506.185	14267.69
506.387	14261.54
506.59	14736.67
506.793	14861.6
506.996	14497.06
507.198	15152.41
507.401	14892.32
507.604	14957.85
507.807	15490.32
508.009	15615.25
508.212	15701.26
508.415	15697.17
508.617	16125.19
508.82	16123.15
509.022	16059.66
509.225	16479.49
509.428	16381.19
509.63	16749.82
509.833	16979.2
510.035	17079.55
510.238	17257.72
510.44	17313.02
510.643	17675.51
510.845	17933.55
511.048	17700.08
511.25	17878.26
511.453	18015.47
511.655	18851.04
511.858	18697.44
512.06	18588.9
512.262	18918.62
512.465	19061.98
512.667	19127.52
512.87	19354.84
513.072	19674.32
513.274	20028.62
513.477	20057.29
513.679	20169.93
513.881	20298.95
514.084	20403.4
514.286	20569.29
514.488	20741.32
514.69	21234.88
514.893	21537.98
515.095	21255.36
515.297	21716.15
515.499	21716.15
515.701	21906.61
515.904	22230.19
516.106	22185.13
516.308	22617.25
516.51	22647.97
516.712	22484.14
516.914	23104.67
517.116	23708.82
517.318	23368.86
517.52	23483.55
517.722	23848.08
517.925	23790.74
518.127	24155.28
518.329	24450.19
518.531	24169.62
518.733	24523.91
518.935	24974.47
519.136	25181.31
519.338	25382.01
519.54	25443.45
519.742	25764.98
519.944	25799.8
520.146	26274.93
520.348	26668.14
520.55	26227.82
520.752	26627.18
520.954	27165.79
521.155	26776.68
521.357	27489.37
521.559	27591.77
521.761	27821.14
521.963	27872.34
522.164	28478.54
522.366	28136.53
522.568	28308.56
522.77	28480.59
522.971	29101.12
523.173	28742.73
523.375	28843.08
523.576	29170.75
523.778	28863.56
523.98	29641.79
524.181	29324.35
524.383	29506.62
524.584	29879.35
524.786	29647.93
524.988	30180.4
525.189	30067.77
525.391	30540.85
525.592	30377.01
525.794	30731.31
525.995	30966.82
526.197	31368.23
526.398	31368.23
526.6	31194.15
526.801	31511.58
527.003	31585.31
527.204	31626.27
527.406	31818.78
527.607	31759.39
527.808	32322.58
528.01	31185.96
528.211	31855.64
528.412	32414.74
528.614	32181.27
528.815	32316.43
529.016	32662.54
529.218	32173.08
529.419	32648.21
529.62	32693.26
529.822	32519.18
530.023	32719.88
530.224	32857.1
530.425	32810
530.626	32730.12
530.828	32793.61
531.029	33260.55
531.23	33098.76
531.431	32891.91
531.632	33289.22
531.833	33094.66
532.035	33387.52
532.236	33063.94
532.437	33504.26
532.638	33117.19
532.839	33348.61
533.04	33338.37
533.241	33121.29
533.442	33895.42
533.643	33195.01
533.844	33668.09
534.045	33606.66
534.246	33100.81
534.447	33768.44
534.648	33414.15
534.849	33440.77
535.05	33129.48
535.251	33661.95
535.451	33418.24
535.652	33768.44
535.853	33604.61
536.054	33592.32
536.255	33741.82
536.456	33260.55
536.657	33831.93
536.857	33387.52
537.058	33278.98
537.259	33285.12
537.46	33383.43
537.66	33557.5
537.861	33278.98
538.062	33373.19
538.263	33639.42
538.463	33426.43
538.664	33176.58
538.865	33561.6
539.065	33528.83
539.266	32932.87
539.466	33481.73
539.667	33258.5
539.868	33573.89
540.068	33666.05
540.269	33545.22
540.469	33602.56
540.67	33289.22
540.87	33385.47
541.071	33451.01
541.271	33489.92
541.472	33291.27
541.672	33473.54
541.873	32721.93
542.073	32695.31
542.274	33489.92
542.474	33436.67
542.675	33238.02
542.875	33350.66
543.075	33100.81
543.276	32789.52
543.476	33397.76
543.676	33205.25
543.877	33471.49
544.077	33565.7
544.277	33367.04
544.478	32998.41
544.678	33317.89
544.878	33274.88
545.078	33348.61
545.279	33084.42
545.479	32949.26
545.679	33088.52
545.879	33252.36
546.079	32881.67
546.28	32793.61
546.48	32562.19
546.68	33309.7
546.88	32971.78
547.08	32844.81
547.28	32754.7
547.48	32744.46
547.68	33289.22
547.88	32719.88
548.081	32912.39
548.281	32703.5
548.481	32846.86
548.681	33238.02
548.881	32891.91
549.081	33006.6
549.28	32812.04
549.48	32967.69
549.68	33037.32
549.88	33033.22
550.08	33139.72
550.28	32990.22
550.48	32916.49
550.68	32697.36
550.88	32601.1
551.08	32648.21
551.279	33022.98
551.479	32568.34
551.679	33014.79
551.879	32656.4
552.079	32785.42
552.278	32617.49
552.478	32683.02
552.678	32881.67
552.878	32791.56
553.077	32576.53
553.277	32615.44
553.477	32715.79
553.676	32633.87
553.876	32648.21
554.076	32048.15
554.275	32234.52
554.475	32062.49
554.674	32050.2
554.874	32465.94
555.074	32306.2
555.273	32437.27
555.473	32373.78
555.672	32185.36
555.872	32011.29
556.071	32574.48
556.271	32377.87
556.47	32021.53
556.67	31640.61
556.869	32033.82
557.068	31939.61
557.268	31683.61
557.467	32140.31
557.667	31960.09
557.866	31847.45
558.065	32050.2
558.265	31532.06
558.464	31396.9
558.663	31771.68
558.863	31415.33
559.062	31863.83
559.261	31513.63
559.461	31855.64
559.66	31534.11
559.859	31568.93
560.058	31470.62
560.258	31648.8
560.457	31210.53
560.656	31677.47
560.855	31274.02
561.054	31534.11
561.253	31196.2
561.453	30948.39
561.652	31476.77
561.851	31245.35
562.05	31058.98
562.249	30876.71
562.448	31114.28
562.647	30960.68
562.846	30852.14
563.045	30997.54
563.244	30962.73
563.443	30811.18
563.642	30510.13
563.841	30878.76
564.04	30594.09
564.239	30651.44
564.438	30417.97
564.637	30719.02
564.836	30696.49
565.035	30321.71
565.234	30082.1
565.432	30188.6
565.631	30385.2
565.83	30590
566.029	30098.48
566.228	30133.3
566.427	30104.63
566.625	29799.48
566.824	29606.97
567.023	29744.19
567.222	29439.04
567.42	30055.48
567.619	29707.32
567.818	29461.57
568.016	29453.37
568.215	29828.15
568.414	29613.12
568.612	29971.51
568.811	29379.65
569.01	29318.21
569.208	28814.41
569.407	29328.45
569.605	29037.64
569.804	29484.09
570.002	28771.4
570.201	29205.57
570.4	28875.85
570.598	28580.94
570.797	28546.12
570.995	28601.42
571.193	28152.91
571.392	28699.72
571.59	28370
571.789	28714.06
571.987	28376.14
572.186	28261.46
572.384	27984.98
572.582	28384.33
572.781	28382.29
572.979	27796.57
573.177	27786.33
573.376	27952.21
573.574	27753.56
573.772	27976.79
573.971	27958.36
574.169	27561.05
574.367	27640.92
574.565	27700.31
574.763	27448.41
574.962	27733.08
575.16	27194.47
575.358	27212.9
575.556	26954.85
575.754	27415.65
575.952	26797.16
576.151	27247.71
576.349	26805.35
576.547	26827.88
576.745	26791.02
576.943	26901.61
577.141	26504.3
577.339	26897.51
577.537	26606.7
577.735	26696.81
577.933	26137.71
578.131	26754.15
578.329	26346.61
578.527	26262.64
578.725	26205.3
578.923	26373.23
579.121	26004.6
579.319	26178.67
579.516	25771.13
579.714	26039.41
579.912	25762.93
580.11	25664.63
580.308	25779.32
580.506	25697.4
580.704	25644.15
580.901	25357.44
581.099	25883.77
581.297	25365.63
581.495	25322.62
581.692	25392.25
581.89	24784.01
582.088	25367.68
582.285	25169.02
582.483	25228.42
582.681	25093.25
582.878	24986.75
583.076	24620.17
583.274	25015.43
583.471	24734.85
583.669	24603.78
583.866	24372.36
584.064	24759.43
584.262	24308.88
584.459	24493.19
584.657	24247.44
584.854	24579.21
585.052	23915.67
585.249	24151.18
585.447	24343.69
585.644	23757.97
585.841	24360.08
586.039	24196.24
586.236	23778.45
586.434	23833.75
586.631	23667.86
586.828	23786.65
587.026	23643.29
587.223	23528.6
587.42	23444.63
587.618	23295.13
587.815	23186.59
588.012	23497.88
588.21	23288.99
588.407	23415.96
588.604	23141.53
588.801	23039.14
588.999	23147.68
589.196	22856.87
589.393	23094.43
589.59	23090.34
589.787	22660.26
589.984	22545.58
590.182	22320.3
590.379	22770.85
590.576	22363.31
590.773	22480.04
590.97	22246.57
591.167	22557.86
591.364	22043.82
591.561	22215.85
591.758	22113.45
591.955	22041.78
592.152	21974.19
592.349	21683.38
592.546	22123.69
592.743	21845.17
592.94	21333.18
593.137	21677.24
593.334	21929.14
593.531	21372.09
593.727	21609.65
593.924	21501.11
594.121	21288.12
594.318	21312.7
594.515	21097.66
594.712	21318.84
594.908	21159.1
595.105	21105.85
595.302	20915.39
595.499	20837.57
595.696	21071.04
595.892	20499.66
596.089	20767.94
596.286	20800.71
596.482	20960.45
596.679	20559.05
596.876	20516.04
597.072	20366.54
597.269	20530.37
597.466	20141.26
597.662	20329.67
597.859	20311.24
598.055	20227.28
598.252	20120.78
598.448	19967.18
598.645	20225.23
598.841	19926.22
599.038	19668.18
599.234	19899.6
599.431	19784.91
599.627	19737.81
599.824	19700.95
600.02	19320.03
600.217	19326.17
600.413	19467.48
600.609	18992.35
600.806	19580.12
601.002	19266.78
601.198	19320.03
601.395	19092.7
601.591	19064.03
601.787	19088.6
601.984	18963.68
602.18	19111.13
602.376	18871.52
602.572	18883.81
602.769	18830.56
602.965	18773.22
603.161	18633.96
603.357	18521.32
603.553	18461.93
603.75	18484.45
603.946	18429.16
604.142	18388.2
604.338	18205.93
604.534	18308.33
604.73	18339.05
604.926	18322.66
605.122	17865.97
605.318	18216.17
605.514	18027.76
605.71	17906.93
605.906	17880.3
606.102	17960.17
606.298	18046.19
606.494	17949.93
606.69	17894.64
606.886	17714.42
607.082	17548.53
607.278	17882.35
607.474	17538.29
607.67	17548.53
607.866	17216.76
608.062	17851.63
608.257	17347.83
608.453	17319.16
608.649	17626.36
608.845	17343.74
609.041	17331.45
609.236	17175.8
609.432	17345.78
609.628	17186.04
609.824	17183.99
610.019	17061.12
610.215	17227
610.411	17132.79
610.606	16776.45
610.802	17001.72
610.998	16719.1
611.193	16993.53
611.389	16733.44
611.584	16739.58
611.78	16565.51
611.976	16653.57
612.171	16725.25
612.367	16764.16
612.562	16545.03
612.758	16506.12
612.953	16473.35
613.149	16657.67
613.344	16551.17
613.539	16731.39
613.735	16463.11
613.93	16581.89
614.126	16194.82
614.321	16280.84
614.517	16401.67
614.712	16098.57
614.907	16291.08
615.103	16334.09
615.298	16141.58
615.493	16268.55
615.688	16008.46
615.884	16561.41
616.079	16022.8
616.274	16047.37
616.47	16043.28
616.665	15944.97
616.86	16053.52
617.055	15990.03
617.25	15959.31
617.445	15906.06
617.641	15496.47
617.836	15701.26
618.031	15557.91
618.226	15682.83
618.421	15674.64
618.616	15691.02
618.811	15357.21
619.006	15613.2
619.201	15201.56
619.396	15457.56
619.591	15002.91
619.786	15449.36
619.981	14970.14
620.176	15330.58
620.371	14972.19
620.566	15025.43
620.761	14834.97
620.956	14722.34
621.151	14538.02
621.346	14767.39
621.541	14339.37
621.735	14669.09
621.93	14257.45
622.125	14388.52
622.32	14204.2
622.515	14134.57
622.709	14284.07
622.904	14239.01
623.099	14292.26
623.294	14093.61
623.488	13917.48
623.683	13866.28
623.878	13843.76
624.072	13718.83
624.267	13909.29
624.462	13880.62
624.656	13581.62
624.851	13626.67
625.046	13616.43
625.24	13327.67
625.435	13169.98
625.629	13337.91
625.824	13032.76
626.018	12991.8
626.213	12842.3
626.407	12827.96
626.602	12776.77
626.796	12877.12
626.991	12696.89
627.185	12371.27
627.38	12395.84
627.574	12547.39
627.768	12483.91
627.963	12569.92
628.157	12293.44
628.352	12449.09
628.546	12133.7
628.74	12207.43
628.935	12082.5
629.129	12039.5
629.323	11949.39
629.517	11967.82
629.712	11605.33
629.906	11844.94
630.1	11646.29
630.294	11478.35
630.489	11572.56
630.683	11464.02
630.877	11232.6
631.071	11560.27
631.265	11359.57
631.459	11126.1
631.653	11068.76
631.848	11046.23
632.042	11158.87
632.236	11242.84
632.43	10909.02
632.624	10986.84
632.818	10909.02
633.012	10837.34
633.206	10745.18
633.4	10667.36
633.594	10739.04
633.788	10339.68
633.982	10540.38
634.176	10444.13
634.369	10526.05
634.563	10478.94
634.757	10343.78
634.951	10259.81
635.145	10220.9
635.339	10153.32
635.533	10079.59
635.726	10147.17
635.92	9848.17
636.114	9954.66
636.308	9946.47
636.501	9704.81
636.695	9872.75
636.889	9778.54
637.083	9610.61
637.276	9667.95
637.47	9618.8
637.664	9375.09
637.857	9500.02
638.051	9342.32
638.244	9477.49
638.438	9403.76
638.632	9364.85
638.825	9178.48
639.019	9086.33
639.212	9278.83
639.406	9246.07
639.599	9047.41
639.793	9026.93
639.986	9024.89
640.18	9166.2
640.373	8856.95
640.567	8797.56
640.76	8840.57
640.954	8676.73
641.147	8465.79
641.34	8562.05
641.534	8533.37
641.727	8635.77
641.92	8478.08
642.114	8461.69
642.307	8455.55
642.5	8385.92
642.694	8256.9
642.887	8242.56
643.08	8265.09
643.273	8142.21
643.467	8220.03
643.66	8224.13
643.853	8029.57
644.046	7830.92
644.239	7910.79
644.432	7939.46
644.626	7931.27
644.819	7703.95
645.012	7851.4
645.205	7927.18
645.398	7777.67
645.591	7669.13
645.784	7634.32
645.977	7593.36
646.17	7656.84
646.363	7501.2
646.556	7511.44
646.749	7388.56
646.942	7476.62
647.135	7310.74
647.328	7398.8
647.521	7325.07
647.714	7157.14
647.907	7372.18
648.099	7320.98
648.292	7222.67
648.485	7179.67
648.678	6974.87
648.871	7161.23
649.064	6981.01
649.256	6976.92
649.449	6921.62
649.642	6927.77
649.835	6956.44
650.027	6899.09
650.22	6776.22
650.413	6641.05
650.605	6620.57
650.798	6444.45
650.991	6600.09
651.183	6649.24
651.376	6501.79
651.568	6487.45
651.761	6509.98
651.954	6446.49
652.146	6350.24
652.339	6452.64
652.531	6399.39
652.724	6292.9
652.916	6184.35
653.109	6192.55
653.301	6272.42
653.494	6268.32
653.686	6077.86
653.879	6360.48
654.071	6059.43
654.263	6067.62
654.456	6176.16
654.648	6239.65
654.84	5823.91
655.033	6002.08
655.225	5959.08
655.417	5893.54
655.61	5899.69
655.802	6055.33
655.994	5797.29
656.186	5858.73
656.379	5735.85
656.571	5756.33
656.763	5752.23
656.955	5592.49
657.148	5602.73
657.34	5725.61
657.532	5473.71
657.724	5508.52
657.916	5629.35
658.108	5361.07
658.3	5455.28
658.492	5359.02
658.684	5313.97
658.876	5227.95
659.068	5449.13
659.26	5350.83
659.452	5340.59
659.644	5285.3
659.836	5141.94
660.028	5266.86
660.22	5225.9
660.412	5318.06
660.604	5174.71
660.796	5035.44
660.988	5037.49
661.18	4820.41
661.372	5051.83
661.563	5006.77
661.755	4939.19
661.947	4890.04
662.139	4957.62
662.331	4818.36
662.522	4859.32
662.714	4926.9
662.906	4896.18
663.097	4914.61
663.289	4756.92
663.481	4750.78
663.673	4758.97
663.864	4638.14
664.056	4535.74
664.247	4609.47
664.439	4789.69
664.631	4619.71
664.822	4658.62
665.014	4482.49
665.205	4570.55
665.397	4527.55
665.588	4484.54
665.78	4615.61
665.971	4384.19
666.163	4410.81
666.354	4582.84
666.546	4439.48
666.737	4216.26
666.929	4281.79
667.12	4396.48
667.311	4300.22
667.503	4191.68
667.694	4451.77
667.885	4414.91
668.077	4279.74
668.268	4265.41
668.459	4285.89
668.651	4357.57
668.842	4181.44
669.033	4201.92
669.224	4167.1
669.416	4136.38
669.607	4120
669.798	3999.17
669.989	4177.34
670.18	4079.04
670.371	3964.36
670.563	4027.84
670.754	3999.17
670.945	3880.39
671.136	3954.12
671.327	4031.94
671.518	3904.96
671.709	3833.29
671.9	3894.72
672.091	3904.96
672.282	3808.71
672.473	3831.24
672.664	3861.96
672.855	3810.76
673.046	3843.53
673.237	3788.23
673.428	3771.85
673.619	3835.33
673.809	3874.24
674	3718.6
674.191	3771.85
674.382	3788.23
674.573	3716.55
674.764	3816.9
674.954	3704.26
675.145	3646.92
675.336	3767.75
675.527	3550.67
675.717	3521.99
675.908	3610.06
676.099	3540.43
676.289	3601.87
676.48	3610.06
676.671	3519.95
676.861	3741.13
677.052	3417.55
677.243	3511.75
677.433	3544.52
677.624	3519.95
677.814	3526.09
678.005	3481.03
678.195	3425.74
678.386	3470.8
678.576	3366.35
678.767	3347.92
678.957	3462.6
679.148	3487.18
679.338	3368.4
679.529	3331.53
679.719	3339.73
679.909	3376.59
680.1	3331.53
680.29	3468.75
680.481	3349.96
680.671	3433.93
680.861	3347.92
681.052	3306.96
681.242	3298.77
681.432	3454.41
681.622	3218.89
681.813	3454.41
682.003	3331.53
682.193	3204.56
682.383	3362.25
682.573	3368.4
682.764	3220.94
682.954	3220.94
683.144	3167.7
683.334	3270.09
683.524	3186.13
683.714	3323.34
683.904	3167.7
684.094	3311.05
684.284	3167.7
684.474	3216.85
684.664	3157.46
684.854	3233.23
685.044	3153.36
685.234	3053.01
685.424	3126.74
685.614	3134.93
685.804	3136.98
685.994	3093.97
686.184	3114.45
686.374	2956.75
686.564	2991.57
686.753	3044.82
686.943	2991.57
687.133	2997.71
687.323	2977.23
687.513	2985.43
687.702	2964.95
687.892	2960.85
688.082	2797.01
688.272	2911.7
688.461	2971.09
688.651	3079.63
688.841	2905.56
689.03	2921.94
689.22	2823.64
689.41	2815.45
689.599	2766.29
689.789	2809.3
689.979	2868.69
690.168	2891.22
690.358	2764.25
690.547	2844.12
690.737	2821.59
690.926	2588.12
691.116	2672.09
691.305	2737.62
691.495	2778.58
691.684	2694.61
691.874	2635.22
692.063	2758.1
692.252	2596.31
692.442	2721.24
692.631	2667.99
692.82	2713.05
693.01	2651.61
693.199	2569.69
693.388	2622.94
693.578	2651.61
693.767	2571.74
693.956	2545.11
694.146	2500.06
694.335	2536.92
694.524	2514.39
694.713	2512.35
694.902	2530.78
695.092	2512.35
695.281	2553.31
695.47	2418.14
695.659	2442.71
695.848	2424.28
696.037	2579.93
696.226	2383.32
696.415	2541.02
696.604	2500.06
696.793	2498.01
696.982	2489.82
697.171	2516.44
697.36	2430.43
697.549	2498.01
697.738	2346.46
697.927	2594.26
698.116	2401.76
698.305	2371.04
698.494	2366.94
698.683	2422.24
698.872	2401.76
699.061	2309.6
699.25	2465.24
699.438	2438.62
699.627	2426.33
699.816	2438.62
700.005	2364.89
700.193	2381.28
700.382	2457.05
700.571	2323.93
700.76	2291.17
700.948	2416.09
701.137	2412
701.326	2352.6
701.514	2469.34
701.703	2262.49
701.892	2282.97
702.08	2407.9
702.269	2342.36
702.457	2399.71
702.646	2291.17
702.834	2342.36
703.023	2424.28
703.212	2244.06
703.4	2276.83
703.589	2278.88
703.777	2280.93
703.965	2293.21
704.154	2262.49
704.342	2231.77
704.531	2186.72
704.719	2276.83
704.907	2176.48
705.096	2153.95
705.284	2295.26
705.472	2082.27
705.661	2242.01
705.849	2203.1
706.037	2270.69
706.226	2237.92
706.414	2131.42
706.602	2172.38
706.79	2186.72
706.979	2133.47
707.167	2192.86
707.355	2358.75
707.543	2231.77
707.731	2072.03
707.919	2153.95
708.107	2137.57
708.296	2135.52
708.484	2170.33
708.672	2258.4
708.86	2254.3
709.048	2282.97
709.236	2168.29
709.424	2164.19
709.612	2106.85
709.8	2188.77
709.988	2209.25
710.176	2180.57
710.364	2229.73
710.551	2037.22
710.739	2139.62
710.927	2199.01
711.115	2223.58
711.303	2156
711.491	2153.95
711.679	2061.79
711.866	2131.42
712.054	2024.93
712.242	2180.57
712.43	2276.83
712.617	2106.85
712.805	1971.68
712.993	2065.89
713.181	2039.26
713.368	2221.53
713.556	2112.99
713.744	2123.23
713.931	2209.25
714.119	2074.08
714.306	2065.89
714.494	2102.75
714.682	2051.55
714.869	2053.6
715.057	2041.31
715.244	1967.59
715.432	2096.61
715.619	2096.61
715.807	2088.42
715.994	2178.53
716.182	2053.6
716.369	2119.14
716.556	2020.83
716.744	2067.94
716.931	1955.3
717.119	2119.14
717.306	2143.71
717.493	2088.42
717.681	2086.37
717.868	2125.28
718.055	2119.14
718.242	2020.83
718.43	2049.5
718.617	2029.03
718.804	1998.31
718.991	1965.54
719.179	2016.74
719.366	2039.26
719.553	2051.55
719.74	1932.77
719.927	2094.56
720.114	1979.87
720.301	1996.26
720.488	2065.89
720.676	1988.07
720.863	2016.74
721.05	2018.79
721.237	1893.86
721.424	1922.53
721.611	2033.12
721.798	1973.73
721.985	1992.16
722.172	2012.64
722.358	2004.45
722.545	2031.07
722.732	2039.26
722.919	1945.06
723.106	1943.01
723.293	2004.45
723.48	1988.07
723.667	2080.22
723.853	2022.88
724.04	2006.5
724.227	2047.46
724.414	1951.2
724.6	1865.19
724.787	2104.8
724.974	2125.28
725.161	1988.07
725.347	1990.11
725.534	1934.82
725.72	1963.49
725.907	2004.45
726.094	1979.87
726.28	1867.24
726.467	2069.98
726.653	2039.26
726.84	1996.26
727.027	2045.41
727.213	1889.76
727.4	1988.07
727.586	1854.95
727.773	1897.96
727.959	1988.07
728.145	1910.24
728.332	1883.62
728.518	2067.94
728.705	2063.84
728.891	1863.14
729.077	1959.39
729.264	1873.38
729.45	1859.04
729.636	1965.54
729.823	1826.28
730.009	1996.26
730.195	1979.87
730.382	1938.91
730.568	1914.34
730.754	1889.76
730.94	1857
731.126	2078.18
731.313	2031.07
731.499	1938.91
731.685	1975.78
731.871	1850.85
732.057	1910.24
732.243	1971.68
732.429	1891.81
732.615	2031.07
732.801	1938.91
732.987	1881.57
733.173	1912.29
733.359	1965.54
733.545	1932.77
733.731	1961.44
733.917	1820.13
734.103	1953.25
734.289	1883.62
734.475	1889.76
734.661	1996.26
734.847	1938.91
735.033	2004.45
735.219	2014.69
735.404	1885.67
735.59	1934.82
735.776	1938.91
735.962	1879.52
736.148	1965.54
736.333	1881.57
736.519	1906.15
736.705	1893.86
736.89	1877.48
737.076	1773.03
737.262	1758.69
737.447	1873.38
737.633	1859.04
737.819	1840.61
738.004	1914.34
738.19	1914.34
738.375	1824.23
738.561	1811.94
738.747	1875.43
738.932	1910.24
739.118	1867.24
739.303	1783.27
739.489	1869.28
739.674	1734.12
739.859	1775.08
740.045	1766.89
740.23	1811.94
740.416	1801.7
740.601	1736.17
740.786	1891.81
740.972	1746.41
741.157	1799.65
741.342	1693.16
741.528	1701.35
741.713	1834.47
741.898	1644.01
742.084	1725.93
742.269	1824.23
742.454	1756.65
742.639	1588.71
742.824	1762.79
743.01	1693.16
743.195	1801.7
743.38	1719.78
743.565	1680.87
743.75	1582.57
743.935	1580.52
744.12	1693.16
744.305	1730.02
744.49	1711.59
744.675	1656.29
744.86	1639.91
745.045	1547.75
745.23	1574.38
745.415	1586.66
745.6	1564.14
745.785	1607.14
745.97	1592.81
746.155	1598.95
746.34	1529.32
746.525	1572.33
746.71	1623.53
746.895	1523.18
747.079	1564.14
747.264	1416.68
747.449	1447.4
747.634	1594.86
747.819	1496.55
748.003	1514.98
748.188	1453.55
748.373	1529.32
748.557	1406.44
748.742	1377.77
748.927	1506.79
749.111	1498.6
749.296	1340.91
749.481	1439.21
749.665	1471.98
749.85	1369.58
750.034	1347.05
750.219	1426.92
750.404	1383.91
750.588	1390.06
750.773	1365.48
750.957	1275.37
751.141	1330.67
751.326	1414.63
751.51	1367.53
751.695	1320.43
751.879	1379.82
752.064	1351.15
752.248	1238.51
752.432	1283.56
752.617	1252.84
752.801	1269.23
752.985	1242.61
753.17	1267.18
753.354	1230.32
753.538	1277.42
753.722	1172.97
753.907	1246.7
754.091	1152.49
754.275	1187.31
754.459	1291.76
754.643	1078.77
754.828	1152.49
755.012	1215.98
755.196	1170.93
755.38	1172.97
755.564	1041.9
755.748	1166.83
755.932	1099.25
756.116	1136.11
756.3	1134.06
756.484	1041.9
756.668	1148.4
756.852	1115.63
757.036	1015.28
757.22	1113.58
757.404	992.75
757.588	1037.81
757.772	1009.14
757.956	1050.1
758.14	980.47
758.323	964.08
758.507	1019.38
758.691	919.03
758.875	980.47
759.059	1078.77
759.242	947.7
759.426	1029.62
759.61	998.9
759.794	988.66
759.977	933.36
760.161	996.85
760.345	1005.04
760.528	1015.28
760.712	959.99
760.895	939.51
761.079	921.07
761.263	953.84
761.446	935.41
761.63	876.02
761.813	914.93
761.997	839.16
762.18	906.74
762.364	908.79
762.547	865.78
762.731	910.83
762.914	873.97
763.098	919.03
763.281	826.87
763.464	857.59
763.648	826.87
763.831	767.48
764.015	863.73
764.198	790
764.381	873.97
764.564	833.01
764.748	853.49
764.931	753.14
765.114	804.34
765.297	859.63
765.481	763.38
765.664	845.3
765.847	785.91
766.03	767.48
766.213	816.63
766.397	779.76
766.58	816.63
766.763	841.2
766.946	722.42
767.129	767.48
767.312	736.76
767.495	677.37
767.678	742.9
767.861	787.96
768.044	761.33
768.227	742.9
768.41	755.19
768.593	736.76
768.776	736.76
768.959	720.37
769.142	710.13
769.324	724.47
769.507	708.09
769.69	785.91
769.873	718.33
770.056	794.1
770.239	759.28
770.421	724.47
770.604	722.42
770.787	611.83
770.97	703.99
771.152	777.72
771.335	685.56
771.518	613.88
771.7	669.17
771.883	822.77
772.066	687.61
772.248	693.75
772.431	605.69
772.613	609.78
772.796	564.73
772.978	658.93
773.161	658.93
773.343	593.4
773.526	560.63
773.708	613.88
773.891	693.75
774.073	558.58
774.256	595.45
774.438	640.5
774.621	595.45
774.803	581.11
774.985	548.34
775.168	531.96
775.35	572.92
775.532	589.3
775.715	554.49
775.897	693.75
776.079	509.43
776.261	521.72
776.444	564.73
776.626	597.49
776.808	574.97
776.99	587.26
777.173	505.34
777.355	513.53
777.537	515.58
777.719	521.72
777.901	499.19
778.083	534.01
778.265	538.1
778.447	554.49
778.629	521.72
778.811	509.43
778.993	464.38
779.175	548.34
779.357	519.67
779.539	529.91
779.721	454.14
779.903	515.58
780.085	486.9
780.267	581.11
780.449	517.62
780.631	474.62
780.812	443.9
780.994	450.04
781.176	452.09
781.358	431.61
781.54	429.56
781.721	493.05
781.903	398.84
782.085	396.79
782.267	382.46
782.448	409.08
782.63	366.07
782.812	413.18
782.993	396.79
783.175	400.89
783.357	390.65
783.538	415.23
783.72	370.17
783.901	398.84
784.083	349.69
784.264	384.51
784.446	333.31
784.627	345.59
784.809	374.27
784.99	359.93
785.172	370.17
785.353	376.31
785.535	368.12
785.716	382.46
785.897	302.59
786.079	364.03
786.26	380.41
786.441	357.88
786.623	292.35
786.804	372.22
786.985	364.03
787.167	378.36
787.348	327.16
787.529	253.44
787.71	390.65
787.891	388.6
788.073	259.58
788.254	337.4
788.435	353.79
788.616	357.88
788.797	296.44
788.978	329.21
789.159	253.44
789.34	359.93
789.522	228.86
789.703	288.25
789.884	357.88
790.065	302.59
790.246	323.07
790.427	366.07
790.607	275.96
790.788	300.54
790.969	235
791.15	316.92
791.331	353.79
791.512	253.44
791.693	218.62
791.874	177.66
792.054	337.4
792.235	298.49
792.416	237.05
792.597	271.87
792.778	288.25
792.958	284.16
793.139	204.28
793.32	267.77
793.5	153.09
793.681	318.97
793.862	185.85
794.042	218.62
794.223	163.33
794.404	271.87
794.584	192
794.765	243.2
794.945	255.48
795.126	220.67
795.306	259.58
795.487	265.72
795.667	251.39
795.848	136.7
796.028	243.2
796.209	329.21
796.389	202.24
796.57	228.86
796.75	189.95
796.93	216.57
797.111	239.1
797.291	257.53
797.471	275.96
797.652	200.19
797.832	185.85
798.012	189.95
798.192	177.66
798.373	235
798.553	146.94
798.733	239.1
798.913	116.22
799.093	263.68
799.274	181.76
799.454	212.48
799.634	253.44
799.814	269.82
799.994	153.09
800.174	157.18
800.354	171.52
800.534	175.61
800.714	185.85
800.894	159.23
801.074	161.28
801.254	220.67
801.434	185.85
801.614	232.96
801.794	103.93
801.974	701.94
802.154	202.24
802.334	179.71
802.514	183.81
802.693	153.09
802.873	175.61
803.053	165.37
803.233	253.44
803.413	187.9
803.592	122.37
803.772	202.24
803.952	204.28
804.131	148.99
804.311	189.95
804.491	230.91
804.67	144.89
804.85	173.57
805.03	189.95
805.209	144.89
805.389	163.33
805.568	97.79
805.748	206.33
805.928	181.76
806.107	202.24
806.287	181.76
806.466	105.98
806.646	169.47
806.825	163.33
807.004	114.17
807.184	101.89
807.363	89.6
807.543	97.79
807.722	81.41
807.901	140.8
808.081	196.09
808.26	128.51
808.439	218.62
808.619	95.74
808.798	230.91
808.977	87.55
809.156	79.36
809.336	177.66
809.515	185.85
809.694	108.03
809.873	146.94
810.052	79.36
810.231	153.09
810.411	161.28
810.59	212.48
810.769	155.13
810.948	230.91
811.127	99.84
811.306	169.47
811.485	87.55
811.664	189.95
811.843	134.65
812.022	140.8
812.201	79.36
812.38	161.28
812.559	165.37
812.737	79.36
812.916	67.07
813.095	95.74
813.274	73.21
813.453	97.79
813.632	134.65
813.811	157.18
813.989	105.98
814.168	89.6
814.347	171.52
814.526	116.22
814.704	134.65
814.883	132.61
815.062	87.55
815.24	95.74
815.419	54.78
815.598	136.7
815.776	9.73
815.955	81.41
816.133	30.21
816.312	105.98
816.49	42.5
816.669	157.18
816.847	79.36
817.026	124.41
817.204	79.36
817.383	155.13
817.561	56.83
817.74	128.51
817.918	153.09
818.097	97.79
818.275	167.42
818.453	93.69
818.632	79.36
818.81	32.26
818.988	50.69
819.167	151.04
819.345	62.98
819.523	95.74
819.701	144.89
819.879	34.3
820.058	155.13
820.236	110.08
820.414	103.93
820.592	73.21
820.77	126.46
820.948	87.55
821.127	144.89
821.305	38.4
821.483	-18.94
821.661	132.61
821.839	103.93
822.017	79.36
822.195	91.65
822.373	128.51
822.551	132.61
822.729	114.17
822.907	108.03
823.085	42.5
823.262	56.83
823.44	85.5
823.618	7.68
823.796	40.45
823.974	22.02
824.152	46.59
824.329	83.45
824.507	93.69
824.685	118.27
824.863	132.61
825.04	24.06
825.218	50.69
825.396	120.32
825.574	75.26
825.751	44.54
825.929	54.78
826.107	71.17
826.284	105.98
826.462	128.51
826.639	87.55
826.817	54.78
826.994	71.17
827.172	32.26
827.349	120.32
827.527	30.21
827.704	38.4
827.882	95.74
828.059	124.41
828.237	38.4
828.414	58.88
828.591	105.98
828.769	46.59
828.946	79.36
829.124	99.84
829.301	83.45
829.478	-2.56
829.655	122.37
829.833	73.21
830.01	24.06
830.187	56.83
830.364	62.98
830.542	40.45
830.719	122.37
830.896	77.31
831.073	54.78
831.25	75.26
831.427	67.07
831.604	38.4
831.782	42.5
831.959	38.4
832.136	48.64
832.313	75.26
832.49	148.99
832.667	62.98
832.844	75.26
833.021	67.07
833.198	56.83
833.374	58.88
833.551	46.59
833.728	87.55
833.905	79.36
834.082	30.21
834.259	1.54
834.436	60.93
834.612	-66.05
834.789	62.98
834.966	1.54
835.143	46.59
835.319	5.63
835.496	91.65
835.673	79.36
835.85	105.98
836.026	26.11
836.203	26.11
836.38	46.59
836.556	-2.56
836.733	19.97
836.909	52.74
837.086	42.5
837.262	-6.66
837.439	73.21
837.616	67.07
837.792	71.17
837.968	58.88
838.145	-2.56
838.321	-39.42
838.498	83.45
838.674	62.98
838.851	28.16
839.027	5.63
839.203	26.11
839.38	44.54
839.556	9.73
839.732	130.56
839.909	108.03
840.085	26.11
840.261	38.4
840.437	24.06
840.614	-14.85
840.79	122.37
840.966	42.5
841.142	50.69
841.318	34.3
841.494	124.41
841.671	62.98
841.847	81.41
842.023	-8.7
842.199	95.74
842.375	75.26
842.551	-23.04
842.727	13.82
842.903	36.35
843.079	79.36
843.255	128.51
843.431	-6.66
843.607	54.78
843.783	-14.85
843.959	62.98
844.134	-2.56
844.31	65.02
844.486	3.58
844.662	9.73
844.838	-14.85
845.013	83.45
845.189	26.11
845.365	-0.51
845.541	75.26
845.716	46.59
845.892	58.88
846.068	32.26
846.244	40.45
846.419	13.82
846.595	-35.33
846.77	54.78
846.946	40.45
847.122	56.83
847.297	5.63
847.473	97.79
847.648	13.82
847.824	46.59
847.999	-59.9
848.175	38.4
848.35	44.54
848.526	79.36
848.701	71.17
848.876	54.78
849.052	67.07
849.227	7.68
849.403	62.98
849.578	71.17
849.753	26.11
849.929	3.58
850.104	-68.09
850.279	95.74
850.454	26.11
850.63	30.21
850.805	1.54
850.98	7.68
851.155	-33.28
851.33	48.64
851.505	-43.52
851.681	89.6
851.856	-107.01
852.031	7.68
852.206	5.63
852.381	-23.04
852.556	-31.23
852.731	65.02
852.906	9.73
853.081	50.69
853.256	62.98
853.431	-35.33
853.606	-4.61
853.781	26.11
853.956	-4.61
854.131	19.97
854.305	5.63
854.48	-10.75
854.655	-0.51
854.83	-41.47
855.005	38.4
855.18	42.5
855.354	42.5
855.529	1.54
855.704	120.32
855.879	71.17
856.053	-8.7
856.228	75.26
856.403	-20.99
856.577	91.65
856.752	-14.85
856.926	-47.62
857.101	58.88
857.276	-0.51
857.45	32.26
857.625	34.3
857.799	-2.56
857.974	-18.94
858.148	-31.23
858.323	-6.66
858.497	40.45
858.672	62.98
858.846	65.02
859.02	-18.94
859.195	-41.47
859.369	7.68
859.543	17.92
859.718	-12.8
859.892	46.59
860.066	38.4
860.241	46.59
860.415	38.4
860.589	60.93
860.763	-43.52
860.938	7.68
861.112	-25.09
861.286	71.17
861.46	44.54
861.634	-4.61
861.808	24.06
861.982	-33.28
862.157	7.68
862.331	48.64
862.505	-10.75
862.679	-43.52
862.853	-4.61
863.027	-8.7
863.201	3.58
863.375	-16.9
863.549	32.26
863.722	15.87
863.896	46.59
864.07	73.21
864.244	-16.9
864.418	7.68
864.592	40.45
864.766	-18.94
864.939	24.06
865.113	32.26
865.287	30.21
865.461	-0.51
865.634	-35.33
865.808	22.02
865.982	-27.14
866.156	-0.51
866.329	56.83
866.503	-16.9
866.676	-18.94
866.85	24.06
867.024	24.06
867.197	32.26
867.371	26.11
867.544	79.36
867.718	22.02
867.891	-45.57
868.065	-18.94
868.238	-55.81
868.412	105.98
868.585	-55.81
868.759	-2.56
868.932	-94.72
869.105	-43.52
869.279	54.78
869.452	-12.8
869.625	65.02
869.799	30.21
869.972	-8.7
870.145	81.41
870.319	17.92
870.492	65.02
870.665	19.97
870.838	54.78
871.011	-68.09
871.185	62.98
871.358	-12.8
871.531	46.59
871.704	-59.9
871.877	15.87
872.05	7.68
872.223	-47.62
872.396	5.63
872.569	93.69
872.742	-14.85
872.915	54.78
873.088	17.92
873.261	-27.14
873.434	13.82
873.607	-14.85
873.78	54.78
873.953	75.26
874.126	56.83
874.299	15.87
874.471	22.02
874.644	-25.09
874.817	-20.99
874.99	46.59
875.163	-35.33
875.335	26.11
875.508	26.11
875.681	108.03
875.853	-39.42
876.026	-6.66
876.199	-14.85
876.371	15.87
876.544	5.63
876.717	-18.94
876.889	-35.33
877.062	-12.8
877.234	-33.28
877.407	-8.7
877.579	-20.99
877.752	-76.29
877.924	54.78
878.097	-25.09
878.269	-90.62
878.442	-2.56
878.614	-25.09
878.786	-25.09
878.959	-51.71
879.131	46.59
879.303	-115.2
879.476	32.26
879.648	-2.56
879.82	105.98
879.993	30.21
880.165	-2.56
880.337	-68.09
880.509	13.82
880.681	-25.09
880.854	1.54
881.026	15.87
881.198	13.82
881.37	-16.9
881.542	-47.62
881.714	-70.14
881.886	24.06
882.058	-43.52
882.23	-16.9
882.402	7.68
882.574	97.79
882.746	19.97
882.918	-29.18
883.09	5.63
883.262	-23.04
883.434	-16.9
883.606	15.87
883.778	-29.18
883.95	9.73
884.122	81.41
884.293	-8.7
884.465	24.06
884.637	38.4
884.809	-14.85
884.98	24.06
885.152	38.4
885.324	30.21
885.496	-51.71
885.667	-6.66
885.839	-33.28
886.011	24.06
886.182	-6.66
886.354	46.59
886.525	-18.94
886.697	-16.9
886.869	-10.75
887.04	38.4
887.212	-0.51
887.383	-10.75
887.555	-51.71
887.726	67.07
887.897	1.54
888.069	-14.85
888.24	65.02
888.412	-0.51
888.583	9.73
888.754	5.63
888.926	-74.24
889.097	62.98
889.268	15.87
889.44	-66.05
889.611	-33.28
889.782	-27.14
889.953	-6.66
890.125	26.11
890.296	-55.81
890.467	38.4
890.638	-68.09
890.809	-25.09
890.98	-8.7
891.151	24.06
891.323	22.02
891.494	56.83
891.665	1.54
891.836	-27.14
892.007	-41.47
892.178	83.45
892.349	-82.43
892.52	1.54
892.691	-90.62
892.862	19.97
893.032	-59.9
893.203	-74.24
893.374	-23.04
893.545	62.98
893.716	3.58
893.887	-57.86
894.057	-8.7
894.228	-14.85
894.399	-20.99
894.57	-16.9
894.74	-33.28
894.911	56.83
895.082	-12.8
895.253	-29.18
895.423	-29.18
895.594	65.02
895.764	-8.7
895.935	30.21
896.106	-8.7
896.276	-35.33
896.447	28.16
896.617	-29.18
896.788	56.83
896.958	-68.09
897.129	-14.85
897.299	28.16
897.47	38.4
897.64	56.83
897.81	7.68
897.981	-59.9
898.151	-43.52
898.322	60.93
898.492	26.11
898.662	-2.56
898.832	5.63
899.003	-59.9
899.173	9.73
899.343	-8.7
899.513	46.59
