Data from USB4F104151__173__14-19-58-138.txt Node

Date: Thu Mar 13 14:19:58 EDT 2025
User: louis
Spectrometer: USB4F10415
Trigger mode: 4
Integration Time (sec): 2.000000E-2
Scans to average: 1
Electric dark correction enabled: true
Nonlinearity correction enabled: false
Boxcar width: 0
XAxis mode: Wavelengths
Number of Pixels in Spectrum: 3648
>>>>>Begin Spectral Data<<<<<
178.204	-94.21
178.424	-94.21
178.644	-94.21
178.864	-88.06
179.084	-139.26
179.304	6.14
179.524	-6.14
179.744	16.38
179.964	38.91
180.184	-0
180.404	24.58
180.624	-28.67
180.844	28.67
181.064	-2.05
181.283	-49.15
181.503	-28.67
181.723	-0
181.943	-94.21
182.163	20.48
182.383	-18.43
182.602	51.2
182.822	38.91
183.042	-53.25
183.262	45.06
183.482	-18.43
183.701	63.49
183.921	22.53
184.141	-18.43
184.361	-12.29
184.58	8.19
184.8	-53.25
185.02	-0
185.239	55.3
185.459	-30.72
185.679	28.67
185.898	-28.67
186.118	40.96
186.338	40.96
186.557	53.25
186.777	-12.29
186.997	-18.43
187.216	20.48
187.436	14.34
187.655	38.91
187.875	-6.14
188.095	-2.05
188.314	43.01
188.534	36.86
188.753	36.86
188.973	38.91
189.192	55.3
189.412	-16.38
189.631	65.53
189.851	12.29
190.07	98.3
190.29	-8.19
190.509	-24.58
190.729	-53.25
190.948	-20.48
191.168	65.53
191.387	53.25
191.607	-55.3
191.826	-34.82
192.045	-8.19
192.265	38.91
192.484	4.1
192.704	38.91
192.923	-16.38
193.142	71.68
193.362	57.34
193.581	92.16
193.8	30.72
194.02	36.86
194.239	-28.67
194.458	81.92
194.678	59.39
194.897	28.67
195.116	40.96
195.335	69.63
195.555	108.54
195.774	-65.54
195.993	69.63
196.212	53.25
196.432	-40.96
196.651	20.48
196.87	-20.48
197.089	94.21
197.308	-26.62
197.528	28.67
197.747	-4.1
197.966	26.62
198.185	22.53
198.404	28.67
198.623	-2.05
198.842	26.62
199.062	71.68
199.281	12.29
199.5	45.06
199.719	14.34
199.938	12.29
200.157	71.68
200.376	102.4
200.595	-0
200.814	63.49
201.033	22.53
201.252	102.4
201.471	22.53
201.69	53.25
201.909	-8.19
202.128	-8.19
202.347	38.91
202.566	12.29
202.785	-4.1
203.004	6.14
203.223	88.06
203.442	69.63
203.661	55.3
203.879	28.67
204.098	51.2
204.317	20.48
204.536	94.21
204.755	4.1
204.974	81.92
205.193	55.3
205.411	81.92
205.63	79.87
205.849	69.63
206.068	8.19
206.287	53.25
206.505	88.06
206.724	32.77
206.943	4.1
207.162	53.25
207.381	47.1
207.599	-26.62
207.818	43.01
208.037	-28.67
208.255	-0
208.474	8.19
208.693	32.77
208.911	57.34
209.13	94.21
209.349	86.01
209.567	12.29
209.786	-47.1
210.005	-40.96
210.223	38.91
210.442	-45.06
210.661	-18.43
210.879	32.77
211.098	-43.01
211.316	20.48
211.535	65.53
211.753	8.19
211.972	12.29
212.191	36.86
212.409	69.63
212.628	10.24
212.846	-12.29
213.065	77.82
213.283	110.59
213.502	16.38
213.72	-4.1
213.938	36.86
214.157	-14.34
214.375	69.63
214.594	20.48
214.812	-12.29
215.031	-22.53
215.249	-34.82
215.467	90.11
215.686	69.63
215.904	51.2
216.122	-10.24
216.341	69.63
216.559	22.53
216.778	57.34
216.996	81.92
217.214	34.82
217.432	30.72
217.651	-4.1
217.869	-10.24
218.087	49.15
218.306	28.67
218.524	57.34
218.742	28.67
218.96	-20.48
219.179	14.34
219.397	124.93
219.615	94.21
219.833	12.29
220.051	36.86
220.27	4.1
220.488	-16.38
220.706	40.96
220.924	4.1
221.142	-10.24
221.36	61.44
221.578	20.48
221.796	47.1
222.015	-45.06
222.233	12.29
222.451	-18.43
222.669	28.67
222.887	69.63
223.105	30.72
223.323	32.77
223.541	18.43
223.759	-6.14
223.977	57.34
224.195	55.3
224.413	67.58
224.631	-4.1
224.849	16.38
225.067	133.12
225.285	16.38
225.503	-16.38
225.721	-65.54
225.939	-10.24
226.157	12.29
226.375	86.01
226.592	36.86
226.81	4.1
227.028	65.53
227.246	63.49
227.464	59.39
227.682	49.15
227.9	16.38
228.117	53.25
228.335	-10.24
228.553	81.92
228.771	-20.48
228.989	55.3
229.206	-26.62
229.424	12.29
229.642	38.91
229.86	-26.62
230.077	20.48
230.295	53.25
230.513	73.73
230.731	77.82
230.948	47.1
231.166	34.82
231.384	4.1
231.601	61.44
231.819	45.06
232.037	53.25
232.254	-26.62
232.472	28.67
232.689	51.2
232.907	14.34
233.125	-12.29
233.342	6.14
233.56	20.48
233.777	83.97
233.995	30.72
234.213	47.1
234.43	53.25
234.648	40.96
234.865	16.38
235.083	96.25
235.3	22.53
235.518	79.87
235.735	34.82
235.953	59.39
236.17	12.29
236.388	-4.1
236.605	-12.29
236.822	28.67
237.04	-40.96
237.257	18.43
237.475	36.86
237.692	4.1
237.909	24.58
238.127	28.67
238.344	-28.67
238.562	65.53
238.779	18.43
238.996	-0
239.214	-53.25
239.431	12.29
239.648	-12.29
239.865	14.34
240.083	79.87
240.3	4.1
240.517	-61.44
240.735	16.38
240.952	88.06
241.169	135.17
241.386	12.29
241.603	-34.82
241.821	24.58
242.038	51.2
242.255	32.77
242.472	14.34
242.689	77.82
242.907	108.54
243.124	-4.1
243.341	77.82
243.558	6.14
243.775	-28.67
243.992	102.4
244.209	47.1
244.426	122.88
244.643	63.49
244.86	81.92
245.078	14.34
245.295	14.34
245.512	12.29
245.729	8.19
245.946	81.92
246.163	86.01
246.38	12.29
246.597	16.38
246.814	-45.06
247.031	77.82
247.248	20.48
247.464	8.19
247.681	-12.29
247.898	-0
248.115	47.1
248.332	32.77
248.549	40.96
248.766	57.34
248.983	24.58
249.2	34.82
249.417	4.1
249.633	8.19
249.85	22.53
250.067	-8.19
250.284	-10.24
250.501	67.58
250.717	53.25
250.934	-10.24
251.151	22.53
251.368	-18.43
251.585	28.67
251.801	118.78
252.018	49.15
252.235	30.72
252.451	45.06
252.668	75.77
252.885	-12.29
253.102	102.4
253.318	47.1
253.535	38.91
253.752	65.53
253.968	22.53
254.185	28.67
254.401	22.53
254.618	83.97
254.835	77.82
255.051	49.15
255.268	61.44
255.484	53.25
255.701	22.53
255.917	61.44
256.134	-12.29
256.351	55.3
256.567	-16.38
256.784	61.44
257	4.1
257.217	94.21
257.433	36.86
257.65	22.53
257.866	-36.86
258.082	-18.43
258.299	8.19
258.515	20.48
258.732	-12.29
258.948	36.86
259.165	14.34
259.381	28.67
259.597	38.91
259.814	40.96
260.03	24.58
260.246	4.1
260.463	61.44
260.679	-34.82
260.895	51.2
261.112	49.15
261.328	43.01
261.544	-36.86
261.761	81.92
261.977	-90.11
262.193	12.29
262.409	30.72
262.626	49.15
262.842	8.19
263.058	-12.29
263.274	51.2
263.49	40.96
263.707	12.29
263.923	55.3
264.139	118.78
264.355	86.01
264.571	24.58
264.787	-30.72
265.004	67.58
265.22	4.1
265.436	-6.14
265.652	-65.54
265.868	4.1
266.084	-24.58
266.3	-20.48
266.516	-16.38
266.732	63.49
266.948	12.29
267.164	59.39
267.38	26.62
267.596	24.58
267.812	6.14
268.028	75.77
268.244	49.15
268.46	-26.62
268.676	-30.72
268.892	-0
269.108	-16.38
269.324	-22.53
269.54	-12.29
269.756	86.01
269.972	-12.29
270.188	-4.1
270.403	26.62
270.619	28.67
270.835	-34.82
271.051	16.38
271.267	14.34
271.483	36.86
271.698	14.34
271.914	28.67
272.13	45.06
272.346	69.63
272.562	12.29
272.777	-14.34
272.993	22.53
273.209	53.25
273.425	-34.82
273.64	32.77
273.856	38.91
274.072	-0
274.287	-2.05
274.503	40.96
274.719	40.96
274.934	-0
275.15	-86.01
275.366	65.53
275.581	32.77
275.797	20.48
276.012	43.01
276.228	86.01
276.444	57.34
276.659	73.73
276.875	49.15
277.09	-8.19
277.306	69.63
277.521	45.06
277.737	-2.05
277.952	69.63
278.168	98.3
278.383	45.06
278.599	47.1
278.814	63.49
279.03	51.2
279.245	53.25
279.461	40.96
279.676	-28.67
279.892	86.01
280.107	22.53
280.322	-69.63
280.538	-24.58
280.753	-4.1
280.969	12.29
281.184	-6.14
281.399	75.77
281.615	61.44
281.83	28.67
282.045	-40.96
282.26	94.21
282.476	-12.29
282.691	106.49
282.906	24.58
283.122	24.58
283.337	34.82
283.552	55.3
283.767	-6.14
283.983	40.96
284.198	-22.53
284.413	-12.29
284.628	10.24
284.843	71.68
285.058	16.38
285.274	20.48
285.489	-24.58
285.704	-36.86
285.919	12.29
286.134	22.53
286.349	45.06
286.564	65.53
286.779	90.11
286.995	16.38
287.21	-16.38
287.425	26.62
287.64	-4.1
287.855	63.49
288.07	-16.38
288.285	61.44
288.5	57.34
288.715	36.86
288.93	71.68
289.145	96.25
289.36	-12.29
289.575	-0
289.79	49.15
290.004	14.34
290.219	83.97
290.434	-16.38
290.649	53.25
290.864	12.29
291.079	36.86
291.294	28.67
291.509	32.77
291.724	45.06
291.938	-4.1
292.153	6.14
292.368	16.38
292.583	45.06
292.798	86.01
293.012	-26.62
293.227	61.44
293.442	36.86
293.657	12.29
293.871	57.34
294.086	86.01
294.301	55.3
294.516	2.05
294.73	20.48
294.945	61.44
295.16	-4.1
295.374	63.49
295.589	4.1
295.804	-10.24
296.018	38.91
296.233	16.38
296.447	20.48
296.662	-12.29
296.877	34.82
297.091	45.06
297.306	-4.1
297.52	6.14
297.735	38.91
297.949	34.82
298.164	22.53
298.378	22.53
298.593	4.1
298.807	36.86
299.022	20.48
299.236	14.34
299.451	73.73
299.665	-12.29
299.88	53.25
300.094	43.01
300.309	6.14
300.523	4.1
300.737	-6.14
300.952	32.77
301.166	47.1
301.381	-61.44
301.595	-10.24
301.809	-8.19
302.024	-26.62
302.238	36.86
302.452	40.96
302.667	110.59
302.881	22.53
303.095	4.1
303.309	24.58
303.524	-40.96
303.738	32.77
303.952	30.72
304.166	-0
304.381	-10.24
304.595	4.1
304.809	8.19
305.023	36.86
305.237	24.58
305.452	-34.82
305.666	61.44
305.88	12.29
306.094	73.73
306.308	24.58
306.522	34.82
306.736	90.11
306.95	47.1
307.164	77.82
307.379	14.34
307.593	22.53
307.807	133.12
308.021	51.2
308.235	40.96
308.449	-28.67
308.663	6.14
308.877	100.35
309.091	53.25
309.305	14.34
309.519	4.1
309.733	43.01
309.947	-28.67
310.161	100.35
310.374	-75.77
310.588	71.68
310.802	-6.14
311.016	61.44
311.23	32.77
311.444	120.83
311.658	6.14
311.872	71.68
312.085	53.25
312.299	30.72
312.513	18.43
312.727	20.48
312.941	-18.43
313.154	53.25
313.368	-4.1
313.582	77.82
313.796	14.34
314.009	-43.01
314.223	77.82
314.437	-36.86
314.651	100.35
314.864	53.25
315.078	36.86
315.292	-16.38
315.505	-22.53
315.719	-2.05
315.933	69.63
316.146	-18.43
316.36	-36.86
316.573	77.82
316.787	22.53
317.001	24.58
317.214	-8.19
317.428	30.72
317.641	36.86
317.855	63.49
318.068	28.67
318.282	110.59
318.495	90.11
318.709	-34.82
318.922	-4.1
319.136	102.4
319.349	63.49
319.563	-4.1
319.776	63.49
319.99	49.15
320.203	22.53
320.417	12.29
320.63	45.06
320.843	20.48
321.057	65.53
321.27	110.59
321.483	133.12
321.697	53.25
321.91	30.72
322.124	65.53
322.337	106.49
322.55	18.43
322.763	45.06
322.977	18.43
323.19	28.67
323.403	28.67
323.617	-0
323.83	-10.24
324.043	28.67
324.256	81.92
324.469	30.72
324.683	-16.38
324.896	14.34
325.109	55.3
325.322	-18.43
325.535	90.11
325.748	92.16
325.962	55.3
326.175	36.86
326.388	102.4
326.601	69.63
326.814	12.29
327.027	-30.72
327.24	73.73
327.453	45.06
327.666	86.01
327.879	38.91
328.092	110.59
328.305	40.96
328.518	24.58
328.731	20.48
328.944	-67.58
329.157	-4.1
329.37	65.53
329.583	86.01
329.796	90.11
330.009	12.29
330.222	20.48
330.435	2.05
330.648	61.44
330.861	20.48
331.073	61.44
331.286	110.59
331.499	38.91
331.712	-4.1
331.925	55.3
332.138	36.86
332.35	36.86
332.563	2.05
332.776	90.11
332.989	-57.34
333.202	12.29
333.414	-16.38
333.627	77.82
333.84	-20.48
334.053	36.86
334.265	-14.34
334.478	57.34
334.691	90.11
334.903	73.73
335.116	-8.19
335.329	86.01
335.541	63.49
335.754	30.72
335.966	20.48
336.179	8.19
336.392	45.06
336.604	53.25
336.817	22.53
337.029	36.86
337.242	-32.77
337.454	45.06
337.667	71.68
337.88	40.96
338.092	63.49
338.305	45.06
338.517	45.06
338.729	8.19
338.942	45.06
339.154	-0
339.367	36.86
339.579	69.63
339.792	36.86
340.004	65.53
340.217	28.67
340.429	4.1
340.641	94.21
340.854	32.77
341.066	32.77
341.278	49.15
341.491	94.21
341.703	69.63
341.915	86.01
342.128	30.72
342.34	18.43
342.552	86.01
342.764	22.53
342.977	6.14
343.189	53.25
343.401	16.38
343.613	-14.34
343.826	47.1
344.038	6.14
344.25	-36.86
344.462	69.63
344.674	71.68
344.886	24.58
345.099	118.78
345.311	28.67
345.523	32.77
345.735	69.63
345.947	129.02
346.159	36.86
346.371	40.96
346.583	-18.43
346.795	45.06
347.007	-8.19
347.219	-12.29
347.431	16.38
347.643	96.25
347.855	49.15
348.067	34.82
348.279	-4.1
348.491	96.25
348.703	6.14
348.915	30.72
349.127	86.01
349.339	8.19
349.551	-12.29
349.763	28.67
349.975	14.34
350.187	118.78
350.399	61.44
350.61	-10.24
350.822	-16.38
351.034	47.1
351.246	45.06
351.458	65.53
351.669	4.1
351.881	73.73
352.093	47.1
352.305	77.82
352.517	98.3
352.728	102.4
352.94	20.48
353.152	69.63
353.363	75.77
353.575	28.67
353.787	61.44
353.999	71.68
354.21	110.59
354.422	-36.86
354.633	-28.67
354.845	-12.29
355.057	45.06
355.268	30.72
355.48	38.91
355.692	73.73
355.903	45.06
356.115	26.62
356.326	-20.48
356.538	79.87
356.749	114.69
356.961	30.72
357.172	59.39
357.384	-8.19
357.595	53.25
357.807	45.06
358.018	12.29
358.23	106.49
358.441	55.3
358.653	51.2
358.864	2.05
359.075	77.82
359.287	4.1
359.498	51.2
359.709	40.96
359.921	36.86
360.132	143.36
360.344	92.16
360.555	-4.1
360.766	81.92
360.977	110.59
361.189	94.21
361.4	63.49
361.611	73.73
361.823	151.55
362.034	77.82
362.245	49.15
362.456	112.64
362.667	102.4
362.879	38.91
363.09	69.63
363.301	75.77
363.512	28.67
363.723	-28.67
363.935	63.49
364.146	20.48
364.357	141.31
364.568	34.82
364.779	8.19
364.99	159.74
365.201	12.29
365.412	36.86
365.623	53.25
365.834	94.21
366.045	79.87
366.256	6.14
366.467	53.25
366.678	28.67
366.889	94.21
367.1	98.3
367.311	57.34
367.522	55.3
367.733	69.63
367.944	61.44
368.155	28.67
368.366	53.25
368.577	20.48
368.788	79.87
368.999	28.67
369.209	71.68
369.42	61.44
369.631	118.78
369.842	36.86
370.053	77.82
370.264	47.1
370.474	4.1
370.685	28.67
370.896	61.44
371.107	45.06
371.317	65.53
371.528	-6.14
371.739	102.4
371.95	104.45
372.16	32.77
372.371	4.1
372.582	110.59
372.792	30.72
373.003	47.1
373.214	-14.34
373.424	63.49
373.635	32.77
373.846	28.67
374.056	40.96
374.267	104.45
374.477	22.53
374.688	-53.25
374.898	20.48
375.109	77.82
375.319	24.58
375.53	45.06
375.74	122.88
375.951	69.63
376.161	61.44
376.372	63.49
376.582	-32.77
376.793	36.86
377.003	51.2
377.214	8.19
377.424	55.3
377.635	4.1
377.845	-4.1
378.055	59.39
378.266	12.29
378.476	-12.29
378.686	20.48
378.897	104.45
379.107	63.49
379.317	88.06
379.528	-18.43
379.738	75.77
379.948	-2.05
380.158	55.3
380.369	67.58
380.579	32.77
380.789	131.07
380.999	49.15
381.21	61.44
381.42	102.4
381.63	16.38
381.84	86.01
382.05	45.06
382.261	18.43
382.471	61.44
382.681	94.21
382.891	86.01
383.101	-10.24
383.311	24.58
383.521	61.44
383.731	45.06
383.941	79.87
384.151	40.96
384.361	12.29
384.571	47.1
384.781	67.58
384.991	104.45
385.201	94.21
385.411	88.06
385.621	67.58
385.831	16.38
386.041	36.86
386.251	43.01
386.461	75.77
386.671	63.49
386.881	81.92
387.091	86.01
387.301	86.01
387.511	-8.19
387.72	8.19
387.93	55.3
388.14	28.67
388.35	73.73
388.56	14.34
388.769	69.63
388.979	-4.1
389.189	45.06
389.399	40.96
389.609	61.44
389.818	55.3
390.028	59.39
390.238	108.54
390.447	51.2
390.657	53.25
390.867	71.68
391.076	61.44
391.286	45.06
391.496	32.77
391.705	126.97
391.915	102.4
392.125	110.59
392.334	61.44
392.544	57.34
392.753	28.67
392.963	-36.86
393.172	-30.72
393.382	53.25
393.591	159.74
393.801	112.64
394.01	36.86
394.22	100.35
394.429	98.3
394.639	40.96
394.848	77.82
395.058	71.68
395.267	-18.43
395.477	83.97
395.686	55.3
395.895	90.11
396.105	86.01
396.314	135.17
396.524	61.44
396.733	69.63
396.942	182.27
397.152	53.25
397.361	69.63
397.57	55.3
397.78	75.77
397.989	124.93
398.198	204.8
398.407	24.58
398.617	108.54
398.826	108.54
399.035	118.78
399.244	139.26
399.453	122.88
399.663	153.6
399.872	94.21
400.081	45.06
400.29	167.93
400.499	131.07
400.708	159.74
400.917	47.1
401.127	126.97
401.336	30.72
401.545	155.65
401.754	159.74
401.963	145.41
402.172	122.88
402.381	112.64
402.59	71.68
402.799	112.64
403.008	106.49
403.217	120.83
403.426	112.64
403.635	88.06
403.844	167.93
404.053	131.07
404.262	112.64
404.471	167.93
404.68	159.74
404.888	151.55
405.097	131.07
405.306	245.76
405.515	200.7
405.724	233.47
405.933	135.17
406.142	176.13
406.35	112.64
406.559	126.97
406.768	180.22
406.977	237.56
407.185	143.36
407.394	192.51
407.603	200.7
407.812	276.48
408.02	223.23
408.229	235.52
408.438	217.08
408.646	217.08
408.855	323.58
409.064	260.09
409.272	251.9
409.481	288.76
409.69	368.63
409.898	323.58
410.107	301.05
410.315	307.2
410.524	319.48
410.733	440.31
410.941	382.97
411.15	358.39
411.358	501.75
411.567	462.84
411.775	382.97
411.984	425.98
412.192	491.51
412.401	425.98
412.609	497.66
412.818	536.57
413.026	511.99
413.234	552.95
413.443	573.43
413.651	495.61
413.86	591.86
414.068	602.1
414.276	647.16
414.485	571.38
414.693	598.01
414.901	718.84
415.11	696.31
415.318	700.41
415.526	770.04
415.734	757.75
415.943	888.82
416.151	935.92
416.359	874.48
416.567	841.72
416.776	937.97
416.984	882.67
417.192	1069.04
417.4	1048.56
417.608	976.88
417.817	1062.9
418.025	1216.49
418.233	1179.63
418.441	1175.53
418.649	1257.45
418.857	1292.27
419.065	1320.94
419.273	1413.1
419.481	1411.05
419.689	1396.71
419.897	1472.49
420.105	1540.07
420.313	1636.33
420.521	1654.76
420.729	1691.62
420.937	1761.25
421.145	1796.07
421.353	1945.57
421.561	1890.28
421.769	1925.09
421.977	2037.73
422.185	2101.22
422.393	2244.57
422.601	2258.91
422.809	2404.32
423.017	2418.65
423.224	2441.18
423.432	2564.06
423.64	2693.08
423.848	2762.71
424.056	2693.08
424.263	2799.57
424.471	2807.77
424.679	3002.32
424.887	3053.52
425.094	3182.54
425.302	3211.21
425.51	3348.43
425.718	3608.52
425.925	3395.53
426.133	3561.42
426.341	3766.21
426.548	3928
426.756	3971.01
426.964	4173.76
427.171	4245.44
427.379	4200.38
427.586	4413.37
427.794	4446.14
428.001	4849.59
428.209	5021.62
428.417	4919.22
428.624	5224.37
428.832	5406.64
429.039	5267.38
429.247	5148.59
429.454	5578.67
429.662	6109.09
429.869	5771.18
430.076	6354.85
430.284	5982.12
430.491	6119.33
430.699	6496.16
430.906	6592.41
431.114	6608.8
431.321	6782.87
431.528	7010.2
431.736	7374.74
431.943	7892.87
432.15	7583.63
432.358	7659.4
432.565	8052.61
432.772	7915.4
432.979	8445.82
433.187	8523.65
433.394	8634.24
433.601	9219.96
433.808	9207.67
434.016	9125.75
434.223	9369.46
434.43	10227.56
434.637	9998.18
434.844	10450.78
435.052	10880.86
435.259	10628.96
435.466	10692.44
435.673	10536.8
435.88	11269.97
436.087	11999.05
436.294	11964.23
436.501	11566.93
436.708	11919.18
436.915	12470.08
437.122	12853.05
437.329	12826.43
437.537	13225.78
437.743	13629.23
437.95	13242.17
438.157	14079.79
438.364	14487.33
438.571	14350.12
438.778	14501.67
438.985	15920.91
439.192	15060.76
439.399	15912.72
439.606	15286.04
439.813	16297.74
440.02	17286.9
440.227	17071.87
440.433	16750.34
440.64	17479.41
440.847	17118.97
441.054	17641.2
441.261	18804.45
441.467	18749.15
441.674	18919.14
441.881	19439.32
442.088	19255
442.294	19123.93
442.501	19797.71
442.708	20229.84
442.914	20899.52
443.121	21755.57
443.328	21188.28
443.534	22752.93
443.741	21833.39
443.948	21860.02
444.154	23420.57
444.361	23166.62
444.568	23625.37
444.774	23373.47
444.981	24092.3
445.187	24442.51
445.394	25355.9
445.6	25075.33
445.807	27680.35
446.013	26242.67
446.22	26732.14
446.426	27666.01
446.633	27965.01
446.839	28929.61
447.046	27651.67
447.252	29097.54
447.459	29349.44
447.665	29060.68
447.871	30477.87
448.078	31579.68
448.284	30359.09
448.491	31039.01
448.697	32296.47
448.903	32730.64
449.11	33005.06
449.316	32534.03
449.522	32927.24
449.728	33918.46
449.935	33955.32
450.141	33594.88
450.347	34805.23
450.553	33730.05
450.76	34104.82
450.966	35122.66
451.172	34747.89
451.378	35882.46
451.584	35147.24
451.791	36091.35
451.997	35569.12
452.203	36400.6
452.409	36216.28
452.615	36496.85
452.821	34645.49
453.027	34739.69
453.233	36396.5
453.44	34901.48
453.646	35253.73
453.852	35216.87
454.058	36408.79
454.264	34567.66
454.47	35704.29
454.676	34770.41
454.882	36298.2
455.088	33134.09
455.294	33637.89
455.5	33873.4
455.705	34604.53
455.911	33197.57
456.117	32073.24
456.323	31823.39
456.529	30275.12
456.735	31739.42
456.941	30909.99
457.147	30205.49
457.352	29457.98
457.558	29034.05
457.764	29251.14
457.97	28640.84
458.176	28151.38
458.381	28153.43
458.587	26857.06
458.793	26809.96
458.999	25239.17
459.204	27377.25
459.41	26287.73
459.616	24575.62
459.821	24647.3
460.027	24581.77
460.233	24116.88
460.438	23002.78
460.644	23395.99
460.85	22030
461.055	21769.91
461.261	21806.77
461.466	20086.48
461.672	19396.31
461.878	20809.41
462.083	19494.61
462.289	19050.21
462.494	19125.98
462.7	18255.59
462.905	17512.18
463.111	18003.69
463.316	18357.99
463.522	17846
463.727	17993.45
463.932	17725.17
464.138	17571.57
464.343	17778.42
464.549	17020.67
464.754	17612.53
464.959	17807.09
465.165	17592.05
465.37	16975.61
465.575	16424.71
465.781	17092.35
465.986	17243.9
466.191	16574.21
466.397	16062.22
466.602	15404.82
466.807	16004.88
467.012	16062.22
467.218	15783.7
467.423	15734.54
467.628	15892.24
467.833	16596.74
468.038	15597.33
468.244	15318.81
468.449	15914.77
468.654	15396.63
468.859	15298.33
469.064	15339.29
469.269	14755.61
469.474	14933.79
469.679	15230.74
469.885	14835.49
470.09	14913.31
470.295	14681.89
470.5	14118.7
470.705	14380.84
470.91	14227.24
471.115	13948.72
471.32	14233.38
471.525	13989.67
471.73	13625.14
471.935	13631.28
472.139	13393.72
472.344	13197.11
472.549	13279.03
472.754	13168.44
472.959	13084.47
473.164	12726.08
473.369	12490.56
473.574	12984.12
473.778	12848.96
473.983	12719.93
474.188	12744.51
474.393	12195.65
474.598	12402.5
474.802	11890.51
475.007	11845.45
475.212	12050.25
475.417	11392.85
475.621	11349.84
475.826	11376.47
476.031	11210.58
476.235	11013.98
476.44	11335.51
476.645	11046.74
476.849	11071.32
477.054	10762.08
477.259	10678.11
477.463	10612.57
477.668	10399.59
477.872	10649.44
478.077	10430.3
478.282	10153.83
478.486	10217.32
478.691	10131.3
478.895	9867.11
479.1	9926.5
479.304	10125.16
479.509	9787.24
479.713	9891.69
479.918	9768.81
480.122	9478
480.326	9719.66
480.531	9699.18
480.735	9609.07
480.94	9551.73
481.144	9672.56
481.348	9029.49
481.553	9590.64
481.757	9224.05
481.961	9420.66
482.166	9314.16
482.37	9416.56
482.574	9236.34
482.778	9144.18
482.983	9342.83
483.187	9318.26
483.391	9408.37
483.595	9195.38
483.8	9101.17
484.004	9228.15
484.208	9293.68
484.412	9181.04
484.616	9076.6
484.821	9295.73
485.025	9103.22
485.229	9351.03
485.433	9054.07
485.637	9447.28
485.841	9293.68
486.045	9115.51
486.249	9107.32
486.453	9101.17
486.657	9303.92
486.861	9232.24
487.065	9017.21
487.269	9113.46
487.473	8984.44
487.677	9154.42
487.881	9289.59
488.085	9205.62
488.289	9129.84
488.493	9281.39
488.697	9312.11
488.901	9328.5
489.105	9277.3
489.309	9338.74
489.512	9408.37
489.716	9318.26
489.92	9383.79
490.124	9459.57
490.328	9385.84
490.531	9299.83
490.735	9572.21
490.939	9414.51
491.143	9426.8
491.346	9527.15
491.55	9578.35
491.754	9492.34
491.958	9572.21
492.161	9707.37
492.365	9758.57
492.569	9793.39
492.772	9760.62
492.976	9846.63
493.18	9987.94
493.383	9873.26
493.587	10108.77
493.79	9875.31
493.994	10071.91
494.197	10114.92
494.401	10248.04
494.605	10141.54
494.808	10301.28
495.012	10186.6
495.215	10465.12
495.419	10481.5
495.622	10401.63
495.825	10659.68
496.029	10626.91
496.232	10846.04
496.436	10835.8
496.639	11116.37
496.843	11054.94
497.046	11292.5
497.249	11624.27
497.453	11351.89
497.656	11661.13
497.859	11472.72
498.063	11448.15
498.266	11962.19
498.469	11980.62
498.673	12060.49
498.876	12023.62
499.079	12279.62
499.282	12226.37
499.485	12425.03
499.689	12590.91
499.892	12842.81
500.095	12840.76
500.298	13158.2
500.501	12832.57
500.705	13307.7
500.908	13297.46
501.111	13625.14
501.314	13772.59
501.517	13776.69
501.72	14180.14
501.923	14061.35
502.126	14124.84
502.329	14507.81
502.532	14528.29
502.735	14657.31
502.938	15054.62
503.141	14982.94
503.344	15458.07
503.547	15345.43
503.75	15456.02
503.953	15812.37
504.156	15707.92
504.359	16281.35
504.562	16146.19
504.765	16652.03
504.968	16559.88
505.17	16633.6
505.373	16817.92
505.576	16969.47
505.779	17477.37
505.982	17399.54
506.185	17956.59
506.387	17547
506.59	17897.2
506.793	18224.87
506.996	18175.72
507.198	18665.19
507.401	18370.28
507.604	18884.32
507.807	19310.3
508.009	19293.91
508.212	19238.62
508.415	19656.4
508.617	19844.82
508.82	19812.05
509.022	19807.95
509.225	20395.72
509.428	20485.83
509.63	20739.78
509.833	20614.85
510.035	21053.12
510.238	21196.48
510.44	21276.35
510.643	21651.13
510.845	21958.32
511.048	21780.15
511.25	22417.07
511.453	22036.14
511.655	22935.2
511.858	23105.18
512.06	22777.51
512.262	23080.61
512.465	23246.49
512.667	23563.93
512.87	23969.43
513.072	23783.06
513.274	24311.44
513.477	24659.59
513.679	25011.84
513.881	25040.51
514.084	25314.94
514.286	25142.91
514.488	25312.89
514.69	26035.83
514.893	25939.57
515.095	26089.07
515.297	26551.91
515.499	26623.59
515.701	26895.97
515.904	27309.66
516.106	27364.96
516.308	27436.64
516.51	27989.59
516.712	27790.94
516.914	28120.66
517.116	28778.06
517.318	28634.7
517.52	28630.6
517.722	28907.08
517.925	29279.81
518.127	29648.44
518.329	29771.32
518.531	30084.66
518.733	30705.2
518.935	30651.95
519.136	30656.04
519.338	30993.96
519.54	31159.84
519.742	31518.24
519.944	31587.87
520.146	31960.6
520.348	32388.63
520.55	32128.53
520.752	32488.98
520.954	32853.51
521.155	32869.9
521.357	33062.41
521.559	33699.33
521.761	34037.24
521.963	34117.11
522.164	33885.69
522.366	33949.18
522.568	34565.62
522.77	34473.46
522.971	35112.42
523.173	35020.27
523.375	35069.42
523.576	34794.99
523.778	35204.58
523.98	35489.25
524.181	36138.46
524.383	36144.6
524.584	36425.17
524.786	36582.87
524.988	36443.6
525.189	36670.93
525.391	37084.62
525.592	36840.91
525.794	37238.22
525.995	37223.88
526.197	37334.47
526.398	37359.05
526.6	37645.76
526.801	37731.78
527.003	37928.38
527.204	38256.06
527.406	38571.44
527.607	38323.64
527.808	38440.37
528.01	37785.02
528.211	38471.09
528.412	39032.24
528.614	39005.61
528.815	38870.45
529.016	39384.49
529.218	38944.17
529.419	39046.57
529.62	38761.9
529.822	39333.29
530.023	39212.46
530.224	39490.98
530.425	39126.44
530.626	39204.27
530.828	38993.32
531.029	39992.73
531.23	39673.25
531.431	39230.89
531.632	39789.98
531.833	39652.77
532.035	39282.09
532.236	39865.76
532.437	40365.46
532.638	39642.53
532.839	40252.83
533.04	40426.9
533.241	39462.31
533.442	40453.53
533.643	39857.57
533.844	39878.05
534.045	39951.77
534.246	39271.85
534.447	40134.04
534.648	39720.35
534.849	40039.84
535.05	39947.68
535.251	40265.11
535.451	40033.69
535.652	40398.23
535.853	40121.76
536.054	39886.24
536.255	40158.62
536.456	39943.58
536.657	40279.45
536.857	39998.88
537.058	39878.05
537.259	40209.82
537.46	40385.94
537.66	39675.3
537.861	39861.66
538.062	39642.53
538.263	39994.78
538.463	39640.48
538.664	39994.78
538.865	39591.33
539.065	39837.09
539.266	39595.43
539.466	40099.23
539.667	39447.97
539.868	40293.79
540.068	39781.79
540.269	39929.25
540.469	39845.28
540.67	39523.75
540.87	39607.72
541.071	39781.79
541.271	39898.53
541.472	39544.23
541.672	39847.33
541.873	39589.28
542.073	39026.09
542.274	40101.28
542.474	39894.43
542.675	39458.21
542.875	39900.58
543.075	39519.65
543.276	39277.99
543.476	39847.33
543.676	39249.32
543.877	39710.11
544.077	39546.28
544.277	39196.07
544.478	39878.05
544.678	39642.53
544.878	39433.64
545.078	39773.6
545.279	39460.26
545.479	39873.95
545.679	39540.13
545.879	39550.37
546.079	39482.79
546.28	39431.59
546.48	38938.03
546.68	39427.49
546.88	39906.72
547.08	39523.75
547.28	39636.39
547.48	39030.19
547.68	39804.32
547.88	39404.97
548.081	39493.03
548.281	39144.87
548.481	39247.27
548.681	39478.69
548.881	39159.21
549.081	39323.05
549.28	39413.16
549.48	39380.39
549.68	39308.71
549.88	39912.86
550.08	38854.06
550.28	39306.66
550.48	39085.48
550.68	39529.89
550.88	38966.7
551.08	39208.36
551.279	39726.5
551.479	38913.45
551.679	39134.63
551.879	39052.72
552.079	39546.28
552.278	38884.78
552.478	39101.87
552.678	39148.97
552.878	39198.12
553.077	39228.84
553.277	38548.92
553.477	39552.42
553.676	38966.7
553.876	38882.73
554.076	38557.11
554.275	38620.59
554.475	38319.54
554.674	38948.27
554.874	38772.14
555.074	38798.77
555.273	38774.19
555.473	38606.26
555.672	38534.58
555.872	38729.14
556.071	38876.59
556.271	38708.66
556.47	38702.51
556.67	38157.75
556.869	38714.8
557.068	38405.56
557.268	38350.26
557.467	38174.14
557.667	38473.14
557.866	38389.17
558.065	38442.42
558.265	37862.85
558.464	38131.13
558.663	38497.72
558.863	38004.16
559.062	38593.97
559.261	37664.19
559.461	38393.27
559.66	37586.37
559.859	37678.53
560.058	37721.54
560.258	37703.1
560.457	37694.91
560.656	37545.41
560.855	37776.83
561.054	37496.26
561.253	37232.07
561.453	37711.3
561.652	37742.02
561.851	37694.91
562.05	37526.98
562.249	37311.94
562.448	37561.79
562.647	37531.08
562.846	37311.94
563.045	36883.92
563.244	36963.79
563.443	37656
563.642	36652.5
563.841	37105.1
564.04	36709.84
564.239	37213.64
564.438	36386.26
564.637	36847.05
564.836	37234.12
565.035	36533.71
565.234	36900.3
565.432	36533.71
565.631	36543.95
565.83	36511.19
566.029	36335.06
566.228	36431.32
566.427	36210.14
566.625	36402.64
566.824	35872.22
567.023	36433.36
567.222	35753.44
567.42	36111.83
567.619	36281.81
567.818	35657.18
568.016	35843.55
568.215	35597.79
568.414	35427.81
568.612	36230.62
568.811	35554.79
569.01	35360.23
569.208	35046.89
569.407	35317.22
569.605	34782.7
569.804	35370.47
570.002	34952.68
570.201	35436
570.4	34979.31
570.598	34942.44
570.797	34391.54
570.995	34807.28
571.193	34483.7
571.392	34981.35
571.59	34653.68
571.789	34432.5
571.987	34522.61
572.186	34285.04
572.384	34311.67
572.582	34096.63
572.781	34190.84
572.979	34080.25
573.177	34258.42
573.376	34553.33
573.574	33859.07
573.772	34102.78
573.971	33918.46
574.169	33670.65
574.367	33390.08
574.565	33441.28
574.763	33287.68
574.962	33242.63
575.16	32869.9
575.358	33224.2
575.556	32464.4
575.754	33394.18
575.952	32753.16
576.151	33381.89
576.349	32816.65
576.547	32681.49
576.745	32511.5
576.943	32708.11
577.141	32794.12
577.339	32783.88
577.537	32396.82
577.735	32398.87
577.933	31999.51
578.131	32284.18
578.329	32171.54
578.527	32034.33
578.725	31727.13
578.923	32017.94
579.121	31673.88
579.319	31856.15
579.516	31786.52
579.714	31788.57
579.912	31483.42
580.11	31286.82
580.308	31530.53
580.506	31264.29
580.704	30989.86
580.901	31041.06
581.099	31186.47
581.297	30699.05
581.495	30862.89
581.692	31499.81
581.89	30514.73
582.088	30840.36
582.285	30723.63
582.483	30979.62
582.681	30662.19
582.878	30625.32
583.076	30215.73
583.274	30539.31
583.471	30215.73
583.669	30418.48
583.866	30166.58
584.064	30381.62
584.262	29472.32
584.459	29806.14
584.657	29288
584.854	30078.52
585.052	29308.48
585.249	29730.36
585.447	29605.44
585.644	29318.72
585.841	29650.49
586.039	29576.76
586.236	29046.34
586.434	29187.65
586.631	28884.55
586.828	28939.85
587.026	29091.4
587.223	28769.86
587.42	28794.44
587.618	28839.5
587.815	28612.17
588.012	28503.63
588.21	28309.07
588.407	28831.3
588.604	28593.74
588.801	28384.85
588.999	28438.09
589.196	28210.77
589.393	28229.2
589.59	27962.97
589.787	27758.17
589.984	27932.25
590.182	27444.83
590.379	27602.52
590.576	27782.74
590.773	27754.07
590.97	27582.04
591.167	27420.25
591.364	26893.93
591.561	27035.24
591.758	27176.55
591.955	26908.26
592.152	27141.73
592.349	26748.52
592.546	26984.04
592.743	26822.25
592.94	26596.97
593.137	26777.19
593.334	27061.86
593.531	26050.16
593.727	26510.96
593.924	26322.54
594.121	26144.37
594.318	26308.21
594.515	25882.23
594.712	26269.3
594.908	26302.06
595.105	25828.98
595.302	25683.58
595.499	25695.86
595.696	25722.49
595.892	25663.1
596.089	25632.38
596.286	25761.4
596.482	25575.03
596.679	25343.61
596.876	25552.51
597.072	25415.29
597.269	25269.89
597.466	24845.96
597.662	25034.37
597.859	25144.96
598.055	24938.12
598.252	24587.91
598.448	24964.74
598.645	24473.23
598.841	24469.13
599.038	24413.84
599.234	24643.21
599.431	24565.39
599.627	24352.4
599.824	24686.22
600.02	24030.87
600.217	24127.12
600.413	23750.29
600.609	23830.16
600.806	24034.96
601.002	23723.67
601.198	23697.05
601.395	23740.05
601.591	23684.76
601.787	23887.51
601.984	23436.95
602.18	23905.94
602.376	23752.34
602.572	22912.67
602.769	23053.98
602.965	22888.1
603.161	22996.64
603.357	23080.61
603.553	22857.38
603.75	22867.62
603.946	22728.36
604.142	22978.21
604.338	22380.2
604.534	22998.69
604.73	22390.44
604.926	22402.73
605.122	22433.45
605.318	22279.85
605.514	22179.5
605.71	22109.87
605.906	22404.78
606.102	21999.28
606.298	22105.77
606.494	22226.6
606.69	22197.93
606.886	22015.66
607.082	21829.3
607.278	21937.84
607.474	21710.52
607.67	21909.17
607.866	21331.64
608.062	21827.25
608.257	21792.44
608.453	21786.29
608.649	21642.93
608.845	21337.79
609.041	21397.18
609.236	21591.73
609.432	21429.94
609.628	21507.77
609.824	21434.04
610.019	21071.55
610.215	21173.95
610.411	21249.72
610.606	21239.48
610.802	20977.34
610.998	21042.88
611.193	20985.54
611.389	20971.2
611.584	20758.21
611.78	20661.96
611.976	20926.14
612.171	20864.71
612.367	20868.8
612.562	20614.85
612.758	20340.43
612.953	20588.23
613.149	20743.88
613.344	20305.61
613.539	20704.96
613.735	20188.88
613.93	20590.28
614.126	20428.49
614.321	20614.85
614.517	20225.74
614.712	20252.36
614.907	19951.31
615.103	20297.42
615.298	20129.48
615.493	20301.51
615.688	19900.11
615.884	20369.1
616.079	19756.75
616.274	19986.13
616.47	19986.13
616.665	20010.7
616.86	19953.36
617.055	19885.78
617.25	19701.46
617.445	19832.53
617.641	19492.57
617.836	19730.13
618.031	19074.78
618.226	19594.96
618.421	19320.54
618.616	19818.19
618.811	19111.64
619.006	19525.33
619.201	19097.31
619.396	19320.54
619.591	18611.94
619.786	19082.97
619.981	18665.19
620.176	18898.66
620.371	18663.14
620.566	18673.38
620.761	18665.19
620.956	18800.35
621.151	18362.09
621.346	18403.05
621.541	18321.13
621.735	18671.33
621.93	17956.59
622.125	18015.98
622.32	17923.82
622.515	17927.92
622.709	17782.51
622.904	17788.66
623.099	17807.09
623.294	17729.27
623.488	17360.63
623.683	17329.91
623.878	17198.84
624.072	17215.23
624.267	17012.48
624.462	17030.91
624.656	16801.54
624.851	17053.44
625.046	16740.1
625.24	16631.55
625.435	16799.49
625.629	16613.12
625.824	16396.04
626.018	16336.65
626.213	16301.83
626.407	16195.34
626.602	15863.57
626.796	16103.18
626.991	15841.04
627.185	15859.47
627.38	15730.45
627.574	15601.43
627.768	15548.18
627.963	15544.08
628.157	15324.95
628.352	15490.84
628.546	15134.49
628.74	15329.05
628.935	15277.85
629.129	15163.16
629.323	15101.72
629.517	14946.08
629.712	14696.22
629.906	14790.43
630.1	14561.06
630.294	14663.46
630.489	14391.08
630.683	14487.33
630.877	14327.59
631.071	14516
631.265	14303.01
631.459	14063.4
631.653	13963.05
631.848	13909.8
632.042	13801.26
632.236	13768.49
632.43	13553.46
632.624	13750.06
632.818	13504.31
633.012	13184.82
633.206	13440.82
633.4	13506.35
633.594	13272.89
633.788	13336.37
633.982	13332.28
634.176	13373.24
634.369	13047.61
634.563	12949.31
634.757	12834.62
634.951	12818.24
635.145	13012.79
635.339	12668.73
635.533	12736.32
635.726	12793.66
635.92	12406.59
636.114	12506.95
636.308	12355.4
636.501	12312.39
636.695	12459.84
636.889	12195.65
637.083	12250.95
637.276	12293.96
637.47	11908.94
637.664	11845.45
637.857	11931.47
638.051	11915.08
638.244	11792.2
638.438	11695.95
638.632	11644.75
638.825	11636.56
639.019	11657.04
639.212	11415.38
639.406	11646.8
639.599	11376.47
639.793	11315.03
639.986	10966.87
640.18	11226.96
640.373	11181.91
640.567	11226.96
640.76	11063.13
640.954	10653.53
641.147	10794.84
641.34	10803.04
641.534	10850.14
641.727	10819.42
641.92	10637.15
642.114	10721.12
642.307	10633.05
642.5	10518.37
642.694	10366.82
642.887	10458.98
643.08	10493.79
643.273	10162.02
643.467	10243.94
643.66	10108.77
643.853	10321.76
644.046	10141.54
644.239	10186.6
644.432	9920.36
644.626	10010.47
644.819	9969.51
645.012	10035.05
645.205	9940.84
645.398	9805.67
645.591	9777
645.784	9787.24
645.977	9637.74
646.17	9744.24
646.363	9310.07
646.556	9416.56
646.749	9500.53
646.942	9359.22
647.135	9279.35
647.328	9330.55
647.521	9154.42
647.714	9181.04
647.907	9195.38
648.099	9170.8
648.292	8927.1
648.485	9027.45
648.678	8886.14
648.871	9000.82
649.064	8705.92
649.256	8826.75
649.449	8804.22
649.642	8632.19
649.835	8413.06
650.027	8585.08
650.22	8677.24
650.413	8484.73
650.605	8462.21
650.798	8279.94
650.991	8296.32
651.183	8333.18
651.376	8249.22
651.568	8318.85
651.761	8232.83
651.954	8380.29
652.146	7966.6
652.339	8228.74
652.531	8179.59
652.724	7978.89
652.916	7888.78
653.109	7925.64
653.301	8017.8
653.494	8052.61
653.686	7733.13
653.879	7798.66
654.071	7716.75
654.263	7769.99
654.456	7763.85
654.648	7663.5
654.84	7622.54
655.033	7444.37
655.225	7606.16
655.417	7319.44
655.61	7419.79
655.802	7425.93
655.994	7460.75
656.186	7495.57
656.379	7327.63
656.571	7202.71
656.763	7192.47
656.955	6991.77
657.148	7227.28
657.34	7110.55
657.532	7026.58
657.724	7131.03
657.916	6967.19
658.108	7004.05
658.3	7038.87
658.492	7047.06
658.684	6647.71
658.876	7010.2
659.068	6887.32
659.26	6813.59
659.452	6662.04
659.644	6752.15
659.836	6705.05
660.028	6721.43
660.22	6346.66
660.412	6584.22
660.604	6438.81
660.796	6479.77
660.988	6514.59
661.18	6272.93
661.372	6246.3
661.563	6264.74
661.755	6152.1
661.947	6158.24
662.139	6297.5
662.331	6191.01
662.522	6203.3
662.714	6125.47
662.906	6016.93
663.097	6059.94
663.289	6057.89
663.481	5939.11
663.673	5900.2
663.864	6061.99
664.056	5910.44
664.247	5918.63
664.439	5762.98
664.631	5973.92
664.822	5812.14
665.014	5805.99
665.205	5779.37
665.397	5648.3
665.588	5742.5
665.78	5517.23
665.971	5771.18
666.163	5593
666.354	5605.29
666.546	5593
666.737	5558.19
666.929	5564.33
667.12	5480.36
667.311	5537.71
667.503	5380.01
667.694	5472.17
667.885	5423.02
668.077	5451.69
668.268	5431.21
668.459	5468.08
668.651	5408.69
668.842	5240.75
669.033	5279.66
669.224	5371.82
669.416	5304.24
669.607	5308.33
669.798	5140.4
669.989	5275.57
670.18	5294
670.371	5058.48
670.563	5054.39
670.754	5095.35
670.945	5029.81
671.136	5099.44
671.327	5074.87
671.518	4886.45
671.709	4927.41
671.9	4951.99
672.091	5091.25
672.282	5046.19
672.473	4763.58
672.664	5001.14
672.855	4837.3
673.046	4800.44
673.237	4888.5
673.428	4925.36
673.619	4739
673.809	4718.52
674	4757.43
674.191	4624.31
674.382	4640.7
674.573	4720.57
674.764	4609.98
674.954	4644.79
675.145	4702.14
675.336	4571.07
675.527	4417.47
675.717	4741.05
675.908	4558.78
676.099	4487.1
676.289	4605.88
676.48	4521.91
676.671	4534.2
676.861	4353.98
677.052	4550.59
677.243	4591.55
677.433	4358.08
677.624	4519.87
677.814	4351.93
678.005	4493.24
678.195	4501.44
678.386	4509.63
678.576	4358.08
678.767	4452.28
678.957	4321.21
679.148	4394.94
679.338	4300.73
679.529	4448.19
679.719	4405.18
679.909	4364.22
680.1	4380.61
680.29	4325.31
680.481	4304.83
680.671	4216.77
680.861	4128.7
681.052	4284.35
681.242	4249.54
681.432	4349.89
681.622	4163.52
681.813	4272.06
682.003	4083.65
682.193	4079.55
682.383	4050.88
682.573	4147.14
682.764	4120.51
682.954	4046.79
683.144	4155.33
683.334	4054.98
683.524	4198.34
683.714	4206.53
683.904	4083.65
684.094	4188.1
684.284	4034.5
684.474	4059.07
684.664	4059.07
684.854	3971.01
685.044	4079.55
685.234	3930.05
685.424	4116.42
685.614	3882.95
685.804	3887.04
685.994	3934.15
686.184	3905.48
686.374	3747.78
686.564	3921.86
686.753	3850.18
686.943	3831.75
687.133	3882.95
687.323	3784.65
687.513	3870.66
687.702	3801.03
687.892	3790.79
688.082	3760.07
688.272	3796.93
688.461	3649.48
688.651	3715.02
688.841	3669.96
689.03	3583.95
689.22	3706.82
689.41	3567.56
689.599	3569.61
689.789	3465.16
689.979	3606.47
690.168	3571.66
690.358	3407.82
690.547	3563.47
690.737	3534.79
690.926	3438.54
691.116	3610.57
691.305	3598.28
691.495	3502.03
691.684	3387.34
691.874	3440.59
692.063	3387.34
692.252	3360.72
692.442	3405.77
692.631	3395.53
692.82	3313.61
693.01	3387.34
693.199	3379.15
693.388	3239.89
693.578	3362.76
693.767	3323.85
693.956	3350.48
694.146	3180.5
694.335	3233.74
694.524	3192.78
694.713	3299.28
694.902	3276.75
695.092	3209.17
695.281	3092.43
695.47	3127.25
695.659	3268.56
695.848	3153.87
696.037	3022.8
696.226	3186.64
696.415	3133.39
696.604	3227.6
696.793	3119.06
696.982	3162.06
697.171	3010.51
697.36	3026.9
697.549	3010.51
697.738	3076.05
697.927	3106.77
698.116	2955.22
698.305	3119.06
698.494	3035.09
698.683	3004.37
698.872	3012.56
699.061	3002.32
699.25	2916.31
699.438	2981.84
699.627	3092.43
699.816	2838.48
700.005	2932.69
700.193	2910.16
700.382	3047.38
700.571	2953.17
700.76	3076.05
700.948	2795.48
701.137	2852.82
701.326	3002.32
701.514	2979.79
701.703	2838.48
701.892	2930.64
702.08	3026.9
702.269	2840.53
702.457	2803.67
702.646	2863.06
702.834	2846.68
703.023	2844.63
703.212	2891.73
703.4	2791.38
703.589	2840.53
703.777	2850.77
703.965	2836.44
704.154	2871.25
704.342	2897.88
704.531	2820.05
704.719	2856.92
704.907	2895.83
705.096	2756.57
705.284	2783.19
705.472	2752.47
705.661	2699.22
705.849	2879.44
706.037	2766.81
706.226	2760.66
706.414	2799.57
706.602	2725.85
706.79	2764.76
706.979	2758.61
707.167	2674.65
707.355	2820.05
707.543	2676.7
707.731	2740.18
707.919	2742.23
708.107	2592.73
708.296	2658.26
708.484	2701.27
708.672	2750.42
708.86	2674.65
709.048	2641.88
709.236	2641.88
709.424	2695.13
709.612	2699.22
709.8	2641.88
709.988	2633.69
710.176	2736.09
710.364	2654.17
710.551	2572.25
710.739	2562.01
710.927	2656.22
711.115	2537.43
711.303	2643.93
711.491	2729.94
711.679	2615.26
711.866	2754.52
712.054	2725.85
712.242	2562.01
712.43	2662.36
712.617	2789.33
712.805	2660.31
712.993	2576.34
713.181	2594.78
713.368	2600.92
713.556	2740.18
713.744	2488.28
713.931	2688.98
714.119	2627.54
714.306	2568.15
714.494	2645.98
714.682	2578.39
714.869	2613.21
715.057	2670.55
715.244	2627.54
715.432	2674.65
715.619	2627.54
715.807	2531.29
715.994	2537.43
716.182	2613.21
716.369	2594.78
716.556	2521.05
716.744	2621.4
716.931	2568.15
717.119	2707.41
717.306	2557.91
717.493	2578.39
717.681	2465.75
717.868	2514.91
718.055	2508.76
718.242	2629.59
718.43	2527.19
718.617	2580.44
718.804	2615.26
718.991	2551.77
719.179	2553.82
719.366	2527.19
719.553	2469.85
719.74	2519
719.927	2430.94
720.114	2539.48
720.301	2676.7
720.488	2490.33
720.676	2404.32
720.863	2584.54
721.05	2617.3
721.237	2527.19
721.424	2463.71
721.611	2465.75
721.798	2508.76
721.985	2508.76
722.172	2502.62
722.358	2486.23
722.545	2539.48
722.732	2523.1
722.919	2428.89
723.106	2488.28
723.293	2502.62
723.48	2588.63
723.667	2469.85
723.853	2529.24
724.04	2584.54
724.227	2490.33
724.414	2498.52
724.6	2396.12
724.787	2473.95
724.974	2539.48
725.161	2568.15
725.347	2338.78
725.534	2439.13
725.72	2486.23
725.907	2461.66
726.094	2455.51
726.28	2510.81
726.467	2428.89
726.653	2484.19
726.84	2539.48
727.027	2510.81
727.213	2447.32
727.4	2422.75
727.586	2461.66
727.773	2459.61
727.959	2488.28
728.145	2375.64
728.332	2461.66
728.518	2400.22
728.705	2435.03
728.891	2555.86
729.077	2387.93
729.264	2478.04
729.45	2527.19
729.636	2461.66
729.823	2363.36
730.009	2498.52
730.195	2455.51
730.382	2404.32
730.568	2412.51
730.754	2437.08
730.94	2428.89
731.126	2486.23
731.313	2449.37
731.499	2445.27
731.685	2486.23
731.871	2398.17
732.057	2510.81
732.243	2478.04
732.429	2496.47
732.615	2510.81
732.801	2521.05
732.987	2412.51
733.173	2527.19
733.359	2338.78
733.545	2389.98
733.731	2334.68
733.917	2473.95
734.103	2482.14
734.289	2365.4
734.475	2338.78
734.661	2428.89
734.847	2394.08
735.033	2402.27
735.219	2377.69
735.404	2480.09
735.59	2406.36
735.776	2324.44
735.962	2342.88
736.148	2303.96
736.333	2408.41
736.519	2387.93
736.705	2420.7
736.89	2334.68
737.076	2308.06
737.262	2324.44
737.447	2263.01
737.633	2355.16
737.819	2379.74
738.004	2365.4
738.19	2277.34
738.375	2267.1
738.561	2287.58
738.747	2306.01
738.932	2256.86
739.118	2371.55
739.303	2359.26
739.489	2379.74
739.674	2230.24
739.859	2289.63
740.045	2363.36
740.23	2441.18
740.416	2168.8
740.601	2297.82
740.786	2293.72
740.972	2117.6
741.157	2242.53
741.342	2099.17
741.528	2170.85
741.713	2189.28
741.898	2154.46
742.084	2252.77
742.269	2125.79
742.454	2144.22
742.639	2234.33
742.824	2138.08
743.01	2181.09
743.195	2144.22
743.38	2138.08
743.565	2187.23
743.75	2039.78
743.935	2170.85
744.12	2144.22
744.305	2119.65
744.49	2170.85
744.675	1994.72
744.86	1957.86
745.045	2105.31
745.23	2035.68
745.415	1925.09
745.6	2047.97
745.785	2039.78
745.97	2052.06
746.155	2021.35
746.34	2054.11
746.525	1953.76
746.71	2015.2
746.895	1982.43
747.079	1816.55
747.264	1855.46
747.449	1816.55
747.634	1951.71
747.819	1937.38
748.003	1972.19
748.188	1802.21
748.373	1832.93
748.557	2002.91
748.742	1736.68
748.927	1794.02
749.111	1751.01
749.296	1722.34
749.481	1757.16
749.665	1722.34
749.85	1650.66
750.034	1814.5
750.219	1781.73
750.404	1720.29
750.588	1619.94
750.773	1759.21
750.957	1720.29
751.141	1683.43
751.326	1695.72
751.51	1628.14
751.695	1613.8
751.879	1609.7
752.064	1810.4
752.248	1587.18
752.432	1648.61
752.617	1585.13
752.801	1568.74
752.985	1568.74
753.17	1601.51
753.354	1486.83
753.538	1669.09
753.722	1523.69
753.907	1535.98
754.091	1486.83
754.275	1499.11
754.459	1482.73
754.643	1464.3
754.828	1570.79
755.012	1513.45
755.196	1531.88
755.38	1443.82
755.564	1441.77
755.748	1519.59
755.932	1423.34
756.116	1374.19
756.3	1368.04
756.484	1290.22
756.668	1376.23
756.852	1302.51
757.036	1347.56
757.22	1325.04
757.404	1239.02
757.588	1366
757.772	1322.99
757.956	1310.7
758.14	1298.41
758.323	1310.7
758.507	1294.32
758.691	1191.92
758.875	1243.12
759.059	1267.69
759.242	1161.2
759.426	1224.69
759.61	1251.31
759.794	1284.08
759.977	1249.26
760.161	1155.05
760.345	1169.39
760.528	1265.64
760.712	1163.25
760.895	1210.35
761.079	1169.39
761.263	1191.92
761.446	1150.96
761.63	1107.95
761.813	1126.38
761.997	1155.05
762.18	1101.81
762.364	1091.57
762.547	1071.09
762.731	1077.23
762.914	1118.19
763.098	1093.62
763.281	1054.7
763.464	1122.29
763.648	1101.81
763.831	1128.43
764.015	1028.08
764.198	1023.98
764.381	1052.66
764.564	1038.32
764.748	1048.56
764.931	1032.18
765.114	1026.03
765.297	997.36
765.481	1032.18
765.664	1097.71
765.847	978.93
766.03	1036.27
766.213	991.22
766.397	1005.55
766.58	1005.55
766.763	999.41
766.946	1060.85
767.129	956.4
767.312	966.64
767.495	956.4
767.678	897.01
767.861	974.83
768.044	970.74
768.227	923.63
768.41	972.79
768.593	899.06
768.776	925.68
768.959	954.35
769.142	892.91
769.324	915.44
769.507	894.96
769.69	864.24
769.873	978.93
770.056	970.74
770.239	925.68
770.421	929.78
770.604	813.04
770.787	880.63
770.97	890.87
771.152	806.9
771.335	1007.6
771.518	800.76
771.7	940.02
771.883	923.63
772.066	813.04
772.248	880.63
772.431	909.3
772.613	835.57
772.796	835.57
772.978	858.1
773.161	788.47
773.343	802.8
773.526	874.48
773.708	767.99
773.891	851.95
774.073	741.36
774.256	780.28
774.438	817.14
774.621	774.13
774.803	792.56
774.985	729.08
775.168	638.97
775.35	641.01
775.532	753.65
775.715	643.06
775.897	686.07
776.079	737.27
776.261	798.71
776.444	708.6
776.626	757.75
776.808	665.59
776.99	657.4
777.173	782.32
777.355	761.84
777.537	718.84
777.719	729.08
777.901	647.16
778.083	626.68
778.265	667.64
778.447	686.07
778.629	626.68
778.811	577.53
778.993	573.43
779.175	620.53
779.357	684.02
779.539	598.01
779.721	731.12
779.903	565.24
780.085	661.49
780.267	610.29
780.449	579.58
780.631	571.38
780.812	524.28
780.994	548.86
781.176	579.58
781.358	522.23
781.54	540.66
781.721	634.87
781.903	612.34
782.085	552.95
782.267	569.34
782.448	511.99
782.63	593.91
782.812	575.48
782.993	530.42
783.175	514.04
783.357	557.05
783.538	538.62
783.72	489.46
783.901	585.72
784.083	425.98
784.264	552.95
784.446	409.59
784.627	505.85
784.809	462.84
784.99	409.59
785.172	423.93
785.353	466.94
785.535	471.03
785.716	460.79
785.897	434.17
786.079	495.61
786.26	454.65
786.441	518.14
786.623	380.92
786.804	407.55
786.985	448.51
787.167	438.27
787.348	372.73
787.529	421.88
787.71	495.61
787.891	421.88
788.073	382.97
788.254	358.39
788.435	471.03
788.616	405.5
788.797	389.11
788.978	354.3
789.159	399.35
789.34	411.64
789.522	466.94
789.703	364.54
789.884	366.59
790.065	370.68
790.246	370.68
790.427	288.76
790.607	360.44
790.788	339.96
790.969	350.2
791.15	307.2
791.331	299
791.512	301.05
791.693	303.1
791.874	294.91
792.054	409.59
792.235	358.39
792.416	368.63
792.597	249.85
792.778	397.31
792.958	372.73
793.139	339.96
793.32	307.2
793.5	397.31
793.681	299
793.862	284.67
794.042	299
794.223	299
794.404	307.2
794.584	270.33
794.765	290.81
794.945	319.48
795.126	331.77
795.306	352.25
795.487	243.71
795.667	325.63
795.848	258.04
796.028	299
796.209	245.76
796.389	307.2
796.57	180.22
796.75	262.14
796.93	286.72
797.111	215.04
797.291	288.76
797.471	270.33
797.652	284.67
797.832	241.66
798.012	270.33
798.192	208.89
798.373	307.2
798.553	235.52
798.733	241.66
798.913	256
799.093	219.13
799.274	282.62
799.454	233.47
799.634	241.66
799.814	325.63
799.994	278.52
800.174	292.86
800.354	233.47
800.534	208.89
800.714	210.94
800.894	208.89
801.074	178.17
801.254	198.65
801.434	241.66
801.614	219.13
801.794	161.79
801.974	710.65
802.154	159.74
802.334	200.7
802.514	192.51
802.693	219.13
802.873	200.7
803.053	266.24
803.233	184.32
803.413	258.04
803.592	251.9
803.772	155.65
803.952	208.89
804.131	161.79
804.311	235.52
804.491	229.37
804.67	77.82
804.85	188.41
805.03	266.24
805.209	217.08
805.389	180.22
805.568	202.75
805.748	243.71
805.928	204.8
806.107	196.6
806.287	194.56
806.466	145.41
806.646	276.48
806.825	129.02
807.004	194.56
807.184	188.41
807.363	176.13
807.543	120.83
807.722	186.37
807.901	225.28
808.081	202.75
808.26	94.21
808.439	186.37
808.619	227.32
808.798	137.21
808.977	161.79
809.156	225.28
809.336	155.65
809.515	180.22
809.694	208.89
809.873	73.73
810.052	176.13
810.231	139.26
810.411	196.6
810.59	194.56
810.769	200.7
810.948	135.17
811.127	135.17
811.306	169.98
811.485	137.21
811.664	258.04
811.843	212.99
812.022	139.26
812.201	151.55
812.38	212.99
812.559	169.98
812.737	135.17
812.916	98.3
813.095	126.97
813.274	190.46
813.453	135.17
813.632	172.03
813.811	176.13
813.989	79.87
814.168	124.93
814.347	169.98
814.526	186.37
814.704	147.45
814.883	217.08
815.062	137.21
815.24	178.17
815.419	151.55
815.598	104.45
815.776	-0
815.955	135.17
816.133	174.08
816.312	155.65
816.49	116.73
816.669	143.36
816.847	69.63
817.026	192.51
817.204	100.35
817.383	145.41
817.561	133.12
817.74	227.32
817.918	69.63
818.097	45.06
818.275	133.12
818.453	98.3
818.632	155.65
818.81	88.06
818.988	143.36
819.167	110.59
819.345	194.56
819.523	106.49
819.701	118.78
819.879	235.52
820.058	131.07
820.236	94.21
820.414	159.74
820.592	114.69
820.77	126.97
820.948	86.01
821.127	53.25
821.305	106.49
821.483	57.34
821.661	129.02
821.839	69.63
822.017	-4.1
822.195	69.63
822.373	36.86
822.551	135.17
822.729	180.22
822.907	59.39
823.085	81.92
823.262	86.01
823.44	102.4
823.618	69.63
823.796	135.17
823.974	118.78
824.152	110.59
824.329	28.67
824.507	151.55
824.685	120.83
824.863	86.01
825.04	63.49
825.218	-43.01
825.396	61.44
825.574	61.44
825.751	94.21
825.929	135.17
826.107	86.01
826.284	38.91
826.462	106.49
826.639	67.58
826.817	102.4
826.994	73.73
827.172	122.88
827.349	81.92
827.527	104.45
827.704	159.74
827.882	69.63
828.059	86.01
828.237	30.72
828.414	61.44
828.591	20.48
828.769	159.74
828.946	53.25
829.124	104.45
829.301	98.3
829.478	45.06
829.655	65.53
829.833	53.25
830.01	28.67
830.187	63.49
830.364	51.2
830.542	102.4
830.719	131.07
830.896	79.87
831.073	26.62
831.25	104.45
831.427	133.12
831.604	135.17
831.782	77.82
831.959	120.83
832.136	110.59
832.313	86.01
832.49	57.34
832.667	8.19
832.844	6.14
833.021	102.4
833.198	75.77
833.374	98.3
833.551	36.86
833.728	32.77
833.905	26.62
834.082	98.3
834.259	102.4
834.436	112.64
834.612	34.82
834.789	94.21
834.966	120.83
835.143	88.06
835.319	16.38
835.496	122.88
835.673	137.21
835.85	45.06
836.026	53.25
836.203	69.63
836.38	20.48
836.556	55.3
836.733	36.86
836.909	71.68
837.086	-4.1
837.262	-26.62
837.439	30.72
837.616	65.53
837.792	57.34
837.968	49.15
838.145	45.06
838.321	40.96
838.498	12.29
838.674	169.98
838.851	88.06
839.027	-12.29
839.203	65.53
839.38	69.63
839.556	-2.05
839.732	63.49
839.909	53.25
840.085	73.73
840.261	36.86
840.437	86.01
840.614	61.44
840.79	59.39
840.966	135.17
841.142	69.63
841.318	57.34
841.494	79.87
841.671	69.63
841.847	61.44
842.023	88.06
842.199	102.4
842.375	137.21
842.551	40.96
842.727	40.96
842.903	20.48
843.079	49.15
843.255	102.4
843.431	24.58
843.607	18.43
843.783	-69.63
843.959	92.16
844.134	20.48
844.31	135.17
844.486	-20.48
844.662	43.01
844.838	-36.86
845.013	67.58
845.189	110.59
845.365	63.49
845.541	69.63
845.716	63.49
845.892	61.44
846.068	135.17
846.244	43.01
846.419	90.11
846.595	-4.1
846.77	-0
846.946	16.38
847.122	-40.96
847.297	30.72
847.473	139.26
847.648	-6.14
847.824	83.97
847.999	-24.58
848.175	57.34
848.35	-8.19
848.526	36.86
848.701	12.29
848.876	114.69
849.052	8.19
849.227	110.59
849.403	-0
849.578	30.72
849.753	77.82
849.929	65.53
850.104	12.29
850.279	86.01
850.454	69.63
850.63	16.38
850.805	71.68
850.98	71.68
851.155	65.53
851.33	47.1
851.505	16.38
851.681	88.06
851.856	4.1
852.031	-38.91
852.206	81.92
852.381	-32.77
852.556	-38.91
852.731	69.63
852.906	-12.29
853.081	32.77
853.256	63.49
853.431	104.45
853.606	43.01
853.781	-10.24
853.956	-26.62
854.131	6.14
854.305	14.34
854.48	-30.72
854.655	28.67
854.83	16.38
855.005	-38.91
855.18	-28.67
855.354	22.53
855.529	-47.1
855.704	73.73
855.879	-26.62
856.053	-34.82
856.228	77.82
856.403	32.77
856.577	45.06
856.752	40.96
856.926	73.73
857.101	-45.06
857.276	-43.01
857.45	88.06
857.625	20.48
857.799	28.67
857.974	53.25
858.148	-0
858.323	22.53
858.497	49.15
858.672	8.19
858.846	-4.1
859.02	100.35
859.195	-59.39
859.369	4.1
859.543	-0
859.718	40.96
859.892	8.19
860.066	81.92
860.241	47.1
860.415	-0
860.589	-14.34
860.763	30.72
860.938	30.72
861.112	63.49
861.286	-10.24
861.46	-10.24
861.634	16.38
861.808	104.45
861.982	-18.43
862.157	38.91
862.331	-14.34
862.505	22.53
862.679	-20.48
862.853	12.29
863.027	-12.29
863.201	16.38
863.375	63.49
863.549	12.29
863.722	40.96
863.896	102.4
864.07	-4.1
864.244	-4.1
864.418	16.38
864.592	24.58
864.766	-26.62
864.939	63.49
865.113	-4.1
865.287	55.3
865.461	32.77
865.634	49.15
865.808	-8.19
865.982	47.1
866.156	-47.1
866.329	-36.86
866.503	38.91
866.676	-2.05
866.85	26.62
867.024	-28.67
867.197	14.34
867.371	59.39
867.544	12.29
867.718	22.53
867.891	-34.82
868.065	-0
868.238	-8.19
868.412	77.82
868.585	-57.34
868.759	40.96
868.932	-49.15
869.105	6.14
869.279	34.82
869.452	20.48
869.625	53.25
869.799	20.48
869.972	-20.48
870.145	-90.11
870.319	90.11
870.492	10.24
870.665	-2.05
870.838	-32.77
871.011	-36.86
871.185	-12.29
871.358	20.48
871.531	18.43
871.704	-20.48
871.877	12.29
872.05	40.96
872.223	-20.48
872.396	112.64
872.569	8.19
872.742	-4.1
872.915	32.77
873.088	2.05
873.261	16.38
873.434	4.1
873.607	-8.19
873.78	86.01
873.953	12.29
874.126	4.1
874.299	47.1
874.471	-34.82
874.644	10.24
874.817	-10.24
874.99	77.82
875.163	-8.19
875.335	-16.38
875.508	-12.29
875.681	-20.48
875.853	-0
876.026	40.96
876.199	6.14
876.371	-28.67
876.544	12.29
876.717	-45.06
876.889	55.3
877.062	28.67
877.234	-8.19
877.407	81.92
877.579	-22.53
877.752	-0
877.924	-26.62
878.097	12.29
878.269	26.62
878.442	69.63
878.614	36.86
878.786	65.53
878.959	8.19
879.131	77.82
879.303	-36.86
879.476	-10.24
879.648	-20.48
879.82	-34.82
879.993	8.19
880.165	14.34
880.337	-40.96
880.509	32.77
880.681	51.2
880.854	-65.54
881.026	-2.05
881.198	20.48
881.37	38.91
881.542	36.86
881.714	-36.86
881.886	-40.96
882.058	32.77
882.23	28.67
882.402	6.14
882.574	-40.96
882.746	30.72
882.918	36.86
883.09	30.72
883.262	-65.54
883.434	55.3
883.606	-20.48
883.778	-10.24
883.95	36.86
884.122	-8.19
884.293	36.86
884.465	4.1
884.637	-2.05
884.809	-12.29
884.98	12.29
885.152	-12.29
885.324	40.96
885.496	-51.2
885.667	32.77
885.839	59.39
886.011	28.67
886.182	16.38
886.354	94.21
886.525	-73.73
886.697	34.82
886.869	-26.62
887.04	36.86
887.212	-14.34
887.383	-14.34
887.555	-38.91
887.726	-53.25
887.897	-45.06
888.069	61.44
888.24	38.91
888.412	34.82
888.583	-0
888.754	92.16
888.926	-22.53
889.097	47.1
889.268	-49.15
889.44	-43.01
889.611	-43.01
889.782	-8.19
889.953	-102.4
890.125	12.29
890.296	16.38
890.467	-12.29
890.638	14.34
890.809	38.91
890.98	28.67
891.151	-4.1
891.323	-34.82
891.494	14.34
891.665	-28.67
891.836	-73.73
892.007	-12.29
892.178	-8.19
892.349	-51.2
892.52	20.48
892.691	53.25
892.862	-45.06
893.032	-49.15
893.203	73.73
893.374	6.14
893.545	18.43
893.716	-24.58
893.887	69.63
894.057	4.1
894.228	12.29
894.399	-16.38
894.57	12.29
894.74	16.38
894.911	61.44
895.082	24.58
895.253	-69.63
895.423	-36.86
895.594	16.38
895.764	4.1
895.935	4.1
896.106	12.29
896.276	-28.67
896.447	34.82
896.617	-30.72
896.788	28.67
896.958	16.38
897.129	6.14
897.299	40.96
897.47	61.44
897.64	28.67
897.81	-4.1
897.981	28.67
898.151	-69.63
898.322	83.97
898.492	10.24
898.662	-8.19
898.832	-83.97
899.003	-36.86
899.173	-18.43
899.343	-26.62
899.513	-2.05
