Data from USB4F104151__147__14-19-23-710.txt Node

Date: Thu Mar 13 14:19:23 EDT 2025
User: louis
Spectrometer: USB4F10415
Trigger mode: 4
Integration Time (sec): 2.000000E-2
Scans to average: 1
Electric dark correction enabled: true
Nonlinearity correction enabled: false
Boxcar width: 0
XAxis mode: Wavelengths
Number of Pixels in Spectrum: 3648
>>>>>Begin Spectral Data<<<<<
178.204	-97.28
178.424	-97.28
178.644	-97.28
178.864	-150.53
179.084	-64.51
179.304	-7.17
179.524	50.18
179.744	-35.84
179.964	17.41
180.184	23.55
180.404	-3.07
180.624	-35.84
180.844	-15.36
181.064	3.07
181.283	13.31
181.503	17.41
181.723	-27.65
181.943	3.07
182.163	76.8
182.383	9.22
182.602	37.89
182.822	44.03
183.042	91.13
183.262	13.31
183.482	13.31
183.701	46.08
183.921	37.89
184.141	-19.46
184.361	87.04
184.58	23.55
184.8	80.89
185.02	3.07
185.239	29.7
185.459	-62.46
185.679	52.22
185.898	74.75
186.118	58.37
186.338	33.79
186.557	68.61
186.777	-7.17
186.997	78.85
187.216	37.89
187.436	46.08
187.655	27.65
187.875	105.47
188.095	29.7
188.314	101.37
188.534	95.23
188.753	9.22
188.973	29.7
189.192	99.33
189.412	70.65
189.631	19.46
189.851	44.03
190.07	66.56
190.29	33.79
190.509	72.7
190.729	66.56
190.948	121.85
191.168	164.86
191.387	13.31
191.607	80.89
191.826	50.18
192.045	58.37
192.265	87.04
192.484	128
192.704	119.81
192.923	11.26
193.142	175.1
193.362	58.37
193.581	103.42
193.8	52.22
194.02	97.28
194.239	39.94
194.458	54.27
194.678	80.89
194.897	23.55
195.116	25.6
195.335	50.18
195.555	99.33
195.774	33.79
195.993	29.7
196.212	91.13
196.432	9.22
196.651	13.31
196.87	33.79
197.089	72.7
197.308	58.37
197.528	1.02
197.747	-11.26
197.966	15.36
198.185	80.89
198.404	54.27
198.623	21.5
198.842	115.71
199.062	64.51
199.281	54.27
199.5	-13.31
199.719	41.98
199.938	111.61
200.157	37.89
200.376	113.66
200.595	115.71
200.814	76.8
201.033	17.41
201.252	101.37
201.471	41.98
201.69	117.76
201.909	84.99
202.128	52.22
202.347	5.12
202.566	74.75
202.785	3.07
203.004	27.65
203.223	76.8
203.442	76.8
203.661	41.98
203.879	50.18
204.098	50.18
204.317	68.61
204.536	68.61
204.755	46.08
204.974	19.46
205.193	33.79
205.411	107.52
205.63	62.46
205.849	41.98
206.068	23.55
206.287	76.8
206.505	52.22
206.724	29.7
206.943	33.79
207.162	54.27
207.381	46.08
207.599	21.5
207.818	-13.31
208.037	50.18
208.255	60.42
208.474	1.02
208.693	13.31
208.911	50.18
209.13	99.33
209.349	64.51
209.567	-23.55
209.786	44.03
210.005	15.36
210.223	58.37
210.442	-44.03
210.661	-19.46
210.879	68.61
211.098	54.27
211.316	35.84
211.535	103.42
211.753	29.7
211.972	35.84
212.191	11.26
212.409	76.8
212.628	41.98
212.846	17.41
213.065	50.18
213.283	123.9
213.502	46.08
213.72	80.89
213.938	29.7
214.157	-19.46
214.375	99.33
214.594	41.98
214.812	74.75
215.031	-15.36
215.249	13.31
215.467	31.74
215.686	60.42
215.904	62.46
216.122	11.26
216.341	41.98
216.559	123.9
216.778	74.75
216.996	29.7
217.214	82.94
217.432	-3.07
217.651	41.98
217.869	29.7
218.087	39.94
218.306	-21.5
218.524	33.79
218.742	95.23
218.96	48.13
219.179	68.61
219.397	109.57
219.615	123.9
219.833	70.65
220.051	52.22
220.27	111.61
220.488	48.13
220.706	62.46
220.924	7.17
221.142	123.9
221.36	74.75
221.578	76.8
221.796	109.57
222.015	7.17
222.233	128
222.451	95.23
222.669	3.07
222.887	50.18
223.105	25.6
223.323	74.75
223.541	87.04
223.759	50.18
223.977	62.46
224.195	101.37
224.413	1.02
224.631	50.18
224.849	41.98
225.067	68.61
225.285	82.94
225.503	37.89
225.721	41.98
225.939	74.75
226.157	64.51
226.375	125.95
226.592	-23.55
226.81	91.13
227.028	103.42
227.246	80.89
227.464	5.12
227.682	52.22
227.9	-1.02
228.117	91.13
228.335	9.22
228.553	91.13
228.771	66.56
228.989	25.6
229.206	21.5
229.424	29.7
229.642	37.89
229.86	68.61
230.077	5.12
230.295	50.18
230.513	66.56
230.731	27.65
230.948	66.56
231.166	115.71
231.384	60.42
231.601	58.37
231.819	82.94
232.037	13.31
232.254	70.65
232.472	-7.17
232.689	1.02
232.907	-23.55
233.125	113.66
233.342	-3.07
233.56	21.5
233.777	-25.6
233.995	68.61
234.213	72.7
234.43	50.18
234.648	84.99
234.865	-3.07
235.083	33.79
235.3	46.08
235.518	21.5
235.735	111.61
235.953	93.18
236.17	39.94
236.388	19.46
236.605	68.61
236.822	27.65
237.04	25.6
237.257	93.18
237.475	58.37
237.692	95.23
237.909	76.8
238.127	17.41
238.344	54.27
238.562	37.89
238.779	82.94
238.996	19.46
239.214	41.98
239.431	48.13
239.648	-7.17
239.865	99.33
240.083	7.17
240.3	50.18
240.517	50.18
240.735	29.7
240.952	50.18
241.169	68.61
241.386	17.41
241.603	74.75
241.821	21.5
242.038	50.18
242.255	33.79
242.472	87.04
242.689	31.74
242.907	17.41
243.124	93.18
243.341	66.56
243.558	19.46
243.775	60.42
243.992	-41.98
244.209	103.42
244.426	48.13
244.643	11.26
244.86	41.98
245.078	11.26
245.295	66.56
245.512	-39.94
245.729	21.5
245.946	107.52
246.163	33.79
246.38	-7.17
246.597	31.74
246.814	109.57
247.031	13.31
247.248	52.22
247.464	95.23
247.681	66.56
247.898	105.47
248.115	80.89
248.332	84.99
248.549	46.08
248.766	13.31
248.983	91.13
249.2	91.13
249.417	39.94
249.633	37.89
249.85	111.61
250.067	78.85
250.284	152.57
250.501	52.22
250.717	101.37
250.934	66.56
251.151	41.98
251.368	21.5
251.585	91.13
251.801	58.37
252.018	48.13
252.235	76.8
252.451	23.55
252.668	76.8
252.885	50.18
253.102	9.22
253.318	23.55
253.535	37.89
253.752	35.84
253.968	60.42
254.185	52.22
254.401	11.26
254.618	115.71
254.835	19.46
255.051	84.99
255.268	97.28
255.484	62.46
255.701	54.27
255.917	46.08
256.134	-7.17
256.351	27.65
256.567	9.22
256.784	-13.31
257	19.46
257.217	74.75
257.433	37.89
257.65	76.8
257.866	111.61
258.082	84.99
258.299	-64.51
258.515	33.79
258.732	58.37
258.948	5.12
259.165	74.75
259.381	68.61
259.597	82.94
259.814	11.26
260.03	21.5
260.246	115.71
260.463	74.75
260.679	82.94
260.895	115.71
261.112	1.02
261.328	52.22
261.544	-3.07
261.761	84.99
261.977	41.98
262.193	41.98
262.409	41.98
262.626	29.7
262.842	68.61
263.058	107.52
263.274	23.55
263.49	70.65
263.707	82.94
263.923	52.22
264.139	13.31
264.355	1.02
264.571	109.57
264.787	119.81
265.004	74.75
265.22	-5.12
265.436	37.89
265.652	-21.5
265.868	50.18
266.084	66.56
266.3	111.61
266.516	-3.07
266.732	68.61
266.948	111.61
267.164	62.46
267.38	-31.74
267.596	87.04
267.812	93.18
268.028	117.76
268.244	48.13
268.46	62.46
268.676	27.65
268.892	93.18
269.108	82.94
269.324	19.46
269.54	-9.22
269.756	50.18
269.972	17.41
270.188	76.8
270.403	66.56
270.619	76.8
270.835	99.33
271.051	70.65
271.267	41.98
271.483	27.65
271.698	27.65
271.914	52.22
272.13	82.94
272.346	99.33
272.562	74.75
272.777	58.37
272.993	46.08
273.209	-7.17
273.425	70.65
273.64	-70.65
273.856	107.52
274.072	76.8
274.287	-7.17
274.503	41.98
274.719	105.47
274.934	64.51
275.15	-1.02
275.366	87.04
275.581	80.89
275.797	48.13
276.012	78.85
276.228	142.33
276.444	54.27
276.659	70.65
276.875	58.37
277.09	39.94
277.306	62.46
277.521	-1.02
277.737	-23.55
277.952	66.56
278.168	128
278.383	97.28
278.599	33.79
278.814	78.85
279.03	48.13
279.245	33.79
279.461	-15.36
279.676	91.13
279.892	31.74
280.107	19.46
280.322	25.6
280.538	27.65
280.753	52.22
280.969	62.46
281.184	78.85
281.399	107.52
281.615	27.65
281.83	68.61
282.045	50.18
282.26	64.51
282.476	58.37
282.691	39.94
282.906	93.18
283.122	52.22
283.337	-52.22
283.552	33.79
283.767	74.75
283.983	148.48
284.198	80.89
284.413	99.33
284.628	33.79
284.843	52.22
285.058	33.79
285.274	82.94
285.489	99.33
285.704	66.56
285.919	95.23
286.134	44.03
286.349	-5.12
286.564	33.79
286.779	41.98
286.995	3.07
287.21	58.37
287.425	21.5
287.64	66.56
287.855	107.52
288.07	-11.26
288.285	66.56
288.5	-17.41
288.715	25.6
288.93	11.26
289.145	13.31
289.36	1.02
289.575	-23.55
289.79	15.36
290.004	37.89
290.219	50.18
290.434	60.42
290.649	48.13
290.864	17.41
291.079	37.89
291.294	74.75
291.509	74.75
291.724	66.56
291.938	23.55
292.153	123.9
292.368	89.09
292.583	35.84
292.798	56.32
293.012	66.56
293.227	121.85
293.442	132.09
293.657	107.52
293.871	29.7
294.086	158.72
294.301	56.32
294.516	82.94
294.73	37.89
294.945	29.7
295.16	41.98
295.374	93.18
295.589	117.76
295.804	27.65
296.018	37.89
296.233	152.57
296.447	89.09
296.662	35.84
296.877	58.37
297.091	56.32
297.306	58.37
297.52	74.75
297.735	62.46
297.949	82.94
298.164	99.33
298.378	48.13
298.593	142.33
298.807	99.33
299.022	66.56
299.236	95.23
299.451	80.89
299.665	-3.07
299.88	95.23
300.094	70.65
300.309	-15.36
300.523	68.61
300.737	91.13
300.952	58.37
301.166	68.61
301.381	27.65
301.595	70.65
301.809	109.57
302.024	37.89
302.238	-21.5
302.452	82.94
302.667	52.22
302.881	54.27
303.095	68.61
303.309	50.18
303.524	29.7
303.738	23.55
303.952	54.27
304.166	91.13
304.381	-15.36
304.595	115.71
304.809	17.41
305.023	109.57
305.237	13.31
305.452	41.98
305.666	3.07
305.88	50.18
306.094	13.31
306.308	41.98
306.522	76.8
306.736	91.13
306.95	48.13
307.164	9.22
307.379	46.08
307.593	142.33
307.807	103.42
308.021	62.46
308.235	84.99
308.449	-31.74
308.663	95.23
308.877	125.95
309.091	70.65
309.305	37.89
309.519	-39.94
309.733	109.57
309.947	25.6
310.161	107.52
310.374	125.95
310.588	27.65
310.802	21.5
311.016	103.42
311.23	27.65
311.444	-9.22
311.658	48.13
311.872	52.22
312.085	66.56
312.299	103.42
312.513	60.42
312.727	115.71
312.941	91.13
313.154	56.32
313.368	74.75
313.582	52.22
313.796	21.5
314.009	84.99
314.223	134.14
314.437	17.41
314.651	35.84
314.864	-7.17
315.078	13.31
315.292	68.61
315.505	17.41
315.719	27.65
315.933	74.75
316.146	13.31
316.36	39.94
316.573	101.37
316.787	39.94
317.001	33.79
317.214	80.89
317.428	95.23
317.641	52.22
317.855	27.65
318.068	-5.12
318.282	91.13
318.495	44.03
318.709	29.7
318.922	111.61
319.136	128
319.349	84.99
319.563	19.46
319.776	70.65
319.99	25.6
320.203	66.56
320.417	17.41
320.63	82.94
320.843	123.9
321.057	5.12
321.27	91.13
321.483	95.23
321.697	91.13
321.91	25.6
322.124	41.98
322.337	56.32
322.55	31.74
322.763	74.75
322.977	68.61
323.19	56.32
323.403	58.37
323.617	66.56
323.83	68.61
324.043	68.61
324.256	11.26
324.469	25.6
324.683	101.37
324.896	76.8
325.109	76.8
325.322	17.41
325.535	54.27
325.748	76.8
325.962	11.26
326.175	56.32
326.388	48.13
326.601	76.8
326.814	9.22
327.027	9.22
327.24	109.57
327.453	5.12
327.666	76.8
327.879	52.22
328.092	58.37
328.305	54.27
328.518	9.22
328.731	-15.36
328.944	56.32
329.157	-13.31
329.37	-15.36
329.583	50.18
329.796	107.52
330.009	9.22
330.222	76.8
330.435	37.89
330.648	54.27
330.861	-9.22
331.073	87.04
331.286	74.75
331.499	25.6
331.712	-7.17
331.925	74.75
332.138	39.94
332.35	103.42
332.563	35.84
332.776	107.52
332.989	37.89
333.202	50.18
333.414	74.75
333.627	95.23
333.84	111.61
334.053	25.6
334.265	66.56
334.478	70.65
334.691	9.22
334.903	140.29
335.116	70.65
335.329	5.12
335.541	21.5
335.754	99.33
335.966	99.33
336.179	74.75
336.392	64.51
336.604	48.13
336.817	41.98
337.029	48.13
337.242	5.12
337.454	95.23
337.667	62.46
337.88	107.52
338.092	84.99
338.305	66.56
338.517	-1.02
338.729	74.75
338.942	37.89
339.154	50.18
339.367	33.79
339.579	3.07
339.792	97.28
340.004	117.76
340.217	17.41
340.429	52.22
340.641	132.09
340.854	91.13
341.066	31.74
341.278	37.89
341.491	-7.17
341.703	50.18
341.915	52.22
342.128	164.86
342.34	23.55
342.552	41.98
342.764	119.81
342.977	-11.26
343.189	35.84
343.401	115.71
343.613	35.84
343.826	9.22
344.038	9.22
344.25	142.33
344.462	50.18
344.674	74.75
344.886	3.07
345.099	29.7
345.311	56.32
345.523	68.61
345.735	25.6
345.947	87.04
346.159	35.84
346.371	52.22
346.583	27.65
346.795	44.03
347.007	60.42
347.219	19.46
347.431	25.6
347.643	41.98
347.855	1.02
348.067	33.79
348.279	78.85
348.491	60.42
348.703	46.08
348.915	103.42
349.127	58.37
349.339	99.33
349.551	35.84
349.763	117.76
349.975	68.61
350.187	74.75
350.399	74.75
350.61	80.89
350.822	9.22
351.034	105.47
351.246	95.23
351.458	9.22
351.669	-7.17
351.881	91.13
352.093	74.75
352.305	158.72
352.517	95.23
352.728	33.79
352.94	41.98
353.152	119.81
353.363	44.03
353.575	115.71
353.787	111.61
353.999	91.13
354.21	35.84
354.422	48.13
354.633	123.9
354.845	72.7
355.057	33.79
355.268	111.61
355.48	78.85
355.692	62.46
355.903	54.27
356.115	70.65
356.326	27.65
356.538	140.29
356.749	125.95
356.961	134.14
357.172	103.42
357.384	168.96
357.595	123.9
357.807	78.85
358.018	76.8
358.23	134.14
358.441	123.9
358.653	17.41
358.864	99.33
359.075	74.75
359.287	56.32
359.498	142.33
359.709	58.37
359.921	164.86
360.132	62.46
360.344	52.22
360.555	-19.46
360.766	41.98
360.977	107.52
361.189	132.09
361.4	17.41
361.611	37.89
361.823	70.65
362.034	58.37
362.245	37.89
362.456	130.05
362.667	46.08
362.879	52.22
363.09	82.94
363.301	95.23
363.512	54.27
363.723	29.7
363.935	41.98
364.146	9.22
364.357	23.55
364.568	115.71
364.779	68.61
364.99	60.42
365.201	35.84
365.412	76.8
365.623	41.98
365.834	27.65
366.045	-19.46
366.256	107.52
366.467	132.09
366.678	37.89
366.889	64.51
367.1	9.22
367.311	115.71
367.522	46.08
367.733	72.7
367.944	93.18
368.155	50.18
368.366	146.43
368.577	84.99
368.788	74.75
368.999	-52.22
369.209	54.27
369.42	158.72
369.631	158.72
369.842	111.61
370.053	66.56
370.264	99.33
370.474	19.46
370.685	99.33
370.896	41.98
371.107	46.08
371.317	95.23
371.528	29.7
371.739	25.6
371.95	58.37
372.16	99.33
372.371	-54.27
372.582	62.46
372.792	54.27
373.003	33.79
373.214	82.94
373.424	58.37
373.635	-29.7
373.846	64.51
374.056	111.61
374.267	72.7
374.477	93.18
374.688	99.33
374.898	95.23
375.109	128
375.319	50.18
375.53	50.18
375.74	33.79
375.951	68.61
376.161	97.28
376.372	125.95
376.582	3.07
376.793	125.95
377.003	13.31
377.214	76.8
377.424	138.24
377.635	25.6
377.845	87.04
378.055	66.56
378.266	58.37
378.476	13.31
378.686	150.53
378.897	91.13
379.107	84.99
379.317	72.7
379.528	46.08
379.738	95.23
379.948	58.37
380.158	68.61
380.369	99.33
380.579	29.7
380.789	134.14
380.999	115.71
381.21	56.32
381.42	82.94
381.63	76.8
381.84	21.5
382.05	58.37
382.261	56.32
382.471	93.18
382.681	113.66
382.891	62.46
383.101	115.71
383.311	87.04
383.521	109.57
383.731	84.99
383.941	44.03
384.151	80.89
384.361	82.94
384.571	134.14
384.781	113.66
384.991	132.09
385.201	140.29
385.411	125.95
385.621	70.65
385.831	132.09
386.041	76.8
386.251	21.5
386.461	52.22
386.671	93.18
386.881	107.52
387.091	21.5
387.301	152.57
387.511	11.26
387.72	76.8
387.93	101.37
388.14	25.6
388.35	54.27
388.56	93.18
388.769	99.33
388.979	80.89
389.189	52.22
389.399	66.56
389.609	66.56
389.818	107.52
390.028	70.65
390.238	144.38
390.447	25.6
390.657	95.23
390.867	15.36
391.076	99.33
391.286	76.8
391.496	105.47
391.705	25.6
391.915	35.84
392.125	72.7
392.334	132.09
392.544	103.42
392.753	142.33
392.963	56.32
393.172	95.23
393.382	27.65
393.591	164.86
393.801	60.42
394.01	93.18
394.22	62.46
394.429	95.23
394.639	58.37
394.848	142.33
395.058	80.89
395.267	123.9
395.477	148.48
395.686	76.8
395.895	134.14
396.105	168.96
396.314	119.81
396.524	78.85
396.733	89.09
396.942	140.29
397.152	115.71
397.361	168.96
397.57	115.71
397.78	91.13
397.989	121.85
398.198	136.19
398.407	140.29
398.617	66.56
398.826	66.56
399.035	181.25
399.244	148.48
399.453	162.81
399.663	101.37
399.872	123.9
400.081	173.05
400.29	177.15
400.499	103.42
400.708	211.96
400.917	146.43
401.127	99.33
401.336	82.94
401.545	130.05
401.754	211.96
401.963	109.57
402.172	154.62
402.381	136.19
402.59	148.48
402.799	70.65
403.008	197.63
403.217	117.76
403.426	123.9
403.635	144.38
403.844	183.29
404.053	191.49
404.262	119.81
404.471	115.71
404.68	197.63
404.888	171.01
405.097	171.01
405.306	164.86
405.515	228.35
405.724	214.01
405.933	224.25
406.142	175.1
406.35	164.86
406.559	222.2
406.768	271.36
406.977	240.64
407.185	224.25
407.394	224.25
407.603	142.33
407.812	222.2
408.02	257.02
408.229	377.85
408.438	257.02
408.646	232.44
408.855	250.88
409.064	263.16
409.272	261.12
409.481	394.23
409.69	263.16
409.898	295.93
410.107	404.47
410.315	365.56
410.524	371.71
410.733	386.04
410.941	412.67
411.15	453.63
411.358	361.47
411.567	451.58
411.775	377.85
411.984	478.2
412.192	486.39
412.401	545.78
412.609	492.54
412.818	553.98
413.026	617.46
413.234	476.15
413.443	584.7
413.651	570.36
413.86	582.65
414.068	689.14
414.276	648.18
414.485	648.18
414.693	623.61
414.901	713.72
415.11	814.07
415.318	699.38
415.526	631.8
415.734	844.79
415.943	830.45
416.151	879.6
416.359	982
416.567	863.22
416.776	1004.53
416.984	953.33
417.192	1041.39
417.4	1059.82
417.608	988.14
417.817	1057.78
418.025	1151.98
418.233	1258.48
418.441	1102.83
418.649	1127.41
418.857	1307.63
419.065	1395.69
419.273	1375.21
419.481	1397.74
419.689	1496.04
419.897	1514.47
420.105	1625.06
420.313	1532.9
420.521	1684.45
420.729	1717.22
420.937	1752.04
421.145	1864.68
421.353	1915.87
421.561	1950.69
421.769	2016.23
421.977	2153.44
422.185	2057.18
422.393	2186.21
422.601	2352.09
422.809	2376.67
423.017	2376.67
423.224	2483.16
423.432	2503.64
423.64	2624.47
423.848	2837.46
424.056	2798.55
424.263	2855.89
424.471	2921.43
424.679	2978.77
424.887	3206.1
425.094	3257.29
425.302	3259.34
425.51	3367.88
425.718	3429.32
425.925	3394.51
426.133	3593.16
426.341	3742.66
426.548	4006.85
426.756	3982.28
426.964	4123.59
427.171	4234.18
427.379	4465.6
427.586	4484.03
427.794	4733.88
428.001	4858.81
428.209	4996.02
428.417	4899.77
428.624	5329.84
428.832	5260.21
429.039	5378.99
429.247	5161.91
429.454	5845.93
429.662	6124.45
429.869	5630.89
430.076	6069.16
430.284	5931.94
430.491	6069.16
430.699	6419.36
430.906	6443.93
431.114	6628.25
431.321	6792.09
431.528	7019.41
431.736	7617.42
431.943	7791.5
432.15	7562.12
432.358	7709.58
432.565	8203.14
432.772	8153.99
432.979	8407.94
433.187	8733.56
433.394	8704.89
433.601	9261.94
433.808	9282.42
434.016	9169.78
434.223	9399.15
434.43	10007.4
434.637	9786.22
434.844	10750.81
435.052	10959.7
435.259	10552.16
435.466	10900.31
435.673	10759
435.88	11447.12
436.087	12161.86
436.294	12143.43
436.501	11666.25
436.708	11846.48
436.915	12401.47
437.122	12888.89
437.329	12571.46
437.537	13157.18
437.743	13390.64
437.95	13392.69
438.157	14213.93
438.364	14379.81
438.571	14299.94
438.778	14416.68
438.985	15885.07
439.192	15270.68
439.399	15797.01
439.606	15438.61
439.813	16048.91
440.02	17066.75
440.227	16898.81
440.433	16657.15
440.64	17257.21
440.847	16974.59
441.054	17484.53
441.261	18932.45
441.467	18467.56
441.674	18936.54
441.881	19587.8
442.088	19692.24
442.294	19352.28
442.501	19645.14
442.708	20140.75
442.914	21160.64
443.121	21709.49
443.328	21154.49
443.534	22715.05
443.741	21914.29
443.948	21893.81
444.154	23272.09
444.361	23149.21
444.568	23466.65
444.774	23380.64
444.981	23841.43
445.187	24318.6
445.394	25506.43
445.6	25033.35
445.807	27507.29
446.013	26176.11
446.22	26786.41
446.426	27669.08
446.633	27959.89
446.839	29147.72
447.046	27542.11
447.252	29366.85
447.459	29336.13
447.665	29096.52
447.871	30276.15
448.078	31855.13
448.284	30149.17
448.491	30794.28
448.697	32377.36
448.903	32621.07
449.11	32743.95
449.316	32399.89
449.522	33098.25
449.728	33657.34
449.935	33976.83
450.141	33946.11
450.347	34775.53
450.553	33925.63
450.76	34001.4
450.966	35164.65
451.172	34732.53
451.378	35512.8
451.584	34712.05
451.791	35617.25
451.997	35867.1
452.203	36317.65
452.409	36671.95
452.615	36256.21
452.821	35000.81
453.027	34509.3
453.233	36346.33
453.44	34804.2
453.646	35740.13
453.852	35400.16
454.058	36045.27
454.264	34875.88
454.47	35621.34
454.676	34908.65
454.882	35994.07
455.088	33456.64
455.294	33659.39
455.5	34181.62
455.705	34599.41
455.911	32987.66
456.117	32451.09
456.323	31828.51
456.529	30487.09
456.735	31670.81
456.941	31017.51
457.147	30175.8
457.352	29311.55
457.558	29139.52
457.764	29108.8
457.97	28287.57
458.176	27638.36
458.381	27914.84
458.587	26628.71
458.793	26659.43
458.999	24965.76
459.204	26987.11
459.41	26303.09
459.616	24554.12
459.821	24535.69
460.027	24478.35
460.233	24107.66
460.438	23052.96
460.644	23290.52
460.85	22108.85
461.055	21504.7
461.261	21799.6
461.466	20202.19
461.672	19182.3
461.878	20693.7
462.083	19444.44
462.289	19122.91
462.494	18866.91
462.7	17877.74
462.905	17408.76
463.111	17984.24
463.316	18178.79
463.522	17941.23
463.727	17738.48
463.932	17908.46
464.138	17791.73
464.343	17720.05
464.549	17238.78
464.754	18012.91
464.959	17484.53
465.165	17586.93
465.37	16737.02
465.575	16206.6
465.781	16954.11
465.986	17328.89
466.191	16648.96
466.397	16179.98
466.602	15510.29
466.807	15737.62
467.012	15938.32
467.218	15952.65
467.423	15786.77
467.628	15610.64
467.833	16247.56
468.038	15512.34
468.244	15426.32
468.449	15969.04
468.654	15373.08
468.859	15358.74
469.064	15098.65
469.269	14439.2
469.474	14877.47
469.679	14965.53
469.885	14529.31
470.09	14791.45
470.295	14703.39
470.5	14377.76
470.705	14347.05
470.91	13869.87
471.115	14107.43
471.32	14142.25
471.525	14050.09
471.73	13708.08
471.935	13726.51
472.139	13237.05
472.344	13660.98
472.549	13509.43
472.754	13241.14
472.959	12663.61
473.164	12467.01
473.369	12520.26
473.574	12874.56
473.778	12841.79
473.983	12471.11
474.188	12546.88
474.393	11801.42
474.598	12149.57
474.802	11871.05
475.007	12112.71
475.212	11948.87
475.417	11504.46
475.621	11477.84
475.826	11526.99
476.031	11256.66
476.235	11064.15
476.44	11168.6
476.645	10896.22
476.849	10980.18
477.054	10855.26
477.259	10648.41
477.463	10666.85
477.668	10492.77
477.872	10699.61
478.077	10226.53
478.282	10275.68
478.486	10064.74
478.691	10142.57
478.895	10015.59
479.1	10212.2
479.304	9837.42
479.509	9544.56
479.713	9978.73
479.918	9519.98
480.122	9397.1
480.326	9831.27
480.531	9499.5
480.735	9448.3
480.94	9325.43
481.144	9585.52
481.348	9177.97
481.553	9401.2
481.757	8981.37
481.961	9300.85
482.166	9448.3
482.37	9409.39
482.574	9007.99
482.778	9280.37
482.983	9274.23
483.187	8997.75
483.391	9118.58
483.595	9266.03
483.8	9053.05
484.004	9167.73
484.208	9405.3
484.412	9104.25
484.616	9106.29
484.821	9255.79
485.025	9030.52
485.229	8958.84
485.433	9139.06
485.637	9126.77
485.841	8930.17
486.045	8954.74
486.249	9137.01
486.453	8924.02
486.657	9128.82
486.861	9112.44
487.065	8723.32
487.269	8981.37
487.473	9188.21
487.677	8967.03
487.881	9141.11
488.085	8913.78
488.289	9053.05
488.493	9081.72
488.697	9268.08
488.901	9147.25
489.105	9122.68
489.309	9137.01
489.512	9249.65
489.716	9251.7
489.92	9081.72
490.124	9274.23
490.328	9341.81
490.531	9306.99
490.735	9292.66
490.939	9472.88
491.143	9329.52
491.346	9298.8
491.55	9640.81
491.754	9562.99
491.958	9503.6
492.161	9655.15
492.365	9397.1
492.569	9599.85
492.772	9630.57
492.976	9833.32
493.18	9890.67
493.383	9905
493.587	9816.94
493.79	10302.31
493.994	9831.27
494.197	9925.48
494.401	9876.33
494.605	10029.93
494.808	10259.3
495.012	10441.57
495.215	10441.57
495.419	10396.51
495.622	10296.16
495.825	10521.44
496.029	10527.58
496.232	10707.8
496.436	10558.3
496.639	10840.92
496.843	10797.92
497.046	11037.53
497.249	11031.38
497.453	11219.8
497.656	11379.54
497.859	11428.69
498.063	11494.22
498.266	11780.94
498.469	11629.39
498.673	11955.02
498.876	11821.9
499.079	12047.18
499.282	12284.74
499.485	12282.69
499.689	12495.68
499.892	12591.94
500.095	12641.09
500.298	12981.05
500.501	12784.44
500.705	13103.93
500.908	13427.51
501.111	13468.47
501.314	13407.03
501.517	13497.14
501.72	13916.97
501.923	13839.15
502.126	14158.63
502.329	14633.76
502.532	14508.83
502.735	14406.44
502.938	14902.04
503.141	14775.07
503.344	15024.92
503.547	15209.24
503.75	15289.11
503.953	15563.54
504.156	15672.08
504.359	15788.82
504.562	15946.51
504.765	16116.49
504.968	16175.88
505.17	16247.56
505.373	16626.43
505.576	16853.76
505.779	17089.28
505.982	17279.74
506.185	17408.76
506.387	17515.25
506.59	17599.22
506.793	18035.44
506.996	17906.41
507.198	18500.33
507.401	18129.64
507.604	18457.32
507.807	18838.24
508.009	19045.09
508.212	19084
508.415	19409.62
508.617	19481.3
508.82	19874.51
509.022	19755.73
509.225	20132.56
509.428	19919.57
509.63	20386.5
509.833	20445.9
510.035	20703.94
510.238	20908.74
510.44	20843.2
510.643	21203.64
510.845	21631.67
511.048	21418.68
511.25	22090.41
511.453	21897.91
511.655	22760.1
511.858	22745.76
512.06	22846.12
512.262	22942.37
512.465	22989.47
512.667	23231.13
512.87	23659.16
513.072	23741.08
513.274	24386.19
513.477	24275.6
513.679	24470.15
513.881	24758.92
514.084	24988.29
514.286	24867.46
514.488	25012.87
514.69	25891.44
514.893	25862.77
515.095	25913.97
515.297	26159.73
515.499	26366.57
515.701	26419.82
515.904	27169.38
516.106	26974.82
516.308	27271.78
516.51	27724.38
516.712	27662.94
516.914	28058.2
517.116	28736.07
517.318	28631.63
517.52	28623.44
517.722	28971.59
517.925	29151.81
518.127	29567.55
518.329	29393.47
518.531	29538.88
518.733	30270
518.935	30431.79
519.136	30300.72
519.338	30609.96
519.54	31261.22
519.742	31588.89
519.944	31355.43
520.146	31869.47
520.348	32068.12
520.55	32279.06
520.752	32391.7
520.954	32750.09
521.155	32717.32
521.357	32913.93
521.559	33485.31
521.761	33368.58
521.963	33864.19
522.164	33886.71
522.366	33980.92
522.568	34132.47
522.77	34529.78
522.971	35420.64
523.173	34687.47
523.375	35506.66
523.576	35056.11
523.778	35340.77
523.98	35867.1
524.181	35957.21
524.383	36237.78
524.584	36266.45
524.786	36315.61
524.988	36219.35
525.189	36602.32
525.391	37050.83
525.592	37333.45
525.794	36911.56
525.995	37298.63
526.197	37212.62
526.398	37147.08
526.6	37611.97
526.801	38232.5
527.003	38287.8
527.204	37853.63
527.406	38595
527.607	38277.56
527.808	38574.52
528.01	38011.32
528.211	38386.1
528.412	39248.3
528.614	38863.28
528.815	38646.19
529.016	39492.01
529.218	38908.33
529.419	39084.46
529.62	38816.18
529.822	38984.11
530.023	39154.09
530.224	39549.35
530.425	39205.29
530.626	39203.24
530.828	38824.37
531.029	40047
531.23	39496.1
531.431	39426.47
531.632	39848.35
531.833	39827.87
532.035	39813.54
532.236	39877.02
532.437	39965.09
532.638	39754.15
532.839	40274.33
533.04	40163.74
533.241	39199.15
533.442	40683.92
533.643	40151.45
533.844	39971.23
534.045	40225.18
534.246	39928.22
534.447	40182.17
534.648	40167.84
534.849	40331.67
535.05	40270.23
535.251	39991.71
535.451	39999.9
535.652	40311.19
535.853	40096.16
536.054	40067.48
536.255	40192.41
536.456	39657.89
536.657	40245.66
536.857	39846.3
537.058	39739.81
537.259	40409.5
537.46	40274.33
537.66	39723.43
537.861	40321.43
538.062	39934.37
538.263	40137.12
538.463	39903.65
538.664	40100.25
538.865	40675.73
539.065	40726.93
539.266	39905.7
539.466	40337.82
539.667	39580.07
539.868	40358.3
540.068	40079.77
540.269	39770.53
540.469	40153.5
540.67	39694.75
540.87	39854.5
541.071	39840.16
541.271	40114.59
541.472	39805.34
541.672	39793.06
541.873	39827.87
542.073	39582.12
542.274	40167.84
542.474	39936.41
542.675	39659.94
542.875	39901.6
543.075	39950.75
543.276	39528.87
543.476	40300.95
543.676	39778.72
543.877	39872.93
544.077	39711.14
544.277	39383.46
544.478	39655.84
544.678	39803.3
544.878	39360.94
545.078	39825.82
545.279	39313.83
545.479	39737.76
545.679	39795.1
545.879	39342.5
546.079	39588.26
546.28	39328.17
546.48	39440.81
546.68	39578.02
546.88	39569.83
547.08	39451.05
547.28	39586.21
547.48	39066.03
547.68	39991.71
547.88	39358.89
548.081	39481.77
548.281	39242.15
548.481	39469.48
548.681	39776.67
548.881	39338.41
549.081	39498.15
549.28	39104.94
549.48	39358.89
549.68	39299.5
549.88	39903.65
550.08	39033.26
550.28	39408.04
550.48	39106.99
550.68	39674.27
550.88	39414.18
551.08	39199.15
551.279	39336.36
551.479	38865.33
551.679	39025.07
551.879	39260.58
552.079	39461.29
552.278	39018.92
552.478	39006.64
552.678	39115.18
552.878	39123.37
553.077	39059.88
553.277	39041.45
553.477	39385.51
553.676	38889.9
553.876	39086.51
554.076	38965.68
554.275	38687.15
554.475	38373.81
554.674	39041.45
554.874	39168.43
555.074	38504.88
555.273	38877.61
555.473	39031.21
555.672	38691.25
555.872	38633.91
556.071	38492.6
556.271	38920.62
556.47	38367.67
556.67	38105.53
556.869	38623.67
557.068	38549.94
557.268	38111.67
557.467	38308.28
557.667	38574.52
557.866	38236.6
558.065	38255.03
558.265	38330.81
558.464	38003.13
558.663	38252.98
558.863	38015.42
559.062	38263.22
559.261	37831.1
559.461	38195.64
559.66	37689.79
559.859	37695.94
560.058	37747.14
560.258	37892.54
560.457	37349.83
560.656	37646.79
560.855	37548.48
561.054	37990.84
561.253	37740.99
561.453	37716.42
561.652	37673.41
561.851	37423.56
562.05	37329.35
562.249	36862.41
562.448	37419.46
562.647	37245.38
562.846	37128.65
563.045	37061.07
563.244	36813.26
563.443	37140.94
563.642	36536.79
563.841	36911.56
564.04	36794.83
564.239	37003.72
564.438	36635.09
564.637	36768.21
564.836	36870.61
565.035	36354.52
565.234	36514.26
565.432	36403.67
565.631	36303.32
565.83	36297.17
566.029	35938.78
566.228	36065.75
566.427	35889.63
566.625	35576.29
566.824	35668.45
567.023	36231.64
567.222	35265
567.42	36063.71
567.619	35627.49
567.818	35740.13
568.016	35623.39
568.215	35480.03
568.414	35322.34
568.612	35445.22
568.811	35351.01
569.01	35168.74
569.208	34710
569.407	35082.73
569.605	34630.13
569.804	34939.37
570.002	34634.22
570.201	34511.35
570.4	34490.87
570.598	34413.04
570.797	34122.23
570.995	34427.38
571.193	34079.22
571.392	34367.99
571.59	33937.91
571.789	34183.67
571.987	34044.41
572.186	34101.75
572.384	33618.43
572.582	34253.3
572.781	33999.35
572.979	33440.26
573.177	33301
573.376	34046.46
573.574	33681.92
573.772	33481.22
573.971	33393.15
574.169	33227.27
574.367	32893.45
574.565	33493.5
574.763	32670.22
574.962	32789
575.16	32248.34
575.358	32965.13
575.556	31959.58
575.754	32887.31
575.952	32096.79
576.151	32625.17
576.349	31980.06
576.547	32430.61
576.745	32393.75
576.943	32348.69
577.141	31908.38
577.339	31945.24
577.537	31767.07
577.735	32096.79
577.933	31574.56
578.131	31986.2
578.329	31619.61
578.527	31412.77
578.725	31277.6
578.923	31547.93
579.121	31375.91
579.319	31195.68
579.516	31699.48
579.714	31099.43
579.912	31005.22
580.11	30902.82
580.308	30822.95
580.506	30761.51
580.704	30368.3
580.901	30487.09
581.099	30945.83
581.297	30528.05
581.495	30489.13
581.692	30370.35
581.89	30065.21
582.088	30493.23
582.285	30014.01
582.483	30212.66
582.681	30020.15
582.878	29901.37
583.076	29841.98
583.274	29696.57
583.471	29377.09
583.669	30167.6
583.866	29446.72
584.064	29606.46
584.262	29004.36
584.459	29518.4
584.657	29241.92
584.854	29348.42
585.052	28541.52
585.249	28713.55
585.447	28887.62
585.644	28707.4
585.841	28924.49
586.039	28975.69
586.236	28475.98
586.434	28154.45
586.631	28412.49
586.828	28473.93
587.026	28486.22
587.223	28328.53
587.42	28213.84
587.618	28058.2
587.815	28199.51
588.012	27830.87
588.21	27566.68
588.407	27730.52
588.604	27394.65
588.801	27329.12
588.999	27501.15
589.196	27185.76
589.393	27648.6
589.59	27353.69
589.787	27152.99
589.984	27175.52
590.182	27028.07
590.379	27013.73
590.576	26917.48
590.773	27044.45
590.97	26608.23
591.167	27232.86
591.364	26823.27
591.561	26540.65
591.758	26086
591.955	26403.44
592.152	26989.16
592.349	26124.91
592.546	25979.51
592.743	26194.54
592.94	25741.94
593.137	25920.12
593.334	26104.43
593.531	25438.84
593.727	25830.01
593.924	25981.56
594.121	25457.28
594.318	25549.43
594.515	25043.59
594.712	25506.43
594.908	25135.74
595.105	25105.02
595.302	24988.29
595.499	25469.56
595.696	25129.6
595.892	24478.35
596.089	24769.16
596.286	24916.61
596.482	24736.39
596.679	24509.07
596.876	24685.19
597.072	24502.92
597.269	24291.98
597.466	24560.27
597.662	24257.17
597.859	23927.44
598.055	24363.66
598.252	23919.25
598.448	24128.14
598.645	23835.28
598.841	23698.07
599.038	23687.83
599.234	23954.07
599.431	23562.9
599.627	23505.56
599.824	23679.64
600.02	23491.23
600.217	23325.34
600.413	23440.03
600.609	23507.61
600.806	23034.53
601.002	23222.94
601.198	22909.6
601.395	22661.8
601.591	22710.95
601.787	22786.72
601.984	22620.84
602.18	23032.48
602.376	22428.33
602.572	22618.79
602.769	22567.59
602.965	22411.95
603.161	22479.53
603.357	22153.9
603.553	22016.69
603.75	22184.62
603.946	21983.92
604.142	22102.7
604.338	21725.88
604.534	22053.55
604.73	21764.79
604.926	21572.28
605.122	21705.4
605.318	21695.16
605.514	21594.81
605.71	21572.28
605.906	21414.59
606.102	21283.52
606.298	21428.92
606.494	21281.47
606.69	21342.91
606.886	21217.98
607.082	20789.95
607.278	21107.39
607.474	21076.67
607.67	21107.39
607.866	21011.14
608.062	21111.49
608.257	20765.38
608.453	20865.73
608.649	20974.27
608.845	20433.61
609.041	20605.64
609.236	20810.43
609.432	20718.28
609.628	20693.7
609.824	20583.11
610.019	20239.05
610.215	20404.94
610.411	20527.81
610.606	20402.89
610.802	20230.86
610.998	20148.94
611.193	20224.72
611.389	19954.38
611.584	20028.11
611.78	20050.64
611.976	20038.35
612.171	19878.61
612.367	20064.97
612.562	19966.67
612.758	19923.66
612.953	19698.39
613.149	19978.96
613.344	19487.45
613.539	19837.65
613.735	19745.49
613.93	19653.33
614.126	19391.19
614.321	19843.79
614.517	19602.13
614.712	19397.34
614.907	19436.25
615.103	19526.36
615.298	19063.52
615.493	19454.68
615.688	19122.91
615.884	19524.31
616.079	19061.47
616.274	19346.14
616.47	19305.18
616.665	19280.6
616.86	19092.19
617.055	18995.93
617.25	18959.07
617.445	19170.01
617.641	18705.12
617.836	18858.72
618.031	18674.4
618.226	18848.48
618.421	18655.97
618.616	18768.61
618.811	18713.31
619.006	18787.04
619.201	18131.69
619.396	18688.74
619.591	18068.2
619.786	18199.27
619.981	17838.83
620.176	18232.04
620.371	17822.45
620.566	18027.24
620.761	17468.15
620.956	18035.44
621.151	17572.6
621.346	17636.08
621.541	17406.71
621.735	17691.38
621.93	17079.04
622.125	17179.39
622.32	17253.11
622.515	17361.66
622.709	16866.05
622.904	17101.56
623.099	16638.72
623.294	16898.81
623.488	16782.08
623.683	16661.25
623.878	16245.51
624.072	16552.71
624.267	16626.43
624.462	16372.49
624.656	16003.85
624.851	16163.59
625.046	16087.82
625.24	15774.48
625.435	15868.69
625.629	15880.97
625.824	15604.5
626.018	15700.75
626.213	15278.87
626.407	15430.42
626.602	15293.21
626.796	15348.5
626.991	14961.44
627.185	15125.27
627.38	15211.29
627.574	14844.7
627.768	14943
627.963	14940.96
628.157	14541.6
628.352	14816.03
628.546	14476.07
628.74	14664.48
628.935	14355.24
629.129	14570.27
629.323	14320.42
629.517	14215.98
629.712	14099.24
629.906	14224.17
630.1	13589.3
630.294	13992.75
630.489	13892.4
630.683	13681.46
630.877	13407.03
631.071	13542.19
631.265	13599.54
631.459	13316.92
631.653	13404.98
631.848	13458.23
632.042	13073.21
632.236	13341.49
632.43	13173.56
632.624	12948.28
632.818	12991.29
633.012	12675.9
633.206	12946.23
633.4	12901.18
633.594	12745.53
633.788	12714.81
633.982	12690.24
634.176	12436.29
634.369	12583.74
634.563	12280.64
634.757	12227.4
634.951	12546.88
635.145	12198.73
635.339	12256.07
635.533	12176.2
635.726	12239.69
635.92	11733.84
636.114	11807.56
636.308	11893.58
636.501	11772.75
636.695	11731.79
636.889	11465.55
637.083	11488.08
637.276	11371.35
637.47	11561.81
637.664	11584.34
637.857	11416.4
638.051	11330.39
638.244	11080.53
638.438	11254.61
638.632	10998.62
638.825	10920.79
639.019	10789.72
639.212	10865.5
639.406	10896.22
639.599	10888.03
639.793	10871.64
639.986	10625.89
640.18	10761.05
640.373	10668.89
640.567	10503.01
640.76	10414.95
640.954	10402.66
641.147	10275.68
641.34	10124.13
641.534	10322.79
641.727	10216.29
641.92	10152.81
642.114	10261.35
642.307	10128.23
642.5	10089.32
642.694	9864.04
642.887	9773.93
643.08	10126.18
643.273	9857.9
643.467	9792.36
643.66	9585.52
643.853	9532.27
644.046	9470.83
644.239	9499.5
644.432	9528.17
644.626	9481.07
644.819	9169.78
645.012	9081.72
645.205	9407.34
645.398	9300.85
645.591	8921.98
645.784	9085.81
645.977	8760.19
646.17	8975.22
646.363	8895.35
646.556	8835.96
646.749	8827.77
646.942	8899.45
647.135	8692.6
647.328	8809.34
647.521	8751.99
647.714	8608.64
647.907	8633.21
648.099	8465.28
648.292	8620.92
648.485	8500.09
648.678	8323.97
648.871	8369.02
649.064	8332.16
649.256	8465.28
649.449	8188.8
649.642	8129.41
649.835	8262.53
650.027	8135.56
650.22	8033.16
650.413	8031.11
650.605	8053.64
650.798	7904.14
650.991	7828.36
651.183	7715.72
651.376	7646.09
651.568	7824.26
651.761	7697.29
651.954	7623.56
652.146	7486.35
652.339	7789.45
652.531	7725.96
652.724	7541.64
652.916	7414.67
653.109	7523.21
653.301	7342.99
653.494	7355.28
653.686	7211.92
653.879	7443.34
654.071	7191.44
654.263	7259.03
654.456	7154.58
654.648	7181.2
654.84	6984.6
655.033	7033.75
655.225	6996.89
655.417	7037.84
655.61	6882.2
655.802	7070.61
655.994	6603.68
656.186	6876.06
656.379	6742.94
656.571	6800.28
656.763	6728.6
656.955	6505.37
657.148	6790.04
657.34	6595.48
657.532	6525.85
657.724	6646.68
657.916	6519.71
658.108	6411.17
658.3	6415.26
658.492	6622.11
658.684	6523.8
658.876	6368.16
659.068	6288.29
659.26	6235.04
659.452	6400.93
659.644	6196.13
659.836	6294.43
660.028	6263.71
660.22	6292.38
660.412	6267.81
660.604	6153.12
660.796	6052.77
660.988	5977
661.18	6194.08
661.372	5940.13
661.563	6034.34
661.755	5940.13
661.947	5974.95
662.139	5878.69
662.331	5852.07
662.522	5692.33
662.714	5784.49
662.906	5528.49
663.097	5661.61
663.289	5729.19
663.481	5626.79
663.673	5575.59
663.864	5614.51
664.056	5485.48
664.247	5624.75
664.439	5483.44
664.631	5540.78
664.822	5346.22
665.014	5475.24
665.205	5444.52
665.397	5397.42
665.588	5329.84
665.78	5221.3
665.971	5245.87
666.163	5391.28
666.354	5258.16
666.546	5209.01
666.737	5077.94
666.929	5194.67
667.12	5213.1
667.311	5166
667.503	5182.38
667.694	5129.14
667.885	5016.5
668.077	5055.41
668.268	4942.77
668.459	5049.27
668.651	5000.12
668.842	4819.89
669.033	4869.05
669.224	4731.83
669.416	4967.35
669.607	4852.66
669.798	4940.72
669.989	4867
670.18	4758.46
670.371	4860.85
670.563	4688.82
670.754	4766.65
670.945	4647.87
671.136	4715.45
671.327	4619.19
671.518	4582.33
671.709	4664.25
671.9	4565.95
672.091	4647.87
672.282	4649.91
672.473	4670.39
672.664	4592.57
672.855	4465.6
673.046	4486.08
673.237	4547.51
673.428	4469.69
673.619	4596.67
673.809	4441.02
674	4461.5
674.191	4453.31
674.382	4457.4
674.573	4309.95
674.764	4414.4
674.954	4295.61
675.145	4322.24
675.336	4096.96
675.527	4211.65
675.717	4441.02
675.908	4295.61
676.099	4398.01
676.289	4236.22
676.48	4072.39
676.671	4301.76
676.861	4293.57
677.052	4133.82
677.243	4066.24
677.433	4213.7
677.624	4137.92
677.814	4082.63
678.005	4178.88
678.195	4139.97
678.386	4195.26
678.576	4043.71
678.767	4015.04
678.957	4088.77
679.148	4064.19
679.338	4166.59
679.529	4072.39
679.719	4029.38
679.909	3998.66
680.1	4105.15
680.29	4096.96
680.481	3912.64
680.671	4021.19
680.861	3941.32
681.052	3980.23
681.242	3931.08
681.432	4105.15
681.622	3951.56
681.813	4047.81
682.003	3929.03
682.193	3857.35
682.383	3982.28
682.573	3836.87
682.764	3959.75
682.954	3877.83
683.144	3886.02
683.334	3871.68
683.524	3777.48
683.714	3740.61
683.904	3929.03
684.094	3873.73
684.284	3802.05
684.474	3754.95
684.664	3711.94
684.854	3838.92
685.044	3746.76
685.234	3636.17
685.424	3703.75
685.614	3644.36
685.804	3685.32
685.994	3675.08
686.184	3617.74
686.374	3634.12
686.564	3613.64
686.753	3591.11
686.943	3523.53
687.133	3591.11
687.323	3486.67
687.513	3759.05
687.702	3632.07
687.892	3568.59
688.082	3621.83
688.272	3574.73
688.461	3597.26
688.651	3503.05
688.841	3515.34
689.03	3447.76
689.22	3292.11
689.41	3361.74
689.599	3367.88
689.789	3361.74
689.979	3376.08
690.168	3441.61
690.358	3429.32
690.547	3345.36
690.737	3402.7
690.926	3236.81
691.116	3296.21
691.305	3355.6
691.495	3179.47
691.684	3204.05
691.874	3374.03
692.063	3224.53
692.252	3257.29
692.442	3251.15
692.631	3093.46
692.82	3208.14
693.01	3195.86
693.199	3171.28
693.388	3060.69
693.578	3109.84
693.767	3087.31
693.956	3122.13
694.146	3148.75
694.335	3095.5
694.524	3085.26
694.713	3161.04
694.902	3050.45
695.092	2943.96
695.281	2968.53
695.47	3079.12
695.659	2915.28
695.848	2968.53
696.037	3060.69
696.226	2935.76
696.415	2980.82
696.604	2978.77
696.793	3001.3
696.982	2900.95
697.171	2935.76
697.36	2950.1
697.549	2876.37
697.738	2864.08
697.927	2823.12
698.116	2896.85
698.305	2900.95
698.494	2853.84
698.683	2976.72
698.872	2847.7
699.061	2804.69
699.25	2800.6
699.438	2839.51
699.627	2911.19
699.816	2802.65
700.005	2780.12
700.193	2786.26
700.382	2884.56
700.571	2946
700.76	2876.37
700.948	2915.28
701.137	2900.95
701.326	2790.36
701.514	2726.87
701.703	2847.7
701.892	2739.16
702.08	2903
702.269	2894.8
702.457	2784.21
702.646	2694.1
702.834	2730.97
703.023	2778.07
703.212	2814.93
703.4	2730.97
703.589	2704.34
703.777	2706.39
703.965	2706.39
704.154	2712.53
704.342	2794.45
704.531	2767.83
704.719	2737.11
704.907	2720.73
705.096	2647
705.284	2583.51
705.472	2524.12
705.661	2687.96
705.849	2761.69
706.037	2724.82
706.226	2575.32
706.414	2661.34
706.602	2581.46
706.79	2638.81
706.979	2601.94
707.167	2612.18
707.355	2683.86
707.543	2624.47
707.731	2651.1
707.919	2647
708.107	2550.75
708.296	2548.7
708.484	2630.62
708.672	2452.44
708.86	2622.42
709.048	2597.85
709.236	2515.93
709.424	2507.74
709.612	2536.41
709.8	2560.98
709.988	2622.42
710.176	2608.09
710.364	2671.58
710.551	2608.09
710.739	2567.13
710.927	2560.98
711.115	2517.98
711.303	2558.94
711.491	2624.47
711.679	2485.21
711.866	2454.49
712.054	2448.35
712.242	2599.9
712.43	2493.4
712.617	2460.63
712.805	2458.59
712.993	2532.31
713.181	2458.59
713.368	2462.68
713.556	2434.01
713.744	2434.01
713.931	2589.66
714.119	2520.03
714.306	2593.75
714.494	2603.99
714.682	2479.07
714.869	2288.61
715.057	2444.25
715.244	2483.16
715.432	2376.67
715.619	2393.05
715.807	2386.91
715.994	2458.59
716.182	2446.3
716.369	2468.83
716.556	2440.15
716.744	2466.78
716.931	2380.76
717.119	2507.74
717.306	2450.39
717.493	2495.45
717.681	2405.34
717.868	2386.91
718.055	2450.39
718.242	2323.42
718.43	2401.24
718.617	2391
718.804	2358.24
718.991	2425.82
719.179	2485.21
719.366	2206.69
719.553	2382.81
719.74	2526.17
719.927	2421.72
720.114	2362.33
720.301	2202.59
720.488	2319.32
720.676	2384.86
720.863	2395.1
721.05	2427.87
721.237	2311.13
721.424	2345.95
721.611	2321.37
721.798	2319.32
721.985	2499.55
722.172	2343.9
722.358	2319.32
722.545	2368.48
722.732	2288.61
722.919	2450.39
723.106	2311.13
723.293	2393.05
723.48	2368.48
723.667	2354.14
723.853	2307.04
724.04	2296.8
724.227	2343.9
724.414	2356.19
724.6	2309.08
724.787	2329.56
724.974	2233.31
725.161	2323.42
725.347	2249.69
725.534	2298.84
725.72	2421.72
725.907	2302.94
726.094	2241.5
726.28	2251.74
726.467	2206.69
726.653	2307.04
726.84	2251.74
727.027	2337.76
727.213	2167.77
727.4	2157.54
727.586	2253.79
727.773	2118.62
727.959	2304.99
728.145	2163.68
728.332	2257.89
728.518	2184.16
728.705	2286.56
728.891	2261.98
729.077	2233.31
729.264	2272.22
729.45	2196.45
729.636	2333.66
729.823	2286.56
730.009	2284.51
730.195	2276.32
730.382	2329.56
730.568	2114.53
730.754	2210.78
730.94	2173.92
731.126	2229.21
731.313	2239.45
731.499	2196.45
731.685	2145.25
731.871	2241.5
732.057	2221.02
732.243	2198.49
732.429	2169.82
732.615	2247.65
732.801	2264.03
732.987	2116.58
733.173	2253.79
733.359	2192.35
733.545	2163.68
733.731	2198.49
733.917	2296.8
734.103	2243.55
734.289	2208.73
734.475	2206.69
734.661	2233.31
734.847	2153.44
735.033	2114.53
735.219	2085.86
735.404	2171.87
735.59	2112.48
735.776	2212.83
735.962	2149.34
736.148	2139.1
736.333	2096.1
736.519	2104.29
736.705	2016.23
736.89	2190.3
737.076	2094.05
737.262	2089.95
737.447	2212.83
737.633	2114.53
737.819	2028.51
738.004	1987.55
738.19	2106.34
738.375	2048.99
738.561	2163.68
738.747	2022.37
738.932	2065.38
739.118	2139.1
739.303	2036.7
739.489	2092
739.674	2092
739.859	1999.84
740.045	2081.76
740.23	2065.38
740.416	1969.12
740.601	2032.61
740.786	1977.31
740.972	1909.73
741.157	1889.25
741.342	1901.54
741.528	1915.87
741.713	1983.46
741.898	1881.06
742.084	2018.27
742.269	2001.89
742.454	1977.31
742.639	1911.78
742.824	1903.59
743.01	1975.27
743.195	2024.42
743.38	1946.59
743.565	1840.1
743.75	1967.07
743.935	1938.4
744.12	1866.72
744.305	1883.11
744.49	1876.96
744.675	1844.2
744.86	1780.71
745.045	1872.87
745.23	1811.43
745.415	1838.05
745.6	1749.99
745.785	1786.85
745.97	1887.2
746.155	1715.17
746.34	1713.13
746.525	1719.27
746.71	1836
746.895	1752.04
747.079	1737.7
747.264	1747.94
747.449	1762.28
747.634	1657.83
747.819	1715.17
748.003	1639.4
748.188	1606.63
748.373	1657.83
748.557	1602.54
748.742	1596.39
748.927	1659.88
749.111	1635.3
749.296	1633.26
749.481	1608.68
749.665	1565.67
749.85	1598.44
750.034	1598.44
750.219	1526.76
750.404	1465.32
750.588	1518.57
750.773	1487.85
750.957	1467.37
751.141	1543.14
751.326	1549.29
751.51	1469.42
751.695	1510.38
751.879	1438.7
752.064	1569.77
752.248	1430.51
752.432	1412.07
752.617	1395.69
752.801	1493.99
752.985	1410.03
753.17	1430.51
753.354	1356.78
753.538	1328.11
753.722	1389.55
753.907	1303.53
754.091	1471.47
754.275	1328.11
754.459	1278.96
754.643	1274.86
754.828	1258.48
755.012	1287.15
755.196	1278.96
755.38	1227.76
755.564	1287.15
755.748	1281
755.932	1231.85
756.116	1246.19
756.3	1170.41
756.484	1172.46
756.668	1231.85
756.852	1188.85
757.036	1158.13
757.22	1248.24
757.404	1209.33
757.588	1141.74
757.772	1154.03
757.956	1180.65
758.14	1258.48
758.323	1149.93
758.507	1100.78
758.691	1180.65
758.875	1125.36
759.059	1184.75
759.242	1080.3
759.426	1035.25
759.61	1121.26
759.794	1016.82
759.977	1147.89
760.161	1147.89
760.345	1082.35
760.528	1016.82
760.712	971.76
760.895	979.95
761.079	996.34
761.263	1033.2
761.446	1068.02
761.63	1063.92
761.813	1092.59
761.997	996.34
762.18	959.47
762.364	994.29
762.547	969.71
762.731	934.9
762.914	959.47
763.098	1018.86
763.281	906.23
763.464	963.57
763.648	947.19
763.831	893.94
764.015	1002.48
764.198	912.37
764.381	865.27
764.564	885.75
764.748	1037.3
764.931	910.32
765.114	828.4
765.297	986.1
765.481	852.98
765.664	922.61
765.847	861.17
766.03	934.9
766.213	910.32
766.397	885.75
766.58	820.21
766.763	918.51
766.946	861.17
767.129	934.9
767.312	820.21
767.495	820.21
767.678	838.64
767.861	945.14
768.044	898.03
768.227	842.74
768.41	865.27
768.593	881.65
768.776	912.37
768.959	738.29
769.142	824.31
769.324	803.83
769.507	771.06
769.69	904.18
769.873	850.93
770.056	787.44
770.239	789.49
770.421	824.31
770.604	799.73
770.787	865.27
770.97	775.16
771.152	771.06
771.335	699.38
771.518	807.92
771.7	762.87
771.883	836.6
772.066	773.11
772.248	771.06
772.431	685.05
772.613	814.07
772.796	779.25
772.978	787.44
773.161	701.43
773.343	762.87
773.526	666.61
773.708	656.37
773.891	656.37
774.073	668.66
774.256	611.32
774.438	764.92
774.621	734.2
774.803	736.24
774.985	693.24
775.168	619.51
775.35	648.18
775.532	758.77
775.715	769.01
775.897	652.28
776.079	740.34
776.261	672.76
776.444	619.51
776.626	603.13
776.808	611.32
776.99	619.51
777.173	609.27
777.355	586.74
777.537	558.07
777.719	584.7
777.901	584.7
778.083	558.07
778.265	486.39
778.447	578.55
778.629	492.54
778.811	627.7
778.993	607.22
779.175	631.8
779.357	576.5
779.539	535.54
779.721	529.4
779.903	601.08
780.085	539.64
780.267	623.61
780.449	461.82
780.631	527.35
780.812	574.46
780.994	613.37
781.176	568.31
781.358	521.21
781.54	453.63
781.721	609.27
781.903	558.07
782.085	431.1
782.267	570.36
782.448	476.15
782.63	472.06
782.812	478.2
782.993	570.36
783.175	580.6
783.357	566.26
783.538	451.58
783.72	457.72
783.901	463.86
784.083	525.3
784.264	451.58
784.446	500.73
784.627	369.66
784.809	478.2
784.99	504.82
785.172	418.81
785.353	494.58
785.535	361.47
785.716	459.77
785.897	377.85
786.079	437.24
786.26	398.33
786.441	427
786.623	361.47
786.804	420.86
786.985	334.84
787.167	435.19
787.348	461.82
787.529	357.37
787.71	427
787.891	517.11
788.073	410.62
788.254	447.48
788.435	443.39
788.616	328.7
788.797	345.08
788.978	355.32
789.159	365.56
789.34	398.33
789.522	336.89
789.703	377.85
789.884	330.75
790.065	293.88
790.246	418.81
790.427	404.47
790.607	377.85
790.788	345.08
790.969	386.04
791.15	379.9
791.331	340.99
791.512	353.27
791.693	287.74
791.874	340.99
792.054	422.91
792.235	402.43
792.416	297.98
792.597	320.51
792.778	277.5
792.958	459.77
793.139	304.12
793.32	345.08
793.5	295.93
793.681	265.21
793.862	283.64
794.042	314.36
794.223	279.55
794.404	222.2
794.584	254.97
794.765	293.88
794.945	271.36
795.126	314.36
795.306	373.75
795.487	324.6
795.667	369.66
795.848	291.84
796.028	281.6
796.209	242.68
796.389	273.4
796.57	291.84
796.75	295.93
796.93	148.48
797.111	322.56
797.291	267.26
797.471	211.96
797.652	230.4
797.832	300.03
798.012	283.64
798.192	197.63
798.373	193.53
798.553	304.12
798.733	230.4
798.913	267.26
799.093	300.03
799.274	312.32
799.454	347.13
799.634	289.79
799.814	248.83
799.994	259.07
800.174	211.96
800.354	265.21
800.534	222.2
800.714	310.27
800.894	197.63
801.074	248.83
801.254	224.25
801.434	320.51
801.614	205.82
801.794	230.4
801.974	738.29
802.154	295.93
802.334	179.2
802.514	222.2
802.693	185.34
802.873	191.49
803.053	328.7
803.233	308.22
803.413	207.87
803.592	230.4
803.772	164.86
803.952	246.78
804.131	218.11
804.311	238.59
804.491	259.07
804.67	230.4
804.85	179.2
805.03	308.22
805.209	242.68
805.389	181.25
805.568	189.44
805.748	281.6
805.928	207.87
806.107	218.11
806.287	261.12
806.466	207.87
806.646	148.48
806.825	158.72
807.004	175.1
807.184	214.01
807.363	152.57
807.543	166.91
807.722	185.34
807.901	156.67
808.081	218.11
808.26	107.52
808.439	181.25
808.619	238.59
808.798	177.15
808.977	168.96
809.156	199.68
809.336	158.72
809.515	230.4
809.694	185.34
809.873	181.25
810.052	216.06
810.231	228.35
810.411	123.9
810.59	216.06
810.769	181.25
810.948	197.63
811.127	103.42
811.306	164.86
811.485	164.86
811.664	193.53
811.843	173.05
812.022	203.77
812.201	148.48
812.38	125.95
812.559	199.68
812.737	175.1
812.916	177.15
813.095	138.24
813.274	160.77
813.453	207.87
813.632	117.76
813.811	142.33
813.989	74.75
814.168	224.25
814.347	148.48
814.526	181.25
814.704	115.71
814.883	132.09
815.062	119.81
815.24	189.44
815.419	156.67
815.598	115.71
815.776	132.09
815.955	150.53
816.133	62.46
816.312	58.37
816.49	107.52
816.669	183.29
816.847	181.25
817.026	152.57
817.204	91.13
817.383	87.04
817.561	183.29
817.74	107.52
817.918	115.71
818.097	123.9
818.275	74.75
818.453	193.53
818.632	164.86
818.81	179.2
818.988	140.29
819.167	109.57
819.345	134.14
819.523	115.71
819.701	164.86
819.879	156.67
820.058	76.8
820.236	181.25
820.414	189.44
820.592	117.76
820.77	107.52
820.948	115.71
821.127	107.52
821.305	111.61
821.483	99.33
821.661	121.85
821.839	164.86
822.017	125.95
822.195	117.76
822.373	181.25
822.551	99.33
822.729	33.79
822.907	44.03
823.085	130.05
823.262	80.89
823.44	87.04
823.618	117.76
823.796	123.9
823.974	134.14
824.152	54.27
824.329	80.89
824.507	95.23
824.685	48.13
824.863	132.09
825.04	166.91
825.218	123.9
825.396	72.7
825.574	130.05
825.751	95.23
825.929	150.53
826.107	111.61
826.284	166.91
826.462	111.61
826.639	123.9
826.817	109.57
826.994	99.33
827.172	37.89
827.349	123.9
827.527	146.43
827.704	99.33
827.882	48.13
828.059	62.46
828.237	144.38
828.414	109.57
828.591	80.89
828.769	99.33
828.946	95.23
829.124	158.72
829.301	134.14
829.478	74.75
829.655	82.94
829.833	23.55
830.01	37.89
830.187	103.42
830.364	130.05
830.542	109.57
830.719	101.37
830.896	150.53
831.073	46.08
831.25	107.52
831.427	101.37
831.604	150.53
831.782	82.94
831.959	93.18
832.136	74.75
832.313	60.42
832.49	78.85
832.667	177.15
832.844	68.61
833.021	109.57
833.198	128
833.374	87.04
833.551	13.31
833.728	60.42
833.905	70.65
834.082	33.79
834.259	66.56
834.436	125.95
834.612	74.75
834.789	70.65
834.966	91.13
835.143	66.56
835.319	56.32
835.496	103.42
835.673	107.52
835.85	95.23
836.026	128
836.203	107.52
836.38	25.6
836.556	33.79
836.733	93.18
836.909	162.81
837.086	17.41
837.262	-44.03
837.439	33.79
837.616	68.61
837.792	76.8
837.968	66.56
838.145	87.04
838.321	44.03
838.498	136.19
838.674	134.14
838.851	70.65
839.027	-15.36
839.203	113.66
839.38	107.52
839.556	11.26
839.732	121.85
839.909	52.22
840.085	107.52
840.261	33.79
840.437	37.89
840.614	70.65
840.79	84.99
840.966	70.65
841.142	156.67
841.318	78.85
841.494	99.33
841.671	54.27
841.847	111.61
842.023	52.22
842.199	3.07
842.375	82.94
842.551	52.22
842.727	60.42
842.903	103.42
843.079	66.56
843.255	76.8
843.431	119.81
843.607	-3.07
843.783	19.46
843.959	103.42
844.134	103.42
844.31	103.42
844.486	74.75
844.662	95.23
844.838	50.18
845.013	11.26
845.189	162.81
845.365	70.65
845.541	89.09
845.716	87.04
845.892	50.18
846.068	19.46
846.244	11.26
846.419	150.53
846.595	25.6
846.77	-7.17
846.946	138.24
847.122	87.04
847.297	27.65
847.473	50.18
847.648	41.98
847.824	74.75
847.999	72.7
848.175	60.42
848.35	66.56
848.526	66.56
848.701	-17.41
848.876	78.85
849.052	91.13
849.227	119.81
849.403	52.22
849.578	68.61
849.753	19.46
849.929	33.79
850.104	46.08
850.279	93.18
850.454	111.61
850.63	-31.74
850.805	99.33
850.98	37.89
851.155	109.57
851.33	74.75
851.505	52.22
851.681	21.5
851.856	11.26
852.031	50.18
852.206	70.65
852.381	54.27
852.556	101.37
852.731	39.94
852.906	50.18
853.081	37.89
853.256	70.65
853.431	-5.12
853.606	25.6
853.781	41.98
853.956	68.61
854.131	-5.12
854.305	31.74
854.48	109.57
854.655	-48.13
854.83	29.7
855.005	25.6
855.18	29.7
855.354	66.56
855.529	80.89
855.704	-46.08
855.879	54.27
856.053	25.6
856.228	66.56
856.403	17.41
856.577	136.19
856.752	33.79
856.926	54.27
857.101	109.57
857.276	19.46
857.45	35.84
857.625	33.79
857.799	52.22
857.974	74.75
858.148	-27.65
858.323	91.13
858.497	5.12
858.672	82.94
858.846	50.18
859.02	93.18
859.195	91.13
859.369	74.75
859.543	89.09
859.718	27.65
859.892	44.03
860.066	41.98
860.241	-21.5
860.415	-39.94
860.589	27.65
860.763	134.14
860.938	9.22
861.112	84.99
861.286	39.94
861.46	25.6
861.634	74.75
861.808	27.65
861.982	82.94
862.157	58.37
862.331	21.5
862.505	-1.02
862.679	15.36
862.853	33.79
863.027	37.89
863.201	35.84
863.375	74.75
863.549	84.99
863.722	58.37
863.896	17.41
864.07	21.5
864.244	3.07
864.418	66.56
864.592	44.03
864.766	64.51
864.939	50.18
865.113	-23.55
865.287	27.65
865.461	21.5
865.634	41.98
865.808	41.98
865.982	89.09
866.156	9.22
866.329	41.98
866.503	48.13
866.676	3.07
866.85	103.42
867.024	76.8
867.197	70.65
867.371	58.37
867.544	95.23
867.718	29.7
867.891	66.56
868.065	-29.7
868.238	50.18
868.412	121.85
868.585	19.46
868.759	66.56
868.932	41.98
869.105	-7.17
869.279	56.32
869.452	84.99
869.625	74.75
869.799	33.79
869.972	9.22
870.145	-1.02
870.319	50.18
870.492	17.41
870.665	13.31
870.838	-17.41
871.011	19.46
871.185	117.76
871.358	82.94
871.531	25.6
871.704	-50.18
871.877	27.65
872.05	-3.07
872.223	50.18
872.396	5.12
872.569	74.75
872.742	29.7
872.915	-23.55
873.088	17.41
873.261	76.8
873.434	37.89
873.607	-7.17
873.78	11.26
873.953	66.56
874.126	17.41
874.299	17.41
874.471	-3.07
874.644	25.6
874.817	50.18
874.99	168.96
875.163	82.94
875.335	31.74
875.508	-9.22
875.681	117.76
875.853	-5.12
876.026	80.89
876.199	58.37
876.371	9.22
876.544	11.26
876.717	-19.46
876.889	95.23
877.062	11.26
877.234	-31.74
877.407	11.26
877.579	23.55
877.752	15.36
877.924	29.7
878.097	66.56
878.269	17.41
878.442	23.55
878.614	35.84
878.786	125.95
878.959	97.28
879.131	56.32
879.303	3.07
879.476	41.98
879.648	66.56
879.82	41.98
879.993	-23.55
880.165	-31.74
880.337	13.31
880.509	60.42
880.681	-15.36
880.854	13.31
881.026	99.33
881.198	91.13
881.37	-5.12
881.542	95.23
881.714	19.46
881.886	-19.46
882.058	50.18
882.23	44.03
882.402	-46.08
882.574	48.13
882.746	-56.32
882.918	91.13
883.09	76.8
883.262	44.03
883.434	62.46
883.606	-58.37
883.778	-7.17
883.95	60.42
884.122	44.03
884.293	17.41
884.465	17.41
884.637	35.84
884.809	-54.27
884.98	13.31
885.152	-15.36
885.324	17.41
885.496	60.42
885.667	-7.17
885.839	-48.13
886.011	82.94
886.182	-7.17
886.354	52.22
886.525	35.84
886.697	58.37
886.869	58.37
887.04	19.46
887.212	58.37
887.383	74.75
887.555	60.42
887.726	25.6
887.897	7.17
888.069	31.74
888.24	33.79
888.412	68.61
888.583	66.56
888.754	52.22
888.926	107.52
889.097	41.98
889.268	-31.74
889.44	-3.07
889.611	70.65
889.782	41.98
889.953	-1.02
890.125	44.03
890.296	-44.03
890.467	-37.89
890.638	-84.99
890.809	78.85
890.98	1.02
891.151	-23.55
891.323	74.75
891.494	25.6
891.665	44.03
891.836	5.12
892.007	-3.07
892.178	68.61
892.349	17.41
892.52	25.6
892.691	46.08
892.862	-9.22
893.032	25.6
893.203	58.37
893.374	29.7
893.545	52.22
893.716	29.7
893.887	105.47
894.057	60.42
894.228	-48.13
894.399	-23.55
894.57	29.7
894.74	27.65
894.911	15.36
895.082	89.09
895.253	7.17
895.423	123.9
895.594	19.46
895.764	46.08
895.935	5.12
896.106	-31.74
896.276	19.46
896.447	76.8
896.617	27.65
896.788	3.07
896.958	-7.17
897.129	54.27
897.299	78.85
897.47	50.18
897.64	41.98
897.81	-19.46
897.981	33.79
898.151	25.6
898.322	9.22
898.492	50.18
898.662	44.03
898.832	-21.5
899.003	66.56
899.173	-52.22
899.343	62.46
899.513	37.89
