Data from USB4F104151__84__14-17-44-985.txt Node

Date: Thu Mar 13 14:17:44 EDT 2025
User: louis
Spectrometer: USB4F10415
Trigger mode: 4
Integration Time (sec): 2.000000E-2
Scans to average: 1
Electric dark correction enabled: true
Nonlinearity correction enabled: false
Boxcar width: 0
XAxis mode: Wavelengths
Number of Pixels in Spectrum: 3648
>>>>>Begin Spectral Data<<<<<
178.204	-103.42
178.424	-103.42
178.644	-103.42
178.864	-66.56
179.084	-64.51
179.304	5.12
179.524	5.12
179.744	-46.08
179.964	64.51
180.184	-19.46
180.404	48.13
180.624	3.07
180.844	-15.36
181.064	-35.84
181.283	-23.55
181.503	-62.46
181.723	76.8
181.943	-27.65
182.163	136.19
182.383	19.46
182.602	5.12
182.822	-19.46
183.042	19.46
183.262	15.36
183.482	-9.22
183.701	-25.6
183.921	50.18
184.141	7.17
184.361	46.08
184.58	-35.84
184.8	39.94
185.02	-1.02
185.239	68.61
185.459	60.42
185.679	48.13
185.898	-21.5
186.118	105.47
186.338	68.61
186.557	35.84
186.777	23.55
186.997	-44.03
187.216	11.26
187.436	54.27
187.655	76.8
187.875	97.28
188.095	39.94
188.314	64.51
188.534	37.89
188.753	62.46
188.973	31.74
189.192	48.13
189.412	56.32
189.631	-60.42
189.851	-13.31
190.07	48.13
190.29	27.65
190.509	54.27
190.729	3.07
190.948	46.08
191.168	144.38
191.387	-5.12
191.607	-5.12
191.826	70.65
192.045	13.31
192.265	11.26
192.484	84.99
192.704	-9.22
192.923	-46.08
193.142	54.27
193.362	84.99
193.581	11.26
193.8	56.32
194.02	3.07
194.239	27.65
194.458	23.55
194.678	19.46
194.897	11.26
195.116	-44.03
195.335	52.22
195.555	11.26
195.774	3.07
195.993	27.65
196.212	39.94
196.432	7.17
196.651	11.26
196.87	-25.6
197.089	87.04
197.308	-5.12
197.528	23.55
197.747	-13.31
197.966	11.26
198.185	29.7
198.404	27.65
198.623	33.79
198.842	103.42
199.062	27.65
199.281	58.37
199.5	52.22
199.719	44.03
199.938	39.94
200.157	74.75
200.376	-27.65
200.595	89.09
200.814	17.41
201.033	19.46
201.252	84.99
201.471	3.07
201.69	103.42
201.909	-21.5
202.128	9.22
202.347	-29.7
202.566	-37.89
202.785	62.46
203.004	15.36
203.223	70.65
203.442	3.07
203.661	11.26
203.879	-31.74
204.098	113.66
204.317	50.18
204.536	52.22
204.755	46.08
204.974	101.37
205.193	39.94
205.411	121.85
205.63	5.12
205.849	7.17
206.068	58.37
206.287	-33.79
206.505	13.31
206.724	44.03
206.943	19.46
207.162	-7.17
207.381	5.12
207.599	-33.79
207.818	21.5
208.037	35.84
208.255	-21.5
208.474	23.55
208.693	21.5
208.911	3.07
209.13	39.94
209.349	117.76
209.567	52.22
209.786	3.07
210.005	44.03
210.223	35.84
210.442	37.89
210.661	89.09
210.879	29.7
211.098	31.74
211.316	-15.36
211.535	-29.7
211.753	-29.7
211.972	17.41
212.191	31.74
212.409	15.36
212.628	74.75
212.846	52.22
213.065	37.89
213.283	46.08
213.502	46.08
213.72	-60.42
213.938	27.65
214.157	29.7
214.375	72.7
214.594	-7.17
214.812	-11.26
215.031	-41.98
215.249	-13.31
215.467	-17.41
215.686	-7.17
215.904	117.76
216.122	-23.55
216.341	84.99
216.559	87.04
216.778	78.85
216.996	37.89
217.214	48.13
217.432	-17.41
217.651	-11.26
217.869	72.7
218.087	-62.46
218.306	-39.94
218.524	68.61
218.742	-11.26
218.96	93.18
219.179	5.12
219.397	41.98
219.615	72.7
219.833	17.41
220.051	60.42
220.27	64.51
220.488	44.03
220.706	31.74
220.924	35.84
221.142	-58.37
221.36	54.27
221.578	46.08
221.796	15.36
222.015	76.8
222.233	31.74
222.451	3.07
222.669	7.17
222.887	52.22
223.105	-11.26
223.323	56.32
223.541	7.17
223.759	78.85
223.977	52.22
224.195	66.56
224.413	35.84
224.631	33.79
224.849	-3.07
225.067	72.7
225.285	-21.5
225.503	9.22
225.721	3.07
225.939	70.65
226.157	74.75
226.375	72.7
226.592	9.22
226.81	62.46
227.028	7.17
227.246	89.09
227.464	19.46
227.682	78.85
227.9	54.27
228.117	46.08
228.335	-44.03
228.553	62.46
228.771	23.55
228.989	-1.02
229.206	-21.5
229.424	7.17
229.642	29.7
229.86	7.17
230.077	72.7
230.295	-21.5
230.513	1.02
230.731	62.46
230.948	80.89
231.166	60.42
231.384	5.12
231.601	-29.7
231.819	68.61
232.037	23.55
232.254	1.02
232.472	41.98
232.689	15.36
232.907	35.84
233.125	7.17
233.342	52.22
233.56	-19.46
233.777	70.65
233.995	76.8
234.213	66.56
234.43	35.84
234.648	-13.31
234.865	-33.79
235.083	5.12
235.3	19.46
235.518	5.12
235.735	62.46
235.953	29.7
236.17	-13.31
236.388	15.36
236.605	15.36
236.822	64.51
237.04	21.5
237.257	17.41
237.475	-21.5
237.692	21.5
237.909	46.08
238.127	-27.65
238.344	19.46
238.562	-68.61
238.779	31.74
238.996	-25.6
239.214	-19.46
239.431	44.03
239.648	-1.02
239.865	15.36
240.083	13.31
240.3	27.65
240.517	13.31
240.735	48.13
240.952	52.22
241.169	76.8
241.386	25.6
241.603	3.07
241.821	76.8
242.038	44.03
242.255	48.13
242.472	11.26
242.689	-23.55
242.907	37.89
243.124	82.94
243.341	3.07
243.558	44.03
243.775	-39.94
243.992	5.12
244.209	46.08
244.426	54.27
244.643	27.65
244.86	35.84
245.078	25.6
245.295	11.26
245.512	-3.07
245.729	25.6
245.946	-25.6
246.163	58.37
246.38	13.31
246.597	-5.12
246.814	31.74
247.031	84.99
247.248	5.12
247.464	-48.13
247.681	80.89
247.898	-27.65
248.115	66.56
248.332	-35.84
248.549	87.04
248.766	160.77
248.983	29.7
249.2	27.65
249.417	-13.31
249.633	3.07
249.85	-19.46
250.067	48.13
250.284	35.84
250.501	19.46
250.717	29.7
250.934	17.41
251.151	56.32
251.368	-33.79
251.585	23.55
251.801	-31.74
252.018	39.94
252.235	37.89
252.451	48.13
252.668	5.12
252.885	82.94
253.102	107.52
253.318	15.36
253.535	-60.42
253.752	31.74
253.968	15.36
254.185	35.84
254.401	-5.12
254.618	29.7
254.835	19.46
255.051	50.18
255.268	-29.7
255.484	44.03
255.701	-11.26
255.917	70.65
256.134	11.26
256.351	35.84
256.567	82.94
256.784	41.98
257	54.27
257.217	121.85
257.433	95.23
257.65	52.22
257.866	64.51
258.082	-3.07
258.299	56.32
258.515	23.55
258.732	21.5
258.948	-17.41
259.165	89.09
259.381	19.46
259.597	60.42
259.814	15.36
260.03	27.65
260.246	41.98
260.463	74.75
260.679	21.5
260.895	54.27
261.112	70.65
261.328	66.56
261.544	-33.79
261.761	62.46
261.977	19.46
262.193	21.5
262.409	-13.31
262.626	56.32
262.842	27.65
263.058	-27.65
263.274	56.32
263.49	82.94
263.707	35.84
263.923	-5.12
264.139	7.17
264.355	66.56
264.571	119.81
264.787	11.26
265.004	-23.55
265.22	87.04
265.436	39.94
265.652	-1.02
265.868	15.36
266.084	-27.65
266.3	7.17
266.516	29.7
266.732	-27.65
266.948	48.13
267.164	60.42
267.38	97.28
267.596	44.03
267.812	80.89
268.028	25.6
268.244	48.13
268.46	48.13
268.676	74.75
268.892	109.57
269.108	76.8
269.324	21.5
269.54	-9.22
269.756	80.89
269.972	-13.31
270.188	62.46
270.403	25.6
270.619	-41.98
270.835	25.6
271.051	60.42
271.267	17.41
271.483	52.22
271.698	31.74
271.914	-5.12
272.13	35.84
272.346	7.17
272.562	7.17
272.777	70.65
272.993	-25.6
273.209	35.84
273.425	117.76
273.64	-37.89
273.856	-1.02
274.072	48.13
274.287	3.07
274.503	70.65
274.719	41.98
274.934	-29.7
275.15	11.26
275.366	11.26
275.581	101.37
275.797	-1.02
276.012	-3.07
276.228	-1.02
276.444	19.46
276.659	78.85
276.875	-74.75
277.09	52.22
277.306	-54.27
277.521	44.03
277.737	50.18
277.952	-44.03
278.168	-17.41
278.383	-11.26
278.599	35.84
278.814	-13.31
279.03	-9.22
279.245	5.12
279.461	-37.89
279.676	19.46
279.892	-87.04
280.107	39.94
280.322	5.12
280.538	-17.41
280.753	60.42
280.969	-46.08
281.184	-13.31
281.399	44.03
281.615	41.98
281.83	27.65
282.045	11.26
282.26	11.26
282.476	-1.02
282.691	48.13
282.906	19.46
283.122	80.89
283.337	-44.03
283.552	52.22
283.767	68.61
283.983	72.7
284.198	162.81
284.413	46.08
284.628	-1.02
284.843	27.65
285.058	48.13
285.274	-33.79
285.489	27.65
285.704	56.32
285.919	46.08
286.134	76.8
286.349	-54.27
286.564	-5.12
286.779	7.17
286.995	97.28
287.21	-58.37
287.425	142.33
287.64	44.03
287.855	19.46
288.07	-29.7
288.285	56.32
288.5	80.89
288.715	80.89
288.93	23.55
289.145	39.94
289.36	52.22
289.575	56.32
289.79	-46.08
290.004	-11.26
290.219	119.81
290.434	11.26
290.649	-68.61
290.864	76.8
291.079	31.74
291.294	11.26
291.509	-70.65
291.724	15.36
291.938	-37.89
292.153	31.74
292.368	56.32
292.583	13.31
292.798	58.37
293.012	72.7
293.227	44.03
293.442	44.03
293.657	31.74
293.871	99.33
294.086	48.13
294.301	103.42
294.516	97.28
294.73	15.36
294.945	-21.5
295.16	56.32
295.374	27.65
295.589	119.81
295.804	78.85
296.018	27.65
296.233	132.09
296.447	101.37
296.662	39.94
296.877	62.46
297.091	68.61
297.306	31.74
297.52	-13.31
297.735	31.74
297.949	35.84
298.164	62.46
298.378	1.02
298.593	13.31
298.807	13.31
299.022	95.23
299.236	93.18
299.451	48.13
299.665	-41.98
299.88	21.5
300.094	46.08
300.309	46.08
300.523	64.51
300.737	54.27
300.952	-60.42
301.166	134.14
301.381	-64.51
301.595	52.22
301.809	23.55
302.024	93.18
302.238	-13.31
302.452	29.7
302.667	37.89
302.881	7.17
303.095	64.51
303.309	44.03
303.524	3.07
303.738	-37.89
303.952	11.26
304.166	84.99
304.381	13.31
304.595	70.65
304.809	74.75
305.023	99.33
305.237	29.7
305.452	7.17
305.666	97.28
305.88	64.51
306.094	-19.46
306.308	56.32
306.522	50.18
306.736	84.99
306.95	60.42
307.164	11.26
307.379	29.7
307.593	70.65
307.807	60.42
308.021	56.32
308.235	89.09
308.449	23.55
308.663	21.5
308.877	1.02
309.091	91.13
309.305	-9.22
309.519	-9.22
309.733	66.56
309.947	-19.46
310.161	101.37
310.374	130.05
310.588	101.37
310.802	-17.41
311.016	27.65
311.23	29.7
311.444	-1.02
311.658	48.13
311.872	89.09
312.085	48.13
312.299	125.95
312.513	66.56
312.727	46.08
312.941	-27.65
313.154	5.12
313.368	52.22
313.582	68.61
313.796	54.27
314.009	64.51
314.223	21.5
314.437	-7.17
314.651	41.98
314.864	-13.31
315.078	29.7
315.292	48.13
315.505	44.03
315.719	23.55
315.933	33.79
316.146	87.04
316.36	41.98
316.573	70.65
316.787	84.99
317.001	-23.55
317.214	-29.7
317.428	-21.5
317.641	35.84
317.855	52.22
318.068	31.74
318.282	44.03
318.495	39.94
318.709	35.84
318.922	78.85
319.136	48.13
319.349	70.65
319.563	62.46
319.776	37.89
319.99	35.84
320.203	62.46
320.417	27.65
320.63	46.08
320.843	103.42
321.057	44.03
321.27	19.46
321.483	60.42
321.697	11.26
321.91	64.51
322.124	31.74
322.337	9.22
322.55	-44.03
322.763	23.55
322.977	29.7
323.19	1.02
323.403	46.08
323.617	23.55
323.83	101.37
324.043	-5.12
324.256	111.61
324.469	23.55
324.683	70.65
324.896	44.03
325.109	44.03
325.322	27.65
325.535	35.84
325.748	-56.32
325.962	27.65
326.175	97.28
326.388	3.07
326.601	109.57
326.814	76.8
327.027	13.31
327.24	121.85
327.453	-33.79
327.666	48.13
327.879	197.63
328.092	64.51
328.305	44.03
328.518	-1.02
328.731	-13.31
328.944	29.7
329.157	68.61
329.37	21.5
329.583	-5.12
329.796	82.94
330.009	25.6
330.222	95.23
330.435	-3.07
330.648	60.42
330.861	17.41
331.073	58.37
331.286	25.6
331.499	37.89
331.712	19.46
331.925	68.61
332.138	70.65
332.35	89.09
332.563	44.03
332.776	60.42
332.989	62.46
333.202	48.13
333.414	31.74
333.627	46.08
333.84	-9.22
334.053	52.22
334.265	-33.79
334.478	25.6
334.691	44.03
334.903	64.51
335.116	-52.22
335.329	80.89
335.541	-25.6
335.754	156.67
335.966	-13.31
336.179	27.65
336.392	35.84
336.604	46.08
336.817	-25.6
337.029	87.04
337.242	60.42
337.454	35.84
337.667	50.18
337.88	62.46
338.092	35.84
338.305	105.47
338.517	35.84
338.729	48.13
338.942	58.37
339.154	-29.7
339.367	-1.02
339.579	89.09
339.792	46.08
340.004	19.46
340.217	29.7
340.429	29.7
340.641	48.13
340.854	60.42
341.066	-21.5
341.278	39.94
341.491	136.19
341.703	60.42
341.915	68.61
342.128	70.65
342.34	56.32
342.552	37.89
342.764	-29.7
342.977	3.07
343.189	72.7
343.401	76.8
343.613	56.32
343.826	76.8
344.038	35.84
344.25	23.55
344.462	99.33
344.674	54.27
344.886	13.31
345.099	68.61
345.311	50.18
345.523	39.94
345.735	68.61
345.947	72.7
346.159	31.74
346.371	9.22
346.583	93.18
346.795	62.46
347.007	11.26
347.219	19.46
347.431	5.12
347.643	-1.02
347.855	-13.31
348.067	72.7
348.279	19.46
348.491	21.5
348.703	62.46
348.915	-13.31
349.127	-68.61
349.339	64.51
349.551	17.41
349.763	72.7
349.975	-29.7
350.187	60.42
350.399	84.99
350.61	35.84
350.822	70.65
351.034	17.41
351.246	91.13
351.458	-9.22
351.669	68.61
351.881	48.13
352.093	72.7
352.305	91.13
352.517	29.7
352.728	80.89
352.94	76.8
353.152	15.36
353.363	52.22
353.575	84.99
353.787	39.94
353.999	46.08
354.21	80.89
354.422	-5.12
354.633	60.42
354.845	-11.26
355.057	29.7
355.268	44.03
355.48	21.5
355.692	-21.5
355.903	31.74
356.115	54.27
356.326	-19.46
356.538	37.89
356.749	7.17
356.961	76.8
357.172	-11.26
357.384	15.36
357.595	115.71
357.807	17.41
358.018	48.13
358.23	46.08
358.441	134.14
358.653	95.23
358.864	76.8
359.075	-17.41
359.287	64.51
359.498	44.03
359.709	66.56
359.921	52.22
360.132	89.09
360.344	37.89
360.555	-58.37
360.766	87.04
360.977	39.94
361.189	25.6
361.4	-60.42
361.611	84.99
361.823	84.99
362.034	64.51
362.245	3.07
362.456	44.03
362.667	93.18
362.879	15.36
363.09	95.23
363.301	50.18
363.512	-27.65
363.723	23.55
363.935	76.8
364.146	33.79
364.357	-37.89
364.568	68.61
364.779	1.02
364.99	52.22
365.201	52.22
365.412	72.7
365.623	70.65
365.834	37.89
366.045	111.61
366.256	52.22
366.467	132.09
366.678	76.8
366.889	29.7
367.1	23.55
367.311	103.42
367.522	44.03
367.733	93.18
367.944	82.94
368.155	21.5
368.366	52.22
368.577	27.65
368.788	101.37
368.999	15.36
369.209	68.61
369.42	109.57
369.631	82.94
369.842	54.27
370.053	-15.36
370.264	11.26
370.474	23.55
370.685	74.75
370.896	142.33
371.107	39.94
371.317	84.99
371.528	70.65
371.739	52.22
371.95	41.98
372.16	-13.31
372.371	-19.46
372.582	1.02
372.792	72.7
373.003	54.27
373.214	9.22
373.424	76.8
373.635	54.27
373.846	-5.12
374.056	29.7
374.267	56.32
374.477	41.98
374.688	60.42
374.898	46.08
375.109	21.5
375.319	-19.46
375.53	111.61
375.74	39.94
375.951	39.94
376.161	52.22
376.372	111.61
376.582	78.85
376.793	64.51
377.003	91.13
377.214	39.94
377.424	27.65
377.635	136.19
377.845	41.98
378.055	154.62
378.266	3.07
378.476	97.28
378.686	35.84
378.897	84.99
379.107	5.12
379.317	52.22
379.528	97.28
379.738	13.31
379.948	27.65
380.158	3.07
380.369	19.46
380.579	84.99
380.789	93.18
380.999	52.22
381.21	-9.22
381.42	179.2
381.63	11.26
381.84	93.18
382.05	19.46
382.261	41.98
382.471	66.56
382.681	60.42
382.891	52.22
383.101	9.22
383.311	-11.26
383.521	44.03
383.731	-5.12
383.941	109.57
384.151	44.03
384.361	41.98
384.571	35.84
384.781	80.89
384.991	105.47
385.201	158.72
385.411	-5.12
385.621	101.37
385.831	37.89
386.041	44.03
386.251	27.65
386.461	150.53
386.671	-11.26
386.881	23.55
387.091	58.37
387.301	97.28
387.511	21.5
387.72	80.89
387.93	27.65
388.14	15.36
388.35	89.09
388.56	146.43
388.769	84.99
388.979	66.56
389.189	-50.18
389.399	70.65
389.609	37.89
389.818	52.22
390.028	78.85
390.238	128
390.447	35.84
390.657	56.32
390.867	35.84
391.076	-33.79
391.286	37.89
391.496	31.74
391.705	80.89
391.915	78.85
392.125	70.65
392.334	21.5
392.544	117.76
392.753	93.18
392.963	54.27
393.172	87.04
393.382	50.18
393.591	107.52
393.801	44.03
394.01	95.23
394.22	87.04
394.429	52.22
394.639	101.37
394.848	95.23
395.058	35.84
395.267	41.98
395.477	27.65
395.686	111.61
395.895	111.61
396.105	97.28
396.314	89.09
396.524	52.22
396.733	76.8
396.942	95.23
397.152	76.8
397.361	144.38
397.57	125.95
397.78	66.56
397.989	138.24
398.198	117.76
398.407	72.7
398.617	117.76
398.826	76.8
399.035	93.18
399.244	35.84
399.453	121.85
399.663	68.61
399.872	117.76
400.081	54.27
400.29	156.67
400.499	146.43
400.708	31.74
400.917	121.85
401.127	158.72
401.336	121.85
401.545	160.77
401.754	125.95
401.963	162.81
402.172	109.57
402.381	52.22
402.59	101.37
402.799	93.18
403.008	158.72
403.217	113.66
403.426	84.99
403.635	168.96
403.844	48.13
404.053	140.29
404.262	123.9
404.471	218.11
404.68	95.23
404.888	113.66
405.097	177.15
405.306	154.62
405.515	134.14
405.724	158.72
405.933	205.82
406.142	197.63
406.35	148.48
406.559	134.14
406.768	154.62
406.977	242.68
407.185	160.77
407.394	261.12
407.603	138.24
407.812	187.39
408.02	257.02
408.229	246.78
408.438	209.92
408.646	232.44
408.855	228.35
409.064	269.31
409.272	211.96
409.481	236.54
409.69	185.34
409.898	234.49
410.107	250.88
410.315	306.17
410.524	336.89
410.733	230.4
410.941	248.83
411.15	289.79
411.358	373.75
411.567	349.18
411.775	328.7
411.984	340.99
412.192	420.86
412.401	412.67
412.609	396.28
412.818	470.01
413.026	388.09
413.234	412.67
413.443	480.25
413.651	470.01
413.86	525.3
414.068	461.82
414.276	625.65
414.485	580.6
414.693	613.37
414.901	572.41
415.11	646.13
415.318	644.09
415.526	660.47
415.734	648.18
415.943	691.19
416.151	736.24
416.359	625.65
416.567	721.91
416.776	742.39
416.984	840.69
417.192	871.41
417.4	861.17
417.608	834.55
417.817	879.6
418.025	977.91
418.233	1027.06
418.441	988.14
418.649	1055.73
418.857	1201.13
419.065	1135.6
419.273	1133.55
419.481	1227.76
419.689	1319.92
419.897	1338.35
420.105	1285.1
420.313	1309.68
420.521	1340.4
420.729	1416.17
420.937	1410.03
421.145	1516.52
421.353	1571.82
421.561	1647.59
421.769	1706.98
421.977	1911.78
422.185	1864.68
422.393	1870.82
422.601	1915.87
422.809	1936.35
423.017	1965.03
423.224	2063.33
423.432	2182.11
423.64	2216.93
423.848	2485.21
424.056	2241.5
424.263	2575.32
424.471	2468.83
424.679	2454.49
424.887	2649.05
425.094	2782.17
425.302	2790.36
425.51	2804.69
425.718	2855.89
425.925	2915.28
426.133	3017.68
426.341	3165.14
426.548	3439.56
426.756	3427.28
426.964	3394.51
427.171	3601.35
427.379	3699.66
427.586	3795.91
427.794	3791.81
428.001	4074.43
428.209	4197.31
428.417	4127.68
428.624	4672.44
428.832	4500.41
429.039	4496.32
429.247	4477.88
429.454	4934.58
429.662	5186.48
429.869	4813.75
430.076	5237.68
430.284	4961.2
430.491	5356.46
430.699	5561.26
430.906	5534.64
431.114	5669.8
431.321	5839.78
431.528	6007.72
431.736	6220.71
431.943	6726.55
432.15	6437.79
432.358	6544.28
432.565	6851.48
432.772	6794.14
432.979	7158.67
433.187	7459.73
433.394	7138.2
433.601	7697.29
433.808	7852.94
434.016	7936.9
434.223	8092.55
434.43	8379.26
434.637	8579.97
434.844	9040.76
435.052	9100.15
435.259	9104.25
435.466	9192.31
435.673	8911.74
435.88	9661.29
436.087	10376.03
436.294	10222.44
436.501	9909.1
436.708	10042.21
436.915	10476.38
437.122	11064.15
437.329	10845.02
437.537	11250.52
437.743	11428.69
437.95	11397.97
438.157	11873.1
438.364	12307.27
438.571	12645.18
438.778	12350.28
438.985	13671.22
439.192	13216.57
439.399	13364.02
439.606	12958.52
439.813	14045.99
440.02	14842.65
440.227	14600.99
440.433	14301.99
440.64	14719.78
440.847	14879.52
441.054	15090.46
441.261	16255.75
441.467	15821.58
441.674	16345.86
441.881	16618.24
442.088	16595.71
442.294	16691.97
442.501	17234.68
442.708	17419
442.914	17912.56
443.121	18854.62
443.328	18084.59
443.534	19573.46
443.741	18727.65
443.948	18766.56
444.154	19995.34
444.361	20046.54
444.568	20153.04
444.774	20091.6
444.981	20363.98
445.187	20902.59
445.394	21648.05
445.6	21514.94
445.807	23478.94
446.013	22641.32
446.22	22731.43
446.426	24058.51
446.633	24064.66
446.839	24572.55
447.046	23825.04
447.252	25107.07
447.459	25031.3
447.665	25246.33
447.871	25983.6
448.078	27130.47
448.284	25844.34
448.491	26704.49
448.697	27759.19
448.903	28314.19
449.11	28230.23
449.316	27621.98
449.522	28138.07
449.728	29067.84
449.935	29205.06
450.141	29254.21
450.347	30175.8
450.553	29389.38
450.76	29672
450.966	30376.5
451.172	30163.51
451.378	30921.26
451.584	29946.42
451.791	30929.45
451.997	30939.69
452.203	31336.99
452.409	31601.18
452.615	31140.39
452.821	29993.53
453.027	30169.65
453.233	31177.25
453.44	30059.06
453.646	30497.33
453.852	30607.92
454.058	31478.3
454.264	30165.56
454.47	31197.73
454.676	30075.45
454.882	31296.03
455.088	28041.81
455.294	29092.42
455.5	29418.05
455.705	29534.78
455.911	28410.45
456.117	27869.78
456.323	27669.08
456.529	26217.07
456.735	27243.1
456.941	26780.26
457.147	26184.3
457.352	25383.55
457.558	25549.43
457.764	25375.36
457.97	24588.94
458.176	24257.17
458.381	24259.21
458.587	22708.9
458.793	22964.9
458.999	21590.71
459.204	23284.38
459.41	22801.06
459.616	21258.94
459.821	21160.64
460.027	21363.39
460.233	20767.43
460.438	19608.28
460.644	19987.15
460.85	19016.41
461.055	18799.33
461.261	18688.74
461.466	17117.95
461.672	16696.07
461.878	17814.26
462.083	16804.61
462.289	16591.62
462.494	16333.57
462.7	15694.61
462.905	15217.43
463.111	15670.03
463.316	15661.84
463.522	15514.39
463.727	15569.68
463.932	15530.77
464.138	15063.83
464.343	15307.54
464.549	14891.8
464.754	15211.29
464.959	15155.99
465.165	15016.73
465.37	14570.27
465.575	13886.25
465.781	14691.1
465.986	14605.09
466.191	14199.59
466.397	13751.09
466.602	13151.03
466.807	13714.22
467.012	13822.77
467.218	13712.17
467.423	13597.49
467.628	13292.34
467.833	14211.88
468.038	13810.48
468.244	12944.19
468.449	13718.32
468.654	13470.51
468.859	13294.39
469.064	12878.65
469.269	12520.26
469.474	12841.79
469.679	13140.79
469.885	12528.45
470.09	12671.81
470.295	12688.19
470.5	12323.65
470.705	12636.99
470.91	12190.53
471.115	12020.55
471.32	12258.12
471.525	12086.09
471.73	12016.46
471.935	11686.73
472.139	11451.22
472.344	11572.05
472.549	11201.37
472.754	11438.93
472.959	11180.89
473.164	11023.19
473.369	10908.51
473.574	11158.36
473.778	11127.64
473.983	11103.06
474.188	11002.71
474.393	10570.59
474.598	10466.14
474.802	10357.6
475.007	10263.4
475.212	10484.58
475.417	9919.34
475.621	10023.78
475.826	10081.13
476.031	9925.48
476.235	9540.46
476.44	10056.55
476.645	9534.32
476.849	9780.07
477.054	9517.93
477.259	9202.55
477.463	9212.79
477.668	9048.95
477.872	9141.11
478.077	9075.57
478.282	8854.39
478.486	8762.23
478.691	8723.32
478.895	8612.73
479.1	8868.73
479.304	8678.27
479.509	8356.74
479.713	8604.54
479.918	8178.56
480.122	8037.25
480.326	8424.32
480.531	8485.76
480.735	8301.44
480.94	8156.04
481.144	8598.4
481.348	8072.07
481.553	8260.48
481.757	7895.94
481.961	8076.16
482.166	8221.57
482.37	8074.12
482.574	8004.49
482.778	8041.35
482.983	8403.84
483.187	8199.04
483.391	8338.3
483.595	7963.53
483.8	7971.72
484.004	8295.3
484.208	8045.45
484.412	8057.73
484.616	7981.96
484.821	8166.28
485.025	7981.96
485.229	8100.74
485.433	7838.6
485.637	7949.19
485.841	7881.61
486.045	8018.82
486.249	8133.51
486.453	7986.05
486.657	7992.2
486.861	8104.84
487.065	7742.35
487.269	8016.77
487.473	7844.74
487.677	8033.16
487.881	8072.07
488.085	7895.94
488.289	8014.73
488.493	7924.62
488.697	8303.49
488.901	8094.6
489.105	7828.36
489.309	8326.02
489.512	8102.79
489.716	8133.51
489.92	8262.53
490.124	7973.77
490.328	8207.23
490.531	8344.45
490.735	8248.19
490.939	8315.78
491.143	8213.38
491.346	8362.88
491.55	8485.76
491.754	8414.08
491.958	8479.61
492.161	8416.13
492.365	8448.9
492.569	8319.87
492.772	8452.99
492.976	8690.56
493.18	8711.04
493.383	8627.07
493.587	8674.17
493.79	8852.34
493.994	8823.67
494.197	8694.65
494.401	8786.81
494.605	8944.5
494.808	9104.25
495.012	9104.25
495.215	9091.96
495.419	9182.07
495.622	9223.03
495.825	9284.47
496.029	9270.13
496.232	9540.46
496.436	9436.02
496.639	9583.47
496.843	9575.28
497.046	9907.05
497.249	10019.69
497.453	10001.26
497.656	10140.52
497.859	10206.05
498.063	10236.77
498.266	10421.09
498.469	10601.31
498.673	10453.86
498.876	10668.89
499.079	10849.11
499.282	10748.76
499.485	10998.62
499.689	10978.14
499.892	11035.48
500.095	11184.98
500.298	11447.12
500.501	11365.2
500.705	11692.88
500.908	11897.67
501.111	11987.79
501.314	12125
501.517	12192.58
501.72	12309.32
501.923	12309.32
502.126	12520.26
502.329	12636.99
502.532	12897.08
502.735	12944.19
502.938	12856.12
503.141	13138.74
503.344	13323.06
503.547	13390.64
503.75	13536.05
503.953	13617.97
504.156	13996.84
504.359	14213.93
504.562	14107.43
504.765	14435.11
504.968	14508.83
505.17	14820.13
505.373	14789.41
505.576	14930.72
505.779	15043.35
505.982	15164.18
506.185	15631.12
506.387	15510.29
506.59	15700.75
506.793	16032.52
506.996	16073.48
507.198	16276.23
507.401	16153.35
507.604	16511.75
507.807	16683.78
508.009	16784.13
508.212	16933.63
508.415	17171.19
508.617	17345.27
508.82	17421.05
509.022	17464.05
509.225	17791.73
509.428	17982.19
509.63	17926.89
509.833	18268.91
510.035	18672.36
510.238	18559.72
510.44	19034.85
510.643	19071.71
510.845	19210.97
511.048	19280.6
511.25	19413.72
511.453	19497.69
511.655	20280.01
511.858	20249.29
512.06	20435.66
512.262	20439.75
512.465	20486.86
512.667	20945.6
512.87	20814.53
513.072	21330.62
513.274	21390.01
513.477	21815.99
513.679	21865.14
513.881	22108.85
514.084	22129.33
514.286	22583.98
514.488	22530.73
514.69	23263.9
514.893	22981.28
515.095	23214.75
515.297	23231.13
515.499	23411.35
515.701	23999.12
515.904	24281.74
516.106	24443.53
516.308	24828.55
516.51	24816.26
516.712	25080.45
516.914	25129.6
517.116	25631.35
517.318	25508.47
517.52	25623.16
517.722	25670.26
517.925	26229.36
518.127	26466.92
518.329	26651.24
518.531	26401.39
518.733	27054.69
518.935	27454.05
519.136	27431.52
519.338	27703.9
519.54	27769.43
519.742	28070.48
519.944	28168.79
520.146	28756.55
520.348	28951.11
520.55	29078.08
520.752	29174.34
520.954	29594.17
521.155	29291.07
521.357	29807.16
521.559	30028.34
521.761	30571.05
521.963	30495.28
522.164	30382.64
522.366	30865.96
522.568	30997.03
522.77	31044.13
522.971	31588.89
523.173	31676.96
523.375	31754.78
523.576	31853.08
523.778	31767.07
523.98	32494.1
524.181	32496.14
524.383	32711.18
524.584	32991.75
524.786	33045
524.988	32746
525.189	33333.76
525.391	33542.66
525.592	33354.24
525.794	33800.7
525.995	33886.71
526.197	33825.28
526.398	34085.37
526.6	34259.45
526.801	34439.67
527.003	34251.25
527.204	34429.43
527.406	34886.12
527.607	34499.06
527.808	35166.7
528.01	34310.64
528.211	34595.31
528.412	35811.81
528.614	35404.26
528.815	35299.81
529.016	35760.61
529.218	35332.58
529.419	35693.02
529.62	35760.61
529.822	35666.4
530.023	35940.83
530.224	35844.57
530.425	36119
530.626	35641.82
530.828	35928.54
531.029	36352.47
531.23	36051.42
531.431	36043.23
531.632	36331.99
531.833	36340.18
532.035	36170.2
532.236	36635.09
532.437	36878.8
532.638	36245.97
532.839	36833.74
533.04	36772.3
533.241	36340.18
533.442	37149.13
533.643	36686.29
533.844	36557.27
534.045	36774.35
534.246	36270.55
534.447	36661.71
534.648	36424.15
534.849	36710.86
535.05	36764.11
535.251	36489.68
535.451	36491.73
535.652	37095.88
535.853	36596.18
536.054	36907.47
536.255	36819.41
536.456	36415.96
536.657	37130.7
536.857	36637.14
537.058	36778.45
537.259	36723.15
537.46	37077.45
537.66	36583.89
537.861	37153.23
538.062	36811.21
538.263	36790.73
538.463	36667.86
538.664	36405.72
538.865	37069.26
539.065	36755.92
539.266	36198.87
539.466	36919.76
539.667	36542.93
539.868	36960.72
540.068	36630.99
540.269	36303.32
540.469	37116.36
540.67	36436.44
540.87	36751.82
541.071	36561.36
541.271	37159.37
541.472	36616.66
541.672	36452.82
541.873	36485.59
542.073	36258.26
542.274	37022.16
542.474	36649.42
542.675	36278.74
542.875	37030.35
543.075	36635.09
543.276	36145.62
543.476	36958.67
543.676	36329.94
543.877	36817.36
544.077	37097.93
544.277	36338.13
544.478	36446.68
544.678	36635.09
544.878	36704.72
545.078	36493.78
545.279	36340.18
545.479	36379.09
545.679	36430.29
545.879	36395.48
546.079	36446.68
546.28	36143.58
546.48	36301.27
546.68	36633.04
546.88	36510.16
547.08	36641.23
547.28	36319.7
547.48	36078.04
547.68	36366.81
547.88	36436.44
548.081	36235.74
548.281	36301.27
548.481	36112.86
548.681	36481.49
548.881	36538.83
549.081	36207.06
549.28	36217.3
549.48	36264.41
549.68	35660.26
549.88	36471.25
550.08	35959.26
550.28	36104.67
550.48	36119
550.68	36600.27
550.88	36219.35
551.08	36164.06
551.279	36385.24
551.479	35733.98
551.679	36207.06
551.879	35963.36
552.079	36164.06
552.278	35969.5
552.478	35920.35
552.678	36321.75
552.878	36299.22
553.077	36123.1
553.277	35865.05
553.477	36080.09
553.676	35779.04
553.876	35779.04
554.076	35635.68
554.275	35615.2
554.475	35701.22
554.674	35693.02
554.874	35854.81
555.074	35584.48
555.273	35772.89
555.473	36217.3
555.672	35494.37
555.872	35727.84
556.071	35865.05
556.271	35795.42
556.47	35807.71
556.67	35111.4
556.869	35066.34
557.068	35690.98
557.268	35572.19
557.467	35525.09
557.667	35330.53
557.866	35453.41
558.065	35379.68
558.265	35187.18
558.464	34882.03
558.663	35295.72
558.863	34771.44
559.062	35666.4
559.261	34978.28
559.461	35197.41
559.66	34851.31
559.859	34644.46
560.058	34529.78
560.258	34710
560.457	34587.12
560.656	34976.23
560.855	34650.61
561.054	34847.21
561.253	34419.19
561.453	34327.03
561.652	34587.12
561.851	34494.96
562.05	34443.76
562.249	34292.21
562.448	34337.27
562.647	34218.49
562.846	34284.02
563.045	34044.41
563.244	33950.2
563.443	34179.57
563.642	33526.27
563.841	34005.5
564.04	33833.47
564.239	33886.71
564.438	33815.04
564.637	33919.48
564.836	33761.79
565.035	33446.4
565.234	33790.46
565.432	33141.25
565.631	32875.02
565.83	33262.08
566.029	33640.96
566.228	33272.32
566.427	32838.15
566.625	33010.18
566.824	32797.2
567.023	33335.81
567.222	32164.37
567.42	33294.85
567.619	32578.06
567.818	32971.27
568.016	32641.55
568.215	32881.16
568.414	32346.64
568.612	32807.44
568.811	32154.13
569.01	32768.52
569.208	31644.19
569.407	32506.38
569.605	31969.82
569.804	32762.38
570.002	31922.71
570.201	32100.89
570.4	32090.65
570.598	31623.71
570.797	31578.65
570.995	31511.07
571.193	31277.6
571.392	31988.25
571.59	31560.22
571.789	31531.55
571.987	31193.64
572.186	30947.88
572.384	31052.33
572.582	31142.44
572.781	31058.47
572.979	30775.85
573.177	30712.36
573.376	30949.93
573.574	30556.72
573.772	30880.3
573.971	30775.85
574.169	30290.48
574.367	30333.49
574.565	30657.07
574.763	30439.98
574.962	30425.65
575.16	29786.68
575.358	29999.67
575.556	29819.45
575.754	29995.57
575.952	29499.97
576.151	30333.49
576.349	29590.08
576.547	29764.15
576.745	29579.84
576.943	29565.5
577.141	29252.16
577.339	29678.14
577.537	29366.85
577.735	29317.7
577.933	28996.17
578.131	29241.92
578.329	28891.72
578.527	28566.09
578.725	28691.02
578.923	28762.7
579.121	28422.73
579.319	28619.34
579.516	28707.4
579.714	28731.98
579.912	28541.52
580.11	28246.61
580.308	28213.84
580.506	28293.71
580.704	27871.83
580.901	28162.64
581.099	27955.8
581.297	27957.85
581.495	27902.55
581.692	27847.26
581.89	27759.19
582.088	27808.34
582.285	27609.69
582.483	27859.54
582.681	27269.73
582.878	27380.32
583.076	27112.03
583.274	27527.77
583.471	26518.12
583.669	27038.31
583.866	26798.7
584.064	27046.5
584.262	26612.33
584.459	26839.65
584.657	26516.08
584.854	26911.33
585.052	26645.1
585.249	26710.63
585.447	26739.3
585.644	26249.84
585.841	26673.77
586.039	26587.75
586.236	25924.21
586.434	26239.6
586.631	26141.3
586.828	26016.37
587.026	25905.78
587.223	25717.37
587.42	25791.09
587.618	25877.11
587.815	25639.54
588.012	25553.53
588.21	25436.8
588.407	25318.01
588.604	25365.12
588.801	25342.59
588.999	25373.31
589.196	25379.45
589.393	25105.02
589.59	25031.3
589.787	24988.29
589.984	24711.81
590.182	24636.04
590.379	24754.82
590.576	24818.31
590.773	24672.9
590.97	24044.18
591.167	24707.72
591.364	24101.52
591.561	24558.22
591.758	24230.54
591.955	24195.73
592.152	24464.01
592.349	23814.8
592.546	23812.76
592.743	24160.91
592.94	23906.96
593.137	23886.48
593.334	24029.84
593.531	23704.21
593.727	23708.31
593.924	23792.28
594.121	23337.63
594.318	23696.02
594.515	23184.03
594.712	23431.83
594.908	23079.58
595.105	23098.02
595.302	23095.97
595.499	23491.23
595.696	22952.61
595.892	22868.64
596.089	22958.75
596.286	22756
596.482	22686.37
596.679	22586.02
596.876	22657.7
597.072	22379.18
597.269	22592.17
597.466	22182.57
597.662	22620.84
597.859	22502.06
598.055	22289.07
598.252	21873.33
598.448	21965.49
598.645	21994.16
598.841	21629.62
599.038	21947.06
599.234	21818.04
599.431	21680.82
599.627	21672.63
599.824	21592.76
600.02	21492.41
600.217	21486.26
600.413	21523.13
600.609	21607.09
600.806	21267.13
601.002	21412.54
601.198	21166.78
601.395	20869.83
601.591	20644.55
601.787	21168.83
601.984	20734.66
602.18	21072.57
602.376	20576.97
602.572	20839.11
602.769	20736.71
602.965	20208.33
603.161	20556.49
603.357	20427.46
603.553	20376.27
603.75	20753.09
603.946	20222.67
604.142	20591.3
604.338	19897.04
604.534	20353.74
604.73	19909.33
604.926	19948.24
605.122	20110.03
605.318	20085.45
605.514	19757.78
605.71	19641.04
605.906	19651.28
606.102	19808.98
606.298	19639
606.494	19591.89
606.69	19440.34
606.886	19587.8
607.082	19342.04
607.278	19761.87
607.474	19145.44
607.67	19319.51
607.866	19116.76
608.062	19387.1
608.257	19161.82
608.453	19198.68
608.649	19288.79
608.845	18936.54
609.041	19112.67
609.236	19278.55
609.432	18664.16
609.628	18977.5
609.824	18711.27
610.019	18688.74
610.215	18830.05
610.411	18848.48
610.606	18713.31
610.802	18586.34
610.998	18713.31
611.193	18516.71
611.389	18338.54
611.584	18377.45
611.78	18313.96
611.976	18578.15
612.171	18477.8
612.367	18447.08
612.562	18393.83
612.758	18244.33
612.953	18103.02
613.149	18307.82
613.344	17928.94
613.539	18256.62
613.735	17937.13
613.93	17904.37
614.126	17820.4
614.321	18229.99
614.517	18021.1
614.712	17890.03
614.907	17967.85
615.103	17820.4
615.298	17709.81
615.493	18103.02
615.688	17525.49
615.884	17885.94
616.079	17580.79
616.274	17668.85
616.47	17552.12
616.665	17644.27
616.86	17652.47
617.055	17578.74
617.25	17386.23
617.445	17359.61
617.641	17324.79
617.836	17513.2
618.031	17173.24
618.226	17210.11
618.421	16878.33
618.616	17185.53
618.811	16605.95
619.006	17109.75
619.201	16636.67
619.396	16734.98
619.591	16700.16
619.786	16575.24
619.981	16304.9
620.176	16759.55
620.371	16698.11
620.566	16440.07
620.761	16513.8
620.956	16415.49
621.151	16089.87
621.346	16239.37
621.541	15938.32
621.735	16210.7
621.93	15971.08
622.125	15797.01
622.32	15780.62
622.515	15751.95
622.709	15395.61
622.904	15481.62
623.099	15340.31
623.294	15473.43
623.488	15305.49
623.683	15457.04
623.878	15256.34
624.072	15246.1
624.267	14994.2
624.462	15125.27
624.656	15061.79
624.851	14818.08
625.046	14867.23
625.24	14512.93
625.435	14625.57
625.629	14261.03
625.824	14433.06
626.018	14291.75
626.213	14117.67
626.407	14279.46
626.602	13804.33
626.796	14078.76
626.991	14080.81
627.185	13984.55
627.38	13802.29
627.574	13790
627.768	13642.54
627.963	13626.16
628.157	13292.34
628.352	13251.38
628.546	13355.83
628.74	13269.81
628.935	13282.1
629.129	13189.94
629.323	12931.9
629.517	13093.69
629.712	13095.74
629.906	12870.46
630.1	12657.47
630.294	12684.09
630.489	12561.22
630.683	12669.76
630.877	12372.8
631.071	12718.91
631.265	12532.54
631.459	12366.66
631.653	12393.28
631.848	12151.62
632.042	12215.11
632.236	12323.65
632.43	12106.57
632.624	12196.68
632.818	11778.89
633.012	11938.63
633.206	11922.25
633.4	11928.39
633.594	11758.41
633.788	11709.26
633.982	11582.29
634.176	11703.12
634.369	11520.85
634.563	11445.07
634.757	11303.76
634.951	11336.53
635.145	11322.2
635.339	11660.11
635.533	11062.1
635.726	11025.24
635.92	10881.88
636.114	10820.44
636.308	10654.56
636.501	10797.92
636.695	10670.94
636.889	10808.16
637.083	10490.72
637.276	10595.17
637.47	10611.55
637.664	10404.71
637.857	10615.65
638.051	10392.42
638.244	10308.45
638.438	10529.63
638.632	10294.11
638.825	10181.48
639.019	10007.4
639.212	10124.13
639.406	10025.83
639.599	9972.58
639.793	9905
639.986	9898.86
640.18	9915.24
640.373	9587.57
640.567	9526.13
640.76	9784.17
640.954	9585.52
641.147	9610.09
641.34	9433.97
641.534	9507.69
641.727	9229.17
641.92	9573.23
642.114	9204.6
642.307	9169.78
642.5	9284.47
642.694	8858.49
642.887	8956.79
643.08	9229.17
643.273	8991.61
643.467	9061.24
643.66	9061.24
643.853	8784.76
644.046	8907.64
644.239	8588.16
644.432	8885.11
644.626	8713.08
644.819	8534.91
645.012	8708.99
645.205	8440.7
645.398	8508.29
645.591	8571.77
645.784	8463.23
645.977	8412.03
646.17	8362.88
646.363	8321.92
646.556	8080.26
646.749	8057.73
646.942	8108.93
647.135	8012.68
647.328	8178.56
647.521	8217.47
647.714	8041.35
647.907	7992.2
648.099	7846.79
648.292	7965.57
648.485	7887.75
648.678	7742.35
648.871	7613.32
649.064	7730.06
649.256	7760.78
649.449	7601.04
649.642	7494.54
649.835	7529.36
650.027	7424.91
650.22	7461.77
650.413	7457.68
650.605	7472.01
650.798	7293.84
650.991	7297.94
651.183	7271.31
651.376	7062.42
651.568	7267.22
651.761	6919.06
651.954	7156.63
652.146	7164.82
652.339	7076.76
652.531	6925.21
652.724	7027.6
652.916	7084.95
653.109	6704.03
653.301	6808.47
653.494	6851.48
653.686	6714.27
653.879	6964.12
654.071	6712.22
654.263	6646.68
654.456	6779.8
654.648	6634.39
654.84	6519.71
655.033	6523.8
655.225	6544.28
655.417	6482.85
655.61	6439.84
655.802	6554.52
655.994	6417.31
656.186	6265.76
656.379	6366.11
656.571	6310.82
656.763	6280.1
656.955	6290.34
657.148	6116.26
657.34	6159.27
657.532	6204.32
657.724	6200.23
657.916	6097.83
658.108	5938.09
658.3	5915.56
658.492	5880.74
658.684	5886.89
658.876	6036.39
659.068	5929.89
659.26	5804.97
659.452	5794.73
659.644	5862.31
659.836	5921.7
660.028	5821.35
660.22	5901.22
660.412	5671.85
660.604	5628.84
660.796	5649.32
660.988	5598.12
661.18	5581.74
661.372	5544.88
661.563	5487.53
661.755	5508.01
661.947	5508.01
662.139	5548.97
662.331	5340.08
662.522	5305.26
662.714	5440.43
662.906	5174.19
663.097	5178.29
663.289	5352.37
663.481	5415.85
663.673	5249.97
663.864	5243.82
664.056	5163.95
664.247	5209.01
664.439	5127.09
664.631	5204.91
664.822	4983.73
665.014	4934.58
665.205	5051.31
665.397	4797.37
665.588	5082.03
665.78	4989.88
665.971	5139.38
666.163	4926.39
666.354	4979.64
666.546	4733.88
666.737	4877.24
666.929	4780.98
667.12	4838.33
667.311	4764.6
667.503	4670.39
667.694	4719.54
667.885	4682.68
668.077	4690.87
668.268	4682.68
668.459	4635.58
668.651	4701.11
668.842	4594.62
669.033	4639.67
669.224	4598.71
669.416	4600.76
669.607	4484.03
669.798	4590.52
669.989	4586.43
670.18	4561.85
670.371	4520.89
670.563	4451.26
670.754	4479.93
670.945	4455.36
671.136	4467.64
671.327	4451.26
671.518	4467.64
671.709	4512.7
671.9	4414.4
672.091	4312
672.282	4385.73
672.473	4289.47
672.664	4430.78
672.855	4221.89
673.046	4314.05
673.237	4201.41
673.428	4103.11
673.619	4428.73
673.809	4312
674	4338.62
674.191	4250.56
674.382	4029.38
674.573	4156.35
674.764	4180.93
674.954	4273.09
675.145	4058.05
675.336	4209.6
675.527	3969.99
675.717	4123.59
675.908	3951.56
676.099	4215.74
676.289	4060.1
676.48	4111.3
676.671	3875.78
676.861	4107.2
677.052	4086.72
677.243	3947.46
677.433	3816.39
677.624	3994.56
677.814	3906.5
678.005	3986.37
678.195	4103.11
678.386	3984.32
678.576	3875.78
678.767	3857.35
678.957	3918.79
679.148	3871.68
679.338	3939.27
679.529	3963.84
679.719	3922.88
679.909	3978.18
680.1	3863.49
680.29	4017.09
680.481	3904.45
680.671	3902.4
680.861	3873.73
681.052	3920.84
681.242	3746.76
681.432	3820.49
681.622	3738.57
681.813	3845.06
682.003	3871.68
682.193	3896.26
682.383	3871.68
682.573	3847.11
682.764	3812.29
682.954	3814.34
683.144	3746.76
683.334	3713.99
683.524	3728.33
683.714	3757
683.904	3644.36
684.094	3697.61
684.284	3761.09
684.474	3732.42
684.664	3673.03
684.854	3589.07
685.044	3648.46
685.234	3734.47
685.424	3754.95
685.614	3763.14
685.804	3636.17
685.994	3623.88
686.184	3662.79
686.374	3691.46
686.564	3730.38
686.753	3599.31
686.943	3533.77
687.133	3517.39
687.323	3458
687.513	3552.2
687.702	3509.19
687.892	3460.04
688.082	3587.02
688.272	3470.28
688.461	3439.56
688.651	3462.09
688.841	3443.66
689.03	3361.74
689.22	3369.93
689.41	3513.29
689.599	3369.93
689.789	3361.74
689.979	3279.82
690.168	3337.17
690.358	3322.83
690.547	3279.82
690.737	3288.01
690.926	3281.87
691.116	3275.73
691.305	3238.86
691.495	3105.74
691.684	3101.65
691.874	3044.31
692.063	3146.7
692.252	3107.79
692.442	3230.67
692.631	3242.96
692.82	3083.22
693.01	2968.53
693.199	3173.33
693.388	3091.41
693.578	3113.94
693.767	3025.87
693.956	3027.92
694.146	3068.88
694.335	3062.74
694.524	2976.72
694.713	3036.11
694.902	3034.07
695.092	3085.26
695.281	3007.44
695.47	3046.35
695.659	3005.39
695.848	2968.53
696.037	2960.34
696.226	2950.1
696.415	2935.76
696.604	2943.96
696.793	2956.24
696.982	2956.24
697.171	2937.81
697.36	2892.76
697.549	2876.37
697.738	2819.03
697.927	2878.42
698.116	2804.69
698.305	2882.52
698.494	2888.66
698.683	2894.8
698.872	2804.69
699.061	2864.08
699.25	2798.55
699.438	2892.76
699.627	2864.08
699.816	2714.58
700.005	2812.89
700.193	2786.26
700.382	2890.71
700.571	2735.06
700.76	2796.5
700.948	2911.19
701.137	2800.6
701.326	2778.07
701.514	2739.16
701.703	2773.97
701.892	2831.32
702.08	2722.77
702.269	2802.65
702.457	2741.21
702.646	2718.68
702.834	2636.76
703.023	2737.11
703.212	2759.64
703.4	2757.59
703.589	2616.28
703.777	2644.95
703.965	2780.12
704.154	2706.39
704.342	2649.05
704.531	2620.38
704.719	2653.14
704.907	2751.45
705.096	2675.67
705.284	2749.4
705.472	2677.72
705.661	2716.63
705.849	2692.05
706.037	2616.28
706.226	2749.4
706.414	2593.75
706.602	2683.86
706.79	2577.37
706.979	2683.86
707.167	2681.82
707.355	2593.75
707.543	2544.6
707.731	2677.72
707.919	2681.82
708.107	2546.65
708.296	2753.49
708.484	2507.74
708.672	2597.85
708.86	2583.51
709.048	2653.14
709.236	2591.7
709.424	2632.66
709.612	2612.18
709.8	2569.18
709.988	2534.36
710.176	2665.43
710.364	2573.27
710.551	2597.85
710.739	2554.84
710.927	2595.8
711.115	2636.76
711.303	2624.47
711.491	2563.03
711.679	2601.94
711.866	2667.48
712.054	2630.62
712.242	2524.12
712.43	2632.66
712.617	2534.36
712.805	2575.32
712.993	2571.22
713.181	2399.2
713.368	2454.49
713.556	2489.31
713.744	2434.01
713.931	2503.64
714.119	2536.41
714.306	2522.07
714.494	2554.84
714.682	2569.18
714.869	2497.5
715.057	2606.04
715.244	2403.29
715.432	2542.55
715.619	2436.06
715.807	2407.39
715.994	2483.16
716.182	2468.83
716.369	2460.63
716.556	2487.26
716.744	2411.48
716.931	2595.8
717.119	2657.24
717.306	2489.31
717.493	2415.58
717.681	2524.12
717.868	2462.68
718.055	2513.88
718.242	2520.03
718.43	2450.39
718.617	2560.98
718.804	2505.69
718.991	2565.08
719.179	2444.25
719.366	2524.12
719.553	2489.31
719.74	2438.11
719.927	2370.52
720.114	2456.54
720.301	2501.59
720.488	2378.72
720.676	2460.63
720.863	2397.15
721.05	2450.39
721.237	2456.54
721.424	2497.5
721.611	2290.65
721.798	2348
721.985	2231.26
722.172	2329.56
722.358	2470.87
722.545	2399.2
722.732	2366.43
722.919	2386.91
723.106	2321.37
723.293	2341.85
723.48	2454.49
723.667	2419.68
723.853	2388.96
724.04	2446.3
724.227	2395.1
724.414	2380.76
724.6	2298.84
724.787	2261.98
724.974	2403.29
725.161	2270.17
725.347	2288.61
725.534	2264.03
725.72	2423.77
725.907	2397.15
726.094	2397.15
726.28	2302.94
726.467	2485.21
726.653	2251.74
726.84	2337.76
727.027	2460.63
727.213	2253.79
727.4	2302.94
727.586	2343.9
727.773	2339.8
727.959	2280.41
728.145	2329.56
728.332	2212.83
728.518	2298.84
728.705	2364.38
728.891	2378.72
729.077	2386.91
729.264	2317.28
729.45	2331.61
729.636	2300.89
729.823	2206.69
730.009	2393.05
730.195	2284.51
730.382	2261.98
730.568	2339.8
730.754	2259.93
730.94	2266.08
731.126	2290.65
731.313	2253.79
731.499	2249.69
731.685	2284.51
731.871	2331.61
732.057	2411.48
732.243	2233.31
732.429	2255.84
732.615	2227.17
732.801	2337.76
732.987	2206.69
733.173	2175.97
733.359	2282.46
733.545	2296.8
733.731	2280.41
733.917	2235.36
734.103	2302.94
734.289	2243.55
734.475	2259.93
734.661	2362.33
734.847	2268.13
735.033	2157.54
735.219	2137.06
735.404	2239.45
735.59	2257.89
735.776	2253.79
735.962	2233.31
736.148	2214.88
736.333	2280.41
736.519	2223.07
736.705	2221.02
736.89	2337.76
737.076	2200.54
737.262	2116.58
737.447	2225.12
737.633	2178.01
737.819	2264.03
738.004	2198.49
738.19	2112.48
738.375	2149.34
738.561	2190.3
738.747	2126.82
738.932	2083.81
739.118	2116.58
739.303	2192.35
739.489	2149.34
739.674	2071.52
739.859	2036.7
740.045	2118.62
740.23	2085.86
740.416	2100.19
740.601	2155.49
740.786	2137.06
740.972	2059.23
741.157	2135.01
741.342	1989.6
741.528	1903.59
741.713	2147.3
741.898	2055.14
742.084	2044.9
742.269	2075.62
742.454	2132.96
742.639	2137.06
742.824	1956.83
743.01	1883.11
743.195	1987.55
743.38	2016.23
743.565	1997.79
743.75	2051.04
743.935	1919.97
744.12	2044.9
744.305	1956.83
744.49	1919.97
744.675	1979.36
744.86	1924.07
745.045	1915.87
745.23	1938.4
745.415	1944.55
745.6	1870.82
745.785	1887.2
745.97	1760.23
746.155	1954.79
746.34	1846.24
746.525	1831.91
746.71	1846.24
746.895	1700.84
747.079	1780.71
747.264	1801.19
747.449	1758.18
747.634	1811.43
747.819	1747.94
748.003	1709.03
748.188	1668.07
748.373	1713.13
748.557	1762.28
748.742	1745.89
748.927	1676.26
749.111	1616.87
749.296	1743.85
749.481	1745.89
749.665	1682.41
749.85	1608.68
750.034	1690.6
750.219	1651.69
750.404	1651.69
750.588	1592.3
750.773	1649.64
750.957	1473.51
751.141	1608.68
751.326	1551.34
751.51	1498.09
751.695	1477.61
751.879	1543.14
752.064	1512.42
752.248	1520.62
752.432	1524.71
752.617	1502.19
752.801	1477.61
752.985	1477.61
753.17	1627.11
753.354	1455.08
753.538	1405.93
753.722	1326.06
753.907	1420.27
754.091	1311.72
754.275	1418.22
754.459	1379.31
754.643	1375.21
754.828	1393.64
755.012	1344.49
755.196	1334.25
755.38	1346.54
755.564	1299.44
755.748	1248.24
755.932	1334.25
756.116	1405.93
756.3	1250.28
756.484	1233.9
756.668	1207.28
756.852	1199.09
757.036	1321.96
757.22	1274.86
757.404	1182.7
757.588	1194.99
757.772	1313.77
757.956	1274.86
758.14	1190.89
758.323	1162.22
758.507	1164.27
758.691	1115.12
758.875	1139.69
759.059	1264.62
759.242	1168.37
759.426	1111.02
759.61	1119.21
759.794	1125.36
759.977	1076.21
760.161	1194.99
760.345	1070.06
760.528	1096.69
760.712	1076.21
760.895	1018.86
761.079	1018.86
761.263	1076.21
761.446	1061.87
761.63	1086.45
761.813	1119.21
761.997	1027.06
762.18	1020.91
762.364	1108.98
762.547	1027.06
762.731	1041.39
762.914	1031.15
763.098	891.89
763.281	1068.02
763.464	1012.72
763.648	982
763.831	1012.72
764.015	928.75
764.198	1012.72
764.381	924.66
764.564	988.14
764.748	961.52
764.931	994.29
765.114	977.91
765.297	887.79
765.481	1012.72
765.664	949.23
765.847	928.75
766.03	963.57
766.213	971.76
766.397	963.57
766.58	928.75
766.763	920.56
766.946	822.26
767.129	846.84
767.312	881.65
767.495	949.23
767.678	805.88
767.861	869.36
768.044	822.26
768.227	947.19
768.41	828.4
768.593	928.75
768.776	889.84
768.959	893.94
769.142	844.79
769.324	891.89
769.507	832.5
769.69	832.5
769.873	838.64
770.056	889.84
770.239	898.03
770.421	779.25
770.604	879.6
770.787	787.44
770.97	766.96
771.152	834.55
771.335	748.53
771.518	709.62
771.7	809.97
771.883	830.45
772.066	797.68
772.248	789.49
772.431	791.54
772.613	822.26
772.796	738.29
772.978	840.69
773.161	822.26
773.343	728.05
773.526	734.2
773.708	764.92
773.891	689.14
774.073	711.67
774.256	680.95
774.438	699.38
774.621	646.13
774.803	605.17
774.985	715.77
775.168	734.2
775.35	674.81
775.532	576.5
775.715	607.22
775.897	680.95
776.079	633.85
776.261	709.62
776.444	560.12
776.626	625.65
776.808	578.55
776.99	650.23
777.173	650.23
777.355	635.89
777.537	568.31
777.719	545.78
777.901	543.74
778.083	549.88
778.265	637.94
778.447	658.42
778.629	568.31
778.811	592.89
778.993	687.09
779.175	646.13
779.357	547.83
779.539	551.93
779.721	625.65
779.903	605.17
780.085	523.26
780.267	578.55
780.449	461.82
780.631	580.6
780.812	541.69
780.994	560.12
781.176	492.54
781.358	539.64
781.54	539.64
781.721	541.69
781.903	562.17
782.085	504.82
782.267	480.25
782.448	478.2
782.63	424.95
782.812	476.15
782.993	449.53
783.175	543.74
783.357	453.63
783.538	504.82
783.72	510.97
783.901	396.28
784.083	414.71
784.264	504.82
784.446	455.67
784.627	363.51
784.809	504.82
784.99	496.63
785.172	455.67
785.353	453.63
785.535	486.39
785.716	410.62
785.897	478.2
786.079	437.24
786.26	441.34
786.441	375.8
786.623	318.46
786.804	420.86
786.985	443.39
787.167	381.95
787.348	396.28
787.529	408.57
787.71	373.75
787.891	359.42
788.073	314.36
788.254	422.91
788.435	437.24
788.616	349.18
788.797	357.37
788.978	302.08
789.159	386.04
789.34	375.8
789.522	291.84
789.703	336.89
789.884	357.37
790.065	285.69
790.246	324.6
790.427	281.6
790.607	424.95
790.788	392.19
790.969	259.07
791.15	306.17
791.331	416.76
791.512	383.99
791.693	312.32
791.874	330.75
792.054	322.56
792.235	330.75
792.416	230.4
792.597	302.08
792.778	267.26
792.958	328.7
793.139	234.49
793.32	353.27
793.5	250.88
793.681	287.74
793.862	289.79
794.042	295.93
794.223	232.44
794.404	259.07
794.584	265.21
794.765	281.6
794.945	345.08
795.126	310.27
795.306	302.08
795.487	332.79
795.667	232.44
795.848	250.88
796.028	322.56
796.209	310.27
796.389	326.65
796.57	265.21
796.75	203.77
796.93	232.44
797.111	244.73
797.291	259.07
797.471	228.35
797.652	281.6
797.832	162.81
798.012	308.22
798.192	254.97
798.373	222.2
798.553	277.5
798.733	226.3
798.913	234.49
799.093	267.26
799.274	195.58
799.454	275.45
799.634	257.02
799.814	220.16
799.994	254.97
800.174	271.36
800.354	283.64
800.534	238.59
800.714	164.86
800.894	156.67
801.074	281.6
801.254	252.92
801.434	248.83
801.614	158.72
801.794	142.33
801.974	740.34
802.154	244.73
802.334	179.2
802.514	257.02
802.693	218.11
802.873	148.48
803.053	257.02
803.233	175.1
803.413	220.16
803.592	158.72
803.772	142.33
803.952	216.06
804.131	193.53
804.311	248.83
804.491	183.29
804.67	199.68
804.85	160.77
805.03	183.29
805.209	246.78
805.389	168.96
805.568	207.87
805.748	185.34
805.928	103.42
806.107	240.64
806.287	185.34
806.466	193.53
806.646	179.2
806.825	158.72
807.004	148.48
807.184	158.72
807.363	257.02
807.543	166.91
807.722	138.24
807.901	205.82
808.081	166.91
808.26	128
808.439	142.33
808.619	173.05
808.798	205.82
808.977	265.21
809.156	179.2
809.336	128
809.515	226.3
809.694	222.2
809.873	117.76
810.052	191.49
810.231	275.45
810.411	142.33
810.59	166.91
810.769	142.33
810.948	117.76
811.127	171.01
811.306	158.72
811.485	78.85
811.664	121.85
811.843	113.66
812.022	168.96
812.201	193.53
812.38	136.19
812.559	164.86
812.737	199.68
812.916	105.47
813.095	171.01
813.274	130.05
813.453	150.53
813.632	128
813.811	166.91
813.989	64.51
814.168	136.19
814.347	166.91
814.526	125.95
814.704	125.95
814.883	187.39
815.062	140.29
815.24	207.87
815.419	74.75
815.598	117.76
815.776	119.81
815.955	128
816.133	117.76
816.312	46.08
816.49	29.7
816.669	134.14
816.847	107.52
817.026	158.72
817.204	136.19
817.383	128
817.561	130.05
817.74	152.57
817.918	113.66
818.097	101.37
818.275	113.66
818.453	197.63
818.632	160.77
818.81	111.61
818.988	113.66
819.167	130.05
819.345	154.62
819.523	134.14
819.701	144.38
819.879	158.72
820.058	125.95
820.236	97.28
820.414	56.32
820.592	103.42
820.77	76.8
820.948	93.18
821.127	140.29
821.305	207.87
821.483	93.18
821.661	181.25
821.839	150.53
822.017	21.5
822.195	89.09
822.373	152.57
822.551	99.33
822.729	54.27
822.907	74.75
823.085	121.85
823.262	185.34
823.44	-19.46
823.618	78.85
823.796	74.75
823.974	70.65
824.152	130.05
824.329	93.18
824.507	134.14
824.685	58.37
824.863	177.15
825.04	76.8
825.218	74.75
825.396	60.42
825.574	80.89
825.751	109.57
825.929	95.23
826.107	5.12
826.284	93.18
826.462	103.42
826.639	95.23
826.817	72.7
826.994	76.8
827.172	84.99
827.349	87.04
827.527	60.42
827.704	125.95
827.882	177.15
828.059	150.53
828.237	105.47
828.414	68.61
828.591	39.94
828.769	183.29
828.946	48.13
829.124	103.42
829.301	74.75
829.478	29.7
829.655	44.03
829.833	82.94
830.01	23.55
830.187	160.77
830.364	44.03
830.542	54.27
830.719	144.38
830.896	168.96
831.073	70.65
831.25	93.18
831.427	68.61
831.604	44.03
831.782	7.17
831.959	54.27
832.136	7.17
832.313	125.95
832.49	68.61
832.667	89.09
832.844	23.55
833.021	97.28
833.198	119.81
833.374	31.74
833.551	123.9
833.728	3.07
833.905	54.27
834.082	109.57
834.259	119.81
834.436	95.23
834.612	76.8
834.789	54.27
834.966	60.42
835.143	50.18
835.319	93.18
835.496	78.85
835.673	128
835.85	168.96
836.026	80.89
836.203	76.8
836.38	39.94
836.556	66.56
836.733	84.99
836.909	125.95
837.086	35.84
837.262	44.03
837.439	105.47
837.616	64.51
837.792	29.7
837.968	-13.31
838.145	62.46
838.321	68.61
838.498	37.89
838.674	195.58
838.851	21.5
839.027	-13.31
839.203	121.85
839.38	109.57
839.556	3.07
839.732	54.27
839.909	11.26
840.085	78.85
840.261	31.74
840.437	103.42
840.614	46.08
840.79	13.31
840.966	46.08
841.142	39.94
841.318	-5.12
841.494	52.22
841.671	89.09
841.847	11.26
842.023	50.18
842.199	87.04
842.375	56.32
842.551	7.17
842.727	23.55
842.903	101.37
843.079	70.65
843.255	97.28
843.431	44.03
843.607	105.47
843.783	27.65
843.959	52.22
844.134	3.07
844.31	97.28
844.486	27.65
844.662	109.57
844.838	70.65
845.013	87.04
845.189	-5.12
845.365	80.89
845.541	95.23
845.716	7.17
845.892	128
846.068	-7.17
846.244	-3.07
846.419	35.84
846.595	52.22
846.77	27.65
846.946	76.8
847.122	80.89
847.297	37.89
847.473	60.42
847.648	33.79
847.824	52.22
847.999	29.7
848.175	89.09
848.35	54.27
848.526	35.84
848.701	44.03
848.876	-19.46
849.052	64.51
849.227	78.85
849.403	60.42
849.578	146.43
849.753	-64.51
849.929	60.42
850.104	-1.02
850.279	84.99
850.454	11.26
850.63	44.03
850.805	76.8
850.98	60.42
851.155	23.55
851.33	44.03
851.505	-25.6
851.681	3.07
851.856	99.33
852.031	68.61
852.206	72.7
852.381	39.94
852.556	31.74
852.731	13.31
852.906	33.79
853.081	-5.12
853.256	62.46
853.431	-70.65
853.606	25.6
853.781	17.41
853.956	-1.02
854.131	3.07
854.305	-48.13
854.48	31.74
854.655	48.13
854.83	27.65
855.005	9.22
855.18	7.17
855.354	46.08
855.529	19.46
855.704	-21.5
855.879	76.8
856.053	21.5
856.228	17.41
856.403	31.74
856.577	72.7
856.752	-21.5
856.926	109.57
857.101	5.12
857.276	23.55
857.45	87.04
857.625	29.7
857.799	41.98
857.974	54.27
858.148	3.07
858.323	103.42
858.497	-11.26
858.672	-31.74
858.846	27.65
859.02	48.13
859.195	70.65
859.369	15.36
859.543	48.13
859.718	3.07
859.892	56.32
860.066	89.09
860.241	35.84
860.415	-41.98
860.589	-11.26
860.763	-1.02
860.938	19.46
861.112	7.17
861.286	13.31
861.46	48.13
861.634	3.07
861.808	68.61
861.982	41.98
862.157	11.26
862.331	-44.03
862.505	-39.94
862.679	-23.55
862.853	29.7
863.027	-3.07
863.201	103.42
863.375	25.6
863.549	52.22
863.722	97.28
863.896	11.26
864.07	-46.08
864.244	82.94
864.418	103.42
864.592	-23.55
864.766	3.07
864.939	5.12
865.113	5.12
865.287	-27.65
865.461	-54.27
865.634	44.03
865.808	56.32
865.982	19.46
866.156	3.07
866.329	-1.02
866.503	-21.5
866.676	17.41
866.85	-5.12
867.024	-11.26
867.197	15.36
867.371	-5.12
867.544	-5.12
867.718	-82.94
867.891	97.28
868.065	-37.89
868.238	-37.89
868.412	56.32
868.585	46.08
868.759	-21.5
868.932	-9.22
869.105	-33.79
869.279	19.46
869.452	13.31
869.625	-29.7
869.799	37.89
869.972	-29.7
870.145	35.84
870.319	80.89
870.492	80.89
870.665	-46.08
870.838	11.26
871.011	39.94
871.185	72.7
871.358	-23.55
871.531	62.46
871.704	41.98
871.877	-29.7
872.05	11.26
872.223	70.65
872.396	27.65
872.569	84.99
872.742	37.89
872.915	13.31
873.088	-5.12
873.261	7.17
873.434	99.33
873.607	-27.65
873.78	95.23
873.953	-13.31
874.126	87.04
874.299	66.56
874.471	21.5
874.644	56.32
874.817	54.27
874.99	25.6
875.163	-17.41
875.335	64.51
875.508	-25.6
875.681	105.47
875.853	-91.13
876.026	-27.65
876.199	-5.12
876.371	56.32
876.544	48.13
876.717	70.65
876.889	11.26
877.062	3.07
877.234	-13.31
877.407	7.17
877.579	11.26
877.752	-11.26
877.924	-1.02
878.097	-37.89
878.269	-13.31
878.442	-13.31
878.614	99.33
878.786	9.22
878.959	-44.03
879.131	64.51
879.303	31.74
879.476	-13.31
879.648	3.07
879.82	-46.08
879.993	11.26
880.165	-62.46
880.337	31.74
880.509	35.84
880.681	-11.26
880.854	3.07
881.026	33.79
881.198	39.94
881.37	109.57
881.542	58.37
881.714	-17.41
881.886	-7.17
882.058	-5.12
882.23	21.5
882.402	-21.5
882.574	3.07
882.746	52.22
882.918	74.75
883.09	68.61
883.262	-13.31
883.434	-11.26
883.606	5.12
883.778	-11.26
883.95	5.12
884.122	15.36
884.293	60.42
884.465	-50.18
884.637	17.41
884.809	37.89
884.98	-37.89
885.152	37.89
885.324	-11.26
885.496	-1.02
885.667	35.84
885.839	11.26
886.011	60.42
886.182	-62.46
886.354	5.12
886.525	13.31
886.697	7.17
886.869	-68.61
887.04	27.65
887.212	101.37
887.383	19.46
887.555	-35.84
887.726	23.55
887.897	-13.31
888.069	19.46
888.24	72.7
888.412	29.7
888.583	-3.07
888.754	46.08
888.926	-46.08
889.097	-27.65
889.268	-46.08
889.44	-46.08
889.611	-3.07
889.782	54.27
889.953	-1.02
890.125	48.13
890.296	-31.74
890.467	9.22
890.638	-13.31
890.809	-13.31
890.98	15.36
891.151	-3.07
891.323	33.79
891.494	19.46
891.665	46.08
891.836	-15.36
892.007	-9.22
892.178	46.08
892.349	50.18
892.52	3.07
892.691	-7.17
892.862	39.94
893.032	-78.85
893.203	21.5
893.374	41.98
893.545	68.61
893.716	35.84
893.887	27.65
894.057	-46.08
894.228	-33.79
894.399	-5.12
894.57	70.65
894.74	60.42
894.911	46.08
895.082	19.46
895.253	-9.22
895.423	-21.5
895.594	11.26
895.764	-13.31
895.935	-37.89
896.106	-35.84
896.276	-3.07
896.447	-1.02
896.617	-21.5
896.788	-33.79
896.958	-31.74
897.129	-52.22
897.299	76.8
897.47	-21.5
897.64	-11.26
897.81	-23.55
897.981	68.61
898.151	-1.02
898.322	17.41
898.492	37.89
898.662	-17.41
898.832	-21.5
899.003	-50.18
899.173	7.17
899.343	-17.41
899.513	-58.37
