Data from USB4F104151__283__14-23-31-542.txt Node

Date: Thu Mar 13 14:23:31 EDT 2025
User: louis
Spectrometer: USB4F10415
Trigger mode: 4
Integration Time (sec): 2.000000E-2
Scans to average: 1
Electric dark correction enabled: true
Nonlinearity correction enabled: false
Boxcar width: 0
XAxis mode: Wavelengths
Number of Pixels in Spectrum: 3648
>>>>>Begin Spectral Data<<<<<
178.204	-121.17
178.424	-121.17
178.644	-121.17
178.864	-110.93
179.084	-76.12
179.304	3.75
179.524	-39.25
179.744	11.95
179.964	-94.55
180.184	22.19
180.404	-78.16
180.624	54.95
180.844	-4.44
181.064	20.14
181.283	83.63
181.503	-14.68
181.723	34.47
181.943	-108.88
182.163	118.44
182.383	46.76
182.602	34.47
182.822	11.95
183.042	18.09
183.262	50.86
183.482	83.63
183.701	-72.02
183.921	34.47
184.141	-6.49
184.361	75.43
184.58	50.86
184.8	75.43
185.02	34.47
185.239	71.34
185.459	-4.44
185.679	85.67
185.898	-24.92
186.118	28.33
186.338	67.24
186.557	38.57
186.777	-31.06
186.997	20.14
187.216	9.9
187.436	61.1
187.655	11.95
187.875	61.1
188.095	122.54
188.314	22.19
188.534	79.53
188.753	-4.44
188.973	22.19
189.192	42.67
189.412	-31.06
189.631	54.95
189.851	85.67
190.07	75.43
190.29	-20.82
190.509	-16.73
190.729	79.53
190.948	59.05
191.168	116.39
191.387	44.71
191.607	26.28
191.826	61.1
192.045	46.76
192.265	83.63
192.484	30.38
192.704	-4.44
192.923	-8.53
193.142	26.28
193.362	18.09
193.581	95.91
193.8	28.33
194.02	46.76
194.239	61.1
194.458	-4.44
194.678	3.75
194.897	67.24
195.116	16.04
195.335	34.47
195.555	34.47
195.774	26.28
195.993	18.09
196.212	18.09
196.432	-31.06
196.651	67.24
196.87	-47.44
197.089	-0.34
197.308	7.85
197.528	18.09
197.747	-12.63
197.966	-55.64
198.185	48.81
198.404	-29.01
198.623	61.1
198.842	75.43
199.062	-6.49
199.281	108.2
199.5	20.14
199.719	36.52
199.938	20.14
200.157	34.47
200.376	-6.49
200.595	108.2
200.814	81.58
201.033	67.24
201.252	-24.92
201.471	-43.35
201.69	110.25
201.909	7.85
202.128	-14.68
202.347	20.14
202.566	-8.53
202.785	-18.77
203.004	67.24
203.223	143.02
203.442	83.63
203.661	67.24
203.879	-12.63
204.098	-20.82
204.317	71.34
204.536	42.67
204.755	73.39
204.974	54.95
205.193	59.05
205.411	165.54
205.63	114.34
205.849	85.67
206.068	3.75
206.287	83.63
206.505	-6.49
206.724	116.39
206.943	32.43
207.162	26.28
207.381	38.57
207.599	34.47
207.818	59.05
208.037	18.09
208.255	91.82
208.474	108.2
208.693	9.9
208.911	-12.63
209.13	46.76
209.349	124.58
209.567	67.24
209.786	83.63
210.005	-8.53
210.223	5.8
210.442	42.67
210.661	28.33
210.879	3.75
211.098	-22.87
211.316	42.67
211.535	38.57
211.753	50.86
211.972	34.47
212.191	-2.39
212.409	46.76
212.628	75.43
212.846	3.75
213.065	13.99
213.283	75.43
213.502	13.99
213.72	18.09
213.938	28.33
214.157	16.04
214.375	61.1
214.594	34.47
214.812	91.82
215.031	16.04
215.249	28.33
215.467	61.1
215.686	83.63
215.904	38.57
216.122	22.19
216.341	54.95
216.559	67.24
216.778	40.62
216.996	1.71
217.214	85.67
217.432	28.33
217.651	38.57
217.869	100.01
218.087	-4.44
218.306	42.67
218.524	54.95
218.742	9.9
218.96	75.43
219.179	-63.83
219.397	112.3
219.615	1.71
219.833	69.29
220.051	-22.87
220.27	83.63
220.488	34.47
220.706	9.9
220.924	44.71
221.142	-16.73
221.36	67.24
221.578	73.39
221.796	40.62
222.015	-12.63
222.233	11.95
222.451	108.2
222.669	18.09
222.887	151.21
223.105	5.8
223.323	44.71
223.541	1.71
223.759	124.58
223.977	54.95
224.195	104.11
224.413	-6.49
224.631	18.09
224.849	61.1
225.067	71.34
225.285	9.9
225.503	77.48
225.721	-4.44
225.939	1.71
226.157	69.29
226.375	65.19
226.592	18.09
226.81	59.05
227.028	65.19
227.246	93.87
227.464	-41.3
227.682	26.28
227.9	63.15
228.117	34.47
228.335	34.47
228.553	-6.49
228.771	44.71
228.989	28.33
229.206	87.72
229.424	54.95
229.642	-6.49
229.86	34.47
230.077	91.82
230.295	50.86
230.513	7.85
230.731	26.28
230.948	22.19
231.166	114.34
231.384	9.9
231.601	18.09
231.819	59.05
232.037	-14.68
232.254	22.19
232.472	108.2
232.689	1.71
232.907	89.77
233.125	34.47
233.342	22.19
233.56	83.63
233.777	69.29
233.995	73.39
234.213	77.48
234.43	54.95
234.648	20.14
234.865	83.63
235.083	20.14
235.3	34.47
235.518	36.52
235.735	28.33
235.953	102.06
236.17	52.91
236.388	75.43
236.605	50.86
236.822	63.15
237.04	57
237.257	75.43
237.475	-12.63
237.692	42.67
237.909	20.14
238.127	32.43
238.344	83.63
238.562	30.38
238.779	-20.82
238.996	20.14
239.214	-18.77
239.431	36.52
239.648	89.77
239.865	32.43
240.083	18.09
240.3	120.49
240.517	36.52
240.735	44.71
240.952	75.43
241.169	83.63
241.386	26.28
241.603	54.95
241.821	-18.77
242.038	83.63
242.255	26.28
242.472	28.33
242.689	1.71
242.907	59.05
243.124	-22.87
243.341	75.43
243.558	28.33
243.775	-10.58
243.992	40.62
244.209	9.9
244.426	93.87
244.643	79.53
244.86	-12.63
245.078	5.8
245.295	26.28
245.512	83.63
245.729	93.87
245.946	44.71
246.163	57
246.38	-2.39
246.597	50.86
246.814	63.15
247.031	50.86
247.248	42.67
247.464	-6.49
247.681	13.99
247.898	67.24
248.115	116.39
248.332	9.9
248.549	11.95
248.766	95.91
248.983	63.15
249.2	36.52
249.417	34.47
249.633	34.47
249.85	52.91
250.067	22.19
250.284	11.95
250.501	75.43
250.717	59.05
250.934	77.48
251.151	1.71
251.368	-4.44
251.585	116.39
251.801	46.76
252.018	9.9
252.235	5.8
252.451	18.09
252.668	20.14
252.885	134.82
253.102	34.47
253.318	75.43
253.535	-12.63
253.752	11.95
253.968	-6.49
254.185	-0.34
254.401	-24.92
254.618	79.53
254.835	59.05
255.051	67.24
255.268	81.58
255.484	-43.35
255.701	67.24
255.917	75.43
256.134	-12.63
256.351	54.95
256.567	-39.25
256.784	50.86
257	-26.96
257.217	93.87
257.433	71.34
257.65	42.67
257.866	7.85
258.082	-20.82
258.299	50.86
258.515	61.1
258.732	18.09
258.948	26.28
259.165	97.96
259.381	73.39
259.597	108.2
259.814	5.8
260.03	34.47
260.246	69.29
260.463	22.19
260.679	151.21
260.895	38.57
261.112	22.19
261.328	104.11
261.544	-26.96
261.761	157.35
261.977	52.91
262.193	22.19
262.409	61.1
262.626	116.39
262.842	83.63
263.058	-43.35
263.274	26.28
263.49	36.52
263.707	73.39
263.923	11.95
264.139	9.9
264.355	32.43
264.571	108.2
264.787	28.33
265.004	77.48
265.22	44.71
265.436	26.28
265.652	61.1
265.868	44.71
266.084	-22.87
266.3	75.43
266.516	-2.39
266.732	9.9
266.948	50.86
267.164	118.44
267.38	69.29
267.596	73.39
267.812	67.24
268.028	104.11
268.244	20.14
268.46	89.77
268.676	83.63
268.892	-10.58
269.108	-22.87
269.324	18.09
269.54	-41.3
269.756	120.49
269.972	-2.39
270.188	9.9
270.403	54.95
270.619	50.86
270.835	-10.58
271.051	46.76
271.267	13.99
271.483	9.9
271.698	5.8
271.914	22.19
272.13	89.77
272.346	-12.63
272.562	7.85
272.777	100.01
272.993	-39.25
273.209	106.15
273.425	71.34
273.64	50.86
273.856	42.67
274.072	50.86
274.287	9.9
274.503	50.86
274.719	112.3
274.934	18.09
275.15	-10.58
275.366	1.71
275.581	36.52
275.797	18.09
276.012	22.19
276.228	28.33
276.444	13.99
276.659	71.34
276.875	-74.07
277.09	42.67
277.306	28.33
277.521	44.71
277.737	85.67
277.952	75.43
278.168	38.57
278.383	11.95
278.599	46.76
278.814	-67.92
279.03	7.85
279.245	61.1
279.461	22.19
279.676	91.82
279.892	63.15
280.107	67.24
280.322	30.38
280.538	63.15
280.753	-10.58
280.969	-61.78
281.184	9.9
281.399	26.28
281.615	24.23
281.83	50.86
282.045	-18.77
282.26	11.95
282.476	50.86
282.691	110.25
282.906	67.24
283.122	77.48
283.337	11.95
283.552	18.09
283.767	52.91
283.983	48.81
284.198	22.19
284.413	42.67
284.628	-0.34
284.843	77.48
285.058	95.91
285.274	28.33
285.489	54.95
285.704	118.44
285.919	22.19
286.134	38.57
286.349	26.28
286.564	83.63
286.779	85.67
286.995	9.9
287.21	-29.01
287.425	59.05
287.64	-72.02
287.855	91.82
288.07	11.95
288.285	93.87
288.5	69.29
288.715	50.86
288.93	59.05
289.145	36.52
289.36	-14.68
289.575	42.67
289.79	65.19
290.004	34.47
290.219	22.19
290.434	-6.49
290.649	-22.87
290.864	59.05
291.079	61.1
291.294	83.63
291.509	61.1
291.724	54.95
291.938	20.14
292.153	18.09
292.368	9.9
292.583	75.43
292.798	20.14
293.012	11.95
293.227	26.28
293.442	83.63
293.657	42.67
293.871	26.28
294.086	69.29
294.301	91.82
294.516	36.52
294.73	18.09
294.945	-8.53
295.16	93.87
295.374	46.76
295.589	18.09
295.804	-14.68
296.018	71.34
296.233	46.76
296.447	54.95
296.662	28.33
296.877	46.76
297.091	44.71
297.306	75.43
297.52	-14.68
297.735	18.09
297.949	-6.49
298.164	9.9
298.378	-33.11
298.593	57
298.807	11.95
299.022	67.24
299.236	18.09
299.451	136.87
299.665	24.23
299.88	79.53
300.094	50.86
300.309	13.99
300.523	42.67
300.737	42.67
300.952	69.29
301.166	32.43
301.381	91.82
301.595	75.43
301.809	91.82
302.024	42.67
302.238	22.19
302.452	50.86
302.667	112.3
302.881	108.2
303.095	9.9
303.309	89.77
303.524	34.47
303.738	50.86
303.952	20.14
304.166	54.95
304.381	-61.78
304.595	61.1
304.809	28.33
305.023	59.05
305.237	-6.49
305.452	87.72
305.666	-33.11
305.88	9.9
306.094	28.33
306.308	52.91
306.522	108.2
306.736	59.05
306.95	59.05
307.164	18.09
307.379	34.47
307.593	95.91
307.807	114.34
308.021	77.48
308.235	50.86
308.449	13.99
308.663	75.43
308.877	24.23
309.091	-22.87
309.305	34.47
309.519	-14.68
309.733	95.91
309.947	-12.63
310.161	22.19
310.374	46.76
310.588	1.71
310.802	9.9
311.016	5.8
311.23	69.29
311.444	145.06
311.658	22.19
311.872	71.34
312.085	50.86
312.299	69.29
312.513	36.52
312.727	59.05
312.941	3.75
313.154	-35.16
313.368	13.99
313.582	-6.49
313.796	34.47
314.009	22.19
314.223	9.9
314.437	108.2
314.651	61.1
314.864	44.71
315.078	34.47
315.292	-26.96
315.505	28.33
315.719	61.1
315.933	116.39
316.146	36.52
316.36	-43.35
316.573	100.01
316.787	116.39
317.001	95.91
317.214	34.47
317.428	-10.58
317.641	34.47
317.855	77.48
318.068	83.63
318.282	20.14
318.495	136.87
318.709	20.14
318.922	102.06
319.136	65.19
319.349	38.57
319.563	22.19
319.776	83.63
319.99	-22.87
320.203	85.67
320.417	77.48
320.63	54.95
320.843	140.97
321.057	34.47
321.27	34.47
321.483	16.04
321.697	85.67
321.91	67.24
322.124	34.47
322.337	-41.3
322.55	52.91
322.763	44.71
322.977	24.23
323.19	34.47
323.403	87.72
323.617	75.43
323.83	93.87
324.043	22.19
324.256	42.67
324.469	75.43
324.683	124.58
324.896	11.95
325.109	59.05
325.322	-12.63
325.535	181.93
325.748	46.76
325.962	1.71
326.175	13.99
326.388	9.9
326.601	3.75
326.814	54.95
327.027	28.33
327.24	126.63
327.453	91.82
327.666	108.2
327.879	26.28
328.092	57
328.305	54.95
328.518	-29.01
328.731	61.1
328.944	79.53
329.157	18.09
329.37	1.71
329.583	30.38
329.796	145.06
330.009	42.67
330.222	1.71
330.435	87.72
330.648	100.01
330.861	61.1
331.073	85.67
331.286	63.15
331.499	34.47
331.712	16.04
331.925	52.91
332.138	32.43
332.35	134.82
332.563	38.57
332.776	44.71
332.989	77.48
333.202	34.47
333.414	32.43
333.627	46.76
333.84	59.05
334.053	116.39
334.265	57
334.478	52.91
334.691	40.62
334.903	26.28
335.116	75.43
335.329	108.2
335.541	42.67
335.754	67.24
335.966	32.43
336.179	-12.63
336.392	36.52
336.604	20.14
336.817	85.67
337.029	-20.82
337.242	71.34
337.454	38.57
337.667	40.62
337.88	52.91
338.092	28.33
338.305	93.87
338.517	13.99
338.729	1.71
338.942	95.91
339.154	32.43
339.367	18.09
339.579	11.95
339.792	-14.68
340.004	132.78
340.217	-20.82
340.429	5.8
340.641	1.71
340.854	5.8
341.066	95.91
341.278	50.86
341.491	-6.49
341.703	91.82
341.915	9.9
342.128	18.09
342.34	28.33
342.552	26.28
342.764	36.52
342.977	93.87
343.189	26.28
343.401	34.47
343.613	11.95
343.826	61.1
344.038	11.95
344.25	50.86
344.462	34.47
344.674	59.05
344.886	13.99
345.099	100.01
345.311	81.58
345.523	7.85
345.735	-6.49
345.947	50.86
346.159	-0.34
346.371	34.47
346.583	44.71
346.795	140.97
347.007	16.04
347.219	67.24
347.431	71.34
347.643	59.05
347.855	81.58
348.067	22.19
348.279	-6.49
348.491	34.47
348.703	42.67
348.915	26.28
349.127	83.63
349.339	46.76
349.551	50.86
349.763	26.28
349.975	1.71
350.187	93.87
350.399	83.63
350.61	116.39
350.822	26.28
351.034	67.24
351.246	46.76
351.458	73.39
351.669	79.53
351.881	85.67
352.093	52.91
352.305	18.09
352.517	57
352.728	143.02
352.94	110.25
353.152	52.91
353.363	61.1
353.575	54.95
353.787	83.63
353.999	1.71
354.21	120.49
354.422	75.43
354.633	-6.49
354.845	-0.34
355.057	44.71
355.268	22.19
355.48	26.28
355.692	54.95
355.903	79.53
356.115	95.91
356.326	48.81
356.538	73.39
356.749	61.1
356.961	112.3
357.172	48.81
357.384	54.95
357.595	120.49
357.807	-31.06
358.018	46.76
358.23	-2.39
358.441	118.44
358.653	59.05
358.864	-0.34
359.075	77.48
359.287	63.15
359.498	30.38
359.709	-14.68
359.921	151.21
360.132	83.63
360.344	44.71
360.555	30.38
360.766	87.72
360.977	30.38
361.189	63.15
361.4	93.87
361.611	128.68
361.823	-18.77
362.034	-2.39
362.245	1.71
362.456	-4.44
362.667	1.71
362.879	52.91
363.09	136.87
363.301	28.33
363.512	73.39
363.723	18.09
363.935	46.76
364.146	52.91
364.357	77.48
364.568	32.43
364.779	38.57
364.99	1.71
365.201	50.86
365.412	36.52
365.623	61.1
365.834	38.57
366.045	26.28
366.256	87.72
366.467	54.95
366.678	3.75
366.889	11.95
367.1	13.99
367.311	61.1
367.522	24.23
367.733	102.06
367.944	128.68
368.155	102.06
368.366	140.97
368.577	116.39
368.788	91.82
368.999	18.09
369.209	149.16
369.42	100.01
369.631	83.63
369.842	112.3
370.053	13.99
370.264	44.71
370.474	38.57
370.685	22.19
370.896	75.43
371.107	134.82
371.317	83.63
371.528	36.52
371.739	116.39
371.95	42.67
372.16	157.35
372.371	50.86
372.582	67.24
372.792	42.67
373.003	18.09
373.214	20.14
373.424	71.34
373.635	22.19
373.846	89.77
374.056	69.29
374.267	77.48
374.477	67.24
374.688	61.1
374.898	50.86
375.109	42.67
375.319	20.14
375.53	175.78
375.74	50.86
375.951	26.28
376.161	71.34
376.372	112.3
376.582	-6.49
376.793	40.62
377.003	50.86
377.214	26.28
377.424	81.58
377.635	63.15
377.845	46.76
378.055	192.17
378.266	44.71
378.476	100.01
378.686	67.24
378.897	28.33
379.107	77.48
379.317	63.15
379.528	73.39
379.738	91.82
379.948	30.38
380.158	104.11
380.369	89.77
380.579	32.43
380.789	34.47
380.999	79.53
381.21	40.62
381.42	93.87
381.63	32.43
381.84	112.3
382.05	73.39
382.261	44.71
382.471	124.58
382.681	22.19
382.891	91.82
383.101	63.15
383.311	-22.87
383.521	67.24
383.731	79.53
383.941	30.38
384.151	63.15
384.361	36.52
384.571	61.1
384.781	83.63
384.991	128.68
385.201	77.48
385.411	124.58
385.621	65.19
385.831	20.14
386.041	54.95
386.251	97.96
386.461	26.28
386.671	13.99
386.881	93.87
387.091	57
387.301	89.77
387.511	36.52
387.72	54.95
387.93	73.39
388.14	3.75
388.35	59.05
388.56	28.33
388.769	26.28
388.979	44.71
389.189	18.09
389.399	-6.49
389.609	63.15
389.818	85.67
390.028	95.91
390.238	100.01
390.447	100.01
390.657	87.72
390.867	50.86
391.076	44.71
391.286	61.1
391.496	77.48
391.705	44.71
391.915	28.33
392.125	151.21
392.334	118.44
392.544	50.86
392.753	-6.49
392.963	67.24
393.172	104.11
393.382	9.9
393.591	50.86
393.801	97.96
394.01	112.3
394.22	79.53
394.429	48.81
394.639	106.15
394.848	95.91
395.058	85.67
395.267	46.76
395.477	151.21
395.686	132.78
395.895	153.26
396.105	126.63
396.314	106.15
396.524	153.26
396.733	52.91
396.942	100.01
397.152	106.15
397.361	22.19
397.57	73.39
397.78	75.43
397.989	126.63
398.198	196.26
398.407	69.29
398.617	110.25
398.826	44.71
399.035	85.67
399.244	97.96
399.453	118.44
399.663	210.6
399.872	181.93
400.081	126.63
400.29	89.77
400.499	153.26
400.708	145.06
400.917	97.96
401.127	108.2
401.336	151.21
401.545	165.54
401.754	122.54
401.963	175.78
402.172	75.43
402.381	36.52
402.59	124.58
402.799	143.02
403.008	147.11
403.217	190.12
403.426	116.39
403.635	116.39
403.844	130.73
404.053	186.02
404.262	120.49
404.471	233.13
404.68	120.49
404.888	159.4
405.097	183.98
405.306	124.58
405.515	153.26
405.724	165.54
405.933	190.12
406.142	110.25
406.35	206.5
406.559	181.93
406.768	243.37
406.977	308.9
407.185	194.22
407.394	290.47
407.603	171.69
407.812	231.08
408.02	222.89
408.229	229.03
408.438	247.46
408.646	263.85
408.855	300.71
409.064	278.18
409.272	235.18
409.481	394.92
409.69	265.89
409.898	302.76
410.107	413.35
410.315	444.07
410.524	282.28
410.733	364.2
410.941	382.63
411.15	411.3
411.358	378.53
411.567	485.03
411.775	427.68
411.984	429.73
412.192	468.64
412.401	399.01
412.609	499.36
412.818	476.84
413.026	583.33
413.234	558.75
413.443	603.81
413.651	579.23
413.86	573.09
414.068	708.26
414.276	673.44
414.485	591.52
414.693	732.83
414.901	796.32
415.11	796.32
415.318	741.02
415.526	771.74
415.734	841.37
415.943	904.86
416.151	812.7
416.359	847.52
416.567	954.01
416.776	1007.26
416.984	1011.36
417.192	1060.51
417.4	1101.47
417.608	1066.65
417.817	1156.76
418.025	1025.69
418.233	1205.91
418.441	1150.62
418.649	1218.2
418.857	1332.89
419.065	1459.86
419.273	1418.9
419.481	1459.86
419.689	1515.16
419.897	1552.02
420.105	1584.79
420.313	1545.88
420.521	1775.25
420.729	1726.1
420.937	1863.31
421.145	1836.69
421.353	1932.94
421.561	2068.11
421.769	2004.62
421.977	2068.11
422.185	2178.7
422.393	2328.2
422.601	2338.44
422.809	2311.82
423.017	2446.98
423.224	2475.65
423.432	2555.52
423.64	2631.3
423.848	2737.79
424.056	2834.05
424.263	3057.28
424.471	2950.78
424.679	3114.62
424.887	3262.07
425.094	3174.01
425.302	3274.36
425.51	3341.94
425.718	3583.6
425.925	3597.94
426.133	3487.35
426.341	4001.39
426.548	4023.92
426.756	4066.92
426.964	4044.4
427.171	4441.7
427.379	4531.81
427.586	4515.43
427.794	4693.6
428.001	4908.64
428.209	5154.4
428.417	4951.65
428.624	5248.6
428.832	5416.54
429.039	5351
429.247	5391.96
429.454	5901.9
429.662	6407.75
429.869	5928.53
430.076	6327.88
430.284	6182.48
430.491	6250.06
430.699	6645.32
430.906	6682.18
431.114	6792.77
431.321	7165.5
431.528	7249.47
431.736	7720.5
431.943	8033.84
432.15	7775.8
432.358	7769.65
432.565	8230.45
432.772	8228.4
432.979	8670.76
433.187	8803.88
433.394	8898.08
433.601	9485.85
433.808	9481.75
434.016	9434.65
434.223	9864.72
434.43	10346
434.637	10251.79
434.844	10972.68
435.052	10882.56
435.259	11113.99
435.466	10974.72
435.673	10929.67
435.88	11558.39
436.087	12203.5
436.294	12264.94
436.501	12019.19
436.708	12348.91
436.915	12711.4
437.122	13145.57
437.329	13184.48
437.537	13737.43
437.743	13653.47
437.95	13723.1
438.157	14542.28
438.364	14996.93
438.571	14699.98
438.778	14968.26
438.985	16207.28
439.192	15746.49
439.399	16096.69
439.606	15998.39
439.813	16676.27
440.02	17827.23
440.227	17474.98
440.433	17360.29
440.64	17896.86
440.847	17835.42
441.054	18023.83
441.261	19496.32
441.467	19148.17
441.674	19312
441.881	20278.65
442.088	20325.75
442.294	19842.43
442.501	20583.79
442.708	21187.94
442.914	21818.72
443.121	22613.33
443.328	21841.25
443.534	23409.99
443.741	23100.75
443.948	22510.93
444.154	24220.99
444.361	24089.92
444.568	24149.31
444.774	24100.15
444.981	24288.57
445.187	25175.34
445.394	26365.21
445.6	25752.87
445.807	28404.99
446.013	26950.93
446.22	27727.11
446.426	28667.13
446.633	29076.72
446.839	29908.19
447.046	28802.29
447.252	30432.47
447.459	30348.51
447.665	30332.12
447.871	31827.14
448.078	33047.73
448.284	31440.07
448.491	32363.71
448.697	33295.53
448.903	34047.14
449.11	34032.8
449.316	33490.09
449.522	34016.42
449.728	35034.26
449.935	35579.02
450.141	35009.68
450.347	35992.71
450.553	34972.82
450.76	35533.96
450.966	36908.15
451.172	36099.2
451.378	37262.45
451.584	36248.71
451.791	37192.82
451.997	37131.38
452.203	38112.36
452.409	37645.42
452.615	38030.44
452.821	36148.36
453.027	36277.38
453.233	38104.17
453.44	36478.08
453.646	36891.77
453.852	36906.1
454.058	37538.93
454.264	36789.37
454.47	37440.62
454.676	36383.87
454.882	37813.35
455.088	34462.88
455.294	35200.15
455.5	35677.32
455.705	35640.46
455.911	34352.29
456.117	33983.65
456.323	33430.7
456.529	31495.37
456.735	33197.23
456.941	32416.96
457.147	31868.1
457.352	30917.84
457.558	29988.07
457.764	30702.81
457.97	29940.96
458.176	29183.21
458.381	29627.62
458.587	27849.99
458.793	28056.83
458.999	26594.58
459.204	28673.27
459.41	27467.02
459.616	26035.49
459.821	26008.86
460.027	26162.46
460.233	25453.86
460.438	24141.11
460.644	24284.47
460.85	23108.94
461.055	22850.89
461.261	22863.18
461.466	21382.5
461.672	20366.71
461.878	22041.95
462.083	20366.71
462.289	20325.75
462.494	20202.87
462.7	19039.62
462.905	18660.75
463.111	19277.19
463.316	19367.3
463.522	18730.38
463.727	18797.96
463.932	18877.83
464.138	18804.11
464.343	18482.58
464.549	18111.89
464.754	18955.66
464.959	18658.7
465.165	18533.78
465.37	17671.58
465.575	17221.03
465.781	17960.34
465.986	18224.53
466.191	17362.34
466.397	16991.66
466.602	16274.87
466.807	16723.37
467.012	16498.09
467.218	16926.12
467.423	16823.72
467.628	16608.69
467.833	17092.01
468.038	16614.83
468.244	16174.52
468.449	16731.56
468.654	16428.46
468.859	16068.02
469.064	16033.21
469.269	15199.68
469.474	15420.86
469.679	15617.47
469.885	15318.46
470.09	15547.84
470.295	15310.27
470.5	15205.83
470.705	15365.57
470.91	15011.27
471.115	14685.64
471.32	14931.4
471.525	14966.21
471.73	14521.81
471.935	14509.52
472.139	14069.2
472.344	14022.1
472.549	14118.36
472.754	14085.59
472.959	13534.68
473.164	13452.77
473.369	13051.36
473.574	13620.7
473.778	13514.2
473.983	13333.98
474.188	13366.75
474.393	12832.23
474.598	12862.95
474.802	12455.4
475.007	12717.54
475.212	12742.12
475.417	12092.91
475.621	12273.14
475.826	12318.19
476.031	11943.41
476.235	11875.83
476.44	12160.5
476.645	11732.47
476.849	11914.74
477.054	11628.03
477.259	11320.83
477.463	11359.74
477.668	11116.03
477.872	11206.14
478.077	11212.29
478.282	10794.5
478.486	10726.92
478.691	10675.72
478.895	10604.04
479.1	10692.1
479.304	10567.18
479.509	10235.41
479.713	10528.27
479.918	10268.17
480.122	10239.5
480.326	10341.9
480.531	10241.55
480.735	10231.31
480.94	10061.33
481.144	10536.46
481.348	10085.9
481.553	10130.96
481.757	9829.91
481.961	10221.07
482.166	10270.22
482.37	9895.44
482.574	9596.44
482.778	9745.94
482.983	10006.03
483.187	9946.64
483.391	9979.41
483.595	9778.71
483.8	9821.72
484.004	9901.59
484.208	9983.51
484.412	9719.32
484.616	9819.67
484.821	9954.83
485.025	9741.85
485.229	10120.72
485.433	9823.76
485.637	9834
485.841	9889.3
486.045	9657.88
486.249	9788.95
486.453	9659.93
486.657	9834
486.861	9834
487.065	9690.65
487.269	9846.29
487.473	9659.93
487.677	9846.29
487.881	9823.76
488.085	9883.16
488.289	10094.1
488.493	9754.13
488.697	9958.93
488.901	9778.71
489.105	9979.41
489.309	10026.51
489.512	9926.16
489.716	9915.92
489.92	9840.15
490.124	9838.1
490.328	10153.49
490.531	10085.9
490.735	10192.4
490.939	10171.92
491.143	10118.67
491.346	10106.38
491.55	10237.45
491.754	10356.24
491.958	10331.66
492.161	10429.96
492.365	10331.66
492.569	10429.96
492.772	10159.63
492.976	10440.2
493.18	10577.42
493.383	10618.38
493.587	10659.34
493.79	10876.42
493.994	10702.34
494.197	10657.29
494.401	10956.29
494.605	11007.49
494.808	11273.73
495.012	11249.15
495.215	11271.68
495.419	11146.75
495.622	11113.99
495.825	11337.21
496.029	11423.23
496.232	11517.43
496.436	11666.94
496.639	11900.41
496.843	11959.8
497.046	12121.59
497.249	11957.75
497.453	12191.22
497.656	12387.82
497.859	12406.25
498.063	12277.23
498.266	12785.13
498.469	12758.5
498.673	13045.22
498.876	12940.77
499.079	13059.56
499.282	13295.07
499.485	13487.58
499.689	13538.78
499.892	13387.23
500.095	13907.41
500.298	14083.54
500.501	13792.73
500.705	14239.19
500.908	14321.1
501.111	14646.73
501.314	14773.71
501.517	14888.39
501.72	14925.25
501.923	15011.27
502.126	15238.59
502.329	15590.84
502.532	15746.49
502.735	15891.9
502.938	16188.85
503.141	15951.29
503.344	16416.18
503.547	16362.93
503.75	16530.86
503.953	17128.87
504.156	17169.83
504.359	17331.62
504.562	17460.64
504.765	17567.13
504.968	17659.29
505.17	18038.17
505.373	18099.61
505.576	18159
505.779	18285.97
505.982	18548.11
506.185	18845.07
506.387	19049.86
506.59	19203.46
506.793	19715.45
506.996	19428.74
507.198	19936.63
507.401	19725.69
507.604	20147.58
507.807	20557.17
508.009	20579.7
508.212	20942.19
508.415	21280.1
508.617	21204.33
508.82	21298.53
509.022	21325.16
509.225	21601.63
509.428	21683.55
509.63	22271.32
509.833	22377.81
510.035	22910.29
510.238	22762.83
510.44	22859.09
510.643	23231.82
510.845	23448.9
511.048	23506.24
511.25	23803.2
511.453	23921.98
511.655	24853.81
511.858	24272.18
512.06	24868.14
512.262	25263.4
512.465	24988.97
512.667	25627.94
512.87	25765.15
513.072	25978.14
513.274	26414.36
513.477	26613.01
513.679	26873.1
513.881	26955.02
514.084	27053.33
514.286	27217.16
514.488	27471.11
514.69	27839.75
514.893	27917.57
515.095	28560.63
515.297	28935.41
515.499	28695.8
515.701	29054.19
515.904	29351.15
516.106	29644.01
516.308	29990.11
516.51	30471.39
516.712	30196.96
516.914	30690.52
517.116	31116.5
517.318	30962.9
517.52	31298.77
517.722	31640.78
517.925	32242.88
518.127	32101.57
518.329	32584.89
518.531	32394.43
518.733	33041.59
518.935	33223.86
519.136	33225.9
519.338	33842.34
519.54	34077.86
519.742	34241.7
519.944	34522.27
520.146	35030.16
520.348	35083.41
520.55	35241.1
520.752	35392.65
520.954	36037.76
521.155	35781.77
521.357	36295.81
521.559	36250.75
521.761	36965.49
521.963	36684.92
522.164	37106.8
522.366	37250.16
522.568	37768.3
522.77	37952.62
522.971	38704.22
523.173	38106.21
523.375	38317.15
523.576	38538.33
523.778	38501.47
523.98	39228.5
524.181	39257.17
524.383	39150.68
524.584	39664.72
524.786	39875.66
524.988	39830.6
525.189	39998.54
525.391	40563.78
525.592	40598.59
525.794	40756.28
525.995	40985.66
526.197	40813.63
526.398	40975.42
526.6	41280.56
526.801	41311.28
527.003	41659.44
527.204	41409.59
527.406	41921.58
527.607	41765.93
527.808	42019.88
528.01	41432.11
528.211	42132.52
528.412	42767.39
528.614	42411.04
528.815	42662.94
529.016	42806.3
529.218	42138.66
529.419	42677.28
529.62	42804.25
529.822	42785.82
530.023	42925.08
530.224	42751.01
530.425	42834.97
530.626	42667.04
530.828	42335.27
531.029	43731.98
531.23	43256.85
531.431	42972.19
531.632	43170.84
531.833	43641.87
532.035	43639.82
532.236	43836.43
532.437	43738.13
532.638	43205.66
532.839	43750.42
533.04	43598.87
533.241	42939.42
533.442	44373
533.643	43408.4
533.844	43357.21
534.045	43955.21
534.246	43205.66
534.447	43449.36
534.648	43570.19
534.849	43836.43
535.05	43424.79
535.251	43691.02
535.451	43424.79
535.652	43602.96
535.853	43338.77
536.054	43531.28
536.255	43848.72
536.456	43635.73
536.657	44014.6
536.857	43439.12
537.058	43088.92
537.259	44002.32
537.46	43582.48
537.66	43265.05
537.861	43500.56
538.062	43793.42
538.263	43547.67
538.463	43574.29
538.664	43373.59
538.865	43619.35
539.065	43590.67
539.266	43013.15
539.466	43873.29
539.667	43306.01
539.868	43578.39
540.068	43187.22
540.269	43146.26
540.469	43736.08
540.67	43105.3
540.87	43465.75
541.071	43318.29
541.271	43250.71
541.472	42949.66
541.672	43297.81
541.873	43162.65
542.073	43125.78
542.274	43559.95
542.474	42994.71
542.675	43185.18
542.875	43490.32
543.075	42986.52
543.276	42628.13
543.476	43299.86
543.676	43172.89
543.877	43346.97
544.077	43097.11
544.277	42628.13
544.478	42775.58
544.678	43238.42
544.878	43179.03
545.078	42970.14
545.279	42898.46
545.479	42863.64
545.679	43265.05
545.879	43037.72
546.079	43203.61
546.28	43007
546.48	42877.98
546.68	42531.87
546.88	42912.8
547.08	42894.36
547.28	42964
547.48	42824.73
547.68	42728.48
547.88	42646.56
548.081	42746.91
548.281	42566.69
548.481	42624.03
548.681	43150.36
548.881	43078.68
549.081	42974.23
549.28	42757.15
549.48	42826.78
549.68	42787.87
549.88	43103.26
550.08	42906.65
550.28	42884.12
550.48	42499.11
550.68	42990.62
550.88	42650.66
551.08	42361.89
551.279	42732.57
551.479	42327.08
551.679	42708
551.879	42423.33
552.079	42900.51
552.278	42251.3
552.478	42687.52
552.678	42624.03
552.878	42728.48
553.077	42611.74
553.277	42257.45
553.477	43179.03
553.676	42275.88
553.876	42439.72
554.076	42380.32
554.275	42351.65
554.475	41708.59
554.674	42701.86
554.874	42591.26
555.074	41845.8
555.273	42497.06
555.473	42521.63
555.672	42327.08
555.872	42357.8
556.071	42531.87
556.271	42581.02
556.47	42355.75
556.67	41833.52
556.869	42093.61
557.068	42382.37
557.268	41843.76
557.467	41751.6
557.667	42136.62
557.866	41804.84
558.065	41630.77
558.265	41630.77
558.464	41620.53
558.663	42183.72
558.863	41636.91
559.062	42019.88
559.261	41200.69
559.461	42011.69
559.66	41217.08
559.859	41290.8
560.058	41423.92
560.258	41540.66
560.457	41255.99
560.656	41565.23
560.855	41260.09
561.054	41346.1
561.253	41348.15
561.453	41227.32
561.652	41511.99
561.851	41411.63
562.05	41145.4
562.249	40977.47
562.448	41112.63
562.647	41188.41
562.846	40889.4
563.045	41206.84
563.244	40461.38
563.443	41217.08
563.642	40014.92
563.841	40641.6
564.04	40565.82
564.239	41163.83
564.438	40164.42
564.637	40590.4
564.836	40422.47
565.035	40025.16
565.234	40678.46
565.432	40064.07
565.631	40143.94
565.83	40336.45
566.029	39814.22
566.228	39914.57
566.427	39826.51
566.625	39648.33
566.824	39312.47
567.023	40016.97
567.222	38947.93
567.42	39769.16
567.619	39373.91
567.818	39167.06
568.016	39193.68
568.215	39408.72
568.414	39058.52
568.612	39275.6
568.811	38913.11
569.01	39070.81
569.208	38255.71
569.407	38833.24
569.605	38607.97
569.804	38794.33
570.002	38263.91
570.201	38505.57
570.4	38055.01
570.598	38468.7
570.797	38034.53
570.995	38153.32
571.193	37952.62
571.392	38253.67
571.59	37735.53
571.789	37907.56
571.987	37686.38
572.186	37758.06
572.384	37559.41
572.582	37583.98
572.781	37817.45
572.979	37125.24
573.177	37055.61
573.376	37108.85
573.574	36668.54
573.772	37424.24
573.971	37006.45
574.169	36504.7
574.367	36449.41
574.565	36820.09
574.763	36463.74
574.962	36005
575.16	36029.57
575.358	36304
575.556	35699.85
575.754	36533.37
575.952	35916.93
576.151	36222.08
576.349	35374.22
576.547	35900.55
576.745	35851.4
576.943	35767.43
577.141	35570.83
577.339	35880.07
577.537	34989.2
577.735	35292.3
577.933	35239.06
578.131	35159.19
578.329	34874.52
578.527	34495.64
578.725	35200.15
578.923	34858.13
579.121	34702.49
579.319	34620.57
579.516	34688.15
579.714	34694.3
579.912	34659.48
580.11	34016.42
580.308	34372.77
580.506	34335.9
580.704	33782.95
580.901	33805.48
581.099	34200.74
581.297	33735.85
581.495	33789.1
581.692	33924.26
581.89	33170.61
582.088	33725.61
582.285	32980.15
582.483	33744.04
582.681	33404.08
582.878	33082.55
583.076	32941.24
583.274	33002.68
583.471	32539.83
583.669	32910.52
583.866	32425.15
584.064	33111.22
584.262	32212.16
584.459	32500.92
584.657	32423.1
584.854	32464.06
585.052	32355.52
585.249	31849.67
585.447	32240.83
585.644	31847.62
585.841	31898.82
586.039	32433.34
586.236	31337.68
586.434	31800.52
586.631	31593.67
586.828	31583.43
587.026	31831.24
587.223	31163.6
587.42	31069.39
587.618	31087.82
587.815	31063.25
588.012	31032.53
588.21	30708.95
588.407	31243.47
588.604	30778.58
588.801	30321.88
588.999	30567.64
589.196	30354.65
589.393	30825.68
589.59	30305.5
589.787	30151.9
589.984	30162.14
590.182	29813.99
590.379	30477.53
590.576	30235.87
590.773	29857
590.97	29740.26
591.167	29750.5
591.364	29502.7
591.561	29590.76
591.758	29480.17
591.955	29359.34
592.152	29443.31
592.349	29443.31
592.546	29125.87
592.743	29547.75
592.94	28816.63
593.137	29306.09
593.334	29105.39
593.531	28663.03
593.727	29144.3
593.924	29029.62
594.121	28310.78
594.318	28626.17
594.515	27948.29
594.712	28900.59
594.908	28224.76
595.105	28321.02
595.302	27733.25
595.499	28443.9
595.696	27659.52
595.892	27526.41
596.089	27895.04
596.286	27788.55
596.482	27532.55
596.679	27663.62
596.876	27669.76
597.072	27430.15
597.269	27712.77
597.466	27198.73
597.662	27442.44
597.859	27204.88
598.055	27297.03
598.252	26983.69
598.448	27055.37
598.645	26772.75
598.841	26639.64
599.038	26717.46
599.234	26588.44
599.431	26221.85
599.627	26072.35
599.824	26303.77
600.02	26221.85
600.217	26377.5
600.413	26135.84
600.609	26109.21
600.806	26113.31
601.002	25978.14
601.198	25642.28
601.395	25799.97
601.591	25748.77
601.787	25627.94
601.984	25470.25
602.18	25611.56
602.376	25541.92
602.572	24974.64
602.769	24827.18
602.965	25021.74
603.161	25347.37
603.357	24855.86
603.553	24945.97
603.75	25167.15
603.946	24677.68
604.142	24931.63
604.338	24378.68
604.534	24599.86
604.73	24503.6
604.926	24423.73
605.122	24401.21
605.318	24405.3
605.514	24124.73
605.71	24132.92
605.906	24431.93
606.102	24241.46
606.298	24038.72
606.494	23827.78
606.69	23936.32
606.886	23911.74
607.082	23801.15
607.278	23788.86
607.474	23500.1
607.67	23911.74
607.866	23481.67
608.062	23651.65
608.257	23362.89
608.453	23510.34
608.649	23725.38
608.845	23358.79
609.041	23272.78
609.236	23143.75
609.432	23424.33
609.628	23393.61
609.824	23051.59
610.019	23110.99
610.215	23137.61
610.411	23008.59
610.606	23020.88
610.802	22998.35
610.998	23240.01
611.193	23223.62
611.389	22803.79
611.584	23096.65
611.78	22654.29
611.976	22525.27
612.171	22879.57
612.367	22728.02
612.562	22779.22
612.758	22410.58
612.953	22340.95
613.149	22537.55
613.344	22531.41
613.539	22848.85
613.735	22343
613.93	22564.18
614.126	22336.85
614.321	22308.18
614.517	22398.29
614.712	22080.86
614.907	21896.54
615.103	22273.37
615.298	22115.67
615.493	22361.43
615.688	21880.16
615.884	22324.57
616.079	21726.56
616.274	21964.12
616.47	21759.33
616.665	21939.55
616.86	21906.78
617.055	21816.67
617.25	21587.3
617.445	21800.29
617.641	21304.68
617.836	21722.46
618.031	21312.87
618.226	21325.16
618.421	21294.44
618.616	21468.52
618.811	21058.92
619.006	21181.8
619.201	20813.17
619.396	21151.08
619.591	20866.41
619.786	20860.27
619.981	20540.79
620.176	20856.17
620.371	20489.59
620.566	20444.53
620.761	20467.06
620.956	20178.29
621.151	20145.53
621.346	20448.63
621.541	19836.28
621.735	19967.35
621.93	19748.22
622.125	19912.06
622.32	19463.55
622.515	19398.02
622.709	19420.55
622.904	19207.56
623.099	19142.02
623.294	19309.96
623.488	19029.38
623.683	19322.24
623.878	18630.03
624.072	18859.4
624.267	18814.35
624.462	18306.45
624.656	18369.94
624.851	18318.74
625.046	18607.5
625.24	18077.08
625.435	18181.53
625.629	18177.43
625.824	18009.5
626.018	17794.46
626.213	17503.65
626.407	17745.31
626.602	17368.48
626.796	17511.84
626.991	17601.95
627.185	17266.08
627.38	17059.24
627.574	17102.25
627.768	16741.8
627.963	16629.16
628.157	16659.88
628.352	16944.55
628.546	16561.58
628.74	16541.1
628.935	16483.76
629.129	16414.13
629.323	16111.03
629.517	16272.82
629.712	16217.52
629.906	15936.95
630.1	15867.32
630.294	15828.41
630.489	15822.27
630.683	15738.3
630.877	15549.89
631.071	15648.19
631.265	15394.24
631.459	15267.27
631.653	15392.19
631.848	15478.21
632.042	14872.01
632.236	15175.11
632.43	14929.35
632.624	14955.97
632.818	14831.05
633.012	14484.94
633.206	14775.75
633.4	14736.84
633.594	14439.89
633.788	14382.54
633.982	14493.13
634.176	14269.9
634.369	14140.88
634.563	14089.68
634.757	13977.05
634.951	13938.13
635.145	13981.14
635.339	13864.41
635.533	13788.63
635.726	13788.63
635.92	13657.56
636.114	13610.46
636.308	13579.74
636.501	13391.33
636.695	13503.96
636.889	13219.3
637.083	13094.37
637.276	13247.97
637.47	12914.15
637.664	12848.61
637.857	13190.63
638.051	12977.64
638.244	12991.97
638.438	12625.39
638.632	12729.83
638.825	12549.61
639.019	12676.59
639.212	12565.99
639.406	12299.76
639.599	12482.03
639.793	12176.88
639.986	11984.37
640.18	12217.84
640.373	11992.56
640.567	11935.22
640.76	11980.28
640.954	11871.73
641.147	11787.77
641.34	11832.82
641.534	11544.06
641.727	11740.66
641.92	11593.21
642.114	11570.68
642.307	11677.18
642.5	11458.04
642.694	11111.94
642.887	11228.67
643.08	11372.03
643.273	11191.81
643.467	11226.62
643.66	10843.65
643.853	10817.03
644.046	10722.82
644.239	10941.96
644.432	10601.99
644.626	10761.73
644.819	10679.82
645.012	10778.12
645.205	10710.54
645.398	10595.85
645.591	10143.25
645.784	10210.83
645.977	10343.95
646.17	10255.89
646.363	10278.41
646.556	10030.61
646.749	10126.86
646.942	10018.32
647.135	9825.81
647.328	9874.96
647.521	9848.34
647.714	9866.77
647.907	9809.43
648.099	9666.07
648.292	9768.47
648.485	9569.82
648.678	9274.91
648.871	9446.94
649.064	9498.14
649.256	9641.5
649.449	9414.17
649.642	9383.45
649.835	9311.77
650.027	9219.61
650.22	9145.89
650.413	9201.18
650.605	9262.62
650.798	9014.82
650.991	8810.02
651.183	8881.7
651.376	8810.02
651.568	8898.08
651.761	8592.94
651.954	8734.25
652.146	8785.44
652.339	8711.72
652.531	8564.26
652.724	8406.57
652.916	8529.45
653.109	8369.71
653.301	8439.34
653.494	8338.99
653.686	8123.95
653.879	8271.4
654.071	8177.2
654.263	8201.77
654.456	8199.73
654.648	8246.83
654.84	8005.17
655.033	7990.83
655.225	8015.41
655.417	7941.68
655.61	8080.94
655.802	7931.44
655.994	7755.32
656.186	7626.29
656.379	7816.76
656.571	7851.57
656.763	7677.49
656.955	7630.39
657.148	7482.94
657.34	7622.2
657.532	7431.74
657.724	7319.1
657.916	7431.74
658.108	7341.63
658.3	7386.68
658.492	7368.25
658.684	7208.51
658.876	7202.36
659.068	7145.02
659.26	7159.36
659.452	7280.19
659.644	7087.68
659.836	6962.75
660.028	6950.46
660.22	6886.98
660.412	7097.92
660.604	6893.12
660.796	6803.01
660.988	6968.9
661.18	6684.23
661.372	6751.81
661.563	6860.35
661.755	6743.62
661.947	6661.7
662.139	6655.56
662.331	6465.1
662.522	6411.85
662.714	6432.33
662.906	6538.82
663.097	6358.6
663.289	6368.84
663.481	6268.49
663.673	6190.67
663.864	6207.05
664.056	6237.77
664.247	6221.39
664.439	6256.2
664.631	6159.95
664.822	6311.5
665.014	6180.43
665.205	6112.85
665.397	6094.41
665.588	6180.43
665.78	5873.23
665.971	6053.45
666.163	5992.02
666.354	5897.81
666.546	5682.77
666.737	5705.3
666.929	5793.36
667.12	5770.83
667.311	5813.84
667.503	5799.51
667.694	5885.52
667.885	5799.51
668.077	5531.22
668.268	5520.98
668.459	5621.33
668.651	5543.51
668.842	5590.61
669.033	5498.45
669.224	5465.69
669.416	5437.02
669.607	5396.06
669.798	5277.27
669.989	5525.08
670.18	5404.25
670.371	5310.04
670.563	5252.7
670.754	5369.43
670.945	5234.27
671.136	5113.44
671.327	5176.92
671.518	5224.03
671.709	5314.14
671.9	5183.07
672.091	4998.75
672.282	5140.06
672.473	5080.67
672.664	5125.72
672.855	4912.74
673.046	5017.18
673.237	5033.57
673.428	4972.13
673.619	4906.59
673.809	5097.05
674	4984.41
674.191	4918.88
674.382	4937.31
674.573	4777.57
674.764	4933.22
674.954	4771.43
675.145	4812.39
675.336	4867.68
675.527	4802.15
675.717	4791.91
675.908	4609.64
676.099	4709.99
676.289	4826.72
676.48	4630.12
676.671	4560.49
676.861	4783.71
677.052	4679.27
677.243	4568.68
677.433	4585.06
677.624	4632.16
677.814	4490.85
678.005	4482.66
678.195	4519.53
678.386	4527.72
678.576	4540.01
678.767	4644.45
678.957	4607.59
679.148	4617.83
679.338	4470.37
679.529	4507.24
679.719	4441.7
679.909	4617.83
680.1	4415.08
680.29	4515.43
680.481	4386.41
680.671	4540.01
680.861	4470.37
681.052	4367.98
681.242	4367.98
681.432	4388.46
681.622	4335.21
681.813	4298.35
682.003	4245.1
682.193	4220.52
682.383	4277.87
682.573	4335.21
682.764	4388.46
682.954	4367.98
683.144	4247.15
683.334	4286.06
683.524	4066.92
683.714	4347.5
683.904	4183.66
684.094	4191.85
684.284	4032.11
684.474	4200.04
684.664	4087.4
684.854	4122.22
685.044	4048.49
685.234	4058.73
685.424	4136.56
685.614	3999.34
685.804	4109.93
685.994	4079.21
686.184	3991.15
686.374	4085.36
686.564	4073.07
686.753	3976.81
686.943	3982.96
687.133	4099.69
687.323	3876.46
687.513	3952.24
687.702	3903.09
687.892	3933.81
688.082	3878.51
688.272	3927.66
688.461	3966.57
688.651	3919.47
688.841	3876.46
689.03	3901.04
689.22	3833.46
689.41	3761.78
689.599	3665.52
689.789	3647.09
689.979	3853.94
690.168	3677.81
690.358	3698.29
690.547	3624.56
690.737	3884.66
690.926	3659.38
691.116	3704.43
691.305	3694.19
691.495	3696.24
691.684	3653.23
691.874	3657.33
692.063	3681.91
692.252	3657.33
692.442	3587.7
692.631	3427.96
692.82	3667.57
693.01	3436.15
693.199	3528.31
693.388	3350.14
693.578	3507.83
693.767	3530.36
693.956	3454.58
694.146	3389.05
694.335	3450.49
694.524	3491.45
694.713	3475.06
694.902	3559.03
695.092	3430.01
695.281	3356.28
695.47	3524.21
695.659	3387
695.848	3341.94
696.037	3423.86
696.226	3319.42
696.415	3290.74
696.604	3387
696.793	3540.6
696.982	3327.61
697.171	3485.3
697.36	3245.69
697.549	3284.6
697.738	3270.26
697.927	3219.07
698.116	3251.83
698.305	3395.19
698.494	3241.59
698.683	3257.98
698.872	3366.52
699.061	3262.07
699.25	3208.83
699.438	3303.03
699.627	3163.77
699.816	3286.65
700.005	3208.83
700.193	3192.44
700.382	3227.26
700.571	3294.84
700.76	3180.15
700.948	3206.78
701.137	3247.74
701.326	3282.55
701.514	3124.86
701.703	3149.43
701.892	3212.92
702.08	3288.7
702.269	3204.73
702.457	3081.85
702.646	3219.07
702.834	3128.95
703.023	3096.19
703.212	3198.59
703.4	3198.59
703.589	3155.58
703.777	3200.63
703.965	3122.81
704.154	3122.81
704.342	3024.51
704.531	2979.45
704.719	3014.27
704.907	3112.57
705.096	3098.24
705.284	3020.41
705.472	3190.39
705.661	3137.15
705.849	3114.62
706.037	3051.13
706.226	3114.62
706.414	2969.21
706.602	3081.85
706.79	2915.97
706.979	3057.28
707.167	3012.22
707.355	3061.37
707.543	2926.21
707.731	3051.13
707.919	3040.89
708.107	2983.55
708.296	3036.8
708.484	2883.2
708.672	3098.24
708.86	2881.15
709.048	3034.75
709.236	2954.88
709.424	2883.2
709.612	2930.3
709.8	2950.78
709.988	2918.01
710.176	2901.63
710.364	2950.78
710.551	2827.9
710.739	2983.55
710.927	3001.98
711.115	2770.56
711.303	2778.75
711.491	2920.06
711.679	2745.98
711.866	2922.11
712.054	2829.95
712.242	2823.81
712.43	2827.9
712.617	2881.15
712.805	2827.9
712.993	2872.96
713.181	2788.99
713.368	2764.42
713.556	2768.51
713.744	2639.49
713.931	2829.95
714.119	2829.95
714.306	2690.69
714.494	2713.22
714.682	2737.79
714.869	2682.5
715.057	2875.01
715.244	2756.22
715.432	2901.63
715.619	2780.8
715.807	2770.56
715.994	2715.27
716.182	2803.33
716.369	2782.85
716.556	2807.42
716.744	2672.26
716.931	2619.01
717.119	2664.07
717.306	2653.83
717.493	2823.81
717.681	2731.65
717.868	2621.06
718.055	2739.84
718.242	2567.81
718.43	2655.87
718.617	2664.07
718.804	2715.27
718.991	2633.35
719.179	2590.34
719.366	2651.78
719.553	2649.73
719.74	2547.33
719.927	2676.35
720.114	2592.39
720.301	2690.69
720.488	2584.2
720.676	2508.42
720.863	2582.15
721.05	2545.28
721.237	2625.15
721.424	2684.55
721.611	2485.89
721.798	2467.46
721.985	2485.89
722.172	2508.42
722.358	2459.27
722.545	2496.13
722.732	2541.19
722.919	2619.01
723.106	2451.08
723.293	2453.13
723.48	2420.36
723.667	2481.8
723.853	2535.04
724.04	2571.91
724.227	2543.24
724.414	2459.27
724.6	2414.21
724.787	2455.17
724.974	2446.98
725.161	2418.31
725.347	2367.11
725.534	2453.13
725.72	2440.84
725.907	2418.31
726.094	2383.49
726.28	2492.04
726.467	2395.78
726.653	2340.49
726.84	2371.21
727.027	2422.41
727.213	2395.78
727.4	2430.6
727.586	2397.83
727.773	2311.82
727.959	2328.2
728.145	2453.13
728.332	2303.62
728.518	2360.97
728.705	2434.69
728.891	2459.27
729.077	2299.53
729.264	2215.56
729.45	2311.82
729.636	2375.3
729.823	2215.56
730.009	2369.16
730.195	2180.75
730.382	2377.35
730.568	2305.67
730.754	2223.75
730.94	2258.57
731.126	2291.34
731.313	2242.18
731.499	2281.1
731.685	2262.66
731.871	2342.53
732.057	2305.67
732.243	2295.43
732.429	2389.64
732.615	2352.77
732.801	2168.46
732.987	2139.79
733.173	2188.94
733.359	2307.72
733.545	2344.58
733.731	2229.9
733.917	2213.51
734.103	2272.9
734.289	2205.32
734.475	2193.03
734.661	2231.94
734.847	2231.94
735.033	2053.77
735.219	2190.99
735.404	2229.9
735.59	2256.52
735.776	2150.03
735.962	2119.31
736.148	2256.52
736.333	2180.75
736.519	2109.07
736.705	2205.32
736.89	2109.07
737.076	2107.02
737.262	2070.16
737.447	2086.54
737.633	2070.16
737.819	2184.84
738.004	2049.68
738.19	2061.96
738.375	1994.38
738.561	2123.4
738.747	2168.46
738.932	2049.68
739.118	2076.3
739.303	2000.52
739.489	1992.33
739.674	2088.59
739.859	1984.14
740.045	2086.54
740.23	2098.83
740.416	1916.56
740.601	2147.98
740.786	2098.83
740.972	2033.29
741.157	2002.57
741.342	2010.76
741.528	2012.81
741.713	2027.15
741.898	1953.42
742.084	2025.1
742.269	2029.2
742.454	2035.34
742.639	1992.33
742.824	1857.17
743.01	1996.43
743.195	1902.22
743.38	1859.21
743.565	1883.79
743.75	1885.84
743.935	2008.72
744.12	1873.55
744.305	1795.73
744.49	1828.49
744.675	1703.57
744.86	1906.32
745.045	1844.88
745.23	1758.86
745.415	1853.07
745.6	1814.16
745.785	1717.9
745.97	1883.79
746.155	1799.82
746.34	1697.42
746.525	1697.42
746.71	1805.97
746.895	1631.89
747.079	1689.23
747.264	1627.79
747.449	1693.33
747.634	1660.56
747.819	1699.47
748.003	1666.71
748.188	1615.51
748.373	1611.41
748.557	1523.35
748.742	1648.27
748.927	1533.59
749.111	1541.78
749.296	1623.7
749.481	1623.7
749.665	1609.36
749.85	1615.51
750.034	1468.05
750.219	1539.73
750.404	1449.62
750.588	1541.78
750.773	1576.59
750.957	1554.07
751.141	1523.35
751.326	1461.91
751.51	1423
751.695	1490.58
751.879	1443.48
752.064	1461.91
752.248	1373.85
752.432	1435.28
752.617	1447.57
752.801	1324.69
752.985	1394.33
753.17	1345.17
753.354	1484.44
753.538	1416.85
753.722	1271.45
753.907	1269.4
754.091	1300.12
754.275	1343.13
754.459	1361.56
754.643	1261.21
754.828	1336.98
755.012	1279.64
755.196	1201.82
755.38	1312.41
755.564	1210.01
755.748	1197.72
755.932	1228.44
756.116	1234.58
756.3	1222.3
756.484	1173.14
756.668	1230.49
756.852	1132.19
757.036	1185.43
757.22	1083.03
757.404	1189.53
757.588	1091.23
757.772	1130.14
757.956	1103.51
758.14	1183.38
758.323	1164.95
758.507	1132.19
758.691	1134.23
758.875	1134.23
759.059	1164.95
759.242	1029.79
759.426	1115.8
759.61	1121.95
759.794	1074.84
759.977	1121.95
760.161	1115.8
760.345	960.16
760.528	976.54
760.712	968.35
760.895	1042.07
761.079	956.06
761.263	1009.31
761.446	935.58
761.63	1044.12
761.813	1042.07
761.997	927.39
762.18	1015.45
762.364	1009.31
762.547	921.24
762.731	974.49
762.914	945.82
763.098	939.68
763.281	951.96
763.464	874.14
763.648	861.85
763.831	935.58
764.015	943.77
764.198	976.54
764.381	882.33
764.564	841.37
764.748	1042.07
764.931	935.58
765.114	890.53
765.297	878.24
765.481	849.57
765.664	898.72
765.847	837.28
766.03	878.24
766.213	845.47
766.397	954.01
766.58	872.09
766.763	865.95
766.946	911
767.129	833.18
767.312	829.09
767.495	863.9
767.678	849.57
767.861	812.7
768.044	853.66
768.227	853.66
768.41	876.19
768.593	827.04
768.776	847.52
768.959	824.99
769.142	843.42
769.324	806.56
769.507	906.91
769.69	718.5
769.873	769.69
770.056	806.56
770.239	863.9
770.421	831.13
770.604	794.27
770.787	814.75
770.97	800.41
771.152	734.88
771.335	734.88
771.518	741.02
771.7	767.65
771.883	732.83
772.066	716.45
772.248	765.6
772.431	820.89
772.613	773.79
772.796	738.98
772.978	779.93
773.161	675.49
773.343	689.82
773.526	599.71
773.708	714.4
773.891	609.95
774.073	732.83
774.256	718.5
774.438	747.17
774.621	659.1
774.803	634.53
774.985	661.15
775.168	722.59
775.35	618.15
775.532	673.44
775.715	667.3
775.897	738.98
776.079	657.06
776.261	691.87
776.444	538.27
776.626	665.25
776.808	714.4
776.99	665.25
777.173	718.5
777.355	652.96
777.537	595.62
777.719	622.24
777.901	614.05
778.083	667.3
778.265	499.36
778.447	624.29
778.629	587.43
778.811	616.1
778.993	626.34
779.175	534.18
779.357	661.15
779.539	534.18
779.721	523.94
779.903	538.27
780.085	513.7
780.267	485.03
780.449	538.27
780.631	591.52
780.812	689.82
780.994	523.94
781.176	568.99
781.358	495.27
781.54	470.69
781.721	485.03
781.903	601.76
782.085	493.22
782.267	528.03
782.448	515.75
782.63	403.11
782.812	478.88
782.993	544.42
783.175	464.55
783.357	452.26
783.538	501.41
783.72	429.73
783.901	446.12
784.083	478.88
784.264	423.59
784.446	403.11
784.627	462.5
784.809	509.6
784.99	419.49
785.172	485.03
785.353	439.97
785.535	470.69
785.716	423.59
785.897	454.31
786.079	423.59
786.26	433.83
786.441	444.07
786.623	384.68
786.804	403.11
786.985	362.15
787.167	358.05
787.348	403.11
787.529	403.11
787.71	427.68
787.891	423.59
788.073	321.19
788.254	378.53
788.435	321.19
788.616	399.01
788.797	329.38
788.978	433.83
789.159	308.9
789.34	370.34
789.522	329.38
789.703	298.66
789.884	351.91
790.065	368.29
790.246	446.12
790.427	308.9
790.607	378.53
790.788	345.77
790.969	302.76
791.15	380.58
791.331	276.13
791.512	278.18
791.693	296.61
791.874	296.61
792.054	407.2
792.235	386.72
792.416	306.85
792.597	306.85
792.778	319.14
792.958	374.44
793.139	337.57
793.32	280.23
793.5	321.19
793.681	370.34
793.862	384.68
794.042	243.37
794.223	186.02
794.404	284.33
794.584	304.81
794.765	378.53
794.945	333.48
795.126	276.13
795.306	300.71
795.487	329.38
795.667	290.47
795.848	272.04
796.028	206.5
796.209	280.23
796.389	313
796.57	159.4
796.75	222.89
796.93	304.81
797.111	206.5
797.291	265.89
797.471	339.62
797.652	249.51
797.832	241.32
798.012	249.51
798.192	175.78
798.373	249.51
798.553	239.27
798.733	239.27
798.913	265.89
799.093	247.46
799.274	280.23
799.454	208.55
799.634	247.46
799.814	282.28
799.994	200.36
800.174	306.85
800.354	239.27
800.534	237.22
800.714	202.41
800.894	204.46
801.074	214.7
801.254	202.41
801.434	276.13
801.614	171.69
801.794	171.69
801.974	833.18
802.154	177.83
802.334	255.65
802.514	216.74
802.693	190.12
802.873	210.6
803.053	235.18
803.233	200.36
803.413	233.13
803.592	192.17
803.772	212.65
803.952	171.69
804.131	132.78
804.311	206.5
804.491	226.98
804.67	214.7
804.85	167.59
805.03	245.41
805.209	222.89
805.389	167.59
805.568	226.98
805.748	110.25
805.928	130.73
806.107	157.35
806.287	149.16
806.466	218.79
806.646	186.02
806.825	140.97
807.004	181.93
807.184	181.93
807.363	198.31
807.543	54.95
807.722	116.39
807.901	229.03
808.081	183.98
808.26	167.59
808.439	165.54
808.619	165.54
808.798	134.82
808.977	206.5
809.156	208.55
809.336	226.98
809.515	192.17
809.694	50.86
809.873	140.97
810.052	165.54
810.231	206.5
810.411	210.6
810.59	153.26
810.769	177.83
810.948	190.12
811.127	118.44
811.306	167.59
811.485	134.82
811.664	235.18
811.843	173.74
812.022	91.82
812.201	143.02
812.38	183.98
812.559	214.7
812.737	167.59
812.916	143.02
813.095	116.39
813.274	165.54
813.453	210.6
813.632	177.83
813.811	235.18
813.989	120.49
814.168	169.64
814.347	134.82
814.526	155.3
814.704	104.11
814.883	153.26
815.062	173.74
815.24	138.92
815.419	108.2
815.598	128.68
815.776	102.06
815.955	110.25
816.133	108.2
816.312	138.92
816.49	122.54
816.669	218.79
816.847	128.68
817.026	132.78
817.204	73.39
817.383	112.3
817.561	102.06
817.74	93.87
817.918	134.82
818.097	143.02
818.275	100.01
818.453	138.92
818.632	126.63
818.81	108.2
818.988	120.49
819.167	87.72
819.345	145.06
819.523	83.63
819.701	104.11
819.879	153.26
820.058	59.05
820.236	118.44
820.414	120.49
820.592	108.2
820.77	114.34
820.948	108.2
821.127	91.82
821.305	159.4
821.483	124.58
821.661	186.02
821.839	104.11
822.017	83.63
822.195	79.53
822.373	149.16
822.551	36.52
822.729	67.24
822.907	112.3
823.085	69.29
823.262	52.91
823.44	38.57
823.618	38.57
823.796	126.63
823.974	116.39
824.152	116.39
824.329	110.25
824.507	71.34
824.685	145.06
824.863	126.63
825.04	120.49
825.218	124.58
825.396	100.01
825.574	42.67
825.751	140.97
825.929	165.54
826.107	61.1
826.284	108.2
826.462	106.15
826.639	38.57
826.817	83.63
826.994	73.39
827.172	59.05
827.349	151.21
827.527	118.44
827.704	173.74
827.882	75.43
828.059	153.26
828.237	75.43
828.414	110.25
828.591	57
828.769	77.48
828.946	13.99
829.124	52.91
829.301	149.16
829.478	83.63
829.655	124.58
829.833	30.38
830.01	5.8
830.187	93.87
830.364	136.87
830.542	89.77
830.719	128.68
830.896	124.58
831.073	79.53
831.25	140.97
831.427	61.1
831.604	108.2
831.782	143.02
831.959	100.01
832.136	69.29
832.313	34.47
832.49	44.71
832.667	50.86
832.844	42.67
833.021	143.02
833.198	75.43
833.374	91.82
833.551	67.24
833.728	83.63
833.905	110.25
834.082	18.09
834.259	97.96
834.436	161.45
834.612	-2.39
834.789	104.11
834.966	71.34
835.143	102.06
835.319	59.05
835.496	85.67
835.673	102.06
835.85	65.19
836.026	65.19
836.203	59.05
836.38	124.58
836.556	34.47
836.733	5.8
836.909	63.15
837.086	87.72
837.262	42.67
837.439	38.57
837.616	59.05
837.792	75.43
837.968	112.3
838.145	-4.44
838.321	67.24
838.498	42.67
838.674	59.05
838.851	110.25
839.027	69.29
839.203	57
839.38	114.34
839.556	-12.63
839.732	69.29
839.909	9.9
840.085	67.24
840.261	87.72
840.437	102.06
840.614	42.67
840.79	112.3
840.966	83.63
841.142	118.44
841.318	9.9
841.494	20.14
841.671	59.05
841.847	83.63
842.023	81.58
842.199	18.09
842.375	75.43
842.551	34.47
842.727	52.91
842.903	54.95
843.079	79.53
843.255	114.34
843.431	54.95
843.607	13.99
843.783	40.62
843.959	95.91
844.134	69.29
844.31	93.87
844.486	-39.25
844.662	67.24
844.838	-26.96
845.013	83.63
845.189	34.47
845.365	83.63
845.541	81.58
845.716	26.28
845.892	-20.82
846.068	13.99
846.244	91.82
846.419	52.91
846.595	3.75
846.77	42.67
846.946	83.63
847.122	132.78
847.297	-0.34
847.473	108.2
847.648	11.95
847.824	91.82
847.999	-26.96
848.175	54.95
848.35	44.71
848.526	52.91
848.701	24.23
848.876	34.47
849.052	79.53
849.227	50.86
849.403	9.9
849.578	75.43
849.753	34.47
849.929	61.1
850.104	-22.87
850.279	24.23
850.454	63.15
850.63	83.63
850.805	50.86
850.98	44.71
851.155	118.44
851.33	54.95
851.505	36.52
851.681	81.58
851.856	126.63
852.031	42.67
852.206	18.09
852.381	-26.96
852.556	3.75
852.731	52.91
852.906	50.86
853.081	69.29
853.256	50.86
853.431	-4.44
853.606	44.71
853.781	42.67
853.956	20.14
854.131	-6.49
854.305	-16.73
854.48	34.47
854.655	1.71
854.83	9.9
855.005	-14.68
855.18	59.05
855.354	22.19
855.529	110.25
855.704	30.38
855.879	28.33
856.053	-47.44
856.228	54.95
856.403	83.63
856.577	34.47
856.752	-59.73
856.926	-12.63
857.101	34.47
857.276	61.1
857.45	36.52
857.625	75.43
857.799	38.57
857.974	42.67
858.148	-14.68
858.323	34.47
858.497	28.33
858.672	-39.25
858.846	57
859.02	36.52
859.195	36.52
859.369	110.25
859.543	-14.68
859.718	38.57
859.892	-0.34
860.066	147.11
860.241	48.81
860.415	34.47
860.589	-4.44
860.763	42.67
860.938	-12.63
861.112	18.09
861.286	48.81
861.46	22.19
861.634	9.9
861.808	38.57
861.982	50.86
862.157	-18.77
862.331	71.34
862.505	11.95
862.679	44.71
862.853	-12.63
863.027	30.38
863.201	-29.01
863.375	-49.49
863.549	73.39
863.722	-35.16
863.896	81.58
864.07	7.85
864.244	42.67
864.418	50.86
864.592	-8.53
864.766	34.47
864.939	44.71
865.113	-55.64
865.287	34.47
865.461	-4.44
865.634	26.28
865.808	-39.25
865.982	48.81
866.156	-37.2
866.329	-6.49
866.503	1.71
866.676	104.11
866.85	3.75
867.024	5.8
867.197	59.05
867.371	61.1
867.544	42.67
867.718	-88.4
867.891	28.33
868.065	46.76
868.238	38.57
868.412	36.52
868.585	54.95
868.759	-4.44
868.932	26.28
869.105	13.99
869.279	63.15
869.452	-14.68
869.625	59.05
869.799	136.87
869.972	5.8
870.145	18.09
870.319	59.05
870.492	9.9
870.665	26.28
870.838	50.86
871.011	-20.82
871.185	22.19
871.358	-31.06
871.531	44.71
871.704	-43.35
871.877	83.63
872.05	59.05
872.223	11.95
872.396	32.43
872.569	18.09
872.742	-33.11
872.915	-26.96
873.088	9.9
873.261	26.28
873.434	59.05
873.607	-14.68
873.78	1.71
873.953	5.8
874.126	30.38
874.299	69.29
874.471	-31.06
874.644	69.29
874.817	26.28
874.99	118.44
875.163	20.14
875.335	48.81
875.508	-12.63
875.681	34.47
875.853	26.28
876.026	7.85
876.199	9.9
876.371	50.86
876.544	36.52
876.717	67.24
876.889	38.57
877.062	36.52
877.234	1.71
877.407	13.99
877.579	-10.58
877.752	69.29
877.924	108.2
878.097	18.09
878.269	24.23
878.442	38.57
878.614	3.75
878.786	50.86
878.959	-55.64
879.131	20.14
879.303	18.09
879.476	63.15
879.648	57
879.82	40.62
879.993	1.71
880.165	50.86
880.337	-39.25
880.509	50.86
880.681	-45.4
880.854	1.71
881.026	22.19
881.198	44.71
881.37	16.04
881.542	36.52
881.714	26.28
881.886	-4.44
882.058	1.71
882.23	61.1
882.402	57
882.574	5.8
882.746	-37.2
882.918	42.67
883.09	26.28
883.262	-20.82
883.434	20.14
883.606	18.09
883.778	-37.2
883.95	106.15
884.122	-14.68
884.293	20.14
884.465	32.43
884.637	71.34
884.809	18.09
884.98	-10.58
885.152	3.75
885.324	59.05
885.496	1.71
885.667	-6.49
885.839	-39.25
886.011	1.71
886.182	3.75
886.354	26.28
886.525	102.06
886.697	-4.44
886.869	-22.87
887.04	52.91
887.212	69.29
887.383	40.62
887.555	32.43
887.726	34.47
887.897	-57.68
888.069	-59.73
888.24	18.09
888.412	1.71
888.583	-4.44
888.754	83.63
888.926	-45.4
889.097	50.86
889.268	-84.31
889.44	-18.77
889.611	-29.01
889.782	-4.44
889.953	-31.06
890.125	48.81
890.296	63.15
890.467	-47.44
890.638	13.99
890.809	-29.01
890.98	-53.59
891.151	-10.58
891.323	22.19
891.494	59.05
891.665	-12.63
891.836	34.47
892.007	-4.44
892.178	42.67
892.349	22.19
892.52	1.71
892.691	42.67
892.862	75.43
893.032	-37.2
893.203	9.9
893.374	-4.44
893.545	1.71
893.716	30.38
893.887	-20.82
894.057	20.14
894.228	-16.73
894.399	44.71
894.57	61.1
894.74	38.57
894.911	38.57
895.082	-37.2
895.253	-12.63
895.423	7.85
895.594	38.57
895.764	50.86
895.935	1.71
896.106	26.28
896.276	11.95
896.447	13.99
896.617	-6.49
896.788	11.95
896.958	-14.68
897.129	28.33
897.299	50.86
897.47	-4.44
897.64	100.01
897.81	77.48
897.981	44.71
898.151	57
898.322	-14.68
898.492	52.91
898.662	9.9
898.832	30.38
899.003	-37.2
899.173	5.8
899.343	24.23
899.513	-4.44
