Data from USB4F104151__121__14-18-53-501.txt Node

Date: Thu Mar 13 14:18:53 EDT 2025
User: louis
Spectrometer: USB4F10415
Trigger mode: 4
Integration Time (sec): 2.000000E-2
Scans to average: 1
Electric dark correction enabled: true
Nonlinearity correction enabled: false
Boxcar width: 0
XAxis mode: Wavelengths
Number of Pixels in Spectrum: 3648
>>>>>Begin Spectral Data<<<<<
178.204	-66.73
178.424	-66.73
178.644	-66.73
178.864	-165.03
179.084	-93.35
179.304	11.09
179.524	15.19
179.744	31.57
179.964	25.43
180.184	-25.77
180.404	9.05
180.624	-1.19
180.844	-25.77
181.064	-17.58
181.283	35.67
181.503	-48.3
181.723	-9.39
181.943	-40.11
182.163	52.05
182.383	60.24
182.602	-11.43
182.822	60.24
183.042	60.24
183.262	88.92
183.482	74.58
183.701	-44.2
183.921	72.53
184.141	7
184.361	33.62
184.58	74.58
184.8	4.95
185.02	31.57
185.239	47.96
185.459	47.96
185.679	54.1
185.898	31.57
186.118	15.19
186.338	-44.2
186.557	47.96
186.777	31.57
186.997	19.29
187.216	78.68
187.436	56.15
187.655	-17.58
187.875	-11.43
188.095	54.1
188.314	84.82
188.534	50
188.753	41.81
188.973	35.67
189.192	9.05
189.412	90.96
189.631	15.19
189.851	-5.29
190.07	82.77
190.29	-23.72
190.509	31.57
190.729	68.44
190.948	31.57
191.168	131.92
191.387	56.15
191.607	-13.48
191.826	121.68
192.045	19.29
192.265	19.29
192.484	105.3
192.704	148.31
192.923	-23.72
193.142	119.64
193.362	88.92
193.581	101.2
193.8	-15.53
194.02	131.92
194.239	-25.77
194.458	115.54
194.678	0.85
194.897	19.29
195.116	-33.96
195.335	-7.34
195.555	41.81
195.774	50
195.993	-19.63
196.212	88.92
196.432	19.29
196.651	-33.96
196.87	41.81
197.089	80.72
197.308	66.39
197.528	113.49
197.747	45.91
197.966	27.48
198.185	113.49
198.404	-13.48
198.623	39.76
198.842	19.29
199.062	64.34
199.281	56.15
199.5	39.76
199.719	84.82
199.938	2.9
200.157	76.63
200.376	84.82
200.595	101.2
200.814	-5.29
201.033	15.19
201.252	72.53
201.471	31.57
201.69	72.53
201.909	17.24
202.128	52.05
202.347	88.92
202.566	4.95
202.785	-13.48
203.004	7
203.223	80.72
203.442	64.34
203.661	23.38
203.879	7
204.098	23.38
204.317	66.39
204.536	-31.91
204.755	17.24
204.974	90.96
205.193	76.63
205.411	64.34
205.63	31.57
205.849	86.87
206.068	15.19
206.287	66.39
206.505	41.81
206.724	27.48
206.943	-1.19
207.162	25.43
207.381	-21.67
207.599	41.81
207.818	50
208.037	31.57
208.255	35.67
208.474	76.63
208.693	84.82
208.911	9.05
209.13	60.24
209.349	78.68
209.567	58.2
209.786	58.2
210.005	60.24
210.223	-56.49
210.442	-58.54
210.661	86.87
210.879	-5.29
211.098	41.81
211.316	13.14
211.535	72.53
211.753	41.81
211.972	-17.58
212.191	97.11
212.409	113.49
212.628	47.96
212.846	-17.58
213.065	9.05
213.283	70.48
213.502	33.62
213.72	11.09
213.938	64.34
214.157	7
214.375	90.96
214.594	-38.06
214.812	35.67
215.031	31.57
215.249	4.95
215.467	43.86
215.686	25.43
215.904	17.24
216.122	7
216.341	-3.24
216.559	56.15
216.778	56.15
216.996	50
217.214	47.96
217.432	9.05
217.651	17.24
217.869	15.19
218.087	4.95
218.306	72.53
218.524	41.81
218.742	15.19
218.96	56.15
219.179	-15.53
219.397	47.96
219.615	60.24
219.833	31.57
220.051	19.29
220.27	74.58
220.488	60.24
220.706	47.96
220.924	-1.19
221.142	-17.58
221.36	74.58
221.578	15.19
221.796	15.19
222.015	52.05
222.233	-91.31
222.451	90.96
222.669	31.57
222.887	68.44
223.105	27.48
223.323	64.34
223.541	-50.35
223.759	-3.24
223.977	31.57
224.195	52.05
224.413	7
224.631	64.34
224.849	0.85
225.067	76.63
225.285	72.53
225.503	-1.19
225.721	-7.34
225.939	23.38
226.157	39.76
226.375	76.63
226.592	7
226.81	23.38
227.028	35.67
227.246	93.01
227.464	23.38
227.682	68.44
227.9	90.96
228.117	25.43
228.335	50
228.553	82.77
228.771	7
228.989	15.19
229.206	7
229.424	31.57
229.642	-25.77
229.86	-17.58
230.077	19.29
230.295	70.48
230.513	29.52
230.731	68.44
230.948	56.15
231.166	43.86
231.384	4.95
231.601	80.72
231.819	86.87
232.037	15.19
232.254	-3.24
232.472	-36.01
232.689	-1.19
232.907	66.39
233.125	39.76
233.342	99.16
233.56	7
233.777	39.76
233.995	15.19
234.213	64.34
234.43	41.81
234.648	47.96
234.865	27.48
235.083	56.15
235.3	33.62
235.518	4.95
235.735	76.63
235.953	19.29
236.17	47.96
236.388	-17.58
236.605	27.48
236.822	105.3
237.04	47.96
237.257	90.96
237.475	-33.96
237.692	23.38
237.909	115.54
238.127	56.15
238.344	27.48
238.562	76.63
238.779	-99.5
238.996	21.33
239.214	78.68
239.431	31.57
239.648	7
239.865	9.05
240.083	66.39
240.3	39.76
240.517	-33.96
240.735	47.96
240.952	33.62
241.169	15.19
241.386	-15.53
241.603	31.57
241.821	-40.11
242.038	-25.77
242.255	56.15
242.472	15.19
242.689	33.62
242.907	84.82
243.124	2.9
243.341	21.33
243.558	-7.34
243.775	-42.15
243.992	-11.43
244.209	78.68
244.426	62.29
244.643	66.39
244.86	9.05
245.078	119.64
245.295	64.34
245.512	78.68
245.729	39.76
245.946	117.59
246.163	47.96
246.38	50
246.597	50
246.814	68.44
247.031	-1.19
247.248	23.38
247.464	47.96
247.681	37.72
247.898	-13.48
248.115	76.63
248.332	23.38
248.549	113.49
248.766	64.34
248.983	29.52
249.2	56.15
249.417	52.05
249.633	45.91
249.85	29.52
250.067	11.09
250.284	33.62
250.501	72.53
250.717	39.76
250.934	-56.49
251.151	47.96
251.368	15.19
251.585	76.63
251.801	-1.19
252.018	4.95
252.235	11.09
252.451	21.33
252.668	-42.15
252.885	189.27
253.102	82.77
253.318	101.2
253.535	23.38
253.752	-38.06
253.968	39.76
254.185	-5.29
254.401	45.91
254.618	97.11
254.835	-38.06
255.051	95.06
255.268	84.82
255.484	90.96
255.701	21.33
255.917	39.76
256.134	41.81
256.351	43.86
256.567	41.81
256.784	33.62
257	17.24
257.217	23.38
257.433	33.62
257.65	119.64
257.866	60.24
258.082	43.86
258.299	-29.87
258.515	52.05
258.732	-33.96
258.948	35.67
259.165	52.05
259.381	9.05
259.597	2.9
259.814	47.96
260.03	11.09
260.246	-5.29
260.463	29.52
260.679	58.2
260.895	4.95
261.112	43.86
261.328	64.34
261.544	19.29
261.761	78.68
261.977	101.2
262.193	-5.29
262.409	33.62
262.626	60.24
262.842	52.05
263.058	-42.15
263.274	-1.19
263.49	-42.15
263.707	15.19
263.923	21.33
264.139	19.29
264.355	97.11
264.571	64.34
264.787	21.33
265.004	-7.34
265.22	47.96
265.436	7
265.652	11.09
265.868	43.86
266.084	23.38
266.3	66.39
266.516	-7.34
266.732	27.48
266.948	11.09
267.164	23.38
267.38	78.68
267.596	9.05
267.812	84.82
268.028	123.73
268.244	-38.06
268.46	64.34
268.676	33.62
268.892	45.91
269.108	39.76
269.324	41.81
269.54	29.52
269.756	9.05
269.972	0.85
270.188	25.43
270.403	13.14
270.619	4.95
270.835	88.92
271.051	2.9
271.267	52.05
271.483	15.19
271.698	2.9
271.914	45.91
272.13	-1.19
272.346	17.24
272.562	90.96
272.777	121.68
272.993	74.58
273.209	-3.24
273.425	-23.72
273.64	-17.58
273.856	115.54
274.072	41.81
274.287	39.76
274.503	47.96
274.719	68.44
274.934	43.86
275.15	-31.91
275.366	2.9
275.581	17.24
275.797	-9.39
276.012	29.52
276.228	90.96
276.444	2.9
276.659	39.76
276.875	39.76
277.09	39.76
277.306	2.9
277.521	82.77
277.737	15.19
277.952	9.05
278.168	-3.24
278.383	23.38
278.599	88.92
278.814	113.49
279.03	2.9
279.245	66.39
279.461	47.96
279.676	-9.39
279.892	7
280.107	47.96
280.322	-13.48
280.538	90.96
280.753	-25.77
280.969	56.15
281.184	-29.87
281.399	47.96
281.615	72.53
281.83	97.11
282.045	-33.96
282.26	-5.29
282.476	-17.58
282.691	72.53
282.906	-7.34
283.122	-29.87
283.337	23.38
283.552	125.78
283.767	80.72
283.983	39.76
284.198	23.38
284.413	37.72
284.628	13.14
284.843	129.88
285.058	27.48
285.274	80.72
285.489	-23.72
285.704	60.24
285.919	-17.58
286.134	-17.58
286.349	39.76
286.564	138.07
286.779	2.9
286.995	99.16
287.21	-1.19
287.425	41.81
287.64	2.9
287.855	131.92
288.07	-23.72
288.285	62.29
288.5	82.77
288.715	-17.58
288.93	64.34
289.145	-58.54
289.36	39.76
289.575	31.57
289.79	25.43
290.004	-1.19
290.219	56.15
290.434	9.05
290.649	50
290.864	76.63
291.079	35.67
291.294	29.52
291.509	-5.29
291.724	33.62
291.938	15.19
292.153	31.57
292.368	23.38
292.583	-23.72
292.798	62.29
293.012	105.3
293.227	41.81
293.442	-54.44
293.657	80.72
293.871	27.48
294.086	58.2
294.301	47.96
294.516	11.09
294.73	64.34
294.945	-17.58
295.16	93.01
295.374	56.15
295.589	133.97
295.804	-7.34
296.018	17.24
296.233	80.72
296.447	64.34
296.662	-29.87
296.877	80.72
297.091	19.29
297.306	31.57
297.52	56.15
297.735	66.39
297.949	66.39
298.164	56.15
298.378	-25.77
298.593	-9.39
298.807	41.81
299.022	-15.53
299.236	4.95
299.451	17.24
299.665	39.76
299.88	7
300.094	2.9
300.309	-31.91
300.523	-3.24
300.737	33.62
300.952	35.67
301.166	72.53
301.381	9.05
301.595	-1.19
301.809	-7.34
302.024	15.19
302.238	76.63
302.452	-27.82
302.667	37.72
302.881	78.68
303.095	97.11
303.309	58.2
303.524	-9.39
303.738	-29.87
303.952	-27.82
304.166	58.2
304.381	-9.39
304.595	80.72
304.809	-50.35
305.023	9.05
305.237	-23.72
305.452	15.19
305.666	-21.67
305.88	78.68
306.094	4.95
306.308	101.2
306.522	25.43
306.736	62.29
306.95	113.49
307.164	15.19
307.379	31.57
307.593	58.2
307.807	-5.29
308.021	80.72
308.235	39.76
308.449	-29.87
308.663	-29.87
308.877	82.77
309.091	4.95
309.305	80.72
309.519	31.57
309.733	107.35
309.947	0.85
310.161	84.82
310.374	68.44
310.588	101.2
310.802	-9.39
311.016	4.95
311.23	33.62
311.444	66.39
311.658	-9.39
311.872	-7.34
312.085	88.92
312.299	99.16
312.513	80.72
312.727	4.95
312.941	-27.82
313.154	88.92
313.368	17.24
313.582	72.53
313.796	76.63
314.009	7
314.223	58.2
314.437	58.2
314.651	25.43
314.864	64.34
315.078	50
315.292	58.2
315.505	-3.24
315.719	-17.58
315.933	97.11
316.146	39.76
316.36	-13.48
316.573	80.72
316.787	107.35
317.001	125.78
317.214	33.62
317.428	70.48
317.641	11.09
317.855	-17.58
318.068	-1.19
318.282	58.2
318.495	64.34
318.709	64.34
318.922	41.81
319.136	70.48
319.349	47.96
319.563	-31.91
319.776	88.92
319.99	-29.87
320.203	88.92
320.417	56.15
320.63	21.33
320.843	50
321.057	23.38
321.27	-1.19
321.483	37.72
321.697	56.15
321.91	64.34
322.124	39.76
322.337	60.24
322.55	33.62
322.763	45.91
322.977	31.57
323.19	88.92
323.403	35.67
323.617	56.15
323.83	62.29
324.043	39.76
324.256	31.57
324.469	23.38
324.683	31.57
324.896	56.15
325.109	19.29
325.322	66.39
325.535	66.39
325.748	-11.43
325.962	33.62
326.175	80.72
326.388	33.62
326.601	93.01
326.814	-17.58
327.027	64.34
327.24	72.53
327.453	-27.82
327.666	72.53
327.879	68.44
328.092	70.48
328.305	99.16
328.518	25.43
328.731	-15.53
328.944	33.62
329.157	-46.25
329.37	9.05
329.583	47.96
329.796	105.3
330.009	39.76
330.222	105.3
330.435	60.24
330.648	58.2
330.861	13.14
331.073	15.19
331.286	13.14
331.499	97.11
331.712	23.38
331.925	35.67
332.138	72.53
332.35	31.57
332.563	-25.77
332.776	66.39
332.989	39.76
333.202	47.96
333.414	23.38
333.627	76.63
333.84	31.57
334.053	109.4
334.265	-1.19
334.478	113.49
334.691	66.39
334.903	-42.15
335.116	101.2
335.329	78.68
335.541	-5.29
335.754	115.54
335.966	21.33
336.179	19.29
336.392	47.96
336.604	41.81
336.817	39.76
337.029	9.05
337.242	33.62
337.454	111.44
337.667	43.86
337.88	109.4
338.092	41.81
338.305	105.3
338.517	-11.43
338.729	7
338.942	-42.15
339.154	-48.3
339.367	9.05
339.579	37.72
339.792	74.58
340.004	19.29
340.217	15.19
340.429	-25.77
340.641	31.57
340.854	-17.58
341.066	76.63
341.278	148.31
341.491	17.24
341.703	68.44
341.915	0.85
342.128	90.96
342.34	15.19
342.552	-13.48
342.764	64.34
342.977	33.62
343.189	-11.43
343.401	64.34
343.613	-17.58
343.826	66.39
344.038	56.15
344.25	7
344.462	47.96
344.674	23.38
344.886	111.44
345.099	27.48
345.311	52.05
345.523	52.05
345.735	58.2
345.947	56.15
346.159	9.05
346.371	125.78
346.583	7
346.795	146.26
347.007	31.57
347.219	52.05
347.431	-1.19
347.643	97.11
347.855	15.19
348.067	-1.19
348.279	33.62
348.491	9.05
348.703	-1.19
348.915	21.33
349.127	-36.01
349.339	50
349.551	93.01
349.763	80.72
349.975	35.67
350.187	33.62
350.399	7
350.61	56.15
350.822	52.05
351.034	50
351.246	-29.87
351.458	52.05
351.669	41.81
351.881	-1.19
352.093	-38.06
352.305	52.05
352.517	25.43
352.728	70.48
352.94	84.82
353.152	80.72
353.363	23.38
353.575	66.39
353.787	113.49
353.999	70.48
354.21	117.59
354.422	11.09
354.633	64.34
354.845	43.86
355.057	58.2
355.268	39.76
355.48	33.62
355.692	23.38
355.903	56.15
356.115	17.24
356.326	-31.91
356.538	-13.48
356.749	68.44
356.961	138.07
357.172	13.14
357.384	19.29
357.595	64.34
357.807	17.24
358.018	-17.58
358.23	39.76
358.441	93.01
358.653	72.53
358.864	-21.67
359.075	-5.29
359.287	97.11
359.498	47.96
359.709	-27.82
359.921	35.67
360.132	15.19
360.344	-19.63
360.555	2.9
360.766	25.43
360.977	37.72
361.189	72.53
361.4	41.81
361.611	107.35
361.823	50
362.034	31.57
362.245	23.38
362.456	-7.34
362.667	76.63
362.879	41.81
363.09	97.11
363.301	109.4
363.512	25.43
363.723	-25.77
363.935	80.72
364.146	58.2
364.357	35.67
364.568	56.15
364.779	56.15
364.99	29.52
365.201	52.05
365.412	123.73
365.623	-40.11
365.834	99.16
366.045	39.76
366.256	50
366.467	25.43
366.678	41.81
366.889	4.95
367.1	138.07
367.311	76.63
367.522	62.29
367.733	11.09
367.944	4.95
368.155	58.2
368.366	127.83
368.577	88.92
368.788	33.62
368.999	-11.43
369.209	25.43
369.42	150.36
369.631	119.64
369.842	54.1
370.053	39.76
370.264	68.44
370.474	62.29
370.685	76.63
370.896	7
371.107	43.86
371.317	58.2
371.528	-5.29
371.739	37.72
371.95	-23.72
372.16	88.92
372.371	41.81
372.582	60.24
372.792	7
373.003	50
373.214	11.09
373.424	47.96
373.635	-3.24
373.846	13.14
374.056	58.2
374.267	52.05
374.477	66.39
374.688	31.57
374.898	7
375.109	41.81
375.319	29.52
375.53	146.26
375.74	-1.19
375.951	64.34
376.161	0.85
376.372	-7.34
376.582	31.57
376.793	43.86
377.003	60.24
377.214	72.53
377.424	39.76
377.635	60.24
377.845	66.39
378.055	125.78
378.266	23.38
378.476	66.39
378.686	56.15
378.897	58.2
379.107	72.53
379.317	54.1
379.528	86.87
379.738	31.57
379.948	-13.48
380.158	103.25
380.369	101.2
380.579	25.43
380.789	62.29
380.999	52.05
381.21	58.2
381.42	39.76
381.63	19.29
381.84	105.3
382.05	23.38
382.261	35.67
382.471	7
382.681	11.09
382.891	56.15
383.101	64.34
383.311	52.05
383.521	41.81
383.731	7
383.941	17.24
384.151	39.76
384.361	-7.34
384.571	41.81
384.781	52.05
384.991	78.68
385.201	123.73
385.411	72.53
385.621	17.24
385.831	119.64
386.041	9.05
386.251	19.29
386.461	58.2
386.671	-1.19
386.881	27.48
387.091	25.43
387.301	82.77
387.511	58.2
387.72	82.77
387.93	60.24
388.14	13.14
388.35	35.67
388.56	74.58
388.769	64.34
388.979	47.96
389.189	25.43
389.399	97.11
389.609	97.11
389.818	-21.67
390.028	35.67
390.238	9.05
390.447	58.2
390.657	80.72
390.867	-19.63
391.076	-50.35
391.286	78.68
391.496	47.96
391.705	78.68
391.915	64.34
392.125	58.2
392.334	41.81
392.544	129.88
392.753	64.34
392.963	25.43
393.172	74.58
393.382	39.76
393.591	99.16
393.801	-58.54
394.01	170.83
394.22	72.53
394.429	-5.29
394.639	105.3
394.848	47.96
395.058	88.92
395.267	19.29
395.477	111.44
395.686	52.05
395.895	68.44
396.105	179.03
396.314	84.82
396.524	37.72
396.733	90.96
396.942	131.92
397.152	105.3
397.361	97.11
397.57	68.44
397.78	88.92
397.989	66.39
398.198	76.63
398.407	72.53
398.617	80.72
398.826	72.53
399.035	56.15
399.244	101.2
399.453	109.4
399.663	25.43
399.872	88.92
400.081	19.29
400.29	93.01
400.499	4.95
400.708	74.58
400.917	41.81
401.127	133.97
401.336	39.76
401.545	162.64
401.754	88.92
401.963	148.31
402.172	86.87
402.381	72.53
402.59	76.63
402.799	107.35
403.008	109.4
403.217	133.97
403.426	131.92
403.635	74.58
403.844	74.58
404.053	45.91
404.262	115.54
404.471	158.55
404.68	115.54
404.888	131.92
405.097	80.72
405.306	201.55
405.515	170.83
405.724	72.53
405.933	183.12
406.142	88.92
406.35	140.12
406.559	195.41
406.768	115.54
406.977	146.26
407.185	164.69
407.394	154.45
407.603	170.83
407.812	183.12
408.02	230.23
408.229	88.92
408.438	154.45
408.646	189.27
408.855	154.45
409.064	187.22
409.272	144.21
409.481	242.51
409.69	179.03
409.898	228.18
410.107	219.99
410.315	287.57
410.524	195.41
410.733	277.33
410.941	248.66
411.15	211.79
411.358	312.14
411.567	248.66
411.775	359.25
411.984	353.1
412.192	320.34
412.401	295.76
412.609	396.11
412.818	357.2
413.026	369.49
413.234	326.48
413.443	416.59
413.651	435.02
413.86	457.55
414.068	441.17
414.276	500.56
414.485	490.32
414.693	484.17
414.901	529.23
415.11	539.47
415.318	580.43
415.526	545.61
415.734	637.77
415.943	596.81
416.151	662.35
416.359	656.2
416.567	594.76
416.776	691.02
416.984	783.18
417.192	762.7
417.4	756.55
417.608	734.03
417.817	826.18
418.025	781.13
418.233	961.35
418.441	828.23
418.649	885.58
418.857	949.06
419.065	973.64
419.273	1014.6
419.481	1016.65
419.689	1055.56
419.897	1119.04
420.105	1061.7
420.313	1239.87
420.521	1311.55
420.729	1184.58
420.937	1295.17
421.145	1358.66
421.353	1448.77
421.561	1483.58
421.769	1530.69
421.977	1452.86
422.185	1469.25
422.393	1712.96
422.601	1704.76
422.809	1667.9
423.017	1633.08
423.224	1741.63
423.432	1803.07
423.64	1917.75
423.848	2054.97
424.056	2075.45
424.263	2167.6
424.471	2214.71
424.679	2179.89
424.887	2263.86
425.094	2329.39
425.302	2325.3
425.51	2485.04
425.718	2595.63
425.925	2628.4
426.133	2657.07
426.341	2747.18
426.548	2974.5
426.756	2958.12
426.964	2919.21
427.171	3142.44
427.379	3132.2
427.586	3132.2
427.794	3390.24
428.001	3451.68
428.209	3701.53
428.417	3658.53
428.624	3709.72
428.832	3898.14
429.039	3838.75
429.247	3810.08
429.454	4279.06
429.662	4518.67
429.869	4158.23
430.076	4553.49
430.284	4320.02
430.491	4438.8
430.699	4770.57
430.906	4881.16
431.114	4905.74
431.321	5040.9
431.528	5176.07
431.736	5587.71
431.943	5708.54
432.15	5661.44
432.358	5675.77
432.565	6054.65
432.772	5831.42
432.979	6044.41
433.187	6337.27
433.394	6253.3
433.601	6890.22
433.808	7011.05
434.016	6847.21
434.223	7090.92
434.43	7477.99
434.637	7299.81
434.844	7580.39
435.052	8133.34
435.259	7928.54
435.466	8100.57
435.673	7654.11
435.88	8381.14
436.087	8641.23
436.294	8745.68
436.501	8721.1
436.708	8633.04
436.915	8870.61
437.122	9536.2
437.329	9398.98
437.537	9788.1
437.743	9921.21
437.95	9730.75
438.157	10336.95
438.364	10568.37
438.571	10627.76
438.778	10758.83
438.985	11797.15
439.192	11233.96
439.399	11606.69
439.606	11152.04
439.813	11811.49
440.02	12642.96
440.227	12532.37
440.433	12475.03
440.64	12630.68
440.847	12661.4
441.054	13165.2
441.261	13845.12
441.467	13625.99
441.674	13789.83
441.881	14422.65
442.088	14426.75
442.294	14076.54
442.501	14586.49
442.708	14770.8
442.914	15522.41
443.121	16048.74
443.328	15723.11
443.534	16679.51
443.741	16267.87
443.948	16128.61
444.154	17273.42
444.361	16779.86
444.568	17263.18
444.774	17441.36
444.981	17361.48
445.187	18002.5
445.394	18762.3
445.6	18522.68
445.807	20257.31
446.013	19466.8
446.22	20023.84
446.426	20709.91
446.633	20754.97
446.839	21330.45
447.046	20591.13
447.252	21731.85
447.459	21457.42
447.665	21664.27
447.871	22788.6
448.078	23519.73
448.284	22544.89
448.491	23036.41
448.697	23943.66
448.903	24314.34
449.11	24166.88
449.316	24175.08
449.522	24599.01
449.728	25268.69
449.935	25348.56
450.141	25045.46
450.347	25821.64
450.553	24932.82
450.76	25457.1
450.966	26319.3
451.172	25954.76
451.378	26606.02
451.584	26221
451.791	26988.99
451.997	26948.03
452.203	27036.09
452.409	27136.44
452.615	27126.2
452.821	26337.73
453.027	25620.94
453.233	27367.86
453.44	26034.63
453.646	26448.32
453.852	26542.53
454.058	27136.44
454.264	26153.41
454.47	26890.68
454.676	26157.51
454.882	26997.18
455.088	24623.58
455.294	25065.94
455.5	25479.63
455.705	25475.54
455.911	24943.06
456.117	24263.14
456.323	23906.79
456.529	22536.7
456.735	23769.58
456.941	23165.43
457.147	22852.09
457.352	22084.1
457.558	22118.92
457.764	21920.26
457.97	21508.62
458.176	20838.94
458.381	21129.75
458.587	20023.84
458.793	20339.23
458.999	18815.54
459.204	20627.99
459.41	19817
459.616	18461.24
459.821	18758.2
460.027	18356.8
460.233	18233.92
460.438	17582.67
460.644	17590.86
460.85	16603.74
461.055	16278.11
461.261	16228.96
461.466	15170.16
461.672	14592.63
461.878	15805.03
462.083	14903.92
462.289	14379.64
462.494	14269.05
462.7	13648.52
462.905	13165.2
463.111	13806.21
463.316	13824.64
463.522	13630.09
463.727	13343.37
463.932	13605.51
464.138	13386.38
464.343	13431.43
464.549	12995.22
464.754	13591.17
464.959	13374.09
465.165	13310.6
465.37	12696.21
465.575	12405.4
465.781	12675.73
465.986	12849.81
466.191	12475.03
466.397	12173.98
466.602	11786.91
466.807	11770.53
467.012	11985.57
467.218	11960.99
467.423	11741.86
467.628	11838.11
467.833	12450.46
468.038	11913.89
468.244	11410.09
468.449	12184.22
468.654	11762.34
468.859	11565.73
469.064	11352.74
469.269	11078.32
469.474	11168.43
469.679	11262.63
469.885	11006.64
470.09	11037.36
470.295	10975.92
470.5	10771.12
470.705	10799.79
470.91	10863.28
471.115	10498.74
471.32	10685.11
471.525	10664.63
471.73	10306.23
471.935	10269.37
472.139	10011.32
472.344	10021.56
472.549	9816.77
472.754	9906.88
472.959	9661.12
473.164	9394.89
473.369	9546.44
473.574	9763.52
473.778	9511.62
473.983	9534.15
474.188	9460.42
474.393	9130.7
474.598	9298.63
474.802	9024.2
475.007	9124.55
475.212	8913.61
475.417	8835.79
475.621	8737.49
475.826	8610.51
476.031	8624.85
476.235	8647.38
476.44	8678.1
476.645	8479.44
476.849	8461.01
477.054	8264.41
477.259	8174.3
477.463	8233.69
477.668	7951.07
477.872	7953.12
478.077	7897.82
478.282	7643.87
478.486	7613.15
478.691	7580.39
478.895	7463.65
479.1	7645.92
479.304	7535.33
479.509	7256.81
479.713	7547.62
479.918	7506.66
480.122	7215.85
480.326	7406.31
480.531	7195.37
480.735	6992.62
480.94	7068.39
481.144	7408.36
481.348	7168.74
481.553	7070.44
481.757	6980.33
481.961	6953.71
482.166	7215.85
482.37	6937.32
482.574	6879.98
482.778	6896.36
482.983	6978.28
483.187	7080.68
483.391	6980.33
483.595	7070.44
483.8	6843.12
484.004	7002.86
484.208	7076.59
484.412	6773.49
484.616	6886.12
484.821	7086.83
485.025	6834.93
485.229	6845.16
485.433	6843.12
485.637	6998.76
485.841	6789.87
486.045	6839.02
486.249	6902.51
486.453	6910.7
486.657	6961.9
486.861	7107.3
487.065	6808.3
487.269	6908.65
487.473	6798.06
487.677	6949.61
487.881	7047.91
488.085	6966
488.289	6904.56
488.493	6937.32
488.697	6947.56
488.901	7119.59
489.105	6984.43
489.309	7047.91
489.512	6996.71
489.716	7047.91
489.92	7101.16
490.124	6882.03
490.328	7166.7
490.531	7060.2
490.735	7076.59
490.939	7133.93
491.143	6920.94
491.346	7160.55
491.55	7228.14
491.754	7101.16
491.958	7291.62
492.161	7228.14
492.365	7297.77
492.569	7123.69
492.772	7355.11
492.976	7340.77
493.18	7219.94
493.383	7592.67
493.587	7486.18
493.79	7672.54
493.994	7666.4
494.197	7647.97
494.401	7840.48
494.605	7609.06
494.808	7799.52
495.012	7398.12
495.215	7955.16
495.419	7856.86
495.622	7918.3
495.825	8014.56
496.029	7953.12
496.232	8184.54
496.436	8139.48
496.639	8321.75
496.843	8116.95
497.046	8370.9
497.249	8518.36
497.453	8725.2
497.656	8626.9
497.859	8694.48
498.063	8899.28
498.266	8940.24
498.469	8927.95
498.673	8968.91
498.876	9079.5
499.079	9110.22
499.282	9245.38
499.485	9444.04
499.689	9417.41
499.892	9517.76
500.095	9638.59
500.298	9804.48
500.501	9638.59
500.705	10068.67
500.908	10177.21
501.111	10246.84
501.314	10267.32
501.517	10623.67
501.72	10574.52
501.923	10480.31
502.126	10719.92
502.329	10799.79
502.532	11029.17
502.735	10930.86
502.938	11311.78
503.141	11254.44
503.344	11254.44
503.547	11500.2
503.75	11600.55
503.953	11782.82
504.156	11858.59
504.359	12186.27
504.562	12223.13
504.765	12380.82
504.968	12534.42
505.17	12526.23
505.373	12716.69
505.576	12888.72
505.779	12876.43
505.982	12982.93
506.185	13277.83
506.387	13146.76
506.59	13687.43
506.793	13718.15
506.996	13834.88
507.198	13894.27
507.401	14123.65
507.604	14084.73
507.807	14344.83
508.009	14414.46
508.212	14449.27
508.415	14914.16
508.617	14867.06
508.82	15239.79
509.022	14828.15
509.225	15612.52
509.428	15532.65
509.63	15688.29
509.833	15762.02
510.035	15837.8
510.238	15975.01
510.44	16231.01
510.643	16284.25
510.845	16474.71
511.048	16341.6
511.25	16816.72
511.453	16898.64
511.655	17244.75
511.858	17603.14
512.06	17306.19
512.262	17435.21
512.465	17738.31
512.667	17908.29
512.87	18250.3
513.072	18278.97
513.274	18301.5
513.477	18637.37
513.679	18594.36
513.881	19020.34
514.084	19264.05
514.286	19194.42
514.488	19290.67
514.69	19905.06
514.893	20005.41
515.095	20048.42
515.297	20212.26
515.499	20193.83
515.701	20427.29
515.904	20484.64
516.106	20634.14
516.308	20998.68
516.51	21185.04
516.712	21303.82
516.914	21510.67
517.116	21983.75
517.318	22043.14
517.52	21950.98
517.722	22249.99
517.925	22479.36
518.127	22790.65
518.329	22739.45
518.531	22614.52
518.733	23194.1
518.935	23456.24
519.136	23396.85
519.338	23644.65
519.54	23816.68
519.742	24123.88
519.944	23876.07
520.146	24576.48
520.348	24363.49
520.55	24607.2
520.752	24984.02
520.954	25389.52
521.155	25385.43
521.357	25815.5
521.559	25995.72
521.761	26024.39
521.963	25864.65
522.164	26438.08
522.366	26104.26
522.568	26487.23
522.77	26716.61
522.971	27064.76
523.173	26851.77
523.375	27343.28
523.576	27318.71
523.778	27343.28
523.98	27892.14
524.181	27855.28
524.383	27957.67
524.584	28133.8
524.786	28273.06
524.988	28037.55
525.189	28590.5
525.391	28383.65
525.592	28559.78
525.794	28637.6
525.995	29012.38
526.197	29168.02
526.398	29178.26
526.6	29579.67
526.801	29370.77
527.003	29862.29
527.204	29315.48
527.406	29776.27
527.607	29794.7
527.808	30099.85
528.01	29346.2
528.211	30048.65
528.412	30407.05
528.614	30095.75
528.815	30187.91
529.016	30787.97
529.218	30491.01
529.419	30560.64
529.62	30822.78
529.822	30660.99
530.023	30679.43
530.224	30775.68
530.425	31050.11
530.626	30771.58
530.828	30325.13
531.029	31304.06
531.23	30808.45
531.431	30927.23
531.632	31293.82
531.833	31164.79
532.035	30955.9
532.236	30949.76
532.437	31627.63
532.638	31390.07
532.839	31588.72
533.04	31277.43
533.241	30747.01
533.442	31828.34
533.643	31396.21
533.844	31697.27
534.045	31242.62
534.246	31289.72
534.447	31242.62
534.648	31318.39
534.849	31799.66
535.05	31357.3
535.251	31435.13
535.451	31328.63
535.652	31551.86
535.853	31418.74
536.054	31390.07
536.255	31342.97
536.456	31334.78
536.657	31756.66
536.857	31435.13
537.058	31164.79
537.259	31367.54
537.46	31529.33
537.66	31471.99
537.861	31594.87
538.062	31222.14
538.263	31531.38
538.463	31650.16
538.664	31453.56
538.865	31566.2
539.065	31689.07
539.266	31357.3
539.466	31859.06
539.667	31185.27
539.868	31777.14
540.068	31369.59
540.269	31244.66
540.469	31515
540.67	31494.52
540.87	31224.18
541.071	31455.61
541.271	31369.59
541.472	31226.23
541.672	31230.33
541.873	31320.44
542.073	30925.18
542.274	31463.8
542.474	31371.64
542.675	31379.83
542.875	31574.39
543.075	31111.55
543.276	30869.89
543.476	31369.59
543.676	31213.95
543.877	31396.21
544.077	31269.24
544.277	31330.68
544.478	31183.23
544.678	31345.02
544.878	30769.54
545.078	31191.42
545.279	30949.76
545.479	30912.89
545.679	31261.05
545.879	30792.06
546.079	31394.17
546.28	31226.23
546.48	30861.69
546.68	31410.55
546.88	31242.62
547.08	31156.6
547.28	30712.19
547.48	30906.75
547.68	31076.73
547.88	31066.49
548.081	31328.63
548.281	31115.64
548.481	31041.92
548.681	31123.83
548.881	31254.9
549.081	30978.43
549.28	30585.22
549.48	30738.82
549.68	30484.87
549.88	31015.29
550.08	30728.58
550.28	30880.13
550.48	30775.68
550.68	31261.05
550.88	30747.01
551.08	31015.29
551.279	31093.11
551.479	30613.89
551.679	30837.12
551.879	30683.52
552.079	30937.47
552.278	30865.79
552.478	30724.48
552.678	30546.31
552.878	30706.05
553.077	30986.62
553.277	30548.36
553.477	31132.03
553.676	30460.29
553.876	30585.22
554.076	30744.96
554.275	30540.16
554.475	30261.64
554.674	30572.93
554.874	30761.34
555.074	30585.22
555.273	30525.83
555.473	30536.07
555.672	30347.65
555.872	30388.61
556.071	30605.7
556.271	30480.77
556.47	30273.93
556.67	30114.19
556.869	29964.68
557.068	30323.08
557.268	30304.65
557.467	30146.95
557.667	30169.48
557.866	30034.32
558.065	30065.03
558.265	29872.53
558.464	29868.43
558.663	30134.67
558.863	29860.24
559.062	30208.39
559.261	29874.57
559.461	30134.67
559.66	29493.65
559.859	30017.93
560.058	29895.05
560.258	29381.01
560.457	29598.1
560.656	29931.92
560.855	29206.94
561.054	29690.26
561.253	29036.95
561.453	29569.43
561.652	29714.83
561.851	29647.25
562.05	29641.11
562.249	29462.93
562.448	29587.86
562.647	29526.42
562.846	29018.52
563.045	28979.61
563.244	28846.49
563.443	29022.62
563.642	28885.4
563.841	29077.91
564.04	28901.79
564.239	29118.87
564.438	28799.39
564.637	28924.32
564.836	29204.89
565.035	28955.04
565.234	28727.71
565.432	28623.26
565.631	28492.19
565.83	28475.81
566.029	28230.05
566.228	28492.19
566.427	28602.78
566.625	28293.54
566.824	27945.39
567.023	28436.9
567.222	27789.74
567.42	28164.52
567.619	28242.34
567.818	27900.33
568.016	27879.85
568.215	27994.54
568.414	27759.02
568.612	27949.48
568.811	27871.66
569.01	27873.71
569.208	27183.54
569.407	27810.22
569.605	27292.08
569.804	27636.14
570.002	27140.54
570.201	27503.03
570.4	27265.46
570.598	27021.75
570.797	26884.54
570.995	27279.8
571.193	26937.79
571.392	27052.47
571.59	26526.14
571.789	26735.04
571.987	27023.8
572.186	26589.63
572.384	26710.46
572.582	26552.77
572.781	26788.28
572.979	26315.2
573.177	26343.88
573.376	26464.71
573.574	26126.79
573.772	26415.55
573.971	26177.99
574.169	26042.82
574.367	25717.2
574.565	26098.12
574.763	26083.78
574.962	26143.17
575.16	25764.3
575.358	25835.98
575.556	25397.71
575.754	25696.72
575.952	25582.03
576.151	25725.39
576.349	25223.64
576.547	25565.65
576.745	25571.79
576.943	25389.52
577.141	25123.29
577.339	25299.41
577.537	25115.09
577.735	25190.87
577.933	24742.36
578.131	25102.81
578.329	24824.28
578.527	24762.84
578.725	24773.08
578.923	24562.14
579.121	24582.62
579.319	24508.9
579.516	24429.02
579.714	24648.16
579.912	24809.95
580.11	24562.14
580.308	24422.88
580.506	24334.82
580.704	24062.44
580.901	24357.35
581.099	24682.97
581.297	23988.71
581.495	24222.18
581.692	23988.71
581.89	23566.83
582.088	23804.39
582.285	23773.67
582.483	24087.01
582.681	23601.65
582.878	23914.98
583.076	23400.94
583.274	23869.93
583.471	23194.1
583.669	23517.68
583.866	23507.44
584.064	23523.82
584.262	23095.8
584.459	23296.5
584.657	22905.34
584.854	23233.01
585.052	22508.03
585.249	22948.34
585.447	23265.78
585.644	22854.14
585.841	22807.03
586.039	22741.5
586.236	22653.44
586.434	22675.96
586.631	22776.31
586.828	22458.88
587.026	22256.13
587.223	22342.14
587.42	22295.04
587.618	22280.71
587.815	22249.99
588.012	21899.78
588.21	22086.15
588.407	22123.01
588.604	21930.5
588.801	21752.33
588.999	21766.67
589.196	21748.23
589.393	21805.58
589.59	21783.05
589.787	21869.06
589.984	21414.41
590.182	21254.67
590.379	21907.98
590.576	21246.48
590.773	21371.41
590.97	21182.99
591.167	21203.47
591.364	21006.87
591.561	21250.58
591.758	21178.9
591.955	21195.28
592.152	21121.56
592.349	20959.77
592.546	21019.16
592.743	20761.11
592.94	20478.49
593.137	20730.39
593.334	20736.54
593.531	20455.97
593.727	20310.56
593.924	20378.14
594.121	20226.59
594.318	20634.14
594.515	20019.75
594.712	20548.12
594.908	20255.26
595.105	20214.3
595.302	19974.69
595.499	19972.64
595.696	20066.85
595.892	19655.21
596.089	20034.08
596.286	19790.38
596.482	19636.78
596.679	19657.26
596.876	19659.31
597.072	19585.58
597.269	19667.5
597.466	19145.27
597.662	19110.45
597.859	19311.15
598.055	19274.29
598.252	19184.18
598.448	19102.26
598.645	18995.76
598.841	18879.03
599.038	19122.74
599.234	18997.81
599.431	18623.03
599.627	18768.44
599.824	19057.2
600.02	18608.7
600.217	18944.56
600.413	18698.81
600.609	18600.51
600.806	18444.86
601.002	18668.09
601.198	18297.41
601.395	18315.84
601.591	18047.55
601.787	18152
601.984	18223.68
602.18	18336.32
602.376	18227.78
602.572	18025.03
602.769	18065.99
602.965	17820.23
603.161	18199.1
603.357	17539.66
603.553	17730.12
603.75	17566.28
603.946	17750.6
604.142	17564.23
604.338	17236.56
604.534	17453.64
604.73	17359.44
604.926	17328.72
605.122	17056.34
605.318	17152.59
605.514	16910.93
605.71	17183.31
605.906	17080.91
606.102	16955.99
606.298	17048.15
606.494	16986.71
606.69	16751.19
606.886	16908.88
607.082	16843.35
607.278	16869.97
607.474	16564.82
607.67	16816.72
607.866	16357.98
608.062	16931.41
608.257	16515.67
608.453	16632.41
608.649	16687.7
608.845	16448.09
609.041	16755.29
609.236	16413.27
609.432	16284.25
609.628	16437.85
609.824	16558.68
610.019	16218.72
610.215	16310.88
610.411	16300.64
610.606	15995.49
610.802	16157.28
610.998	16235.1
611.193	16058.98
611.389	15972.96
611.584	16110.18
611.78	15706.73
611.976	16149.09
612.171	16210.53
612.367	16089.7
612.562	15731.3
612.758	15657.57
612.953	15581.8
613.149	16001.63
613.344	15747.69
613.539	16144.99
613.735	15817.32
613.93	16038.5
614.126	15766.12
614.321	15596.14
614.517	15544.94
614.712	15477.35
614.907	15733.35
615.103	15399.53
615.298	15542.89
615.493	15647.33
615.688	15399.53
615.884	15764.07
616.079	15458.92
616.274	15534.7
616.47	15540.84
616.665	15340.14
616.86	15178.35
617.055	15161.97
617.25	15438.44
617.445	15164.01
617.641	14762.61
617.836	15522.41
618.031	14903.92
618.226	14973.55
618.421	15080.05
618.616	15147.63
618.811	14785.14
619.006	14940.79
619.201	14615.16
619.396	14649.97
619.591	14551.67
619.786	14598.77
619.981	14367.35
620.176	14695.03
620.371	14082.69
620.566	14115.45
620.761	14180.99
620.956	14467.7
621.151	14160.51
621.346	14146.17
621.541	13951.62
621.735	13982.34
621.93	13886.08
622.125	13908.61
622.32	13621.89
622.515	13828.74
622.709	13722.24
622.904	13888.13
623.099	13531.78
623.294	13732.48
623.488	13208.2
623.683	13605.51
623.878	13195.92
624.072	13302.41
624.267	13210.25
624.462	13089.42
624.656	12946.06
624.851	13025.93
625.046	13128.33
625.24	13056.65
625.435	12839.57
625.629	12753.55
625.824	12677.78
626.018	12546.71
626.213	12251.8
626.407	12499.61
626.602	12225.18
626.796	12268.19
626.991	12171.93
627.185	12333.72
627.38	12116.64
627.574	11985.57
627.768	11909.79
627.963	11932.32
628.157	11797.15
628.352	12034.72
628.546	11707.04
628.74	11825.82
628.935	11543.21
629.129	11604.64
629.323	11279.02
629.517	11455.14
629.712	11295.4
629.906	11227.82
630.1	11115.18
630.294	11297.45
630.489	11111.08
630.683	11197.1
630.877	11109.04
631.071	10797.74
631.265	11037.36
631.459	10943.15
631.653	10750.64
631.848	10859.18
632.042	10658.48
632.236	10674.87
632.43	10642.1
632.624	10607.28
632.818	10611.38
633.012	10451.64
633.206	10400.44
633.4	10508.98
633.594	10126.01
633.788	10191.55
633.982	10246.84
634.176	10281.66
634.369	9982.65
634.563	10109.63
634.757	9880.25
634.951	10050.24
635.145	9761.47
635.339	10007.23
635.533	9810.62
635.726	9708.23
635.92	9628.35
636.114	9884.35
636.308	9618.11
636.501	9609.92
636.695	9472.71
636.889	9427.65
637.083	9319.11
637.276	9296.58
637.47	9112.27
637.664	9306.82
637.857	9288.39
638.051	9294.54
638.244	9165.51
638.438	8915.66
638.632	9116.36
638.825	8930
639.019	8846.03
639.212	8803.02
639.406	9089.74
639.599	8575.7
639.793	8788.69
639.986	8723.15
640.18	8639.19
640.373	8676.05
640.567	8657.62
640.76	8473.3
640.954	8530.64
641.147	8579.79
641.34	8311.51
641.534	8506.07
641.727	8256.22
641.92	8313.56
642.114	8231.64
642.307	8303.32
642.5	8100.57
642.694	7879.39
642.887	7973.6
643.08	8100.57
643.273	7965.4
643.467	7801.57
643.66	7822.05
643.853	7946.97
644.046	7619.3
644.239	7690.98
644.432	7684.83
644.626	7736.03
644.819	7537.38
645.012	7641.82
645.205	7678.69
645.398	7627.49
645.591	7529.19
645.784	7496.42
645.977	7383.78
646.17	7441.12
646.363	7209.7
646.556	7324.39
646.749	7152.36
646.942	7265
647.135	7215.85
647.328	7256.81
647.521	7152.36
647.714	7058.15
647.907	7037.67
648.099	7011.05
648.292	6869.74
648.485	6695.66
648.678	6814.45
648.871	6742.77
649.064	6691.57
649.256	6861.55
649.449	6710
649.642	6687.47
649.835	6685.42
650.027	6617.84
650.22	6480.63
650.413	6568.69
650.605	6537.97
650.798	6574.83
650.991	6464.24
651.183	6533.87
651.376	6507.25
651.568	6310.65
651.761	6339.32
651.954	6206.2
652.146	6349.56
652.339	6314.74
652.531	6294.26
652.724	6216.44
652.916	6142.71
653.109	6134.52
653.301	6126.33
653.494	6208.25
653.686	5903.1
653.879	6060.79
654.071	5899
654.263	5966.59
654.456	5864.19
654.648	6032.12
654.84	5710.59
655.033	5700.35
655.225	5853.95
655.417	5673.73
655.61	5880.57
655.802	5788.41
655.994	5649.15
656.186	5550.85
656.379	5489.41
656.571	5536.51
656.763	5446.4
656.955	5647.1
657.148	5589.76
657.34	5413.63
657.532	5554.94
657.724	5370.63
657.916	5358.34
658.108	5364.48
658.3	5288.71
658.492	5380.87
658.684	5307.14
658.876	5303.04
659.068	5229.32
659.26	5135.11
659.452	5061.38
659.644	5257.99
659.836	5151.49
660.028	5006.09
660.22	5004.04
660.412	4989.71
660.604	5063.43
660.796	4877.07
660.988	4973.32
661.18	5008.14
661.372	4791.05
661.563	4807.44
661.755	4860.68
661.947	4926.22
662.139	4752.14
662.331	4940.55
662.522	4686.61
662.714	4684.56
662.906	4621.07
663.097	4547.34
663.289	4754.19
663.481	4727.57
663.673	4702.99
663.864	4473.62
664.056	4639.5
664.247	4616.97
664.439	4516.62
664.631	4627.21
664.822	4643.6
665.014	4416.27
665.205	4446.99
665.397	4463.38
665.588	4299.54
665.78	4217.62
665.971	4444.95
666.163	4444.95
666.354	4399.89
666.546	4217.62
666.737	4270.87
666.929	4238.1
667.12	4117.27
667.311	4074.26
667.503	3963.67
667.694	4234
667.885	4283.16
668.077	4045.59
668.268	4102.93
668.459	4195.09
668.651	3988.25
668.842	4033.3
669.033	4021.02
669.224	4070.17
669.416	4053.78
669.607	4008.73
669.798	3887.9
669.989	4008.73
670.18	3990.3
670.371	3910.43
670.563	3971.86
670.754	3814.17
670.945	3902.23
671.136	3881.75
671.327	3842.84
671.518	3668.77
671.709	3832.6
671.9	3801.88
672.091	3814.17
672.282	3828.51
672.473	3662.62
672.664	3627.81
672.855	3654.43
673.046	3672.86
673.237	3672.86
673.428	3640.09
673.619	3574.56
673.809	3595.04
674	3549.98
674.191	3535.65
674.382	3549.98
674.573	3654.43
674.764	3525.41
674.954	3490.59
675.145	3339.04
675.336	3562.27
675.527	3472.16
675.717	3429.15
675.908	3357.47
676.099	3425.06
676.289	3324.71
676.48	3447.58
676.671	3386.15
676.861	3429.15
677.052	3443.49
677.243	3410.72
677.433	3269.41
677.624	3416.87
677.814	3494.69
678.005	3400.48
678.195	3244.84
678.386	3318.56
678.576	3253.03
678.767	3291.94
678.957	3205.92
679.148	3275.56
679.338	3212.07
679.529	3185.44
679.719	3154.73
679.909	3210.02
680.1	3242.79
680.29	3091.24
680.481	3220.26
680.671	3259.17
680.861	3203.88
681.052	3199.78
681.242	3154.73
681.432	3154.73
681.622	3011.37
681.813	3103.53
682.003	3105.57
682.193	3015.46
682.383	2992.94
682.573	3076.9
682.764	3115.81
682.954	3083.05
683.144	3009.32
683.334	3062.57
683.524	2956.07
683.714	2900.78
683.904	3015.46
684.094	3013.42
684.284	2935.59
684.474	2954.02
684.664	2992.94
684.854	2982.7
685.044	2876.2
685.234	3033.9
685.424	2933.54
685.614	2902.83
685.804	2870.06
685.994	2890.54
686.184	2874.15
686.374	2779.95
686.564	2786.09
686.753	2788.14
686.943	2794.28
687.133	2784.04
687.323	2865.96
687.513	2820.91
687.702	2761.52
687.892	2833.19
688.082	2673.45
688.272	2698.03
688.461	2730.8
688.651	2714.41
688.841	2765.61
689.03	2665.26
689.22	2628.4
689.41	2636.59
689.599	2652.97
689.789	2599.73
689.979	2677.55
690.168	2540.33
690.358	2562.86
690.547	2583.34
690.737	2677.55
690.926	2640.69
691.116	2480.94
691.305	2583.34
691.495	2448.18
691.684	2485.04
691.874	2458.42
692.063	2476.85
692.252	2517.81
692.442	2505.52
692.631	2595.63
692.82	2564.91
693.01	2364.21
693.199	2538.29
693.388	2335.54
693.578	2450.22
693.767	2313.01
693.956	2396.98
694.146	2423.6
694.335	2347.83
694.524	2339.63
694.713	2341.68
694.902	2341.68
695.092	2335.54
695.281	2253.62
695.47	2317.11
695.659	2317.11
695.848	2374.45
696.037	2310.96
696.226	2351.92
696.415	2292.53
696.604	2274.1
696.793	2306.87
696.982	2274.1
697.171	2399.02
697.36	2095.93
697.549	2132.79
697.738	2145.08
697.927	2177.84
698.116	2214.71
698.305	2145.08
698.494	2278.19
698.683	2235.19
698.872	2163.51
699.061	2183.99
699.25	2231.09
699.438	2263.86
699.627	2095.93
699.816	2132.79
700.005	2140.98
700.193	2155.32
700.382	2157.36
700.571	2171.7
700.76	2194.23
700.948	2110.26
701.137	2073.4
701.326	2077.49
701.514	2059.06
701.703	2198.32
701.892	2089.78
702.08	2173.75
702.269	2083.64
702.457	2128.69
702.646	2214.71
702.834	2120.5
703.023	2059.06
703.212	2138.93
703.4	2161.46
703.589	2073.4
703.777	2229.04
703.965	1987.38
704.154	2085.69
704.342	2075.45
704.531	2112.31
704.719	2022.2
704.907	2061.11
705.096	2095.93
705.284	2042.68
705.472	2087.73
705.661	2075.45
705.849	2087.73
706.037	2050.87
706.226	2009.91
706.414	2100.02
706.602	1901.37
706.79	2059.06
706.979	2112.31
707.167	1938.23
707.355	2044.73
707.543	1958.71
707.731	1989.43
707.919	2085.69
708.107	2052.92
708.296	1950.52
708.484	1901.37
708.672	2014.01
708.86	1975.1
709.048	2130.74
709.236	2077.49
709.424	2020.15
709.612	2048.82
709.8	1991.48
709.988	2001.72
710.176	2073.4
710.364	1944.38
710.551	2038.58
710.739	2083.64
710.927	1944.38
711.115	1981.24
711.303	2005.81
711.491	1936.18
711.679	2001.72
711.866	2034.49
712.054	1977.14
712.242	1948.47
712.43	1989.43
712.617	2005.81
712.805	2089.78
712.993	2057.01
713.181	1909.56
713.368	1850.17
713.556	2048.82
713.744	1874.74
713.931	1927.99
714.119	1944.38
714.306	2001.72
714.494	1923.9
714.682	2024.25
714.869	1884.98
715.057	1913.66
715.244	1932.09
715.432	2022.2
715.619	2020.15
715.807	1997.62
715.994	1923.9
716.182	1940.28
716.369	1958.71
716.556	1975.1
716.744	1866.55
716.931	1936.18
717.119	1903.42
717.306	1993.53
717.493	1956.66
717.681	1868.6
717.868	1934.14
718.055	1987.38
718.242	1952.57
718.43	1887.03
718.617	1964.86
718.804	1981.24
718.991	1866.55
719.179	1893.18
719.366	1936.18
719.553	1899.32
719.74	1899.32
719.927	1936.18
720.114	1858.36
720.301	1856.31
720.488	1889.08
720.676	1966.9
720.863	1893.18
721.05	1878.84
721.237	1952.57
721.424	1919.8
721.611	1784.63
721.798	1899.32
721.985	1817.4
722.172	1825.59
722.358	1891.13
722.545	1911.61
722.732	1862.46
722.919	1944.38
723.106	1887.03
723.293	1891.13
723.48	1821.5
723.667	1790.78
723.853	1891.13
724.04	1891.13
724.227	1942.33
724.414	1866.55
724.6	1776.44
724.787	1880.89
724.974	2005.81
725.161	1866.55
725.347	1829.69
725.534	1882.94
725.72	1833.79
725.907	1909.56
726.094	1833.79
726.28	1891.13
726.467	1817.4
726.653	1839.93
726.84	1815.35
727.027	1805.11
727.213	1753.91
727.4	1774.39
727.586	1901.37
727.773	1905.46
727.959	1719.1
728.145	1821.5
728.332	1801.02
728.518	1719.1
728.705	1825.59
728.891	1862.46
729.077	1792.83
729.264	1821.5
729.45	1903.42
729.636	1813.31
729.823	1745.72
730.009	1846.07
730.195	1915.7
730.382	1825.59
730.568	1823.55
730.754	1762.11
730.94	1801.02
731.126	1737.53
731.313	1770.3
731.499	1692.48
731.685	1762.11
731.871	1665.85
732.057	1766.2
732.243	1743.67
732.429	1891.13
732.615	1817.4
732.801	1809.21
732.987	1876.79
733.173	1839.93
733.359	1760.06
733.545	1841.98
733.731	1815.35
733.917	1854.27
734.103	1712.96
734.289	1729.34
734.475	1753.91
734.661	1835.83
734.847	1715
735.033	1702.72
735.219	1817.4
735.404	1776.44
735.59	1688.38
735.776	1747.77
735.962	1809.21
736.148	1758.01
736.333	1698.62
736.519	1684.28
736.705	1661.76
736.89	1669.95
737.076	1762.11
737.262	1719.1
737.447	1737.53
737.633	1663.8
737.819	1661.76
738.004	1674.04
738.19	1729.34
738.375	1696.57
738.561	1780.54
738.747	1743.67
738.932	1708.86
739.118	1776.44
739.303	1637.18
739.489	1719.1
739.674	1590.08
739.859	1665.85
740.045	1579.84
740.23	1614.65
740.416	1592.13
740.601	1602.36
740.786	1704.76
740.972	1628.99
741.157	1643.32
741.342	1731.39
741.528	1532.73
741.713	1549.12
741.898	1575.74
742.084	1594.17
742.269	1647.42
742.454	1571.65
742.639	1510.21
742.824	1678.14
743.01	1536.83
743.195	1717.05
743.38	1594.17
743.565	1596.22
743.75	1491.77
743.935	1504.06
744.12	1622.84
744.305	1575.74
744.49	1450.82
744.675	1473.34
744.86	1362.75
745.045	1555.26
745.23	1573.69
745.415	1510.21
745.6	1530.69
745.785	1620.8
745.97	1532.73
746.155	1524.54
746.34	1487.68
746.525	1473.34
746.71	1432.38
746.895	1397.57
747.079	1348.42
747.264	1438.53
747.449	1473.34
747.634	1450.82
747.819	1350.46
748.003	1323.84
748.188	1370.94
748.373	1387.33
748.557	1303.36
748.742	1254.21
748.927	1342.27
749.111	1291.07
749.296	1313.6
749.481	1424.19
749.665	1329.99
749.85	1264.45
750.034	1252.16
750.219	1348.42
750.404	1243.97
750.588	1252.16
750.773	1243.97
750.957	1293.12
751.141	1221.44
751.326	1301.31
751.51	1256.26
751.695	1149.76
751.879	1190.72
752.064	1223.49
752.248	1147.72
752.432	1213.25
752.617	1272.64
752.801	1237.83
752.985	1078.08
753.17	1182.53
753.354	1198.92
753.538	1080.13
753.722	1108.8
753.907	1166.15
754.091	1112.9
754.275	1073.99
754.459	1100.61
754.643	1180.48
754.828	1145.67
755.012	1096.52
755.196	1012.55
755.38	1065.8
755.564	992.07
755.748	1076.04
755.932	1047.37
756.116	1071.94
756.3	1080.13
756.484	920.39
756.668	1014.6
756.852	936.78
757.036	953.16
757.22	887.62
757.404	918.34
757.588	1012.55
757.772	856.9
757.956	850.76
758.14	998.21
758.323	885.58
758.507	973.64
758.691	940.87
758.875	1033.03
759.059	916.3
759.242	953.16
759.426	867.14
759.61	916.3
759.794	809.8
759.977	912.2
760.161	1008.45
760.345	885.58
760.528	901.96
760.712	893.77
760.895	838.47
761.079	834.38
761.263	813.9
761.446	920.39
761.63	861
761.813	914.25
761.997	801.61
762.18	887.62
762.364	820.04
762.547	834.38
762.731	852.81
762.914	891.72
763.098	801.61
763.281	811.85
763.464	826.18
763.648	809.8
763.831	789.32
764.015	774.99
764.198	799.56
764.381	813.9
764.564	822.09
764.748	836.42
764.931	815.94
765.114	793.42
765.297	762.7
765.481	682.83
765.664	820.04
765.847	705.35
766.03	740.17
766.213	774.99
766.397	744.27
766.58	764.75
766.763	729.93
766.946	672.59
767.129	744.27
767.312	717.64
767.495	785.23
767.678	674.64
767.861	746.31
768.044	631.63
768.227	752.46
768.41	727.88
768.593	744.27
768.776	672.59
768.959	637.77
769.142	664.4
769.324	664.4
769.507	645.96
769.69	752.46
769.873	645.96
770.056	748.36
770.239	625.48
770.421	629.58
770.604	668.49
770.787	731.98
770.97	738.12
771.152	645.96
771.335	697.16
771.518	600.91
771.7	686.92
771.883	736.07
772.066	762.7
772.248	637.77
772.431	654.16
772.613	654.16
772.796	596.81
772.978	688.97
773.161	615.24
773.343	576.33
773.526	586.57
773.708	555.85
773.891	576.33
774.073	582.48
774.256	555.85
774.438	721.74
774.621	568.14
774.803	605
774.985	588.62
775.168	592.72
775.35	521.04
775.532	631.63
775.715	537.42
775.897	656.2
776.079	574.28
776.261	568.14
776.444	525.13
776.626	541.52
776.808	500.56
776.99	531.28
777.173	535.37
777.355	543.57
777.537	518.99
777.719	521.04
777.901	555.85
778.083	568.14
778.265	482.13
778.447	547.66
778.629	518.99
778.811	557.9
778.993	539.47
779.175	531.28
779.357	400.21
779.539	445.26
779.721	449.36
779.903	539.47
780.085	482.13
780.267	426.83
780.449	492.37
780.631	465.74
780.812	451.41
780.994	514.89
781.176	447.31
781.358	414.54
781.54	465.74
781.721	459.6
781.903	432.97
782.085	484.17
782.267	410.45
782.448	441.17
782.63	428.88
782.812	424.78
782.993	310.1
783.175	478.03
783.357	392.02
783.538	340.82
783.72	365.39
783.901	377.68
784.083	475.98
784.264	418.64
784.446	363.34
784.627	453.45
784.809	363.34
784.99	392.02
785.172	357.2
785.353	334.67
785.535	385.87
785.716	416.59
785.897	383.82
786.079	402.26
786.26	392.02
786.441	357.2
786.623	287.57
786.804	301.9
786.985	408.4
787.167	369.49
787.348	342.86
787.529	357.2
787.71	375.63
787.891	316.24
788.073	238.42
788.254	285.52
788.435	338.77
788.616	334.67
788.797	369.49
788.978	344.91
789.159	260.95
789.34	353.1
789.522	346.96
789.703	273.23
789.884	324.43
790.065	248.66
790.246	291.66
790.427	375.63
790.607	314.19
790.788	363.34
790.969	318.29
791.15	291.66
791.331	222.03
791.512	359.25
791.693	279.38
791.874	211.79
792.054	361.3
792.235	316.24
792.416	238.42
792.597	279.38
792.778	224.08
792.958	262.99
793.139	219.99
793.32	203.6
793.5	275.28
793.681	334.67
793.862	252.75
794.042	254.8
794.223	154.45
794.404	226.13
794.584	277.33
794.765	158.55
794.945	222.03
795.126	273.23
795.306	240.47
795.487	295.76
795.667	228.18
795.848	293.71
796.028	195.41
796.209	168.79
796.389	260.95
796.57	172.88
796.75	146.26
796.93	238.42
797.111	121.68
797.291	224.08
797.471	211.79
797.652	172.88
797.832	207.7
798.012	170.83
798.192	246.61
798.373	123.73
798.553	129.88
798.733	170.83
798.913	187.22
799.093	148.31
799.274	236.37
799.454	228.18
799.634	289.62
799.814	262.99
799.994	146.26
800.174	187.22
800.354	195.41
800.534	170.83
800.714	203.6
800.894	228.18
801.074	256.85
801.254	170.83
801.434	166.74
801.614	162.64
801.794	201.55
801.974	633.68
802.154	238.42
802.334	193.36
802.514	222.03
802.693	197.46
802.873	166.74
803.053	203.6
803.233	252.75
803.413	201.55
803.592	189.27
803.772	199.51
803.952	144.21
804.131	164.69
804.311	181.07
804.491	232.27
804.67	154.45
804.85	187.22
805.03	154.45
805.209	211.79
805.389	97.11
805.568	154.45
805.748	90.96
805.928	115.54
806.107	119.64
806.287	195.41
806.466	262.99
806.646	113.49
806.825	187.22
807.004	125.78
807.184	168.79
807.363	179.03
807.543	191.31
807.722	154.45
807.901	183.12
808.081	199.51
808.26	133.97
808.439	240.47
808.619	146.26
808.798	97.11
808.977	148.31
809.156	154.45
809.336	93.01
809.515	191.31
809.694	129.88
809.873	213.84
810.052	121.68
810.231	168.79
810.411	142.16
810.59	88.92
810.769	170.83
810.948	146.26
811.127	125.78
811.306	133.97
811.485	47.96
811.664	228.18
811.843	101.2
812.022	152.4
812.201	121.68
812.38	45.91
812.559	129.88
812.737	127.83
812.916	150.36
813.095	72.53
813.274	172.88
813.453	189.27
813.632	115.54
813.811	183.12
813.989	105.3
814.168	191.31
814.347	88.92
814.526	33.62
814.704	113.49
814.883	107.35
815.062	162.64
815.24	172.88
815.419	166.74
815.598	2.9
815.776	146.26
815.955	121.68
816.133	88.92
816.312	166.74
816.49	90.96
816.669	119.64
816.847	88.92
817.026	99.16
817.204	131.92
817.383	99.16
817.561	15.19
817.74	162.64
817.918	80.72
818.097	90.96
818.275	80.72
818.453	99.16
818.632	74.58
818.81	107.35
818.988	76.63
819.167	60.24
819.345	164.69
819.523	127.83
819.701	97.11
819.879	90.96
820.058	156.5
820.236	88.92
820.414	84.82
820.592	88.92
820.77	172.88
820.948	84.82
821.127	56.15
821.305	80.72
821.483	105.3
821.661	93.01
821.839	101.2
822.017	66.39
822.195	76.63
822.373	90.96
822.551	146.26
822.729	56.15
822.907	66.39
823.085	90.96
823.262	58.2
823.44	60.24
823.618	123.73
823.796	101.2
823.974	62.29
824.152	113.49
824.329	115.54
824.507	70.48
824.685	54.1
824.863	11.09
825.04	150.36
825.218	107.35
825.396	125.78
825.574	74.58
825.751	35.67
825.929	105.3
826.107	66.39
826.284	56.15
826.462	95.06
826.639	125.78
826.817	56.15
826.994	33.62
827.172	19.29
827.349	72.53
827.527	50
827.704	74.58
827.882	41.81
828.059	31.57
828.237	56.15
828.414	154.45
828.591	103.25
828.769	113.49
828.946	84.82
829.124	156.5
829.301	76.63
829.478	41.81
829.655	164.69
829.833	105.3
830.01	33.62
830.187	19.29
830.364	66.39
830.542	97.11
830.719	158.55
830.896	97.11
831.073	113.49
831.25	64.34
831.427	25.43
831.604	-15.53
831.782	35.67
831.959	25.43
832.136	56.15
832.313	15.19
832.49	9.05
832.667	39.76
832.844	58.2
833.021	121.68
833.198	119.64
833.374	78.68
833.551	86.87
833.728	41.81
833.905	105.3
834.082	66.39
834.259	31.57
834.436	107.35
834.612	33.62
834.789	29.52
834.966	88.92
835.143	148.31
835.319	129.88
835.496	72.53
835.673	41.81
835.85	72.53
836.026	64.34
836.203	105.3
836.38	54.1
836.556	84.82
836.733	27.48
836.909	56.15
837.086	31.57
837.262	-11.43
837.439	121.68
837.616	58.2
837.792	131.92
837.968	50
838.145	23.38
838.321	-17.58
838.498	-33.96
838.674	35.67
838.851	52.05
839.027	39.76
839.203	84.82
839.38	56.15
839.556	70.48
839.732	97.11
839.909	-25.77
840.085	136.02
840.261	50
840.437	21.33
840.614	47.96
840.79	47.96
840.966	43.86
841.142	72.53
841.318	88.92
841.494	107.35
841.671	133.97
841.847	43.86
842.023	37.72
842.199	31.57
842.375	131.92
842.551	78.68
842.727	129.88
842.903	80.72
843.079	-25.77
843.255	105.3
843.431	7
843.607	39.76
843.783	9.05
843.959	88.92
844.134	60.24
844.31	93.01
844.486	97.11
844.662	72.53
844.838	47.96
845.013	2.9
845.189	39.76
845.365	17.24
845.541	-56.49
845.716	33.62
845.892	66.39
846.068	33.62
846.244	88.92
846.419	35.67
846.595	-13.48
846.77	-42.15
846.946	39.76
847.122	-17.58
847.297	39.76
847.473	129.88
847.648	41.81
847.824	47.96
847.999	23.38
848.175	31.57
848.35	47.96
848.526	93.01
848.701	68.44
848.876	93.01
849.052	17.24
849.227	35.67
849.403	52.05
849.578	50
849.753	-40.11
849.929	7
850.104	-1.19
850.279	52.05
850.454	29.52
850.63	82.77
850.805	72.53
850.98	72.53
851.155	21.33
851.33	35.67
851.505	-9.39
851.681	35.67
851.856	11.09
852.031	115.54
852.206	23.38
852.381	-27.82
852.556	60.24
852.731	15.19
852.906	33.62
853.081	64.34
853.256	35.67
853.431	-25.77
853.606	-40.11
853.781	-40.11
853.956	-17.58
854.131	7
854.305	41.81
854.48	-1.19
854.655	21.33
854.83	76.63
855.005	9.05
855.18	74.58
855.354	47.96
855.529	-7.34
855.704	80.72
855.879	74.58
856.053	7
856.228	56.15
856.403	-1.19
856.577	-7.34
856.752	-25.77
856.926	84.82
857.101	39.76
857.276	47.96
857.45	-25.77
857.625	35.67
857.799	31.57
857.974	9.05
858.148	-40.11
858.323	43.86
858.497	23.38
858.672	58.2
858.846	7
859.02	58.2
859.195	9.05
859.369	43.86
859.543	76.63
859.718	15.19
859.892	52.05
860.066	-42.15
860.241	23.38
860.415	-38.06
860.589	47.96
860.763	50
860.938	35.67
861.112	60.24
861.286	35.67
861.46	37.72
861.634	23.38
861.808	31.57
861.982	-25.77
862.157	-21.67
862.331	15.19
862.505	33.62
862.679	-9.39
862.853	-58.54
863.027	-9.39
863.201	17.24
863.375	23.38
863.549	-13.48
863.722	37.72
863.896	31.57
864.07	-23.72
864.244	82.77
864.418	17.24
864.592	47.96
864.766	15.19
864.939	50
865.113	4.95
865.287	78.68
865.461	13.14
865.634	54.1
865.808	-50.35
865.982	31.57
866.156	-25.77
866.329	-23.72
866.503	74.58
866.676	-3.24
866.85	0.85
867.024	-36.01
867.197	58.2
867.371	58.2
867.544	80.72
867.718	-54.44
867.891	13.14
868.065	37.72
868.238	-23.72
868.412	39.76
868.585	15.19
868.759	27.48
868.932	13.14
869.105	-19.63
869.279	2.9
869.452	27.48
869.625	15.19
869.799	15.19
869.972	-74.92
870.145	72.53
870.319	33.62
870.492	11.09
870.665	-38.06
870.838	7
871.011	-25.77
871.185	31.57
871.358	-3.24
871.531	39.76
871.704	-38.06
871.877	23.38
872.05	-7.34
872.223	0.85
872.396	11.09
872.569	23.38
872.742	2.9
872.915	33.62
873.088	-44.2
873.261	23.38
873.434	25.43
873.607	35.67
873.78	35.67
873.953	-17.58
874.126	-48.3
874.299	-13.48
874.471	-54.44
874.644	2.9
874.817	15.19
874.99	15.19
875.163	23.38
875.335	50
875.508	-9.39
875.681	-7.34
875.853	-9.39
876.026	54.1
876.199	0.85
876.371	-3.24
876.544	39.76
876.717	0.85
876.889	-38.06
877.062	101.2
877.234	7
877.407	31.57
877.579	-56.49
877.752	35.67
877.924	15.19
878.097	84.82
878.269	60.24
878.442	23.38
878.614	50
878.786	19.29
878.959	-15.53
879.131	97.11
879.303	-64.68
879.476	47.96
879.648	33.62
879.82	0.85
879.993	-74.92
880.165	2.9
880.337	-17.58
880.509	9.05
880.681	52.05
880.854	41.81
881.026	50
881.198	68.44
881.37	9.05
881.542	15.19
881.714	2.9
881.886	27.48
882.058	-9.39
882.23	-3.24
882.402	-1.19
882.574	9.05
882.746	25.43
882.918	76.63
883.09	11.09
883.262	-17.58
883.434	-33.96
883.606	-9.39
883.778	9.05
883.95	50
884.122	105.3
884.293	84.82
884.465	-54.44
884.637	9.05
884.809	7
884.98	39.76
885.152	9.05
885.324	23.38
885.496	-17.58
885.667	-7.34
885.839	-23.72
886.011	74.58
886.182	-1.19
886.354	29.52
886.525	15.19
886.697	27.48
886.869	68.44
887.04	27.48
887.212	41.81
887.383	80.72
887.555	17.24
887.726	25.43
887.897	-46.25
888.069	23.38
888.24	74.58
888.412	0.85
888.583	11.09
888.754	15.19
888.926	-23.72
889.097	17.24
889.268	-11.43
889.44	95.06
889.611	-33.96
889.782	29.52
889.953	-19.63
890.125	35.67
890.296	21.33
890.467	17.24
890.638	47.96
890.809	17.24
890.98	31.57
891.151	25.43
891.323	62.29
891.494	2.9
891.665	2.9
891.836	31.57
892.007	52.05
892.178	43.86
892.349	-11.43
892.52	-7.34
892.691	2.9
892.862	-60.59
893.032	-54.44
893.203	-17.58
893.374	39.76
893.545	9.05
893.716	25.43
893.887	-79.02
894.057	15.19
894.228	23.38
894.399	13.14
894.57	-1.19
894.74	56.15
894.911	31.57
895.082	23.38
895.253	47.96
895.423	52.05
895.594	56.15
895.764	50
895.935	-46.25
896.106	29.52
896.276	72.53
896.447	-5.29
896.617	97.11
896.788	27.48
896.958	-33.96
897.129	-1.19
897.299	2.9
897.47	52.05
897.64	76.63
897.81	-7.34
897.981	13.14
898.151	-29.87
898.322	-27.82
898.492	29.52
898.662	17.24
898.832	-5.29
899.003	41.81
899.173	-3.24
899.343	-25.77
899.513	33.62
