Data from USB4F104151__224__14-21-37-502.txt Node

Date: Thu Mar 13 14:21:37 EDT 2025
User: louis
Spectrometer: USB4F10415
Trigger mode: 4
Integration Time (sec): 2.000000E-2
Scans to average: 1
Electric dark correction enabled: true
Nonlinearity correction enabled: false
Boxcar width: 0
XAxis mode: Wavelengths
Number of Pixels in Spectrum: 3648
>>>>>Begin Spectral Data<<<<<
178.204	-106.49
178.424	-106.49
178.644	-106.49
178.864	-88.06
179.084	-96.25
179.304	-4.1
179.524	10.24
179.744	-38.91
179.964	65.54
180.184	104.45
180.404	30.72
180.624	-63.49
180.844	-12.29
181.064	-34.82
181.283	-55.3
181.503	-6.14
181.723	4.1
181.943	2.05
182.163	79.87
182.383	63.49
182.602	40.96
182.822	40.96
183.042	-24.58
183.262	-10.24
183.482	32.77
183.701	75.77
183.921	38.91
184.141	18.43
184.361	40.96
184.58	8.19
184.8	79.87
185.02	14.34
185.239	106.49
185.459	-24.58
185.679	112.64
185.898	-22.53
186.118	75.77
186.338	38.91
186.557	79.87
186.777	-2.05
186.997	-2.05
187.216	-32.77
187.436	100.35
187.655	18.43
187.875	24.58
188.095	0
188.314	83.97
188.534	18.43
188.753	24.58
188.973	-6.14
189.192	61.44
189.412	4.1
189.631	51.2
189.851	30.72
190.07	49.15
190.29	55.3
190.509	24.58
190.729	22.53
190.948	38.91
191.168	116.73
191.387	79.87
191.607	-8.19
191.826	83.97
192.045	6.14
192.265	8.19
192.484	36.86
192.704	63.49
192.923	-49.15
193.142	47.1
193.362	-10.24
193.581	116.73
193.8	38.91
194.02	96.25
194.239	-2.05
194.458	30.72
194.678	34.82
194.897	0
195.116	81.92
195.335	49.15
195.555	14.34
195.774	8.19
195.993	92.16
196.212	40.96
196.432	79.87
196.651	30.72
196.87	2.05
197.089	43.01
197.308	65.54
197.528	38.91
197.747	-10.24
197.966	-63.49
198.185	131.07
198.404	-57.34
198.623	40.96
198.842	0
199.062	38.91
199.281	94.21
199.5	-43.01
199.719	-32.77
199.938	30.72
200.157	108.54
200.376	2.05
200.595	43.01
200.814	-18.43
201.033	-26.62
201.252	22.53
201.471	30.72
201.69	24.58
201.909	59.39
202.128	26.62
202.347	38.91
202.566	108.54
202.785	-43.01
203.004	22.53
203.223	129.02
203.442	49.15
203.661	55.3
203.879	6.14
204.098	157.69
204.317	67.58
204.536	92.16
204.755	20.48
204.974	26.62
205.193	30.72
205.411	38.91
205.63	-18.43
205.849	2.05
206.068	38.91
206.287	30.72
206.505	96.25
206.724	14.34
206.943	-8.19
207.162	47.1
207.381	24.58
207.599	51.2
207.818	30.72
208.037	88.06
208.255	26.62
208.474	-2.05
208.693	4.1
208.911	-51.2
209.13	49.15
209.349	14.34
209.567	47.1
209.786	49.15
210.005	-32.77
210.223	51.2
210.442	-28.67
210.661	18.43
210.879	43.01
211.098	67.58
211.316	38.91
211.535	96.25
211.753	73.73
211.972	67.58
212.191	45.06
212.409	18.43
212.628	18.43
212.846	8.19
213.065	47.1
213.283	102.4
213.502	22.53
213.72	40.96
213.938	18.43
214.157	51.2
214.375	67.58
214.594	-8.19
214.812	6.14
215.031	-10.24
215.249	30.72
215.467	55.3
215.686	-10.24
215.904	73.73
216.122	-40.96
216.341	75.77
216.559	20.48
216.778	139.26
216.996	47.1
217.214	96.25
217.432	2.05
217.651	14.34
217.869	28.67
218.087	-34.82
218.306	26.62
218.524	88.06
218.742	-6.14
218.96	65.54
219.179	26.62
219.397	-59.39
219.615	43.01
219.833	81.92
220.051	2.05
220.27	20.48
220.488	81.92
220.706	34.82
220.924	55.3
221.142	-18.43
221.36	2.05
221.578	96.25
221.796	30.72
222.015	14.34
222.233	43.01
222.451	18.43
222.669	73.73
222.887	-63.49
223.105	-51.2
223.323	-2.05
223.541	-14.34
223.759	22.53
223.977	18.43
224.195	26.62
224.413	47.1
224.631	8.19
224.849	40.96
225.067	155.65
225.285	59.39
225.503	-47.1
225.721	-12.29
225.939	8.19
226.157	57.34
226.375	55.3
226.592	20.48
226.81	-2.05
227.028	92.16
227.246	57.34
227.464	47.1
227.682	32.77
227.9	65.54
228.117	0
228.335	-22.53
228.553	16.38
228.771	53.25
228.989	47.1
229.206	-6.14
229.424	38.91
229.642	55.3
229.86	28.67
230.077	71.68
230.295	-18.43
230.513	-14.34
230.731	49.15
230.948	6.14
231.166	34.82
231.384	18.43
231.601	24.58
231.819	116.73
232.037	-18.43
232.254	14.34
232.472	55.3
232.689	-6.14
232.907	55.3
233.125	20.48
233.342	45.06
233.56	4.1
233.777	65.54
233.995	63.49
234.213	40.96
234.43	34.82
234.648	22.53
234.865	-12.29
235.083	16.38
235.3	20.48
235.518	43.01
235.735	43.01
235.953	88.06
236.17	-10.24
236.388	30.72
236.605	63.49
236.822	67.58
237.04	28.67
237.257	-43.01
237.475	36.86
237.692	6.14
237.909	24.58
238.127	-2.05
238.344	8.19
238.562	57.34
238.779	-112.64
238.996	4.1
239.214	30.72
239.431	-2.05
239.648	-32.77
239.865	-20.48
240.083	47.1
240.3	-2.05
240.517	-65.53
240.735	73.73
240.952	88.06
241.169	63.49
241.386	4.1
241.603	12.29
241.821	-43.01
242.038	104.45
242.255	34.82
242.472	-43.01
242.689	90.11
242.907	-22.53
243.124	63.49
243.341	-2.05
243.558	-14.34
243.775	43.01
243.992	40.96
244.209	34.82
244.426	28.67
244.643	51.2
244.86	8.19
245.078	71.68
245.295	38.91
245.512	63.49
245.729	-47.1
245.946	30.72
246.163	79.87
246.38	-10.24
246.597	-34.82
246.814	61.44
247.031	47.1
247.248	88.06
247.464	75.77
247.681	59.39
247.898	6.14
248.115	10.24
248.332	-16.38
248.549	30.72
248.766	116.73
248.983	43.01
249.2	18.43
249.417	18.43
249.633	-36.86
249.85	86.01
250.067	16.38
250.284	47.1
250.501	38.91
250.717	83.97
250.934	-8.19
251.151	63.49
251.368	22.53
251.585	-32.77
251.801	6.14
252.018	6.14
252.235	18.43
252.451	28.67
252.668	-8.19
252.885	-14.34
253.102	73.73
253.318	47.1
253.535	-43.01
253.752	59.39
253.968	18.43
254.185	-18.43
254.401	-30.72
254.618	88.06
254.835	40.96
255.051	49.15
255.268	-4.1
255.484	-2.05
255.701	-43.01
255.917	98.3
256.134	-18.43
256.351	24.58
256.567	38.91
256.784	-47.1
257	22.53
257.217	18.43
257.433	75.77
257.65	96.25
257.866	53.25
258.082	24.58
258.299	24.58
258.515	65.54
258.732	-6.14
258.948	40.96
259.165	14.34
259.381	65.54
259.597	-32.77
259.814	34.82
260.03	6.14
260.246	79.87
260.463	63.49
260.679	49.15
260.895	-14.34
261.112	71.68
261.328	-10.24
261.544	61.44
261.761	135.17
261.977	38.91
262.193	4.1
262.409	47.1
262.626	67.58
262.842	73.73
263.058	28.67
263.274	0
263.49	98.3
263.707	57.34
263.923	65.54
264.139	-16.38
264.355	-49.15
264.571	40.96
264.787	51.2
265.004	57.34
265.22	-22.53
265.436	-16.38
265.652	-18.43
265.868	40.96
266.084	4.1
266.3	40.96
266.516	26.62
266.732	22.53
266.948	57.34
267.164	4.1
267.38	92.16
267.596	34.82
267.812	124.93
268.028	24.58
268.244	0
268.46	114.69
268.676	8.19
268.892	51.2
269.108	-2.05
269.324	-55.3
269.54	53.25
269.756	106.49
269.972	-34.82
270.188	110.59
270.403	-79.87
270.619	26.62
270.835	47.1
271.051	40.96
271.267	22.53
271.483	104.45
271.698	71.68
271.914	6.14
272.13	6.14
272.346	30.72
272.562	38.91
272.777	71.68
272.993	30.72
273.209	12.29
273.425	18.43
273.64	6.14
273.856	40.96
274.072	-2.05
274.287	14.34
274.503	43.01
274.719	51.2
274.934	22.53
275.15	-22.53
275.366	22.53
275.581	-61.44
275.797	32.77
276.012	16.38
276.228	24.58
276.444	-8.19
276.659	26.62
276.875	0
277.09	-57.34
277.306	55.3
277.521	73.73
277.737	28.67
277.952	14.34
278.168	28.67
278.383	32.77
278.599	24.58
278.814	16.38
279.03	-32.77
279.245	120.83
279.461	-51.2
279.676	96.25
279.892	-96.25
280.107	47.1
280.322	24.58
280.538	92.16
280.753	30.72
280.969	96.25
281.184	8.19
281.399	63.49
281.615	55.3
281.83	-40.96
282.045	6.14
282.26	24.58
282.476	88.06
282.691	94.21
282.906	77.82
283.122	49.15
283.337	69.63
283.552	59.39
283.767	22.53
283.983	-22.53
284.198	38.91
284.413	112.64
284.628	2.05
284.843	63.49
285.058	57.34
285.274	-8.19
285.489	30.72
285.704	55.3
285.919	20.48
286.134	43.01
286.349	34.82
286.564	8.19
286.779	75.77
286.995	14.34
287.21	-26.62
287.425	8.19
287.64	55.3
287.855	30.72
288.07	24.58
288.285	98.3
288.5	73.73
288.715	57.34
288.93	92.16
289.145	4.1
289.36	34.82
289.575	47.1
289.79	36.86
290.004	28.67
290.219	6.14
290.434	38.91
290.649	16.38
290.864	18.43
291.079	18.43
291.294	96.25
291.509	55.3
291.724	57.34
291.938	-22.53
292.153	51.2
292.368	61.44
292.583	57.34
292.798	38.91
293.012	112.64
293.227	73.73
293.442	-12.29
293.657	49.15
293.871	81.92
294.086	51.2
294.301	116.73
294.516	26.62
294.73	-22.53
294.945	47.1
295.16	120.83
295.374	63.49
295.589	81.92
295.804	38.91
296.018	4.1
296.233	73.73
296.447	71.68
296.662	-2.05
296.877	18.43
297.091	38.91
297.306	38.91
297.52	49.15
297.735	65.54
297.949	59.39
298.164	36.86
298.378	63.49
298.593	-40.96
298.807	38.91
299.022	40.96
299.236	22.53
299.451	-40.96
299.665	2.05
299.88	-4.1
300.094	26.62
300.309	65.54
300.523	-16.38
300.737	0
300.952	131.07
301.166	24.58
301.381	49.15
301.595	0
301.809	47.1
302.024	-2.05
302.238	16.38
302.452	28.67
302.667	16.38
302.881	75.77
303.095	88.06
303.309	-10.24
303.524	69.63
303.738	0
303.952	-2.05
304.166	108.54
304.381	-40.96
304.595	75.77
304.809	-10.24
305.023	71.68
305.237	22.53
305.452	47.1
305.666	14.34
305.88	104.45
306.094	6.14
306.308	63.49
306.522	55.3
306.736	51.2
306.95	32.77
307.164	26.62
307.379	-18.43
307.593	34.82
307.807	38.91
308.021	-2.05
308.235	43.01
308.449	73.73
308.663	51.2
308.877	47.1
309.091	34.82
309.305	141.31
309.519	-67.58
309.733	45.06
309.947	-40.96
310.161	81.92
310.374	73.73
310.588	57.34
310.802	-28.67
311.016	45.06
311.23	-18.43
311.444	30.72
311.658	63.49
311.872	108.54
312.085	73.73
312.299	61.44
312.513	65.54
312.727	92.16
312.941	-100.35
313.154	63.49
313.368	26.62
313.582	26.62
313.796	49.15
314.009	24.58
314.223	16.38
314.437	104.45
314.651	-43.01
314.864	73.73
315.078	22.53
315.292	-12.29
315.505	-28.67
315.719	65.54
315.933	79.87
316.146	65.54
316.36	77.82
316.573	55.3
316.787	38.91
317.001	49.15
317.214	51.2
317.428	49.15
317.641	61.44
317.855	65.54
318.068	45.06
318.282	38.91
318.495	24.58
318.709	49.15
318.922	30.72
319.136	30.72
319.349	-12.29
319.563	83.97
319.776	30.72
319.99	6.14
320.203	36.86
320.417	38.91
320.63	88.06
320.843	26.62
321.057	120.83
321.27	69.63
321.483	47.1
321.697	-6.14
321.91	36.86
322.124	24.58
322.337	65.54
322.55	49.15
322.763	18.43
322.977	49.15
323.19	75.77
323.403	92.16
323.617	67.58
323.83	59.39
324.043	69.63
324.256	47.1
324.469	55.3
324.683	6.14
324.896	26.62
325.109	55.3
325.322	-57.34
325.535	47.1
325.748	88.06
325.962	38.91
326.175	98.3
326.388	63.49
326.601	63.49
326.814	22.53
327.027	38.91
327.24	40.96
327.453	-4.1
327.666	-30.72
327.879	38.91
328.092	55.3
328.305	47.1
328.518	20.48
328.731	-16.38
328.944	51.2
329.157	61.44
329.37	83.97
329.583	49.15
329.796	88.06
330.009	-24.58
330.222	63.49
330.435	55.3
330.648	16.38
330.861	-55.3
331.073	38.91
331.286	14.34
331.499	67.58
331.712	-59.39
331.925	94.21
332.138	65.54
332.35	112.64
332.563	-16.38
332.776	63.49
332.989	18.43
333.202	-45.06
333.414	47.1
333.627	40.96
333.84	71.68
334.053	79.87
334.265	47.1
334.478	55.3
334.691	59.39
334.903	63.49
335.116	-24.58
335.329	24.58
335.541	30.72
335.754	18.43
335.966	38.91
336.179	-81.92
336.392	-24.58
336.604	40.96
336.817	63.49
337.029	88.06
337.242	-34.82
337.454	49.15
337.667	16.38
337.88	43.01
338.092	30.72
338.305	137.21
338.517	10.24
338.729	96.25
338.942	75.77
339.154	55.3
339.367	-51.2
339.579	43.01
339.792	55.3
340.004	43.01
340.217	-36.86
340.429	75.77
340.641	-14.34
340.854	-8.19
341.066	47.1
341.278	133.12
341.491	73.73
341.703	63.49
341.915	-12.29
342.128	79.87
342.34	65.54
342.552	63.49
342.764	12.29
342.977	16.38
343.189	-4.1
343.401	2.05
343.613	-16.38
343.826	75.77
344.038	4.1
344.25	-26.62
344.462	79.87
344.674	6.14
344.886	47.1
345.099	73.73
345.311	90.11
345.523	-34.82
345.735	20.48
345.947	34.82
346.159	34.82
346.371	-16.38
346.583	63.49
346.795	98.3
347.007	104.45
347.219	22.53
347.431	30.72
347.643	108.54
347.855	32.77
348.067	57.34
348.279	8.19
348.491	129.02
348.703	94.21
348.915	34.82
349.127	67.58
349.339	30.72
349.551	-38.91
349.763	104.45
349.975	-10.24
350.187	-14.34
350.399	106.49
350.61	10.24
350.822	30.72
351.034	43.01
351.246	63.49
351.458	49.15
351.669	-6.14
351.881	112.64
352.093	65.54
352.305	79.87
352.517	86.01
352.728	133.12
352.94	-36.86
353.152	14.34
353.363	26.62
353.575	45.06
353.787	6.14
353.999	14.34
354.21	-14.34
354.422	-14.34
354.633	65.54
354.845	30.72
355.057	40.96
355.268	124.93
355.48	90.11
355.692	-2.05
355.903	51.2
356.115	28.67
356.326	51.2
356.538	120.83
356.749	108.54
356.961	108.54
357.172	-40.96
357.384	24.58
357.595	96.25
357.807	18.43
358.018	69.63
358.23	32.77
358.441	55.3
358.653	22.53
358.864	94.21
359.075	55.3
359.287	79.87
359.498	92.16
359.709	8.19
359.921	-36.86
360.132	71.68
360.344	88.06
360.555	73.73
360.766	79.87
360.977	88.06
361.189	14.34
361.4	20.48
361.611	83.97
361.823	71.68
362.034	30.72
362.245	-4.1
362.456	63.49
362.667	59.39
362.879	22.53
363.09	139.26
363.301	-24.58
363.512	47.1
363.723	43.01
363.935	30.72
364.146	92.16
364.357	-10.24
364.568	104.45
364.779	79.87
364.99	6.14
365.201	0
365.412	116.73
365.623	-22.53
365.834	49.15
366.045	8.19
366.256	69.63
366.467	83.97
366.678	-32.77
366.889	8.19
367.1	112.64
367.311	104.45
367.522	63.49
367.733	83.97
367.944	34.82
368.155	51.2
368.366	-8.19
368.577	53.25
368.788	47.1
368.999	53.25
369.209	124.93
369.42	83.97
369.631	88.06
369.842	122.88
370.053	88.06
370.264	43.01
370.474	0
370.685	65.54
370.896	79.87
371.107	30.72
371.317	45.06
371.528	-40.96
371.739	100.35
371.95	98.3
372.16	63.49
372.371	24.58
372.582	49.15
372.792	79.87
373.003	77.82
373.214	8.19
373.424	102.4
373.635	22.53
373.846	47.1
374.056	-47.1
374.267	88.06
374.477	61.44
374.688	57.34
374.898	65.54
375.109	26.62
375.319	-6.14
375.53	51.2
375.74	81.92
375.951	22.53
376.161	49.15
376.372	133.12
376.582	12.29
376.793	6.14
377.003	14.34
377.214	106.49
377.424	-2.05
377.635	30.72
377.845	24.58
378.055	57.34
378.266	22.53
378.476	18.43
378.686	65.54
378.897	83.97
379.107	79.87
379.317	55.3
379.528	63.49
379.738	67.58
379.948	36.86
380.158	69.63
380.369	40.96
380.579	40.96
380.789	6.14
380.999	137.21
381.21	28.67
381.42	104.45
381.63	47.1
381.84	55.3
382.05	55.3
382.261	63.49
382.471	57.34
382.681	122.88
382.891	51.2
383.101	34.82
383.311	-45.06
383.521	71.68
383.731	61.44
383.941	88.06
384.151	63.49
384.361	26.62
384.571	86.01
384.781	57.34
384.991	79.87
385.201	165.89
385.411	81.92
385.621	75.77
385.831	-2.05
386.041	-8.19
386.251	40.96
386.461	57.34
386.671	129.02
386.881	-2.05
387.091	38.91
387.301	34.82
387.511	73.73
387.72	75.77
387.93	106.49
388.14	51.2
388.35	92.16
388.56	81.92
388.769	112.64
388.979	30.72
389.189	-18.43
389.399	26.62
389.609	79.87
389.818	55.3
390.028	32.77
390.238	63.49
390.447	47.1
390.657	67.58
390.867	53.25
391.076	108.54
391.286	112.64
391.496	106.49
391.705	16.38
391.915	73.73
392.125	75.77
392.334	34.82
392.544	79.87
392.753	55.3
392.963	106.49
393.172	34.82
393.382	73.73
393.591	151.55
393.801	38.91
394.01	180.22
394.22	45.06
394.429	129.02
394.639	47.1
394.848	114.69
395.058	43.01
395.267	16.38
395.477	92.16
395.686	98.3
395.895	188.41
396.105	145.41
396.314	47.1
396.524	129.02
396.733	153.6
396.942	147.45
397.152	122.88
397.361	155.65
397.57	178.17
397.78	190.46
397.989	92.16
398.198	118.78
398.407	112.64
398.617	49.15
398.826	116.73
399.035	126.97
399.244	131.07
399.453	137.21
399.663	141.31
399.872	75.77
400.081	116.73
400.29	139.26
400.499	106.49
400.708	124.93
400.917	96.25
401.127	88.06
401.336	100.35
401.545	239.61
401.754	135.17
401.963	73.73
402.172	106.49
402.381	131.07
402.59	194.56
402.799	147.45
403.008	182.27
403.217	169.98
403.426	124.93
403.635	131.07
403.844	96.25
404.053	126.97
404.262	237.56
404.471	194.56
404.68	169.98
404.888	106.49
405.097	178.17
405.306	196.61
405.515	212.99
405.724	182.27
405.933	223.23
406.142	147.45
406.35	245.76
406.559	210.94
406.768	215.04
406.977	243.71
407.185	219.13
407.394	190.46
407.603	178.17
407.812	333.82
408.02	251.9
408.229	231.42
408.438	235.52
408.646	198.65
408.855	251.9
409.064	286.72
409.272	225.28
409.481	329.72
409.69	253.95
409.898	268.28
410.107	253.95
410.315	362.49
410.524	399.35
410.733	440.31
410.941	368.63
411.15	425.98
411.358	436.22
411.567	444.41
411.775	497.66
411.984	436.22
412.192	493.56
412.401	542.71
412.609	593.91
412.818	546.81
413.026	518.14
413.234	634.87
413.443	643.06
413.651	542.71
413.86	571.38
414.068	571.38
414.276	739.32
414.485	751.6
414.693	710.65
414.901	808.95
415.11	837.62
415.318	681.97
415.526	804.85
415.734	800.76
415.943	819.19
416.151	872.43
416.359	851.96
416.567	993.26
416.776	1030.13
416.984	1034.22
417.192	1124.33
417.4	1064.94
417.608	1114.1
417.817	1187.82
418.025	1300.46
418.233	1312.75
418.441	1329.13
418.649	1396.71
418.857	1419.24
419.065	1421.29
419.273	1433.58
419.481	1497.07
419.689	1527.78
419.897	1701.86
420.105	1613.8
420.313	1693.67
420.521	1767.4
420.729	1886.18
420.937	1877.99
421.145	1957.86
421.353	1998.82
421.561	2103.26
421.769	2138.08
421.977	2240.48
422.185	2207.71
422.393	2402.27
422.601	2512.86
422.809	2465.75
423.017	2521.05
423.224	2666.46
423.432	2783.19
423.64	2834.39
423.848	2953.17
424.056	2877.4
424.263	3250.13
424.471	3184.59
424.679	3266.51
424.887	3356.62
425.094	3549.13
425.302	3497.93
425.51	3616.71
425.718	3700.68
425.925	3729.35
426.133	3850.18
426.341	4143.04
426.548	4407.23
426.756	4347.84
426.964	4306.88
427.171	4593.59
427.379	4814.77
427.586	5011.38
427.794	4980.66
428.001	5226.42
428.209	5466.03
428.417	5380.01
428.624	5676.97
428.832	5719.98
429.039	5703.59
429.247	5777.32
429.454	6354.85
429.662	6526.88
429.869	6252.45
430.076	6604.7
430.284	6461.34
430.491	6797.21
430.699	7063.44
430.906	7247.76
431.114	7143.31
431.321	7362.45
431.528	7659.4
431.736	8120.2
431.943	8308.61
432.15	8331.14
432.358	8296.32
432.565	8955.77
432.772	8621.95
432.979	9234.29
433.187	9269.11
433.394	9312.11
433.601	10266.47
433.808	10114.92
434.016	10018.66
434.223	10549.09
434.43	10778.46
434.637	10889.05
434.844	11642.7
435.052	11867.98
435.259	11917.13
435.466	11804.49
435.673	11757.39
435.88	12199.75
436.087	13133.62
436.294	13082.42
436.501	12640.06
436.708	13027.13
436.915	13375.28
437.122	14061.35
437.329	13977.39
437.537	14454.56
437.743	14645.02
437.95	14690.08
438.157	15126.3
438.364	15728.4
438.571	15820.56
438.778	16047.88
438.985	17254.14
439.192	16619.27
439.399	17153.79
439.606	17067.77
439.813	17725.17
440.02	18818.78
440.227	18454.25
440.433	18249.45
440.64	19062.49
440.847	18618.08
441.054	19111.64
441.261	20633.29
441.467	20303.56
441.674	20631.24
441.881	21159.61
442.088	21245.63
442.294	21092.03
442.501	21649.08
442.708	22126.25
442.914	22918.82
443.121	23955.09
443.328	23461.53
443.534	24850.05
443.741	23875.22
443.948	23926.42
444.154	25599.61
444.361	25820.79
444.568	25495.16
444.774	25446.01
444.981	26089.07
445.187	26932.84
445.394	27752.02
445.6	27483.74
445.807	30090.8
446.013	28665.42
446.22	29122.12
446.426	30324.27
446.633	30871.08
446.839	31684.12
447.046	30567.98
447.252	32400.91
447.459	32251.41
447.665	31759.9
447.871	33445.38
448.078	34721.26
448.284	33027.59
448.491	34022.9
448.697	35083.75
448.903	35982.81
449.11	36040.15
449.316	35349.99
449.522	36093.4
449.728	37098.95
449.935	36892.11
450.141	37121.48
450.347	37918.14
450.553	37258.7
450.76	37514.69
450.966	38636.98
451.172	38057.4
451.378	39005.61
451.584	38155.71
451.791	39247.27
451.997	39245.23
452.203	39865.76
452.409	39701.92
452.615	39536.04
452.821	37934.53
453.027	37660.1
453.233	39810.46
453.44	38321.59
453.646	38739.38
453.852	38684.08
454.058	39294.38
454.264	38108.6
454.47	39024.04
454.676	37780.93
454.882	39218.6
455.088	35868.12
455.294	36500.95
455.5	37256.65
455.705	37791.17
455.911	35825.12
456.117	35319.27
456.323	34887.15
456.529	33205.77
456.735	34342.39
456.941	33641.98
457.147	33123.85
457.352	31942.17
457.558	31551.01
457.764	31712.8
457.97	31438.37
458.176	30621.23
458.381	30828.07
458.587	29261.38
458.793	28927.56
458.999	27655.77
459.204	29636.16
459.41	28925.51
459.616	26830.44
459.821	26871.4
460.027	26879.59
460.233	26220.14
460.438	25167.49
460.644	25480.83
460.85	24331.92
461.055	23639.7
461.261	23756.44
461.466	21784.24
461.672	21235.39
461.878	23158.43
462.083	21223.1
462.289	20682.44
462.494	20756.16
462.7	19754.71
462.905	19175.13
463.111	20080.33
463.316	19945.17
463.522	19705.56
463.727	19568.34
463.932	19871.44
464.138	19392.22
464.343	19551.96
464.549	18779.87
464.754	19504.85
464.959	19433.18
465.165	19375.83
465.37	18421.48
465.575	17993.45
465.781	18482.92
465.986	18706.15
466.191	18079.47
466.397	17860.34
466.602	16963.33
466.807	17256.18
467.012	17598.2
467.218	17221.37
467.423	17221.37
467.628	17325.82
467.833	17897.2
468.038	17403.64
468.244	16776.96
468.449	17614.58
468.654	17078.01
468.859	17018.62
469.064	16729.86
469.269	16074.51
469.474	16496.39
469.679	16828.16
469.885	16045.84
470.09	16260.87
470.295	16199.43
470.5	15947.53
470.705	16135.95
470.91	15765.26
471.115	15396.63
471.32	15734.54
471.525	15451.92
471.73	15030.04
471.935	15333.14
472.139	14591.78
472.344	14767.9
472.549	14817.05
472.754	14696.22
472.959	14536.48
473.164	13954.86
473.369	13911.85
473.574	14728.99
473.778	14112.55
473.983	13901.61
474.188	13774.64
474.393	13494.07
474.598	13571.89
474.802	13080.38
475.007	13340.47
475.212	13055.8
475.417	12885.82
475.621	12947.26
475.826	13006.65
476.031	12719.93
476.235	12234.57
476.44	12556.1
476.645	12236.61
476.849	12304.2
477.054	12101.45
477.259	12003.14
477.463	12142.41
477.668	11749.2
477.872	11837.26
478.077	11751.24
478.282	11368.27
478.486	11290.45
478.691	11245.4
478.895	11321.17
479.1	11216.72
479.304	11026.26
479.509	10876.76
479.713	11020.12
479.918	10917.72
480.122	10602.33
480.326	10778.46
480.531	10891.1
480.735	10569.57
480.94	10544.99
481.144	10805.08
481.348	10311.52
481.553	10250.08
481.757	10338.15
481.961	10284.9
482.166	10667.87
482.37	10479.46
482.574	10227.56
482.778	10186.6
482.983	10303.33
483.187	10409.83
483.391	10264.42
483.595	10229.6
483.8	10317.67
484.004	10270.56
484.208	10483.55
484.412	10446.69
484.616	10254.18
484.821	10514.27
485.025	10137.45
485.229	10418.02
485.433	10276.71
485.637	10481.5
485.841	10129.25
486.045	10291.04
486.249	10254.18
486.453	10131.3
486.657	10352.48
486.861	10530.66
487.065	9906.02
487.269	10473.31
487.473	10205.03
487.677	10487.65
487.881	10256.23
488.085	10262.37
488.289	10399.59
488.493	10262.37
488.697	10399.59
488.901	10284.9
489.105	10340.19
489.309	10338.15
489.512	10518.37
489.716	10205.03
489.92	10420.06
490.124	10317.67
490.328	10671.97
490.531	10420.06
490.735	10581.85
490.939	10712.92
491.143	10764.12
491.346	10501.98
491.55	10901.34
491.754	10854.23
491.958	10839.9
492.161	10819.42
492.365	10757.98
492.569	10897.24
492.772	11009.88
492.976	10796.89
493.18	11056.98
493.383	11159.38
493.587	11056.98
493.79	11343.7
493.994	11269.97
494.197	11425.62
494.401	11374.42
494.605	11511.63
494.808	11620.17
495.012	11614.03
495.215	11769.68
495.419	11757.39
495.622	11886.41
495.825	12103.5
496.029	12031.82
496.232	12207.94
496.436	12336.96
496.639	12517.18
496.843	12533.57
497.046	12486.47
497.249	12838.72
497.453	12670.78
497.656	13205.3
497.859	13076.28
498.063	13195.06
498.266	13281.08
498.469	13420.34
498.673	13645.62
498.876	13688.62
499.079	13909.8
499.282	13852.46
499.485	14221.09
499.689	14114.6
499.892	14720.8
500.095	14286.63
500.298	15023.9
500.501	14569.25
500.705	15173.4
500.908	15324.95
501.111	15243.03
501.314	15433.49
501.517	15712.02
501.72	15755.02
501.923	15654.67
502.126	16355.08
502.329	16283.4
502.532	16637.7
502.735	16598.79
502.938	16656.13
503.141	16852.73
503.344	17387.25
503.547	17372.92
503.75	17626.87
503.953	18030.32
504.156	18087.66
504.359	18013.93
504.562	18216.68
504.765	18544.36
504.968	18949.85
505.17	18859.74
505.373	18620.13
505.576	19420.89
505.779	19424.98
505.982	19728.08
506.185	20025.04
506.387	20074.19
506.59	20334.28
506.793	20518.6
506.996	20598.47
507.198	21231.29
507.401	20969.15
507.604	21343.93
507.807	21796.53
508.009	21728.95
508.212	21747.38
508.415	22038.19
508.617	22546.09
508.82	22972.07
509.022	22404.78
509.225	23201.44
509.428	23250.59
509.63	23338.65
509.833	23297.69
510.035	24237.71
510.238	23836.31
510.44	24106.64
510.643	24487.56
510.845	24727.17
511.048	24741.51
511.25	24962.69
511.453	25474.68
511.655	26068.59
511.858	25841.27
512.06	25992.82
512.262	26293.87
512.465	26316.4
512.667	26678.89
512.87	27082.34
513.072	27248.22
513.274	27698.78
513.477	27889.24
513.679	28284.5
513.881	28139.09
514.084	28520.01
514.286	28339.79
514.488	28778.06
514.69	29867.58
514.893	29707.83
515.095	29498.94
515.297	29949.49
515.499	30395.95
515.701	30697
515.904	31098.41
516.106	30934.57
516.308	31338.02
516.51	31600.16
516.712	31731.23
516.914	31964.7
517.116	32493.07
517.318	32667.15
517.52	32304.66
517.722	32671.25
517.925	33484.29
518.127	33826.3
518.329	33508.86
518.531	33695.23
518.733	34455.03
518.935	34819.56
519.136	34735.6
519.338	34962.92
519.54	35431.91
519.742	35614.18
519.944	35780.06
520.146	36445.65
520.348	36709.84
520.55	36267.48
520.752	36722.13
520.954	37240.26
521.155	36947.4
521.357	37428.68
521.559	37729.73
521.761	38112.7
521.963	38049.21
522.164	38899.12
522.366	38362.55
522.568	38847.92
522.77	39005.61
522.971	39730.59
523.173	39456.17
523.375	39910.81
523.576	39660.96
523.778	40033.69
523.98	40687
524.181	40768.91
524.383	40273.31
524.584	41010.57
524.786	41454.98
524.988	41139.6
525.189	41553.29
525.391	41350.54
525.592	42120.57
525.794	42278.27
525.995	42040.7
526.197	42093.95
526.398	42126.72
526.6	42255.74
526.801	42782.07
527.003	42958.19
527.204	42683.76
527.406	43500.9
527.607	43330.92
527.808	43498.86
528.01	43111.79
528.211	43363.69
528.412	44281.18
528.614	43799.91
528.815	44080.48
529.016	44309.85
529.218	43601.25
529.419	44248.41
529.62	44246.36
529.822	44205.41
530.023	44156.25
530.224	44311.9
530.425	44363.1
530.626	44088.67
530.828	44221.79
531.029	45024.59
531.23	44504.41
531.431	44361.05
531.632	45155.66
531.833	45153.61
532.035	44957.01
532.236	45067.6
532.437	45004.11
532.638	44756.31
532.839	45170
533.04	45190.48
533.241	45010.26
533.442	45673.8
533.643	45376.84
533.844	45356.36
534.045	45104.46
534.246	44993.87
534.447	45350.22
534.648	45118.8
534.849	45393.23
535.05	45245.77
535.251	45534.54
535.451	45063.5
535.652	45552.97
535.853	45174.09
536.054	45198.67
536.255	45622.6
536.456	44666.2
536.657	45796.68
536.857	45516.11
537.058	44934.48
537.259	45833.54
537.46	45448.52
537.66	45022.54
537.861	45696.33
538.062	45434.19
538.263	45546.82
538.463	45010.26
538.664	45385.04
538.865	45391.18
539.065	45323.6
539.266	44993.87
539.466	45370.7
539.667	44778.84
539.868	45661.51
540.068	45575.5
540.269	45126.99
540.469	45444.43
540.67	45043.02
540.87	45421.9
541.071	45137.23
541.271	45509.96
541.472	44909.91
541.672	45471.05
541.873	44805.46
542.073	44547.42
542.274	45223.25
542.474	45104.46
542.675	44983.63
542.875	45174.09
543.075	44987.73
543.276	44789.08
543.476	45647.18
543.676	44832.08
543.877	45141.33
544.077	45460.81
544.277	44893.52
544.478	44936.53
544.678	44926.29
544.878	44471.64
545.078	44950.87
545.279	44543.32
545.479	44586.33
545.679	44920.15
545.879	44961.11
546.079	44918.1
546.28	44944.72
546.48	44617.05
546.68	45253.97
546.88	44842.32
547.08	44797.27
547.28	44879.19
547.48	44240.22
547.68	44733.78
547.88	44432.73
548.081	44817.75
548.281	44674.39
548.481	44739.93
548.681	44803.41
548.881	44969.3
549.081	44326.24
549.28	44639.57
549.48	44797.27
549.68	44555.61
549.88	44854.61
550.08	44316
550.28	45090.13
550.48	44797.27
550.68	44911.95
550.88	44250.46
551.08	44322.14
551.279	44739.93
551.479	44467.55
551.679	44477.79
551.879	44565.85
552.079	44825.94
552.278	44764.5
552.478	44520.79
552.678	44535.13
552.878	44737.88
553.077	44158.3
553.277	43890.02
553.477	44338.52
553.676	44586.33
553.876	44131.68
554.076	43967.84
554.275	43822.44
554.475	43857.25
554.674	44498.26
554.874	44623.19
555.074	43842.92
555.273	44408.15
555.473	44301.66
555.672	43810.15
555.872	43617.64
556.071	44221.79
556.271	44647.77
556.47	43820.39
556.67	43566.44
556.869	43660.65
557.068	43918.69
557.268	43189.61
557.467	44037.47
557.667	43838.82
557.866	43928.93
558.065	43418.99
558.265	43476.33
558.464	43070.83
558.663	43744.61
558.863	43162.99
559.062	44088.67
559.261	42997.1
559.461	43904.35
559.66	43160.94
559.859	43240.81
560.058	42792.31
560.258	43162.99
560.457	42630.52
560.656	43363.69
560.855	43054.45
561.054	42669.43
561.253	42831.22
561.453	42720.63
561.652	42546.55
561.851	43470.18
562.05	42982.77
562.249	42399.1
562.448	43068.78
562.647	42935.66
562.846	42564.98
563.045	42528.12
563.244	42575.22
563.443	42564.98
563.642	42007.93
563.841	42026.37
564.04	42016.13
564.239	42370.43
564.438	41899.39
564.637	42278.27
564.836	42104.19
565.035	41500.04
565.234	41655.68
565.432	41563.53
565.631	41526.66
565.83	41741.7
566.029	41012.62
566.228	41477.51
566.427	41708.93
566.625	41401.74
566.824	40820.11
567.023	41352.58
567.222	40893.84
567.42	41127.31
567.619	40660.37
567.818	40828.31
568.016	40783.25
568.215	41086.35
568.414	41014.67
568.612	40873.36
568.811	40535.45
569.01	40560.02
569.208	40316.31
569.407	40680.85
569.605	40414.62
569.804	40273.31
570.002	40066.46
570.201	40162.72
570.4	39945.63
570.598	39890.34
570.797	39744.93
570.995	39615.91
571.193	39241.13
571.392	39583.14
571.59	39226.79
571.789	39292.33
571.987	39380.39
572.186	39050.67
572.384	39198.12
572.582	39234.99
572.781	39337.38
572.979	38337.97
573.177	38919.6
573.376	38821.3
573.574	38526.39
573.772	38970.8
573.971	38487.48
574.169	38350.26
574.367	38247.86
574.565	38440.37
574.763	38417.85
574.962	38090.17
575.16	37854.65
575.358	38176.19
575.556	37533.12
575.754	38141.37
575.952	37137.87
576.151	37916.09
576.349	37584.32
576.547	37375.43
576.745	37354.95
576.943	37455.3
577.141	37473.73
577.339	37449.16
577.537	37242.31
577.735	37031.37
577.933	36720.08
578.131	37101
578.329	36724.18
578.527	37008.84
578.725	36746.7
578.923	36455.89
579.121	36347.35
579.319	36382.16
579.516	36662.74
579.714	36351.45
579.912	36304.34
580.11	36001.24
580.308	35851.74
580.506	35995.1
580.704	35487.2
580.901	35661.28
581.099	35442.15
581.297	35712.48
581.495	35141.1
581.692	35630.56
581.89	35280.36
582.088	35290.6
582.285	35184.1
582.483	35614.18
582.681	35319.27
582.878	34958.83
583.076	34543.09
583.274	34967.02
583.471	34579.95
583.669	34678.25
583.866	34387.44
584.064	34838
584.262	34215.41
584.459	34022.9
584.657	34190.84
584.854	34293.24
585.052	33617.41
585.249	34147.83
585.447	34055.67
585.644	33572.35
585.841	33680.89
586.039	34008.57
586.236	33369.6
586.434	33289.73
586.631	33779.2
586.828	33244.68
587.026	33500.67
587.223	33396.23
587.42	32955.91
587.618	33224.2
587.815	32775.69
588.012	32738.83
588.21	32761.36
588.407	32726.54
588.604	32775.69
588.801	32067.09
588.999	32273.94
589.196	32661.01
589.393	32296.47
589.59	31962.65
589.787	32140.82
589.984	31911.45
590.182	31673.88
590.379	32009.75
590.576	31706.65
590.773	31647.26
590.97	31317.54
591.167	31825.43
591.364	31063.59
591.561	31618.59
591.758	30850.6
591.955	31376.93
592.152	31376.93
592.349	30920.23
592.546	31165.99
592.743	30647.85
592.94	30469.68
593.137	30828.07
593.334	30879.27
593.531	29976.12
593.727	30735.91
593.924	30496.3
594.121	30066.23
594.318	30264.88
594.515	29736.51
594.712	30012.98
594.908	29711.93
595.105	29898.3
595.302	29546.05
595.499	29660.73
595.696	29738.55
595.892	29312.58
596.089	29931.06
596.286	29359.68
596.482	29644.35
596.679	29642.3
596.876	29337.15
597.072	29328.96
597.269	29400.64
597.466	28821.06
597.662	28567.12
597.859	28716.62
598.055	28644.94
598.252	28331.6
598.448	28612.17
598.645	28290.64
598.841	27879
599.038	28294.74
599.234	28077.65
599.431	28165.71
599.627	27803.22
599.824	27993.68
600.02	27729.5
600.217	28075.6
600.413	27713.11
600.609	27756.12
600.806	27534.94
601.002	27393.63
601.198	27229.79
601.395	27254.37
601.591	27315.81
601.787	27221.6
601.984	27051.62
602.18	27373.15
602.376	26928.74
602.572	27108.96
602.769	26785.38
602.965	26377.84
603.161	26531.44
603.357	26461.8
603.553	26578.54
603.75	26650.22
603.946	26320.49
604.142	26048.11
604.338	26154.61
604.534	26324.59
604.73	25704.06
604.926	25738.87
605.122	25912.95
605.318	25769.59
605.514	25685.62
605.71	25572.99
605.906	25472.64
606.102	25810.55
606.298	25572.99
606.494	25405.05
606.69	25478.78
606.886	25511.55
607.082	25001.6
607.278	25470.59
607.474	24536.71
607.67	25132.67
607.866	24657.54
608.062	25054.85
608.257	24680.07
608.453	24753.8
608.649	24942.21
608.845	24483.47
609.041	24538.76
609.236	24532.62
609.432	24655.5
609.628	24458.89
609.824	24424.08
610.019	24456.84
610.215	24250
610.411	24391.31
610.606	24172.18
610.802	24387.21
610.998	24157.84
611.193	24198.8
611.389	23971.47
611.584	23869.08
611.78	24063.63
611.976	23860.88
612.171	23946.9
612.367	23893.65
612.562	23637.66
612.758	23363.23
612.953	23398.04
613.149	24143.5
613.344	23568.02
613.539	23977.62
613.735	23717.53
613.93	23461.53
614.126	23516.83
614.321	23580.31
614.517	23608.98
614.712	23447.19
614.907	23223.97
615.103	23774.87
615.298	23316.12
615.493	23404.19
615.688	22900.39
615.884	23146.14
616.079	22822.56
616.274	23101.09
616.47	22802.08
616.665	22775.46
616.86	22742.69
617.055	22814.37
617.25	22605.48
617.445	22695.59
617.641	22378.15
617.836	22654.63
618.031	22460.07
618.226	22759.08
618.421	22304.43
618.616	22615.72
618.811	22140.59
619.006	22283.95
619.201	21917.36
619.396	22163.12
619.591	21673.65
619.786	21860.02
619.981	21571.25
620.176	21905.07
620.371	21378.75
620.566	21647.03
620.761	21180.09
620.956	21530.3
621.151	21313.21
621.346	21243.58
621.541	20696.77
621.735	20911.81
621.93	20661.96
622.125	20672.2
622.32	20451.02
622.515	20551.37
622.709	20367.05
622.904	20219.6
623.099	20299.47
623.294	20201.16
623.488	19936.98
623.683	20063.95
623.878	19594.97
624.072	19922.64
624.267	19723.99
624.462	19795.67
624.656	19429.08
624.851	19211.99
625.046	19007.2
625.24	19109.6
625.435	19072.73
625.629	19193.56
625.824	18972.38
626.018	18751.2
626.213	18456.29
626.407	18591.46
626.602	18257.64
626.796	18360.04
626.991	18374.38
627.185	18073.32
627.38	18269.93
627.574	17938.16
627.768	17766.13
627.963	17919.73
628.157	17768.18
628.352	17774.32
628.546	17258.23
628.74	17377.01
628.935	17303.29
629.129	17469.17
629.323	16914.17
629.517	17127.16
629.712	16951.04
629.906	16867.07
630.1	16402.18
630.294	16897.79
630.489	16602.88
630.683	16822.02
630.877	16209.67
631.071	16111.37
631.265	16396.04
631.459	16279.3
631.653	16105.23
631.848	15982.35
632.042	16244.49
632.236	15863.57
632.43	15894.29
632.624	15728.4
632.818	15705.87
633.012	15390.49
633.206	15513.36
633.4	15374.1
633.594	15120.15
633.788	15417.11
633.982	15345.43
634.176	15218.46
634.369	14991.13
634.563	14984.99
634.757	14929.69
634.951	14722.85
635.145	14741.28
635.339	14790.43
635.533	14333.73
635.726	14479.14
635.92	14395.17
636.114	14337.83
636.308	14276.39
636.501	14239.53
636.695	14102.31
636.889	13874.99
637.083	14337.83
637.276	13840.17
637.47	13813.55
637.664	13940.52
637.857	13776.69
638.051	13666.1
638.244	13553.46
638.438	13305.65
638.632	13598.51
638.825	13270.84
639.019	13256.5
639.212	13260.6
639.406	13207.35
639.599	13043.51
639.793	13014.84
639.986	12965.69
640.18	12971.83
640.373	12982.07
640.567	12775.23
640.76	12744.51
640.954	12730.17
641.147	12552
641.34	12453.7
641.534	12480.32
641.727	12433.22
641.92	12240.71
642.114	12328.77
642.307	12261.19
642.5	12121.93
642.694	11880.27
642.887	12187.46
643.08	12023.62
643.273	11818.83
643.467	11843.4
643.66	11751.24
643.853	11695.95
644.046	11597.65
644.239	11532.11
644.432	11276.12
644.626	11511.63
644.819	11208.53
645.012	11460.43
645.205	11239.25
645.398	11194.2
645.591	11206.48
645.784	11245.4
645.977	10884.95
646.17	11011.93
646.363	10843.99
646.556	10757.98
646.749	10737.5
646.942	10915.67
647.135	10559.33
647.328	10694.49
647.521	10598.24
647.714	10311.52
647.907	10526.56
648.099	10368.87
648.292	10243.94
648.485	10397.54
648.678	10026.85
648.871	10170.21
649.064	10090.34
649.256	10245.99
649.449	10012.52
649.642	10008.42
649.835	9813.87
650.027	9838.44
650.22	9830.25
650.413	9834.35
650.605	9701.23
650.798	9867.11
650.991	9549.68
651.183	9609.07
651.376	9387.89
651.568	9326.45
651.761	9383.79
651.954	9285.49
652.146	9391.98
652.339	9439.09
652.531	9441.14
652.724	9293.68
652.916	9107.32
653.109	9117.56
653.301	8968.06
653.494	9107.32
653.686	9058.17
653.879	8892.28
654.071	8773.5
654.263	8884.09
654.456	8744.83
654.648	9004.92
654.84	8511.36
655.033	8443.78
655.225	8615.8
655.417	8574.85
655.61	8482.69
655.802	8320.9
655.994	8523.65
656.186	8470.4
656.379	8216.45
656.571	8171.4
656.763	8148.87
656.955	8165.25
657.148	8368
657.34	8091.52
657.532	8034.18
657.724	8023.94
657.916	7892.87
658.108	7853.96
658.3	7817.1
658.492	7925.64
658.684	7845.77
658.876	7804.81
659.068	7731.08
659.26	7577.48
659.452	7780.23
659.644	7718.79
659.836	7468.94
660.028	7581.58
660.22	7313.3
660.412	7337.87
660.604	7407.5
660.796	7438.22
660.988	7362.45
661.18	7223.19
661.372	7348.11
661.563	7331.73
661.755	7288.72
661.947	7214.99
662.139	7110.55
662.331	7030.68
662.522	6952.85
662.714	6825.88
662.906	6866.84
663.097	6793.11
663.289	6856.6
663.481	6772.63
663.673	6924.18
663.864	6539.16
664.056	6748.06
664.247	6674.33
664.439	6619.04
664.631	6723.48
664.822	6690.71
665.014	6500.25
665.205	6578.08
665.397	6465.44
665.588	6453.15
665.78	6508.44
665.971	6297.5
666.163	6307.74
666.354	6363.04
666.546	6203.3
666.737	6260.64
666.929	6039.46
667.12	6211.49
667.311	6121.38
667.503	6018.98
667.694	6195.11
667.885	6092.71
668.077	6125.47
668.268	5941.16
668.459	5967.78
668.651	5849
668.842	5988.26
669.033	5908.39
669.224	5820.33
669.416	5851.05
669.607	5754.79
669.798	5865.38
669.989	5773.22
670.18	5732.26
670.371	5732.26
670.563	5576.62
670.754	5527.47
670.945	5513.13
671.136	5646.25
671.327	5480.36
671.518	5582.76
671.709	5556.14
671.9	5394.35
672.091	5535.66
672.282	5502.89
672.473	5330.86
672.664	5388.21
672.855	5404.59
673.046	5375.92
673.237	5513.13
673.428	5216.18
673.619	5418.93
673.809	5283.76
674	5302.19
674.191	5334.96
674.382	5119.92
674.573	5347.25
674.764	5089.2
674.954	5097.39
675.145	5046.2
675.336	5144.5
675.527	4859.83
675.717	5003.19
675.908	4921.27
676.099	4863.93
676.289	5007.28
676.48	4931.51
676.671	4923.32
676.861	4874.17
677.052	4878.26
677.243	4962.23
677.433	4857.78
677.624	4839.35
677.814	4775.86
678.005	4745.14
678.195	4855.73
678.386	4691.9
678.576	4712.38
678.767	4638.65
678.957	4636.6
679.148	4708.28
679.338	4634.55
679.529	4495.29
679.719	4489.15
679.909	4614.07
680.1	4569.02
680.29	4515.77
680.481	4386.75
680.671	4593.59
680.861	4431.8
681.052	4396.99
681.242	4388.8
681.432	4505.53
681.622	4374.46
681.813	4286.4
682.003	4491.2
682.193	4245.44
682.383	4429.76
682.573	4308.93
682.764	4239.3
682.954	4267.97
683.144	4380.61
683.334	4237.25
683.524	4130.75
683.714	4270.01
683.904	4243.39
684.094	4265.92
684.284	4200.38
684.474	4159.42
684.664	4220.86
684.854	3975.11
685.044	3923.91
685.234	4003.78
685.424	3876.8
685.614	4038.59
685.804	4093.89
685.994	4016.07
686.184	4134.85
686.374	3979.2
686.564	3925.96
686.753	3850.18
686.943	3848.13
687.133	3964.87
687.323	3874.76
687.513	3911.62
687.702	3723.21
687.892	3807.17
688.082	3743.69
688.272	3770.31
688.461	3856.33
688.651	3766.21
688.841	3739.59
689.03	3624.9
689.22	3585.99
689.41	3624.9
689.599	3577.8
689.789	3692.49
689.979	3622.86
690.168	3569.61
690.358	3676.1
690.547	3651.53
690.737	3651.53
690.926	3629
691.116	3426.25
691.305	3598.28
691.495	3495.88
691.684	3426.25
691.874	3440.59
692.063	3553.23
692.252	3422.16
692.442	3454.92
692.631	3348.43
692.82	3409.87
693.01	3446.73
693.199	3323.85
693.388	3448.78
693.578	3282.89
693.767	3438.54
693.956	3391.44
694.146	3313.61
694.335	3301.33
694.524	3160.02
694.713	3233.74
694.902	3252.17
695.092	3227.6
695.281	3377.1
695.47	3221.45
695.659	3135.44
695.848	3180.5
696.037	3186.64
696.226	3254.22
696.415	3127.25
696.604	3196.88
696.793	3123.15
696.982	3160.02
697.171	3172.3
697.36	3123.15
697.549	3047.38
697.738	3094.48
697.927	3121.1
698.116	3145.68
698.305	2987.99
698.494	3037.14
698.683	2990.03
698.872	3039.19
699.061	2949.08
699.25	3047.38
699.438	3037.14
699.627	3002.32
699.816	3004.37
700.005	2897.88
700.193	2875.35
700.382	3065.81
700.571	2957.27
700.76	3024.85
700.948	2932.69
701.137	2912.21
701.326	2824.15
701.514	2920.4
701.703	3018.71
701.892	2924.5
702.08	2828.24
702.269	2936.79
702.457	2908.12
702.646	2973.65
702.834	2901.97
703.023	2942.93
703.212	2799.57
703.4	2811.86
703.589	2848.72
703.777	2834.39
703.965	2832.34
704.154	2760.66
704.342	2842.58
704.531	2627.54
704.719	2848.72
704.907	2848.72
705.096	2693.08
705.284	2785.24
705.472	2897.88
705.661	2779.09
705.849	2815.96
706.037	2824.15
706.226	2711.51
706.414	2734.04
706.602	2705.37
706.79	2711.51
706.979	2717.65
707.167	2648.02
707.355	2805.72
707.543	2754.52
707.731	2807.77
707.919	2715.61
708.107	2803.67
708.296	2734.04
708.484	2707.41
708.672	2701.27
708.86	2668.5
709.048	2750.42
709.236	2688.98
709.424	2658.26
709.612	2555.87
709.8	2504.67
709.988	2701.27
710.176	2437.08
710.364	2676.7
710.551	2592.73
710.739	2695.13
710.927	2559.96
711.115	2607.06
711.303	2648.02
711.491	2621.4
711.679	2562.01
711.866	2607.06
712.054	2478.04
712.242	2594.78
712.43	2408.41
712.617	2611.16
712.805	2467.8
712.993	2592.73
713.181	2406.36
713.368	2500.57
713.556	2473.95
713.744	2523.1
713.931	2537.43
714.119	2428.89
714.306	2457.56
714.494	2609.11
714.682	2475.99
714.869	2303.96
715.057	2355.16
715.244	2428.89
715.432	2402.27
715.619	2453.47
715.807	2400.22
715.994	2316.25
716.182	2320.35
716.369	2355.16
716.556	2512.86
716.744	2410.46
716.931	2398.17
717.119	2482.14
717.306	2406.36
717.493	2365.4
717.681	2336.73
717.868	2369.5
718.055	2310.11
718.242	2381.79
718.43	2363.36
718.617	2398.17
718.804	2332.64
718.991	2293.73
719.179	2379.74
719.366	2363.36
719.553	2383.84
719.74	2363.36
719.927	2242.53
720.114	2275.29
720.301	2322.4
720.488	2152.42
720.676	2201.57
720.863	2308.06
721.05	2197.47
721.237	2308.06
721.424	2215.9
721.611	2322.4
721.798	2160.61
721.985	2234.33
722.172	2236.38
722.358	2217.95
722.545	2242.53
722.732	2215.9
722.919	2211.81
723.106	2297.82
723.293	2162.65
723.48	2226.14
723.667	2111.46
723.853	2168.8
724.04	2162.65
724.227	2144.22
724.414	2156.51
724.6	2115.55
724.787	2238.43
724.974	2172.89
725.161	2101.22
725.347	2054.11
725.534	2185.18
725.72	2125.79
725.907	2281.44
726.094	2220
726.28	2111.46
726.467	2070.5
726.653	2027.49
726.84	2238.43
727.027	2172.89
727.213	2174.94
727.4	2050.02
727.586	2080.74
727.773	2127.84
727.959	2117.6
728.145	2041.82
728.332	2103.26
728.518	1996.77
728.705	2113.5
728.891	1898.47
729.077	2037.73
729.264	1947.62
729.45	1996.77
729.636	2025.44
729.823	1998.82
730.009	2068.45
730.195	1988.58
730.382	2019.3
730.568	2039.78
730.754	2019.3
730.94	2007.01
731.126	2099.17
731.313	1943.52
731.499	1996.77
731.685	1970.15
731.871	1914.85
732.057	1857.51
732.243	1886.18
732.429	1869.8
732.615	1972.19
732.801	1976.29
732.987	1961.95
733.173	1984.48
733.359	1990.63
733.545	1920.99
733.731	1923.04
733.917	1964
734.103	1959.91
734.289	1964
734.475	1931.23
734.661	1906.66
734.847	1865.7
735.033	1886.18
735.219	1890.28
735.404	1810.4
735.59	1857.51
735.776	1771.49
735.962	1830.88
736.148	1931.23
736.333	1828.84
736.519	1814.5
736.705	1769.45
736.89	1857.51
737.076	1843.17
737.262	1898.47
737.447	1943.52
737.633	1820.64
737.819	1845.22
738.004	1775.59
738.19	1849.32
738.375	1744.87
738.561	1873.89
738.747	1724.39
738.932	1824.74
739.118	1796.07
739.303	1753.06
739.489	1839.08
739.674	1656.81
739.859	1654.76
740.045	1812.45
740.23	1728.49
740.416	1716.2
740.601	1843.17
740.786	1738.73
740.972	1695.72
741.157	1693.67
741.342	1687.53
741.528	1630.18
741.713	1660.9
741.898	1644.52
742.084	1656.81
742.269	1673.19
742.454	1662.95
742.639	1683.43
742.824	1646.57
743.01	1603.56
743.195	1609.7
743.38	1587.18
743.565	1603.56
743.75	1572.84
743.935	1517.54
744.12	1693.67
744.305	1572.84
744.49	1525.74
744.675	1550.31
744.86	1589.22
745.045	1581.03
745.23	1468.39
745.415	1542.12
745.6	1476.59
745.785	1464.3
745.97	1523.69
746.155	1435.63
746.34	1497.07
746.525	1480.68
746.71	1443.82
746.895	1470.44
747.079	1542.12
747.264	1468.39
747.449	1468.39
747.634	1472.49
747.819	1415.15
748.003	1351.66
748.188	1392.62
748.373	1378.28
748.557	1378.28
748.742	1345.52
748.927	1409
749.111	1341.42
749.296	1368.04
749.481	1329.13
749.665	1284.08
749.85	1343.47
750.034	1384.43
750.219	1279.98
750.404	1193.97
750.588	1341.42
750.773	1214.45
750.957	1253.36
751.141	1239.02
751.326	1153.01
751.51	1267.69
751.695	1185.77
751.879	1230.83
752.064	1218.54
752.248	1185.77
752.432	1230.83
752.617	1173.49
752.801	1107.95
752.985	1097.71
753.17	1230.83
753.354	1196.01
753.538	1251.31
753.722	1185.77
753.907	1071.09
754.091	1105.9
754.275	1114.1
754.459	1060.85
754.643	1071.09
754.828	1093.62
755.012	1157.1
755.196	1093.62
755.38	1169.39
755.564	1034.22
755.748	1087.47
755.932	1114.1
756.116	1060.85
756.3	1056.75
756.484	964.59
756.668	1083.38
756.852	983.03
757.036	1064.94
757.22	983.03
757.404	989.17
757.588	1021.94
757.772	1040.37
757.956	956.4
758.14	1050.61
758.323	884.72
758.507	1026.03
758.691	958.45
758.875	964.59
759.059	964.59
759.242	907.25
759.426	919.54
759.61	913.39
759.794	888.82
759.977	892.91
760.161	911.35
760.345	933.87
760.528	843.76
760.712	956.4
760.895	884.72
761.079	976.88
761.263	860.15
761.446	897.01
761.63	849.91
761.813	905.2
761.997	739.32
762.18	817.14
762.364	808.95
762.547	835.57
762.731	862.19
762.914	774.13
763.098	839.67
763.281	827.38
763.464	837.62
763.648	763.89
763.831	794.61
764.015	839.67
764.198	884.72
764.381	829.43
764.564	772.08
764.748	835.57
764.931	841.72
765.114	878.58
765.297	733.17
765.481	733.17
765.664	792.56
765.847	696.31
766.03	837.62
766.213	720.89
766.397	739.32
766.58	767.99
766.763	759.8
766.946	800.76
767.129	753.65
767.312	745.46
767.495	690.17
767.678	714.74
767.861	700.41
768.044	741.36
768.227	731.12
768.41	733.17
768.593	759.8
768.776	761.84
768.959	770.04
769.142	688.12
769.324	669.69
769.507	745.46
769.69	698.36
769.873	661.49
770.056	813.04
770.239	636.92
770.421	737.27
770.604	751.6
770.787	727.03
770.97	696.31
771.152	784.37
771.335	786.42
771.518	671.73
771.7	706.55
771.883	692.21
772.066	706.55
772.248	677.88
772.431	753.65
772.613	688.12
772.796	667.64
772.978	702.45
773.161	704.5
773.343	612.34
773.526	655.35
773.708	645.11
773.891	569.34
774.073	600.05
774.256	620.53
774.438	647.16
774.621	548.86
774.803	546.81
774.985	567.29
775.168	632.82
775.35	595.96
775.532	636.92
775.715	677.88
775.897	628.73
776.079	616.44
776.261	612.34
776.444	540.66
776.626	653.3
776.808	600.05
776.99	532.47
777.173	655.35
777.355	628.73
777.537	524.28
777.719	591.86
777.901	518.14
778.083	548.86
778.265	526.33
778.447	522.23
778.629	581.62
778.811	491.51
778.993	536.57
779.175	636.92
779.357	616.44
779.539	595.96
779.721	448.51
779.903	499.7
780.085	491.51
780.267	538.62
780.449	540.66
780.631	522.23
780.812	518.14
780.994	555
781.176	440.31
781.358	528.38
781.54	444.41
781.721	491.51
781.903	444.41
782.085	440.31
782.267	516.09
782.448	360.44
782.63	413.69
782.812	522.23
782.993	481.27
783.175	409.59
783.357	385.02
783.538	430.07
783.72	425.98
783.901	413.69
784.083	401.4
784.264	434.17
784.446	382.97
784.627	370.68
784.809	428.03
784.99	372.73
785.172	401.4
785.353	407.55
785.535	378.87
785.716	419.83
785.897	344.06
786.079	452.6
786.26	370.68
786.441	450.55
786.623	368.63
786.804	350.2
786.985	329.72
787.167	374.78
787.348	378.87
787.529	325.63
787.71	409.59
787.891	350.2
788.073	374.78
788.254	358.39
788.435	436.22
788.616	319.48
788.797	327.68
788.978	309.24
789.159	317.44
789.34	374.78
789.522	235.52
789.703	276.48
789.884	337.91
790.065	350.2
790.246	337.91
790.427	325.63
790.607	344.06
790.788	382.97
790.969	270.33
791.15	303.1
791.331	337.91
791.512	258.04
791.693	280.57
791.874	239.61
792.054	329.72
792.235	305.15
792.416	276.48
792.597	227.32
792.778	374.78
792.958	237.56
793.139	335.87
793.32	245.76
793.5	284.67
793.681	290.81
793.862	284.67
794.042	299
794.223	237.56
794.404	264.19
794.584	233.47
794.765	251.9
794.945	276.48
795.126	337.91
795.306	284.67
795.487	227.32
795.667	235.52
795.848	196.61
796.028	276.48
796.209	237.56
796.389	208.89
796.57	327.68
796.75	217.08
796.93	245.76
797.111	237.56
797.291	229.37
797.471	262.14
797.652	278.52
797.832	190.46
798.012	225.28
798.192	186.37
798.373	235.52
798.553	194.56
798.733	270.33
798.913	235.52
799.093	237.56
799.274	202.75
799.454	241.66
799.634	221.18
799.814	235.52
799.994	202.75
800.174	243.71
800.354	200.7
800.534	210.94
800.714	262.14
800.894	178.17
801.074	169.98
801.254	145.41
801.434	206.84
801.614	221.18
801.794	194.56
801.974	704.5
802.154	188.41
802.334	241.66
802.514	161.79
802.693	247.8
802.873	151.55
803.053	204.8
803.233	196.61
803.413	149.5
803.592	159.74
803.772	129.02
803.952	172.03
804.131	161.79
804.311	186.37
804.491	196.61
804.67	86.01
804.85	153.6
805.03	184.32
805.209	268.28
805.389	229.37
805.568	194.56
805.748	176.13
805.928	219.13
806.107	204.8
806.287	188.41
806.466	108.54
806.646	116.73
806.825	210.94
807.004	137.21
807.184	133.12
807.363	139.26
807.543	204.8
807.722	239.61
807.901	145.41
808.081	151.55
808.26	110.59
808.439	174.08
808.619	172.03
808.798	161.79
808.977	194.56
809.156	221.18
809.336	106.49
809.515	210.94
809.694	122.88
809.873	120.83
810.052	137.21
810.231	196.61
810.411	192.51
810.59	88.06
810.769	178.17
810.948	196.61
811.127	79.87
811.306	202.75
811.485	88.06
811.664	196.61
811.843	118.78
812.022	169.98
812.201	198.65
812.38	30.72
812.559	110.59
812.737	206.84
812.916	24.58
813.095	63.49
813.274	174.08
813.453	118.78
813.632	124.93
813.811	100.35
813.989	112.64
814.168	133.12
814.347	88.06
814.526	202.75
814.704	106.49
814.883	243.71
815.062	100.35
815.24	106.49
815.419	118.78
815.598	112.64
815.776	169.98
815.955	88.06
816.133	90.11
816.312	145.41
816.49	104.45
816.669	157.69
816.847	92.16
817.026	96.25
817.204	55.3
817.383	96.25
817.561	112.64
817.74	145.41
817.918	67.58
818.097	88.06
818.275	116.73
818.453	178.17
818.632	73.73
818.81	145.41
818.988	75.77
819.167	59.39
819.345	88.06
819.523	75.77
819.701	57.34
819.879	120.83
820.058	86.01
820.236	94.21
820.414	57.34
820.592	57.34
820.77	124.93
820.948	167.93
821.127	79.87
821.305	59.39
821.483	65.54
821.661	133.12
821.839	135.17
822.017	98.3
822.195	96.25
822.373	139.26
822.551	155.65
822.729	180.22
822.907	106.49
823.085	112.64
823.262	112.64
823.44	49.15
823.618	88.06
823.796	88.06
823.974	57.34
824.152	16.38
824.329	63.49
824.507	57.34
824.685	55.3
824.863	47.1
825.04	67.58
825.218	116.73
825.396	126.97
825.574	83.97
825.751	36.86
825.929	90.11
826.107	32.77
826.284	116.73
826.462	98.3
826.639	131.07
826.817	-8.19
826.994	55.3
827.172	32.77
827.349	96.25
827.527	34.82
827.704	67.58
827.882	104.45
828.059	153.6
828.237	79.87
828.414	124.93
828.591	65.54
828.769	98.3
828.946	14.34
829.124	90.11
829.301	159.74
829.478	83.97
829.655	79.87
829.833	32.77
830.01	2.05
830.187	34.82
830.364	22.53
830.542	83.97
830.719	120.83
830.896	114.69
831.073	79.87
831.25	79.87
831.427	83.97
831.604	114.69
831.782	12.29
831.959	49.15
832.136	55.3
832.313	129.02
832.49	55.3
832.667	83.97
832.844	55.3
833.021	129.02
833.198	77.82
833.374	28.67
833.551	112.64
833.728	10.24
833.905	112.64
834.082	-49.15
834.259	92.16
834.436	47.1
834.612	18.43
834.789	104.45
834.966	6.14
835.143	0
835.319	-6.14
835.496	24.58
835.673	88.06
835.85	98.3
836.026	51.2
836.203	94.21
836.38	65.54
836.556	-8.19
836.733	-28.67
836.909	83.97
837.086	28.67
837.262	18.43
837.439	131.07
837.616	-2.05
837.792	14.34
837.968	24.58
838.145	67.58
838.321	40.96
838.498	98.3
838.674	159.74
838.851	8.19
839.027	22.53
839.203	6.14
839.38	67.58
839.556	-4.1
839.732	124.93
839.909	149.5
840.085	63.49
840.261	67.58
840.437	108.54
840.614	-26.62
840.79	149.5
840.966	102.4
841.142	51.2
841.318	38.91
841.494	47.1
841.671	8.19
841.847	16.38
842.023	-26.62
842.199	88.06
842.375	53.25
842.551	8.19
842.727	-24.58
842.903	26.62
843.079	55.3
843.255	104.45
843.431	55.3
843.607	26.62
843.783	-30.72
843.959	22.53
844.134	30.72
844.31	79.87
844.486	24.58
844.662	18.43
844.838	10.24
845.013	61.44
845.189	65.54
845.365	22.53
845.541	-14.34
845.716	-14.34
845.892	0
846.068	55.3
846.244	20.48
846.419	81.92
846.595	-100.35
846.77	47.1
846.946	-55.3
847.122	71.68
847.297	-38.91
847.473	24.58
847.648	18.43
847.824	-14.34
847.999	6.14
848.175	18.43
848.35	40.96
848.526	75.77
848.701	100.35
848.876	116.73
849.052	98.3
849.227	-12.29
849.403	6.14
849.578	-4.1
849.753	-8.19
849.929	32.77
850.104	-8.19
850.279	59.39
850.454	40.96
850.63	47.1
850.805	88.06
850.98	2.05
851.155	-40.96
851.33	22.53
851.505	4.1
851.681	16.38
851.856	-10.24
852.031	20.48
852.206	59.39
852.381	6.14
852.556	47.1
852.731	22.53
852.906	92.16
853.081	-4.1
853.256	6.14
853.431	6.14
853.606	49.15
853.781	0
853.956	-2.05
854.131	69.63
854.305	-40.96
854.48	-24.58
854.655	100.35
854.83	51.2
855.005	16.38
855.18	49.15
855.354	-2.05
855.529	98.3
855.704	34.82
855.879	24.58
856.053	-59.39
856.228	-2.05
856.403	20.48
856.577	16.38
856.752	-63.49
856.926	73.73
857.101	104.45
857.276	-36.86
857.45	-8.19
857.625	24.58
857.799	4.1
857.974	30.72
858.148	-2.05
858.323	30.72
858.497	-69.63
858.672	14.34
858.846	30.72
859.02	30.72
859.195	6.14
859.369	-26.62
859.543	47.1
859.718	79.87
859.892	-34.82
860.066	63.49
860.241	-22.53
860.415	12.29
860.589	71.68
860.763	6.14
860.938	-2.05
861.112	22.53
861.286	-43.01
861.46	-81.92
861.634	0
861.808	38.91
861.982	65.54
862.157	4.1
862.331	43.01
862.505	26.62
862.679	-98.3
862.853	10.24
863.027	28.67
863.201	55.3
863.375	-6.14
863.549	36.86
863.722	-10.24
863.896	8.19
864.07	59.39
864.244	8.19
864.418	32.77
864.592	-20.48
864.766	14.34
864.939	92.16
865.113	30.72
865.287	59.39
865.461	40.96
865.634	47.1
865.808	2.05
865.982	14.34
866.156	-6.14
866.329	-69.63
866.503	96.25
866.676	-10.24
866.85	38.91
867.024	38.91
867.197	-10.24
867.371	-12.29
867.544	-55.3
867.718	16.38
867.891	30.72
868.065	-59.39
868.238	-22.53
868.412	22.53
868.585	-26.62
868.759	-12.29
868.932	4.1
869.105	-32.77
869.279	63.49
869.452	8.19
869.625	63.49
869.799	-2.05
869.972	49.15
870.145	32.77
870.319	38.91
870.492	-8.19
870.665	30.72
870.838	-34.82
871.011	-12.29
871.185	28.67
871.358	8.19
871.531	14.34
871.704	20.48
871.877	49.15
872.05	4.1
872.223	10.24
872.396	40.96
872.569	6.14
872.742	-10.24
872.915	-49.15
873.088	0
873.261	-47.1
873.434	-10.24
873.607	-6.14
873.78	-10.24
873.953	16.38
874.126	38.91
874.299	0
874.471	-34.82
874.644	22.53
874.817	-40.96
874.99	2.05
875.163	43.01
875.335	-8.19
875.508	16.38
875.681	53.25
875.853	0
876.026	40.96
876.199	98.3
876.371	20.48
876.544	12.29
876.717	63.49
876.889	26.62
877.062	81.92
877.234	-43.01
877.407	16.38
877.579	59.39
877.752	14.34
877.924	47.1
878.097	8.19
878.269	-14.34
878.442	129.02
878.614	22.53
878.786	2.05
878.959	-28.67
879.131	26.62
879.303	-4.1
879.476	22.53
879.648	-16.38
879.82	-6.14
879.993	49.15
880.165	0
880.337	10.24
880.509	40.96
880.681	83.97
880.854	86.01
881.026	65.54
881.198	4.1
881.37	69.63
881.542	59.39
881.714	-43.01
881.886	-6.14
882.058	-18.43
882.23	8.19
882.402	-34.82
882.574	-2.05
882.746	36.86
882.918	2.05
883.09	-10.24
883.262	-90.11
883.434	26.62
883.606	-53.25
883.778	57.34
883.95	30.72
884.122	71.68
884.293	-2.05
884.465	-73.73
884.637	47.1
884.809	-38.91
884.98	24.58
885.152	-26.62
885.324	-10.24
885.496	-59.39
885.667	-14.34
885.839	-30.72
886.011	81.92
886.182	6.14
886.354	24.58
886.525	10.24
886.697	-59.39
886.869	-18.43
887.04	40.96
887.212	-26.62
887.383	104.45
887.555	-10.24
887.726	-14.34
887.897	18.43
888.069	4.1
888.24	20.48
888.412	-57.34
888.583	2.05
888.754	8.19
888.926	-28.67
889.097	-26.62
889.268	-18.43
889.44	34.82
889.611	-24.58
889.782	18.43
889.953	-22.53
890.125	100.35
890.296	-2.05
890.467	-59.39
890.638	-26.62
890.809	47.1
890.98	14.34
891.151	-10.24
891.323	-6.14
891.494	-16.38
891.665	-2.05
891.836	26.62
892.007	-43.01
892.178	43.01
892.349	32.77
892.52	0
892.691	26.62
892.862	-26.62
893.032	-55.3
893.203	36.86
893.374	-24.58
893.545	8.19
893.716	-83.97
893.887	-2.05
894.057	-67.58
894.228	-2.05
894.399	-30.72
894.57	40.96
894.74	10.24
894.911	8.19
895.082	-2.05
895.253	-18.43
895.423	63.49
895.594	47.1
895.764	-8.19
895.935	-51.2
896.106	43.01
896.276	-12.29
896.447	28.67
896.617	47.1
896.788	-75.77
896.958	6.14
897.129	-34.82
897.299	16.38
897.47	-2.05
897.64	-8.19
897.81	-34.82
897.981	-14.34
898.151	18.43
898.322	8.19
898.492	-49.15
898.662	-8.19
898.832	14.34
899.003	32.77
899.173	18.43
899.343	53.25
899.513	-4.1
