Data from USB4F104151__176__14-20-05-055.txt Node

Date: Thu Mar 13 14:20:05 EDT 2025
User: louis
Spectrometer: USB4F10415
Trigger mode: 4
Integration Time (sec): 2.000000E-2
Scans to average: 1
Electric dark correction enabled: true
Nonlinearity correction enabled: false
Boxcar width: 0
XAxis mode: Wavelengths
Number of Pixels in Spectrum: 3648
>>>>>Begin Spectral Data<<<<<
178.204	-71.17
178.424	-71.17
178.644	-71.17
178.864	-126.46
179.084	8.7
179.304	-19.97
179.524	-17.92
179.744	102.91
179.964	8.7
180.184	-30.21
180.404	37.38
180.624	-28.16
180.844	20.99
181.064	-83.45
181.283	29.18
181.503	-54.78
181.723	35.33
181.943	-13.82
182.163	64
182.383	18.94
182.602	10.75
182.822	29.18
183.042	43.52
183.262	-75.26
183.482	29.18
183.701	51.71
183.921	47.62
184.141	14.85
184.361	49.66
184.58	-11.78
184.8	61.95
185.02	-38.4
185.239	51.71
185.459	41.47
185.679	51.71
185.898	-32.26
186.118	29.18
186.338	18.94
186.557	-9.73
186.777	45.57
186.997	2.56
187.216	-19.97
187.436	84.48
187.655	59.9
187.875	51.71
188.095	43.52
188.314	20.99
188.534	45.57
188.753	35.33
188.973	12.8
189.192	23.04
189.412	61.95
189.631	29.18
189.851	2.56
190.07	78.33
190.29	59.9
190.509	4.61
190.729	55.81
190.948	61.95
191.168	55.81
191.387	68.09
191.607	-19.97
191.826	74.24
192.045	-28.16
192.265	33.28
192.484	-58.88
192.704	31.23
192.923	-69.12
193.142	66.05
193.362	-17.92
193.581	59.9
193.8	47.62
194.02	74.24
194.239	20.99
194.458	-19.97
194.678	61.95
194.897	64
195.116	78.33
195.335	-7.68
195.555	68.09
195.774	70.14
195.993	76.29
196.212	-13.82
196.432	2.56
196.651	64
196.87	27.14
197.089	68.09
197.308	102.91
197.528	57.86
197.747	-7.68
197.966	53.76
198.185	88.57
198.404	23.04
198.623	-9.73
198.842	27.14
199.062	29.18
199.281	66.05
199.5	-13.82
199.719	47.62
199.938	47.62
200.157	27.14
200.376	55.81
200.595	45.57
200.814	10.75
201.033	84.48
201.252	123.39
201.471	78.33
201.69	-9.73
201.909	109.05
202.128	-13.82
202.347	-11.78
202.566	-75.26
202.785	12.8
203.004	61.95
203.223	84.48
203.442	-22.02
203.661	84.48
203.879	2.56
204.098	59.9
204.317	-17.92
204.536	92.67
204.755	31.23
204.974	27.14
205.193	-1.54
205.411	74.24
205.63	25.09
205.849	-17.92
206.068	35.33
206.287	-52.74
206.505	12.8
206.724	18.94
206.943	23.04
207.162	68.09
207.381	47.62
207.599	35.33
207.818	18.94
208.037	39.42
208.255	-36.35
208.474	45.57
208.693	55.81
208.911	-26.11
209.13	-75.26
209.349	-79.36
209.567	59.9
209.786	109.05
210.005	88.57
210.223	35.33
210.442	35.33
210.661	6.66
210.879	-1.54
211.098	29.18
211.316	10.75
211.535	53.76
211.753	-5.63
211.972	14.85
212.191	12.8
212.409	68.09
212.628	100.86
212.846	27.14
213.065	-34.3
213.283	45.57
213.502	123.39
213.72	37.38
213.938	55.81
214.157	68.09
214.375	72.19
214.594	27.14
214.812	37.38
215.031	-28.16
215.249	12.8
215.467	29.18
215.686	43.52
215.904	74.24
216.122	92.67
216.341	29.18
216.559	-1.54
216.778	18.94
216.996	18.94
217.214	18.94
217.432	51.71
217.651	51.71
217.869	-3.58
218.087	35.33
218.306	55.81
218.524	-22.02
218.742	23.04
218.96	35.33
219.179	23.04
219.397	10.75
219.615	55.81
219.833	16.9
220.051	27.14
220.27	80.38
220.488	86.53
220.706	8.7
220.924	45.57
221.142	23.04
221.36	27.14
221.578	76.29
221.796	31.23
222.015	20.99
222.233	-17.92
222.451	51.71
222.669	10.75
222.887	35.33
223.105	55.81
223.323	14.85
223.541	18.94
223.759	4.61
223.977	72.19
224.195	35.33
224.413	18.94
224.631	80.38
224.849	41.47
225.067	41.47
225.285	45.57
225.503	-19.97
225.721	-36.35
225.939	61.95
226.157	53.76
226.375	74.24
226.592	27.14
226.81	6.66
227.028	-19.97
227.246	25.09
227.464	-5.63
227.682	8.7
227.9	61.95
228.117	39.42
228.335	10.75
228.553	35.33
228.771	-46.59
228.989	18.94
229.206	-17.92
229.424	-22.02
229.642	16.9
229.86	-42.5
230.077	70.14
230.295	88.57
230.513	37.38
230.731	55.81
230.948	152.06
231.166	68.09
231.384	10.75
231.601	-13.82
231.819	72.19
232.037	41.47
232.254	-69.12
232.472	53.76
232.689	14.85
232.907	-17.92
233.125	80.38
233.342	76.29
233.56	-26.11
233.777	61.95
233.995	55.81
234.213	8.7
234.43	20.99
234.648	-1.54
234.865	35.33
235.083	-54.78
235.3	-3.58
235.518	45.57
235.735	51.71
235.953	35.33
236.17	-42.5
236.388	51.71
236.605	70.14
236.822	51.71
237.04	8.7
237.257	94.72
237.475	51.71
237.692	55.81
237.909	47.62
238.127	0.51
238.344	53.76
238.562	102.91
238.779	-38.4
238.996	-3.58
239.214	37.38
239.431	53.76
239.648	59.9
239.865	35.33
240.083	102.91
240.3	86.53
240.517	16.9
240.735	51.71
240.952	27.14
241.169	-24.06
241.386	-5.63
241.603	74.24
241.821	35.33
242.038	10.75
242.255	88.57
242.472	-28.16
242.689	18.94
242.907	94.72
243.124	8.7
243.341	16.9
243.558	27.14
243.775	25.09
243.992	-67.07
244.209	-42.5
244.426	27.14
244.643	20.99
244.86	12.8
245.078	-13.82
245.295	14.85
245.512	6.66
245.729	2.56
245.946	-54.78
246.163	10.75
246.38	14.85
246.597	-15.87
246.814	84.48
247.031	59.9
247.248	57.86
247.464	-5.63
247.681	39.42
247.898	66.05
248.115	92.67
248.332	14.85
248.549	70.14
248.766	27.14
248.983	59.9
249.2	0.51
249.417	51.71
249.633	-46.59
249.85	23.04
250.067	-19.97
250.284	-13.82
250.501	43.52
250.717	0.51
250.934	-7.68
251.151	45.57
251.368	27.14
251.585	96.77
251.801	27.14
252.018	-42.5
252.235	55.81
252.451	39.42
252.668	-83.45
252.885	18.94
253.102	-11.78
253.318	61.95
253.535	23.04
253.752	16.9
253.968	37.38
254.185	76.29
254.401	37.38
254.618	43.52
254.835	-3.58
255.051	119.29
255.268	-9.73
255.484	-1.54
255.701	10.75
255.917	41.47
256.134	-60.93
256.351	-9.73
256.567	18.94
256.784	43.52
257	-15.87
257.217	41.47
257.433	18.94
257.65	53.76
257.866	59.9
258.082	27.14
258.299	59.9
258.515	70.14
258.732	-5.63
258.948	100.86
259.165	80.38
259.381	4.61
259.597	-54.78
259.814	-13.82
260.03	2.56
260.246	-38.4
260.463	98.81
260.679	92.67
260.895	51.71
261.112	-44.54
261.328	-46.59
261.544	76.29
261.761	-13.82
261.977	-3.58
262.193	6.66
262.409	100.86
262.626	43.52
262.842	27.14
263.058	4.61
263.274	47.62
263.49	27.14
263.707	-26.11
263.923	18.94
264.139	-60.93
264.355	-50.69
264.571	84.48
264.787	33.28
265.004	68.09
265.22	-11.78
265.436	27.14
265.652	0.51
265.868	53.76
266.084	72.19
266.3	43.52
266.516	45.57
266.732	43.52
266.948	61.95
267.164	14.85
267.38	23.04
267.596	0.51
267.812	18.94
268.028	25.09
268.244	23.04
268.46	-44.54
268.676	0.51
268.892	53.76
269.108	41.47
269.324	-3.58
269.54	33.28
269.756	84.48
269.972	6.66
270.188	86.53
270.403	-26.11
270.619	-19.97
270.835	10.75
271.051	37.38
271.267	-11.78
271.483	-28.16
271.698	12.8
271.914	27.14
272.13	29.18
272.346	37.38
272.562	29.18
272.777	12.8
272.993	12.8
273.209	39.42
273.425	-5.63
273.64	-30.21
273.856	51.71
274.072	-26.11
274.287	27.14
274.503	107.01
274.719	109.05
274.934	53.76
275.15	-28.16
275.366	68.09
275.581	41.47
275.797	6.66
276.012	37.38
276.228	47.62
276.444	-42.5
276.659	150.01
276.875	-26.11
277.09	35.33
277.306	37.38
277.521	82.43
277.737	43.52
277.952	35.33
278.168	0.51
278.383	2.56
278.599	43.52
278.814	86.53
279.03	64
279.245	18.94
279.461	-13.82
279.676	68.09
279.892	-1.54
280.107	6.66
280.322	-11.78
280.538	61.95
280.753	51.71
280.969	45.57
281.184	72.19
281.399	90.62
281.615	39.42
281.83	39.42
282.045	-7.68
282.26	37.38
282.476	68.09
282.691	78.33
282.906	55.81
283.122	41.47
283.337	-11.78
283.552	59.9
283.767	18.94
283.983	72.19
284.198	-11.78
284.413	12.8
284.628	-3.58
284.843	12.8
285.058	29.18
285.274	35.33
285.489	47.62
285.704	102.91
285.919	35.33
286.134	29.18
286.349	45.57
286.564	49.66
286.779	88.57
286.995	-3.58
287.21	29.18
287.425	-19.97
287.64	4.61
287.855	16.9
288.07	-36.35
288.285	90.62
288.5	72.19
288.715	37.38
288.93	6.66
289.145	2.56
289.36	59.9
289.575	8.7
289.79	104.96
290.004	-3.58
290.219	59.9
290.434	61.95
290.649	20.99
290.864	51.71
291.079	33.28
291.294	-5.63
291.509	10.75
291.724	84.48
291.938	37.38
292.153	74.24
292.368	57.86
292.583	74.24
292.798	18.94
293.012	27.14
293.227	80.38
293.442	-13.82
293.657	70.14
293.871	18.94
294.086	4.61
294.301	78.33
294.516	109.05
294.73	10.75
294.945	61.95
295.16	-3.58
295.374	100.86
295.589	31.23
295.804	2.56
296.018	129.53
296.233	31.23
296.447	51.71
296.662	20.99
296.877	70.14
297.091	68.09
297.306	64
297.52	23.04
297.735	92.67
297.949	4.61
298.164	20.99
298.378	92.67
298.593	61.95
298.807	-58.88
299.022	25.09
299.236	80.38
299.451	59.9
299.665	-15.87
299.88	-36.35
300.094	39.42
300.309	-11.78
300.523	37.38
300.737	27.14
300.952	55.81
301.166	37.38
301.381	14.85
301.595	-7.68
301.809	12.8
302.024	39.42
302.238	59.9
302.452	43.52
302.667	29.18
302.881	84.48
303.095	43.52
303.309	45.57
303.524	23.04
303.738	6.66
303.952	-9.73
304.166	94.72
304.381	4.61
304.595	72.19
304.809	-26.11
305.023	86.53
305.237	55.81
305.452	84.48
305.666	2.56
305.88	72.19
306.094	51.71
306.308	23.04
306.522	37.38
306.736	2.56
306.95	-7.68
307.164	61.95
307.379	37.38
307.593	92.67
307.807	88.57
308.021	96.77
308.235	29.18
308.449	72.19
308.663	41.47
308.877	57.86
309.091	4.61
309.305	113.15
309.519	-26.11
309.733	61.95
309.947	61.95
310.161	18.94
310.374	78.33
310.588	59.9
310.802	4.61
311.016	45.57
311.23	88.57
311.444	78.33
311.658	45.57
311.872	45.57
312.085	-5.63
312.299	35.33
312.513	43.52
312.727	47.62
312.941	-17.92
313.154	31.23
313.368	55.81
313.582	92.67
313.796	39.42
314.009	4.61
314.223	47.62
314.437	94.72
314.651	31.23
314.864	-11.78
315.078	-58.88
315.292	10.75
315.505	-34.3
315.719	14.85
315.933	-5.63
316.146	53.76
316.36	68.09
316.573	72.19
316.787	51.71
317.001	78.33
317.214	61.95
317.428	-3.58
317.641	39.42
317.855	18.94
318.068	31.23
318.282	29.18
318.495	59.9
318.709	107.01
318.922	37.38
319.136	96.77
319.349	68.09
319.563	76.29
319.776	25.09
319.99	-22.02
320.203	35.33
320.417	-19.97
320.63	4.61
320.843	59.9
321.057	68.09
321.27	-22.02
321.483	53.76
321.697	59.9
321.91	74.24
322.124	18.94
322.337	-24.06
322.55	4.61
322.763	55.81
322.977	47.62
323.19	43.52
323.403	-42.5
323.617	51.71
323.83	68.09
324.043	4.61
324.256	96.77
324.469	27.14
324.683	39.42
324.896	66.05
325.109	61.95
325.322	-60.93
325.535	27.14
325.748	-9.73
325.962	-5.63
326.175	27.14
326.388	51.71
326.601	45.57
326.814	39.42
327.027	12.8
327.24	76.29
327.453	-11.78
327.666	14.85
327.879	109.05
328.092	57.86
328.305	78.33
328.518	4.61
328.731	55.81
328.944	47.62
329.157	61.95
329.37	-15.87
329.583	59.9
329.796	78.33
330.009	-34.3
330.222	84.48
330.435	88.57
330.648	70.14
330.861	53.76
331.073	51.71
331.286	39.42
331.499	39.42
331.712	-44.54
331.925	61.95
332.138	51.71
332.35	104.96
332.563	14.85
332.776	102.91
332.989	-26.11
333.202	8.7
333.414	20.99
333.627	41.47
333.84	68.09
334.053	20.99
334.265	-71.17
334.478	100.86
334.691	145.92
334.903	55.81
335.116	23.04
335.329	96.77
335.541	72.19
335.754	78.33
335.966	4.61
336.179	31.23
336.392	61.95
336.604	29.18
336.817	154.11
337.029	61.95
337.242	51.71
337.454	86.53
337.667	51.71
337.88	78.33
338.092	98.81
338.305	12.8
338.517	4.61
338.729	27.14
338.942	29.18
339.154	61.95
339.367	27.14
339.579	70.14
339.792	-34.3
340.004	72.19
340.217	49.66
340.429	37.38
340.641	4.61
340.854	27.14
341.066	27.14
341.278	14.85
341.491	29.18
341.703	72.19
341.915	2.56
342.128	12.8
342.34	123.39
342.552	76.29
342.764	70.14
342.977	88.57
343.189	61.95
343.401	92.67
343.613	-34.3
343.826	2.56
344.038	-13.82
344.25	96.77
344.462	-38.4
344.674	84.48
344.886	35.33
345.099	82.43
345.311	-40.45
345.523	43.52
345.735	-28.16
345.947	29.18
346.159	6.66
346.371	162.3
346.583	-36.35
346.795	61.95
347.007	51.71
347.219	29.18
347.431	31.23
347.643	68.09
347.855	-26.11
348.067	27.14
348.279	18.94
348.491	68.09
348.703	10.75
348.915	43.52
349.127	-38.4
349.339	51.71
349.551	74.24
349.763	29.18
349.975	41.47
350.187	141.82
350.399	117.25
350.61	82.43
350.822	6.66
351.034	14.85
351.246	92.67
351.458	18.94
351.669	27.14
351.881	94.72
352.093	90.62
352.305	4.61
352.517	33.28
352.728	117.25
352.94	18.94
353.152	-22.02
353.363	18.94
353.575	117.25
353.787	107.01
353.999	2.56
354.21	96.77
354.422	-13.82
354.633	59.9
354.845	29.18
355.057	0.51
355.268	27.14
355.48	117.25
355.692	-5.63
355.903	29.18
356.115	76.29
356.326	55.81
356.538	59.9
356.749	92.67
356.961	70.14
357.172	-40.45
357.384	16.9
357.595	29.18
357.807	47.62
358.018	2.56
358.23	-3.58
358.441	72.19
358.653	119.29
358.864	49.66
359.075	12.8
359.287	68.09
359.498	64
359.709	43.52
359.921	76.29
360.132	20.99
360.344	25.09
360.555	-19.97
360.766	88.57
360.977	-9.73
361.189	51.71
361.4	107.01
361.611	76.29
361.823	68.09
362.034	76.29
362.245	-9.73
362.456	12.8
362.667	8.7
362.879	66.05
363.09	29.18
363.301	45.57
363.512	23.04
363.723	84.48
363.935	20.99
364.146	121.34
364.357	43.52
364.568	51.71
364.779	76.29
364.99	70.14
365.201	53.76
365.412	23.04
365.623	72.19
365.834	-1.54
366.045	-3.58
366.256	78.33
366.467	-13.82
366.678	37.38
366.889	-7.68
367.1	10.75
367.311	43.52
367.522	47.62
367.733	113.15
367.944	74.24
368.155	8.7
368.366	72.19
368.577	31.23
368.788	84.48
368.999	39.42
369.209	68.09
369.42	51.71
369.631	96.77
369.842	23.04
370.053	43.52
370.264	55.81
370.474	-22.02
370.685	-13.82
370.896	12.8
371.107	47.62
371.317	37.38
371.528	39.42
371.739	109.05
371.95	33.28
372.16	59.9
372.371	43.52
372.582	64
372.792	59.9
373.003	117.25
373.214	64
373.424	96.77
373.635	-11.78
373.846	94.72
374.056	45.57
374.267	23.04
374.477	70.14
374.688	100.86
374.898	35.33
375.109	18.94
375.319	-19.97
375.53	76.29
375.74	33.28
375.951	68.09
376.161	12.8
376.372	96.77
376.582	-42.5
376.793	111.1
377.003	82.43
377.214	68.09
377.424	113.15
377.635	51.71
377.845	23.04
378.055	104.96
378.266	12.8
378.476	49.66
378.686	35.33
378.897	72.19
379.107	70.14
379.317	115.2
379.528	-3.58
379.738	55.81
379.948	-1.54
380.158	117.25
380.369	49.66
380.579	76.29
380.789	53.76
380.999	109.05
381.21	57.86
381.42	109.05
381.63	37.38
381.84	49.66
382.05	84.48
382.261	37.38
382.471	80.38
382.681	100.86
382.891	43.52
383.101	25.09
383.311	72.19
383.521	12.8
383.731	76.29
383.941	86.53
384.151	10.75
384.361	2.56
384.571	64
384.781	125.44
384.991	31.23
385.201	107.01
385.411	66.05
385.621	84.48
385.831	-13.82
386.041	88.57
386.251	29.18
386.461	51.71
386.671	37.38
386.881	92.67
387.091	49.66
387.301	84.48
387.511	78.33
387.72	78.33
387.93	53.76
388.14	37.38
388.35	43.52
388.56	88.57
388.769	66.05
388.979	43.52
389.189	100.86
389.399	2.56
389.609	59.9
389.818	33.28
390.028	61.95
390.238	133.63
390.447	2.56
390.657	51.71
390.867	117.25
391.076	100.86
391.286	125.44
391.496	141.82
391.705	66.05
391.915	64
392.125	92.67
392.334	76.29
392.544	41.47
392.753	20.99
392.963	82.43
393.172	68.09
393.382	27.14
393.591	111.1
393.801	88.57
394.01	84.48
394.22	109.05
394.429	39.42
394.639	119.29
394.848	43.52
395.058	43.52
395.267	113.15
395.477	80.38
395.686	76.29
395.895	121.34
396.105	121.34
396.314	72.19
396.524	117.25
396.733	104.96
396.942	133.63
397.152	176.64
397.361	84.48
397.57	37.38
397.78	150.01
397.989	84.48
398.198	88.57
398.407	92.67
398.617	223.74
398.826	102.91
399.035	160.25
399.244	162.3
399.453	68.09
399.663	121.34
399.872	92.67
400.081	70.14
400.29	174.59
400.499	20.99
400.708	160.25
400.917	51.71
401.127	104.96
401.336	111.1
401.545	209.4
401.754	113.15
401.963	111.1
402.172	137.73
402.381	119.29
402.59	143.87
402.799	88.57
403.008	127.49
403.217	109.05
403.426	113.15
403.635	115.2
403.844	135.68
404.053	178.69
404.262	201.21
404.471	238.08
404.68	174.59
404.888	57.86
405.097	186.88
405.306	88.57
405.515	184.83
405.724	176.64
405.933	141.82
406.142	231.93
406.35	215.55
406.559	240.12
406.768	242.17
406.977	295.42
407.185	305.66
407.394	272.89
407.603	203.26
407.812	250.36
408.02	297.47
408.229	176.64
408.438	264.7
408.646	285.18
408.855	180.73
409.064	283.13
409.272	264.7
409.481	358.91
409.69	238.08
409.898	291.32
410.107	293.37
410.315	303.61
410.524	322.04
410.733	346.62
410.941	346.62
411.15	373.24
411.358	383.48
411.567	393.72
411.775	399.87
411.984	502.26
412.192	455.16
412.401	537.08
412.609	506.36
412.818	582.14
413.026	571.9
413.234	530.94
413.443	543.22
413.651	584.18
413.86	643.57
414.068	672.25
414.276	670.2
414.485	555.51
414.693	698.87
414.901	692.73
415.11	752.12
415.318	870.9
415.526	764.4
415.734	881.14
415.943	838.13
416.151	901.62
416.359	987.63
416.567	901.62
416.776	989.68
416.984	1051.12
417.192	1126.89
417.4	1051.12
417.608	1008.11
417.817	1153.52
418.025	1190.38
418.233	1274.35
418.441	1341.93
418.649	1280.49
418.857	1327.6
419.065	1397.23
419.273	1362.41
419.481	1356.27
419.689	1493.48
419.897	1559.02
420.105	1534.44
420.313	1534.44
420.521	1722.85
420.729	1712.61
420.937	1731.05
421.145	1929.7
421.353	1993.19
421.561	2036.19
421.769	2128.35
421.977	2181.6
422.185	2138.59
422.393	2394.59
422.601	2501.08
422.809	2468.31
423.017	2509.27
423.224	2517.47
423.432	2603.48
423.64	2714.07
423.848	2820.56
424.056	2779.61
424.263	3131.86
424.471	3115.47
424.679	3088.85
424.887	3310.03
425.094	3332.56
425.302	3418.57
425.51	3588.55
425.718	3625.42
425.925	3590.6
426.133	3750.34
426.341	4059.59
426.548	4215.23
426.756	4133.31
426.964	4147.65
427.171	4413.88
427.379	4651.45
427.586	4706.74
427.794	4807.09
428.001	4936.12
428.209	5286.32
428.417	5157.3
428.624	5464.49
428.832	5484.97
429.039	5513.64
429.247	5466.54
429.454	5843.37
429.662	6271.39
429.869	5863.85
430.076	6480.29
430.284	6123.94
430.491	6463.9
430.699	6883.73
430.906	7076.24
431.114	6861.21
431.321	7352.72
431.528	7166.35
431.736	7786.89
431.943	8044.93
432.15	7901.58
432.358	8049.03
432.565	8321.41
432.772	8362.37
432.979	8649.08
433.187	8954.23
433.394	9107.83
433.601	9498.99
433.808	9550.19
434.016	9587.05
434.223	9992.55
434.43	10586.46
434.637	10381.67
434.844	11073.88
435.052	11184.47
435.259	11061.59
435.466	11153.75
435.673	11139.41
435.88	11901.26
436.087	12544.32
436.294	12454.21
436.501	12202.31
436.708	12454.21
436.915	13082.94
437.122	13429.04
437.329	13283.64
437.537	13773.1
437.743	14178.6
437.95	13838.64
438.157	14715.17
438.364	15180.06
438.571	15042.84
438.778	15194.39
438.985	16767.23
439.192	15851.79
439.399	16402.69
439.606	16044.3
439.813	16746.75
440.02	18194.67
440.227	17877.23
440.433	17418.49
440.64	17957.1
440.847	17991.92
441.054	18286.82
441.261	19732.69
441.467	19435.74
441.674	19835.09
441.881	20463.82
442.088	20408.52
442.294	20349.13
442.501	20742.34
442.708	20949.18
442.914	21907.63
443.121	22694.05
443.328	22018.22
443.534	23750.81
443.741	23068.83
443.948	22837.41
444.154	24721.54
444.361	24195.21
444.568	24361.1
444.774	24322.19
444.981	24819.85
445.187	25389.18
445.394	26306.67
445.6	26194.03
445.807	28729.42
446.013	27480.16
446.22	28158.03
446.426	29067.33
446.633	29132.87
446.839	30564.4
447.046	28956.74
447.252	30937.13
447.459	30685.23
447.665	30539.82
447.871	32006.17
448.078	33110.02
448.284	31361.06
448.491	32569.36
448.697	33961.98
448.903	34494.45
449.11	34377.72
449.316	33615.87
449.522	34359.28
449.728	35559.39
449.935	35330.02
450.141	35348.45
450.347	36540.37
450.553	35307.49
450.76	35653.6
450.966	36888.53
451.172	36681.68
451.378	37468.1
451.584	36480.98
451.791	37552.07
451.997	37070.79
452.203	38219.7
452.409	38062.01
452.615	38027.2
452.821	36687.82
453.027	35846.11
453.233	38356.92
453.44	36460.5
453.646	37040.07
453.852	37232.58
454.058	37539.78
454.264	36566.99
454.47	37531.59
454.676	36435.92
454.882	38082.49
455.088	34586.61
455.294	35086.31
455.5	35594.21
455.705	35751.9
455.911	34521.07
456.117	33925.11
456.323	33554.43
456.529	31807.51
456.735	33318.92
456.941	31950.87
457.147	31817.75
457.352	30629.93
457.558	30007.35
457.764	30287.92
457.97	29730.87
458.176	29261.89
458.381	29331.52
458.587	27650.14
458.793	27828.31
458.999	26454.12
459.204	28229.71
459.41	27574.36
459.616	26091.63
459.821	25860.21
460.027	25727.1
460.233	25262.21
460.438	23961.75
460.644	24277.13
460.85	23269.53
461.055	22931.62
461.261	22796.45
461.466	20682.95
461.672	20437.19
461.878	21885.11
462.083	20713.67
462.289	20003.02
462.494	19960.02
462.7	19087.58
462.905	18557.16
463.111	19226.84
463.316	19052.77
463.522	18753.76
463.727	18606.31
463.932	18690.27
464.138	18454.76
464.343	18749.67
464.549	18018.54
464.754	18735.33
464.959	18643.17
465.165	18030.83
465.37	17582.32
465.575	16861.44
465.781	17957.1
465.986	18018.54
466.191	17246.46
466.397	16955.65
466.602	16169.23
466.807	16976.12
467.012	16791.81
467.218	16515.33
467.423	16228.62
467.628	16646.4
467.833	16931.07
468.038	16779.52
468.244	16195.85
468.449	16523.52
468.654	16193.8
468.859	16083.21
469.064	15819.02
469.269	15245.59
469.474	15644.95
469.679	15751.44
469.885	15198.49
470.09	15503.64
470.295	15468.82
470.5	14981.4
470.705	15380.76
470.91	14580
471.115	14356.77
471.32	14745.89
471.525	14686.5
471.73	14418.21
471.935	14395.68
472.139	14113.06
472.344	13912.36
472.549	13930.8
472.754	14172.46
472.959	13265.21
473.164	13226.29
473.369	13226.29
473.574	13611.31
473.778	13216.05
473.983	13441.33
474.188	13183.29
474.393	12550.46
474.598	12626.24
474.802	12503.36
475.007	12441.92
475.212	12693.82
475.417	12001.61
475.621	12222.79
475.826	12276.04
476.031	11809.1
476.235	11581.78
476.44	12220.74
476.645	11520.34
476.849	11790.67
477.054	11499.86
477.259	11211.09
477.463	11196.76
477.668	10934.62
477.872	11301.2
478.077	10864.99
478.282	10621.28
478.486	10572.13
478.691	10379.62
478.895	10606.94
479.1	10439.01
479.304	10391.91
479.509	10197.35
479.713	10361.19
479.918	10094.95
480.122	10006.89
480.326	10357.09
480.531	10041.7
480.735	9914.73
480.94	9865.58
481.144	10406.24
481.348	9855.34
481.553	9783.66
481.757	9685.36
481.961	9857.39
482.166	9912.68
482.37	9828.71
482.574	9677.16
482.778	9750.89
482.983	9759.08
483.187	9562.48
483.391	9838.95
483.595	9509.23
483.8	9546.09
484.004	9836.91
484.208	9646.44
484.412	9820.52
484.616	9580.91
484.821	9705.84
485.025	9574.77
485.229	9699.69
485.433	9580.91
485.637	9580.91
485.841	9521.52
486.045	9644.4
486.249	9742.7
486.453	9761.13
486.657	9736.56
486.861	9685.36
487.065	9482.61
487.269	9636.2
487.473	9548.14
487.677	9703.79
487.881	9550.19
488.085	9732.46
488.289	9709.93
488.493	9533.81
488.697	9638.25
488.901	9660.78
489.105	9646.44
489.309	9666.92
489.512	9920.87
489.716	9804.14
489.92	9644.4
490.124	9802.09
490.328	9900.39
490.531	9771.37
490.735	10019.18
490.939	9752.94
491.143	9558.38
491.346	9816.43
491.55	9959.78
491.754	10033.51
491.958	10082.66
492.161	10105.19
492.365	10086.76
492.569	10013.03
492.772	10000.74
492.976	10211.68
493.18	10289.51
493.383	10414.43
493.587	10377.57
493.79	10604.89
493.994	10412.39
494.197	10572.13
494.401	10608.99
494.605	10760.54
494.808	10789.21
495.012	10652
495.215	10930.52
495.419	10910.04
495.622	10832.22
495.825	10991.96
496.029	11282.77
496.232	11252.05
496.436	11266.39
496.639	11659.6
496.843	11540.82
497.046	11772.24
497.249	11675.98
497.453	12017.99
497.656	12104.01
497.859	12149.06
498.063	12028.23
498.266	12407.11
498.469	12177.73
498.673	12628.29
498.876	12708.16
499.079	12833.08
499.282	12732.73
499.485	13248.82
499.689	13289.78
499.892	13230.39
500.095	13347.12
500.298	13730.09
500.501	13504.82
500.705	13871.4
500.908	14139.69
501.111	14260.52
501.314	14211.37
501.517	14551.33
501.72	14637.34
501.923	14530.85
502.126	14971.16
502.329	15091.99
502.532	15452.44
502.735	15483.16
502.938	15728.91
503.141	15659.28
503.344	15952.14
503.547	16029.96
503.75	16195.85
503.953	16552.2
504.156	16593.15
504.359	16935.17
504.562	16808.19
504.765	17244.41
504.968	17418.49
505.17	17297.66
505.373	17553.65
505.576	17613.04
505.779	17942.77
505.982	18073.84
506.185	18258.15
506.387	18194.67
506.59	18622.69
506.793	19136.73
506.996	18925.79
507.198	19550.42
507.401	19468.5
507.604	19474.65
507.807	19757.27
508.009	20150.48
508.212	20173
508.415	20605.13
508.617	20662.47
508.82	20678.85
509.022	20555.97
509.225	21098.69
509.428	21614.77
509.63	21569.72
509.833	21852.34
510.035	22372.52
510.238	22173.87
510.44	22532.26
510.643	22841.51
510.845	22874.27
511.048	22616.23
511.25	23451.8
511.453	23459.99
511.655	24334.48
511.858	23720.09
512.06	24121.49
512.262	24373.39
512.465	24314
512.667	24823.94
512.87	24832.13
513.072	25176.19
513.274	25473.15
513.477	25581.69
513.679	25806.97
513.881	26345.58
514.084	26417.26
514.286	26359.92
514.488	26620.01
514.69	27408.48
514.893	27418.72
515.095	27459.68
515.297	27818.07
515.499	28139.6
515.701	28145.75
515.904	28473.42
516.106	28735.56
516.308	29003.85
516.51	29014.09
516.712	29458.49
516.914	29263.94
517.116	30142.52
517.318	29890.62
517.52	30154.8
517.722	30240.82
517.925	30617.64
518.127	31154.21
518.329	31377.44
518.531	31189.03
518.733	31721.5
518.935	32032.79
519.136	32069.65
519.338	32409.62
519.54	32454.67
519.742	32862.22
519.944	32890.89
520.146	33380.35
520.348	33241.09
520.55	33642.49
520.752	33683.45
520.954	34394.1
521.155	34047.99
521.357	34732.01
521.559	34772.97
521.761	35350.5
521.963	35307.49
522.164	35635.17
522.366	35694.56
522.568	36102.11
522.77	36171.74
522.971	36446.16
523.173	36270.04
523.375	36974.54
523.576	36667.34
523.778	36849.61
523.98	37291.97
524.181	37359.56
524.383	37386.18
524.584	38031.29
524.786	38318.01
524.988	37836.73
525.189	38295.48
525.391	38825.9
525.592	38539.19
525.794	39131.05
525.995	38690.74
526.197	38825.9
526.398	38682.55
526.6	39393.19
526.801	39622.56
527.003	39913.37
527.204	39784.35
527.406	39714.72
527.607	39950.24
527.808	40097.69
528.01	39464.87
528.211	40177.56
528.412	41142.16
528.614	40767.38
528.815	40619.92
529.016	40781.71
529.218	40734.61
529.419	40785.81
529.62	40798.1
529.822	40669.08
530.023	40925.07
530.224	40884.11
530.425	41103.24
530.626	40822.67
530.828	40685.46
531.029	41848.71
531.23	41185.16
531.431	41146.25
531.632	40916.88
531.833	41621.38
532.035	41326.47
532.236	41715.59
532.437	41701.25
532.638	41389.96
532.839	41504.65
533.04	41697.16
533.241	41506.69
533.442	42059.65
533.643	41619.33
533.844	41594.76
534.045	41752.45
534.246	41398.15
534.447	41832.32
534.648	41453.45
534.849	41686.92
535.05	41301.9
535.251	41809.79
535.451	41621.38
535.652	41899.9
535.853	41654.15
536.054	41910.14
536.255	41783.17
536.456	41312.14
536.657	42266.49
536.857	41805.7
537.058	41901.95
537.259	41609.09
537.46	41998.21
537.66	41346.95
537.861	41766.79
538.062	41279.37
538.263	41488.26
538.463	41463.69
538.664	41635.72
538.865	41607.05
539.065	41738.12
539.266	41236.36
539.466	41942.91
539.667	40880.02
539.868	41578.37
540.068	41543.56
540.269	41488.26
540.469	41891.71
540.67	41248.65
540.87	41299.85
541.071	41680.77
541.271	41543.56
541.472	41377.67
541.672	41539.46
541.873	41070.48
542.073	40769.43
542.274	41912.19
542.474	41545.61
542.675	41082.77
542.875	41471.88
543.075	41361.29
543.276	40587.16
543.476	41633.67
543.676	41181.07
543.877	41672.58
544.077	41389.96
544.277	40900.5
544.478	41105.29
544.678	41066.38
544.878	41351.05
545.078	41262.99
545.279	40894.35
545.479	40945.55
545.679	41107.34
545.879	41039.76
546.079	41439.11
546.28	41080.72
546.48	40619.92
546.68	41312.14
546.88	41410.44
547.08	40855.44
547.28	41125.77
547.48	40759.19
547.68	41090.96
547.88	40824.72
548.081	41113.48
548.281	40947.6
548.481	40632.21
548.681	41011.09
548.881	40980.37
549.081	40855.44
549.28	40705.94
549.48	40886.16
549.68	40931.22
549.88	41383.82
550.08	41029.52
550.28	40521.62
550.48	41095.05
550.68	40998.8
550.88	40875.92
551.08	40912.78
551.279	40796.05
551.479	40671.12
551.679	40845.2
551.879	40929.17
552.079	40908.69
552.278	40712.08
552.478	40800.15
552.678	40748.95
552.878	40945.55
553.077	40658.84
553.277	40316.82
553.477	41023.37
553.676	40677.27
553.876	40710.03
554.076	40296.35
554.275	40755.09
554.475	40107.93
554.674	40673.17
554.874	40642.45
555.074	40404.89
555.273	40740.75
555.473	40159.13
555.672	40013.73
555.872	39923.61
556.071	40314.78
556.271	40286.11
556.47	40124.32
556.67	39980.96
556.869	40161.18
557.068	39923.61
557.268	40353.69
557.467	40224.67
557.667	39817.12
557.866	40028.06
558.065	39978.91
558.265	39684
558.464	39890.85
558.663	39919.52
558.863	39440.29
559.062	40220.57
559.261	39227.31
559.461	40124.32
559.66	39110.57
559.859	39786.4
560.058	39409.57
560.258	39647.14
560.457	39055.28
560.656	39415.72
560.855	39153.58
561.054	39344.04
561.253	39419.81
561.453	39227.31
561.652	39139.24
561.851	39460.77
562.05	38827.95
562.249	38657.97
562.448	38881.2
562.647	39278.5
562.846	38975.41
563.045	39038.89
563.244	38496.18
563.443	38881.2
563.642	38672.31
563.841	38465.46
564.04	38262.71
564.239	38805.42
564.438	38397.88
564.637	38780.85
564.836	38340.53
565.035	38199.23
565.234	38074.3
565.432	37896.13
565.631	38313.91
565.83	38363.06
566.029	37924.8
566.228	37842.88
566.427	38084.54
566.625	37879.74
566.824	37636.03
567.023	37771.2
567.222	37179.34
567.42	37685.18
567.619	37500.87
567.818	37521.35
568.016	36894.67
568.215	37461.96
568.414	36739.02
568.612	37642.18
568.811	36882.38
569.01	37054.41
569.208	36407.25
569.407	37121.99
569.605	36130.78
569.804	37109.71
570.002	36446.16
570.201	36710.35
570.4	36231.13
570.598	36034.52
570.797	36075.48
570.995	36380.63
571.193	35794.91
571.392	36282.33
571.59	35907.55
571.789	35649.5
571.987	35692.51
572.186	35882.97
572.384	35426.28
572.582	35772.38
572.781	35715.04
572.979	35121.13
573.177	35512.29
573.376	35438.56
573.574	35225.57
573.772	35444.71
573.971	35106.79
574.169	34981.87
574.367	34811.88
574.565	35082.22
574.763	34795.5
574.962	34633.71
575.16	34727.92
575.358	34709.49
575.556	34332.66
575.754	34881.52
575.952	34193.4
576.151	34469.87
576.349	34240.5
576.547	34238.45
576.745	34181.11
576.943	34349.04
577.141	33972.22
577.339	34080.76
577.537	33718.27
577.735	33648.64
577.933	33509.38
578.131	33507.33
578.329	33384.45
578.527	33148.93
578.725	33206.28
578.923	33347.59
579.121	33316.87
579.319	32897.03
579.516	33386.5
579.714	32884.75
579.912	32847.88
580.11	32872.46
580.308	32964.62
580.506	32735.24
580.704	32346.13
580.901	32626.7
581.099	32796.68
581.297	32170.01
581.495	32307.22
581.692	32124.95
581.89	31821.85
582.088	32444.43
582.285	31707.16
582.483	32337.94
582.681	32133.14
582.878	31836.19
583.076	31279.14
583.274	31799.32
583.471	31291.43
583.669	31555.61
583.866	31522.85
584.064	31098.92
584.262	31168.55
584.459	31129.64
584.657	30930.98
584.854	30928.94
585.052	30355.5
585.249	30808.11
585.447	31080.49
585.644	30435.38
585.841	30548.01
586.039	30982.18
586.236	30478.38
586.434	30572.59
586.631	30103.6
586.828	30244.91
587.026	30136.37
587.223	30203.96
587.42	30173.24
587.618	30203.96
587.815	29720.63
588.012	29577.28
588.21	29599.8
588.407	29876.28
588.604	29280.32
588.801	29608
588.999	29304.9
589.196	29227.07
589.393	29417.54
589.59	29143.11
589.787	29247.55
589.984	28952.65
590.182	28780.62
590.379	28864.58
590.576	28612.68
590.773	28688.46
590.97	28530.76
591.167	28737.61
591.364	28260.43
591.561	28487.76
591.758	27971.67
591.955	27899.99
592.152	28309.58
592.349	28059.73
592.546	28078.16
592.743	27959.38
592.94	27768.92
593.137	27744.34
593.334	27789.4
593.531	27314.27
593.727	27705.43
593.924	27693.15
594.121	27533.4
594.318	27297.89
594.515	27213.92
594.712	27422.81
594.908	27228.26
595.105	27177.06
595.302	26767.46
595.499	26906.73
595.696	26957.92
595.892	26558.57
596.089	26863.72
596.286	26394.73
596.482	26591.34
596.679	26579.05
596.876	26652.78
597.072	26280.05
597.269	26290.29
597.466	25884.79
597.662	26046.58
597.859	26224.75
598.055	26177.65
598.252	25731.19
598.448	25860.21
598.645	25604.22
598.841	25538.68
599.038	25516.15
599.234	25690.23
599.431	25215.1
599.627	25196.67
599.824	25606.27
600.02	25284.73
600.217	25145.47
600.413	25141.38
600.609	24905.86
600.806	24866.95
601.002	25163.9
601.198	24998.02
601.395	24588.42
601.591	24565.9
601.787	24303.76
601.984	24524.94
602.18	24426.64
602.376	24590.47
602.572	24283.28
602.769	24381.58
602.965	23865.49
603.161	24131.73
603.357	23914.64
603.553	24101.01
603.75	23806.1
603.946	23607.45
604.142	23890.07
604.338	23738.52
604.534	23795.86
604.73	23449.75
604.926	23423.13
605.122	23679.13
605.318	23099.55
605.514	22847.65
605.71	23070.88
605.906	23128.22
606.102	22995.11
606.298	23271.58
606.494	22888.61
606.69	22864.04
606.886	23271.58
607.082	22675.62
607.278	23201.95
607.474	22661.29
607.67	22749.35
607.866	22358.19
608.062	22931.62
608.257	22524.07
608.453	22446.25
608.649	22665.38
608.845	22202.54
609.041	22255.79
609.236	22261.93
609.432	22116.53
609.628	22335.66
609.824	22368.43
610.019	22149.29
610.215	22282.41
610.411	22073.52
610.606	22083.76
610.802	21952.69
610.998	21936.31
611.193	21924.02
611.389	21504.18
611.584	21905.59
611.78	21676.21
611.976	21360.83
612.171	21586.1
612.367	21577.91
612.562	21469.37
612.758	21180.6
612.953	21377.21
613.149	21663.93
613.344	21145.79
613.539	21754.04
613.735	21256.38
613.93	21618.87
614.126	21135.55
614.321	21196.99
614.517	21201.08
614.712	21190.84
614.907	20943.04
615.103	21045.44
615.298	21162.17
615.493	21037.25
615.688	20861.12
615.884	21422.27
616.079	20644.04
616.274	20973.76
616.47	20887.75
616.665	20914.37
616.86	20664.52
617.055	20611.27
617.25	20707.52
617.445	20768.96
617.641	20680.9
617.836	20576.45
618.031	20449.48
618.226	20736.2
618.421	20365.51
618.616	20299.98
618.811	20111.57
619.006	20367.56
619.201	19548.37
619.396	20043.98
619.591	19491.03
619.786	20183.24
619.981	19413.21
620.176	20013.26
620.371	19374.3
620.566	19515.61
620.761	19548.37
620.956	19302.62
621.151	18940.13
621.346	19339.48
621.541	18893.02
621.735	19038.43
621.93	18966.75
622.125	18794.72
622.32	18292.97
622.515	18741.47
622.709	18524.39
622.904	18747.62
623.099	18471.14
623.294	18426.09
623.488	18198.76
623.683	18432.23
623.878	17832.18
624.072	18002.16
624.267	17920.24
624.462	17754.35
624.656	17889.52
624.851	17662.19
625.046	17438.97
625.24	17221.88
625.435	17121.53
625.629	17295.61
625.824	17160.44
626.018	17017.08
626.213	16601.35
626.407	16976.12
626.602	16775.42
626.796	16767.23
626.991	16718.08
627.185	16185.61
627.38	16451.84
627.574	16120.07
627.768	15976.72
627.963	16115.98
628.157	16019.72
628.352	16044.3
628.546	15685.9
628.74	15810.83
628.935	15745.3
629.129	15757.58
629.323	15386.9
629.517	15479.06
629.712	15325.46
629.906	15382.81
630.1	15122.71
630.294	15370.52
630.489	14895.39
630.683	14907.68
630.877	14760.22
631.071	14698.78
631.265	14971.16
631.459	14762.27
631.653	14635.3
631.848	14510.37
632.042	14328.1
632.236	14407.97
632.43	14168.36
632.624	14203.18
632.818	14358.82
633.012	14018.86
633.206	13936.94
633.4	14205.22
633.594	14074.15
633.788	13904.17
633.982	13855.02
634.176	13783.34
634.369	13410.61
634.563	13281.59
634.757	13482.29
634.951	13427
635.145	13363.51
635.339	13396.28
635.533	13484.34
635.726	13367.6
635.92	12937.53
636.114	13027.64
636.308	13021.5
636.501	12874.04
636.695	12876.09
636.889	12831.04
637.083	12699.97
637.276	12845.37
637.47	12726.59
637.664	12585.28
637.857	12452.16
638.051	12650.81
638.244	12437.83
638.438	12202.31
638.632	12216.65
638.825	12042.57
639.019	11997.51
639.212	12163.4
639.406	12030.28
639.599	11895.11
639.793	11749.71
639.986	11749.71
640.18	11708.75
640.373	11721.04
640.567	11618.64
640.76	11366.74
640.954	11489.62
641.147	11286.87
641.34	11352.4
641.534	11356.5
641.727	11340.11
641.92	11250
642.114	11131.22
642.307	11077.97
642.5	11000.15
642.694	10754.4
642.887	10889.56
643.08	10979.67
643.273	10582.37
643.467	10819.93
643.66	10563.93
643.853	10459.49
644.046	10494.3
644.239	10572.13
644.432	10404.19
644.626	10234.21
644.819	10260.84
645.012	10172.77
645.205	10381.67
645.398	9967.98
645.591	10160.48
645.784	10160.48
645.977	9810.28
646.17	9939.3
646.363	9677.16
646.556	9824.62
646.749	9797.99
646.942	9861.48
647.135	9664.88
647.328	9648.49
647.521	9554.29
647.714	9658.73
647.907	9425.26
648.099	9464.18
648.292	9384.3
648.485	9357.68
648.678	9341.3
648.871	9253.23
649.064	9234.8
649.256	9376.11
649.449	9161.08
649.642	9224.56
649.835	9056.63
650.027	8831.35
650.22	8831.35
650.413	8825.21
650.605	8882.55
650.798	8886.65
650.991	8731
651.183	8520.06
651.376	8679.8
651.568	8612.22
651.761	8432
651.954	8614.27
652.146	8415.62
652.339	8503.68
652.531	8157.57
652.724	8352.13
652.916	8251.78
653.109	8153.48
653.301	8190.34
653.494	8380.8
653.686	8241.54
653.879	8221.06
654.071	8032.65
654.263	8124.8
654.456	7954.82
654.648	7995.78
654.84	7807.37
655.033	7623.05
655.225	7702.92
655.417	7680.39
655.61	7825.8
655.802	7846.28
655.994	7635.34
656.186	7735.69
656.379	7735.69
656.571	7559.56
656.763	7467.41
656.955	7299.47
657.148	7446.93
657.34	7315.86
657.532	7367.06
657.724	7059.86
657.916	7260.56
658.108	7229.84
658.3	7246.23
658.492	7231.89
658.684	7149.97
658.876	7023
659.068	6934.93
659.26	7053.72
659.452	6947.22
659.644	6850.97
659.836	6957.46
660.028	7023
660.22	6857.11
660.412	6906.26
660.604	6588.83
660.796	6732.19
660.988	6711.71
661.18	6601.12
661.372	6760.86
661.563	6773.14
661.755	6369.69
661.947	6760.86
662.139	6312.35
662.331	6431.13
662.522	6379.93
662.714	6336.93
662.906	6353.31
663.097	6312.35
663.289	6308.26
663.481	6322.59
663.673	6418.85
663.864	6146.47
664.056	6064.55
664.247	6097.31
664.439	6011.3
664.631	6089.12
664.822	6087.08
665.014	6261.15
665.205	6058.4
665.397	5937.57
665.588	6037.92
665.78	5996.96
665.971	5976.48
666.163	5878.18
666.354	5851.56
666.546	5798.31
666.737	5786.02
666.929	5712.3
667.12	5755.3
667.311	5831.08
667.503	5644.71
667.694	5681.58
667.885	5693.87
668.077	5697.96
668.268	5605.8
668.459	5648.81
668.651	5560.75
668.842	5484.97
669.033	5374.38
669.224	5466.54
669.416	5464.49
669.607	5351.85
669.798	5269.94
669.989	5441.96
670.18	5339.57
670.371	5343.66
670.563	5358
670.754	5417.39
670.945	5136.82
671.136	5165.49
671.327	5188.02
671.518	5044.66
671.709	5200.3
671.9	5200.3
672.091	5106.1
672.282	4968.88
672.473	4872.63
672.664	4979.12
672.855	4825.53
673.046	4983.22
673.237	5073.33
673.428	4929.97
673.619	4936.12
673.809	4901.3
674	4872.63
674.191	4784.57
674.382	4962.74
674.573	4774.33
674.764	4843.96
674.954	4864.44
675.145	4753.85
675.336	4823.48
675.527	4803
675.717	4729.27
675.908	4729.27
676.099	4714.94
676.289	4710.84
676.48	4598.2
676.671	4778.42
676.861	4667.83
677.052	4655.54
677.243	4583.87
677.433	4516.28
677.624	4688.31
677.814	4633.02
678.005	4518.33
678.195	4551.1
678.386	4477.37
678.576	4362.69
678.767	4495.8
678.957	4516.28
679.148	4542.91
679.338	4510.14
679.529	4432.32
679.719	4485.56
679.909	4538.81
680.1	4479.42
680.29	4538.81
680.481	4325.82
680.671	4493.76
680.861	4397.5
681.052	4354.49
681.242	4428.22
681.432	4436.41
681.622	4344.25
681.813	4403.64
682.003	4307.39
682.193	4248
682.383	4147.65
682.573	4204.99
682.764	4342.21
682.954	4301.25
683.144	4159.94
683.334	4213.18
683.524	4243.9
683.714	4166.08
683.904	4286.91
684.094	4190.66
684.284	4215.23
684.474	4303.29
684.664	4155.84
684.854	4053.44
685.044	4018.63
685.234	4110.79
685.424	4049.35
685.614	4024.77
685.804	4129.22
685.994	4147.65
686.184	4024.77
686.374	4010.43
686.564	4053.44
686.753	4008.39
686.943	3860.93
687.133	3905.99
687.323	3928.52
687.513	3934.66
687.702	3824.07
687.892	3846.6
688.082	3903.94
688.272	3805.64
688.461	3873.22
688.651	3791.3
688.841	3887.56
689.03	3748.29
689.22	3672.52
689.41	3781.06
689.599	3699.14
689.789	3688.9
689.979	3697.1
690.168	3744.2
690.358	3527.11
690.547	3584.46
690.737	3676.62
690.926	3451.34
691.116	3525.07
691.305	3637.7
691.495	3656.14
691.684	3480.01
691.874	3473.87
692.063	3545.55
692.252	3404.24
692.442	3566.03
692.631	3533.26
692.82	3506.63
693.01	3459.53
693.199	3377.61
693.388	3443.15
693.578	3459.53
693.767	3369.42
693.956	3334.61
694.146	3344.84
694.335	3328.46
694.524	3394
694.713	3428.81
694.902	3291.6
695.092	3236.3
695.281	3316.17
695.47	3117.52
695.659	3312.08
695.848	3262.93
696.037	3150.29
696.226	3295.69
696.415	3238.35
696.604	3203.54
696.793	3230.16
696.982	3062.23
697.171	3248.59
697.36	3154.38
697.549	3142.1
697.738	3107.28
697.927	3109.33
698.116	3090.9
698.305	3092.94
698.494	3185.1
698.683	3041.75
698.872	3199.44
699.061	3015.12
699.25	3078.61
699.438	3115.47
699.627	3086.8
699.816	3123.66
700.005	3086.8
700.193	3000.79
700.382	3142.1
700.571	2951.63
700.76	2953.68
700.948	3224.01
701.137	3013.07
701.326	3131.86
701.514	2945.49
701.703	2892.24
701.892	2992.59
702.08	2982.35
702.269	3070.42
702.457	2986.45
702.646	2886.1
702.834	2824.66
703.023	3060.18
703.212	2996.69
703.4	2916.82
703.589	2875.86
703.777	2955.73
703.965	2738.65
704.154	2978.26
704.342	2849.24
704.531	3037.65
704.719	2779.61
704.907	2937.3
705.096	2761.17
705.284	2746.84
705.472	2896.34
705.661	2755.03
705.849	2972.11
706.037	2896.34
706.226	2834.9
706.414	2843.09
706.602	2931.16
706.79	2904.53
706.979	2865.62
707.167	2968.02
707.355	2922.96
707.543	2900.44
707.731	2877.91
707.919	2818.52
708.107	2812.37
708.296	2929.11
708.484	2716.12
708.672	2812.37
708.86	2836.95
709.048	2675.16
709.236	2742.74
709.424	2806.23
709.612	2843.09
709.8	2765.27
709.988	2861.52
710.176	2855.38
710.364	2640.34
710.551	2714.07
710.739	2783.7
710.927	2755.03
711.115	2795.99
711.303	2808.28
711.491	2746.84
711.679	2783.7
711.866	2742.74
712.054	2859.48
712.242	2820.56
712.43	2691.54
712.617	2726.36
712.805	2689.49
712.993	2626.01
713.181	2601.43
713.368	2750.93
713.556	2781.65
713.744	2705.88
713.931	2640.34
714.119	2779.61
714.306	2849.24
714.494	2736.6
714.682	2652.63
714.869	2656.73
715.057	2632.15
715.244	2646.49
715.432	2701.78
715.619	2564.57
715.807	2599.38
715.994	2666.97
716.182	2693.59
716.369	2689.49
716.556	2689.49
716.744	2673.11
716.931	2681.3
717.119	2652.63
717.306	2638.3
717.493	2750.93
717.681	2523.61
717.868	2675.16
718.055	2664.92
718.242	2638.3
718.43	2523.61
718.617	2566.62
718.804	2587.1
718.991	2589.14
719.179	2587.1
719.366	2585.05
719.553	2585.05
719.74	2550.23
719.927	2566.62
720.114	2636.25
720.301	2558.42
720.488	2544.09
720.676	2509.27
720.863	2544.09
721.05	2533.85
721.237	2554.33
721.424	2583
721.611	2646.49
721.798	2509.27
721.985	2542.04
722.172	2494.94
722.358	2443.74
722.545	2609.62
722.732	2460.12
722.919	2591.19
723.106	2558.42
723.293	2503.13
723.48	2558.42
723.667	2509.27
723.853	2460.12
724.04	2572.76
724.227	2509.27
724.414	2476.51
724.6	2370.01
724.787	2601.43
724.974	2476.51
725.161	2552.28
725.347	2507.23
725.534	2558.42
725.72	2488.79
725.907	2544.09
726.094	2601.43
726.28	2505.18
726.467	2443.74
726.653	2419.16
726.84	2593.24
727.027	2591.19
727.213	2404.83
727.4	2521.56
727.586	2492.89
727.773	2478.55
727.959	2468.31
728.145	2415.07
728.332	2398.68
728.518	2421.21
728.705	2496.99
728.891	2456.03
729.077	2410.97
729.264	2437.59
729.45	2380.25
729.636	2664.92
729.823	2419.16
730.009	2501.08
730.195	2429.4
730.382	2435.55
730.568	2468.31
730.754	2353.63
730.94	2345.44
731.126	2511.32
731.313	2345.44
731.499	2449.88
731.685	2402.78
731.871	2556.38
732.057	2327
732.243	2492.89
732.429	2462.17
732.615	2453.98
732.801	2404.83
732.987	2365.92
733.173	2402.78
733.359	2404.83
733.545	2410.97
733.731	2433.5
733.917	2314.72
734.103	2525.66
734.289	2511.32
734.475	2435.55
734.661	2464.22
734.847	2419.16
735.033	2410.97
735.219	2308.57
735.404	2353.63
735.59	2224.61
735.776	2359.77
735.962	2337.24
736.148	2398.68
736.333	2402.78
736.519	2140.64
736.705	2314.72
736.89	2351.58
737.076	2290.14
737.262	2257.37
737.447	2290.14
737.633	2380.25
737.819	2363.87
738.004	2355.68
738.19	2234.85
738.375	2214.37
738.561	2343.39
738.747	2290.14
738.932	2202.08
739.118	2441.69
739.303	2324.96
739.489	2312.67
739.674	2314.72
739.859	2316.76
740.045	2476.51
740.23	2240.99
740.416	2138.59
740.601	2273.76
740.786	2271.71
740.972	2202.08
741.157	2320.86
741.342	2222.56
741.528	2222.56
741.713	2216.41
741.898	2185.69
742.084	2310.62
742.269	2144.74
742.454	2206.17
742.639	2200.03
742.824	2126.3
743.01	2216.41
743.195	2249.18
743.38	2140.64
743.565	2230.75
743.75	2118.11
743.935	2181.6
744.12	2077.15
744.305	2109.92
744.49	2009.57
744.675	2087.39
744.86	1989.09
745.045	1905.12
745.23	1972.71
745.415	2005.47
745.6	2017.76
745.785	1991.14
745.97	1954.27
746.155	1956.32
746.34	1948.13
746.525	1872.36
746.71	1974.75
746.895	1862.12
747.079	1886.69
747.264	1917.41
747.449	1896.93
747.634	1888.74
747.819	1919.46
748.003	1864.16
748.188	1870.31
748.373	1915.36
748.557	1794.53
748.742	1782.24
748.927	1878.5
749.111	1761.77
749.296	1722.85
749.481	1886.69
749.665	1782.24
749.85	1726.95
750.034	1706.47
750.219	1722.85
750.404	1739.24
750.588	1722.85
750.773	1765.86
750.957	1724.9
751.141	1591.78
751.326	1657.32
751.51	1628.65
751.695	1624.55
751.879	1649.13
752.064	1653.22
752.248	1655.27
752.432	1632.74
752.617	1624.55
752.801	1618.41
752.985	1661.41
753.17	1468.91
753.354	1628.65
753.538	1485.29
753.722	1491.43
753.907	1483.24
754.091	1411.56
754.275	1411.56
754.459	1395.18
754.643	1497.58
754.828	1473
755.012	1491.43
755.196	1432.04
755.38	1536.49
755.564	1337.84
755.748	1378.79
755.932	1417.71
756.116	1354.22
756.3	1346.03
756.484	1339.88
756.668	1356.27
756.852	1356.27
757.036	1313.26
757.22	1425.9
757.404	1411.56
757.588	1225.2
757.772	1339.88
757.956	1358.32
758.14	1253.87
758.323	1282.54
758.507	1235.44
758.691	1143.28
758.875	1266.16
759.059	1231.34
759.242	1296.88
759.426	1241.58
759.61	1257.96
759.794	1292.78
759.977	1161.71
760.161	1253.87
760.345	1225.2
760.528	1202.67
760.712	1137.13
760.895	1165.81
761.079	1176.05
761.263	1069.55
761.446	1231.34
761.63	1153.52
761.813	1157.61
761.997	1182.19
762.18	1094.13
762.364	1149.42
762.547	1079.79
762.731	999.92
762.914	1151.47
763.098	1067.5
763.281	1192.43
763.464	1059.31
763.648	1004.02
763.831	1083.89
764.015	1034.74
764.198	1059.31
764.381	1067.5
764.564	1063.41
764.748	987.63
764.931	1034.74
765.114	1004.02
765.297	1090.03
765.481	1112.56
765.664	1071.6
765.847	977.39
766.03	989.68
766.213	887.28
766.397	1051.12
766.58	936.43
766.763	995.82
766.946	1026.54
767.129	1026.54
767.312	932.34
767.495	930.29
767.678	979.44
767.861	1036.78
768.044	938.48
768.227	895.47
768.41	881.14
768.593	993.78
768.776	1001.97
768.959	782.84
769.142	995.82
769.324	952.82
769.507	909.81
769.69	948.72
769.873	981.49
770.056	979.44
770.239	897.52
770.421	813.56
770.604	930.29
770.787	889.33
770.97	862.71
771.152	860.66
771.335	872.95
771.518	987.63
771.7	872.95
771.883	879.09
772.066	864.75
772.248	836.08
772.431	897.52
772.613	807.41
772.796	885.23
772.978	772.6
773.161	897.52
773.343	791.03
773.526	731.64
773.708	797.17
773.891	782.84
774.073	819.7
774.256	688.63
774.438	838.13
774.621	874.99
774.803	760.31
774.985	786.93
775.168	731.64
775.35	737.78
775.532	748.02
775.715	774.64
775.897	715.25
776.079	705.01
776.261	768.5
776.444	688.63
776.626	641.53
776.808	764.4
776.99	619
777.173	690.68
777.355	682.49
777.537	696.82
777.719	551.42
777.901	649.72
778.083	666.1
778.265	616.95
778.447	682.49
778.629	633.33
778.811	637.43
778.993	676.34
779.175	676.34
779.357	670.2
779.539	649.72
779.721	575.99
779.903	608.76
780.085	702.97
780.267	633.33
780.449	530.94
780.631	594.42
780.812	668.15
780.994	580.09
781.176	545.27
781.358	625.14
781.54	586.23
781.721	530.94
781.903	567.8
782.085	487.93
782.267	573.94
782.448	508.41
782.63	545.27
782.812	575.99
782.993	594.42
783.175	453.11
783.357	440.83
783.538	477.69
783.72	469.5
783.901	520.7
784.083	506.36
784.264	510.46
784.446	436.73
784.627	426.49
784.809	541.18
784.99	463.35
785.172	397.82
785.353	428.54
785.535	506.36
785.716	512.5
785.897	395.77
786.079	444.92
786.26	524.79
786.441	383.48
786.623	436.73
786.804	332.28
786.985	406.01
787.167	514.55
787.348	346.62
787.529	453.11
787.71	469.5
787.891	436.73
788.073	406.01
788.254	459.26
788.435	485.88
788.616	463.35
788.797	399.87
788.978	352.76
789.159	477.69
789.34	383.48
789.522	395.77
789.703	356.86
789.884	418.3
790.065	408.06
790.246	430.59
790.427	416.25
790.607	363
790.788	340.47
790.969	383.48
791.15	426.49
791.331	387.58
791.512	322.04
791.693	383.48
791.874	342.52
792.054	309.76
792.235	379.39
792.416	322.04
792.597	420.35
792.778	307.71
792.958	330.23
793.139	438.78
793.32	338.43
793.5	320
793.681	289.28
793.862	332.28
794.042	281.08
794.223	281.08
794.404	358.91
794.584	283.13
794.765	297.47
794.945	305.66
795.126	340.47
795.306	313.85
795.487	354.81
795.667	276.99
795.848	317.95
796.028	346.62
796.209	281.08
796.389	268.8
796.57	299.52
796.75	260.6
796.93	207.36
797.111	285.18
797.291	248.32
797.471	330.23
797.652	217.6
797.832	248.32
798.012	330.23
798.192	225.79
798.373	272.89
798.553	176.64
798.733	305.66
798.913	231.93
799.093	227.84
799.274	293.37
799.454	281.08
799.634	195.07
799.814	223.74
799.994	219.64
800.174	317.95
800.354	209.4
800.534	223.74
800.714	291.32
800.894	207.36
801.074	223.74
801.254	231.93
801.434	233.98
801.614	291.32
801.794	274.94
801.974	743.92
802.154	248.32
802.334	174.59
802.514	264.7
802.693	184.83
802.873	262.65
803.053	293.37
803.233	219.64
803.413	215.55
803.592	242.17
803.772	182.78
803.952	215.55
804.131	207.36
804.311	213.5
804.491	244.22
804.67	190.97
804.85	145.92
805.03	184.83
805.209	246.27
805.389	219.64
805.568	215.55
805.748	266.75
805.928	166.4
806.107	203.26
806.287	182.78
806.466	109.05
806.646	184.83
806.825	152.06
807.004	174.59
807.184	143.87
807.363	268.8
807.543	203.26
807.722	176.64
807.901	203.26
808.081	186.88
808.26	117.25
808.439	236.03
808.619	166.4
808.798	174.59
808.977	215.55
809.156	242.17
809.336	172.54
809.515	207.36
809.694	119.29
809.873	236.03
810.052	240.12
810.231	223.74
810.411	207.36
810.59	223.74
810.769	125.44
810.948	150.01
811.127	158.21
811.306	258.56
811.485	174.59
811.664	246.27
811.843	190.97
812.022	174.59
812.201	154.11
812.38	100.86
812.559	166.4
812.737	190.97
812.916	158.21
813.095	147.97
813.274	100.86
813.453	193.02
813.632	182.78
813.811	178.69
813.989	143.87
814.168	145.92
814.347	182.78
814.526	119.29
814.704	186.88
814.883	258.56
815.062	150.01
815.24	190.97
815.419	68.09
815.598	168.45
815.776	133.63
815.955	172.54
816.133	55.81
816.312	80.38
816.49	82.43
816.669	119.29
816.847	141.82
817.026	168.45
817.204	209.4
817.383	129.53
817.561	158.21
817.74	166.4
817.918	100.86
818.097	92.67
818.275	182.78
818.453	107.01
818.632	111.1
818.81	100.86
818.988	123.39
819.167	152.06
819.345	156.16
819.523	86.53
819.701	109.05
819.879	125.44
820.058	109.05
820.236	199.16
820.414	51.71
820.592	61.95
820.77	113.15
820.948	96.77
821.127	117.25
821.305	76.29
821.483	111.1
821.661	195.07
821.839	68.09
822.017	176.64
822.195	68.09
822.373	125.44
822.551	84.48
822.729	143.87
822.907	135.68
823.085	109.05
823.262	129.53
823.44	113.15
823.618	55.81
823.796	68.09
823.974	111.1
824.152	172.54
824.329	109.05
824.507	166.4
824.685	72.19
824.863	150.01
825.04	121.34
825.218	88.57
825.396	131.58
825.574	100.86
825.751	43.52
825.929	100.86
826.107	70.14
826.284	147.97
826.462	104.96
826.639	100.86
826.817	51.71
826.994	74.24
827.172	125.44
827.349	84.48
827.527	182.78
827.704	68.09
827.882	86.53
828.059	88.57
828.237	8.7
828.414	117.25
828.591	82.43
828.769	137.73
828.946	113.15
829.124	66.05
829.301	12.8
829.478	70.14
829.655	84.48
829.833	182.78
830.01	109.05
830.187	78.33
830.364	88.57
830.542	135.68
830.719	156.16
830.896	147.97
831.073	102.91
831.25	86.53
831.427	100.86
831.604	68.09
831.782	76.29
831.959	152.06
832.136	80.38
832.313	43.52
832.49	61.95
832.667	104.96
832.844	80.38
833.021	100.86
833.198	90.62
833.374	-3.58
833.551	51.71
833.728	64
833.905	102.91
834.082	84.48
834.259	94.72
834.436	117.25
834.612	45.57
834.789	72.19
834.966	92.67
835.143	43.52
835.319	84.48
835.496	104.96
835.673	29.18
835.85	125.44
836.026	100.86
836.203	117.25
836.38	100.86
836.556	74.24
836.733	127.49
836.909	31.23
837.086	18.94
837.262	68.09
837.439	43.52
837.616	84.48
837.792	64
837.968	39.42
838.145	33.28
838.321	51.71
838.498	59.9
838.674	82.43
838.851	10.75
839.027	61.95
839.203	51.71
839.38	51.71
839.556	78.33
839.732	109.05
839.909	109.05
840.085	18.94
840.261	31.23
840.437	51.71
840.614	49.66
840.79	107.01
840.966	35.33
841.142	55.81
841.318	55.81
841.494	29.18
841.671	109.05
841.847	90.62
842.023	-9.73
842.199	111.1
842.375	92.67
842.551	27.14
842.727	39.42
842.903	55.81
843.079	29.18
843.255	53.76
843.431	84.48
843.607	-38.4
843.783	25.09
843.959	104.96
844.134	55.81
844.31	88.57
844.486	35.33
844.662	35.33
844.838	86.53
845.013	41.47
845.189	100.86
845.365	39.42
845.541	82.43
845.716	80.38
845.892	76.29
846.068	27.14
846.244	14.85
846.419	78.33
846.595	14.85
846.77	-50.69
846.946	96.77
847.122	39.42
847.297	107.01
847.473	-22.02
847.648	0.51
847.824	100.86
847.999	12.8
848.175	-52.74
848.35	68.09
848.526	49.66
848.701	29.18
848.876	35.33
849.052	2.56
849.227	109.05
849.403	31.23
849.578	51.71
849.753	76.29
849.929	-1.54
850.104	61.95
850.279	59.9
850.454	31.23
850.63	43.52
850.805	43.52
850.98	61.95
851.155	18.94
851.33	90.62
851.505	31.23
851.681	59.9
851.856	27.14
852.031	-17.92
852.206	10.75
852.381	59.9
852.556	33.28
852.731	45.57
852.906	88.57
853.081	66.05
853.256	8.7
853.431	-17.92
853.606	-15.87
853.781	12.8
853.956	4.61
854.131	8.7
854.305	43.52
854.48	-11.78
854.655	23.04
854.83	-1.54
855.005	47.62
855.18	47.62
855.354	-1.54
855.529	-3.58
855.704	-28.16
855.879	16.9
856.053	-28.16
856.228	37.38
856.403	-1.54
856.577	125.44
856.752	-17.92
856.926	14.85
857.101	6.66
857.276	20.99
857.45	94.72
857.625	82.43
857.799	59.9
857.974	-9.73
858.148	-5.63
858.323	20.99
858.497	20.99
858.672	18.94
858.846	68.09
859.02	78.33
859.195	57.86
859.369	61.95
859.543	10.75
859.718	51.71
859.892	-7.68
860.066	31.23
860.241	-1.54
860.415	-22.02
860.589	4.61
860.763	59.9
860.938	2.56
861.112	72.19
861.286	47.62
861.46	59.9
861.634	2.56
861.808	131.58
861.982	115.2
862.157	35.33
862.331	33.28
862.505	-62.98
862.679	45.57
862.853	64
863.027	-42.5
863.201	33.28
863.375	-5.63
863.549	-3.58
863.722	37.38
863.896	6.66
864.07	-28.16
864.244	-9.73
864.418	29.18
864.592	78.33
864.766	14.85
864.939	23.04
865.113	-40.45
865.287	45.57
865.461	94.72
865.634	47.62
865.808	80.38
865.982	-40.45
866.156	-9.73
866.329	47.62
866.503	-34.3
866.676	37.38
866.85	72.19
867.024	20.99
867.197	4.61
867.371	6.66
867.544	-46.59
867.718	-9.73
867.891	59.9
868.065	-58.88
868.238	12.8
868.412	51.71
868.585	23.04
868.759	61.95
868.932	-5.63
869.105	-60.93
869.279	82.43
869.452	16.9
869.625	33.28
869.799	-32.26
869.972	-3.58
870.145	-3.58
870.319	76.29
870.492	29.18
870.665	2.56
870.838	-22.02
871.011	27.14
871.185	18.94
871.358	70.14
871.531	55.81
871.704	-30.21
871.877	18.94
872.05	-9.73
872.223	-79.36
872.396	20.99
872.569	53.76
872.742	-9.73
872.915	-30.21
873.088	43.52
873.261	16.9
873.434	61.95
873.607	41.47
873.78	72.19
873.953	-71.17
874.126	39.42
874.299	35.33
874.471	16.9
874.644	35.33
874.817	18.94
874.99	53.76
875.163	29.18
875.335	41.47
875.508	-62.98
875.681	25.09
875.853	-34.3
876.026	70.14
876.199	55.81
876.371	-13.82
876.544	55.81
876.717	31.23
876.889	96.77
877.062	51.71
877.234	-1.54
877.407	41.47
877.579	-32.26
877.752	27.14
877.924	12.8
878.097	47.62
878.269	23.04
878.442	70.14
878.614	33.28
878.786	51.71
878.959	4.61
879.131	2.56
879.303	18.94
879.476	-3.58
879.648	18.94
879.82	76.29
879.993	27.14
880.165	59.9
880.337	-62.98
880.509	12.8
880.681	-28.16
880.854	-9.73
881.026	12.8
881.198	27.14
881.37	33.28
881.542	27.14
881.714	39.42
881.886	23.04
882.058	-30.21
882.23	4.61
882.402	-9.73
882.574	-19.97
882.746	12.8
882.918	57.86
883.09	35.33
883.262	10.75
883.434	16.9
883.606	-62.98
883.778	-77.31
883.95	80.38
884.122	39.42
884.293	59.9
884.465	66.05
884.637	-11.78
884.809	12.8
884.98	37.38
885.152	-7.68
885.324	92.67
885.496	23.04
885.667	10.75
885.839	16.9
886.011	72.19
886.182	47.62
886.354	76.29
886.525	-26.11
886.697	-1.54
886.869	-5.63
887.04	27.14
887.212	90.62
887.383	-28.16
887.555	-28.16
887.726	57.86
887.897	14.85
888.069	80.38
888.24	55.81
888.412	2.56
888.583	-19.97
888.754	6.66
888.926	18.94
889.097	-30.21
889.268	-9.73
889.44	-3.58
889.611	31.23
889.782	-3.58
889.953	-17.92
890.125	-15.87
890.296	12.8
890.467	6.66
890.638	-30.21
890.809	-87.55
890.98	-13.82
891.151	88.57
891.323	-30.21
891.494	-30.21
891.665	31.23
891.836	-17.92
892.007	20.99
892.178	27.14
892.349	14.85
892.52	-46.59
892.691	-50.69
892.862	29.18
893.032	-13.82
893.203	-71.17
893.374	-65.02
893.545	18.94
893.716	-11.78
893.887	29.18
894.057	18.94
894.228	-34.3
894.399	8.7
894.57	-60.93
894.74	14.85
894.911	-1.54
895.082	-15.87
895.253	-71.17
895.423	-5.63
895.594	98.81
895.764	-3.58
895.935	43.52
896.106	35.33
896.276	-26.11
896.447	35.33
896.617	10.75
896.788	-30.21
896.958	4.61
897.129	10.75
897.299	-24.06
897.47	53.76
897.64	35.33
897.81	-52.74
897.981	27.14
898.151	-1.54
898.322	39.42
898.492	-17.92
898.662	-3.58
898.832	10.75
899.003	-38.4
899.173	49.66
899.343	2.56
899.513	-13.82
