Data from USB4F104151__232__14-21-51-077.txt Node

Date: Thu Mar 13 14:21:51 EDT 2025
User: louis
Spectrometer: USB4F10415
Trigger mode: 4
Integration Time (sec): 2.000000E-2
Scans to average: 1
Electric dark correction enabled: true
Nonlinearity correction enabled: false
Boxcar width: 0
XAxis mode: Wavelengths
Number of Pixels in Spectrum: 3648
>>>>>Begin Spectral Data<<<<<
178.204	-63.66
178.424	-63.66
178.644	-63.66
178.864	-104.62
179.084	-137.38
179.304	18.26
179.524	46.93
179.744	26.45
179.964	-14.51
180.184	-22.7
180.404	26.45
180.624	-0.17
180.844	10.07
181.064	-86.19
181.283	26.45
181.503	-4.27
181.723	-26.79
181.943	-26.79
182.163	79.7
182.383	20.31
182.602	26.45
182.822	24.4
183.042	36.69
183.262	53.08
183.482	30.55
183.701	73.56
183.921	-41.13
184.141	16.21
184.361	48.98
184.58	-14.51
184.8	55.12
185.02	63.32
185.239	-10.41
185.459	26.45
185.679	28.5
185.898	26.45
186.118	67.41
186.338	34.64
186.557	26.45
186.777	10.07
186.997	-28.84
187.216	5.97
187.436	75.6
187.655	1.88
187.875	85.84
188.095	24.4
188.314	110.42
188.534	46.93
188.753	26.45
188.973	30.55
189.192	94.04
189.412	67.41
189.631	44.88
189.851	51.03
190.07	42.84
190.29	-28.84
190.509	40.79
190.729	1.88
190.948	42.84
191.168	87.89
191.387	89.94
191.607	-2.22
191.826	79.7
192.045	-28.84
192.265	-37.03
192.484	38.74
192.704	44.88
192.923	-4.27
193.142	112.47
193.362	79.7
193.581	81.75
193.8	53.08
194.02	1.88
194.239	22.36
194.458	143.19
194.678	-6.31
194.897	-28.84
195.116	26.45
195.335	34.64
195.555	1.88
195.774	-4.27
195.993	85.84
196.212	38.74
196.432	38.74
196.651	22.36
196.87	26.45
197.089	40.79
197.308	-2.22
197.528	48.98
197.747	1.88
197.966	-6.31
198.185	106.32
198.404	-45.23
198.623	34.64
198.842	10.07
199.062	55.12
199.281	77.65
199.5	28.5
199.719	34.64
199.938	75.6
200.157	91.99
200.376	30.55
200.595	77.65
200.814	73.56
201.033	18.26
201.252	-22.7
201.471	36.69
201.69	44.88
201.909	75.6
202.128	12.12
202.347	10.07
202.566	5.97
202.785	12.12
203.004	-22.7
203.223	122.71
203.442	36.69
203.661	26.45
203.879	63.32
204.098	100.18
204.317	18.26
204.536	106.32
204.755	118.61
204.974	126.8
205.193	75.6
205.411	73.56
205.63	20.31
205.849	63.32
206.068	128.85
206.287	34.64
206.505	59.22
206.724	55.12
206.943	61.27
207.162	30.55
207.381	51.03
207.599	36.69
207.818	91.99
208.037	75.6
208.255	1.88
208.474	-22.7
208.693	26.45
208.911	-10.41
209.13	-22.7
209.349	-39.08
209.567	75.6
209.786	51.03
210.005	34.64
210.223	5.97
210.442	10.07
210.661	69.46
210.879	-4.27
211.098	12.12
211.316	16.21
211.535	75.6
211.753	-6.31
211.972	14.17
212.191	69.46
212.409	24.4
212.628	71.51
212.846	-37.03
213.065	69.46
213.283	42.84
213.502	-4.27
213.72	16.21
213.938	100.18
214.157	12.12
214.375	55.12
214.594	1.88
214.812	55.12
215.031	34.64
215.249	-12.46
215.467	36.69
215.686	46.93
215.904	51.03
216.122	20.31
216.341	38.74
216.559	28.5
216.778	38.74
216.996	30.55
217.214	51.03
217.432	26.45
217.651	57.17
217.869	22.36
218.087	-8.36
218.306	89.94
218.524	46.93
218.742	128.85
218.96	61.27
219.179	12.12
219.397	83.8
219.615	57.17
219.833	42.84
220.051	57.17
220.27	12.12
220.488	55.12
220.706	69.46
220.924	-12.46
221.142	38.74
221.36	102.23
221.578	22.36
221.796	75.6
222.015	14.17
222.233	98.13
222.451	61.27
222.669	20.31
222.887	85.84
223.105	38.74
223.323	61.27
223.541	-16.55
223.759	153.43
223.977	-14.51
224.195	67.41
224.413	77.65
224.631	124.76
224.849	-6.31
225.067	126.8
225.285	42.84
225.503	94.04
225.721	-4.27
225.939	36.69
226.157	-0.17
226.375	178
226.592	42.84
226.81	1.88
227.028	110.42
227.246	118.61
227.464	55.12
227.682	22.36
227.9	77.65
228.117	-14.51
228.335	12.12
228.553	38.74
228.771	20.31
228.989	65.36
229.206	53.08
229.424	12.12
229.642	-10.41
229.86	10.07
230.077	-18.6
230.295	42.84
230.513	91.99
230.731	44.88
230.948	53.08
231.166	114.52
231.384	26.45
231.601	55.12
231.819	157.52
232.037	48.98
232.254	-18.6
232.472	20.31
232.689	79.7
232.907	30.55
233.125	30.55
233.342	28.5
233.56	1.88
233.777	48.98
233.995	34.64
234.213	69.46
234.43	102.23
234.648	51.03
234.865	102.23
235.083	71.51
235.3	30.55
235.518	18.26
235.735	18.26
235.953	124.76
236.17	-0.17
236.388	130.9
236.605	75.6
236.822	132.95
237.04	147.28
237.257	12.12
237.475	26.45
237.692	30.55
237.909	-2.22
238.127	28.5
238.344	-24.75
238.562	61.27
238.779	-18.6
238.996	81.75
239.214	59.22
239.431	75.6
239.648	5.97
239.865	28.5
240.083	96.08
240.3	59.22
240.517	36.69
240.735	26.45
240.952	126.8
241.169	69.46
241.386	96.08
241.603	-4.27
241.821	106.32
242.038	69.46
242.255	10.07
242.472	-32.94
242.689	83.8
242.907	75.6
243.124	-0.17
243.341	59.22
243.558	42.84
243.775	1.88
243.992	-28.84
244.209	30.55
244.426	46.93
244.643	69.46
244.86	5.97
245.078	53.08
245.295	83.8
245.512	94.04
245.729	59.22
245.946	53.08
246.163	116.56
246.38	-2.22
246.597	-14.51
246.814	12.12
247.031	-6.31
247.248	3.93
247.464	8.02
247.681	65.36
247.898	118.61
248.115	18.26
248.332	-63.66
248.549	112.47
248.766	89.94
248.983	75.6
249.2	3.93
249.417	118.61
249.633	26.45
249.85	34.64
250.067	-6.31
250.284	22.36
250.501	145.24
250.717	67.41
250.934	28.5
251.151	100.18
251.368	46.93
251.585	81.75
251.801	59.22
252.018	-45.23
252.235	91.99
252.451	61.27
252.668	34.64
252.885	-6.31
253.102	46.93
253.318	10.07
253.535	36.69
253.752	46.93
253.968	28.5
254.185	12.12
254.401	-2.22
254.618	3.93
254.835	34.64
255.051	55.12
255.268	67.41
255.484	-6.31
255.701	59.22
255.917	59.22
256.134	20.31
256.351	5.97
256.567	-2.22
256.784	51.03
257	-28.84
257.217	20.31
257.433	104.28
257.65	20.31
257.866	30.55
258.082	-16.55
258.299	87.89
258.515	20.31
258.732	137.04
258.948	44.88
259.165	102.23
259.381	-6.31
259.597	-47.27
259.814	59.22
260.03	42.84
260.246	59.22
260.463	8.02
260.679	61.27
260.895	18.26
261.112	34.64
261.328	67.41
261.544	59.22
261.761	116.56
261.977	-22.7
262.193	22.36
262.409	61.27
262.626	77.65
262.842	77.65
263.058	53.08
263.274	85.84
263.49	42.84
263.707	67.41
263.923	42.84
264.139	14.17
264.355	-6.31
264.571	106.32
264.787	108.37
265.004	69.46
265.22	104.28
265.436	-12.46
265.652	57.17
265.868	77.65
266.084	26.45
266.3	116.56
266.516	-26.79
266.732	61.27
266.948	-28.84
267.164	-18.6
267.38	94.04
267.596	30.55
267.812	75.6
268.028	65.36
268.244	-0.17
268.46	36.69
268.676	59.22
268.892	51.03
269.108	104.28
269.324	20.31
269.54	75.6
269.756	30.55
269.972	-26.79
270.188	67.41
270.403	-41.13
270.619	42.84
270.835	53.08
271.051	3.93
271.267	42.84
271.483	34.64
271.698	30.55
271.914	102.23
272.13	81.75
272.346	40.79
272.562	67.41
272.777	75.6
272.993	-30.89
273.209	-2.22
273.425	87.89
273.64	65.36
273.856	1.88
274.072	34.64
274.287	-49.32
274.503	26.45
274.719	-51.37
274.934	-28.84
275.15	-57.51
275.366	-8.36
275.581	46.93
275.797	104.28
276.012	34.64
276.228	-18.6
276.444	30.55
276.659	59.22
276.875	38.74
277.09	30.55
277.306	20.31
277.521	61.27
277.737	-22.7
277.952	75.6
278.168	16.21
278.383	22.36
278.599	-2.22
278.814	124.76
279.03	53.08
279.245	98.13
279.461	104.28
279.676	106.32
279.892	-20.65
280.107	71.51
280.322	83.8
280.538	14.17
280.753	55.12
280.969	42.84
281.184	46.93
281.399	48.98
281.615	46.93
281.83	53.08
282.045	8.02
282.26	69.46
282.476	59.22
282.691	94.04
282.906	8.02
283.122	55.12
283.337	-22.7
283.552	55.12
283.767	24.4
283.983	42.84
284.198	-39.08
284.413	124.76
284.628	44.88
284.843	83.8
285.058	63.32
285.274	-18.6
285.489	59.22
285.704	67.41
285.919	34.64
286.134	89.94
286.349	75.6
286.564	32.6
286.779	51.03
286.995	14.17
287.21	8.02
287.425	18.26
287.64	42.84
287.855	14.17
288.07	-6.31
288.285	65.36
288.5	61.27
288.715	69.46
288.93	34.64
289.145	-14.51
289.36	-30.89
289.575	-8.36
289.79	-41.13
290.004	48.98
290.219	46.93
290.434	-4.27
290.649	96.08
290.864	75.6
291.079	46.93
291.294	67.41
291.509	-61.61
291.724	106.32
291.938	12.12
292.153	110.42
292.368	-14.51
292.583	126.8
292.798	28.5
293.012	116.56
293.227	57.17
293.442	16.21
293.657	48.98
293.871	53.08
294.086	89.94
294.301	132.95
294.516	79.7
294.73	32.6
294.945	-65.71
295.16	91.99
295.374	102.23
295.589	55.12
295.804	24.4
296.018	83.8
296.233	104.28
296.447	104.28
296.662	83.8
296.877	55.12
297.091	69.46
297.306	53.08
297.52	-28.84
297.735	110.42
297.949	14.17
298.164	118.61
298.378	85.84
298.593	18.26
298.807	85.84
299.022	14.17
299.236	69.46
299.451	71.51
299.665	32.6
299.88	83.8
300.094	91.99
300.309	46.93
300.523	30.55
300.737	34.64
300.952	28.5
301.166	30.55
301.381	22.36
301.595	69.46
301.809	132.95
302.024	87.89
302.238	36.69
302.452	44.88
302.667	77.65
302.881	38.74
303.095	48.98
303.309	83.8
303.524	10.07
303.738	100.18
303.952	20.31
304.166	-18.6
304.381	24.4
304.595	10.07
304.809	53.08
305.023	128.85
305.237	-47.27
305.452	61.27
305.666	77.65
305.88	69.46
306.094	77.65
306.308	178
306.522	36.69
306.736	38.74
306.95	51.03
307.164	73.56
307.379	12.12
307.593	10.07
307.807	83.8
308.021	87.89
308.235	75.6
308.449	14.17
308.663	3.93
308.877	91.99
309.091	63.32
309.305	94.04
309.519	-4.27
309.733	137.04
309.947	85.84
310.161	59.22
310.374	59.22
310.588	42.84
310.802	69.46
311.016	18.26
311.23	-32.94
311.444	51.03
311.658	-2.22
311.872	69.46
312.085	126.8
312.299	46.93
312.513	85.84
312.727	22.36
312.941	-8.36
313.154	126.8
313.368	46.93
313.582	34.64
313.796	100.18
314.009	40.79
314.223	57.17
314.437	106.32
314.651	26.45
314.864	12.12
315.078	22.36
315.292	40.79
315.505	120.66
315.719	104.28
315.933	118.61
316.146	87.89
316.36	28.5
316.573	102.23
316.787	75.6
317.001	87.89
317.214	10.07
317.428	26.45
317.641	-22.7
317.855	69.46
318.068	12.12
318.282	89.94
318.495	147.28
318.709	81.75
318.922	30.55
319.136	63.32
319.349	94.04
319.563	28.5
319.776	51.03
319.99	30.55
320.203	85.84
320.417	51.03
320.63	32.6
320.843	102.23
321.057	79.7
321.27	26.45
321.483	59.22
321.697	26.45
321.91	110.42
322.124	85.84
322.337	59.22
322.55	26.45
322.763	-67.75
322.977	18.26
323.19	42.84
323.403	77.65
323.617	59.22
323.83	77.65
324.043	-12.46
324.256	118.61
324.469	10.07
324.683	51.03
324.896	42.84
325.109	34.64
325.322	38.74
325.535	59.22
325.748	71.51
325.962	-26.79
326.175	12.12
326.388	42.84
326.601	24.4
326.814	42.84
327.027	-39.08
327.24	10.07
327.453	18.26
327.666	65.36
327.879	69.46
328.092	132.95
328.305	34.64
328.518	1.88
328.731	10.07
328.944	120.66
329.157	16.21
329.37	55.12
329.583	63.32
329.796	112.47
330.009	44.88
330.222	116.56
330.435	69.46
330.648	51.03
330.861	96.08
331.073	112.47
331.286	36.69
331.499	42.84
331.712	10.07
331.925	116.56
332.138	36.69
332.35	75.6
332.563	89.94
332.776	128.85
332.989	42.84
333.202	30.55
333.414	18.26
333.627	1.88
333.84	-12.46
334.053	34.64
334.265	36.69
334.478	14.17
334.691	71.51
334.903	102.23
335.116	8.02
335.329	-6.31
335.541	18.26
335.754	81.75
335.966	59.22
336.179	28.5
336.392	110.42
336.604	42.84
336.817	42.84
337.029	102.23
337.242	-2.22
337.454	67.41
337.667	-22.7
337.88	67.41
338.092	34.64
338.305	89.94
338.517	67.41
338.729	120.66
338.942	36.69
339.154	51.03
339.367	67.41
339.579	91.99
339.792	53.08
340.004	44.88
340.217	91.99
340.429	59.22
340.641	36.69
340.854	14.17
341.066	67.41
341.278	83.8
341.491	10.07
341.703	116.56
341.915	36.69
342.128	14.17
342.34	110.42
342.552	36.69
342.764	55.12
342.977	55.12
343.189	108.37
343.401	79.7
343.613	20.31
343.826	59.22
344.038	75.6
344.25	40.79
344.462	38.74
344.674	83.8
344.886	77.65
345.099	1.88
345.311	-39.08
345.523	32.6
345.735	22.36
345.947	18.26
346.159	91.99
346.371	26.45
346.583	38.74
346.795	116.56
347.007	3.93
347.219	112.47
347.431	63.32
347.643	51.03
347.855	5.97
348.067	69.46
348.279	-22.7
348.491	5.97
348.703	5.97
348.915	26.45
349.127	26.45
349.339	85.84
349.551	46.93
349.763	120.66
349.975	53.08
350.187	79.7
350.399	79.7
350.61	30.55
350.822	42.84
351.034	98.13
351.246	32.6
351.458	65.36
351.669	67.41
351.881	85.84
352.093	69.46
352.305	75.6
352.517	36.69
352.728	110.42
352.94	126.8
353.152	67.41
353.363	-6.31
353.575	149.33
353.787	-0.17
353.999	108.37
354.21	61.27
354.422	36.69
354.633	22.36
354.845	10.07
355.057	69.46
355.268	67.41
355.48	69.46
355.692	-12.46
355.903	67.41
356.115	42.84
356.326	-22.7
356.538	67.41
356.749	48.98
356.961	59.22
357.172	85.84
357.384	100.18
357.595	85.84
357.807	40.79
358.018	132.95
358.23	83.8
358.441	51.03
358.653	28.5
358.864	3.93
359.075	16.21
359.287	71.51
359.498	132.95
359.709	10.07
359.921	51.03
360.132	26.45
360.344	59.22
360.555	46.93
360.766	132.95
360.977	77.65
361.189	30.55
361.4	1.88
361.611	81.75
361.823	83.8
362.034	34.64
362.245	67.41
362.456	-14.51
362.667	153.43
362.879	42.84
363.09	81.75
363.301	100.18
363.512	77.65
363.723	91.99
363.935	69.46
364.146	46.93
364.357	53.08
364.568	10.07
364.779	40.79
364.99	36.69
365.201	28.5
365.412	57.17
365.623	42.84
365.834	-2.22
366.045	126.8
366.256	26.45
366.467	20.31
366.678	83.8
366.889	3.93
367.1	44.88
367.311	59.22
367.522	36.69
367.733	87.89
367.944	94.04
368.155	55.12
368.366	61.27
368.577	120.66
368.788	149.33
368.999	10.07
369.209	85.84
369.42	120.66
369.631	46.93
369.842	-6.31
370.053	69.46
370.264	-10.41
370.474	67.41
370.685	67.41
370.896	-77.99
371.107	77.65
371.317	122.71
371.528	69.46
371.739	79.7
371.95	71.51
372.16	91.99
372.371	100.18
372.582	55.12
372.792	77.65
373.003	98.13
373.214	83.8
373.424	106.32
373.635	-24.75
373.846	85.84
374.056	63.32
374.267	132.95
374.477	67.41
374.688	38.74
374.898	59.22
375.109	98.13
375.319	128.85
375.53	20.31
375.74	75.6
375.951	42.84
376.161	36.69
376.372	173.91
376.582	100.18
376.793	75.6
377.003	36.69
377.214	42.84
377.424	118.61
377.635	34.64
377.845	71.51
378.055	112.47
378.266	42.84
378.476	63.32
378.686	108.37
378.897	87.89
379.107	63.32
379.317	94.04
379.528	42.84
379.738	91.99
379.948	141.14
380.158	5.97
380.369	40.79
380.579	61.27
380.789	53.08
380.999	59.22
381.21	91.99
381.42	116.56
381.63	28.5
381.84	83.8
382.05	75.6
382.261	100.18
382.471	85.84
382.681	65.36
382.891	75.6
383.101	-6.31
383.311	55.12
383.521	87.89
383.731	143.19
383.941	16.21
384.151	26.45
384.361	-10.41
384.571	10.07
384.781	132.95
384.991	87.89
385.201	135
385.411	67.41
385.621	71.51
385.831	53.08
386.041	122.71
386.251	18.26
386.461	118.61
386.671	30.55
386.881	12.12
387.091	10.07
387.301	100.18
387.511	48.98
387.72	79.7
387.93	44.88
388.14	20.31
388.35	34.64
388.56	36.69
388.769	81.75
388.979	67.41
389.189	-53.42
389.399	75.6
389.609	42.84
389.818	96.08
390.028	69.46
390.238	65.36
390.447	112.47
390.657	108.37
390.867	26.45
391.076	63.32
391.286	71.51
391.496	108.37
391.705	26.45
391.915	75.6
392.125	44.88
392.334	38.74
392.544	137.04
392.753	71.51
392.963	26.45
393.172	36.69
393.382	135
393.591	116.56
393.801	98.13
394.01	175.95
394.22	53.08
394.429	102.23
394.639	110.42
394.848	110.42
395.058	59.22
395.267	85.84
395.477	89.94
395.686	83.8
395.895	182.1
396.105	85.84
396.314	89.94
396.524	137.04
396.733	18.26
396.942	165.71
397.152	124.76
397.361	100.18
397.57	116.56
397.78	61.27
397.989	10.07
398.198	223.06
398.407	108.37
398.617	102.23
398.826	96.08
399.035	48.98
399.244	173.91
399.453	83.8
399.663	96.08
399.872	102.23
400.081	110.42
400.29	151.38
400.499	202.58
400.708	110.42
400.917	120.66
401.127	98.13
401.336	59.22
401.545	186.19
401.754	71.51
401.963	167.76
402.172	124.76
402.381	102.23
402.59	141.14
402.799	59.22
403.008	128.85
403.217	128.85
403.426	175.95
403.635	110.42
403.844	149.33
404.053	110.42
404.262	132.95
404.471	178
404.68	137.04
404.888	132.95
405.097	155.47
405.306	141.14
405.515	190.29
405.724	159.57
405.933	132.95
406.142	145.24
406.35	223.06
406.559	290.64
406.768	202.58
406.977	231.25
407.185	290.64
407.394	210.77
407.603	214.87
407.812	251.73
408.02	329.55
408.229	206.67
408.438	198.48
408.646	214.87
408.855	274.26
409.064	264.02
409.272	194.39
409.481	290.64
409.69	302.93
409.898	280.4
410.107	374.61
410.315	378.7
410.524	315.22
410.733	350.03
410.941	325.46
411.15	403.28
411.358	411.47
411.567	481.1
411.775	362.32
411.984	485.2
412.192	419.66
412.401	460.62
412.609	528.21
412.818	540.49
413.026	505.68
413.234	517.97
413.443	419.66
413.651	542.54
413.86	669.52
414.068	696.14
414.276	673.61
414.485	599.88
414.693	683.85
414.901	753.48
415.11	743.24
415.318	765.77
415.526	769.87
415.734	880.46
415.943	765.77
416.151	864.07
416.359	792.39
416.567	905.03
416.776	960.33
416.984	921.42
417.192	927.56
417.4	1085.25
417.608	989
417.817	1132.36
418.025	1214.27
418.233	1263.43
418.441	1177.41
418.649	1165.12
418.857	1316.67
419.065	1302.34
419.273	1242.95
419.481	1347.39
419.689	1414.98
419.897	1541.95
420.105	1484.61
420.313	1599.29
420.521	1658.68
420.729	1609.53
420.937	1619.77
421.145	1673.02
421.353	1929.02
421.561	1933.11
421.769	1931.06
421.977	2043.7
422.185	2053.94
422.393	2168.63
422.601	2209.59
422.809	2230.07
423.017	2373.43
423.224	2488.11
423.432	2520.88
423.64	2533.17
423.848	2819.88
424.056	2787.11
424.263	2694.96
424.471	2838.31
424.679	2860.84
424.887	2948.9
425.094	3188.52
425.302	3229.48
425.51	3262.24
425.718	3499.81
425.925	3464.99
426.133	3577.63
426.341	3747.61
426.548	3913.5
426.756	3903.26
426.964	4007.7
427.171	4198.17
427.379	4292.37
427.586	4390.67
427.794	4456.21
428.001	4646.67
428.209	5091.08
428.417	4925.19
428.624	5162.76
428.832	5129.99
429.039	5175.05
429.247	5213.96
429.454	5711.61
429.662	6102.78
429.869	5474.05
430.076	5990.14
430.284	5947.13
430.491	6102.78
430.699	6471.41
430.906	6401.78
431.114	6608.62
431.321	6838
431.528	6825.71
431.736	7261.93
431.943	7724.77
432.15	7393
432.358	7673.57
432.565	7997.15
432.772	8001.24
432.979	8275.67
433.187	8367.83
433.394	8529.62
433.601	8939.21
433.808	9168.59
434.016	9006.8
434.223	9375.43
434.43	9799.36
434.637	9854.65
434.844	10487.48
435.052	10593.97
435.259	10632.88
435.466	10618.55
435.673	10434.23
435.88	11300.52
436.087	11687.59
436.294	11566.76
436.501	11579.04
436.708	11724.45
436.915	12136.09
437.122	12646.04
437.329	12773.01
437.537	13039.25
437.743	13242
437.95	13086.35
438.157	13825.67
438.364	14184.06
438.571	14304.89
438.778	14485.11
438.985	15445.61
439.192	15099.5
439.399	15607.4
439.606	15005.3
439.813	16176.73
440.02	17184.34
440.227	16651.86
440.433	16547.42
440.64	17051.22
440.847	16914
441.054	17460.81
441.261	18560.57
441.467	18474.56
441.674	18515.51
441.881	19203.63
442.088	19260.98
442.294	18972.21
442.501	19504.68
442.708	19901.99
442.914	20786.71
443.121	21806.6
443.328	20966.93
443.534	22760.95
443.741	21818.89
443.948	21620.24
444.154	23203.32
444.361	23094.77
444.568	23072.25
444.774	23117.3
444.981	23498.22
445.187	24004.07
445.394	25077.21
445.6	24905.18
445.807	27565.49
446.013	25832.91
446.22	26697.15
446.426	27704.75
446.633	27880.88
446.839	28738.97
447.046	27676.08
447.252	28708.26
447.459	28964.25
447.665	29003.16
447.871	30217.61
448.078	31247.74
448.284	30066.06
448.491	30803.33
448.697	31825.26
448.903	32486.76
449.11	32548.2
449.316	32142.7
449.522	32832.86
449.728	33627.48
449.935	33518.93
450.141	33928.53
450.347	34354.51
450.553	33703.25
450.76	33578.32
450.966	35030.33
451.172	34712.9
451.378	35149.12
451.584	34667.84
451.791	35429.69
451.997	35777.84
452.203	36574.5
452.409	36306.22
452.615	36068.65
452.821	34717
453.027	34170.19
453.233	36265.26
453.44	34657.6
453.646	34868.55
453.852	35429.69
454.058	36158.77
454.264	34739.52
454.47	35372.35
454.676	34651.46
454.882	35548.47
455.088	32802.14
455.294	33355.1
455.5	33787.22
455.705	34321.74
455.911	33138.01
456.117	32071.02
456.323	31731.06
456.529	30031.24
456.735	31522.16
456.941	30963.07
457.147	30121.35
457.352	29316.5
457.558	28954.01
457.764	29048.22
457.97	28687.78
458.176	27995.56
458.381	28065.19
458.587	26594.75
458.793	26400.19
458.999	25179.61
459.204	26838.46
459.41	26334.66
459.616	24671.71
459.821	24636.89
460.027	24468.96
460.233	24151.52
460.438	22945.27
460.644	23010.81
460.85	22025.73
461.055	21761.55
461.261	21874.18
461.466	20155.94
461.672	19516.97
461.878	21022.23
462.083	19588.65
462.289	19170.86
462.494	18611.77
462.7	18286.14
462.905	17626.7
463.111	18206.27
463.316	18116.16
463.522	17673.8
463.727	17851.97
463.932	17778.25
464.138	17704.52
464.343	17641.03
464.549	17180.24
464.754	17935.94
464.959	17329.74
465.165	17745.48
465.37	16875.09
465.575	16311.9
465.781	17112.66
465.986	17024.59
466.191	16492.12
466.397	16010.85
466.602	15263.34
466.807	16025.18
467.012	16035.42
467.218	16006.75
467.423	15695.46
467.628	15750.76
467.833	16524.89
468.038	16076.38
468.244	15382.12
468.449	15910.5
468.654	15525.48
468.859	15421.03
469.064	15222.38
469.269	14972.53
469.474	15019.63
469.679	15255.15
469.885	14732.92
470.09	14818.93
470.295	14800.5
470.5	14485.11
470.705	14616.18
470.91	14339.71
471.115	14235.26
471.32	14380.67
471.525	14175.87
471.73	13805.19
471.935	13821.57
472.139	13340.3
472.344	13436.55
472.549	13266.57
472.754	13178.51
472.959	13010.57
473.164	12709.52
473.369	12551.83
473.574	13149.84
473.778	12764.82
473.983	12746.39
474.188	12689.04
474.393	12199.58
474.598	12045.98
474.802	12082.84
475.007	11994.78
475.212	12134.04
475.417	11402.92
475.621	11710.11
475.826	11781.79
476.031	11519.65
476.235	11081.39
476.44	11509.41
476.645	11294.38
476.849	11411.11
477.054	11093.68
477.259	10913.45
477.463	10856.11
477.668	10669.75
477.872	10872.5
478.077	10712.75
478.282	10266.3
478.486	10348.22
478.691	10286.78
478.895	10237.63
479.1	10147.51
479.304	10233.53
479.509	9774.78
479.713	9989.82
479.918	9709.25
480.122	9490.12
480.326	9735.87
480.531	9770.69
480.735	9533.12
480.94	9488.07
481.144	10165.95
481.348	9338.57
481.553	9555.65
481.757	9385.67
481.961	9533.12
482.166	9670.34
482.37	9488.07
482.574	9383.62
482.778	9346.76
482.983	9526.98
483.187	9483.97
483.391	9623.23
483.595	9391.81
483.8	9324.23
484.004	9221.83
484.208	9432.77
484.412	9332.42
484.616	9393.86
484.821	9393.86
485.025	9326.28
485.229	9420.49
485.433	9365.19
485.637	9357
485.841	9373.38
486.045	9326.28
486.249	9301.7
486.453	9248.46
486.657	9281.22
486.861	9350.85
487.065	9287.37
487.269	9299.66
487.473	9187.02
487.677	9373.38
487.881	9430.73
488.085	9404.1
488.289	9578.18
488.493	9322.18
488.697	9520.84
488.901	9592.51
489.105	9432.77
489.309	9500.36
489.512	9471.68
489.716	9430.73
489.92	9514.69
490.124	9506.5
490.328	9787.07
490.531	9443.01
490.735	9715.39
490.939	9506.5
491.143	9860.8
491.346	9834.18
491.55	9891.52
491.754	9797.31
491.958	10022.59
492.161	9912
492.365	10124.99
492.569	9932.48
492.772	10059.45
492.976	10102.46
493.18	10004.16
493.383	10258.1
493.587	10278.58
493.79	10313.4
493.994	10159.8
494.197	10397.37
494.401	10532.53
494.605	10417.85
494.808	10536.63
495.012	10479.29
495.215	10538.68
495.419	10768.05
495.622	10862.26
495.825	10989.23
496.029	10616.5
496.232	11054.76
496.436	10989.23
496.639	11353.77
496.843	11259.56
497.046	11527.85
497.249	11609.76
497.453	11546.28
497.656	11724.45
497.859	11738.79
498.063	11996.83
498.266	12117.66
498.469	12299.93
498.673	12428.95
498.876	12519.06
499.079	12480.15
499.282	12564.12
499.485	12756.63
499.689	12824.21
499.892	12889.74
500.095	13123.21
500.298	13694.6
500.501	13217.42
500.705	13706.88
500.908	13780.61
501.111	14018.18
501.314	14007.94
501.517	14390.91
501.72	14366.33
501.923	14528.12
502.126	14618.23
502.329	14757.49
502.532	14960.24
502.735	15271.53
502.938	15453.8
503.141	15689.32
503.344	15738.47
503.547	15939.17
503.75	15955.55
503.953	15963.75
504.156	16133.73
504.359	16688.73
504.562	16539.22
504.765	17114.7
504.968	17010.26
505.17	17282.64
505.373	17344.08
505.576	17362.51
505.779	17735.24
505.982	17927.75
506.185	18183.74
506.387	18320.96
506.59	18306.62
506.793	18802.23
506.996	18538.04
507.198	19224.11
507.401	19035.7
507.604	19224.11
507.807	19527.21
508.009	19916.33
508.212	19994.15
508.415	20346.4
508.617	20450.85
508.82	20438.56
509.022	20735.51
509.225	20936.21
509.428	21288.46
509.63	21386.77
509.833	21589.52
510.035	22263.3
510.238	21956.1
510.44	22199.81
510.643	22496.77
510.845	22996.47
511.048	22398.46
511.25	22932.98
511.453	23430.64
511.655	24047.08
511.858	23858.67
512.06	23846.38
512.262	24341.99
512.465	24229.35
512.667	24595.93
512.87	24874.46
513.072	24991.19
513.274	25095.64
513.477	25353.68
513.679	25538
513.881	25998.79
514.084	26314.18
514.286	26543.55
514.488	26392
514.69	27299.25
514.893	27413.94
515.095	27577.78
515.297	27714.99
515.499	27714.99
515.701	28360.1
515.904	28513.7
516.106	28409.25
516.308	28779.93
516.51	28917.15
516.712	28999.07
516.914	29351.32
517.116	30074.25
517.318	30156.17
517.52	30311.81
517.722	30242.18
517.925	30516.61
518.127	31090.04
518.329	31389.05
518.531	31468.92
518.733	32105.84
518.935	31964.53
519.136	31876.46
519.338	32611.68
519.54	32666.98
519.742	32828.77
519.944	33340.76
520.146	33590.61
520.348	34039.12
520.55	33799.51
520.752	34266.44
520.954	34710.85
521.155	34487.62
521.357	35095.87
521.559	35290.43
521.761	35781.94
521.963	35429.69
522.164	35628.34
522.366	35960.11
522.568	36281.64
522.77	36345.13
522.971	37350.68
523.173	37002.53
523.375	37100.83
523.576	37354.78
523.778	37461.27
523.98	37553.43
524.181	38317.32
524.383	38268.17
524.584	38505.74
524.786	38950.15
524.988	38432.01
525.189	39189.76
525.391	39181.57
525.592	39279.87
525.794	39666.94
525.995	39566.59
526.197	39374.08
526.398	40008.95
526.6	39822.58
526.801	40269.04
527.003	40373.49
527.204	40275.18
527.406	40776.94
527.607	40336.62
527.808	41034.98
528.01	40271.09
528.211	41088.23
528.412	41745.62
528.614	41555.16
528.815	41131.23
529.016	41786.58
529.218	41266.4
529.419	41794.78
529.62	41972.95
529.822	41581.79
530.023	41903.32
530.224	41688.28
530.425	42011.86
530.626	41800.92
530.828	41542.88
531.029	42534.09
531.23	42028.24
531.431	42001.62
531.632	42167.51
531.833	42525.9
532.035	42421.45
532.236	42452.17
532.437	42785.99
532.638	42482.89
532.839	42646.73
533.04	43082.95
533.241	42435.79
533.442	42915.01
533.643	42722.51
533.844	42407.12
534.045	43111.62
534.246	42605.77
534.447	42951.88
534.648	42642.63
534.849	42882.25
535.05	43039.94
535.251	42917.06
535.451	42671.31
535.652	43175.11
535.853	42884.29
536.054	42949.83
536.255	43130.05
536.456	42695.88
536.657	43285.7
536.857	42734.79
537.058	42777.8
537.259	43222.21
537.46	43144.39
537.66	42751.18
537.861	43185.35
538.062	43211.97
538.263	42824.9
538.463	42757.32
538.664	42644.68
538.865	42853.58
539.065	43394.24
539.266	42685.64
539.466	43226.31
539.667	42169.55
539.868	43422.91
540.068	42714.31
540.269	43119.81
540.469	42779.85
540.67	42810.57
540.87	42919.11
541.071	42859.72
541.271	43427.01
541.472	42939.59
541.672	42785.99
541.873	42978.5
542.073	42300.62
542.274	42820.81
542.474	42532.04
542.675	42435.79
542.875	42921.16
543.075	42783.94
543.276	42351.82
543.476	43424.96
543.676	42478.8
543.877	42695.88
544.077	42857.67
544.277	42757.32
544.478	42411.21
544.678	42847.43
544.878	42491.08
545.078	42458.32
545.279	42433.74
545.479	42259.66
545.679	42939.59
545.879	42720.46
546.079	42562.76
546.28	42785.99
546.48	42163.41
546.68	42495.18
546.88	43148.48
547.08	42687.69
547.28	42177.75
547.48	42237.14
547.68	42575.05
547.88	41950.42
548.081	42253.52
548.281	42454.22
548.481	42343.63
548.681	42534.09
548.881	42290.38
549.081	42185.94
549.28	41907.41
549.48	42525.9
549.68	42239.18
549.88	42994.89
550.08	41917.65
550.28	42538.19
550.48	42366.16
550.68	42884.29
550.88	41925.85
551.08	42142.93
551.279	42413.26
551.479	41829.59
551.679	42394.83
551.879	42396.88
552.079	42519.76
552.278	42224.85
552.478	42144.98
552.678	42214.61
552.878	42394.83
553.077	41860.31
553.277	41671.9
553.477	42136.79
553.676	41848.02
553.876	41915.61
554.076	41895.13
554.275	41909.46
554.475	41370.85
554.674	41993.43
554.874	41954.52
555.074	41428.19
555.273	41454.81
555.473	41813.21
555.672	41350.37
555.872	41260.26
556.071	41762.01
556.271	41993.43
556.47	41641.18
556.67	41225.44
556.869	41667.8
557.068	41522.4
557.268	40924.39
557.467	41592.03
557.667	41526.49
557.866	41362.65
558.065	41489.63
558.265	41094.37
558.464	40897.77
558.663	41262.3
558.863	40797.41
559.062	41516.25
559.261	40752.36
559.461	41333.98
559.66	40731.88
559.859	40912.1
560.058	40307.95
560.258	40785.13
560.457	40336.62
560.656	40793.32
560.855	40695.02
561.054	40623.34
561.253	40463.6
561.453	40588.52
561.652	40434.92
561.851	40768.74
562.05	40156.4
562.249	39666.94
562.448	40451.31
562.647	40262.89
562.846	40031.47
563.045	40260.85
563.244	39759.09
563.443	40469.74
563.642	39906.55
563.841	39271.68
564.04	39617.78
564.239	39660.79
564.438	39759.09
564.637	39806.2
564.836	39816.44
565.035	39456
565.234	39427.32
565.432	39140.61
565.631	39363.84
565.83	39181.57
566.029	38974.72
566.228	39091.46
566.427	39165.18
566.625	38980.87
566.824	38536.46
567.023	39017.73
567.222	38425.87
567.42	38931.72
567.619	38636.81
567.818	38335.76
568.016	38649.1
568.215	38767.88
568.414	38302.99
568.612	38905.09
568.811	38270.22
569.01	38421.77
569.208	37747.99
569.407	38200.59
569.605	37690.65
569.804	38116.62
570.002	37526.81
570.201	37645.59
570.4	37582.1
570.598	37317.92
570.797	37133.6
570.995	37457.18
571.193	36840.74
571.392	37375.26
571.59	37041.44
571.789	37401.88
571.987	36621.61
572.186	36568.36
572.384	36678.95
572.582	36850.98
572.781	36738.34
572.979	35831.09
573.177	36711.72
573.376	36697.38
573.574	36113.71
573.772	36328.75
573.971	36166.96
574.169	36279.6
574.367	36037.94
574.565	36214.06
574.763	35941.68
574.962	35888.43
575.16	35362.11
575.358	35941.68
575.556	35339.58
575.754	35575.09
575.952	35169.6
576.151	35722.55
576.349	35083.58
576.547	34870.59
576.745	35007.81
576.943	35142.97
577.141	35228.99
577.339	34952.51
577.537	35009.86
577.735	34649.41
577.933	34501.96
578.131	34985.28
578.329	34561.35
578.527	33881.42
578.725	34409.8
578.923	34354.51
579.121	33899.86
579.319	34037.07
579.516	34078.03
579.714	34041.17
579.912	33881.42
580.11	33607
580.308	33637.72
580.506	33764.69
580.704	33129.82
580.901	33174.88
581.099	33578.32
581.297	33269.08
581.495	33314.14
581.692	33119.58
581.89	32834.91
582.088	33021.28
582.285	32873.82
582.483	32851.3
582.681	32578.92
582.878	32626.02
583.076	32429.41
583.274	32433.51
583.471	32185.71
583.669	32769.38
583.866	31948.14
584.064	32544.1
584.262	31810.93
584.459	32175.47
584.657	32208.23
584.854	32007.53
585.052	31724.91
585.249	31554.93
585.447	31802.74
585.644	31538.55
585.841	31837.55
586.039	31976.81
586.236	31176.06
586.434	31382.9
586.631	31184.25
586.828	31296.89
587.026	31083.9
587.223	31034.75
587.42	30901.63
587.618	30801.28
587.815	30313.86
588.012	30606.72
588.21	30332.29
588.407	30696.83
588.604	30426.5
588.801	29998.48
588.999	30160.27
589.196	30410.12
589.393	30092.68
589.59	30092.68
589.787	29562.26
589.984	29672.85
590.182	29742.48
590.379	29951.37
590.576	29236.63
590.773	29662.61
590.97	29439.38
591.167	29767.06
591.364	28931.48
591.561	29316.5
591.758	28997.02
591.955	28902.81
592.152	28972.44
592.349	28927.39
592.546	28628.38
592.743	28751.26
592.94	28480.93
593.137	28433.83
593.334	28505.51
593.531	28405.16
593.727	28431.78
593.924	28659.1
594.121	27760.05
594.318	28478.88
594.515	27835.82
594.712	28165.54
594.908	27751.85
595.105	27782.57
595.302	27542.96
595.499	27864.49
595.696	27487.67
595.892	27252.15
596.089	27737.52
596.286	27383.22
596.482	27596.21
596.679	27514.29
596.876	27096.5
597.072	27065.78
597.269	26783.16
597.466	26877.37
597.662	26799.55
597.859	26641.85
598.055	26592.7
598.252	26543.55
598.448	26371.52
598.645	26271.17
598.841	26267.08
599.038	26353.09
599.234	26252.74
599.431	25968.07
599.627	26217.93
599.824	26189.25
600.02	25847.24
600.217	25603.53
600.413	25558.48
600.609	25527.76
600.806	25673.17
601.002	25605.58
601.198	25599.44
601.395	25308.63
601.591	25255.38
601.787	24956.38
601.984	25066.97
602.18	25533.9
602.376	24651.23
602.572	24688.09
602.769	24770.01
602.965	24720.86
603.161	24843.74
603.357	24591.84
603.553	24554.97
603.75	24391.14
603.946	24350.18
604.142	24419.81
604.338	23825.9
604.534	24292.83
604.73	23864.81
604.926	24034.79
605.122	23989.74
605.318	23866.86
605.514	23535.09
605.71	23909.86
605.906	23946.73
606.102	23703.02
606.298	23420.4
606.494	23549.42
606.69	23625.2
606.886	23623.15
607.082	23174.64
607.278	23365.1
607.474	22803.96
607.67	23184.88
607.866	23221.75
608.062	23318
608.257	22738.43
608.453	23088.63
608.649	23033.33
608.845	22636.03
609.041	22849.02
609.236	22783.48
609.432	22738.43
609.628	22767.1
609.824	22666.75
610.019	22314.5
610.215	22642.17
610.411	22556.16
610.606	22224.39
610.802	22642.17
610.998	22326.78
611.193	22494.72
611.389	22029.83
611.584	22236.67
611.78	21927.43
611.976	21984.77
612.171	22283.78
612.367	21941.77
612.562	22054.4
612.758	21857.8
612.953	21816.84
613.149	21992.97
613.344	21921.29
613.539	22117.89
613.735	21687.82
613.93	21804.55
614.126	21417.49
614.321	21906.95
614.517	21552.65
614.712	21771.79
614.907	21415.44
615.103	21990.92
615.298	21532.17
615.493	21902.86
615.688	20999.7
615.884	21825.03
616.079	21278.22
616.274	21308.94
616.47	21206.55
616.665	21298.7
616.86	20919.83
617.055	20844.06
617.25	20829.72
617.445	20934.17
617.641	20596.25
617.836	20846.1
618.031	20485.66
618.226	20895.25
618.421	20819.48
618.616	20880.92
618.811	20434.46
619.006	20454.94
619.201	20284.96
619.396	20430.37
619.591	20117.03
619.786	20262.43
619.981	19899.94
620.176	20018.72
620.371	19732.01
620.566	19836.45
620.761	19502.64
620.956	19705.38
621.151	19457.58
621.346	19682.86
621.541	19271.22
621.735	19451.44
621.93	19283.5
622.125	19281.46
622.32	18867.77
622.515	19029.55
622.709	18959.92
622.904	18802.23
623.099	18525.75
623.294	18554.43
623.488	18427.45
623.683	18163.26
623.878	17985.09
624.072	18187.84
624.267	17980.99
624.462	18009.67
624.656	17849.92
624.851	17960.52
625.046	17851.97
625.24	17542.73
625.435	17401.42
625.629	17325.64
625.824	17098.32
626.018	17485.39
626.213	16844.37
626.407	17149.52
626.602	17124.94
626.796	16873.04
626.991	16705.11
627.185	16676.44
627.38	16668.25
627.574	16590.42
627.768	16631.38
627.963	16442.97
628.157	16160.35
628.352	16399.96
628.546	15867.49
628.74	15933.03
628.935	15707.75
629.129	15816.29
629.323	15789.67
629.517	15775.33
629.712	15634.02
629.906	15582.82
630.1	15306.35
630.294	15447.66
630.489	15142.51
630.683	15249
630.877	15214.19
631.071	15136.37
631.265	15175.28
631.459	14911.09
631.653	14857.84
631.848	14747.25
632.042	14476.92
632.236	14976.62
632.43	14528.12
632.624	14618.23
632.818	14184.06
633.012	14130.81
633.206	14083.71
633.4	14272.12
633.594	13901.44
633.788	14028.42
633.982	13880.96
634.176	13772.42
634.369	13938.3
634.563	13919.87
634.757	13541
634.951	13577.86
635.145	13592.2
635.339	13653.64
635.533	13272.71
635.726	13446.79
635.92	13235.85
636.114	13018.77
636.308	13321.87
636.501	13258.38
636.695	13119.12
636.889	13059.73
637.083	12764.82
637.276	12707.48
637.47	12936.85
637.664	12619.41
637.857	12717.72
638.051	12187.29
638.244	12603.03
638.438	12500.63
638.632	12490.39
638.825	12166.81
639.019	12244.63
639.212	12117.66
639.406	12160.67
639.599	11988.64
639.793	12045.98
639.986	11724.45
640.18	11671.2
640.373	11792.03
640.567	11785.89
640.76	11732.64
640.954	11636.39
641.147	11536.04
641.34	11413.16
641.534	11321
641.727	11286.19
641.92	11249.32
642.114	11280.04
642.307	11427.49
642.5	11175.59
642.694	10788.53
642.887	10790.58
643.08	10950.32
643.273	11028.14
643.467	10624.69
643.66	10720.95
643.853	10798.77
644.046	10479.29
644.239	10667.7
644.432	10423.99
644.626	10444.47
644.819	10446.52
645.012	10321.59
645.205	10462.9
645.398	10229.43
645.591	10303.16
645.784	10131.13
645.977	10176.19
646.17	9991.87
646.363	9971.39
646.556	9922.24
646.749	9914.05
646.942	9785.02
647.135	9768.64
647.328	9692.87
647.521	9651.91
647.714	9690.82
647.907	9594.56
648.099	9590.47
648.292	9694.91
648.485	9424.58
648.678	9428.68
648.871	9406.15
649.064	9293.51
649.256	9277.13
649.449	9195.21
649.642	9139.91
649.835	8971.98
650.027	9125.58
650.22	8853.2
650.413	8840.91
650.605	9230.02
650.798	8990.41
650.991	8955.6
651.183	8750.8
651.376	8662.74
651.568	8689.36
651.761	8767.18
651.954	8697.55
652.146	8601.3
652.339	8425.17
652.531	8570.58
652.724	8359.64
652.916	8365.78
653.109	8220.38
653.301	8193.75
653.494	8267.48
653.686	8070.87
653.879	8179.42
654.071	8148.7
654.263	7968.48
654.456	7921.37
654.648	8066.78
654.84	7775.97
655.033	7804.64
655.225	7759.58
655.417	7972.57
655.61	7825.12
655.802	7646.94
655.994	7546.59
656.186	7745.25
656.379	7366.37
656.571	7718.62
656.763	7331.56
656.955	7345.89
657.148	7431.91
657.34	7583.46
657.532	7227.11
657.724	7343.85
657.916	7270.12
658.108	7411.43
658.3	7163.62
658.492	7268.07
658.684	7089.9
658.876	7161.58
659.068	7024.36
659.26	6989.55
659.452	6977.26
659.644	6973.16
659.836	7018.22
660.028	6817.52
660.22	6784.75
660.412	6887.15
660.604	6840.04
660.796	6747.89
660.988	6723.31
661.18	6711.02
661.372	6797.04
661.563	6694.64
661.755	6530.8
661.947	6532.85
662.139	6543.09
662.331	6457.07
662.522	6420.21
662.714	6350.58
662.906	6246.13
663.097	6342.39
663.289	6293.24
663.481	6176.5
663.673	6178.55
663.864	6196.98
664.056	6151.93
664.247	6178.55
664.439	6039.29
664.631	6067.96
664.822	6194.93
665.014	5891.84
665.205	6037.24
665.397	5949.18
665.588	6039.29
665.78	5959.42
665.971	5951.23
666.163	5916.41
666.354	5842.68
666.546	5914.36
666.737	5914.36
666.929	5728
667.12	5752.57
667.311	5703.42
667.503	5701.37
667.694	5607.17
667.885	5666.56
668.077	5736.19
668.268	5598.98
668.459	5474.05
668.651	5521.15
668.842	5484.29
669.033	5680.89
669.224	5349.12
669.416	5605.12
669.607	5457.67
669.798	5308.16
669.989	5500.67
670.18	5418.75
670.371	5461.76
670.563	5273.35
670.754	5484.29
670.945	5166.85
671.136	5342.98
671.327	5095.18
671.518	5302.02
671.709	5162.76
671.9	5267.2
672.091	5183.24
672.282	5025.54
672.473	5095.18
672.664	5031.69
672.855	4990.73
673.046	4992.78
673.237	4994.83
673.428	5031.69
673.619	4919.05
673.809	5000.97
674	4974.35
674.191	5056.26
674.382	4771.6
674.573	4781.84
674.764	4814.6
674.954	4843.28
675.145	4785.93
675.336	4810.51
675.527	4878.09
675.717	4814.6
675.908	4744.97
676.099	4894.47
676.289	4802.32
676.48	4577.04
676.671	4751.12
676.861	4763.4
677.052	4540.18
677.243	4597.52
677.433	4548.37
677.624	4652.81
677.814	4482.83
678.005	4777.74
678.195	4572.94
678.386	4732.69
678.576	4550.42
678.767	4351.76
678.957	4478.74
679.148	4562.7
679.338	4493.07
679.529	4542.22
679.719	4531.98
679.909	4255.51
680.1	4515.6
680.29	4441.87
680.481	4345.62
680.671	4423.44
680.861	4347.67
681.052	4448.02
681.242	4380.43
681.432	4491.02
681.622	4427.54
681.813	4390.67
682.003	4335.38
682.193	4351.76
682.383	4345.62
682.573	4204.31
682.764	4204.31
682.954	4271.89
683.144	4212.5
683.334	4306.71
683.524	4163.35
683.714	4275.99
683.904	4304.66
684.094	4286.23
684.284	4106.01
684.474	4214.55
684.664	4296.47
684.854	4224.79
685.044	4106.01
685.234	4095.77
685.424	4130.58
685.614	4146.97
685.804	4153.11
685.994	4134.68
686.184	4052.76
686.374	4099.86
686.564	4065.05
686.753	4024.09
686.943	4083.48
687.133	3823.39
687.323	3940.12
687.513	3958.55
687.702	4007.7
687.892	3811.1
688.082	4005.66
688.272	3862.3
688.461	3905.31
688.651	3909.4
688.841	3827.48
689.03	3737.37
689.22	3720.99
689.41	3749.66
689.599	3852.06
689.789	3829.53
689.979	3802.91
690.168	3800.86
690.358	3702.56
690.547	3598.11
690.737	3675.93
690.926	3682.08
691.116	3487.52
691.305	3739.42
691.495	3602.21
691.684	3440.42
691.874	3614.49
692.063	3632.93
692.252	3540.77
692.442	3614.49
692.631	3436.32
692.82	3688.22
693.01	3489.57
693.199	3499.81
693.388	3303.2
693.578	3491.62
693.767	3436.32
693.956	3575.58
694.146	3497.76
694.335	3362.59
694.524	3258.15
694.713	3262.24
694.902	3493.66
695.092	3354.4
695.281	3346.21
695.47	3352.35
695.659	3319.59
695.848	3272.48
696.037	3233.57
696.226	3270.44
696.415	3325.73
696.604	3184.42
696.793	3270.44
696.982	3303.2
697.171	3260.2
697.36	3421.99
697.549	3180.32
697.738	3311.39
697.927	3163.94
698.116	3245.86
698.305	3215.14
698.494	3295.01
698.683	3286.82
698.872	3198.76
699.061	3174.18
699.25	3092.26
699.438	3141.41
699.627	3102.5
699.816	3243.81
700.005	3059.49
700.193	3104.55
700.382	3153.7
700.571	3204.9
700.76	3120.93
700.948	3139.37
701.137	3043.11
701.326	3082.02
701.514	3075.88
701.703	2977.58
701.892	3061.54
702.08	3157.8
702.269	3096.36
702.457	3026.73
702.646	3139.37
702.834	2963.24
703.023	3016.49
703.212	3155.75
703.4	2905.9
703.589	2959.14
703.777	3018.54
703.965	3012.39
704.154	2973.48
704.342	3061.54
704.531	2852.65
704.719	2957.1
704.907	3039.01
705.096	3077.93
705.284	2869.03
705.472	2998.06
705.661	2942.76
705.849	2844.46
706.037	2946.86
706.226	2866.99
706.414	2832.17
706.602	2797.35
706.79	2926.38
706.979	2879.27
707.167	2873.13
707.355	2764.59
707.543	2860.84
707.731	2840.36
707.919	2893.61
708.107	2895.66
708.296	2842.41
708.484	2729.77
708.672	2871.08
708.86	2762.54
709.048	2821.93
709.236	2723.63
709.424	2844.46
709.612	2778.92
709.8	2666.28
709.988	2787.11
710.176	2762.54
710.364	2713.39
710.551	2766.64
710.739	2778.92
710.927	2762.54
711.115	2719.53
711.303	2787.11
711.491	2770.73
711.679	2733.87
711.866	2860.84
712.054	2752.3
712.242	2680.62
712.43	2750.25
712.617	2756.4
712.805	2662.19
712.993	2617.13
713.181	2664.24
713.368	2733.87
713.556	2807.59
713.744	2543.41
713.931	2742.06
714.119	2623.28
714.306	2615.09
714.494	2656.04
714.682	2559.79
714.869	2582.32
715.057	2615.09
715.244	2641.71
715.432	2656.04
715.619	2615.09
715.807	2567.98
715.994	2682.67
716.182	2539.31
716.369	2606.89
716.556	2649.9
716.744	2545.45
716.931	2623.28
717.119	2647.85
717.306	2567.98
717.493	2709.29
717.681	2498.35
717.868	2479.92
718.055	2588.46
718.242	2467.63
718.43	2590.51
718.617	2484.02
718.804	2516.78
718.991	2418.48
719.179	2543.41
719.366	2377.52
719.553	2486.06
719.74	2481.97
719.927	2537.26
720.114	2524.97
720.301	2518.83
720.488	2400.05
720.676	2441.01
720.863	2488.11
721.05	2535.21
721.237	2418.48
721.424	2516.78
721.611	2488.11
721.798	2412.34
721.985	2459.44
722.172	2391.86
722.358	2590.51
722.545	2484.02
722.732	2422.58
722.919	2510.64
723.106	2404.14
723.293	2373.43
723.48	2441.01
723.667	2338.61
723.853	2348.85
724.04	2414.38
724.227	2400.05
724.414	2266.93
724.6	2424.62
724.787	2436.91
724.974	2352.95
725.161	2377.52
725.347	2354.99
725.534	2346.8
725.72	2291.51
725.907	2295.6
726.094	2395.95
726.28	2291.51
726.467	2338.61
726.653	2346.8
726.84	2346.8
727.027	2373.43
727.213	2352.95
727.4	2361.14
727.586	2254.64
727.773	2271.03
727.959	2273.07
728.145	2352.95
728.332	2322.23
728.518	2303.79
728.705	2336.56
728.891	2205.49
729.077	2193.2
729.264	2330.42
729.45	2230.07
729.636	2336.56
729.823	2393.9
730.009	2285.36
730.195	2297.65
730.382	2230.07
730.568	2332.47
730.754	2221.88
730.94	2295.6
731.126	2160.44
731.313	2311.99
731.499	2352.95
731.685	2182.96
731.871	2252.59
732.057	2406.19
732.243	2322.23
732.429	2256.69
732.615	2262.83
732.801	2240.31
732.987	2291.51
733.173	2271.03
733.359	2240.31
733.545	2209.59
733.731	2158.39
733.917	2223.92
734.103	2262.83
734.289	2027.32
734.475	2244.4
734.661	2330.42
734.847	2205.49
735.033	2113.33
735.219	2123.57
735.404	2180.92
735.59	2242.36
735.776	2185.01
735.962	2197.3
736.148	2191.16
736.333	2236.21
736.519	2096.95
736.705	2178.87
736.89	2043.7
737.076	2096.95
737.262	2068.28
737.447	2066.23
737.633	2002.74
737.819	2082.61
738.004	2105.14
738.19	2121.52
738.375	2033.46
738.561	2176.82
738.747	2078.52
738.932	2107.19
739.118	2121.52
739.303	2119.48
739.489	1974.07
739.674	2062.13
739.859	2051.89
740.045	2043.7
740.23	2096.95
740.416	1965.88
740.601	2012.98
740.786	2066.23
740.972	2017.08
741.157	1996.6
741.342	1967.93
741.528	1920.82
741.713	2027.32
741.898	2039.61
742.084	1896.25
742.269	2043.7
742.454	1855.29
742.639	1943.35
742.824	1840.95
743.01	1926.97
743.195	1875.77
743.38	1947.45
743.565	1898.3
743.75	1988.41
743.935	1838.91
744.12	1902.39
744.305	1824.57
744.49	1877.82
744.675	1904.44
744.86	1806.14
745.045	1943.35
745.23	1849.15
745.415	1818.43
745.6	1853.24
745.785	1777.47
745.97	1871.67
746.155	1763.13
746.34	1836.86
746.525	1689.4
746.71	1759.03
746.895	1640.25
747.079	1685.31
747.264	1644.35
747.449	1795.9
747.634	1726.27
747.819	1613.63
748.003	1675.07
748.188	1650.49
748.373	1673.02
748.557	1738.55
748.742	1593.15
748.927	1701.69
749.111	1580.86
749.296	1589.05
749.481	1664.83
749.665	1640.25
749.85	1517.37
750.034	1550.14
750.219	1566.53
750.404	1550.14
750.588	1582.91
750.773	1484.61
750.957	1570.62
751.141	1584.96
751.326	1595.2
751.51	1507.13
751.695	1470.27
751.879	1449.79
752.064	1505.09
752.248	1406.78
752.432	1404.74
752.617	1455.94
752.801	1509.18
752.985	1396.54
753.17	1474.37
753.354	1427.26
753.538	1353.54
753.722	1292.1
753.907	1396.54
754.091	1318.72
754.275	1308.48
754.459	1312.58
754.643	1240.9
754.828	1257.28
755.012	1312.58
755.196	1312.58
755.38	1267.52
755.564	1226.56
755.748	1316.67
755.932	1197.89
756.116	1189.7
756.3	1132.36
756.484	1169.22
756.668	1242.95
756.852	1183.56
757.036	1191.75
757.22	1118.02
757.404	1189.7
757.588	1095.49
757.772	1189.7
757.956	1206.08
758.14	1152.84
758.323	1111.88
758.507	1005.38
758.691	1099.59
758.875	1148.74
759.059	1089.35
759.242	980.81
759.426	1238.85
759.61	1161.03
759.794	1025.86
759.977	1197.89
760.161	1201.99
760.345	1050.44
760.528	1079.11
760.712	1058.63
760.895	1046.34
761.079	1070.92
761.263	960.33
761.446	888.65
761.63	1050.44
761.813	1058.63
761.997	1042.25
762.18	972.61
762.364	993.09
762.547	980.81
762.731	968.52
762.914	1013.57
763.098	1017.67
763.281	935.75
763.464	937.8
763.648	956.23
763.831	937.8
764.015	962.37
764.198	894.79
764.381	1036.1
764.564	900.94
764.748	933.7
764.931	898.89
765.114	960.33
765.297	1025.86
765.481	894.79
765.664	952.13
765.847	874.31
766.03	927.56
766.213	882.5
766.397	829.26
766.58	825.16
766.763	886.6
766.946	780.11
767.129	823.11
767.312	804.68
767.495	819.02
767.678	780.11
767.861	866.12
768.044	806.73
768.227	888.65
768.41	841.54
768.593	821.06
768.776	812.87
768.959	866.12
769.142	778.06
769.324	802.63
769.507	784.2
769.69	806.73
769.873	800.59
770.056	821.06
770.239	825.16
770.421	864.07
770.604	708.43
770.787	792.39
770.97	761.67
771.152	767.82
771.335	802.63
771.518	714.57
771.7	722.76
771.883	841.54
772.066	821.06
772.248	802.63
772.431	808.78
772.613	808.78
772.796	790.35
772.978	780.11
773.161	765.77
773.343	692.04
773.526	673.61
773.708	706.38
773.891	718.67
774.073	751.43
774.256	689.99
774.438	849.74
774.621	665.42
774.803	743.24
774.985	710.47
775.168	739.15
775.35	673.61
775.532	624.46
775.715	632.65
775.897	685.9
776.079	632.65
776.261	599.88
776.444	653.13
776.626	694.09
776.808	520.01
776.99	659.28
777.173	626.51
777.355	616.27
777.537	626.51
777.719	595.79
777.901	579.4
778.083	653.13
778.265	542.54
778.447	616.27
778.629	577.36
778.811	569.16
778.993	620.36
779.175	591.69
779.357	511.82
779.539	517.97
779.721	601.93
779.903	599.88
780.085	499.53
780.267	540.49
780.449	499.53
780.631	587.6
780.812	509.77
780.994	454.48
781.176	517.97
781.358	481.1
781.54	517.97
781.721	581.45
781.903	550.73
782.085	446.29
782.267	485.2
782.448	505.68
782.63	499.53
782.812	534.35
782.993	550.73
783.175	454.48
783.357	485.2
783.538	468.81
783.72	526.16
783.901	462.67
784.083	481.1
784.264	493.39
784.446	395.09
784.627	452.43
784.809	479.05
784.99	427.85
785.172	462.67
785.353	403.28
785.535	413.52
785.716	405.33
785.897	362.32
786.079	413.52
786.26	499.53
786.441	429.9
786.623	327.5
786.804	464.72
786.985	403.28
787.167	419.66
787.348	354.13
787.529	397.14
787.71	462.67
787.891	347.98
788.073	509.77
788.254	345.94
788.435	431.95
788.616	364.37
788.797	325.46
788.978	347.98
789.159	364.37
789.34	413.52
789.522	341.84
789.703	364.37
789.884	440.14
790.065	307.02
790.246	362.32
790.427	339.79
790.607	360.27
790.788	300.88
790.969	339.79
791.15	411.47
791.331	302.93
791.512	427.85
791.693	317.26
791.874	329.55
792.054	345.94
792.235	325.46
792.416	313.17
792.597	229.2
792.778	335.7
792.958	397.14
793.139	280.4
793.32	345.94
793.5	251.73
793.681	370.51
793.862	300.88
794.042	272.21
794.223	337.74
794.404	323.41
794.584	309.07
794.765	292.69
794.945	296.78
795.126	345.94
795.306	321.36
795.487	284.5
795.667	194.39
795.848	313.17
796.028	315.22
796.209	249.68
796.389	321.36
796.57	296.78
796.75	259.92
796.93	259.92
797.111	264.02
797.291	259.92
797.471	268.11
797.652	272.21
797.832	225.11
798.012	288.59
798.192	257.87
798.373	190.29
798.553	229.2
798.733	218.96
798.913	214.87
799.093	266.07
799.274	223.06
799.454	278.35
799.634	233.3
799.814	333.65
799.994	255.83
800.174	302.93
800.354	184.15
800.534	186.19
800.714	309.07
800.894	184.15
801.074	266.07
801.254	169.81
801.434	261.97
801.614	223.06
801.794	233.3
801.974	788.3
802.154	235.35
802.334	141.14
802.514	198.48
802.693	229.2
802.873	167.76
803.053	280.4
803.233	208.72
803.413	198.48
803.592	190.29
803.772	249.68
803.952	159.57
804.131	165.71
804.311	225.11
804.491	208.72
804.67	227.15
804.85	200.53
805.03	214.87
805.209	210.77
805.389	227.15
805.568	149.33
805.748	167.76
805.928	173.91
806.107	173.91
806.287	190.29
806.466	223.06
806.646	167.76
806.825	206.67
807.004	184.15
807.184	175.95
807.363	237.39
807.543	175.95
807.722	169.81
807.901	196.43
808.081	204.63
808.26	141.14
808.439	190.29
808.619	153.43
808.798	159.57
808.977	182.1
809.156	218.96
809.336	149.33
809.515	167.76
809.694	163.67
809.873	173.91
810.052	178
810.231	223.06
810.411	151.38
810.59	194.39
810.769	173.91
810.948	167.76
811.127	126.8
811.306	190.29
811.485	63.32
811.664	163.67
811.843	122.71
812.022	210.77
812.201	173.91
812.38	149.33
812.559	67.41
812.737	169.81
812.916	124.76
813.095	135
813.274	198.48
813.453	200.53
813.632	255.83
813.811	167.76
813.989	149.33
814.168	173.91
814.347	79.7
814.526	124.76
814.704	116.56
814.883	132.95
815.062	91.99
815.24	167.76
815.419	182.1
815.598	167.76
815.776	173.91
815.955	110.42
816.133	20.31
816.312	79.7
816.49	137.04
816.669	161.62
816.847	89.94
817.026	157.52
817.204	171.86
817.383	102.23
817.561	112.47
817.74	126.8
817.918	153.43
818.097	132.95
818.275	59.22
818.453	96.08
818.632	165.71
818.81	94.04
818.988	126.8
819.167	112.47
819.345	126.8
819.523	100.18
819.701	157.52
819.879	100.18
820.058	100.18
820.236	157.52
820.414	55.12
820.592	63.32
820.77	141.14
820.948	114.52
821.127	159.57
821.305	157.52
821.483	51.03
821.661	135
821.839	77.65
822.017	132.95
822.195	151.38
822.373	200.53
822.551	110.42
822.729	143.19
822.907	182.1
823.085	89.94
823.262	137.04
823.44	132.95
823.618	149.33
823.796	157.52
823.974	83.8
824.152	157.52
824.329	145.24
824.507	83.8
824.685	137.04
824.863	108.37
825.04	118.61
825.218	124.76
825.396	110.42
825.574	116.56
825.751	77.65
825.929	118.61
826.107	42.84
826.284	104.28
826.462	149.33
826.639	79.7
826.817	69.46
826.994	104.28
827.172	67.41
827.349	188.24
827.527	130.9
827.704	118.61
827.882	85.84
828.059	53.08
828.237	114.52
828.414	102.23
828.591	137.04
828.769	89.94
828.946	83.8
829.124	77.65
829.301	151.38
829.478	85.84
829.655	30.55
829.833	71.51
830.01	122.71
830.187	85.84
830.364	14.17
830.542	143.19
830.719	126.8
830.896	94.04
831.073	96.08
831.25	59.22
831.427	100.18
831.604	69.46
831.782	51.03
831.959	-6.31
832.136	128.85
832.313	59.22
832.49	-10.41
832.667	108.37
832.844	77.65
833.021	51.03
833.198	116.56
833.374	91.99
833.551	26.45
833.728	42.84
833.905	34.64
834.082	83.8
834.259	132.95
834.436	182.1
834.612	24.4
834.789	116.56
834.966	77.65
835.143	85.84
835.319	46.93
835.496	145.24
835.673	135
835.85	128.85
836.026	57.17
836.203	89.94
836.38	83.8
836.556	71.51
836.733	169.81
836.909	91.99
837.086	32.6
837.262	77.65
837.439	118.61
837.616	81.75
837.792	91.99
837.968	79.7
838.145	94.04
838.321	141.14
838.498	118.61
838.674	124.76
838.851	130.9
839.027	46.93
839.203	18.26
839.38	65.36
839.556	85.84
839.732	190.29
839.909	51.03
840.085	112.47
840.261	26.45
840.437	71.51
840.614	108.37
840.79	137.04
840.966	32.6
841.142	69.46
841.318	16.21
841.494	85.84
841.671	71.51
841.847	20.31
842.023	59.22
842.199	65.36
842.375	85.84
842.551	42.84
842.727	5.97
842.903	110.42
843.079	32.6
843.255	91.99
843.431	59.22
843.607	36.69
843.783	18.26
843.959	42.84
844.134	10.07
844.31	20.31
844.486	34.64
844.662	94.04
844.838	63.32
845.013	67.41
845.189	96.08
845.365	112.47
845.541	73.56
845.716	73.56
845.892	65.36
846.068	-18.6
846.244	63.32
846.419	63.32
846.595	83.8
846.77	42.84
846.946	51.03
847.122	98.13
847.297	18.26
847.473	69.46
847.648	-8.36
847.824	75.6
847.999	69.46
848.175	124.76
848.35	104.28
848.526	108.37
848.701	28.5
848.876	85.84
849.052	89.94
849.227	67.41
849.403	3.93
849.578	57.17
849.753	-18.6
849.929	63.32
850.104	36.69
850.279	12.12
850.454	32.6
850.63	53.08
850.805	77.65
850.98	75.6
851.155	34.64
851.33	55.12
851.505	63.32
851.681	79.7
851.856	26.45
852.031	48.98
852.206	100.18
852.381	5.97
852.556	26.45
852.731	26.45
852.906	42.84
853.081	98.13
853.256	67.41
853.431	20.31
853.606	1.88
853.781	-96.43
853.956	-24.75
854.131	18.26
854.305	40.79
854.48	38.74
854.655	53.08
854.83	69.46
855.005	34.64
855.18	46.93
855.354	22.36
855.529	112.47
855.704	55.12
855.879	69.46
856.053	34.64
856.228	77.65
856.403	26.45
856.577	12.12
856.752	10.07
856.926	67.41
857.101	36.69
857.276	44.88
857.45	3.93
857.625	22.36
857.799	69.46
857.974	51.03
858.148	65.36
858.323	81.75
858.497	1.88
858.672	18.26
858.846	26.45
859.02	-28.84
859.195	34.64
859.369	-6.31
859.543	69.46
859.718	44.88
859.892	24.4
860.066	89.94
860.241	116.56
860.415	10.07
860.589	30.55
860.763	-2.22
860.938	-8.36
861.112	14.17
861.286	79.7
861.46	34.64
861.634	-20.65
861.808	98.13
861.982	-2.22
862.157	-51.37
862.331	-2.22
862.505	16.21
862.679	-20.65
862.853	69.46
863.027	30.55
863.201	59.22
863.375	77.65
863.549	51.03
863.722	3.93
863.896	51.03
864.07	-14.51
864.244	67.41
864.418	20.31
864.592	75.6
864.766	55.12
864.939	-24.75
865.113	-6.31
865.287	22.36
865.461	-6.31
865.634	63.32
865.808	18.26
865.982	61.27
866.156	-45.23
866.329	51.03
866.503	91.99
866.676	91.99
866.85	28.5
867.024	42.84
867.197	57.17
867.371	16.21
867.544	42.84
867.718	-2.22
867.891	53.08
868.065	51.03
868.238	-14.51
868.412	59.22
868.585	12.12
868.759	12.12
868.932	-63.66
869.105	10.07
869.279	65.36
869.452	-6.31
869.625	18.26
869.799	36.69
869.972	12.12
870.145	91.99
870.319	34.64
870.492	16.21
870.665	61.27
870.838	36.69
871.011	-6.31
871.185	24.4
871.358	30.55
871.531	8.02
871.704	20.31
871.877	57.17
872.05	20.31
872.223	14.17
872.396	61.27
872.569	55.12
872.742	3.93
872.915	69.46
873.088	-47.27
873.261	87.89
873.434	46.93
873.607	-10.41
873.78	26.45
873.953	18.26
874.126	22.36
874.299	18.26
874.471	-34.99
874.644	12.12
874.817	44.88
874.99	14.17
875.163	53.08
875.335	100.18
875.508	59.22
875.681	79.7
875.853	16.21
876.026	-18.6
876.199	73.56
876.371	26.45
876.544	18.26
876.717	18.26
876.889	63.32
877.062	38.74
877.234	79.7
877.407	10.07
877.579	-30.89
877.752	120.66
877.924	10.07
878.097	1.88
878.269	100.18
878.442	71.51
878.614	34.64
878.786	34.64
878.959	10.07
879.131	30.55
879.303	-43.18
879.476	-30.89
879.648	44.88
879.82	42.84
879.993	12.12
880.165	51.03
880.337	8.02
880.509	-18.6
880.681	-41.13
880.854	-67.75
881.026	46.93
881.198	28.5
881.37	128.85
881.542	38.74
881.714	18.26
881.886	-63.66
882.058	51.03
882.23	-10.41
882.402	-37.03
882.574	55.12
882.746	-6.31
882.918	79.7
883.09	5.97
883.262	3.93
883.434	-67.75
883.606	-14.51
883.778	-45.23
883.95	28.5
884.122	-4.27
884.293	67.41
884.465	34.64
884.637	69.46
884.809	14.17
884.98	3.93
885.152	34.64
885.324	67.41
885.496	28.5
885.667	36.69
885.839	-22.7
886.011	73.56
886.182	1.88
886.354	75.6
886.525	67.41
886.697	32.6
886.869	-6.31
887.04	-16.55
887.212	149.33
887.383	104.28
887.555	26.45
887.726	46.93
887.897	55.12
888.069	100.18
888.24	28.5
888.412	42.84
888.583	-104.62
888.754	42.84
888.926	-28.84
889.097	-2.22
889.268	-41.13
889.44	-18.6
889.611	-28.84
889.782	30.55
889.953	34.64
890.125	36.69
890.296	26.45
890.467	30.55
890.638	-22.7
890.809	30.55
890.98	-28.84
891.151	83.8
891.323	12.12
891.494	30.55
891.665	30.55
891.836	42.84
892.007	-47.27
892.178	5.97
892.349	46.93
892.52	-14.51
892.691	59.22
892.862	73.56
893.032	-59.56
893.203	-43.18
893.374	59.22
893.545	67.41
893.716	26.45
893.887	-4.27
894.057	-18.6
894.228	-18.6
894.399	-57.51
894.57	12.12
894.74	-47.27
894.911	-14.51
895.082	36.69
895.253	-43.18
895.423	-10.41
895.594	3.93
895.764	14.17
895.935	-18.6
896.106	69.46
896.276	34.64
896.447	-2.22
896.617	18.26
896.788	-14.51
896.958	-34.99
897.129	-30.89
897.299	-2.22
897.47	69.46
897.64	89.94
897.81	85.84
897.981	-63.66
898.151	71.51
898.322	5.97
898.492	44.88
898.662	42.84
898.832	28.5
899.003	65.36
899.173	5.97
899.343	-20.65
899.513	-20.65
