Data from USB4F104151__288__14-23-46-076.txt Node

Date: Thu Mar 13 14:23:46 EDT 2025
User: louis
Spectrometer: USB4F10415
Trigger mode: 4
Integration Time (sec): 2.000000E-2
Scans to average: 1
Electric dark correction enabled: true
Nonlinearity correction enabled: false
Boxcar width: 0
XAxis mode: Wavelengths
Number of Pixels in Spectrum: 3648
>>>>>Begin Spectral Data<<<<<
178.204	-98.3
178.424	-98.3
178.644	-98.3
178.864	-40.96
179.084	-75.77
179.304	12.29
179.524	-8.19
179.744	30.72
179.964	94.21
180.184	6.14
180.404	-14.34
180.624	-53.25
180.844	-16.38
181.064	4.1
181.283	-30.72
181.503	30.72
181.723	-55.3
181.943	-2.05
182.163	43.01
182.383	8.19
182.602	55.3
182.822	10.24
183.042	-47.1
183.262	6.14
183.482	-57.34
183.701	-10.24
183.921	22.53
184.141	-26.62
184.361	18.43
184.58	47.1
184.8	10.24
185.02	71.68
185.239	30.72
185.459	100.35
185.679	63.49
185.898	-22.53
186.118	96.25
186.338	59.39
186.557	75.77
186.777	59.39
186.997	67.58
187.216	16.38
187.436	79.87
187.655	47.1
187.875	6.14
188.095	16.38
188.314	-2.05
188.534	73.73
188.753	-32.77
188.973	55.3
189.192	65.53
189.412	2.05
189.631	55.3
189.851	24.58
190.07	67.58
190.29	40.96
190.509	28.67
190.729	-30.72
190.948	59.39
191.168	106.49
191.387	157.69
191.607	-14.34
191.826	10.24
192.045	22.53
192.265	20.48
192.484	69.63
192.704	-8.19
192.923	20.48
193.142	112.64
193.362	43.01
193.581	126.97
193.8	106.49
194.02	34.82
194.239	6.14
194.458	22.53
194.678	38.91
194.897	38.91
195.116	88.06
195.335	40.96
195.555	-20.48
195.774	112.64
195.993	71.68
196.212	47.1
196.432	-10.24
196.651	40.96
196.87	51.2
197.089	92.16
197.308	77.82
197.528	53.25
197.747	26.62
197.966	30.72
198.185	139.26
198.404	22.53
198.623	47.1
198.842	63.49
199.062	4.1
199.281	38.91
199.5	16.38
199.719	38.91
199.938	63.49
200.157	71.68
200.376	38.91
200.595	24.58
200.814	43.01
201.033	65.53
201.252	73.73
201.471	45.06
201.69	55.3
201.909	92.16
202.128	34.82
202.347	-6.14
202.566	16.38
202.785	20.48
203.004	-8.19
203.223	100.35
203.442	92.16
203.661	108.54
203.879	32.77
204.098	30.72
204.317	49.15
204.536	28.67
204.755	71.68
204.974	14.34
205.193	-2.05
205.411	116.73
205.63	49.15
205.849	116.73
206.068	57.34
206.287	12.29
206.505	69.63
206.724	-10.24
206.943	36.86
207.162	30.72
207.381	55.3
207.599	-2.05
207.818	6.14
208.037	6.14
208.255	38.91
208.474	-0
208.693	75.77
208.911	22.53
209.13	40.96
209.349	75.77
209.567	49.15
209.786	98.3
210.005	61.44
210.223	94.21
210.442	-32.77
210.661	43.01
210.879	65.53
211.098	88.06
211.316	71.68
211.535	24.58
211.753	6.14
211.972	73.73
212.191	61.44
212.409	38.91
212.628	-6.14
212.846	65.53
213.065	-6.14
213.283	79.87
213.502	43.01
213.72	88.06
213.938	55.3
214.157	110.59
214.375	71.68
214.594	22.53
214.812	2.05
215.031	96.25
215.249	51.2
215.467	8.19
215.686	10.24
215.904	75.77
216.122	53.25
216.341	34.82
216.559	34.82
216.778	65.53
216.996	57.34
217.214	43.01
217.432	30.72
217.651	4.1
217.869	26.62
218.087	79.87
218.306	83.97
218.524	65.53
218.742	32.77
218.96	6.14
219.179	6.14
219.397	16.38
219.615	116.73
219.833	49.15
220.051	79.87
220.27	22.53
220.488	161.79
220.706	73.73
220.924	40.96
221.142	16.38
221.36	133.12
221.578	92.16
221.796	30.72
222.015	-43.01
222.233	-6.14
222.451	114.69
222.669	-18.43
222.887	2.05
223.105	61.44
223.323	22.53
223.541	43.01
223.759	120.83
223.977	-8.19
224.195	22.53
224.413	32.77
224.631	100.35
224.849	-18.43
225.067	49.15
225.285	86.01
225.503	22.53
225.721	18.43
225.939	92.16
226.157	24.58
226.375	145.41
226.592	2.05
226.81	75.77
227.028	38.91
227.246	59.39
227.464	71.68
227.682	47.1
227.9	73.73
228.117	26.62
228.335	104.45
228.553	-32.77
228.771	-18.43
228.989	90.11
229.206	92.16
229.424	63.49
229.642	65.53
229.86	-14.34
230.077	40.96
230.295	18.43
230.513	73.73
230.731	63.49
230.948	65.53
231.166	73.73
231.384	38.91
231.601	43.01
231.819	30.72
232.037	26.62
232.254	10.24
232.472	43.01
232.689	-0
232.907	83.97
233.125	43.01
233.342	114.69
233.56	-4.1
233.777	38.91
233.995	83.97
234.213	92.16
234.43	81.92
234.648	88.06
234.865	51.2
235.083	32.77
235.3	45.06
235.518	71.68
235.735	88.06
235.953	10.24
236.17	-32.77
236.388	63.49
236.605	104.45
236.822	38.91
237.04	96.25
237.257	30.72
237.475	6.14
237.692	2.05
237.909	63.49
238.127	49.15
238.344	55.3
238.562	40.96
238.779	57.34
238.996	49.15
239.214	-6.14
239.431	73.73
239.648	49.15
239.865	63.49
240.083	22.53
240.3	16.38
240.517	122.88
240.735	53.25
240.952	90.11
241.169	6.14
241.386	38.91
241.603	43.01
241.821	36.86
242.038	114.69
242.255	102.4
242.472	-6.14
242.689	57.34
242.907	88.06
243.124	32.77
243.341	38.91
243.558	-10.24
243.775	14.34
243.992	57.34
244.209	55.3
244.426	104.45
244.643	24.58
244.86	30.72
245.078	67.58
245.295	-26.62
245.512	6.14
245.729	88.06
245.946	24.58
246.163	8.19
246.38	77.82
246.597	16.38
246.814	24.58
247.031	61.44
247.248	18.43
247.464	55.3
247.681	14.34
247.898	-2.05
248.115	67.58
248.332	14.34
248.549	47.1
248.766	98.3
248.983	20.48
249.2	-14.34
249.417	63.49
249.633	-28.67
249.85	88.06
250.067	18.43
250.284	-0
250.501	26.62
250.717	18.43
250.934	-57.34
251.151	51.2
251.368	-47.1
251.585	122.88
251.801	69.63
252.018	10.24
252.235	55.3
252.451	-16.38
252.668	55.3
252.885	47.1
253.102	24.58
253.318	59.39
253.535	36.86
253.752	30.72
253.968	32.77
254.185	24.58
254.401	63.49
254.618	129.02
254.835	20.48
255.051	57.34
255.268	30.72
255.484	38.91
255.701	112.64
255.917	122.88
256.134	-12.29
256.351	26.62
256.567	-2.05
256.784	63.49
257	30.72
257.217	43.01
257.433	38.91
257.65	-32.77
257.866	4.1
258.082	6.14
258.299	49.15
258.515	81.92
258.732	49.15
258.948	40.96
259.165	51.2
259.381	-65.54
259.597	-16.38
259.814	-6.14
260.03	30.72
260.246	61.44
260.463	92.16
260.679	30.72
260.895	98.3
261.112	-10.24
261.328	6.14
261.544	-18.43
261.761	38.91
261.977	14.34
262.193	-67.58
262.409	92.16
262.626	96.25
262.842	57.34
263.058	-30.72
263.274	22.53
263.49	30.72
263.707	122.88
263.923	61.44
264.139	38.91
264.355	81.92
264.571	-0
264.787	45.06
265.004	131.07
265.22	43.01
265.436	-20.48
265.652	14.34
265.868	6.14
266.084	43.01
266.3	40.96
266.516	6.14
266.732	34.82
266.948	43.01
267.164	24.58
267.38	96.25
267.596	55.3
267.812	86.01
268.028	-57.34
268.244	20.48
268.46	34.82
268.676	6.14
268.892	133.12
269.108	73.73
269.324	-28.67
269.54	-10.24
269.756	47.1
269.972	43.01
270.188	22.53
270.403	12.29
270.619	81.92
270.835	51.2
271.051	8.19
271.267	51.2
271.483	-10.24
271.698	112.64
271.914	24.58
272.13	38.91
272.346	16.38
272.562	2.05
272.777	92.16
272.993	-2.05
273.209	45.06
273.425	96.25
273.64	28.67
273.856	-40.96
274.072	2.05
274.287	-30.72
274.503	51.2
274.719	73.73
274.934	22.53
275.15	-53.25
275.366	86.01
275.581	57.34
275.797	-43.01
276.012	34.82
276.228	-10.24
276.444	-14.34
276.659	112.64
276.875	10.24
277.09	67.58
277.306	-34.82
277.521	30.72
277.737	12.29
277.952	57.34
278.168	47.1
278.383	55.3
278.599	59.39
278.814	67.58
279.03	38.91
279.245	63.49
279.461	45.06
279.676	51.2
279.892	30.72
280.107	112.64
280.322	47.1
280.538	51.2
280.753	49.15
280.969	12.29
281.184	57.34
281.399	143.36
281.615	-8.19
281.83	-14.34
282.045	-8.19
282.26	26.62
282.476	4.1
282.691	63.49
282.906	18.43
283.122	59.39
283.337	43.01
283.552	-10.24
283.767	-20.48
283.983	30.72
284.198	98.3
284.413	51.2
284.628	-0
284.843	61.44
285.058	92.16
285.274	18.43
285.489	28.67
285.704	59.39
285.919	-8.19
286.134	59.39
286.349	43.01
286.564	73.73
286.779	63.49
286.995	-6.14
287.21	24.58
287.425	71.68
287.64	38.91
287.855	14.34
288.07	30.72
288.285	18.43
288.5	112.64
288.715	75.77
288.93	59.39
289.145	81.92
289.36	67.58
289.575	96.25
289.79	73.73
290.004	6.14
290.219	10.24
290.434	71.68
290.649	18.43
290.864	22.53
291.079	14.34
291.294	24.58
291.509	10.24
291.724	-6.14
291.938	51.2
292.153	47.1
292.368	-43.01
292.583	57.34
292.798	-2.05
293.012	88.06
293.227	59.39
293.442	14.34
293.657	79.87
293.871	88.06
294.086	55.3
294.301	131.07
294.516	83.97
294.73	57.34
294.945	28.67
295.16	18.43
295.374	38.91
295.589	32.77
295.804	36.86
296.018	30.72
296.233	43.01
296.447	77.82
296.662	47.1
296.877	49.15
297.091	96.25
297.306	30.72
297.52	38.91
297.735	90.11
297.949	71.68
298.164	65.53
298.378	55.3
298.593	34.82
298.807	63.49
299.022	38.91
299.236	43.01
299.451	83.97
299.665	34.82
299.88	77.82
300.094	-6.14
300.309	38.91
300.523	40.96
300.737	51.2
300.952	6.14
301.166	24.58
301.381	49.15
301.595	57.34
301.809	59.39
302.024	22.53
302.238	47.1
302.452	79.87
302.667	49.15
302.881	22.53
303.095	47.1
303.309	43.01
303.524	45.06
303.738	61.44
303.952	71.68
304.166	79.87
304.381	53.25
304.595	22.53
304.809	16.38
305.023	30.72
305.237	116.73
305.452	-0
305.666	47.1
305.88	51.2
306.094	-8.19
306.308	34.82
306.522	77.82
306.736	49.15
306.95	14.34
307.164	55.3
307.379	96.25
307.593	88.06
307.807	-10.24
308.021	49.15
308.235	30.72
308.449	28.67
308.663	16.38
308.877	71.68
309.091	-6.14
309.305	65.53
309.519	-10.24
309.733	67.58
309.947	55.3
310.161	83.97
310.374	45.06
310.588	83.97
310.802	26.62
311.016	69.63
311.23	63.49
311.444	-2.05
311.658	47.1
311.872	73.73
312.085	92.16
312.299	112.64
312.513	98.3
312.727	79.87
312.941	-30.72
313.154	10.24
313.368	43.01
313.582	81.92
313.796	24.58
314.009	67.58
314.223	106.49
314.437	63.49
314.651	83.97
314.864	-0
315.078	38.91
315.292	-2.05
315.505	32.77
315.719	45.06
315.933	86.01
316.146	36.86
316.36	8.19
316.573	-53.25
316.787	16.38
317.001	120.83
317.214	-88.06
317.428	67.58
317.641	65.53
317.855	-10.24
318.068	34.82
318.282	38.91
318.495	122.88
318.709	30.72
318.922	40.96
319.136	96.25
319.349	81.92
319.563	10.24
319.776	18.43
319.99	38.91
320.203	-4.1
320.417	55.3
320.63	49.15
320.843	51.2
321.057	67.58
321.27	59.39
321.483	110.59
321.697	67.58
321.91	38.91
322.124	81.92
322.337	45.06
322.55	30.72
322.763	-10.24
322.977	-2.05
323.19	96.25
323.403	86.01
323.617	65.53
323.83	79.87
324.043	10.24
324.256	96.25
324.469	38.91
324.683	73.73
324.896	63.49
325.109	22.53
325.322	63.49
325.535	65.53
325.748	22.53
325.962	-6.14
326.175	65.53
326.388	79.87
326.601	61.44
326.814	67.58
327.027	112.64
327.24	120.83
327.453	-38.91
327.666	24.58
327.879	49.15
328.092	18.43
328.305	6.14
328.518	6.14
328.731	-4.1
328.944	24.58
329.157	30.72
329.37	-2.05
329.583	-24.58
329.796	8.19
330.009	104.45
330.222	16.38
330.435	133.12
330.648	63.49
330.861	104.45
331.073	40.96
331.286	96.25
331.499	102.4
331.712	18.43
331.925	-8.19
332.138	-2.05
332.35	137.21
332.563	63.49
332.776	112.64
332.989	-47.1
333.202	10.24
333.414	-8.19
333.627	38.91
333.84	51.2
334.053	98.3
334.265	22.53
334.478	57.34
334.691	32.77
334.903	55.3
335.116	83.97
335.329	73.73
335.541	40.96
335.754	38.91
335.966	65.53
336.179	131.07
336.392	-8.19
336.604	79.87
336.817	-32.77
337.029	53.25
337.242	63.49
337.454	55.3
337.667	30.72
337.88	112.64
338.092	51.2
338.305	59.39
338.517	63.49
338.729	63.49
338.942	100.35
339.154	96.25
339.367	43.01
339.579	63.49
339.792	-14.34
340.004	49.15
340.217	92.16
340.429	73.73
340.641	-8.19
340.854	63.49
341.066	104.45
341.278	104.45
341.491	153.6
341.703	75.77
341.915	22.53
342.128	45.06
342.34	16.38
342.552	18.43
342.764	73.73
342.977	63.49
343.189	-0
343.401	-12.29
343.613	14.34
343.826	96.25
344.038	63.49
344.25	6.14
344.462	57.34
344.674	81.92
344.886	126.97
345.099	6.14
345.311	59.39
345.523	16.38
345.735	26.62
345.947	98.3
346.159	43.01
346.371	90.11
346.583	34.82
346.795	22.53
347.007	86.01
347.219	14.34
347.431	110.59
347.643	32.77
347.855	65.53
348.067	75.77
348.279	22.53
348.491	69.63
348.703	155.65
348.915	-18.43
349.127	38.91
349.339	79.87
349.551	-6.14
349.763	-26.62
349.975	88.06
350.187	6.14
350.399	40.96
350.61	71.68
350.822	30.72
351.034	-0
351.246	92.16
351.458	81.92
351.669	30.72
351.881	106.49
352.093	63.49
352.305	120.83
352.517	6.14
352.728	53.25
352.94	73.73
353.152	124.93
353.363	22.53
353.575	88.06
353.787	26.62
353.999	10.24
354.21	51.2
354.422	14.34
354.633	118.78
354.845	153.6
355.057	55.3
355.268	14.34
355.48	26.62
355.692	57.34
355.903	90.11
356.115	67.58
356.326	51.2
356.538	88.06
356.749	98.3
356.961	24.58
357.172	18.43
357.384	57.34
357.595	172.03
357.807	14.34
358.018	30.72
358.23	79.87
358.441	51.2
358.653	90.11
358.864	71.68
359.075	88.06
359.287	59.39
359.498	65.53
359.709	45.06
359.921	20.48
360.132	34.82
360.344	55.3
360.555	71.68
360.766	40.96
360.977	55.3
361.189	108.54
361.4	61.44
361.611	114.69
361.823	-18.43
362.034	61.44
362.245	-10.24
362.456	137.21
362.667	16.38
362.879	67.58
363.09	-0
363.301	120.83
363.512	32.77
363.723	-20.48
363.935	20.48
364.146	88.06
364.357	-28.67
364.568	96.25
364.779	65.53
364.99	104.45
365.201	34.82
365.412	49.15
365.623	18.43
365.834	75.77
366.045	30.72
366.256	47.1
366.467	57.34
366.678	40.96
366.889	67.58
367.1	-6.14
367.311	32.77
367.522	57.34
367.733	47.1
367.944	96.25
368.155	40.96
368.366	22.53
368.577	57.34
368.788	131.07
368.999	65.53
369.209	32.77
369.42	161.79
369.631	16.38
369.842	67.58
370.053	22.53
370.264	24.58
370.474	96.25
370.685	55.3
370.896	-8.19
371.107	14.34
371.317	120.83
371.528	40.96
371.739	36.86
371.95	71.68
372.16	47.1
372.371	57.34
372.582	55.3
372.792	71.68
373.003	55.3
373.214	47.1
373.424	108.54
373.635	30.72
373.846	38.91
374.056	131.07
374.267	98.3
374.477	67.58
374.688	61.44
374.898	75.77
375.109	63.49
375.319	8.19
375.53	139.26
375.74	98.3
375.951	63.49
376.161	16.38
376.372	59.39
376.582	38.91
376.793	38.91
377.003	-14.34
377.214	55.3
377.424	34.82
377.635	92.16
377.845	61.44
378.055	139.26
378.266	32.77
378.476	40.96
378.686	88.06
378.897	63.49
379.107	55.3
379.317	22.53
379.528	-40.96
379.738	55.3
379.948	79.87
380.158	96.25
380.369	49.15
380.579	122.88
380.789	28.67
380.999	92.16
381.21	112.64
381.42	65.53
381.63	45.06
381.84	55.3
382.05	2.05
382.261	34.82
382.471	57.34
382.681	79.87
382.891	24.58
383.101	81.92
383.311	18.43
383.521	77.82
383.731	124.93
383.941	67.58
384.151	18.43
384.361	71.68
384.571	71.68
384.781	81.92
384.991	149.5
385.201	104.45
385.411	-2.05
385.621	53.25
385.831	73.73
386.041	75.77
386.251	67.58
386.461	129.02
386.671	14.34
386.881	100.35
387.091	65.53
387.301	47.1
387.511	81.92
387.72	38.91
387.93	83.97
388.14	34.82
388.35	61.44
388.56	20.48
388.769	16.38
388.979	65.53
389.189	-18.43
389.399	81.92
389.609	43.01
389.818	112.64
390.028	88.06
390.238	28.67
390.447	-0
390.657	90.11
390.867	57.34
391.076	88.06
391.286	59.39
391.496	75.77
391.705	139.26
391.915	153.6
392.125	116.73
392.334	88.06
392.544	96.25
392.753	47.1
392.963	108.54
393.172	51.2
393.382	16.38
393.591	112.64
393.801	112.64
394.01	149.5
394.22	49.15
394.429	108.54
394.639	92.16
394.848	63.49
395.058	-2.05
395.267	38.91
395.477	100.35
395.686	118.78
395.895	90.11
396.105	131.07
396.314	47.1
396.524	-10.24
396.733	79.87
396.942	169.98
397.152	57.34
397.361	120.83
397.57	6.14
397.78	106.49
397.989	122.88
398.198	163.84
398.407	63.49
398.617	120.83
398.826	122.88
399.035	122.88
399.244	129.02
399.453	65.53
399.663	92.16
399.872	114.69
400.081	149.5
400.29	126.97
400.499	71.68
400.708	112.64
400.917	18.43
401.127	192.51
401.336	133.12
401.545	237.56
401.754	73.73
401.963	215.04
402.172	110.59
402.381	96.25
402.59	116.73
402.799	137.21
403.008	104.45
403.217	73.73
403.426	178.17
403.635	88.06
403.844	153.6
404.053	137.21
404.262	88.06
404.471	180.22
404.68	147.45
404.888	151.55
405.097	139.26
405.306	178.17
405.515	194.56
405.724	96.25
405.933	219.13
406.142	155.65
406.35	194.56
406.559	196.6
406.768	262.14
406.977	235.52
407.185	237.56
407.394	253.95
407.603	163.84
407.812	194.56
408.02	301.05
408.229	256
408.438	245.76
408.646	202.75
408.855	210.94
409.064	135.17
409.272	260.09
409.481	337.91
409.69	229.37
409.898	227.32
410.107	342.01
410.315	239.61
410.524	325.63
410.733	290.81
410.941	333.82
411.15	423.93
411.358	335.87
411.567	382.97
411.775	399.35
411.984	378.87
412.192	468.98
412.401	493.56
412.609	456.7
412.818	391.16
413.026	477.18
413.234	454.65
413.443	516.09
413.651	501.75
413.86	555
414.068	630.77
414.276	612.34
414.485	571.38
414.693	636.92
414.901	626.68
415.11	671.73
415.318	694.26
415.526	688.12
415.734	694.26
415.943	751.6
416.151	813.04
416.359	798.71
416.567	845.81
416.776	980.98
416.984	931.83
417.192	991.22
417.4	940.02
417.608	989.17
417.817	983.02
418.025	1040.37
418.233	1128.43
418.441	1079.28
418.649	1173.49
418.857	1236.97
419.065	1300.46
419.273	1269.74
419.481	1187.82
419.689	1402.86
419.897	1341.42
420.105	1423.34
420.313	1466.35
420.521	1574.89
420.729	1482.73
420.937	1556.46
421.145	1597.42
421.353	1769.44
421.561	1824.74
421.769	1839.08
421.977	1943.52
422.185	1865.7
422.393	2074.59
422.601	2121.7
422.809	2195.42
423.017	2224.09
423.224	2263.01
423.432	2332.64
423.64	2316.25
423.848	2598.87
424.056	2443.23
424.263	2645.98
424.471	2607.06
424.679	2701.27
424.887	2901.97
425.094	2881.49
425.302	3049.43
425.51	3055.57
425.718	3119.06
425.925	3291.09
426.133	3286.99
426.341	3520.46
426.548	3692.49
426.756	3655.62
426.964	3758.02
427.171	3854.28
427.379	4167.62
427.586	4159.42
427.794	4298.69
428.001	4356.03
428.209	4558.78
428.417	4396.99
428.624	4841.4
428.832	4841.4
429.039	4820.92
429.247	4765.62
429.454	5341.1
429.662	5568.43
429.869	5369.77
430.076	5652.39
430.284	5480.36
430.491	5715.88
430.699	5896.1
430.906	6023.08
431.114	6027.17
431.321	6270.88
431.528	6438.81
431.736	6832.02
431.943	7180.18
432.15	6895.51
432.358	7024.53
432.565	7487.37
432.772	7477.13
432.979	7772.04
433.187	7985.03
433.394	7956.36
433.601	8603.52
433.808	8378.24
434.016	8394.62
434.223	8589.18
434.43	9222
434.637	9062.26
434.844	9664.36
435.052	9926.5
435.259	9992.04
435.466	9916.26
435.673	9903.98
435.88	10450.78
436.087	11167.57
436.294	11001.69
436.501	10688.35
436.708	11067.22
436.915	11540.3
437.122	11888.46
437.329	11757.39
437.537	12347.2
437.743	12410.69
437.95	12195.65
438.157	12691.26
438.364	13268.79
438.571	13207.35
438.778	13416.24
438.985	14733.09
439.192	14247.72
439.399	14636.83
439.606	13977.39
439.813	15097.63
440.02	15900.43
440.227	15564.56
440.433	15550.23
440.64	16039.69
440.847	15908.62
441.054	16291.59
441.261	17362.68
441.467	16873.21
441.674	17676.02
441.881	17921.77
442.088	18020.08
442.294	18011.89
442.501	18458.34
442.708	18665.19
442.914	19519.19
443.121	20430.54
443.328	19580.63
443.534	21077.69
443.741	20231.88
443.948	19994.32
444.154	21532.34
444.361	21292.73
444.568	21690.04
444.774	21604.02
444.981	21647.03
445.187	22537.9
445.394	23594.65
445.6	23223.97
445.807	25292.41
446.013	24319.63
446.22	24794.76
446.426	25718.39
446.633	26117.75
446.839	26998.37
447.046	25593.47
447.252	26816.1
447.459	27115.11
447.665	26924.65
447.871	28036.69
448.078	29593.15
448.284	27926.1
448.491	28649.03
448.697	30039.61
448.903	30334.51
449.11	30729.77
449.316	30113.33
449.522	30690.86
449.728	31491.62
449.935	31675.93
450.141	31700.51
450.347	32501.26
450.553	31366.69
450.76	31424.03
450.966	32693.77
451.172	32656.91
451.378	33115.65
451.584	32507.41
451.791	33244.68
451.997	33353.22
452.203	34012.66
452.409	34100.73
452.615	33893.88
452.821	32830.99
453.027	32255.51
453.233	34053.62
453.44	32429.59
453.646	32822.8
453.852	33213.96
454.058	33820.16
454.264	33019.4
454.47	33289.73
454.676	32658.96
454.882	33764.86
455.088	30866.98
455.294	31452.7
455.5	32058.9
455.705	32456.21
455.911	31213.09
456.117	30434.86
456.323	29853.24
456.529	28319.31
456.735	29920.82
456.941	28857.93
457.147	28679.75
457.352	27893.33
457.558	27342.43
457.764	27706.97
457.97	26863.21
458.176	26349.17
458.381	26322.54
458.587	25028.23
458.793	25114.24
458.999	23703.19
459.204	25835.13
459.41	24723.08
459.616	23592.6
459.821	23129.76
460.027	23258.78
460.233	22810.28
460.438	21925.55
460.644	21860.02
460.85	20889.28
461.055	20719.3
461.261	20430.54
461.466	18949.85
461.672	18495.21
461.878	19805.91
462.083	18548.45
462.289	17891.06
462.494	17716.98
462.7	17059.58
462.905	16662.27
463.111	17299.19
463.316	17229.56
463.522	16754.43
463.727	16944.89
463.932	17002.24
464.138	16772.86
464.343	16899.84
464.549	16316.17
464.754	16668.42
464.959	16629.51
465.165	16539.4
465.37	16119.56
465.575	15400.72
465.781	16301.83
465.986	16461.57
466.191	15425.3
466.397	15079.19
466.602	14364.45
466.807	14991.13
467.012	15161.11
467.218	15046.43
467.423	14827.29
467.628	15109.91
467.833	15626
468.038	14898.97
468.244	14454.56
468.449	14944.03
468.654	14501.67
468.859	14458.66
469.064	14255.91
469.269	13850.41
469.474	13862.7
469.679	14429.99
469.885	13721.39
470.09	14122.79
470.295	13907.76
470.5	13584.18
470.705	13918
470.91	13500.21
471.115	13393.72
471.32	13557.55
471.525	13367.09
471.73	13184.82
471.935	13117.24
472.139	12326.72
472.344	12826.43
472.549	12828.48
472.754	12519.23
472.959	12121.93
473.164	11880.27
473.369	11835.21
473.574	12341.06
473.778	12093.26
473.983	12253
474.188	11953.99
474.393	11657.04
474.598	11675.47
474.802	11466.58
475.007	11280.21
475.212	11403.09
475.417	11050.84
475.621	10895.19
475.826	11022.17
476.031	10657.63
476.235	10608.48
476.44	10704.73
476.645	10712.92
476.849	10602.33
477.054	10549.09
477.259	10508.13
477.463	10151.78
477.668	10033
477.872	10131.3
478.077	10159.97
478.282	9746.28
478.486	9787.24
478.691	9734
478.895	9639.79
479.1	9678.7
479.304	9482.1
479.509	9348.98
479.713	9297.78
479.918	9246.58
480.122	8992.63
480.326	9475.95
480.531	9222
480.735	9088.89
480.94	9011.06
481.144	9281.39
481.348	8892.28
481.553	9019.25
481.757	8812.41
481.961	9017.21
482.166	9215.86
482.37	8902.52
482.574	8736.63
482.778	8863.61
482.983	9074.55
483.187	9033.59
483.391	8804.22
483.595	8728.44
483.8	8744.83
484.004	8836.99
484.208	8986.49
484.412	8685.44
484.616	8843.13
484.821	8951.67
485.025	8578.94
485.229	8863.61
485.433	8689.53
485.637	8742.78
485.841	8906.62
486.045	8636.28
486.249	8890.23
486.453	8710.01
486.657	8791.93
486.861	8927.1
487.065	8824.7
487.269	8802.17
487.473	8574.85
487.677	8836.99
487.881	8918.9
488.085	8566.65
488.289	8896.38
488.493	8836.99
488.697	8779.64
488.901	8839.03
489.105	8853.37
489.309	8935.29
489.512	9033.59
489.716	8980.34
489.92	8923
490.124	8800.12
490.328	8935.29
490.531	8927.1
490.735	9258.87
490.939	8863.61
491.143	9060.21
491.346	8951.67
491.55	9230.2
491.754	9224.05
491.958	9164.66
492.161	9176.95
492.365	9402.22
492.569	9238.39
492.772	9226.1
492.976	9414.51
493.18	9369.46
493.383	9437.04
493.587	9713.52
493.79	9531.25
493.994	9561.97
494.197	9633.65
494.401	9887.59
494.605	9594.73
494.808	9928.55
495.012	9828.2
495.215	10155.88
495.419	10108.77
495.622	9977.7
495.825	10157.92
496.029	10254.18
496.232	10463.07
496.436	10223.46
496.639	10671.97
496.843	10286.95
497.046	10866.52
497.249	10721.12
497.453	10930.01
497.656	11024.22
497.859	11261.78
498.063	11347.79
498.266	11347.79
498.469	11390.8
498.673	11343.7
498.876	11685.71
499.079	11898.7
499.282	11855.69
499.485	12169.03
499.689	12072.78
499.892	12267.33
500.095	12246.85
500.298	12457.79
500.501	12371.78
500.705	12805.95
500.908	12922.68
501.111	12914.49
501.314	13156.15
501.517	13219.64
501.72	13408.05
501.923	13387.57
502.126	13811.5
502.329	13895.47
502.532	13985.58
502.735	14227.24
502.938	14407.46
503.141	14473
503.344	14763.81
503.547	14786.33
503.75	14702.37
503.953	14972.7
504.156	15238.94
504.359	15327
504.562	15601.43
504.765	15687.44
504.968	15968.01
505.17	15933.2
505.373	16037.64
505.576	16447.24
505.779	16508.68
505.982	16705.28
506.185	16946.94
506.387	16930.56
506.59	17155.83
506.793	17331.96
506.996	17569.52
507.198	17852.14
507.401	17874.67
507.604	18179.82
507.807	18353.9
508.009	18513.64
508.212	18519.78
508.415	18777.83
508.617	18843.36
508.82	19238.62
509.022	19111.64
509.225	19676.88
509.428	19701.46
509.63	19805.91
509.833	20043.47
510.035	20496.07
510.238	20438.73
510.44	20309.71
510.643	21186.24
510.845	21208.76
511.048	20963.01
511.25	21561.01
511.453	21649.08
511.655	22197.93
511.858	22070.96
512.06	22298.28
512.262	22359.72
512.465	22505.13
512.667	23049.89
512.87	23123.62
513.072	23297.69
513.274	23717.53
513.477	23930.51
513.679	24073.87
513.881	24348.3
514.084	24424.08
514.286	24401.55
514.488	24637.06
514.69	25325.18
514.893	25286.27
515.095	25343.61
515.297	25552.51
515.499	25802.36
515.701	26377.84
515.904	26330.73
516.106	26611.31
516.308	27131.49
516.51	27262.56
516.712	27168.35
516.914	27752.02
517.116	27962.97
517.318	28075.6
517.52	28294.74
517.722	28171.86
517.925	28759.63
518.127	29220.42
518.329	29306.43
518.531	29353.54
518.733	29701.69
518.935	29869.62
519.136	29843
519.338	30391.86
519.54	30486.06
519.742	30815.79
519.944	30842.41
520.146	31608.35
520.348	31522.33
520.55	31583.77
520.752	32071.19
520.954	32665.1
521.155	32067.09
521.357	32173.59
521.559	32839.18
521.761	33252.87
521.963	33216.01
522.164	33336.84
522.366	33801.72
522.568	33705.47
522.77	34258.42
522.971	34461.17
523.173	34520.56
523.375	34592.24
523.576	34782.7
523.778	34881
523.98	35335.65
524.181	35218.92
524.383	35366.37
524.584	35698.14
524.786	36044.25
524.988	35538.4
525.189	36314.58
525.391	36390.36
525.592	36724.18
525.794	36826.57
525.995	37275.08
526.197	36994.51
526.398	36724.18
526.6	37010.89
526.801	37377.48
527.003	37629.38
527.204	37955
527.406	38149.56
527.607	38086.07
527.808	38462.9
528.01	37787.07
528.211	37838.27
528.412	38747.57
528.614	38469.04
528.815	38438.33
529.016	38831.54
529.218	38024.64
529.419	38774.19
529.62	38665.65
529.822	38866.35
530.023	38923.69
530.224	38776.24
530.425	38776.24
530.626	38589.88
530.828	38401.46
531.029	39583.14
531.23	39335.34
531.431	38903.21
531.632	39296.42
531.833	39329.19
532.035	39540.13
532.236	39538.08
532.437	39435.69
532.638	39212.46
532.839	39388.58
533.04	39689.63
533.241	38997.42
533.442	40005.02
533.643	39335.34
533.844	39804.32
534.045	39835.04
534.246	39232.94
534.447	39835.04
534.648	39552.42
534.849	39417.25
535.05	39386.53
535.251	39198.12
535.451	39849.38
535.652	39497.13
535.853	39794.08
536.054	39284.14
536.255	39685.54
536.456	39318.95
536.657	40074.65
536.857	39564.71
537.058	39275.94
537.259	39730.59
537.46	39804.32
537.66	39474.6
537.861	39095.72
538.062	39177.64
538.263	39656.87
538.463	39497.13
538.664	39435.69
538.865	39454.12
539.065	39775.65
539.266	39304.62
539.466	39505.32
539.667	39370.15
539.868	39865.76
540.068	39411.11
540.269	39161.26
540.469	39210.41
540.67	39081.39
540.87	39310.76
541.071	39114.16
541.271	39189.93
541.472	39300.52
541.672	39181.74
541.873	39007.66
542.073	38843.82
542.274	39687.59
542.474	38956.46
542.675	38946.22
542.875	39577
543.075	39132.59
543.276	38933.93
543.476	39366.06
543.676	38421.94
543.877	38931.89
544.077	39140.78
544.277	39165.35
544.478	38909.36
544.678	39124.39
544.878	38899.12
545.078	38952.37
545.279	38540.72
545.479	38864.3
545.679	38811.06
545.879	38911.41
546.079	39058.86
546.28	38825.39
546.48	38686.13
546.68	38907.31
546.88	39011.76
547.08	39079.34
547.28	38712.75
547.48	38593.97
547.68	39120.3
547.88	38630.83
548.081	39011.76
548.281	38679.99
548.481	39148.97
548.681	39232.94
548.881	38935.98
549.081	38839.73
549.28	38532.53
549.48	38608.31
549.68	38884.78
549.88	38927.79
550.08	38368.69
550.28	38645.17
550.48	38639.03
550.68	38970.8
550.88	38307.26
551.08	38759.86
551.279	38915.5
551.479	38618.55
551.679	38845.87
551.879	38755.76
552.079	38897.07
552.278	38868.4
552.478	38874.54
552.678	38862.25
552.878	38804.91
553.077	38968.75
553.277	38497.72
553.477	38776.24
553.676	38671.79
553.876	38550.96
554.076	38481.33
554.275	38550.96
554.475	38086.07
554.674	38536.63
554.874	38766
555.074	38198.71
555.273	38823.34
555.473	38673.84
555.672	38286.78
555.872	38542.77
556.071	38274.49
556.271	38731.18
556.47	38247.86
556.67	38096.31
556.869	37991.87
557.068	38010.3
557.268	37868.99
557.467	38305.21
557.667	38086.07
557.866	38202.81
558.065	37979.58
558.265	37711.3
558.464	37713.34
558.663	38366.65
558.863	37637.57
559.062	38450.61
559.261	37596.61
559.461	38141.37
559.66	37187.02
559.859	38036.92
560.058	37596.61
560.258	37662.15
560.457	37725.63
560.656	37793.22
560.855	37250.5
561.054	37230.02
561.253	37447.11
561.453	37365.19
561.652	37674.43
561.851	37623.23
562.05	36906.44
562.249	37076.43
562.448	37531.08
562.647	37057.99
562.846	36957.64
563.045	37051.85
563.244	36842.96
563.443	37055.95
563.642	36812.24
563.841	36533.71
564.04	36457.94
564.239	36765.13
564.438	36971.98
564.637	36834.77
564.836	36718.03
565.035	36556.24
565.234	36425.17
565.432	36130.26
565.631	36210.14
565.83	36488.66
566.029	36128.22
566.228	35988.95
566.427	35782.11
566.625	35843.55
566.824	35696.1
567.023	35980.76
567.222	35214.82
567.42	35839.45
567.619	35442.15
567.818	35569.12
568.016	35630.56
568.215	35818.97
568.414	35206.63
568.612	35771.87
568.811	35038.7
569.01	35442.15
569.208	34639.34
569.407	34973.16
569.605	34530.8
569.804	35175.91
570.002	34756.08
570.201	34991.59
570.4	34561.52
570.598	34727.41
570.797	34215.41
570.995	34536.94
571.193	33994.23
571.392	34649.58
571.59	34106.87
571.789	33873.4
571.987	34037.24
572.186	33842.68
572.384	33881.59
572.582	33953.27
572.781	33951.23
572.979	33275.4
573.177	33955.32
573.376	33852.92
573.574	33676.8
573.772	33588.74
573.971	33191.43
574.169	32990.73
574.367	33218.05
574.565	33209.86
574.763	33089.03
574.962	33037.83
575.16	32224.79
575.358	32882.19
575.556	32040.47
575.754	32853.51
575.952	32261.65
576.151	32650.77
576.349	32376.34
576.547	31755.8
576.745	32622.09
576.943	32484.88
577.141	31845.91
577.339	32071.19
577.537	32212.5
577.735	31929.88
577.933	31680.03
578.131	31774.24
578.329	31467.04
578.527	31671.84
578.725	31417.89
578.923	31594.01
579.121	31196.71
579.319	31217.19
579.516	31340.07
579.714	31057.45
579.912	31073.83
580.11	30643.76
580.308	30826.03
580.506	30514.73
580.704	30361.14
580.901	30871.08
581.099	30809.64
581.297	30295.6
581.495	30451.25
581.692	30563.89
581.89	30035.51
582.088	30318.13
582.285	30342.7
582.483	29867.58
582.681	29802.04
582.878	29853.24
583.076	29605.44
583.274	29900.34
583.471	29773.37
583.669	29414.98
583.866	29457.98
584.064	29638.2
584.262	29132.36
584.459	29457.98
584.657	28958.28
584.854	29095.49
585.052	28685.9
585.249	28911.17
585.447	28872.26
585.644	28685.9
585.841	28515.92
586.039	28825.16
586.236	28491.34
586.434	28321.36
586.631	28356.18
586.828	28335.7
587.026	28466.77
587.223	28241.49
587.42	27891.29
587.618	28110.42
587.815	27627.1
588.012	27944.53
588.21	27543.13
588.407	27735.64
588.604	27174.5
588.801	27420.25
588.999	27416.16
589.196	27539.04
589.393	27610.71
589.59	27268.7
589.787	27475.55
589.984	27022.95
590.182	27059.81
590.379	27115.11
590.576	26848.87
590.773	26922.6
590.97	26662.51
591.167	26812.01
591.364	26588.78
591.561	26691.18
591.758	26351.21
591.955	26330.73
592.152	26721.9
592.349	26207.86
592.546	26252.91
592.743	26302.06
592.94	25853.56
593.137	26037.87
593.334	26017.4
593.531	25720.44
593.727	25556.6
593.924	25761.4
594.121	25269.89
594.318	25822.84
594.515	25321.09
594.712	25661.05
594.908	25341.57
595.105	25196.16
595.302	25063.04
595.499	25560.7
595.696	25357.95
595.892	24905.35
596.089	24987.27
596.286	25206.4
596.482	24753.8
596.679	24899.2
596.876	24981.12
597.072	24460.94
597.269	24716.93
597.466	24573.58
597.662	24034.96
597.859	24479.37
598.055	24534.67
598.252	24131.22
598.448	24592.01
598.645	24026.77
598.841	23768.73
599.038	24090.26
599.234	23864.98
599.431	23326.36
599.627	23774.87
599.824	23658.13
600.02	23578.26
600.217	23867.03
600.413	23383.71
600.609	23395.99
600.806	23262.88
601.002	23713.43
601.198	23260.83
601.395	23223.97
601.591	23051.94
601.787	23125.66
601.984	22494.89
602.18	23101.09
602.376	22599.34
602.572	22646.44
602.769	22716.07
602.965	22369.96
603.161	22580.9
603.357	22650.53
603.553	22664.87
603.75	22369.96
603.946	22238.89
604.142	22234.8
604.338	21753.52
604.534	22265.52
604.73	22011.57
604.926	21808.82
605.122	21864.11
605.318	21737.14
605.514	21577.4
605.71	22093.49
605.906	21583.54
606.102	21833.39
606.298	21894.83
606.494	21614.26
606.69	21565.11
606.886	21601.97
607.082	21350.07
607.278	21278.4
607.474	21026.5
607.67	21280.44
607.866	21190.33
608.062	21606.07
608.257	21323.45
608.453	21214.91
608.649	21364.41
608.845	21057.21
609.041	21188.28
609.236	20928.19
609.432	20979.39
609.628	20938.43
609.824	20700.87
610.019	20967.1
610.215	20901.57
610.411	20831.94
610.606	20827.84
610.802	20661.96
610.998	20369.1
611.193	20817.6
611.389	20627.14
611.584	20618.95
611.78	20428.49
611.976	20692.68
612.171	20532.93
612.367	20217.55
612.562	20330.19
612.758	20004.56
612.953	20256.46
613.149	20264.65
613.344	19920.59
613.539	20321.99
613.735	20104.91
613.93	20229.84
614.126	20321.99
614.321	20270.79
614.517	20172.49
614.712	19879.63
614.907	20020.94
615.103	20178.64
615.298	19771.09
615.493	20031.18
615.688	19744.47
615.884	19963.6
616.079	19476.18
616.274	19810
616.47	19613.4
616.665	19594.97
616.86	19420.89
617.055	19605.2
617.25	19400.41
617.445	19482.33
617.641	19289.82
617.836	19558.1
618.031	19353.3
618.226	19052.25
618.421	19238.62
618.616	19168.99
618.811	18743.01
619.006	19513.05
619.201	18376.42
619.396	18845.41
619.591	18657
619.786	18734.82
619.981	18503.4
620.176	18962.14
620.371	18429.67
620.566	18538.21
620.761	18333.42
620.956	18530.02
621.151	18151.15
621.346	18149.1
621.541	17876.72
621.735	18030.32
621.93	17700.59
622.125	17770.22
622.32	17692.4
622.515	17553.14
622.709	17669.87
622.904	17520.37
623.099	17237.75
623.294	17209.08
623.488	16932.61
623.683	17057.53
623.878	17004.28
624.072	16973.56
624.267	16975.61
624.462	16877.31
624.656	16606.98
624.851	16467.72
625.046	16492.29
625.24	16475.91
625.435	16314.12
625.629	16056.08
625.824	16068.36
626.018	16213.77
626.213	15902.48
626.407	15998.73
626.602	15740.69
626.796	15769.36
626.991	15552.27
627.185	15466.26
627.38	15351.57
627.574	15240.98
627.768	15030.04
627.963	15441.68
628.157	15013.66
628.352	15238.94
628.546	14937.88
628.74	15060.76
628.935	14784.29
629.129	15107.87
629.323	14509.86
629.517	14710.56
629.712	14575.39
629.906	14696.22
630.1	14272.29
630.294	14489.38
630.489	14384.93
630.683	14307.11
630.877	13922.09
631.071	14073.64
631.265	14026.54
631.459	13766.45
631.653	13633.33
631.848	13848.36
632.042	13711.15
632.236	13520.69
632.43	13629.23
632.624	13498.16
632.818	13471.54
633.012	13270.84
633.206	13141.82
633.4	13256.5
633.594	12973.88
633.788	13123.38
633.982	13035.32
634.176	13078.33
634.369	12906.3
634.563	12896.06
634.757	12711.74
634.951	12736.32
635.145	12521.28
635.339	12695.36
635.533	12402.5
635.726	12695.36
635.92	12361.54
636.114	12312.39
636.308	11997
636.501	12068.68
636.695	11935.56
636.889	11906.89
637.083	11798.35
637.276	11802.44
637.47	11810.64
637.664	11648.85
637.857	11632.46
638.051	11530.06
638.244	11511.63
638.438	11319.12
638.632	11390.8
638.825	11286.36
639.019	11171.67
639.212	11161.43
639.406	11126.61
639.599	11046.74
639.793	11188.05
639.986	11034.46
640.18	10829.66
640.373	10895.19
640.567	10731.36
640.76	10925.91
640.954	10622.81
641.147	10729.31
641.34	10671.97
641.534	10612.57
641.727	10344.29
641.92	10622.81
642.114	10573.66
642.307	10479.46
642.5	10313.57
642.694	9949.03
642.887	9975.66
643.08	10260.32
643.273	10008.42
643.467	9975.66
643.66	9893.74
643.853	9795.43
644.046	9772.91
644.239	9754.48
644.432	9852.78
644.626	9566.06
644.819	9475.95
645.012	9555.82
645.205	9561.97
645.398	9576.3
645.591	9281.39
645.784	9305.97
645.977	9443.18
646.17	9092.98
646.363	9152.37
646.556	8892.28
646.749	9256.82
646.942	9131.89
647.135	8939.38
647.328	8935.29
647.521	9111.41
647.714	8607.61
647.907	8730.49
648.099	8712.06
648.292	8855.42
648.485	8617.85
648.678	8607.61
648.871	8673.15
649.064	8527.74
649.256	8636.28
649.449	8247.17
649.642	8411.01
649.835	8298.37
650.027	8253.31
650.22	8374.14
650.413	8152.96
650.605	8214.4
650.798	8038.28
650.991	8142.72
651.183	8077.19
651.376	8044.42
651.568	7782.28
651.761	8042.37
651.954	7813
652.146	7747.47
652.339	7821.19
652.531	7559.05
652.724	7602.06
652.916	7610.25
653.109	7616.4
653.301	7722.89
653.494	7630.73
653.686	7374.74
653.879	7585.68
654.071	7307.15
654.263	7444.37
654.456	7483.28
654.648	7290.77
654.84	7143.32
655.033	7284.62
655.225	7321.49
655.417	7145.36
655.61	7227.28
655.802	7083.92
655.994	6993.81
656.186	6977.43
656.379	6971.29
656.571	6780.82
656.763	6838.17
656.955	6805.4
657.148	6825.88
657.34	6825.88
657.532	6633.37
657.724	6807.45
657.916	6576.03
658.108	6641.56
658.3	6600.6
658.492	6545.31
658.684	6231.97
658.876	6457.25
659.068	6539.16
659.26	6348.7
659.452	6330.27
659.644	6217.63
659.836	6283.17
660.028	6252.45
660.22	6133.67
660.412	6094.76
660.604	6180.77
660.796	6018.98
660.988	6145.95
661.18	6051.75
661.372	5939.11
661.563	6082.47
661.755	5838.76
661.947	5973.92
662.139	5863.33
662.331	5998.5
662.522	5719.98
662.714	5801.9
662.906	5617.58
663.097	5795.75
663.289	5535.66
663.481	5656.49
663.673	5699.5
663.864	5552.04
664.056	5588.91
664.247	5777.32
664.439	5380.01
664.631	5554.09
664.822	5554.09
665.014	5363.63
665.205	5371.82
665.397	5463.98
665.588	5224.37
665.78	5408.69
665.971	5306.29
666.163	5281.71
666.354	5269.42
666.546	5081.01
666.737	5085.11
666.929	5214.13
667.12	5029.81
667.311	5173.17
667.503	4999.09
667.694	5001.14
667.885	4896.69
668.077	5173.17
668.268	4962.23
668.459	4896.69
668.651	4831.16
668.842	4812.73
669.033	4868.02
669.224	4816.82
669.416	4888.5
669.607	4890.55
669.798	4681.66
669.989	4777.91
670.18	4808.63
670.371	4855.73
670.563	4687.8
670.754	4810.68
670.945	4702.14
671.136	4620.22
671.327	4601.79
671.518	4581.31
671.709	4640.7
671.9	4495.29
672.091	4521.91
672.282	4515.77
672.473	4341.69
672.664	4358.08
672.855	4298.69
673.046	4333.5
673.237	4470.72
673.428	4399.04
673.619	4480.96
673.809	4267.97
674	4386.75
674.191	4356.03
674.382	4360.13
674.573	4190.14
674.764	4278.21
674.954	4241.34
675.145	4114.37
675.336	4196.29
675.527	4134.85
675.717	4118.47
675.908	4054.98
676.099	4218.82
676.289	4257.73
676.48	4038.59
676.671	4077.51
676.861	3889.09
677.052	4118.47
677.243	4143.04
677.433	4005.83
677.624	4143.04
677.814	3966.92
678.005	3999.68
678.195	3835.85
678.386	3913.67
678.576	3905.48
678.767	3815.37
678.957	3915.72
679.148	3770.31
679.338	3829.7
679.529	3839.94
679.719	3811.27
679.909	3997.64
680.1	3790.79
680.29	3745.73
680.481	3753.93
680.671	3823.56
680.861	3780.55
681.052	3690.44
681.242	3647.43
681.432	3821.51
681.622	3672.01
681.813	3735.49
682.003	3620.81
682.193	3594.19
682.383	3559.37
682.573	3807.17
682.764	3555.27
682.954	3692.49
683.144	3631.05
683.334	3610.57
683.524	3565.51
683.714	3585.99
683.904	3481.55
684.094	3504.07
684.284	3463.12
684.474	3643.34
684.664	3506.12
684.854	3549.13
685.044	3502.03
685.234	3516.36
685.424	3465.16
685.614	3327.95
685.804	3569.61
685.994	3422.16
686.184	3373
686.374	3461.07
686.564	3405.77
686.753	3327.95
686.943	3362.76
687.133	3416.01
687.323	3366.86
687.513	3262.41
687.702	3219.41
687.892	3346.38
688.082	3190.74
688.272	3209.17
688.461	3102.67
688.651	3200.98
688.841	3241.93
689.03	3102.67
689.22	3217.36
689.41	3143.63
689.599	3200.98
689.789	3233.74
689.979	3057.62
690.168	3260.37
690.358	3078.1
690.547	3151.82
690.737	3033.04
690.926	3164.11
691.116	2959.31
691.305	3067.86
691.495	3057.62
691.684	3028.95
691.874	3176.4
692.063	2885.59
692.252	3012.56
692.442	2981.84
692.631	2973.65
692.82	3024.85
693.01	3004.37
693.199	2949.07
693.388	2979.79
693.578	2983.89
693.767	2985.94
693.956	2955.22
694.146	2955.22
694.335	2932.69
694.524	2971.6
694.713	2983.89
694.902	2901.97
695.092	2899.92
695.281	2942.93
695.47	2750.42
695.659	2897.88
695.848	2930.64
696.037	2867.16
696.226	3006.42
696.415	2830.29
696.604	2883.54
696.793	2854.87
696.982	2744.28
697.171	2897.88
697.36	2801.62
697.549	2809.81
697.738	2695.13
697.927	2662.36
698.116	2840.53
698.305	2791.38
698.494	2766.81
698.683	2740.18
698.872	2648.02
699.061	2772.95
699.25	2697.17
699.438	2877.4
699.627	2871.25
699.816	2865.11
700.005	2801.62
700.193	2842.58
700.382	2686.93
700.571	2830.29
700.76	2883.54
700.948	2777.05
701.137	2721.75
701.326	2777.05
701.514	2684.89
701.703	2867.16
701.892	2727.89
702.08	2717.65
702.269	2676.7
702.457	2545.63
702.646	2680.79
702.834	2512.86
703.023	2611.16
703.212	2676.7
703.4	2609.11
703.589	2605.02
703.777	2711.51
703.965	2635.74
704.154	2709.46
704.342	2783.19
704.531	2705.37
704.719	2539.48
704.907	2594.78
705.096	2547.67
705.284	2764.76
705.472	2463.71
705.661	2693.08
705.849	2709.46
706.037	2662.36
706.226	2643.93
706.414	2602.97
706.602	2562.01
706.79	2512.86
706.979	2621.4
707.167	2484.19
707.355	2555.86
707.543	2627.54
707.731	2564.06
707.919	2611.16
708.107	2514.91
708.296	2496.47
708.484	2533.34
708.672	2537.43
708.86	2605.02
709.048	2512.86
709.236	2475.99
709.424	2562.01
709.612	2619.35
709.8	2490.33
709.988	2473.95
710.176	2480.09
710.364	2531.29
710.551	2639.83
710.739	2547.67
710.927	2553.82
711.115	2447.32
711.303	2516.95
711.491	2365.4
711.679	2316.25
711.866	2512.86
712.054	2475.99
712.242	2451.42
712.43	2594.78
712.617	2486.23
712.805	2435.03
712.993	2514.91
713.181	2281.44
713.368	2320.35
713.556	2396.12
713.744	2449.37
713.931	2521.05
714.119	2414.56
714.306	2465.75
714.494	2316.25
714.682	2373.6
714.869	2252.77
715.057	2394.08
715.244	2336.73
715.432	2322.4
715.619	2283.49
715.807	2310.11
715.994	2365.4
716.182	2287.58
716.369	2357.21
716.556	2299.87
716.744	2389.98
716.931	2322.4
717.119	2291.68
717.306	2381.79
717.493	2385.88
717.681	2301.92
717.868	2303.96
718.055	2271.2
718.242	2267.1
718.43	2322.4
718.617	2328.54
718.804	2340.83
718.991	2197.47
719.179	2283.49
719.366	2273.25
719.553	2234.33
719.74	2258.91
719.927	2123.74
720.114	2176.99
720.301	2156.51
720.488	2142.18
720.676	2172.89
720.863	2291.68
721.05	2312.16
721.237	2201.57
721.424	2172.89
721.611	2181.09
721.798	2129.89
721.985	2217.95
722.172	2150.37
722.358	2105.31
722.545	2072.54
722.732	2144.22
722.919	2209.76
723.106	2115.55
723.293	2123.74
723.48	2185.18
723.667	2086.88
723.853	2127.84
724.04	2041.82
724.227	2078.69
724.414	2103.26
724.6	2088.93
724.787	2084.83
724.974	2138.08
725.161	2029.54
725.347	1998.82
725.534	1996.77
725.72	2121.7
725.907	2129.89
726.094	2017.25
726.28	2078.69
726.467	2025.44
726.653	1966.05
726.84	2011.11
727.027	2103.26
727.213	1974.24
727.4	2013.15
727.586	2078.69
727.773	1970.15
727.959	2056.16
728.145	1939.43
728.332	1955.81
728.518	1947.62
728.705	1990.63
728.891	1923.04
729.077	1941.47
729.264	2007.01
729.45	1931.23
729.636	1972.19
729.823	1992.67
730.009	1927.14
730.195	1996.77
730.382	1947.62
730.568	1914.85
730.754	1910.75
730.94	1882.08
731.126	2000.87
731.313	1974.24
731.499	1914.85
731.685	1890.28
731.871	1920.99
732.057	1968.1
732.243	1972.19
732.429	1931.23
732.615	1988.58
732.801	1869.8
732.987	1853.41
733.173	1908.71
733.359	1925.09
733.545	1890.28
733.731	1816.55
733.917	1824.74
734.103	1953.76
734.289	1796.07
734.475	1724.39
734.661	1791.97
734.847	1716.2
735.033	1761.25
735.219	1798.12
735.404	1761.25
735.59	1744.87
735.776	1857.51
735.962	1785.83
736.148	1832.93
736.333	1687.53
736.519	1701.86
736.705	1785.83
736.89	1787.88
737.076	1857.51
737.262	1697.77
737.447	1798.12
737.633	1728.49
737.819	1699.81
738.004	1787.88
738.19	1722.34
738.375	1759.21
738.561	1720.29
738.747	1644.52
738.932	1669.09
739.118	1730.53
739.303	1816.55
739.489	1712.1
739.674	1701.86
739.859	1613.8
740.045	1638.37
740.23	1710.05
740.416	1566.7
740.601	1634.28
740.786	1589.22
740.972	1603.56
741.157	1673.19
741.342	1546.22
741.528	1523.69
741.713	1591.27
741.898	1566.7
742.084	1583.08
742.269	1654.76
742.454	1628.14
742.639	1603.56
742.824	1472.49
743.01	1521.64
743.195	1554.41
743.38	1480.68
743.565	1501.16
743.75	1515.5
743.935	1509.35
744.12	1533.93
744.305	1374.19
744.49	1486.83
744.675	1488.87
744.86	1441.77
745.045	1386.47
745.23	1415.15
745.415	1429.48
745.6	1443.82
745.785	1513.45
745.97	1482.73
746.155	1386.47
746.34	1372.14
746.525	1406.95
746.71	1435.63
746.895	1378.28
747.079	1351.66
747.264	1435.63
747.449	1390.57
747.634	1333.23
747.819	1349.61
748.003	1341.42
748.188	1308.65
748.373	1312.75
748.557	1316.84
748.742	1310.7
748.927	1308.65
749.111	1327.08
749.296	1353.71
749.481	1312.75
749.665	1351.66
749.85	1304.56
750.034	1247.21
750.219	1202.16
750.404	1249.26
750.588	1181.68
750.773	1177.58
750.957	1230.83
751.141	1218.54
751.326	1247.21
751.51	1196.01
751.695	1177.58
751.879	1193.97
752.064	1228.78
752.248	1255.4
752.432	1169.39
752.617	1216.49
752.801	1130.48
752.985	1185.77
753.17	1140.72
753.354	1173.49
753.538	1107.95
753.722	1073.14
753.907	1097.71
754.091	1110
754.275	1071.09
754.459	1089.52
754.643	1085.42
754.828	1157.1
755.012	1148.91
755.196	1023.98
755.38	1005.55
755.564	923.63
755.748	997.36
755.932	976.88
756.116	1046.51
756.3	1026.03
756.484	997.36
756.668	927.73
756.852	921.59
757.036	954.35
757.22	1009.65
757.404	935.92
757.588	980.98
757.772	929.78
757.956	884.72
758.14	942.07
758.323	950.26
758.507	972.79
758.691	899.06
758.875	958.45
759.059	894.96
759.242	976.88
759.426	884.72
759.61	843.76
759.794	800.76
759.977	874.48
760.161	948.21
760.345	909.3
760.528	890.87
760.712	854
760.895	874.48
761.079	858.1
761.263	907.25
761.446	813.04
761.63	827.38
761.813	835.57
761.997	829.43
762.18	802.8
762.364	780.28
762.547	727.03
762.731	759.8
762.914	776.18
763.098	794.61
763.281	767.99
763.464	780.28
763.648	847.86
763.831	757.75
764.015	753.65
764.198	722.93
764.381	794.61
764.564	759.8
764.748	794.61
764.931	749.56
765.114	743.41
765.297	808.95
765.481	794.61
765.664	755.7
765.847	645.11
766.03	772.08
766.213	763.89
766.397	661.49
766.58	628.73
766.763	804.85
766.946	755.7
767.129	696.31
767.312	767.99
767.495	784.37
767.678	751.6
767.861	659.45
768.044	686.07
768.227	745.46
768.41	737.27
768.593	708.6
768.776	657.4
768.959	727.03
769.142	722.93
769.324	755.7
769.507	694.26
769.69	636.92
769.873	694.26
770.056	708.6
770.239	579.58
770.421	669.69
770.604	669.69
770.787	653.3
770.97	636.92
771.152	616.44
771.335	593.91
771.518	638.97
771.7	686.07
771.883	655.35
772.066	589.81
772.248	661.49
772.431	776.18
772.613	686.07
772.796	595.96
772.978	604.15
773.161	651.25
773.343	692.21
773.526	550.9
773.708	612.34
773.891	608.25
774.073	626.68
774.256	583.67
774.438	727.03
774.621	555
774.803	632.82
774.985	534.52
775.168	624.63
775.35	571.38
775.532	677.88
775.715	526.33
775.897	503.8
776.079	557.05
776.261	511.99
776.444	622.58
776.626	559.1
776.808	555
776.99	475.13
777.173	636.92
777.355	598.01
777.537	522.23
777.719	622.58
777.901	475.13
778.083	481.27
778.265	516.09
778.447	499.7
778.629	497.66
778.811	559.1
778.993	495.61
779.175	505.85
779.357	432.12
779.539	415.74
779.721	452.6
779.903	503.8
780.085	489.46
780.267	460.79
780.449	389.11
780.631	522.23
780.812	489.46
780.994	452.6
781.176	407.55
781.358	468.98
781.54	391.16
781.721	464.89
781.903	407.55
782.085	501.75
782.267	464.89
782.448	374.78
782.63	401.4
782.812	434.17
782.993	432.12
783.175	387.07
783.357	370.68
783.538	399.35
783.72	346.11
783.901	440.31
784.083	374.78
784.264	468.98
784.446	366.59
784.627	407.55
784.809	450.55
784.99	376.83
785.172	450.55
785.353	370.68
785.535	339.96
785.716	401.4
785.897	282.62
786.079	409.59
786.26	284.67
786.441	387.07
786.623	344.06
786.804	274.43
786.985	366.59
787.167	325.63
787.348	292.86
787.529	360.44
787.71	362.49
787.891	352.25
788.073	366.59
788.254	264.19
788.435	382.97
788.616	352.25
788.797	278.52
788.978	368.63
789.159	321.53
789.34	350.2
789.522	325.63
789.703	284.67
789.884	385.02
790.065	335.87
790.246	301.05
790.427	382.97
790.607	311.29
790.788	413.69
790.969	219.13
791.15	292.86
791.331	313.34
791.512	270.33
791.693	278.52
791.874	286.72
792.054	303.1
792.235	423.93
792.416	190.46
792.597	313.34
792.778	249.85
792.958	270.33
793.139	202.75
793.32	270.33
793.5	245.76
793.681	249.85
793.862	288.76
794.042	217.08
794.223	163.84
794.404	276.48
794.584	196.6
794.765	235.52
794.945	268.28
795.126	268.28
795.306	268.28
795.487	198.65
795.667	139.26
795.848	227.32
796.028	229.37
796.209	260.09
796.389	262.14
796.57	276.48
796.75	202.75
796.93	219.13
797.111	194.56
797.291	159.74
797.471	251.9
797.652	129.02
797.832	206.84
798.012	253.95
798.192	161.79
798.373	192.51
798.553	190.46
798.733	317.44
798.913	280.57
799.093	186.37
799.274	178.17
799.454	198.65
799.634	182.27
799.814	219.13
799.994	243.71
800.174	251.9
800.354	137.21
800.534	194.56
800.714	186.37
800.894	233.47
801.074	149.5
801.254	184.32
801.434	243.71
801.614	294.91
801.794	153.6
801.974	806.9
802.154	120.83
802.334	106.49
802.514	165.89
802.693	157.69
802.873	153.6
803.053	272.38
803.233	186.37
803.413	235.52
803.592	145.41
803.772	151.55
803.952	169.98
804.131	204.8
804.311	147.45
804.491	178.17
804.67	161.79
804.85	139.26
805.03	188.41
805.209	188.41
805.389	149.5
805.568	112.64
805.748	145.41
805.928	149.5
806.107	178.17
806.287	178.17
806.466	221.18
806.646	104.45
806.825	102.4
807.004	153.6
807.184	192.51
807.363	129.02
807.543	161.79
807.722	182.27
807.901	237.56
808.081	256
808.26	65.53
808.439	186.37
808.619	151.55
808.798	96.25
808.977	131.07
809.156	131.07
809.336	153.6
809.515	192.51
809.694	114.69
809.873	141.31
810.052	104.45
810.231	137.21
810.411	112.64
810.59	202.75
810.769	112.64
810.948	104.45
811.127	98.3
811.306	120.83
811.485	151.55
811.664	155.65
811.843	104.45
812.022	114.69
812.201	131.07
812.38	161.79
812.559	137.21
812.737	83.97
812.916	81.92
813.095	75.77
813.274	137.21
813.453	55.3
813.632	157.69
813.811	120.83
813.989	112.64
814.168	208.89
814.347	131.07
814.526	122.88
814.704	169.98
814.883	94.21
815.062	73.73
815.24	129.02
815.419	116.73
815.598	149.5
815.776	71.68
815.955	83.97
816.133	30.72
816.312	186.37
816.49	165.89
816.669	110.59
816.847	153.6
817.026	118.78
817.204	124.93
817.383	92.16
817.561	94.21
817.74	151.55
817.918	157.69
818.097	57.34
818.275	73.73
818.453	122.88
818.632	204.8
818.81	102.4
818.988	124.93
819.167	161.79
819.345	90.11
819.523	172.03
819.701	120.83
819.879	67.58
820.058	47.1
820.236	137.21
820.414	145.41
820.592	96.25
820.77	81.92
820.948	55.3
821.127	86.01
821.305	88.06
821.483	32.77
821.661	120.83
821.839	71.68
822.017	57.34
822.195	129.02
822.373	188.41
822.551	88.06
822.729	155.65
822.907	32.77
823.085	98.3
823.262	71.68
823.44	133.12
823.618	131.07
823.796	100.35
823.974	81.92
824.152	26.62
824.329	69.63
824.507	112.64
824.685	114.69
824.863	55.3
825.04	104.45
825.218	135.17
825.396	100.35
825.574	55.3
825.751	137.21
825.929	83.97
826.107	83.97
826.284	145.41
826.462	81.92
826.639	47.1
826.817	86.01
826.994	-14.34
827.172	116.73
827.349	131.07
827.527	71.68
827.704	63.49
827.882	26.62
828.059	8.19
828.237	67.58
828.414	163.84
828.591	73.73
828.769	104.45
828.946	-8.19
829.124	90.11
829.301	79.87
829.478	116.73
829.655	90.11
829.833	86.01
830.01	-8.19
830.187	118.78
830.364	153.6
830.542	114.69
830.719	75.77
830.896	88.06
831.073	98.3
831.25	110.59
831.427	8.19
831.604	40.96
831.782	106.49
831.959	92.16
832.136	43.01
832.313	22.53
832.49	108.54
832.667	120.83
832.844	61.44
833.021	2.05
833.198	145.41
833.374	43.01
833.551	88.06
833.728	114.69
833.905	116.73
834.082	67.58
834.259	88.06
834.436	163.84
834.612	30.72
834.789	61.44
834.966	61.44
835.143	129.02
835.319	6.14
835.496	59.39
835.673	49.15
835.85	120.83
836.026	126.97
836.203	14.34
836.38	51.2
836.556	59.39
836.733	108.54
836.909	96.25
837.086	63.49
837.262	30.72
837.439	59.39
837.616	24.58
837.792	92.16
837.968	112.64
838.145	-10.24
838.321	100.35
838.498	55.3
838.674	92.16
838.851	71.68
839.027	45.06
839.203	88.06
839.38	79.87
839.556	30.72
839.732	57.34
839.909	92.16
840.085	8.19
840.261	34.82
840.437	65.53
840.614	32.77
840.79	6.14
840.966	61.44
841.142	96.25
841.318	26.62
841.494	104.45
841.671	22.53
841.847	-0
842.023	20.48
842.199	100.35
842.375	145.41
842.551	90.11
842.727	6.14
842.903	34.82
843.079	79.87
843.255	92.16
843.431	55.3
843.607	6.14
843.783	-18.43
843.959	112.64
844.134	65.53
844.31	98.3
844.486	-14.34
844.662	57.34
844.838	88.06
845.013	88.06
845.189	55.3
845.365	57.34
845.541	55.3
845.716	81.92
845.892	81.92
846.068	67.58
846.244	120.83
846.419	32.77
846.595	-12.29
846.77	59.39
846.946	14.34
847.122	47.1
847.297	55.3
847.473	59.39
847.648	65.53
847.824	63.49
847.999	12.29
848.175	20.48
848.35	69.63
848.526	81.92
848.701	112.64
848.876	79.87
849.052	83.97
849.227	96.25
849.403	51.2
849.578	26.62
849.753	34.82
849.929	-6.14
850.104	10.24
850.279	55.3
850.454	2.05
850.63	4.1
850.805	20.48
850.98	34.82
851.155	-0
851.33	86.01
851.505	2.05
851.681	36.86
851.856	98.3
852.031	-0
852.206	-10.24
852.381	-10.24
852.556	10.24
852.731	57.34
852.906	157.69
853.081	61.44
853.256	-65.54
853.431	30.72
853.606	-26.62
853.781	47.1
853.956	45.06
854.131	22.53
854.305	12.29
854.48	24.58
854.655	-16.38
854.83	57.34
855.005	49.15
855.18	88.06
855.354	20.48
855.529	22.53
855.704	38.91
855.879	22.53
856.053	38.91
856.228	71.68
856.403	-2.05
856.577	43.01
856.752	-24.58
856.926	53.25
857.101	40.96
857.276	38.91
857.45	55.3
857.625	51.2
857.799	8.19
857.974	8.19
858.148	2.05
858.323	45.06
858.497	-2.05
858.672	81.92
858.846	16.38
859.02	59.39
859.195	63.49
859.369	-18.43
859.543	40.96
859.718	55.3
859.892	-2.05
860.066	96.25
860.241	38.91
860.415	53.25
860.589	-26.62
860.763	24.58
860.938	106.49
861.112	-6.14
861.286	53.25
861.46	38.91
861.634	36.86
861.808	49.15
861.982	-30.72
862.157	18.43
862.331	-51.2
862.505	49.15
862.679	6.14
862.853	-10.24
863.027	-10.24
863.201	79.87
863.375	-47.1
863.549	55.3
863.722	-30.72
863.896	20.48
864.07	-14.34
864.244	34.82
864.418	65.53
864.592	88.06
864.766	-28.67
864.939	32.77
865.113	16.38
865.287	-2.05
865.461	38.91
865.634	106.49
865.808	-18.43
865.982	-16.38
866.156	24.58
866.329	-38.91
866.503	16.38
866.676	57.34
866.85	55.3
867.024	-43.01
867.197	79.87
867.371	75.77
867.544	30.72
867.718	18.43
867.891	-8.19
868.065	6.14
868.238	34.82
868.412	71.68
868.585	10.24
868.759	-10.24
868.932	2.05
869.105	-32.77
869.279	63.49
869.452	30.72
869.625	12.29
869.799	-2.05
869.972	8.19
870.145	51.2
870.319	-30.72
870.492	81.92
870.665	69.63
870.838	77.82
871.011	-59.39
871.185	57.34
871.358	28.67
871.531	71.68
871.704	-26.62
871.877	28.67
872.05	-14.34
872.223	-40.96
872.396	77.82
872.569	49.15
872.742	55.3
872.915	114.69
873.088	-34.82
873.261	73.73
873.434	22.53
873.607	51.2
873.78	45.06
873.953	18.43
874.126	30.72
874.299	63.49
874.471	69.63
874.644	-16.38
874.817	-20.48
874.99	77.82
875.163	-40.96
875.335	96.25
875.508	69.63
875.681	94.21
875.853	14.34
876.026	98.3
876.199	61.44
876.371	-51.2
876.544	55.3
876.717	38.91
876.889	-24.58
877.062	36.86
877.234	71.68
877.407	45.06
877.579	53.25
877.752	55.3
877.924	-10.24
878.097	79.87
878.269	73.73
878.442	92.16
878.614	65.53
878.786	16.38
878.959	77.82
879.131	40.96
879.303	83.97
879.476	18.43
879.648	6.14
879.82	22.53
879.993	22.53
880.165	24.58
880.337	-32.77
880.509	108.54
880.681	8.19
880.854	10.24
881.026	16.38
881.198	10.24
881.37	40.96
881.542	18.43
881.714	40.96
881.886	59.39
882.058	10.24
882.23	14.34
882.402	22.53
882.574	-6.14
882.746	-59.39
882.918	92.16
883.09	51.2
883.262	49.15
883.434	38.91
883.606	-22.53
883.778	75.77
883.95	-34.82
884.122	-18.43
884.293	20.48
884.465	-18.43
884.637	18.43
884.809	12.29
884.98	79.87
885.152	34.82
885.324	81.92
885.496	67.58
885.667	32.77
885.839	14.34
886.011	167.93
886.182	100.35
886.354	45.06
886.525	59.39
886.697	129.02
886.869	-61.44
887.04	92.16
887.212	47.1
887.383	75.77
887.555	-24.58
887.726	26.62
887.897	14.34
888.069	55.3
888.24	-16.38
888.412	-2.05
888.583	38.91
888.754	16.38
888.926	-96.25
889.097	-6.14
889.268	40.96
889.44	-34.82
889.611	-57.34
889.782	22.53
889.953	4.1
890.125	38.91
890.296	-6.14
890.467	92.16
890.638	8.19
890.809	26.62
890.98	-16.38
891.151	26.62
891.323	38.91
891.494	-2.05
891.665	18.43
891.836	26.62
892.007	22.53
892.178	12.29
892.349	-61.44
892.52	-2.05
892.691	-14.34
892.862	-18.43
893.032	-16.38
893.203	81.92
893.374	38.91
893.545	47.1
893.716	61.44
893.887	-49.15
894.057	-16.38
894.228	-12.29
894.399	49.15
894.57	61.44
894.74	45.06
894.911	79.87
895.082	-26.62
895.253	22.53
895.423	59.39
895.594	81.92
895.764	-2.05
895.935	63.49
896.106	-22.53
896.276	16.38
896.447	-55.3
896.617	22.53
896.788	26.62
896.958	12.29
897.129	-20.48
897.299	-34.82
897.47	22.53
897.64	38.91
897.81	2.05
897.981	92.16
898.151	-63.49
898.322	71.68
898.492	38.91
898.662	-10.24
898.832	18.43
899.003	6.14
899.173	-2.05
899.343	-26.62
899.513	-14.34
