Data from USB4F104151__302__14-24-02-551.txt Node

Date: Thu Mar 13 14:24:02 EDT 2025
User: louis
Spectrometer: USB4F10415
Trigger mode: 4
Integration Time (sec): 2.000000E-2
Scans to average: 1
Electric dark correction enabled: true
Nonlinearity correction enabled: false
Boxcar width: 0
XAxis mode: Wavelengths
Number of Pixels in Spectrum: 3648
>>>>>Begin Spectral Data<<<<<
178.204	-78.33
178.424	-78.33
178.644	-78.33
178.864	-88.57
179.084	-107.01
179.304	-45.57
179.524	17.92
179.744	11.78
179.964	81.41
180.184	-33.28
180.404	7.68
180.624	-49.66
180.844	34.3
181.064	-45.57
181.283	7.68
181.503	30.21
181.723	-16.9
181.943	-115.2
182.163	85.5
182.383	65.02
182.602	48.64
182.822	-41.47
183.042	73.21
183.262	-90.62
183.482	50.69
183.701	-4.61
183.921	71.17
184.141	-41.47
184.361	-20.99
184.58	-29.18
184.8	7.68
185.02	40.45
185.239	-39.42
185.459	28.16
185.679	56.83
185.898	-61.95
186.118	40.45
186.338	-31.23
186.557	-14.85
186.777	26.11
186.997	24.06
187.216	22.02
187.436	105.98
187.655	56.83
187.875	19.97
188.095	7.68
188.314	87.55
188.534	19.97
188.753	-57.86
188.973	26.11
189.192	11.78
189.412	42.5
189.631	44.54
189.851	-4.61
190.07	75.26
190.29	-72.19
190.509	-49.66
190.729	5.63
190.948	19.97
191.168	26.11
191.387	124.41
191.607	-12.8
191.826	-20.99
192.045	11.78
192.265	50.69
192.484	-41.47
192.704	5.63
192.923	-47.62
193.142	32.26
193.362	40.45
193.581	34.3
193.8	5.63
194.02	-16.9
194.239	26.11
194.458	-8.7
194.678	-6.66
194.897	17.92
195.116	7.68
195.335	81.41
195.555	9.73
195.774	54.78
195.993	32.26
196.212	58.88
196.432	60.93
196.651	17.92
196.87	-25.09
197.089	62.98
197.308	83.45
197.528	83.45
197.747	-39.42
197.966	-0.51
198.185	124.41
198.404	11.78
198.623	34.3
198.842	17.92
199.062	130.56
199.281	62.98
199.5	42.5
199.719	38.4
199.938	9.73
200.157	48.64
200.376	85.5
200.595	3.58
200.814	-23.04
201.033	32.26
201.252	40.45
201.471	48.64
201.69	-8.7
201.909	28.16
202.128	52.74
202.347	40.45
202.566	-12.8
202.785	-66.05
203.004	65.02
203.223	108.03
203.442	-10.75
203.661	40.45
203.879	7.68
204.098	77.31
204.317	-53.76
204.536	-33.28
204.755	54.78
204.974	15.87
205.193	19.97
205.411	17.92
205.63	32.26
205.849	77.31
206.068	24.06
206.287	-14.85
206.505	-25.09
206.724	36.35
206.943	7.68
207.162	15.87
207.381	-20.99
207.599	3.58
207.818	71.17
208.037	15.87
208.255	-80.38
208.474	11.78
208.693	50.69
208.911	-8.7
209.13	40.45
209.349	-25.09
209.567	85.5
209.786	69.12
210.005	-29.18
210.223	-16.9
210.442	-16.9
210.661	1.54
210.879	56.83
211.098	65.02
211.316	-10.75
211.535	11.78
211.753	36.35
211.972	26.11
212.191	7.68
212.409	44.54
212.628	13.82
212.846	32.26
213.065	56.83
213.283	42.5
213.502	-0.51
213.72	24.06
213.938	-12.8
214.157	13.82
214.375	-20.99
214.594	-31.23
214.812	1.54
215.031	22.02
215.249	-0.51
215.467	1.54
215.686	44.54
215.904	103.93
216.122	24.06
216.341	-16.9
216.559	-14.85
216.778	30.21
216.996	60.93
217.214	15.87
217.432	15.87
217.651	3.58
217.869	24.06
218.087	36.35
218.306	24.06
218.524	65.02
218.742	-57.86
218.96	28.16
219.179	77.31
219.397	-82.43
219.615	15.87
219.833	26.11
220.051	13.82
220.27	91.65
220.488	-8.7
220.706	42.5
220.924	44.54
221.142	48.64
221.36	124.41
221.578	1.54
221.796	52.74
222.015	-33.28
222.233	-16.9
222.451	-6.66
222.669	-0.51
222.887	22.02
223.105	-27.14
223.323	11.78
223.541	15.87
223.759	65.02
223.977	3.58
224.195	36.35
224.413	89.6
224.631	-14.85
224.849	-33.28
225.067	56.83
225.285	81.41
225.503	44.54
225.721	1.54
225.939	28.16
226.157	-74.24
226.375	83.45
226.592	46.59
226.81	22.02
227.028	97.79
227.246	44.54
227.464	26.11
227.682	77.31
227.9	-33.28
228.117	1.54
228.335	26.11
228.553	75.26
228.771	26.11
228.989	44.54
229.206	77.31
229.424	-35.33
229.642	-57.86
229.86	19.97
230.077	67.07
230.295	26.11
230.513	87.55
230.731	48.64
230.948	87.55
231.166	44.54
231.384	24.06
231.601	-4.61
231.819	17.92
232.037	-14.85
232.254	-16.9
232.472	48.64
232.689	-33.28
232.907	65.02
233.125	95.74
233.342	40.45
233.56	3.58
233.777	-41.47
233.995	73.21
234.213	1.54
234.43	15.87
234.648	17.92
234.865	15.87
235.083	-27.14
235.3	62.98
235.518	30.21
235.735	15.87
235.953	50.69
236.17	-29.18
236.388	28.16
236.605	40.45
236.822	-4.61
237.04	79.36
237.257	7.68
237.475	-12.8
237.692	-0.51
237.909	40.45
238.127	40.45
238.344	22.02
238.562	1.54
238.779	-14.85
238.996	85.5
239.214	91.65
239.431	24.06
239.648	-8.7
239.865	32.26
240.083	19.97
240.3	3.58
240.517	120.32
240.735	52.74
240.952	54.78
241.169	46.59
241.386	105.98
241.603	-0.51
241.821	17.92
242.038	-4.61
242.255	52.74
242.472	-20.99
242.689	26.11
242.907	22.02
243.124	126.46
243.341	65.02
243.558	-0.51
243.775	-33.28
243.992	-41.47
244.209	46.59
244.426	52.74
244.643	34.3
244.86	-27.14
245.078	7.68
245.295	7.68
245.512	-4.61
245.729	-51.71
245.946	77.31
246.163	7.68
246.38	7.68
246.597	-8.7
246.814	-6.66
247.031	69.12
247.248	40.45
247.464	28.16
247.681	36.35
247.898	48.64
248.115	36.35
248.332	67.07
248.549	91.65
248.766	75.26
248.983	1.54
249.2	1.54
249.417	77.31
249.633	46.59
249.85	3.58
250.067	-49.66
250.284	7.68
250.501	50.69
250.717	58.88
250.934	15.87
251.151	7.68
251.368	-27.14
251.585	83.45
251.801	24.06
252.018	9.73
252.235	48.64
252.451	19.97
252.668	-20.99
252.885	48.64
253.102	110.08
253.318	-64
253.535	-6.66
253.752	75.26
253.968	5.63
254.185	-8.7
254.401	24.06
254.618	93.69
254.835	-37.38
255.051	46.59
255.268	56.83
255.484	71.17
255.701	-29.18
255.917	42.5
256.134	-25.09
256.351	-6.66
256.567	19.97
256.784	32.26
257	-66.05
257.217	40.45
257.433	11.78
257.65	99.84
257.866	36.35
258.082	26.11
258.299	48.64
258.515	17.92
258.732	-12.8
258.948	-29.18
259.165	69.12
259.381	-33.28
259.597	-33.28
259.814	-55.81
260.03	73.21
260.246	69.12
260.463	67.07
260.679	3.58
260.895	48.64
261.112	-31.23
261.328	89.6
261.544	40.45
261.761	77.31
261.977	-8.7
262.193	22.02
262.409	13.82
262.626	85.5
262.842	22.02
263.058	-29.18
263.274	40.45
263.49	56.83
263.707	15.87
263.923	24.06
264.139	-59.9
264.355	-14.85
264.571	30.21
264.787	28.16
265.004	56.83
265.22	-0.51
265.436	105.98
265.652	-23.04
265.868	19.97
266.084	-29.18
266.3	17.92
266.516	-23.04
266.732	65.02
266.948	26.11
267.164	40.45
267.38	62.98
267.596	-16.9
267.812	114.17
268.028	7.68
268.244	42.5
268.46	-2.56
268.676	30.21
268.892	24.06
269.108	-4.61
269.324	65.02
269.54	15.87
269.756	73.21
269.972	-86.53
270.188	15.87
270.403	34.3
270.619	40.45
270.835	65.02
271.051	1.54
271.267	19.97
271.483	-33.28
271.698	73.21
271.914	32.26
272.13	-4.61
272.346	-53.76
272.562	46.59
272.777	11.78
272.993	67.07
273.209	-6.66
273.425	93.69
273.64	-6.66
273.856	-16.9
274.072	-18.94
274.287	42.5
274.503	-31.23
274.719	-102.91
274.934	3.58
275.15	-31.23
275.366	99.84
275.581	26.11
275.797	28.16
276.012	11.78
276.228	36.35
276.444	-0.51
276.659	7.68
276.875	-2.56
277.09	24.06
277.306	-0.51
277.521	77.31
277.737	-39.42
277.952	48.64
278.168	7.68
278.383	52.74
278.599	40.45
278.814	17.92
279.03	81.41
279.245	60.93
279.461	-29.18
279.676	130.56
279.892	-41.47
280.107	-16.9
280.322	24.06
280.538	67.07
280.753	-23.04
280.969	34.3
281.184	3.58
281.399	67.07
281.615	30.21
281.83	116.22
282.045	69.12
282.26	65.02
282.476	-72.19
282.691	32.26
282.906	44.54
283.122	56.83
283.337	17.92
283.552	24.06
283.767	7.68
283.983	3.58
284.198	1.54
284.413	32.26
284.628	-0.51
284.843	24.06
285.058	13.82
285.274	60.93
285.489	30.21
285.704	105.98
285.919	-14.85
286.134	40.45
286.349	-25.09
286.564	-53.76
286.779	99.84
286.995	15.87
287.21	-64
287.425	105.98
287.64	28.16
287.855	60.93
288.07	-37.38
288.285	91.65
288.5	89.6
288.715	28.16
288.93	7.68
289.145	-66.05
289.36	28.16
289.575	48.64
289.79	120.32
290.004	58.88
290.219	56.83
290.434	-41.47
290.649	44.54
290.864	-12.8
291.079	81.41
291.294	52.74
291.509	44.54
291.724	-14.85
291.938	19.97
292.153	-4.61
292.368	24.06
292.583	75.26
292.798	9.73
293.012	50.69
293.227	19.97
293.442	-53.76
293.657	44.54
293.871	50.69
294.086	95.74
294.301	58.88
294.516	73.21
294.73	-29.18
294.945	-8.7
295.16	32.26
295.374	38.4
295.589	38.4
295.804	-45.57
296.018	-47.62
296.233	138.75
296.447	24.06
296.662	44.54
296.877	17.92
297.091	99.84
297.306	-25.09
297.52	32.26
297.735	50.69
297.949	-25.09
298.164	91.65
298.378	17.92
298.593	-8.7
298.807	-31.23
299.022	5.63
299.236	44.54
299.451	42.5
299.665	11.78
299.88	42.5
300.094	30.21
300.309	34.3
300.523	40.45
300.737	1.54
300.952	48.64
301.166	126.46
301.381	3.58
301.595	-6.66
301.809	24.06
302.024	-6.66
302.238	-0.51
302.452	-29.18
302.667	3.58
302.881	36.35
303.095	-23.04
303.309	28.16
303.524	40.45
303.738	50.69
303.952	-31.23
304.166	32.26
304.381	-76.29
304.595	75.26
304.809	-0.51
305.023	42.5
305.237	-41.47
305.452	-8.7
305.666	62.98
305.88	105.98
306.094	-16.9
306.308	40.45
306.522	42.5
306.736	17.92
306.95	101.89
307.164	-16.9
307.379	3.58
307.593	148.99
307.807	75.26
308.021	19.97
308.235	83.45
308.449	48.64
308.663	7.68
308.877	73.21
309.091	34.3
309.305	91.65
309.519	-33.28
309.733	-41.47
309.947	19.97
310.161	34.3
310.374	26.11
310.588	28.16
310.802	-49.66
311.016	89.6
311.23	32.26
311.444	1.54
311.658	89.6
311.872	140.8
312.085	50.69
312.299	65.02
312.513	58.88
312.727	-12.8
312.941	-90.62
313.154	7.68
313.368	13.82
313.582	58.88
313.796	50.69
314.009	-4.61
314.223	48.64
314.437	73.21
314.651	48.64
314.864	36.35
315.078	-20.99
315.292	44.54
315.505	-10.75
315.719	48.64
315.933	34.3
316.146	-8.7
316.36	-6.66
316.573	118.27
316.787	-8.7
317.001	28.16
317.214	-55.81
317.428	-20.99
317.641	-39.42
317.855	-8.7
318.068	83.45
318.282	-0.51
318.495	38.4
318.709	52.74
318.922	15.87
319.136	93.69
319.349	101.89
319.563	32.26
319.776	48.64
319.99	-53.76
320.203	32.26
320.417	11.78
320.63	34.3
320.843	-49.66
321.057	15.87
321.27	105.98
321.483	38.4
321.697	17.92
321.91	11.78
322.124	13.82
322.337	40.45
322.55	-0.51
322.763	-27.14
322.977	85.5
323.19	13.82
323.403	15.87
323.617	62.98
323.83	91.65
324.043	22.02
324.256	28.16
324.469	1.54
324.683	7.68
324.896	24.06
325.109	93.69
325.322	7.68
325.535	26.11
325.748	60.93
325.962	-14.85
326.175	17.92
326.388	7.68
326.601	32.26
326.814	48.64
327.027	-35.33
327.24	85.5
327.453	13.82
327.666	50.69
327.879	75.26
328.092	7.68
328.305	1.54
328.518	77.31
328.731	17.92
328.944	11.78
329.157	32.26
329.37	-23.04
329.583	36.35
329.796	42.5
330.009	-16.9
330.222	7.68
330.435	32.26
330.648	69.12
330.861	48.64
331.073	-2.56
331.286	19.97
331.499	19.97
331.712	50.69
331.925	28.16
332.138	32.26
332.35	32.26
332.563	28.16
332.776	56.83
332.989	-6.66
333.202	28.16
333.414	24.06
333.627	42.5
333.84	54.78
334.053	67.07
334.265	42.5
334.478	34.3
334.691	77.31
334.903	65.02
335.116	-0.51
335.329	15.87
335.541	48.64
335.754	38.4
335.966	32.26
336.179	44.54
336.392	36.35
336.604	52.74
336.817	91.65
337.029	71.17
337.242	-0.51
337.454	101.89
337.667	-16.9
337.88	146.94
338.092	67.07
338.305	9.73
338.517	-12.8
338.729	79.36
338.942	73.21
339.154	34.3
339.367	-4.61
339.579	42.5
339.792	-51.71
340.004	40.45
340.217	-23.04
340.429	58.88
340.641	19.97
340.854	24.06
341.066	26.11
341.278	40.45
341.491	46.59
341.703	19.97
341.915	-8.7
342.128	73.21
342.34	58.88
342.552	36.35
342.764	58.88
342.977	40.45
343.189	32.26
343.401	-14.85
343.613	-8.7
343.826	114.17
344.038	11.78
344.25	28.16
344.462	-6.66
344.674	5.63
344.886	-2.56
345.099	-4.61
345.311	48.64
345.523	32.26
345.735	-8.7
345.947	11.78
346.159	-4.61
346.371	-41.47
346.583	3.58
346.795	65.02
347.007	-8.7
347.219	9.73
347.431	15.87
347.643	58.88
347.855	17.92
348.067	110.08
348.279	-45.57
348.491	15.87
348.703	56.83
348.915	7.68
349.127	-10.75
349.339	65.02
349.551	-35.33
349.763	48.64
349.975	-51.71
350.187	48.64
350.399	77.31
350.61	71.17
350.822	19.97
351.034	60.93
351.246	19.97
351.458	114.17
351.669	28.16
351.881	62.98
352.093	105.98
352.305	89.6
352.517	60.93
352.728	83.45
352.94	15.87
353.152	40.45
353.363	-33.28
353.575	54.78
353.787	54.78
353.999	56.83
354.21	97.79
354.422	-2.56
354.633	44.54
354.845	-0.51
355.057	17.92
355.268	26.11
355.48	105.98
355.692	15.87
355.903	-68.09
356.115	42.5
356.326	-4.61
356.538	93.69
356.749	40.45
356.961	42.5
357.172	95.74
357.384	50.69
357.595	17.92
357.807	50.69
358.018	24.06
358.23	9.73
358.441	81.41
358.653	-0.51
358.864	5.63
359.075	48.64
359.287	-18.94
359.498	91.65
359.709	101.89
359.921	89.6
360.132	50.69
360.344	-16.9
360.555	-20.99
360.766	50.69
360.977	40.45
361.189	26.11
361.4	85.5
361.611	-66.05
361.823	73.21
362.034	75.26
362.245	15.87
362.456	40.45
362.667	67.07
362.879	42.5
363.09	89.6
363.301	-45.57
363.512	69.12
363.723	-31.23
363.935	32.26
364.146	124.41
364.357	-20.99
364.568	-23.04
364.779	73.21
364.99	89.6
365.201	-33.28
365.412	81.41
365.623	91.65
365.834	-12.8
366.045	32.26
366.256	7.68
366.467	-29.18
366.678	1.54
366.889	95.74
367.1	-31.23
367.311	69.12
367.522	-10.75
367.733	44.54
367.944	22.02
368.155	15.87
368.366	40.45
368.577	9.73
368.788	101.89
368.999	24.06
369.209	42.5
369.42	28.16
369.631	60.93
369.842	-41.47
370.053	30.21
370.264	44.54
370.474	1.54
370.685	32.26
370.896	32.26
371.107	17.92
371.317	28.16
371.528	52.74
371.739	85.5
371.95	19.97
372.16	7.68
372.371	56.83
372.582	124.41
372.792	52.74
373.003	24.06
373.214	54.78
373.424	112.13
373.635	48.64
373.846	73.21
374.056	-18.94
374.267	130.56
374.477	32.26
374.688	60.93
374.898	50.69
375.109	-4.61
375.319	58.88
375.53	69.12
375.74	56.83
375.951	44.54
376.161	54.78
376.372	101.89
376.582	-23.04
376.793	-39.42
377.003	-49.66
377.214	-39.42
377.424	13.82
377.635	56.83
377.845	-0.51
378.055	67.07
378.266	-43.52
378.476	-16.9
378.686	48.64
378.897	67.07
379.107	91.65
379.317	73.21
379.528	-25.09
379.738	67.07
379.948	108.03
380.158	89.6
380.369	56.83
380.579	19.97
380.789	-6.66
380.999	50.69
381.21	15.87
381.42	81.41
381.63	101.89
381.84	83.45
382.05	11.78
382.261	24.06
382.471	75.26
382.681	134.65
382.891	19.97
383.101	118.27
383.311	22.02
383.521	91.65
383.731	40.45
383.941	48.64
384.151	-8.7
384.361	85.5
384.571	140.8
384.781	-16.9
384.991	46.59
385.201	122.37
385.411	32.26
385.621	52.74
385.831	-16.9
386.041	-0.51
386.251	3.58
386.461	71.17
386.671	15.87
386.881	75.26
387.091	62.98
387.301	81.41
387.511	91.65
387.72	34.3
387.93	97.79
388.14	34.3
388.35	40.45
388.56	-25.09
388.769	56.83
388.979	40.45
389.189	69.12
389.399	-41.47
389.609	42.5
389.818	-27.14
390.028	89.6
390.238	65.02
390.447	-33.28
390.657	65.02
390.867	97.79
391.076	81.41
391.286	19.97
391.496	73.21
391.705	7.68
391.915	42.5
392.125	52.74
392.334	-31.23
392.544	48.64
392.753	24.06
392.963	9.73
393.172	46.59
393.382	-18.94
393.591	105.98
393.801	114.17
394.01	75.26
394.22	126.46
394.429	81.41
394.639	79.36
394.848	40.45
395.058	105.98
395.267	81.41
395.477	62.98
395.686	83.45
395.895	185.85
396.105	95.74
396.314	97.79
396.524	69.12
396.733	81.41
396.942	130.56
397.152	114.17
397.361	108.03
397.57	44.54
397.78	105.98
397.989	97.79
398.198	99.84
398.407	69.12
398.617	17.92
398.826	58.88
399.035	97.79
399.244	101.89
399.453	73.21
399.663	34.3
399.872	130.56
400.081	97.79
400.29	185.85
400.499	132.61
400.708	69.12
400.917	142.85
401.127	52.74
401.336	93.69
401.545	218.62
401.754	128.51
401.963	87.55
402.172	73.21
402.381	105.98
402.59	34.3
402.799	146.94
403.008	60.93
403.217	142.85
403.426	91.65
403.635	67.07
403.844	97.79
404.053	120.32
404.262	173.57
404.471	140.8
404.68	159.23
404.888	75.26
405.097	32.26
405.306	112.13
405.515	122.37
405.724	112.13
405.933	112.13
406.142	146.94
406.35	105.98
406.559	130.56
406.768	159.23
406.977	134.65
407.185	189.95
407.394	93.69
407.603	110.08
407.812	181.76
408.02	200.19
408.229	222.72
408.438	208.38
408.646	181.76
408.855	169.47
409.064	175.61
409.272	163.33
409.481	216.57
409.69	159.23
409.898	208.38
410.107	306.68
410.315	171.52
410.524	208.38
410.733	230.91
410.941	173.57
411.15	318.97
411.358	333.31
411.567	318.97
411.775	296.44
411.984	251.39
412.192	359.93
412.401	318.97
412.609	376.31
412.818	378.36
413.026	429.56
413.234	312.83
413.443	273.92
413.651	292.35
413.86	421.37
414.068	417.27
414.276	460.28
414.485	450.04
414.693	531.96
414.901	615.93
415.11	542.2
415.318	517.62
415.526	486.9
415.734	574.97
415.943	577.02
416.151	568.82
416.359	591.35
416.567	687.61
416.776	620.02
416.984	751.09
417.192	734.71
417.4	681.46
417.608	687.61
417.817	790
418.025	771.57
418.233	814.58
418.441	839.16
418.649	884.21
418.857	992.75
419.065	959.99
419.273	919.03
419.481	992.75
419.689	1056.24
419.897	1099.25
420.105	1177.07
420.313	1295.85
420.521	1179.12
420.729	1236.46
420.937	1238.51
421.145	1250.8
421.353	1445.35
421.561	1424.87
421.769	1482.22
421.977	1433.07
422.185	1498.6
422.393	1514.98
422.601	1625.58
422.809	1650.15
423.017	1727.97
423.224	1801.7
423.432	1820.13
423.64	1863.14
423.848	1998.31
424.056	1910.24
424.263	2043.36
424.471	2104.8
424.679	2117.09
424.887	2295.26
425.094	2422.24
425.302	2399.71
425.51	2481.63
425.718	2459.1
425.925	2633.18
426.133	2711
426.341	2854.36
426.548	2893.27
426.756	2719.19
426.964	3055.06
427.171	3206.61
427.379	3229.13
427.586	3106.26
427.794	3278.29
428.001	3548.62
428.209	3694.02
428.417	3468.75
428.624	3681.74
428.832	3810.76
429.039	3800.52
429.247	3921.35
429.454	4068.8
429.662	4476.35
429.869	4117.95
430.076	4468.16
430.284	4376
430.491	4533.69
430.699	4750.78
430.906	4849.08
431.114	4890.04
431.321	4965.81
431.528	4974
431.736	5381.55
431.943	5678.51
432.15	5385.65
432.358	5399.98
432.565	5778.86
432.772	5756.33
432.979	6065.57
433.187	6038.95
433.394	6167.97
433.601	6708.63
433.808	6622.62
434.016	6651.29
434.223	6821.27
434.43	7177.62
434.637	7181.71
434.844	7490.96
435.052	7787.91
435.259	7630.22
435.466	7744.91
435.673	7550.35
435.88	8158.6
436.087	8748.41
436.294	8725.88
436.501	8437.12
436.708	8498.56
436.915	9014.65
437.122	9241.97
437.329	9256.31
437.537	9381.23
437.743	9686.38
437.95	9430.38
438.157	10059.11
438.364	10446.18
438.571	10290.53
438.778	10448.22
438.985	11435.35
439.192	10972.5
439.399	11328.85
439.606	11103.57
439.813	11529.55
440.02	12215.62
440.227	12068.17
440.433	12092.74
440.64	12594.5
440.847	12186.95
441.054	12768.57
441.261	13405.49
441.467	13157.69
441.674	13475.12
441.881	14159.14
442.088	13956.4
442.294	13837.61
442.501	14468.39
442.708	14417.19
442.914	14851.36
443.121	15498.52
443.328	15299.86
443.534	16360.71
443.741	15881.49
443.948	15721.74
444.154	16706.82
444.361	16631.04
444.568	16682.24
444.774	16508.16
444.981	16831.74
445.187	17433.85
445.394	18146.54
445.6	17775.86
445.807	19946.7
446.013	18830.56
446.22	19119.32
446.426	19868.88
446.633	20352.2
446.839	20692.16
447.046	19657.94
447.252	21191.87
447.459	20911.3
447.665	20987.07
447.871	21824.69
448.078	22678.69
448.284	21445.82
448.491	22328.49
448.697	22883.49
448.903	23557.27
449.11	23387.29
449.316	23139.49
449.522	23600.28
449.728	24192.14
449.935	24089.74
450.141	24456.33
450.347	25162.88
450.553	24208.53
450.76	24476.81
450.966	25240.7
451.172	25083.01
451.378	25410.68
451.584	24910.98
451.791	25967.73
451.997	26047.6
452.203	26063.99
452.409	26395.76
452.615	25871.48
452.821	24958.08
453.027	24765.57
453.233	26256.5
453.44	25011.33
453.646	25291.9
453.852	25681.02
454.058	26233.97
454.264	25173.12
454.47	25742.46
454.676	25011.33
454.882	26221.68
455.088	23864.47
455.294	24216.72
455.5	24726.66
455.705	24771.72
455.911	23418.01
456.117	23241.89
456.323	22983.84
456.529	21556.41
456.735	22822.05
456.941	22197.42
457.147	21812.4
457.352	21130.43
457.558	21257.4
457.764	21056.7
457.97	20425.93
458.176	19899.6
458.381	19954.9
458.587	19033.31
458.793	19205.34
458.999	18388.2
459.204	19537.11
459.41	18722.02
459.616	17786.1
459.821	18029.8
460.027	17820.91
460.233	17282.3
460.438	16477.44
460.644	16743.68
460.85	15844.62
461.055	15748.37
461.261	15504.66
461.466	14495.01
461.672	14007.59
461.878	15109.4
462.083	13905.2
462.289	13911.34
462.494	13684.02
462.7	13284.66
462.905	12725.57
463.111	13245.75
463.316	13466.93
463.522	12793.15
463.727	13018.43
463.932	12952.89
464.138	12684.61
464.343	12918.07
464.549	12516.67
464.754	12893.5
464.959	12705.09
465.165	12844.35
465.37	12223.81
465.575	11732.3
465.781	12289.35
465.986	12150.09
466.191	12008.78
466.397	11744.59
466.602	11148.63
466.807	11402.58
467.012	11611.47
467.218	11341.14
467.423	11236.69
467.628	11406.67
467.833	11803.98
468.038	11330.9
468.244	11025.75
468.449	11724.11
468.654	11150.68
468.859	11142.49
469.064	11117.91
469.269	10417.51
469.474	10550.62
469.679	10853.72
469.885	10476.9
470.09	10777.95
470.295	10655.07
470.5	10294.63
470.705	10550.62
470.91	10190.18
471.115	10126.69
471.32	10108.26
471.525	10288.48
471.73	10050.92
471.935	9928.04
472.139	9674.09
472.344	9817.45
472.549	9739.63
472.754	9563.5
472.959	9330.03
473.164	9174.39
473.369	9028.98
473.574	9485.68
473.778	9379.18
473.983	9217.4
474.188	9133.43
474.393	8791.42
474.598	8899.96
474.802	8699.26
475.007	8799.61
475.212	8715.64
475.417	8387.97
475.621	8396.16
475.826	8469.89
476.031	8162.69
476.235	8131.97
476.44	8177.03
476.645	8101.25
476.849	8037.77
477.054	7912.84
477.259	7916.94
477.463	7890.31
477.668	7769.48
477.872	7722.38
478.077	7650.7
478.282	7363.98
478.486	7372.18
478.691	7380.37
478.895	7265.68
479.1	7437.71
479.304	7234.96
479.509	7073.17
479.713	7243.15
479.918	7126.42
480.122	6962.58
480.326	7034.26
480.531	6884.76
480.735	6944.15
480.94	6978.97
481.144	7155.09
481.348	6874.52
481.553	7007.64
481.757	6612.38
481.961	6792.6
482.166	6880.66
482.37	6831.51
482.574	6686.11
482.778	6774.17
482.983	6817.18
483.187	6765.98
483.391	6702.49
483.595	6649.24
483.8	6495.64
484.004	6772.12
484.208	6835.61
484.412	6602.14
484.616	6833.56
484.821	6790.55
485.025	6761.88
485.229	6606.24
485.433	6624.67
485.637	6634.91
485.841	6495.64
486.045	6669.72
486.249	6700.44
486.453	6569.37
486.657	6565.28
486.861	6626.71
487.065	6569.37
487.269	6763.93
487.473	6321.57
487.677	6698.39
487.881	6751.64
488.085	6729.11
488.289	6774.17
488.493	6616.48
488.697	6806.94
488.901	6862.23
489.105	6679.96
489.309	6669.72
489.512	6759.83
489.716	6831.51
489.92	6761.88
490.124	6946.2
490.328	6808.98
490.531	6755.74
490.735	6870.42
490.939	6831.51
491.143	6749.59
491.346	6880.66
491.55	7028.12
491.754	7034.26
491.958	6940.05
492.161	6933.91
492.365	7026.07
492.569	7134.61
492.772	7107.99
492.976	7181.71
493.18	7140.76
493.383	7232.91
493.587	7245.2
493.79	7194
493.994	7239.06
494.197	7318.93
494.401	7441.81
494.605	7380.37
494.808	7474.57
495.012	7587.21
495.215	7581.07
495.419	7746.95
495.622	7716.23
495.825	7552.4
496.029	7785.87
496.232	7892.36
496.436	7818.63
496.639	7900.55
496.843	8138.12
497.046	8185.22
497.249	8168.84
497.453	8383.87
497.656	8322.43
497.859	8344.96
498.063	8572.29
498.266	8510.85
498.469	8748.41
498.673	8783.23
498.876	8793.47
499.079	9010.55
499.282	9037.17
499.485	9149.81
499.689	9170.29
499.892	9366.9
500.095	9389.42
500.298	9483.63
500.501	9452.91
500.705	9907.56
500.908	9715.05
501.111	9977.19
501.314	9917.8
501.517	10128.74
501.72	10151.27
501.923	10261.86
502.126	10435.94
502.329	10497.38
502.532	10751.32
502.735	10837.34
502.938	10927.45
503.141	10763.61
503.344	11017.56
503.547	11224.4
503.75	11205.97
503.953	11410.77
504.156	11554.13
504.359	11742.54
504.562	11715.92
504.765	12035.4
504.968	11980.11
505.17	12014.92
505.373	12193.09
505.576	12328.26
505.779	12590.4
505.982	12655.93
506.185	12969.27
506.387	12952.89
506.59	13374.77
506.793	13321.52
506.996	13075.77
507.198	13727.02
507.401	13550.9
507.604	13610.29
507.807	14099.75
508.009	14175.53
508.212	14218.54
508.415	14204.2
508.617	14652.7
508.82	14583.07
509.022	14454.05
509.225	14843.17
509.428	15187.22
509.63	15263
509.833	15279.38
510.035	15445.27
510.238	15465.75
510.44	15680.78
510.643	15783.18
510.845	16291.08
511.048	16125.19
511.25	16217.35
511.453	16450.82
511.655	16841.98
511.858	16686.34
512.06	16891.13
512.262	17126.65
512.465	17163.51
512.667	17235.19
512.87	17587.44
513.072	17513.72
513.274	18101.48
513.477	18230.51
513.679	18238.7
513.881	18466.02
514.084	18842.85
514.286	18664.68
514.488	18595.04
514.69	19326.17
514.893	19148
515.095	19381.46
515.297	19635.41
515.499	19612.88
515.701	19877.07
515.904	20169.93
516.106	20186.32
516.308	20532.42
516.51	20790.47
516.712	20737.22
516.914	20999.36
517.116	21378.23
517.318	21261.5
517.52	21699.76
517.722	21656.76
517.925	21728.44
518.127	21984.43
518.329	22324.4
518.531	22340.78
518.733	22815.91
518.935	22873.25
519.136	22891.68
519.338	23143.58
519.54	23233.69
519.742	23794.84
519.944	23616.66
520.146	24067.22
520.348	24267.92
520.55	23987.35
520.752	24581.26
520.954	24614.02
521.155	24929.41
521.357	25048.19
521.559	25117.82
521.761	25508.99
521.963	25500.79
522.164	25574.52
522.366	25629.82
522.568	25752.7
522.77	26084.47
522.971	26268.78
523.173	26111.09
523.375	26721.38
523.576	26592.36
523.778	26791.02
523.98	27085.92
524.181	27145.31
524.383	27182.18
524.584	27796.57
524.786	27470.94
524.988	27532.38
525.189	27843.67
525.391	27970.65
525.592	28019.8
525.794	28361.81
525.995	28355.66
526.197	28679.24
526.398	28429.39
526.6	28793.93
526.801	28742.73
527.003	28949.57
527.204	29033.54
527.406	29234.24
527.607	29066.31
527.808	29355.07
528.01	28945.48
528.211	29338.69
528.412	29944.89
528.614	29649.98
528.815	30026.81
529.016	29916.22
529.218	29733.95
529.419	29930.55
529.62	29885.5
529.822	29846.58
530.023	30000.18
530.224	30084.15
530.425	29805.63
530.626	29877.3
530.828	29725.75
531.029	30891.05
531.23	29955.13
531.431	29979.7
531.632	30061.62
531.833	30704.68
532.035	30370.86
532.236	30497.84
532.437	30452.78
532.638	30643.24
532.839	30497.84
533.04	30772.27
533.241	30479.41
533.442	30655.53
533.643	30684.2
533.844	30567.47
534.045	30823.47
534.246	30182.45
534.447	30559.28
534.648	30792.75
534.849	30626.86
535.05	30534.7
535.251	30532.65
535.451	30393.39
535.652	31030.31
535.853	30778.41
536.054	30708.78
536.255	30864.43
536.456	30555.18
536.657	30874.66
536.857	30438.45
537.058	30587.95
537.259	30536.75
537.46	30673.96
537.66	30598.19
537.861	30673.96
538.062	30694.44
538.263	30995.5
538.463	30491.69
538.664	30467.12
538.865	30780.46
539.065	30780.46
539.266	30393.39
539.466	30749.74
539.667	30110.77
539.868	30594.09
540.068	30690.35
540.269	30084.15
540.469	30450.74
540.67	30350.38
540.87	30372.91
541.071	30485.55
541.271	30700.59
541.472	30495.79
541.672	30436.4
541.873	30286.9
542.073	29957.17
542.274	30532.65
542.474	30544.94
542.675	30051.38
542.875	30753.83
543.075	30282.8
543.276	30161.97
543.476	30141.49
543.676	30270.51
543.877	30366.77
544.077	30153.78
544.277	30354.48
544.478	30223.41
544.678	30028.85
544.878	30200.88
545.078	30164.02
545.279	30067.77
545.479	30495.79
545.679	30360.62
545.879	30131.25
546.079	30252.08
546.28	30241.84
546.48	29985.85
546.68	30082.1
546.88	30133.3
547.08	30020.66
547.28	30059.57
547.48	29779
547.68	30194.74
547.88	29783.1
548.081	29975.61
548.281	29785.15
548.481	29889.59
548.681	30278.71
548.881	29766.71
549.081	29709.37
549.28	29670.46
549.48	30168.12
549.68	29647.93
549.88	30426.16
550.08	29817.91
550.28	29979.7
550.48	29725.75
550.68	30035
550.88	29981.75
551.08	29967.41
551.279	29969.46
551.479	29664.32
551.679	29836.34
551.879	29926.46
552.079	30008.37
552.278	29838.39
552.478	29883.45
552.678	29539.39
552.878	29897.78
553.077	29543.49
553.277	29424.7
553.477	30280.75
553.676	29912.12
553.876	29979.7
554.076	29652.03
554.275	29557.82
554.475	29166.66
554.674	29916.22
554.874	29606.97
555.074	29621.31
555.273	29875.26
555.473	29729.85
555.672	29838.39
555.872	29979.7
556.071	29688.89
556.271	29772.86
556.47	29443.13
556.67	29385.79
556.869	29643.84
557.068	29150.28
557.268	29465.66
557.467	29508.67
557.667	29502.53
557.866	29383.74
558.065	29312.06
558.265	28965.96
558.464	29078.6
558.663	29353.02
558.863	28992.58
559.062	29414.46
559.261	28853.32
559.461	29639.74
559.66	28822.6
559.859	29041.73
560.058	28523.6
560.258	28787.78
560.457	28669
560.656	29080.64
560.855	28587.08
561.054	28863.56
561.253	28804.17
561.453	28732.49
561.652	28881.99
561.851	28894.28
562.05	28304.46
562.249	28316.75
562.448	28607.56
562.647	28384.33
562.846	28408.91
563.045	28580.94
563.244	28114
563.443	28492.88
563.642	27675.74
563.841	28146.77
564.04	28234.83
564.239	28152.91
564.438	27999.32
564.637	27896.92
564.836	27743.32
565.035	27733.08
565.234	27815
565.432	27827.29
565.631	27440.22
565.83	27767.9
566.029	27968.6
566.228	27593.82
566.427	27337.82
566.625	27548.76
566.824	26979.43
567.023	27532.38
567.222	27028.58
567.42	27354.21
567.619	27108.45
567.818	27085.92
568.016	26889.32
568.215	27247.71
568.414	27081.83
568.612	27139.17
568.811	26770.54
569.01	26924.13
569.208	26897.51
569.407	26727.53
569.605	26547.31
569.804	26782.82
570.002	26594.41
570.201	26145.91
570.4	26487.92
570.598	26383.47
570.797	26231.92
570.995	26233.97
571.193	25797.75
571.392	26422.38
571.59	26088.56
571.789	26031.22
571.987	25889.91
572.186	25707.64
572.384	25601.15
572.582	25764.98
572.781	25871.48
572.979	25482.36
573.177	25566.33
573.376	25588.86
573.574	25656.44
573.772	25488.51
573.971	25128.06
574.169	24841.35
574.367	25246.85
574.565	25488.51
574.763	25142.4
574.962	24910.98
575.16	24839.3
575.358	25140.35
575.556	24601.74
575.754	25115.78
575.952	24528.01
576.151	24474.76
576.349	24591.5
576.547	24644.74
576.745	24620.17
576.943	24491.15
577.141	24575.11
577.339	24315.02
577.537	24335.5
577.735	24302.73
577.933	24163.47
578.131	24245.39
578.329	24034.45
578.527	23846.04
578.725	23841.94
578.923	23936.15
579.121	23477.4
579.319	23688.34
579.516	23657.62
579.714	23612.57
579.912	23780.5
580.11	23411.87
580.308	23477.4
580.506	23469.21
580.704	23131.3
580.901	23293.08
581.099	23671.96
581.297	23198.88
581.495	23192.73
581.692	23135.39
581.89	22912.16
582.088	23002.27
582.285	23032.99
582.483	22887.59
582.681	22992.03
582.878	22797.48
583.076	22830.24
583.274	22838.44
583.471	22416.55
583.669	22584.49
583.866	22396.07
584.064	22477.99
584.262	22353.07
584.459	22299.82
584.657	22232.24
584.854	22555.82
585.052	22035.63
585.249	21929.14
585.447	22009.01
585.644	21841.07
585.841	21996.72
586.039	21935.28
586.236	21619.89
586.434	21617.85
586.631	21730.48
586.828	21724.34
587.026	21503.16
587.223	21429.43
587.42	21355.71
587.618	21228.73
587.815	21304.51
588.012	21105.85
588.21	21206.2
588.407	21245.12
588.604	21382.33
588.801	20806.85
588.999	21202.11
589.196	20880.58
589.393	20671.68
589.59	20919.49
589.787	20831.43
589.984	20700.36
590.182	20632.77
590.379	20833.47
590.576	20640.97
590.773	20516.04
590.97	20229.32
591.167	20401.35
591.364	20176.08
591.561	20380.87
591.758	20176.08
591.955	20190.41
592.152	20243.66
592.349	19901.65
592.546	19997.9
592.743	20079.82
592.94	19791.06
593.137	19897.55
593.334	19725.52
593.531	19610.84
593.727	19698.9
593.924	19715.28
594.121	19518.68
594.318	19971.28
594.515	19549.4
594.712	19440.86
594.908	19436.76
595.105	19217.63
595.302	19086.56
595.499	19242.2
595.696	19248.35
595.892	18805.99
596.089	19053.79
596.286	19139.8
596.482	18685.15
596.679	18916.58
596.876	18873.57
597.072	18928.86
597.269	18902.24
597.466	18574.56
597.662	18795.75
597.859	18670.82
598.055	18793.7
598.252	18578.66
598.448	18531.56
598.645	18324.71
598.841	18144.49
599.038	18496.74
599.234	18365.67
599.431	17831.15
599.627	18113.77
599.824	18054.38
600.02	18056.43
600.217	18109.68
600.413	17804.53
600.609	18097.39
600.806	17704.18
601.002	17990.89
601.198	17724.66
601.395	17767.66
601.591	17519.86
601.787	17628.4
601.984	17530.1
602.18	17446.13
602.376	17327.35
602.572	17155.32
602.769	17388.79
602.965	17059.07
603.161	17173.75
603.357	17265.91
603.553	17091.84
603.75	16844.03
603.946	16882.94
604.142	17210.62
604.338	16760.06
604.534	17145.08
604.73	16493.83
604.926	16686.34
605.122	16844.03
605.318	16710.91
605.514	16639.23
605.71	16411.91
605.906	16489.73
606.102	16518.4
606.298	16383.24
606.494	16477.44
606.69	16762.11
606.886	16475.4
607.082	16110.86
607.278	16121.1
607.474	16076.04
607.67	16037.13
607.866	16125.19
608.062	15990.03
608.257	16016.65
608.453	15983.88
608.649	16096.52
608.845	15863.05
609.041	15838.48
609.236	15891.73
609.432	16114.95
609.628	15752.46
609.824	15801.61
610.019	15781.14
610.215	15908.11
610.411	15818
610.606	15740.18
610.802	15666.45
610.998	15607.06
611.193	15633.68
611.389	15656.21
611.584	15516.95
611.78	15572.24
611.976	15389.97
612.171	15527.19
612.367	15332.63
612.562	15516.95
612.758	15263
612.953	15246.62
613.149	15219.99
613.344	15263
613.539	15320.34
613.735	15222.04
613.93	15252.76
614.126	15019.29
614.321	15021.34
614.517	14933.28
614.712	15015.19
614.907	14875.93
615.103	14906.65
615.298	14894.36
615.493	14939.42
615.688	14800.16
615.884	14904.6
616.079	14638.37
616.274	14851.36
616.47	14845.21
616.665	14935.32
616.86	14687.52
617.055	14548.26
617.25	14576.93
617.445	14593.31
617.641	14433.57
617.836	14413.09
618.031	14435.62
618.226	14619.94
618.421	14538.02
618.616	14439.72
618.811	14349.61
619.006	14282.02
619.201	14030.12
619.396	14062.89
619.591	13991.21
619.786	14241.06
619.981	13909.29
620.176	13823.28
620.371	13841.71
620.566	13839.66
620.761	13851.95
620.956	13686.06
621.151	13598
621.346	13694.26
621.541	13526.32
621.735	13663.54
621.93	13444.4
622.125	13325.62
622.32	13063.48
622.515	13350.2
622.709	13106.49
622.904	13180.21
623.099	12942.65
623.294	13313.33
623.488	12645.7
623.683	12772.67
623.878	12627.26
624.072	12657.98
624.267	12444.99
624.462	12668.22
624.656	12647.74
624.851	12352.84
625.046	12189
625.24	12346.69
625.435	12176.71
625.629	11949.39
625.824	12150.09
626.018	11947.34
626.213	11797.84
626.407	11828.56
626.602	11713.87
626.796	11806.03
626.991	11988.3
627.185	11519.31
627.38	11515.22
627.574	11314.52
627.768	11322.71
627.963	11488.59
628.157	11386.19
628.352	11240.79
628.546	10958.17
628.74	11130.2
628.935	11066.71
629.129	11076.95
629.323	10863.96
629.517	10870.11
629.712	10880.35
629.906	10874.2
630.1	10681.69
630.294	10820.95
630.489	10640.73
630.683	10829.15
630.877	10313.06
631.071	10499.42
631.265	10569.05
631.459	10194.28
631.653	10210.66
631.848	10263.91
632.042	10241.38
632.236	10263.91
632.43	10087.78
632.624	10050.92
632.818	9928.04
633.012	9911.66
633.206	9635.18
633.4	9919.85
633.594	9921.9
633.788	9645.42
633.982	9772.39
634.176	9592.17
634.369	9493.87
634.563	9493.87
634.757	9571.69
634.951	9606.51
635.145	9442.67
635.339	9391.47
635.533	9354.61
635.726	9112.95
635.92	9125.24
636.114	9119.09
636.308	9067.89
636.501	8981.88
636.695	9172.34
636.889	8727.93
637.083	8983.93
637.276	8863.1
637.47	8809.85
637.664	8869.24
637.857	8748.41
638.051	8848.76
638.244	8781.18
638.438	8766.84
638.632	8555.9
638.825	8508.8
639.019	8643.96
639.212	8564.09
639.406	8334.72
639.599	8306.05
639.793	8144.26
639.986	8095.11
640.18	8232.32
640.373	8062.34
640.567	8070.53
640.76	8070.53
640.954	7904.65
641.147	7970.18
641.34	7863.69
641.534	8011.14
641.727	7609.74
641.92	7816.58
642.114	7982.47
642.307	7792.01
642.5	7716.23
642.694	7609.74
642.887	7554.44
643.08	7728.52
643.273	7382.42
643.467	7384.46
643.66	7267.73
643.853	7316.88
644.046	7347.6
644.239	7306.64
644.432	7228.82
644.626	7169.43
644.819	7249.3
645.012	7191.95
645.205	7241.11
645.398	6923.67
645.591	6946.2
645.784	7128.47
645.977	6897.05
646.17	6997.4
646.363	6952.34
646.556	6677.91
646.749	6825.37
646.942	6913.43
647.135	6905.24
647.328	6626.71
647.521	6626.71
647.714	6808.98
647.907	6610.33
648.099	6686.11
648.292	6659.48
648.485	6514.08
648.678	6546.84
648.871	6446.49
649.064	6319.52
649.256	6284.7
649.449	6251.94
649.642	6327.71
649.835	6247.84
650.027	6249.89
650.22	6213.03
650.413	6278.56
650.605	6208.93
650.798	6026.66
650.991	6065.57
651.183	6043.04
651.376	5883.3
651.568	5983.65
651.761	6022.56
651.954	5680.55
652.146	5932.45
652.339	5893.54
652.531	5899.69
652.724	5807.53
652.916	5725.61
653.109	5641.64
653.301	5873.06
653.494	5725.61
653.686	5547.44
653.879	5711.27
654.071	5655.98
654.263	5619.11
654.456	5529
654.648	5594.54
654.84	5340.59
655.033	5391.79
655.225	5471.66
655.417	5422.51
655.61	5375.41
655.802	5473.71
655.994	5324.21
656.186	5537.2
656.379	5240.24
656.571	5326.25
656.763	5232.05
656.955	5152.18
657.148	5121.46
657.34	5109.17
657.532	4969.91
657.724	5219.76
657.916	5094.83
658.108	5103.03
658.3	5156.27
658.492	4931
658.684	4906.42
658.876	4998.58
659.068	4951.48
659.26	4851.13
659.452	4771.26
659.644	4988.34
659.836	4832.69
660.028	4894.13
660.22	4818.36
660.412	4777.4
660.604	4638.14
660.796	4726.2
660.988	4718.01
661.18	4566.46
661.372	4681.14
661.563	4597.18
661.755	4654.52
661.947	4554.17
662.139	4521.4
662.331	4545.98
662.522	4447.68
662.714	4355.52
662.906	4431.29
663.097	4466.11
663.289	4312.51
663.481	4496.83
663.673	4474.3
663.864	4474.3
664.056	4206.02
664.247	4287.93
664.439	4382.14
664.631	4277.69
664.822	4371.9
665.014	4169.15
665.205	4081.09
665.397	4246.98
665.588	4193.73
665.78	4165.06
665.971	4146.62
666.163	4117.95
666.354	4058.56
666.546	4048.32
666.737	4054.47
666.929	4031.94
667.12	3978.69
667.311	4036.03
667.503	4072.9
667.694	4015.55
667.885	3968.45
668.077	4021.7
668.268	3923.4
668.459	3907.01
668.651	3939.78
668.842	3917.25
669.033	3915.2
669.224	3821
669.416	3911.11
669.607	3841.48
669.798	3845.57
669.989	3808.71
670.18	3661.26
670.371	3876.29
670.563	3673.54
670.754	3876.29
670.945	3710.41
671.136	3849.67
671.327	3716.55
671.518	3610.06
671.709	3743.17
671.9	3614.15
672.091	3655.11
672.282	3646.92
672.473	3653.06
672.664	3648.97
672.855	3722.7
673.046	3610.06
673.237	3618.25
673.428	3603.91
673.619	3497.42
673.809	3442.12
674	3462.6
674.191	3689.93
674.382	3493.32
674.573	3599.82
674.764	3519.95
674.954	3403.21
675.145	3515.85
675.336	3472.84
675.527	3435.98
675.717	3497.42
675.908	3352.01
676.099	3415.5
676.289	3319.25
676.48	3345.87
676.671	3382.73
676.861	3419.6
677.052	3378.64
677.243	3362.25
677.433	3296.72
677.624	3401.16
677.814	3429.84
678.005	3331.53
678.195	3388.88
678.386	3433.93
678.576	3141.07
678.767	3343.82
678.957	3294.67
679.148	3319.25
679.338	3407.31
679.529	3229.13
679.719	3286.48
679.909	3341.77
680.1	3235.28
680.29	3292.62
680.481	3339.73
680.671	3327.44
680.861	3319.25
681.052	3263.95
681.242	3292.62
681.432	3214.8
681.622	3311.05
681.813	3206.61
682.003	3251.66
682.193	3161.55
682.383	3337.68
682.573	3200.46
682.764	3151.31
682.954	3186.13
683.144	3247.57
683.334	3290.57
683.524	3276.24
683.714	3085.78
683.904	3149.26
684.094	3210.7
684.284	3194.32
684.474	3239.37
684.664	3141.07
684.854	3245.52
685.044	3120.59
685.234	3059.15
685.424	3222.99
685.614	3046.87
685.804	3147.22
685.994	3059.15
686.184	3093.97
686.374	2964.95
686.564	3063.25
686.753	3005.91
686.943	3046.87
687.133	3104.21
687.323	2915.8
687.513	2985.43
687.702	2952.66
687.892	3071.44
688.082	2940.37
688.272	2997.71
688.461	2954.71
688.651	2975.19
688.841	2958.8
689.03	2883.03
689.22	2942.42
689.41	2858.45
689.599	2936.28
689.789	2907.6
689.979	2854.36
690.168	2876.88
690.358	2833.88
690.547	2694.61
690.737	2815.45
690.926	2751.96
691.116	2735.57
691.305	2864.6
691.495	2743.77
691.684	2821.59
691.874	2768.34
692.063	2792.92
692.252	2692.57
692.442	2850.26
692.631	2573.78
692.82	2762.2
693.01	2670.04
693.199	2688.47
693.388	2682.33
693.578	2545.11
693.767	2688.47
693.956	2762.2
694.146	2575.83
694.335	2514.39
694.524	2612.7
694.713	2592.22
694.902	2727.38
695.092	2616.79
695.281	2686.42
695.47	2514.39
695.659	2498.01
695.848	2659.8
696.037	2549.21
696.226	2543.07
696.415	2680.28
696.604	2584.02
696.793	2645.46
696.982	2674.14
697.171	2620.89
697.36	2604.5
697.549	2573.78
697.738	2534.87
697.927	2481.63
698.116	2590.17
698.305	2436.57
698.494	2506.2
698.683	2498.01
698.872	2514.39
699.061	2457.05
699.25	2553.31
699.438	2491.87
699.627	2532.83
699.816	2571.74
700.005	2387.42
700.193	2504.15
700.382	2553.31
700.571	2536.92
700.76	2528.73
700.948	2604.5
701.137	2538.97
701.326	2495.96
701.514	2557.4
701.703	2489.82
701.892	2383.32
702.08	2481.63
702.269	2606.55
702.457	2491.87
702.646	2489.82
702.834	2366.94
703.023	2526.68
703.212	2637.27
703.4	2471.39
703.589	2475.48
703.777	2506.2
703.965	2475.48
704.154	2452.95
704.342	2473.43
704.531	2377.18
704.719	2489.82
704.907	2420.19
705.096	2442.71
705.284	2459.1
705.472	2401.76
705.661	2422.24
705.849	2438.62
706.037	2547.16
706.226	2436.57
706.414	2409.95
706.602	2399.71
706.79	2452.95
706.979	2399.71
707.167	2350.56
707.355	2387.42
707.543	2354.65
707.731	2500.06
707.919	2358.75
708.107	2493.91
708.296	2366.94
708.484	2334.17
708.672	2442.71
708.86	2391.52
709.048	2389.47
709.236	2424.28
709.424	2495.96
709.612	2364.89
709.8	2364.89
709.988	2420.19
710.176	2405.85
710.364	2555.35
710.551	2330.08
710.739	2358.75
710.927	2424.28
711.115	2350.56
711.303	2473.43
711.491	2418.14
711.679	2389.47
711.866	2442.71
712.054	2395.61
712.242	2328.03
712.43	2432.47
712.617	2360.8
712.805	2489.82
712.993	2373.08
713.181	2311.64
713.368	2403.8
713.556	2483.67
713.744	2285.02
713.931	2348.51
714.119	2532.83
714.306	2387.42
714.494	2342.36
714.682	2325.98
714.869	2330.08
715.057	2346.46
715.244	2342.36
715.432	2373.08
715.619	2332.12
715.807	2401.76
715.994	2395.61
716.182	2334.17
716.369	2272.73
716.556	2252.25
716.744	2350.56
716.931	2211.29
717.119	2313.69
717.306	2362.84
717.493	2385.37
717.681	2344.41
717.868	2377.18
718.055	2305.5
718.242	2280.93
718.43	2342.36
718.617	2498.01
718.804	2217.44
718.991	2383.32
719.179	2199.01
719.366	2276.83
719.553	2285.02
719.74	2211.29
719.927	2221.53
720.114	2182.62
720.301	2262.49
720.488	2188.77
720.676	2360.8
720.863	2194.91
721.05	2399.71
721.237	2272.73
721.424	2338.27
721.611	2239.97
721.798	2194.91
721.985	2399.71
722.172	2207.2
722.358	2219.49
722.545	2244.06
722.732	2305.5
722.919	2186.72
723.106	2301.4
723.293	2248.16
723.48	2278.88
723.667	2272.73
723.853	2192.86
724.04	2287.07
724.227	2278.88
724.414	2194.91
724.6	2278.88
724.787	2293.21
724.974	2301.4
725.161	2211.29
725.347	2153.95
725.534	2285.02
725.72	2299.36
725.907	2178.53
726.094	2301.4
726.28	2180.57
726.467	2256.35
726.653	2246.11
726.84	2211.29
727.027	2147.81
727.213	2244.06
727.4	2108.9
727.586	2239.97
727.773	2170.33
727.959	2354.65
728.145	2100.7
728.332	2065.89
728.518	2147.81
728.705	2250.21
728.891	2149.86
729.077	2162.14
729.264	2215.39
729.45	2168.29
729.636	2196.96
729.823	2254.3
730.009	2182.62
730.195	2272.73
730.382	2145.76
730.568	2213.34
730.754	2153.95
730.94	2156
731.126	2100.7
731.313	2153.95
731.499	2076.13
731.685	2137.57
731.871	2268.64
732.057	2239.97
732.243	2158.05
732.429	2194.91
732.615	2188.77
732.801	2153.95
732.987	2049.5
733.173	2252.25
733.359	2153.95
733.545	2239.97
733.731	2182.62
733.917	2190.81
734.103	2207.2
734.289	2168.29
734.475	2059.74
734.661	2205.15
734.847	2225.63
735.033	2135.52
735.219	2110.94
735.404	2156
735.59	2096.61
735.776	2063.84
735.962	2162.14
736.148	2117.09
736.333	2151.9
736.519	2020.83
736.705	2129.38
736.89	2170.33
737.076	2139.62
737.262	2026.98
737.447	2049.5
737.633	2043.36
737.819	2069.98
738.004	2055.65
738.19	2100.7
738.375	2059.74
738.561	2096.61
738.747	2047.46
738.932	2092.51
739.118	2059.74
739.303	2145.76
739.489	2108.9
739.674	2043.36
739.859	2076.13
740.045	2115.04
740.23	2022.88
740.416	1983.97
740.601	1992.16
740.786	1969.63
740.972	1883.62
741.157	1957.35
741.342	1908.19
741.528	1965.54
741.713	1930.72
741.898	1971.68
742.084	1998.31
742.269	1973.73
742.454	1928.67
742.639	1961.44
742.824	1883.62
743.01	1848.8
743.195	2035.17
743.38	1932.77
743.565	1916.39
743.75	1879.52
743.935	1779.17
744.12	1953.25
744.305	1844.71
744.49	1744.36
744.675	1871.33
744.86	1848.8
745.045	1859.04
745.23	1721.83
745.415	1822.18
745.6	1846.76
745.785	1719.78
745.97	1730.02
746.155	1793.51
746.34	1850.85
746.525	1678.82
746.71	1770.98
746.895	1699.3
747.079	1713.64
747.264	1619.43
747.449	1809.89
747.634	1687.01
747.819	1748.45
748.003	1678.82
748.188	1744.36
748.373	1695.21
748.557	1676.77
748.742	1633.77
748.927	1713.64
749.111	1625.58
749.296	1691.11
749.481	1650.15
749.665	1719.78
749.85	1611.24
750.034	1635.82
750.219	1572.33
750.404	1574.38
750.588	1539.56
750.773	1498.6
750.957	1488.36
751.141	1580.52
751.326	1564.14
751.51	1496.55
751.695	1443.31
751.879	1439.21
752.064	1433.07
752.248	1457.64
752.432	1433.07
752.617	1539.56
752.801	1412.59
752.985	1357.29
753.17	1490.41
753.354	1433.07
753.538	1484.27
753.722	1375.72
753.907	1295.85
754.091	1318.38
754.275	1285.61
754.459	1316.33
754.643	1304.04
754.828	1297.9
755.012	1289.71
755.196	1226.22
755.38	1328.62
755.564	1213.93
755.748	1353.2
755.932	1240.56
756.116	1244.65
756.3	1302
756.484	1164.78
756.668	1230.32
756.852	1170.93
757.036	1220.08
757.22	1179.12
757.404	1226.22
757.588	1121.77
757.772	1121.77
757.956	1170.93
758.14	1086.96
758.323	1162.73
758.507	1148.4
758.691	1181.17
758.875	1140.21
759.059	1195.5
759.242	1054.19
759.426	1058.29
759.61	1146.35
759.794	1023.47
759.977	943.6
760.161	1089.01
760.345	1023.47
760.528	1002.99
760.712	1091.06
760.895	992.75
761.079	994.8
761.263	1054.19
761.446	933.36
761.63	1097.2
761.813	980.47
761.997	974.32
762.18	921.07
762.364	1017.33
762.547	968.18
762.731	982.51
762.914	919.03
763.098	1000.94
763.281	935.41
763.464	980.47
763.648	990.7
763.831	994.8
764.015	828.92
764.198	921.07
764.381	949.75
764.564	912.88
764.748	949.75
764.931	962.03
765.114	894.45
765.297	966.13
765.481	859.63
765.664	863.73
765.847	845.3
766.03	992.75
766.213	980.47
766.397	888.31
766.58	859.63
766.763	876.02
766.946	843.25
767.129	861.68
767.312	884.21
767.495	869.87
767.678	830.96
767.861	900.59
768.044	822.77
768.227	806.39
768.41	792.05
768.593	853.49
768.776	769.52
768.959	755.19
769.142	853.49
769.324	779.76
769.507	812.53
769.69	851.44
769.873	747
770.056	839.16
770.239	802.29
770.421	884.21
770.604	759.28
770.787	697.85
770.97	765.43
771.152	796.15
771.335	695.8
771.518	687.61
771.7	685.56
771.883	820.72
772.066	759.28
772.248	730.61
772.431	777.72
772.613	736.76
772.796	771.57
772.978	728.56
773.161	726.52
773.343	728.56
773.526	675.32
773.708	642.55
773.891	652.79
774.073	695.8
774.256	738.8
774.438	783.86
774.621	663.03
774.803	730.61
774.985	706.04
775.168	654.84
775.35	681.46
775.532	681.46
775.715	646.65
775.897	663.03
776.079	636.41
776.261	677.37
776.444	564.73
776.626	593.4
776.808	607.73
776.99	605.69
777.173	601.59
777.355	613.88
777.537	587.26
777.719	558.58
777.901	589.3
778.083	482.81
778.265	558.58
778.447	667.13
778.629	552.44
778.811	517.62
778.993	607.73
779.175	597.49
779.357	615.93
779.539	511.48
779.721	589.3
779.903	519.67
780.085	564.73
780.267	476.66
780.449	497.14
780.631	581.11
780.812	445.95
780.994	445.95
781.176	554.49
781.358	417.27
781.54	464.38
781.721	482.81
781.903	495.1
782.085	519.67
782.267	523.77
782.448	437.75
782.63	509.43
782.812	515.58
782.993	435.71
783.175	409.08
783.357	499.19
783.538	454.14
783.72	466.42
783.901	450.04
784.083	384.51
784.264	427.51
784.446	474.62
784.627	339.45
784.809	421.37
784.99	433.66
785.172	407.03
785.353	511.48
785.535	421.37
785.716	425.47
785.897	380.41
786.079	331.26
786.26	378.36
786.441	478.71
786.623	361.98
786.804	386.55
786.985	370.17
787.167	318.97
787.348	337.4
787.529	323.07
787.71	374.27
787.891	384.51
788.073	452.09
788.254	296.44
788.435	376.31
788.616	351.74
788.797	355.83
788.978	351.74
789.159	325.12
789.34	341.5
789.522	298.49
789.703	355.83
789.884	347.64
790.065	347.64
790.246	372.22
790.427	384.51
790.607	304.64
790.788	327.16
790.969	245.24
791.15	269.82
791.331	323.07
791.512	321.02
791.693	278.01
791.874	355.83
792.054	302.59
792.235	353.79
792.416	286.2
792.597	245.24
792.778	249.34
792.958	378.36
793.139	241.15
793.32	255.48
793.5	259.58
793.681	359.93
793.862	282.11
794.042	247.29
794.223	302.59
794.404	237.05
794.584	261.63
794.765	261.63
794.945	286.2
795.126	306.68
795.306	245.24
795.487	237.05
795.667	237.05
795.848	273.92
796.028	247.29
796.209	165.37
796.389	269.82
796.57	318.97
796.75	216.57
796.93	187.9
797.111	220.67
797.291	241.15
797.471	312.83
797.652	228.86
797.832	273.92
798.012	249.34
798.192	163.33
798.373	224.76
798.553	214.52
798.733	239.1
798.913	175.61
799.093	263.68
799.274	228.86
799.454	228.86
799.634	265.72
799.814	359.93
799.994	243.2
800.174	253.44
800.354	179.71
800.534	138.75
800.714	271.87
800.894	136.7
801.074	179.71
801.254	228.86
801.434	286.2
801.614	161.28
801.794	216.57
801.974	714.23
802.154	224.76
802.334	171.52
802.514	159.23
802.693	230.91
802.873	179.71
803.053	159.23
803.233	265.72
803.413	183.81
803.592	155.13
803.772	179.71
803.952	208.38
804.131	132.61
804.311	155.13
804.491	206.33
804.67	155.13
804.85	118.27
805.03	222.72
805.209	167.42
805.389	124.41
805.568	122.37
805.748	185.85
805.928	134.65
806.107	148.99
806.287	124.41
806.466	124.41
806.646	171.52
806.825	181.76
807.004	173.57
807.184	126.46
807.363	155.13
807.543	140.8
807.722	183.81
807.901	228.86
808.081	157.18
808.26	138.75
808.439	230.91
808.619	130.56
808.798	146.94
808.977	153.09
809.156	239.1
809.336	146.94
809.515	179.71
809.694	155.13
809.873	169.47
810.052	132.61
810.231	140.8
810.411	112.13
810.59	171.52
810.769	130.56
810.948	151.04
811.127	67.07
811.306	155.13
811.485	116.22
811.664	146.94
811.843	114.17
812.022	171.52
812.201	187.9
812.38	196.09
812.559	85.5
812.737	122.37
812.916	108.03
813.095	155.13
813.274	130.56
813.453	159.23
813.632	126.46
813.811	122.37
813.989	122.37
814.168	146.94
814.347	112.13
814.526	48.64
814.704	165.37
814.883	175.61
815.062	171.52
815.24	208.38
815.419	9.73
815.598	36.35
815.776	105.98
815.955	146.94
816.133	142.85
816.312	157.18
816.49	116.22
816.669	101.89
816.847	85.5
817.026	97.79
817.204	97.79
817.383	124.41
817.561	81.41
817.74	155.13
817.918	101.89
818.097	140.8
818.275	122.37
818.453	163.33
818.632	155.13
818.81	99.84
818.988	93.69
819.167	108.03
819.345	99.84
819.523	110.08
819.701	124.41
819.879	116.22
820.058	148.99
820.236	75.26
820.414	81.41
820.592	130.56
820.77	110.08
820.948	67.07
821.127	163.33
821.305	116.22
821.483	30.21
821.661	97.79
821.839	60.93
822.017	65.02
822.195	128.51
822.373	89.6
822.551	89.6
822.729	163.33
822.907	153.09
823.085	89.6
823.262	89.6
823.44	30.21
823.618	165.37
823.796	165.37
823.974	105.98
824.152	56.83
824.329	32.26
824.507	146.94
824.685	171.52
824.863	73.21
825.04	50.69
825.218	175.61
825.396	44.54
825.574	52.74
825.751	48.64
825.929	89.6
826.107	73.21
826.284	81.41
826.462	75.26
826.639	81.41
826.817	19.97
826.994	105.98
827.172	9.73
827.349	101.89
827.527	58.88
827.704	146.94
827.882	73.21
828.059	112.13
828.237	60.93
828.414	134.65
828.591	46.59
828.769	34.3
828.946	24.06
829.124	91.65
829.301	93.69
829.478	48.64
829.655	69.12
829.833	81.41
830.01	95.74
830.187	46.59
830.364	97.79
830.542	40.45
830.719	97.79
830.896	15.87
831.073	148.99
831.25	28.16
831.427	58.88
831.604	134.65
831.782	38.4
831.959	46.59
832.136	44.54
832.313	17.92
832.49	3.58
832.667	77.31
832.844	71.17
833.021	161.28
833.198	85.5
833.374	36.35
833.551	28.16
833.728	7.68
833.905	105.98
834.082	60.93
834.259	89.6
834.436	62.98
834.612	52.74
834.789	108.03
834.966	105.98
835.143	56.83
835.319	42.5
835.496	50.69
835.673	56.83
835.85	77.31
836.026	36.35
836.203	134.65
836.38	56.83
836.556	81.41
836.733	11.78
836.909	93.69
837.086	56.83
837.262	56.83
837.439	65.02
837.616	32.26
837.792	36.35
837.968	13.82
838.145	22.02
838.321	36.35
838.498	56.83
838.674	118.27
838.851	58.88
839.027	81.41
839.203	-4.61
839.38	56.83
839.556	7.68
839.732	140.8
839.909	69.12
840.085	28.16
840.261	32.26
840.437	91.65
840.614	-6.66
840.79	101.89
840.966	105.98
841.142	105.98
841.318	13.82
841.494	34.3
841.671	116.22
841.847	32.26
842.023	34.3
842.199	40.45
842.375	108.03
842.551	1.54
842.727	7.68
842.903	132.61
843.079	5.63
843.255	81.41
843.431	54.78
843.607	28.16
843.783	38.4
843.959	-66.05
844.134	-10.75
844.31	32.26
844.486	60.93
844.662	-4.61
844.838	73.21
845.013	67.07
845.189	-8.7
845.365	75.26
845.541	42.5
845.716	56.83
845.892	32.26
846.068	40.45
846.244	7.68
846.419	-4.61
846.595	15.87
846.77	-0.51
846.946	105.98
847.122	48.64
847.297	73.21
847.473	69.12
847.648	50.69
847.824	108.03
847.999	77.31
848.175	11.78
848.35	62.98
848.526	44.54
848.701	58.88
848.876	73.21
849.052	7.68
849.227	9.73
849.403	40.45
849.578	7.68
849.753	71.17
849.929	99.84
850.104	-49.66
850.279	11.78
850.454	48.64
850.63	-37.38
850.805	-10.75
850.98	-33.28
851.155	58.88
851.33	11.78
851.505	32.26
851.681	60.93
851.856	-43.52
852.031	1.54
852.206	32.26
852.381	73.21
852.556	-82.43
852.731	22.02
852.906	38.4
853.081	9.73
853.256	40.45
853.431	56.83
853.606	7.68
853.781	-4.61
853.956	-20.99
854.131	-4.61
854.305	1.54
854.48	-16.9
854.655	-25.09
854.83	7.68
855.005	52.74
855.18	46.59
855.354	42.5
855.529	-16.9
855.704	-25.09
855.879	-23.04
856.053	-6.66
856.228	81.41
856.403	17.92
856.577	-20.99
856.752	48.64
856.926	15.87
857.101	1.54
857.276	-23.04
857.45	46.59
857.625	-4.61
857.799	-25.09
857.974	48.64
858.148	48.64
858.323	75.26
858.497	-8.7
858.672	9.73
858.846	40.45
859.02	48.64
859.195	-23.04
859.369	32.26
859.543	-8.7
859.718	-16.9
859.892	32.26
860.066	-25.09
860.241	56.83
860.415	-0.51
860.589	-20.99
860.763	50.69
860.938	-64
861.112	-8.7
861.286	56.83
861.46	-16.9
861.634	1.54
861.808	-8.7
861.982	38.4
862.157	-29.18
862.331	-23.04
862.505	15.87
862.679	-49.66
862.853	-16.9
863.027	11.78
863.201	54.78
863.375	7.68
863.549	89.6
863.722	19.97
863.896	17.92
864.07	-12.8
864.244	15.87
864.418	44.54
864.592	24.06
864.766	3.58
864.939	-8.7
865.113	81.41
865.287	11.78
865.461	-98.81
865.634	32.26
865.808	67.07
865.982	-31.23
866.156	-29.18
866.329	36.35
866.503	38.4
866.676	-16.9
866.85	32.26
867.024	26.11
867.197	77.31
867.371	-2.56
867.544	9.73
867.718	-14.85
867.891	1.54
868.065	7.68
868.238	-18.94
868.412	40.45
868.585	-51.71
868.759	1.54
868.932	15.87
869.105	-14.85
869.279	67.07
869.452	65.02
869.625	56.83
869.799	40.45
869.972	-8.7
870.145	-45.57
870.319	36.35
870.492	17.92
870.665	-66.05
870.838	-25.09
871.011	5.63
871.185	-25.09
871.358	1.54
871.531	19.97
871.704	-57.86
871.877	56.83
872.05	38.4
872.223	-39.42
872.396	11.78
872.569	38.4
872.742	3.58
872.915	65.02
873.088	-61.95
873.261	-31.23
873.434	103.93
873.607	1.54
873.78	40.45
873.953	-55.81
874.126	-2.56
874.299	9.73
874.471	22.02
874.644	-10.75
874.817	24.06
874.99	81.41
875.163	40.45
875.335	-23.04
875.508	-0.51
875.681	-14.85
875.853	-16.9
876.026	-49.66
876.199	19.97
876.371	34.3
876.544	-6.66
876.717	58.88
876.889	17.92
877.062	24.06
877.234	-41.47
877.407	17.92
877.579	-33.28
877.752	15.87
877.924	44.54
878.097	-29.18
878.269	-6.66
878.442	-12.8
878.614	-51.71
878.786	65.02
878.959	-8.7
879.131	-0.51
879.303	24.06
879.476	65.02
879.648	15.87
879.82	50.69
879.993	-20.99
880.165	-31.23
880.337	-39.42
880.509	11.78
880.681	-4.61
880.854	-47.62
881.026	60.93
881.198	24.06
881.37	-6.66
881.542	-14.85
881.714	-29.18
881.886	-33.28
882.058	1.54
882.23	65.02
882.402	1.54
882.574	38.4
882.746	44.54
882.918	26.11
883.09	32.26
883.262	-68.09
883.434	-6.66
883.606	-35.33
883.778	1.54
883.95	34.3
884.122	-35.33
884.293	28.16
884.465	30.21
884.637	26.11
884.809	-66.05
884.98	75.26
885.152	9.73
885.324	56.83
885.496	-45.57
885.667	-20.99
885.839	65.02
886.011	54.78
886.182	-12.8
886.354	60.93
886.525	48.64
886.697	-16.9
886.869	-49.66
887.04	-47.62
887.212	40.45
887.383	17.92
887.555	44.54
887.726	75.26
887.897	22.02
888.069	48.64
888.24	3.58
888.412	42.5
888.583	75.26
888.754	17.92
888.926	-47.62
889.097	-31.23
889.268	-31.23
889.44	-29.18
889.611	-45.57
889.782	-25.09
889.953	-55.81
890.125	28.16
890.296	-39.42
890.467	32.26
890.638	-33.28
890.809	-29.18
890.98	-23.04
891.151	15.87
891.323	3.58
891.494	-0.51
891.665	-33.28
891.836	48.64
892.007	5.63
892.178	32.26
892.349	9.73
892.52	-2.56
892.691	-37.38
892.862	52.74
893.032	-25.09
893.203	1.54
893.374	24.06
893.545	30.21
893.716	-94.72
893.887	62.98
894.057	1.54
894.228	97.79
894.399	34.3
894.57	83.45
894.74	-31.23
894.911	11.78
895.082	75.26
895.253	-57.86
895.423	1.54
895.594	30.21
895.764	-53.76
895.935	-6.66
896.106	-29.18
896.276	50.69
896.447	-90.62
896.617	-90.62
896.788	3.58
896.958	-25.09
897.129	-41.47
897.299	-14.85
897.47	-6.66
897.64	-4.61
897.81	-49.66
897.981	34.3
898.151	40.45
898.322	58.88
898.492	-25.09
898.662	40.45
898.832	-14.85
899.003	1.54
899.173	-25.09
899.343	11.78
899.513	-82.43
