Data from USB4F104151__256__14-22-42-180.txt Node

Date: Thu Mar 13 14:22:42 EDT 2025
User: louis
Spectrometer: USB4F10415
Trigger mode: 4
Integration Time (sec): 2.000000E-2
Scans to average: 1
Electric dark correction enabled: true
Nonlinearity correction enabled: false
Boxcar width: 0
XAxis mode: Wavelengths
Number of Pixels in Spectrum: 3648
>>>>>Begin Spectral Data<<<<<
178.204	-156.5
178.424	-156.5
178.644	-156.5
178.864	-107.35
179.084	-84.82
179.304	9.39
179.524	42.15
179.744	11.43
179.964	-11.09
180.184	9.39
180.404	-39.76
180.624	-31.57
180.844	-7
181.064	-52.05
181.283	50.35
181.503	-7
181.723	25.77
181.943	-97.11
182.163	117.93
182.383	27.82
182.602	17.58
182.822	-35.67
183.042	91.31
183.262	15.53
183.482	3.24
183.701	-23.38
183.921	15.53
184.141	-39.76
184.361	33.96
184.58	3.24
184.8	33.96
185.02	17.58
185.239	9.39
185.459	17.58
185.679	40.11
185.898	17.58
186.118	9.39
186.338	-4.95
186.557	33.96
186.777	-7
186.997	36.01
187.216	-37.72
187.436	52.39
187.655	42.15
187.875	-23.38
188.095	-27.48
188.314	44.2
188.534	85.16
188.753	-19.29
188.973	68.78
189.192	46.25
189.412	-29.52
189.631	46.25
189.851	58.54
190.07	13.48
190.29	36.01
190.509	17.58
190.729	-15.19
190.948	70.83
191.168	99.5
191.387	33.96
191.607	46.25
191.826	58.54
192.045	42.15
192.265	62.63
192.484	50.35
192.704	21.67
192.923	1.19
193.142	113.83
193.362	13.48
193.581	56.49
193.8	-23.38
194.02	62.63
194.239	89.26
194.458	17.58
194.678	-43.86
194.897	38.06
195.116	99.5
195.335	1.19
195.555	-23.38
195.774	5.29
195.993	-35.67
196.212	33.96
196.432	17.58
196.651	5.29
196.87	-7
197.089	33.96
197.308	60.59
197.528	-52.05
197.747	21.67
197.966	48.3
198.185	52.39
198.404	-78.68
198.623	19.63
198.842	58.54
199.062	50.35
199.281	79.02
199.5	-50
199.719	19.63
199.938	95.4
200.157	50.35
200.376	19.63
200.595	74.92
200.814	46.25
201.033	50.35
201.252	76.97
201.471	-11.09
201.69	97.45
201.909	81.07
202.128	-17.24
202.347	17.58
202.566	54.44
202.785	-0.85
203.004	-60.24
203.223	66.73
203.442	-21.33
203.661	97.45
203.879	-31.57
204.098	40.11
204.317	42.15
204.536	33.96
204.755	46.25
204.974	1.19
205.193	-15.19
205.411	44.2
205.63	29.87
205.849	48.3
206.068	11.43
206.287	-31.57
206.505	38.06
206.724	11.43
206.943	-31.57
207.162	-52.05
207.381	-13.14
207.599	17.58
207.818	-15.19
208.037	-23.38
208.255	9.39
208.474	-19.29
208.693	-54.1
208.911	-21.33
209.13	-23.38
209.349	29.87
209.567	15.53
209.786	83.11
210.005	5.29
210.223	13.48
210.442	-45.91
210.661	-19.29
210.879	19.63
211.098	33.96
211.316	25.77
211.535	83.11
211.753	74.92
211.972	40.11
212.191	46.25
212.409	38.06
212.628	-52.05
212.846	-13.14
213.065	58.54
213.283	29.87
213.502	19.63
213.72	64.68
213.938	68.78
214.157	52.39
214.375	50.35
214.594	23.72
214.812	79.02
215.031	64.68
215.249	103.59
215.467	-25.43
215.686	103.59
215.904	33.96
216.122	31.91
216.341	136.36
216.559	5.29
216.778	29.87
216.996	21.67
217.214	117.93
217.432	1.19
217.651	-52.05
217.869	58.54
218.087	-7
218.306	-13.14
218.524	33.96
218.742	-47.96
218.96	79.02
219.179	-19.29
219.397	-13.14
219.615	68.78
219.833	27.82
220.051	-17.24
220.27	-2.9
220.488	-9.05
220.706	33.96
220.924	9.39
221.142	17.58
221.36	-17.24
221.578	3.24
221.796	-11.09
222.015	-37.72
222.233	11.43
222.451	25.77
222.669	5.29
222.887	19.63
223.105	-27.48
223.323	81.07
223.541	-13.14
223.759	29.87
223.977	46.25
224.195	21.67
224.413	15.53
224.631	25.77
224.849	1.19
225.067	124.07
225.285	-47.96
225.503	83.11
225.721	-35.67
225.939	52.39
226.157	-9.05
226.375	115.88
226.592	-7
226.81	66.73
227.028	-4.95
227.246	64.68
227.464	-31.57
227.682	48.3
227.9	27.82
228.117	29.87
228.335	23.72
228.553	3.24
228.771	-41.81
228.989	38.06
229.206	-2.9
229.424	-45.91
229.642	15.53
229.86	-23.38
230.077	29.87
230.295	60.59
230.513	58.54
230.731	72.87
230.948	93.35
231.166	83.11
231.384	25.77
231.601	-37.72
231.819	74.92
232.037	50.35
232.254	19.63
232.472	42.15
232.689	17.58
232.907	-25.43
233.125	42.15
233.342	50.35
233.56	-13.14
233.777	128.17
233.995	-4.95
234.213	70.83
234.43	-19.29
234.648	-2.9
234.865	54.44
235.083	62.63
235.3	-19.29
235.518	-15.19
235.735	17.58
235.953	13.48
236.17	44.2
236.388	-37.72
236.605	-17.24
236.822	25.77
237.04	33.96
237.257	44.2
237.475	-41.81
237.692	68.78
237.909	79.02
238.127	-15.19
238.344	25.77
238.562	3.24
238.779	-39.76
238.996	-27.48
239.214	-29.52
239.431	33.96
239.648	-54.1
239.865	17.58
240.083	-35.67
240.3	7.34
240.517	33.96
240.735	31.91
240.952	95.4
241.169	46.25
241.386	19.63
241.603	9.39
241.821	-15.19
242.038	72.87
242.255	58.54
242.472	11.43
242.689	93.35
242.907	5.29
243.124	25.77
243.341	95.4
243.558	-21.33
243.775	-21.33
243.992	-72.53
244.209	40.11
244.426	44.2
244.643	1.19
244.86	-15.19
245.078	29.87
245.295	87.21
245.512	-13.14
245.729	-0.85
245.946	70.83
246.163	50.35
246.38	52.39
246.597	46.25
246.814	93.35
247.031	-41.81
247.248	-4.95
247.464	11.43
247.681	-62.29
247.898	5.29
248.115	58.54
248.332	-23.38
248.549	1.19
248.766	54.44
248.983	33.96
249.2	17.58
249.417	-11.09
249.633	21.67
249.85	58.54
250.067	-33.62
250.284	52.39
250.501	38.06
250.717	-39.76
250.934	17.58
251.151	9.39
251.368	44.2
251.585	54.44
251.801	83.11
252.018	-19.29
252.235	-39.76
252.451	21.67
252.668	33.96
252.885	58.54
253.102	-11.09
253.318	58.54
253.535	64.68
253.752	9.39
253.968	23.72
254.185	-11.09
254.401	-2.9
254.618	-43.86
254.835	21.67
255.051	52.39
255.268	-27.48
255.484	7.34
255.701	-35.67
255.917	-27.48
256.134	21.67
256.351	25.77
256.567	-15.19
256.784	62.63
257	-13.14
257.217	-23.38
257.433	60.59
257.65	17.58
257.866	33.96
258.082	60.59
258.299	19.63
258.515	17.58
258.732	-15.19
258.948	42.15
259.165	33.96
259.381	25.77
259.597	-39.76
259.814	50.35
260.03	-17.24
260.246	40.11
260.463	1.19
260.679	48.3
260.895	50.35
261.112	42.15
261.328	17.58
261.544	-47.96
261.761	74.92
261.977	21.67
262.193	-37.72
262.409	-60.24
262.626	66.73
262.842	7.34
263.058	-41.81
263.274	66.73
263.49	44.2
263.707	50.35
263.923	76.97
264.139	5.29
264.355	-39.76
264.571	9.39
264.787	42.15
265.004	17.58
265.22	-31.57
265.436	-23.38
265.652	19.63
265.868	23.72
266.084	58.54
266.3	52.39
266.516	-70.48
266.732	9.39
266.948	46.25
267.164	3.24
267.38	27.82
267.596	103.59
267.812	42.15
268.028	68.78
268.244	-4.95
268.46	-15.19
268.676	50.35
268.892	66.73
269.108	-64.34
269.324	-23.38
269.54	9.39
269.756	99.5
269.972	-68.44
270.188	42.15
270.403	-23.38
270.619	11.43
270.835	-15.19
271.051	-4.95
271.267	-43.86
271.483	-15.19
271.698	27.82
271.914	38.06
272.13	19.63
272.346	48.3
272.562	19.63
272.777	-23.38
272.993	-15.19
273.209	50.35
273.425	-2.9
273.64	46.25
273.856	3.24
274.072	-15.19
274.287	21.67
274.503	97.45
274.719	13.48
274.934	36.01
275.15	11.43
275.366	19.63
275.581	-27.48
275.797	46.25
276.012	-39.76
276.228	-15.19
276.444	95.4
276.659	-43.86
276.875	-45.91
277.09	19.63
277.306	-7
277.521	91.31
277.737	5.29
277.952	68.78
278.168	11.43
278.383	-4.95
278.599	-11.09
278.814	-21.33
279.03	74.92
279.245	62.63
279.461	13.48
279.676	33.96
279.892	-7
280.107	-21.33
280.322	-4.95
280.538	11.43
280.753	42.15
280.969	38.06
281.184	25.77
281.399	33.96
281.615	-15.19
281.83	17.58
282.045	17.58
282.26	-2.9
282.476	38.06
282.691	-17.24
282.906	27.82
283.122	74.92
283.337	-37.72
283.552	38.06
283.767	-13.14
283.983	62.63
284.198	68.78
284.413	1.19
284.628	-7
284.843	-31.57
285.058	7.34
285.274	76.97
285.489	-62.29
285.704	79.02
285.919	-2.9
286.134	48.3
286.349	5.29
286.564	31.91
286.779	85.16
286.995	48.3
287.21	-60.24
287.425	33.96
287.64	27.82
287.855	9.39
288.07	13.48
288.285	68.78
288.5	27.82
288.715	62.63
288.93	31.91
289.145	-27.48
289.36	-4.95
289.575	42.15
289.79	-25.43
290.004	25.77
290.219	25.77
290.434	56.49
290.649	-0.85
290.864	-56.15
291.079	40.11
291.294	111.78
291.509	115.88
291.724	3.24
291.938	27.82
292.153	58.54
292.368	31.91
292.583	-27.48
292.798	9.39
293.012	91.31
293.227	7.34
293.442	25.77
293.657	33.96
293.871	3.24
294.086	-2.9
294.301	66.73
294.516	19.63
294.73	27.82
294.945	15.53
295.16	-31.57
295.374	-31.57
295.589	3.24
295.804	38.06
296.018	42.15
296.233	128.17
296.447	-35.67
296.662	-76.63
296.877	-54.1
297.091	17.58
297.306	44.2
297.52	-52.05
297.735	25.77
297.949	60.59
298.164	46.25
298.378	27.82
298.593	33.96
298.807	17.58
299.022	9.39
299.236	72.87
299.451	42.15
299.665	-23.38
299.88	42.15
300.094	-2.9
300.309	-11.09
300.523	-35.67
300.737	25.77
300.952	74.92
301.166	-7
301.381	-0.85
301.595	-23.38
301.809	3.24
302.024	62.63
302.238	17.58
302.452	79.02
302.667	-45.91
302.881	38.06
303.095	40.11
303.309	48.3
303.524	-82.77
303.738	-13.14
303.952	-47.96
304.166	33.96
304.381	-15.19
304.595	70.83
304.809	21.67
305.023	9.39
305.237	60.59
305.452	27.82
305.666	13.48
305.88	19.63
306.094	19.63
306.308	25.77
306.522	62.63
306.736	-21.33
306.95	38.06
307.164	-39.76
307.379	-29.52
307.593	27.82
307.807	58.54
308.021	3.24
308.235	54.44
308.449	-21.33
308.663	9.39
308.877	115.88
309.091	60.59
309.305	33.96
309.519	-31.57
309.733	62.63
309.947	-7
310.161	66.73
310.374	11.43
310.588	-4.95
310.802	-11.09
311.016	44.2
311.23	1.19
311.444	-4.95
311.658	-15.19
311.872	25.77
312.085	122.02
312.299	68.78
312.513	36.01
312.727	5.29
312.941	-7
313.154	3.24
313.368	-52.05
313.582	-9.05
313.796	50.35
314.009	-4.95
314.223	87.21
314.437	1.19
314.651	72.87
314.864	25.77
315.078	19.63
315.292	-72.53
315.505	17.58
315.719	58.54
315.933	-17.24
316.146	11.43
316.36	-21.33
316.573	62.63
316.787	-35.67
317.001	62.63
317.214	-39.76
317.428	66.73
317.641	-15.19
317.855	-4.95
318.068	11.43
318.282	25.77
318.495	83.11
318.709	33.96
318.922	-9.05
319.136	66.73
319.349	11.43
319.563	11.43
319.776	62.63
319.99	-27.48
320.203	62.63
320.417	-60.24
320.63	91.31
320.843	46.25
321.057	93.35
321.27	103.59
321.483	58.54
321.697	25.77
321.91	1.19
322.124	91.31
322.337	87.21
322.55	-29.52
322.763	54.44
322.977	25.77
323.19	-4.95
323.403	-4.95
323.617	5.29
323.83	85.16
324.043	-0.85
324.256	-29.52
324.469	52.39
324.683	42.15
324.896	79.02
325.109	50.35
325.322	42.15
325.535	109.74
325.748	60.59
325.962	-15.19
326.175	1.19
326.388	27.82
326.601	44.2
326.814	46.25
327.027	-13.14
327.24	60.59
327.453	-25.43
327.666	25.77
327.879	46.25
328.092	83.11
328.305	70.83
328.518	3.24
328.731	33.96
328.944	42.15
329.157	50.35
329.37	9.39
329.583	70.83
329.796	5.29
330.009	36.01
330.222	19.63
330.435	76.97
330.648	15.53
330.861	-31.57
331.073	9.39
331.286	-21.33
331.499	29.87
331.712	-43.86
331.925	36.01
332.138	113.83
332.35	1.19
332.563	-41.81
332.776	23.72
332.989	27.82
333.202	87.21
333.414	52.39
333.627	-21.33
333.84	-17.24
334.053	-15.19
334.265	-2.9
334.478	27.82
334.691	97.45
334.903	54.44
335.116	5.29
335.329	48.3
335.541	-19.29
335.754	48.3
335.966	-7
336.179	50.35
336.392	107.69
336.604	-72.53
336.817	-7
337.029	-17.24
337.242	13.48
337.454	17.58
337.667	25.77
337.88	62.63
338.092	38.06
338.305	66.73
338.517	13.48
338.729	66.73
338.942	115.88
339.154	-50
339.367	-4.95
339.579	11.43
339.792	21.67
340.004	58.54
340.217	1.19
340.429	58.54
340.641	-56.15
340.854	19.63
341.066	-4.95
341.278	29.87
341.491	81.07
341.703	-2.9
341.915	-43.86
342.128	-23.38
342.34	74.92
342.552	-15.19
342.764	33.96
342.977	29.87
343.189	58.54
343.401	19.63
343.613	-29.52
343.826	-7
344.038	-13.14
344.25	74.92
344.462	62.63
344.674	13.48
344.886	74.92
345.099	3.24
345.311	7.34
345.523	29.87
345.735	5.29
345.947	46.25
346.159	15.53
346.371	-7
346.583	42.15
346.795	60.59
347.007	60.59
347.219	85.16
347.431	46.25
347.643	50.35
347.855	-0.85
348.067	50.35
348.279	38.06
348.491	42.15
348.703	66.73
348.915	46.25
349.127	-7
349.339	54.44
349.551	42.15
349.763	70.83
349.975	-37.72
350.187	25.77
350.399	117.93
350.61	25.77
350.822	-21.33
351.034	17.58
351.246	1.19
351.458	11.43
351.669	17.58
351.881	38.06
352.093	99.5
352.305	74.92
352.517	-19.29
352.728	38.06
352.94	21.67
353.152	89.26
353.363	58.54
353.575	7.34
353.787	-9.05
353.999	-21.33
354.21	13.48
354.422	36.01
354.633	9.39
354.845	-7
355.057	-13.14
355.268	25.77
355.48	-29.52
355.692	-11.09
355.903	19.63
356.115	11.43
356.326	9.39
356.538	-4.95
356.749	36.01
356.961	74.92
357.172	-29.52
357.384	5.29
357.595	25.77
357.807	1.19
358.018	1.19
358.23	58.54
358.441	33.96
358.653	56.49
358.864	58.54
359.075	38.06
359.287	33.96
359.498	54.44
359.709	36.01
359.921	117.93
360.132	-19.29
360.344	-13.14
360.555	68.78
360.766	33.96
360.977	-47.96
361.189	111.78
361.4	-47.96
361.611	83.11
361.823	62.63
362.034	58.54
362.245	-17.24
362.456	1.19
362.667	19.63
362.879	19.63
363.09	-21.33
363.301	17.58
363.512	27.82
363.723	-19.29
363.935	25.77
364.146	-2.9
364.357	-13.14
364.568	46.25
364.779	31.91
364.99	25.77
365.201	40.11
365.412	9.39
365.623	-19.29
365.834	91.31
366.045	50.35
366.256	36.01
366.467	85.16
366.678	25.77
366.889	48.3
367.1	-54.1
367.311	-15.19
367.522	-15.19
367.733	-15.19
367.944	74.92
368.155	9.39
368.366	5.29
368.577	17.58
368.788	60.59
368.999	68.78
369.209	109.74
369.42	74.92
369.631	23.72
369.842	-47.96
370.053	17.58
370.264	124.07
370.474	-23.38
370.685	74.92
370.896	7.34
371.107	52.39
371.317	128.17
371.528	-31.57
371.739	36.01
371.95	21.67
372.16	134.31
372.371	3.24
372.582	-11.09
372.792	-25.43
373.003	-23.38
373.214	11.43
373.424	-4.95
373.635	50.35
373.846	99.5
374.056	23.72
374.267	58.54
374.477	-4.95
374.688	-23.38
374.898	-23.38
375.109	-0.85
375.319	62.63
375.53	25.77
375.74	-70.48
375.951	54.44
376.161	85.16
376.372	68.78
376.582	-23.38
376.793	48.3
377.003	74.92
377.214	-66.39
377.424	-19.29
377.635	7.34
377.845	-19.29
378.055	40.11
378.266	31.91
378.476	25.77
378.686	50.35
378.897	99.5
379.107	89.26
379.317	48.3
379.528	27.82
379.738	93.35
379.948	25.77
380.158	72.87
380.369	48.3
380.579	62.63
380.789	17.58
380.999	64.68
381.21	42.15
381.42	-23.38
381.63	-35.67
381.84	52.39
382.05	19.63
382.261	-19.29
382.471	58.54
382.681	-7
382.891	115.88
383.101	25.77
383.311	-4.95
383.521	19.63
383.731	54.44
383.941	64.68
384.151	-21.33
384.361	70.83
384.571	46.25
384.781	66.73
384.991	-11.09
385.201	79.02
385.411	58.54
385.621	3.24
385.831	91.31
386.041	79.02
386.251	81.07
386.461	107.69
386.671	93.35
386.881	42.15
387.091	31.91
387.301	36.01
387.511	29.87
387.72	1.19
387.93	17.58
388.14	-7
388.35	21.67
388.56	150.7
388.769	42.15
388.979	19.63
389.189	-9.05
389.399	42.15
389.609	33.96
389.818	7.34
390.028	79.02
390.238	54.44
390.447	62.63
390.657	44.2
390.867	13.48
391.076	42.15
391.286	42.15
391.496	44.2
391.705	52.39
391.915	13.48
392.125	42.15
392.334	46.25
392.544	13.48
392.753	46.25
392.963	48.3
393.172	99.5
393.382	33.96
393.591	109.74
393.801	66.73
394.01	115.88
394.22	56.49
394.429	87.21
394.639	9.39
394.848	15.53
395.058	25.77
395.267	66.73
395.477	142.5
395.686	99.5
395.895	23.72
396.105	89.26
396.314	175.27
396.524	44.2
396.733	19.63
396.942	91.31
397.152	5.29
397.361	48.3
397.57	136.36
397.78	31.91
397.989	29.87
398.198	115.88
398.407	-4.95
398.617	91.31
398.826	36.01
399.035	52.39
399.244	119.98
399.453	5.29
399.663	152.74
399.872	66.73
400.081	38.06
400.29	134.31
400.499	60.59
400.708	50.35
400.917	60.59
401.127	-7
401.336	56.49
401.545	107.69
401.754	87.21
401.963	173.22
402.172	48.3
402.381	109.74
402.59	95.4
402.799	101.55
403.008	85.16
403.217	107.69
403.426	-25.43
403.635	87.21
403.844	109.74
404.053	21.67
404.262	33.96
404.471	126.12
404.68	117.93
404.888	167.08
405.097	140.46
405.306	191.66
405.515	93.35
405.724	173.22
405.933	105.64
406.142	54.44
406.35	113.83
406.559	181.42
406.768	126.12
406.977	175.27
407.185	156.84
407.394	109.74
407.603	87.21
407.812	183.46
408.02	142.5
408.229	156.84
408.438	220.33
408.646	117.93
408.855	181.42
409.064	173.22
409.272	195.75
409.481	240.81
409.69	265.38
409.898	185.51
410.107	251.05
410.315	240.81
410.524	193.7
410.733	244.9
410.941	214.18
411.15	345.25
411.358	304.29
411.567	306.34
411.775	242.85
411.984	263.33
412.192	337.06
412.401	312.49
412.609	402.6
412.818	296.1
413.026	273.57
413.234	277.67
413.443	365.73
413.651	361.64
413.86	435.36
414.068	533.67
414.276	476.32
414.485	421.03
414.693	558.24
414.901	560.29
415.11	498.85
415.318	566.43
415.526	468.13
415.734	615.59
415.943	595.11
416.151	623.78
416.359	636.06
416.567	642.21
416.776	693.41
416.984	660.64
417.192	849.05
417.4	697.5
417.608	625.83
417.817	724.13
418.025	789.66
418.233	832.67
418.441	783.52
418.649	922.78
418.857	890.01
419.065	1012.89
419.273	916.64
419.481	955.55
419.689	990.36
419.897	969.88
420.105	1113.24
420.313	1133.72
420.521	1221.78
420.729	1197.21
420.937	1254.55
421.145	1289.37
421.353	1289.37
421.561	1492.12
421.769	1440.92
421.977	1502.36
422.185	1420.44
422.393	1467.54
422.601	1606.8
422.809	1651.86
423.017	1645.71
423.224	1672.34
423.432	1844.37
423.64	1680.53
423.848	1944.72
424.056	1889.42
424.263	1950.86
424.471	2051.21
424.679	2098.31
424.887	2157.71
425.094	2282.63
425.302	2258.06
425.51	2223.24
425.718	2389.13
425.925	2444.42
426.133	2509.96
426.341	2634.88
426.548	2817.15
426.756	2780.29
426.964	2843.78
427.171	2892.93
427.379	3163.26
427.586	3085.44
427.794	3204.22
428.001	3241.08
428.209	3458.17
428.417	3476.6
428.624	3701.87
428.832	3556.47
429.039	3593.33
429.247	3599.48
429.454	3941.49
429.662	4322.41
429.869	3849.33
430.076	4338.79
430.284	4043.88
430.491	4383.85
430.699	4443.24
430.906	4516.97
431.114	4490.34
431.321	4738.15
431.528	4877.41
431.736	5082.21
431.943	5416.02
432.15	5145.69
432.358	5272.67
432.565	5538.9
432.772	5452.89
432.979	5653.59
433.187	5897.3
433.394	5942.35
433.601	6249.55
433.808	6540.36
434.016	6493.26
434.223	6487.11
434.43	7009.34
434.637	7025.73
434.844	7222.33
435.052	7466.04
435.259	7384.12
435.466	7433.27
435.673	7320.63
435.88	8080.43
436.087	8416.3
436.294	8377.39
436.501	8049.71
436.708	8416.3
436.915	8602.66
437.122	8959.01
437.329	8815.65
437.537	9151.52
437.743	9391.13
437.95	9440.28
438.157	9589.78
438.364	10032.15
438.571	10198.03
438.778	10161.17
438.985	10853.38
439.192	10542.09
439.399	11142.14
439.606	10540.04
439.813	11242.5
440.02	11885.56
440.227	11621.37
440.433	11643.9
440.64	11850.74
440.847	11924.47
441.054	12325.87
441.261	12919.78
441.467	13054.95
441.674	13126.63
441.881	13437.92
442.088	13593.56
442.294	13419.49
442.501	13657.05
442.708	13894.61
442.914	14541.77
443.121	15244.23
443.328	14549.96
443.534	15913.91
443.741	15442.88
443.948	15246.27
444.154	16227.25
444.361	16090.04
444.568	16221.11
444.774	16352.18
444.981	16358.32
445.187	16784.3
445.394	17288.1
445.6	17339.3
445.807	19123.08
446.013	18056.09
446.22	18320.28
446.426	19217.29
446.633	19467.14
446.839	19913.59
447.046	19413.89
447.252	20683.63
447.459	20564.85
447.665	20155.26
447.871	21265.25
448.078	22254.42
448.284	21070.7
448.491	21517.15
448.697	22195.03
448.903	22772.56
449.11	22735.7
449.316	22672.21
449.522	22891.34
449.728	23507.78
449.935	23759.68
450.141	23262.02
450.347	24292.15
450.553	23442.24
450.76	23479.11
450.966	24605.49
451.172	24169.27
451.378	24988.46
451.584	24181.56
451.791	25090.86
451.997	25113.39
452.203	25279.27
452.409	25666.34
452.615	25248.55
452.821	24343.35
453.027	24044.35
453.233	25432.87
453.44	24484.66
453.646	24783.66
453.852	24922.93
454.058	25150.25
454.264	24369.97
454.47	25205.55
454.676	24243
454.882	25195.31
455.088	22958.92
455.294	23485.25
455.5	23794.5
455.705	23757.63
455.911	22891.34
456.117	22655.82
456.323	22256.47
456.529	21369.7
456.735	22205.27
456.941	21511.01
457.147	21107.56
457.352	20441.97
457.558	20317.04
457.764	20368.24
457.97	19934.07
458.176	19585.92
458.381	19696.51
458.587	18684.81
458.793	18783.12
458.999	17734.56
459.204	19032.97
459.41	18453.39
459.616	17048.49
459.821	17400.74
460.027	17316.77
460.233	16808.87
460.438	15954.87
460.644	16122.8
460.85	15410.11
461.055	15305.67
461.261	14996.42
461.466	14117.84
461.672	13640.67
461.878	14453.71
462.083	13544.41
462.289	13370.33
462.494	13394.91
462.7	12569.58
462.905	12399.6
463.111	13077.48
463.316	12921.83
463.522	12596.2
463.727	12485.61
463.932	12528.62
464.138	12465.13
464.343	12473.32
464.549	11990
464.754	12610.54
464.959	12254.19
465.165	12229.62
465.37	12010.48
465.575	11359.23
465.781	11832.31
465.986	12116.98
466.191	11531.26
466.397	11355.13
466.602	10685.45
466.807	11219.97
467.012	11310.08
467.218	11158.53
467.423	11092.99
467.628	10920.96
467.833	11273.21
468.038	10941.44
468.244	10781.7
468.449	11279.36
468.654	10931.2
468.859	10519.56
469.064	10552.33
469.269	10210.32
469.474	10494.99
469.679	10421.26
469.885	10220.56
470.09	10298.38
470.295	10161.17
470.5	9989.14
470.705	10191.89
470.91	9884.69
471.115	9729.05
471.32	10218.51
471.525	9966.61
471.73	9778.2
471.935	9817.11
472.139	9405.47
472.344	9636.89
472.549	9403.42
472.754	9245.73
472.959	9114.66
473.164	8881.19
473.369	8844.32
473.574	9008.16
473.778	9169.95
473.983	8934.43
474.188	8696.87
474.393	8557.61
474.598	8578.09
474.802	8340.52
475.007	8356.91
475.212	8399.91
475.417	7984.18
475.621	8256.56
475.826	8094.77
476.031	7906.35
476.235	7834.68
476.44	8029.23
476.645	7894.07
476.849	7711.8
477.054	7644.21
477.259	7691.32
477.463	7644.21
477.668	7461.94
477.872	7668.79
478.077	7343.16
478.282	7128.13
478.486	7195.71
478.691	6968.38
478.895	7066.69
479.1	7300.16
479.304	7105.6
479.509	6870.08
479.713	6741.06
479.918	6704.2
480.122	6573.13
480.326	6722.63
480.531	6818.88
480.735	6724.68
480.94	6806.59
481.144	6835.27
481.348	6653
481.553	6634.57
481.757	6407.24
481.961	6523.98
482.166	6687.81
482.37	6521.93
482.574	6440.01
482.778	6409.29
482.983	6636.61
483.187	6575.17
483.391	6528.07
483.595	6507.59
483.8	6362.19
484.004	6685.76
484.208	6552.65
484.412	6622.28
484.616	6515.78
484.821	6538.31
485.025	6374.47
485.229	6444.1
485.433	6317.13
485.637	6409.29
485.841	6448.2
486.045	6399.05
486.249	6476.87
486.453	6317.13
486.657	6495.3
486.861	6523.98
487.065	6376.52
487.269	6440.01
487.473	6333.51
487.677	6691.91
487.881	6540.36
488.085	6517.83
488.289	6513.74
488.493	6327.37
488.697	6505.54
488.901	6540.36
489.105	6472.78
489.309	6513.74
489.512	6505.54
489.716	6653
489.92	6661.19
490.124	6579.27
490.328	6683.72
490.531	6593.61
490.735	6687.81
490.939	6595.65
491.143	6636.61
491.346	6753.35
491.55	6794.31
491.754	6833.22
491.958	6747.2
492.161	6782.02
492.365	6702.15
492.569	6775.88
492.772	6825.03
492.976	7046.21
493.18	6825.03
493.383	6978.62
493.587	7111.74
493.79	7152.7
493.994	6931.52
494.197	7156.8
494.401	7089.21
494.605	7005.25
494.808	7439.42
495.012	7271.48
495.215	7224.38
495.419	7337.02
495.622	7363.64
495.825	7523.38
496.029	7423.03
496.232	7687.22
496.436	7707.7
496.639	7791.67
496.843	7472.18
497.046	7932.98
497.249	7873.59
497.453	7961.65
497.656	7973.94
497.859	8203.31
498.063	8244.27
498.266	8287.28
498.469	8139.82
498.673	8504.36
498.876	8492.07
499.079	8606.76
499.282	8537.13
499.485	8821.8
499.689	8873
499.892	8938.53
500.095	8885.28
500.298	9296.92
500.501	9124.9
500.705	9393.18
500.908	9528.35
501.111	9632.79
501.314	9552.92
501.517	9851.92
501.72	9962.51
501.923	9694.23
502.126	10001.43
502.329	10173.46
502.532	10259.47
502.735	10400.78
502.938	10505.23
503.141	10492.94
503.344	10699.78
503.547	10687.5
503.75	10611.72
503.953	11150.34
504.156	11148.29
504.359	11340.8
504.562	11250.69
504.765	11527.16
504.968	11473.92
505.17	11584.51
505.373	11748.34
505.576	12088.31
505.779	12020.72
505.982	12131.31
506.185	12403.69
506.387	12381.17
506.59	12551.15
506.793	12747.75
506.996	12674.03
507.198	13042.66
507.401	12934.12
507.604	13337.57
507.807	13429.73
508.009	13394.91
508.212	13485.02
508.415	13943.77
508.617	13818.84
508.82	14160.85
509.022	14013.4
509.225	14515.15
509.428	14793.67
509.63	14515.15
509.833	14330.83
510.035	15098.82
510.238	14937.03
510.44	14775.24
510.643	15543.23
510.845	15127.49
511.048	15320
511.25	15481.79
511.453	15524.8
511.655	16231.35
511.858	15836.09
512.06	16176.05
512.262	16116.66
512.465	16360.37
512.667	16903.08
512.87	16667.56
513.072	16720.81
513.274	17093.54
513.477	17212.32
513.679	17527.71
513.881	17417.12
514.084	17626.01
514.286	17834.91
514.488	17671.07
514.69	18318.23
514.893	18363.28
515.095	18473.87
515.297	18576.27
515.499	18645.9
515.701	18889.61
515.904	19151.75
516.106	19268.48
516.308	19280.77
516.51	19829.63
516.712	19587.97
516.914	19831.68
517.116	19932.03
517.318	20304.76
517.52	20401.01
517.722	20624.24
517.925	20835.18
518.127	20894.57
518.329	21144.42
518.531	20865.9
518.733	21269.35
518.935	21797.73
519.136	21506.91
519.338	22045.53
519.54	22000.47
519.742	22229.85
519.944	22457.17
520.146	22569.81
520.348	22532.95
520.55	22932.3
520.752	22913.87
520.954	23296.84
521.155	23184.2
521.357	23571.27
521.559	23679.81
521.761	23823.17
521.963	23935.81
522.164	24118.07
522.366	24183.61
522.568	24783.66
522.77	24521.52
522.971	24949.55
523.173	24922.93
523.375	24949.55
523.576	25367.34
523.778	25113.39
523.98	25447.21
524.181	25668.39
524.383	25692.96
524.584	25850.66
524.786	26073.88
524.988	25819.94
525.189	26374.94
525.391	26344.22
525.592	26213.15
525.794	26606.36
525.995	26684.18
526.197	26798.87
526.398	26823.44
526.6	26706.71
526.801	27196.17
527.003	27230.99
527.204	27294.47
527.406	27343.63
527.607	27247.37
527.808	27523.85
528.01	27345.67
528.211	27550.47
528.412	27974.4
528.614	27800.32
528.815	27810.56
529.016	27960.06
529.218	27872
529.419	28230.4
529.62	28013.31
529.822	27986.69
530.023	28375.8
530.224	28353.27
530.425	27947.78
530.626	28054.27
530.828	28056.32
531.029	28898.03
531.23	28355.32
531.431	28173.05
531.632	28803.83
531.833	28422.9
532.035	28629.75
532.236	28371.71
532.437	28816.11
532.638	28330.75
532.839	28654.33
533.04	28771.06
533.241	28625.65
533.442	28769.01
533.643	28621.56
533.844	28668.66
534.045	28758.77
534.246	28334.84
534.447	29090.54
534.648	28652.28
534.849	28734.2
535.05	28830.45
535.251	28953.33
535.451	28771.06
535.652	28697.33
535.853	28791.54
536.054	28683
536.255	28883.7
536.456	28263.16
536.657	28955.38
536.857	28697.33
537.058	28613.37
537.259	29070.06
537.46	28736.24
537.66	28635.89
537.861	28990.19
538.062	28795.64
538.263	28900.08
538.463	28773.11
538.664	28619.51
538.865	29063.92
539.065	29045.49
539.266	28480.25
539.466	28838.64
539.667	28058.37
539.868	28861.17
540.068	28560.12
540.269	28310.27
540.469	28793.59
540.67	28750.58
540.87	28740.34
541.071	28279.55
541.271	28568.31
541.472	28398.33
541.672	28240.64
541.873	28439.29
542.073	28234.49
542.274	28615.41
542.474	28351.23
542.675	28400.38
542.875	28521.21
543.075	28431.1
543.276	27976.45
543.476	28535.54
543.676	28324.6
543.877	28615.41
544.077	28410.62
544.277	28439.29
544.478	27972.35
544.678	28533.5
544.878	28465.91
545.078	28400.38
545.279	28334.84
545.479	28168.96
545.679	28427
545.879	28072.7
546.079	28369.66
546.28	28257.02
546.48	28277.5
546.68	28250.88
546.88	27982.59
547.08	28125.95
547.28	28228.35
547.48	27841.28
547.68	28107.52
547.88	28062.46
548.081	28140.29
548.281	28156.67
548.481	28070.65
548.681	28375.8
548.881	28236.54
549.081	28154.62
549.28	28107.52
549.48	28414.71
549.68	28166.91
549.88	28730.1
550.08	28168.96
550.28	27943.68
550.48	27982.59
550.68	28289.79
550.88	27972.35
551.08	28037.89
551.279	27978.5
551.479	28115.71
551.679	28027.65
551.879	27622.15
552.079	28183.29
552.278	27976.45
552.478	27853.57
552.678	27931.39
552.878	28101.37
553.077	27951.87
553.277	27773.7
553.477	27788.03
553.676	27767.55
553.876	27630.34
554.076	27630.34
554.275	27589.38
554.475	27605.77
554.674	27861.76
554.874	27904.77
555.074	27745.03
555.273	27810.56
555.473	27812.61
555.672	27624.2
555.872	27573
556.071	27556.61
556.271	27685.64
556.47	27282.19
556.67	27147.02
556.869	27251.47
557.068	27861.76
557.268	27337.48
557.467	27396.87
557.667	27341.58
557.866	27259.66
558.065	27276.04
558.265	27310.86
558.464	27058.96
558.663	27370.25
558.863	26874.64
559.062	27349.77
559.261	27085.58
559.461	27556.61
559.66	26653.46
559.859	27212.56
560.058	26950.42
560.258	26903.31
560.457	26770.19
560.656	26903.31
560.855	26716.95
561.054	26868.5
561.253	26536.73
561.453	26864.4
561.652	26821.39
561.851	26827.54
562.05	26696.47
562.249	26477.33
562.448	26610.45
562.647	26827.54
562.846	26465.05
563.045	26807.06
563.244	26120.99
563.443	26571.54
563.642	25975.58
563.841	26235.67
564.04	26227.48
564.239	26469.14
564.438	25869.09
564.637	25869.09
564.836	25920.29
565.035	25682.72
565.234	26280.73
565.432	25522.98
565.631	25783.07
565.83	26161.95
566.029	25713.44
566.228	25846.56
566.427	25953.05
566.625	25467.69
566.824	24974.13
567.023	25482.02
567.222	25154.35
567.42	25824.03
567.619	25367.34
567.818	25439.01
568.016	25256.75
568.215	25461.54
568.414	25144.11
568.612	25062.19
568.811	25115.44
569.01	25314.09
569.208	24666.93
569.407	24902.45
569.605	25039.66
569.804	25092.91
570.002	24529.72
570.201	24517.43
570.4	24308.54
570.598	24374.07
570.797	24333.11
570.995	24468.28
571.193	24300.34
571.392	24402.74
571.59	24435.51
571.789	23921.47
571.987	24427.32
572.186	24152.89
572.384	23882.56
572.582	24091.45
572.781	24148.79
572.979	23884.61
573.177	23958.33
573.376	24109.88
573.574	23667.52
573.772	23845.69
573.971	23741.25
574.169	23632.71
574.367	23579.46
574.565	23522.12
574.763	23382.85
574.962	23196.49
575.16	23354.18
575.358	23638.85
575.556	22991.69
575.754	23651.14
575.952	23178.06
576.151	23212.87
576.349	23006.03
576.547	22952.78
576.745	23176.01
576.943	23012.17
577.141	22827.85
577.339	22893.39
577.537	22629.2
577.735	22582.1
577.933	22651.73
578.131	22557.52
578.329	22516.56
578.527	22471.51
578.725	22139.74
578.923	22561.62
579.121	22070.11
579.319	22305.62
579.516	22293.33
579.714	22162.26
579.912	22195.03
580.11	22225.75
580.308	21767.01
580.506	21863.26
580.704	21685.09
580.901	21635.94
581.099	21957.47
581.297	21476.19
581.495	21695.33
581.692	21891.93
581.89	21506.91
582.088	21717.86
582.285	21500.77
582.483	21541.73
582.681	21799.77
582.878	21586.79
583.076	21070.7
583.274	21517.15
583.471	20999.02
583.669	21261.16
583.866	21113.7
584.064	20988.78
584.262	20536.18
584.459	21144.42
584.657	20767.6
584.854	20976.49
585.052	20384.63
585.249	20646.77
585.447	20550.51
585.644	20437.87
585.841	20659.06
586.039	20427.63
586.236	20228.98
586.434	20097.91
586.631	20335.48
586.828	20542.32
587.026	20351.86
587.223	20122.49
587.42	19893.12
587.618	20097.91
587.815	19843.96
588.012	19643.26
588.21	19903.35
588.407	20054.9
588.604	20190.07
588.801	19534.72
588.999	19573.63
589.196	19673.98
589.393	19745.66
589.59	19551.1
589.787	19350.4
589.984	19123.08
590.182	19207.05
590.379	19248
590.576	19061.64
590.773	19231.62
590.97	18971.53
591.167	19178.37
591.364	18871.18
591.561	19211.14
591.758	18717.58
591.955	18895.75
592.152	18819.98
592.349	18918.28
592.546	18942.86
592.743	18588.56
592.94	18469.78
593.137	18514.83
593.334	18541.46
593.531	18346.9
593.727	18621.33
593.924	18596.75
594.121	18170.77
594.318	18322.32
594.515	17961.88
594.712	18123.67
594.908	18019.22
595.105	18152.34
595.302	18019.22
595.499	18000.79
595.696	18105.24
595.892	17574.81
596.089	17818.52
596.286	17865.63
596.482	17818.52
596.679	17695.64
596.876	17583.01
597.072	17288.1
597.269	17488.8
597.466	17421.22
597.662	17404.83
597.859	17388.45
598.055	17394.59
598.252	17298.34
598.448	17267.62
598.645	16995.24
598.841	16853.93
599.038	17197.99
599.234	17066.92
599.431	16872.36
599.627	16794.54
599.824	16812.97
600.02	16468.91
600.217	16868.27
600.413	16591.79
600.609	16667.56
600.806	16511.92
601.002	16606.13
601.198	16368.56
601.395	16542.64
601.591	16513.97
601.787	16309.17
601.984	16116.66
602.18	16458.67
602.376	16339.89
602.572	16116.66
602.769	16333.75
602.965	16032.69
603.161	16167.86
603.357	15780.79
603.553	15877.05
603.75	15754.17
603.946	15526.85
604.142	15881.14
604.338	15657.92
604.534	15721.4
604.73	15676.35
604.926	15363.01
605.122	15600.57
605.318	15412.16
605.514	15430.59
605.71	15127.49
605.906	15428.54
606.102	15434.69
606.298	15549.37
606.494	15320
606.69	15561.66
606.886	15217.6
607.082	15008.71
607.278	15160.26
607.474	14894.02
607.67	14965.7
607.866	14869.45
608.062	15088.58
608.257	15021
608.453	14939.08
608.649	14810.06
608.845	14672.84
609.041	14681.03
609.236	14818.25
609.432	14787.53
609.628	15076.29
609.824	14846.92
610.019	14787.53
610.215	14652.36
610.411	14789.58
610.606	14597.07
610.802	14541.77
610.998	14525.39
611.193	14857.16
611.389	14408.65
611.584	14404.56
611.78	14410.7
611.976	14537.68
612.171	14334.93
612.367	14300.11
612.562	14662.6
612.758	14203.86
612.953	14123.99
613.149	14521.29
613.344	14019.54
613.539	14343.12
613.735	14277.58
613.93	14087.12
614.126	14146.51
614.321	14181.33
614.517	14132.18
614.712	14060.5
614.907	14158.8
615.103	14183.38
615.298	14101.46
615.493	14166.99
615.688	13861.85
615.884	13978.58
616.079	13896.66
616.274	13931.48
616.47	13700.06
616.665	13980.63
616.86	13560.8
617.055	13759.45
617.25	13611.99
617.445	13765.59
617.641	13511.64
617.836	13530.08
618.031	13407.2
618.226	13558.75
618.421	13274.08
618.616	13480.92
618.811	13427.68
619.006	13575.13
619.201	13108.19
619.396	13597.66
619.591	13077.48
619.786	13265.89
619.981	12977.12
620.176	13034.47
620.371	12977.12
620.566	13173.73
620.761	12925.93
620.956	12979.17
621.151	12637.16
621.346	12796.9
621.541	12583.91
621.735	12686.31
621.93	12547.05
622.125	12620.78
622.32	12403.69
622.515	12430.32
622.709	12313.58
622.904	12241.9
623.099	12028.92
623.294	12211.18
623.488	11887.61
623.683	12157.94
623.878	11770.87
624.072	11877.37
624.267	11631.61
624.462	11727.86
624.656	11584.51
624.851	11811.83
625.046	11578.36
625.24	11447.29
625.435	11518.97
625.629	11428.86
625.824	11234.3
626.018	11465.72
626.213	11021.31
626.407	11043.84
626.602	11074.56
626.796	11217.92
626.991	11129.86
627.185	10830.85
627.38	10722.31
627.574	10830.85
627.768	10773.51
627.963	10494.99
628.157	10439.69
628.352	10744.84
628.546	10429.45
628.74	10562.57
628.935	10310.67
629.129	10380.3
629.323	10052.63
629.517	10298.38
629.712	10122.26
629.906	10171.41
630.1	10044.43
630.294	9919.51
630.489	9921.56
630.683	10071.06
630.877	9763.86
631.071	10005.52
631.265	9884.69
631.459	9624.6
631.653	9757.72
631.848	9761.81
632.042	9407.52
632.236	9505.82
632.43	9380.89
632.624	9290.78
632.818	9411.61
633.012	9192.48
633.206	9210.91
633.4	9235.49
633.594	8977.44
633.788	9065.5
633.982	9081.89
634.176	9143.33
634.369	8842.28
634.563	8942.63
634.757	8909.86
634.951	8866.85
635.145	8758.31
635.339	8668.2
635.533	8752.17
635.726	8526.89
635.92	8530.98
636.114	8530.98
636.308	8475.69
636.501	8662.05
636.695	8401.96
636.889	8451.11
637.083	8389.67
637.276	8344.62
637.47	8160.3
637.664	8285.23
637.857	8150.06
638.051	8291.37
638.244	7892.02
638.438	8025.14
638.632	8086.58
638.825	7973.94
639.019	7892.02
639.212	7824.44
639.406	7930.93
639.599	7935.03
639.793	7668.79
639.986	7697.46
640.18	7783.48
640.373	7547.96
640.567	7674.93
640.76	7644.21
640.954	7496.76
641.147	7441.47
641.34	7498.81
641.534	7447.61
641.727	7291.96
641.92	7341.11
642.114	7316.54
642.307	7369.79
642.5	7181.37
642.694	6937.66
642.887	7283.77
643.08	7042.11
643.273	6984.77
643.467	7103.55
643.66	6992.96
643.853	6960.19
644.046	6874.18
644.239	7052.35
644.432	6816.83
644.626	6808.64
644.819	6792.26
645.012	6786.12
645.205	6730.82
645.398	6638.66
645.591	6636.61
645.784	6552.65
645.977	6579.27
646.17	6653
646.363	6483.02
646.556	6370.38
646.749	6401.1
646.942	6483.02
647.135	6351.95
647.328	6259.79
647.521	6333.51
647.714	6184.01
647.907	6327.37
648.099	6186.06
648.292	6177.87
648.485	6159.44
648.678	5983.31
648.871	6063.18
649.064	6044.75
649.256	6130.77
649.449	5907.54
649.642	5809.23
649.835	6065.23
650.027	5825.62
650.22	5745.75
650.413	5751.89
650.605	5868.63
650.798	5852.24
650.991	5735.51
651.183	5807.19
651.376	5649.49
651.568	5672.02
651.761	5663.83
651.954	5573.72
652.146	5575.77
652.339	5631.06
652.531	5436.5
652.724	5489.75
652.916	5358.68
653.109	5471.32
653.301	5538.9
653.494	5442.65
653.686	5403.74
653.879	5311.58
654.071	5358.68
654.263	5151.84
654.456	5188.7
654.648	5336.15
654.84	5160.03
655.033	5067.87
655.225	5065.82
655.417	5194.84
655.61	5145.69
655.802	5129.31
655.994	5155.93
656.186	4988
656.379	5031.01
656.571	5031.01
656.763	4893.79
656.955	4850.78
657.148	4897.89
657.34	4834.4
657.532	4899.94
657.724	4811.87
657.916	4863.07
658.108	4770.91
658.3	4664.42
658.492	4617.32
658.684	4689
658.876	4703.33
659.068	4662.37
659.26	4672.61
659.452	4580.45
659.644	4553.83
659.836	4588.64
660.028	4514.92
660.22	4498.53
660.412	4381.8
660.604	4465.77
660.796	4516.97
660.988	4318.31
661.18	4310.12
661.372	4293.74
661.563	4260.97
661.755	4383.85
661.947	4115.56
662.139	4222.06
662.331	4318.31
662.522	4144.24
662.714	4105.32
662.906	4113.52
663.097	4097.13
663.289	4199.53
663.481	4035.69
663.673	4187.24
663.864	4265.07
664.056	4011.12
664.247	4019.31
664.439	4033.65
664.631	4062.32
664.822	4097.13
665.014	4054.12
665.205	4060.27
665.397	3828.85
665.588	3951.73
665.78	4009.07
665.971	3865.71
666.163	4058.22
666.354	3908.72
666.546	4060.27
666.737	3736.69
666.929	3781.74
667.12	3769.46
667.311	3705.97
667.503	3771.51
667.694	3873.9
667.885	3728.5
668.077	3765.36
668.268	3673.2
668.459	3609.72
668.651	3671.15
668.842	3626.1
669.033	3587.19
669.224	3624.05
669.416	3665.01
669.607	3474.55
669.798	3509.37
669.989	3542.13
670.18	3656.82
670.371	3638.39
670.563	3411.06
670.754	3550.32
670.945	3413.11
671.136	3474.55
671.327	3460.21
671.518	3538.04
671.709	3488.89
671.9	3376.25
672.091	3454.07
672.282	3474.55
672.473	3316.86
672.664	3368.06
672.855	3323
673.046	3345.53
673.237	3462.26
673.428	3456.12
673.619	3368.06
673.809	3212.41
674	3353.72
674.191	3363.96
674.382	3347.58
674.573	3171.45
674.764	3196.03
674.954	3148.92
675.145	3294.33
675.336	3193.98
675.527	3288.18
675.717	3255.42
675.908	3277.94
676.099	3204.22
676.289	3212.41
676.48	3007.61
676.671	3132.54
676.861	3093.63
677.052	3177.59
677.243	3138.68
677.433	3132.54
677.624	3110.01
677.814	3075.2
678.005	3232.89
678.195	3075.2
678.386	3095.68
678.576	3034.24
678.767	2983.04
678.957	3206.27
679.148	2985.09
679.338	2954.37
679.529	3146.87
679.719	3046.52
679.909	3005.56
680.1	3044.48
680.29	2991.23
680.481	2976.89
680.671	3048.57
680.861	2911.36
681.052	3157.11
681.242	3011.71
681.432	3118.2
681.622	2974.85
681.813	2999.42
682.003	2991.23
682.193	2960.51
682.383	3075.2
682.573	2972.8
682.764	2999.42
682.954	2929.79
683.144	3062.91
683.334	2976.89
683.524	3028.09
683.714	2921.6
683.904	2802.82
684.094	2815.1
684.284	2835.58
684.474	2944.13
684.664	2950.27
684.854	2958.46
685.044	2862.21
685.234	2798.72
685.424	2808.96
685.614	2878.59
685.804	2890.88
685.994	2849.92
686.184	2860.16
686.374	2743.42
686.564	2774.14
686.753	2823.3
686.943	2565.25
687.133	2677.89
687.323	2731.14
687.513	2714.75
687.702	2708.61
687.892	2630.79
688.082	2638.98
688.272	2817.15
688.461	2735.23
688.651	2718.85
688.841	2538.63
689.03	2724.99
689.22	2686.08
689.41	2593.92
689.599	2591.88
689.789	2593.92
689.979	2520.2
690.168	2520.2
690.358	2565.25
690.547	2503.81
690.737	2548.87
690.926	2657.41
691.116	2487.43
691.305	2444.42
691.495	2516.1
691.684	2421.89
691.874	2483.33
692.063	2540.68
692.252	2579.59
692.442	2540.68
692.631	2501.76
692.82	2393.22
693.01	2354.31
693.199	2395.27
693.388	2288.78
693.578	2493.57
693.767	2462.85
693.956	2565.25
694.146	2346.12
694.335	2403.46
694.524	2303.11
694.713	2325.64
694.902	2360.45
695.092	2387.08
695.281	2407.56
695.47	2352.26
695.659	2317.45
695.848	2213
696.037	2256.01
696.226	2223.24
696.415	2284.68
696.604	2278.54
696.793	2235.53
696.982	2434.18
697.171	2266.25
697.36	2184.33
697.549	2192.52
697.738	2227.34
697.927	2204.81
698.116	2147.47
698.305	2180.23
698.494	2184.33
698.683	2251.91
698.872	2198.67
699.061	2104.46
699.25	2213
699.438	2290.82
699.627	2208.9
699.816	2272.39
700.005	2022.54
700.193	2163.85
700.382	2231.43
700.571	2167.95
700.76	2215.05
700.948	2198.67
701.137	2178.19
701.326	2081.93
701.514	2176.14
701.703	2163.85
701.892	2172.04
702.08	2215.05
702.269	2133.13
702.457	2217.1
702.646	2131.08
702.834	2180.23
703.023	2225.29
703.212	2237.58
703.4	2094.22
703.589	2188.43
703.777	2098.31
703.965	2069.64
704.154	2100.36
704.342	2133.13
704.531	2073.74
704.719	1963.15
704.907	2145.42
705.096	2237.58
705.284	2098.31
705.472	2065.55
705.661	2114.7
705.849	2141.32
706.037	2092.17
706.226	2133.13
706.414	2065.55
706.602	2000.01
706.79	2196.62
706.979	2051.21
707.167	2049.16
707.355	2157.71
707.543	1963.15
707.731	2073.74
707.919	2040.97
708.107	1952.91
708.296	2063.5
708.484	2024.59
708.672	2073.74
708.86	2069.64
709.048	2002.06
709.236	2090.12
709.424	1975.44
709.612	2057.36
709.8	2106.51
709.988	1987.72
710.176	2030.73
710.364	2139.27
710.551	2053.26
710.739	2038.92
710.927	1983.63
711.115	2032.78
711.303	2036.88
711.491	2016.4
711.679	2034.83
711.866	2063.5
712.054	2100.36
712.242	2040.97
712.43	2028.68
712.617	2126.99
712.805	2098.31
712.993	2098.31
713.181	2040.97
713.368	2026.64
713.556	2100.36
713.744	2034.83
713.931	2075.79
714.119	2000.01
714.306	2051.21
714.494	1946.76
714.682	2004.11
714.869	2010.25
715.057	1952.91
715.244	2000.01
715.432	2057.36
715.619	1987.72
715.807	2008.2
715.994	2004.11
716.182	2083.98
716.369	2075.79
716.556	1961.1
716.744	1967.24
716.931	1959.05
717.119	2049.16
717.306	1995.92
717.493	2000.01
717.681	1997.96
717.868	1995.92
718.055	2147.47
718.242	2008.2
718.43	2057.36
718.617	2010.25
718.804	2067.6
718.991	2008.2
719.179	1936.53
719.366	2065.55
719.553	1977.48
719.74	1959.05
719.927	1991.82
720.114	1969.29
720.301	2073.74
720.488	1950.86
720.676	1993.87
720.863	2135.18
721.05	2141.32
721.237	1936.53
721.424	2108.55
721.611	2141.32
721.798	2034.83
721.985	1969.29
722.172	2014.35
722.358	1959.05
722.545	2045.07
722.732	2008.2
722.919	1946.76
723.106	1967.24
723.293	2073.74
723.48	2083.98
723.667	2002.06
723.853	2045.07
724.04	1881.23
724.227	1975.44
724.414	1969.29
724.6	1899.66
724.787	2077.83
724.974	2028.68
725.161	1914
725.347	1944.72
725.534	2022.54
725.72	2065.55
725.907	1965.2
726.094	2000.01
726.28	1977.48
726.467	2073.74
726.653	1934.48
726.84	2026.64
727.027	2073.74
727.213	2000.01
727.4	2014.35
727.586	1860.75
727.773	1967.24
727.959	1989.77
728.145	1983.63
728.332	2016.4
728.518	1983.63
728.705	1924.24
728.891	1885.33
729.077	1909.9
729.264	1815.69
729.45	2065.55
729.636	1911.95
729.823	1883.28
730.009	2008.2
730.195	1987.72
730.382	2032.78
730.568	2040.97
730.754	1965.2
730.94	1977.48
731.126	1959.05
731.313	1959.05
731.499	1959.05
731.685	1954.96
731.871	1979.53
732.057	1983.63
732.243	1909.9
732.429	1983.63
732.615	1967.24
732.801	1952.91
732.987	1916.05
733.173	1950.86
733.359	1987.72
733.545	1928.33
733.731	1983.63
733.917	1971.34
734.103	1918.09
734.289	1922.19
734.475	1911.95
734.661	2051.21
734.847	1952.91
735.033	1903.76
735.219	1914
735.404	1864.85
735.59	1889.42
735.776	1938.57
735.962	2045.07
736.148	1877.13
736.333	1983.63
736.519	1868.94
736.705	1901.71
736.89	1987.72
737.076	1920.14
737.262	2014.35
737.447	1830.03
737.633	1914
737.819	1983.63
738.004	1893.52
738.19	1860.75
738.375	1838.22
738.561	1889.42
738.747	1842.32
738.932	1870.99
739.118	1944.72
739.303	1932.43
739.489	1922.19
739.674	1737.87
739.859	1926.29
740.045	1926.29
740.23	1848.46
740.416	1692.82
740.601	1852.56
740.786	1805.46
740.972	1799.31
741.157	1813.65
741.342	1764.5
741.528	1868.94
741.713	1827.98
741.898	1830.03
742.084	1887.37
742.269	1778.83
742.454	1735.82
742.639	1811.6
742.824	1811.6
743.01	1868.94
743.195	1789.07
743.38	1774.74
743.565	1756.3
743.75	1780.88
743.935	1754.26
744.12	1758.35
744.305	1647.76
744.49	1688.72
744.675	1729.68
744.86	1737.87
745.045	1760.4
745.23	1631.38
745.415	1707.15
745.6	1688.72
745.785	1596.56
745.97	1770.64
746.155	1567.89
746.34	1660.05
746.525	1680.53
746.71	1664.15
746.895	1569.94
747.079	1698.96
747.264	1549.46
747.449	1596.56
747.634	1649.81
747.819	1514.64
748.003	1528.98
748.188	1471.64
748.373	1533.08
748.557	1633.43
748.742	1635.47
748.927	1598.61
749.111	1463.44
749.296	1483.92
749.481	1516.69
749.665	1483.92
749.85	1461.4
750.034	1563.79
750.219	1395.86
750.404	1369.24
750.588	1391.77
750.773	1434.77
750.957	1428.63
751.141	1389.72
751.326	1377.43
751.51	1402.01
751.695	1354.9
751.879	1229.98
752.064	1332.37
752.248	1303.7
752.432	1307.8
752.617	1277.08
752.801	1334.42
752.985	1393.81
753.17	1305.75
753.354	1174.68
753.538	1299.61
753.722	1221.78
753.907	1270.94
754.091	1133.72
754.275	1229.98
754.459	1135.77
754.643	1119.39
754.828	1225.88
755.012	1139.87
755.196	1133.72
755.38	1197.21
755.564	1189.02
755.748	1141.91
755.932	1131.67
756.116	1105.05
756.3	1125.53
756.484	1051.8
756.668	1082.52
756.852	1094.81
757.036	1119.39
757.22	1139.87
757.404	1166.49
757.588	1027.23
757.772	1109.15
757.956	1057.95
758.14	1096.86
758.323	1041.56
758.507	978.08
758.691	1002.65
758.875	1029.27
759.059	1164.44
759.242	996.51
759.426	969.88
759.61	1025.18
759.794	1004.7
759.977	930.97
760.161	1025.18
760.345	930.97
760.528	935.07
760.712	898.2
760.895	922.78
761.079	881.82
761.263	1008.8
761.446	914.59
761.63	906.4
761.813	1000.6
761.997	928.92
762.18	887.97
762.364	939.16
762.547	855.2
762.731	877.73
762.914	832.67
763.098	918.68
763.281	887.97
763.464	844.96
763.648	832.67
763.831	849.05
764.015	857.25
764.198	902.3
764.381	758.94
764.564	881.82
764.748	863.39
764.931	967.84
765.114	861.34
765.297	789.66
765.481	885.92
765.664	832.67
765.847	765.09
766.03	814.24
766.213	853.15
766.397	779.42
766.58	857.25
766.763	816.29
766.946	726.18
767.129	844.96
767.312	836.77
767.495	812.19
767.678	746.66
767.861	775.33
768.044	730.27
768.227	760.99
768.41	760.99
768.593	756.9
768.776	720.03
768.959	771.23
769.142	797.85
769.324	724.13
769.507	816.29
769.69	707.74
769.873	672.93
770.056	814.24
770.239	754.85
770.421	763.04
770.604	760.99
770.787	767.13
770.97	767.13
771.152	623.78
771.335	722.08
771.518	664.74
771.7	701.6
771.883	685.22
772.066	582.82
772.248	742.56
772.431	795.81
772.613	787.61
772.796	650.4
772.978	687.26
773.161	707.74
773.343	556.19
773.526	619.68
773.708	664.74
773.891	636.06
774.073	580.77
774.256	582.82
774.438	619.68
774.621	564.39
774.803	697.5
774.985	648.35
775.168	586.91
775.35	599.2
775.532	578.72
775.715	591.01
775.897	550.05
776.079	648.35
776.261	517.28
776.444	511.14
776.626	558.24
776.808	593.06
776.99	525.47
777.173	582.82
777.355	631.97
777.537	588.96
777.719	525.47
777.901	464.04
778.083	548
778.265	548
778.447	502.95
778.629	484.52
778.811	521.38
778.993	480.42
779.175	591.01
779.357	494.76
779.539	482.47
779.721	535.71
779.903	466.08
780.085	517.28
780.267	525.47
780.449	468.13
780.631	525.47
780.812	394.4
780.994	468.13
781.176	404.64
781.358	421.03
781.54	400.55
781.721	509.09
781.903	484.52
782.085	431.27
782.267	365.73
782.448	369.83
782.63	435.36
782.812	392.36
782.993	464.04
783.175	402.6
783.357	398.5
783.538	451.75
783.72	421.03
783.901	355.49
784.083	431.27
784.264	418.98
784.446	347.3
784.627	427.17
784.809	394.4
784.99	375.97
785.172	412.84
785.353	363.69
785.535	353.45
785.716	320.68
785.897	416.93
786.079	353.45
786.26	375.97
786.441	361.64
786.623	298.15
786.804	310.44
786.985	279.72
787.167	369.83
787.348	320.68
787.529	337.06
787.71	394.4
787.891	382.12
788.073	337.06
788.254	253.09
788.435	357.54
788.616	330.92
788.797	296.1
788.978	312.49
789.159	289.96
789.34	365.73
789.522	306.34
789.703	296.1
789.884	271.53
790.065	267.43
790.246	369.83
790.427	240.81
790.607	269.48
790.788	343.21
790.969	310.44
791.15	279.72
791.331	294.05
791.512	218.28
791.693	273.57
791.874	294.05
792.054	304.29
792.235	273.57
792.416	275.62
792.597	238.76
792.778	337.06
792.958	302.25
793.139	232.62
793.32	304.29
793.5	175.27
793.681	287.91
793.862	365.73
794.042	265.38
794.223	193.7
794.404	224.42
794.584	259.24
794.765	224.42
794.945	160.94
795.126	238.76
795.306	214.18
795.487	226.47
795.667	322.73
795.848	289.96
796.028	249
796.209	246.95
796.389	210.09
796.57	230.57
796.75	230.57
796.93	193.7
797.111	181.42
797.291	251.05
797.471	208.04
797.652	281.77
797.832	181.42
798.012	222.38
798.192	238.76
798.373	167.08
798.553	226.47
798.733	312.49
798.913	185.51
799.093	179.37
799.274	205.99
799.454	189.61
799.634	210.09
799.814	218.28
799.994	189.61
800.174	214.18
800.354	216.23
800.534	165.03
800.714	167.08
800.894	142.5
801.074	169.13
801.254	173.22
801.434	158.89
801.614	136.36
801.794	222.38
801.974	711.84
802.154	189.61
802.334	216.23
802.514	150.7
802.693	242.85
802.873	124.07
803.053	205.99
803.233	216.23
803.413	246.95
803.592	162.98
803.772	193.7
803.952	156.84
804.131	162.98
804.311	128.17
804.491	214.18
804.67	148.65
804.85	216.23
805.03	205.99
805.209	240.81
805.389	150.7
805.568	181.42
805.748	167.08
805.928	205.99
806.107	205.99
806.287	210.09
806.466	111.78
806.646	95.4
806.825	160.94
807.004	130.22
807.184	175.27
807.363	226.47
807.543	130.22
807.722	128.17
807.901	148.65
808.081	126.12
808.26	101.55
808.439	173.22
808.619	107.69
808.798	167.08
808.977	191.66
809.156	156.84
809.336	126.12
809.515	115.88
809.694	197.8
809.873	99.5
810.052	124.07
810.231	181.42
810.411	140.46
810.59	113.83
810.769	105.64
810.948	189.61
811.127	115.88
811.306	138.41
811.485	93.35
811.664	205.99
811.843	130.22
812.022	107.69
812.201	115.88
812.38	214.18
812.559	11.43
812.737	109.74
812.916	105.64
813.095	95.4
813.274	199.85
813.453	101.55
813.632	148.65
813.811	222.38
813.989	124.07
814.168	119.98
814.347	124.07
814.526	105.64
814.704	187.56
814.883	111.78
815.062	119.98
815.24	126.12
815.419	95.4
815.598	158.89
815.776	124.07
815.955	117.93
816.133	109.74
816.312	117.93
816.49	79.02
816.669	205.99
816.847	36.01
817.026	185.51
817.204	74.92
817.383	81.07
817.561	17.58
817.74	111.78
817.918	64.68
818.097	44.2
818.275	54.44
818.453	58.54
818.632	144.55
818.81	136.36
818.988	113.83
819.167	68.78
819.345	115.88
819.523	158.89
819.701	72.87
819.879	97.45
820.058	25.77
820.236	91.31
820.414	128.17
820.592	165.03
820.77	29.87
820.948	66.73
821.127	124.07
821.305	40.11
821.483	13.48
821.661	83.11
821.839	115.88
822.017	150.7
822.195	101.55
822.373	148.65
822.551	87.21
822.729	117.93
822.907	27.82
823.085	50.35
823.262	56.49
823.44	-13.14
823.618	140.46
823.796	140.46
823.974	13.48
824.152	132.26
824.329	124.07
824.507	76.97
824.685	50.35
824.863	72.87
825.04	60.59
825.218	52.39
825.396	-4.95
825.574	44.2
825.751	115.88
825.929	46.25
826.107	46.25
826.284	124.07
826.462	25.77
826.639	27.82
826.817	52.39
826.994	107.69
827.172	36.01
827.349	87.21
827.527	111.78
827.704	50.35
827.882	54.44
828.059	76.97
828.237	17.58
828.414	105.64
828.591	46.25
828.769	42.15
828.946	95.4
829.124	36.01
829.301	109.74
829.478	52.39
829.655	64.68
829.833	31.91
830.01	89.26
830.187	11.43
830.364	25.77
830.542	91.31
830.719	140.46
830.896	93.35
831.073	13.48
831.25	91.31
831.427	46.25
831.604	50.35
831.782	87.21
831.959	83.11
832.136	87.21
832.313	74.92
832.49	-25.43
832.667	11.43
832.844	74.92
833.021	74.92
833.198	58.54
833.374	91.31
833.551	54.44
833.728	42.15
833.905	25.77
834.082	23.72
834.259	58.54
834.436	193.7
834.612	5.29
834.789	1.19
834.966	21.67
835.143	33.96
835.319	-19.29
835.496	40.11
835.673	76.97
835.85	101.55
836.026	70.83
836.203	70.83
836.38	21.67
836.556	29.87
836.733	70.83
836.909	79.02
837.086	44.2
837.262	13.48
837.439	29.87
837.616	91.31
837.792	46.25
837.968	21.67
838.145	-37.72
838.321	25.77
838.498	52.39
838.674	48.3
838.851	50.35
839.027	85.16
839.203	36.01
839.38	38.06
839.556	64.68
839.732	85.16
839.909	5.29
840.085	83.11
840.261	33.96
840.437	91.31
840.614	9.39
840.79	66.73
840.966	11.43
841.142	23.72
841.318	7.34
841.494	27.82
841.671	-4.95
841.847	83.11
842.023	27.82
842.199	-23.38
842.375	83.11
842.551	-56.15
842.727	9.39
842.903	111.78
843.079	58.54
843.255	29.87
843.431	3.24
843.607	-2.9
843.783	-88.92
843.959	54.44
844.134	9.39
844.31	97.45
844.486	19.63
844.662	-19.29
844.838	-37.72
845.013	87.21
845.189	-13.14
845.365	58.54
845.541	48.3
845.716	-23.38
845.892	33.96
846.068	54.44
846.244	9.39
846.419	52.39
846.595	-7
846.77	-0.85
846.946	46.25
847.122	-37.72
847.297	68.78
847.473	66.73
847.648	-47.96
847.824	21.67
847.999	74.92
848.175	36.01
848.35	-33.62
848.526	74.92
848.701	50.35
848.876	-31.57
849.052	83.11
849.227	21.67
849.403	33.96
849.578	36.01
849.753	48.3
849.929	-15.19
850.104	29.87
850.279	9.39
850.454	74.92
850.63	50.35
850.805	7.34
850.98	25.77
851.155	29.87
851.33	60.59
851.505	-25.43
851.681	58.54
851.856	-37.72
852.031	58.54
852.206	1.19
852.381	79.02
852.556	17.58
852.731	25.77
852.906	-7
853.081	46.25
853.256	-15.19
853.431	36.01
853.606	17.58
853.781	-64.34
853.956	-23.38
854.131	52.39
854.305	38.06
854.48	-7
854.655	-0.85
854.83	-25.43
855.005	-19.29
855.18	66.73
855.354	11.43
855.529	1.19
855.704	15.53
855.879	15.53
856.053	19.63
856.228	-7
856.403	-45.91
856.577	56.49
856.752	-33.62
856.926	-21.33
857.101	40.11
857.276	-23.38
857.45	44.2
857.625	74.92
857.799	68.78
857.974	19.63
858.148	-58.2
858.323	89.26
858.497	66.73
858.672	3.24
858.846	36.01
859.02	48.3
859.195	-41.81
859.369	-80.72
859.543	-7
859.718	25.77
859.892	-70.48
860.066	-31.57
860.241	3.24
860.415	-15.19
860.589	-7
860.763	13.48
860.938	17.58
861.112	124.07
861.286	-47.96
861.46	9.39
861.634	42.15
861.808	68.78
861.982	-39.76
862.157	-45.91
862.331	9.39
862.505	33.96
862.679	-29.52
862.853	-13.14
863.027	50.35
863.201	36.01
863.375	-9.05
863.549	-23.38
863.722	29.87
863.896	52.39
864.07	-80.72
864.244	5.29
864.418	27.82
864.592	44.2
864.766	19.63
864.939	97.45
865.113	-23.38
865.287	15.53
865.461	-4.95
865.634	23.72
865.808	31.91
865.982	-35.67
866.156	25.77
866.329	38.06
866.503	25.77
866.676	40.11
866.85	19.63
867.024	-19.29
867.197	81.07
867.371	1.19
867.544	25.77
867.718	-21.33
867.891	21.67
868.065	-11.09
868.238	-4.95
868.412	46.25
868.585	19.63
868.759	5.29
868.932	42.15
869.105	-54.1
869.279	-13.14
869.452	-13.14
869.625	19.63
869.799	33.96
869.972	9.39
870.145	44.2
870.319	74.92
870.492	9.39
870.665	33.96
870.838	-39.76
871.011	1.19
871.185	17.58
871.358	-19.29
871.531	3.24
871.704	52.39
871.877	44.2
872.05	9.39
872.223	-4.95
872.396	25.77
872.569	13.48
872.742	11.43
872.915	21.67
873.088	29.87
873.261	27.82
873.434	-15.19
873.607	-31.57
873.78	17.58
873.953	9.39
874.126	-54.1
874.299	50.35
874.471	-2.9
874.644	-2.9
874.817	17.58
874.99	66.73
875.163	3.24
875.335	38.06
875.508	33.96
875.681	-58.2
875.853	-31.57
876.026	-23.38
876.199	-31.57
876.371	122.02
876.544	-7
876.717	-31.57
876.889	62.63
877.062	42.15
877.234	-7
877.407	-2.9
877.579	5.29
877.752	70.83
877.924	21.67
878.097	56.49
878.269	-21.33
878.442	-31.57
878.614	21.67
878.786	-0.85
878.959	-33.62
879.131	-15.19
879.303	-66.39
879.476	33.96
879.648	68.78
879.82	13.48
879.993	1.19
880.165	64.68
880.337	9.39
880.509	-39.76
880.681	-47.96
880.854	-47.96
881.026	-13.14
881.198	87.21
881.37	21.67
881.542	-47.96
881.714	60.59
881.886	-31.57
882.058	38.06
882.23	-15.19
882.402	21.67
882.574	-27.48
882.746	31.91
882.918	62.63
883.09	-19.29
883.262	17.58
883.434	23.72
883.606	-4.95
883.778	19.63
883.95	91.31
884.122	-2.9
884.293	58.54
884.465	-47.96
884.637	42.15
884.809	17.58
884.98	23.72
885.152	42.15
885.324	33.96
885.496	9.39
885.667	9.39
885.839	1.19
886.011	56.49
886.182	58.54
886.354	-35.67
886.525	-31.57
886.697	17.58
886.869	-29.52
887.04	23.72
887.212	27.82
887.383	-37.72
887.555	-66.39
887.726	-11.09
887.897	-13.14
888.069	-41.81
888.24	-13.14
888.412	50.35
888.583	-4.95
888.754	11.43
888.926	-13.14
889.097	-39.76
889.268	-39.76
889.44	40.11
889.611	-19.29
889.782	-0.85
889.953	-47.96
890.125	11.43
890.296	25.77
890.467	-62.29
890.638	-35.67
890.809	85.16
890.98	-43.86
891.151	-21.33
891.323	46.25
891.494	-37.72
891.665	5.29
891.836	-41.81
892.007	-21.33
892.178	5.29
892.349	3.24
892.52	-4.95
892.691	-23.38
892.862	-66.39
893.032	-29.52
893.203	-47.96
893.374	46.25
893.545	38.06
893.716	-19.29
893.887	-7
894.057	27.82
894.228	-7
894.399	-27.48
894.57	140.46
894.74	-17.24
894.911	19.63
895.082	23.72
895.253	-43.86
895.423	-45.91
895.594	60.59
895.764	-31.57
895.935	-47.96
896.106	25.77
896.276	17.58
896.447	17.58
896.617	-62.29
896.788	17.58
896.958	3.24
897.129	-27.48
897.299	7.34
897.47	25.77
897.64	-21.33
897.81	-23.38
897.981	3.24
898.151	3.24
898.322	42.15
898.492	-17.24
898.662	-21.33
898.832	-23.38
899.003	-7
899.173	-0.85
899.343	-45.91
899.513	27.82
