Data from USB4F104151__131__14-19-06-136.txt Node

Date: Thu Mar 13 14:19:06 EDT 2025
User: louis
Spectrometer: USB4F10415
Trigger mode: 4
Integration Time (sec): 2.000000E-2
Scans to average: 1
Electric dark correction enabled: true
Nonlinearity correction enabled: false
Boxcar width: 0
XAxis mode: Wavelengths
Number of Pixels in Spectrum: 3648
>>>>>Begin Spectral Data<<<<<
178.204	-65.54
178.424	-65.54
178.644	-65.54
178.864	-139.26
179.084	-114.69
179.304	51.2
179.524	14.34
179.744	-30.72
179.964	28.67
180.184	-24.58
180.404	-4.1
180.624	-16.38
180.844	-8.19
181.064	8.19
181.283	-22.53
181.503	12.29
181.723	-8.19
181.943	-40.96
182.163	32.77
182.383	40.96
182.602	45.06
182.822	26.62
183.042	34.82
183.262	26.62
183.482	38.91
183.701	-71.68
183.921	-49.15
184.141	-22.53
184.361	61.44
184.58	12.29
184.8	40.96
185.02	40.96
185.239	0
185.459	-18.43
185.679	36.86
185.898	20.48
186.118	43.01
186.338	-6.14
186.557	61.44
186.777	-59.39
186.997	49.15
187.216	10.24
187.436	73.73
187.655	-8.19
187.875	36.86
188.095	20.48
188.314	0
188.534	34.82
188.753	-26.62
188.973	24.58
189.192	43.01
189.412	26.62
189.631	43.01
189.851	34.82
190.07	38.91
190.29	-6.14
190.509	34.82
190.729	2.05
190.948	32.77
191.168	24.58
191.387	34.82
191.607	53.25
191.826	90.11
192.045	-40.96
192.265	16.38
192.484	24.58
192.704	10.24
192.923	-8.19
193.142	110.59
193.362	-6.14
193.581	45.06
193.8	-8.19
194.02	92.16
194.239	59.39
194.458	59.39
194.678	24.58
194.897	2.05
195.116	65.53
195.335	-16.38
195.555	0
195.774	16.38
195.993	61.44
196.212	-16.38
196.432	4.1
196.651	-43.01
196.87	0
197.089	40.96
197.308	53.25
197.528	45.06
197.747	-77.82
197.966	22.53
198.185	63.49
198.404	65.53
198.623	-28.67
198.842	-43.01
199.062	20.48
199.281	53.25
199.5	-4.1
199.719	40.96
199.938	20.48
200.157	43.01
200.376	-2.05
200.595	43.01
200.814	-32.77
201.033	34.82
201.252	-2.05
201.471	61.44
201.69	49.15
201.909	59.39
202.128	100.35
202.347	47.1
202.566	6.14
202.785	53.25
203.004	-86.01
203.223	73.73
203.442	40.96
203.661	14.34
203.879	16.38
204.098	88.06
204.317	2.05
204.536	96.25
204.755	71.68
204.974	-18.43
205.193	-55.3
205.411	57.34
205.63	-8.19
205.849	43.01
206.068	24.58
206.287	-8.19
206.505	-12.29
206.724	10.24
206.943	18.43
207.162	-14.34
207.381	-32.77
207.599	-32.77
207.818	-4.1
208.037	24.58
208.255	57.34
208.474	73.73
208.693	14.34
208.911	40.96
209.13	26.62
209.349	38.91
209.567	16.38
209.786	26.62
210.005	51.2
210.223	49.15
210.442	-24.58
210.661	14.34
210.879	-65.54
211.098	8.19
211.316	-2.05
211.535	10.24
211.753	22.53
211.972	55.3
212.191	30.72
212.409	98.3
212.628	0
212.846	-49.15
213.065	-12.29
213.283	118.78
213.502	59.39
213.72	34.82
213.938	-32.77
214.157	-57.34
214.375	63.49
214.594	10.24
214.812	65.53
215.031	16.38
215.249	-20.48
215.467	49.15
215.686	12.29
215.904	81.92
216.122	12.29
216.341	45.06
216.559	32.77
216.778	10.24
216.996	81.92
217.214	47.1
217.432	4.1
217.651	40.96
217.869	-8.19
218.087	26.62
218.306	16.38
218.524	40.96
218.742	-34.82
218.96	40.96
219.179	-28.67
219.397	32.77
219.615	79.87
219.833	10.24
220.051	-6.14
220.27	8.19
220.488	32.77
220.706	-2.05
220.924	14.34
221.142	10.24
221.36	4.1
221.578	-20.48
221.796	28.67
222.015	16.38
222.233	90.11
222.451	-6.14
222.669	-8.19
222.887	20.48
223.105	40.96
223.323	38.91
223.541	16.38
223.759	32.77
223.977	-24.58
224.195	75.77
224.413	34.82
224.631	75.77
224.849	-8.19
225.067	106.49
225.285	16.38
225.503	16.38
225.721	-57.34
225.939	-81.92
226.157	16.38
226.375	114.69
226.592	-65.54
226.81	-32.77
227.028	18.43
227.246	90.11
227.464	20.48
227.682	20.48
227.9	-24.58
228.117	16.38
228.335	20.48
228.553	-6.14
228.771	-28.67
228.989	43.01
229.206	-22.53
229.424	-20.48
229.642	-34.82
229.86	6.14
230.077	67.58
230.295	116.73
230.513	8.19
230.731	22.53
230.948	-8.19
231.166	79.87
231.384	-8.19
231.601	-16.38
231.819	2.05
232.037	24.58
232.254	-45.06
232.472	12.29
232.689	20.48
232.907	32.77
233.125	40.96
233.342	0
233.56	20.48
233.777	0
233.995	-14.34
234.213	45.06
234.43	2.05
234.648	-6.14
234.865	-8.19
235.083	24.58
235.3	-16.38
235.518	40.96
235.735	59.39
235.953	34.82
236.17	26.62
236.388	131.07
236.605	14.34
236.822	45.06
237.04	71.68
237.257	61.44
237.475	40.96
237.692	53.25
237.909	2.05
238.127	-8.19
238.344	49.15
238.562	28.67
238.779	20.48
238.996	20.48
239.214	18.43
239.431	108.54
239.648	20.48
239.865	57.34
240.083	75.77
240.3	26.62
240.517	92.16
240.735	126.97
240.952	100.35
241.169	61.44
241.386	8.19
241.603	47.1
241.821	-6.14
242.038	34.82
242.255	0
242.472	-16.38
242.689	43.01
242.907	-6.14
243.124	-55.3
243.341	-53.25
243.558	-18.43
243.775	12.29
243.992	-20.48
244.209	59.39
244.426	53.25
244.643	53.25
244.86	100.35
245.078	81.92
245.295	-18.43
245.512	22.53
245.729	-51.2
245.946	43.01
246.163	-14.34
246.38	-24.58
246.597	-4.1
246.814	32.77
247.031	69.63
247.248	43.01
247.464	22.53
247.681	14.34
247.898	26.62
248.115	71.68
248.332	36.86
248.549	53.25
248.766	63.49
248.983	77.82
249.2	-43.01
249.417	57.34
249.633	-40.96
249.85	20.48
250.067	-12.29
250.284	-20.48
250.501	28.67
250.717	59.39
250.934	-24.58
251.151	4.1
251.368	-16.38
251.585	36.86
251.801	53.25
252.018	26.62
252.235	114.69
252.451	-28.67
252.668	-14.34
252.885	-45.06
253.102	-6.14
253.318	20.48
253.535	-57.34
253.752	36.86
253.968	-8.19
254.185	12.29
254.401	55.3
254.618	16.38
254.835	10.24
255.051	-22.53
255.268	47.1
255.484	16.38
255.701	-38.91
255.917	10.24
256.134	-47.1
256.351	-4.1
256.567	-4.1
256.784	81.92
257	-40.96
257.217	73.73
257.433	73.73
257.65	40.96
257.866	75.77
258.082	90.11
258.299	-16.38
258.515	45.06
258.732	-18.43
258.948	0
259.165	4.1
259.381	34.82
259.597	-8.19
259.814	40.96
260.03	20.48
260.246	-16.38
260.463	57.34
260.679	30.72
260.895	2.05
261.112	53.25
261.328	-6.14
261.544	43.01
261.761	47.1
261.977	26.62
262.193	20.48
262.409	26.62
262.626	12.29
262.842	102.4
263.058	30.72
263.274	-40.96
263.49	49.15
263.707	-22.53
263.923	36.86
264.139	57.34
264.355	51.2
264.571	114.69
264.787	-16.38
265.004	55.3
265.22	12.29
265.436	28.67
265.652	73.73
265.868	32.77
266.084	69.63
266.3	32.77
266.516	-2.05
266.732	26.62
266.948	-28.67
267.164	26.62
267.38	-106.49
267.596	30.72
267.812	28.67
268.028	-8.19
268.244	40.96
268.46	0
268.676	8.19
268.892	32.77
269.108	26.62
269.324	-77.82
269.54	73.73
269.756	24.58
269.972	8.19
270.188	75.77
270.403	-69.63
270.619	75.77
270.835	8.19
271.051	49.15
271.267	8.19
271.483	-22.53
271.698	53.25
271.914	-32.77
272.13	-12.29
272.346	24.58
272.562	-6.14
272.777	45.06
272.993	16.38
273.209	24.58
273.425	65.53
273.64	-14.34
273.856	65.53
274.072	69.63
274.287	-14.34
274.503	65.53
274.719	40.96
274.934	92.16
275.15	26.62
275.366	-77.82
275.581	-38.91
275.797	8.19
276.012	40.96
276.228	51.2
276.444	75.77
276.659	30.72
276.875	38.91
277.09	-8.19
277.306	-2.05
277.521	53.25
277.737	0
277.952	26.62
278.168	38.91
278.383	18.43
278.599	0
278.814	-8.19
279.03	-53.25
279.245	81.92
279.461	-8.19
279.676	102.4
279.892	0
280.107	34.82
280.322	53.25
280.538	81.92
280.753	-4.1
280.969	59.39
281.184	0
281.399	40.96
281.615	-8.19
281.83	16.38
282.045	8.19
282.26	34.82
282.476	22.53
282.691	-20.48
282.906	49.15
283.122	90.11
283.337	-4.1
283.552	81.92
283.767	22.53
283.983	24.58
284.198	0
284.413	92.16
284.628	-34.82
284.843	73.73
285.058	38.91
285.274	-8.19
285.489	-122.88
285.704	40.96
285.919	-8.19
286.134	32.77
286.349	12.29
286.564	40.96
286.779	73.73
286.995	0
287.21	12.29
287.425	0
287.64	-30.72
287.855	0
288.07	20.48
288.285	28.67
288.5	45.06
288.715	36.86
288.93	-53.25
289.145	63.49
289.36	57.34
289.575	12.29
289.79	36.86
290.004	32.77
290.219	-22.53
290.434	-8.19
290.649	-16.38
290.864	40.96
291.079	18.43
291.294	4.1
291.509	-26.62
291.724	-28.67
291.938	-22.53
292.153	16.38
292.368	32.77
292.583	55.3
292.798	40.96
293.012	-22.53
293.227	32.77
293.442	-47.1
293.657	-14.34
293.871	12.29
294.086	24.58
294.301	90.11
294.516	16.38
294.73	32.77
294.945	-59.39
295.16	112.64
295.374	53.25
295.589	61.44
295.804	8.19
296.018	12.29
296.233	81.92
296.447	83.97
296.662	51.2
296.877	8.19
297.091	49.15
297.306	43.01
297.52	12.29
297.735	32.77
297.949	71.68
298.164	49.15
298.378	-14.34
298.593	0
298.807	0
299.022	90.11
299.236	94.21
299.451	-40.96
299.665	-53.25
299.88	32.77
300.094	-8.19
300.309	43.01
300.523	30.72
300.737	2.05
300.952	24.58
301.166	108.54
301.381	-49.15
301.595	49.15
301.809	-61.44
302.024	47.1
302.238	4.1
302.452	122.88
302.667	10.24
302.881	47.1
303.095	43.01
303.309	106.49
303.524	-28.67
303.738	57.34
303.952	-45.06
304.166	67.58
304.381	40.96
304.595	102.4
304.809	20.48
305.023	49.15
305.237	65.53
305.452	16.38
305.666	-12.29
305.88	59.39
306.094	0
306.308	81.92
306.522	45.06
306.736	43.01
306.95	-8.19
307.164	-24.58
307.379	38.91
307.593	88.06
307.807	0
308.021	24.58
308.235	53.25
308.449	-38.91
308.663	-10.24
308.877	77.82
309.091	40.96
309.305	-8.19
309.519	-6.14
309.733	-4.1
309.947	-20.48
310.161	-12.29
310.374	45.06
310.588	57.34
310.802	57.34
311.016	14.34
311.23	38.91
311.444	90.11
311.658	20.48
311.872	57.34
312.085	63.49
312.299	90.11
312.513	4.1
312.727	18.43
312.941	0
313.154	-12.29
313.368	-8.19
313.582	32.77
313.796	6.14
314.009	40.96
314.223	83.97
314.437	24.58
314.651	49.15
314.864	2.05
315.078	49.15
315.292	32.77
315.505	28.67
315.719	94.21
315.933	45.06
316.146	18.43
316.36	49.15
316.573	30.72
316.787	40.96
317.001	34.82
317.214	55.3
317.428	32.77
317.641	18.43
317.855	8.19
318.068	-43.01
318.282	-12.29
318.495	59.39
318.709	53.25
318.922	90.11
319.136	75.77
319.349	81.92
319.563	40.96
319.776	40.96
319.99	26.62
320.203	-4.1
320.417	-16.38
320.63	94.21
320.843	98.3
321.057	14.34
321.27	81.92
321.483	-2.05
321.697	65.53
321.91	47.1
322.124	47.1
322.337	24.58
322.55	-8.19
322.763	73.73
322.977	4.1
323.19	2.05
323.403	4.1
323.617	40.96
323.83	24.58
324.043	32.77
324.256	49.15
324.469	-55.3
324.683	-8.19
324.896	-2.05
325.109	38.91
325.322	-24.58
325.535	59.39
325.748	59.39
325.962	40.96
326.175	30.72
326.388	69.63
326.601	75.77
326.814	20.48
327.027	0
327.24	36.86
327.453	49.15
327.666	6.14
327.879	40.96
328.092	100.35
328.305	77.82
328.518	16.38
328.731	-24.58
328.944	40.96
329.157	65.53
329.37	67.58
329.583	51.2
329.796	16.38
330.009	28.67
330.222	8.19
330.435	49.15
330.648	-16.38
330.861	-16.38
331.073	-71.68
331.286	-12.29
331.499	2.05
331.712	-32.77
331.925	8.19
332.138	8.19
332.35	16.38
332.563	18.43
332.776	81.92
332.989	77.82
333.202	36.86
333.414	59.39
333.627	51.2
333.84	28.67
334.053	36.86
334.265	-26.62
334.478	77.82
334.691	-10.24
334.903	12.29
335.116	10.24
335.329	32.77
335.541	98.3
335.754	122.88
335.966	32.77
336.179	57.34
336.392	0
336.604	-38.91
336.817	32.77
337.029	49.15
337.242	100.35
337.454	36.86
337.667	36.86
337.88	112.64
338.092	-63.49
338.305	116.73
338.517	61.44
338.729	59.39
338.942	36.86
339.154	4.1
339.367	0
339.579	90.11
339.792	-18.43
340.004	83.97
340.217	4.1
340.429	-16.38
340.641	53.25
340.854	40.96
341.066	30.72
341.278	69.63
341.491	141.31
341.703	43.01
341.915	16.38
342.128	61.44
342.34	43.01
342.552	18.43
342.764	32.77
342.977	-8.19
343.189	79.87
343.401	16.38
343.613	34.82
343.826	73.73
344.038	32.77
344.25	81.92
344.462	10.24
344.674	-77.82
344.886	24.58
345.099	36.86
345.311	-24.58
345.523	28.67
345.735	71.68
345.947	28.67
346.159	20.48
346.371	20.48
346.583	83.97
346.795	32.77
347.007	2.05
347.219	-8.19
347.431	0
347.643	86.01
347.855	30.72
348.067	88.06
348.279	-22.53
348.491	75.77
348.703	0
348.915	69.63
349.127	55.3
349.339	106.49
349.551	8.19
349.763	22.53
349.975	55.3
350.187	40.96
350.399	16.38
350.61	57.34
350.822	43.01
351.034	155.65
351.246	51.2
351.458	8.19
351.669	57.34
351.881	30.72
352.093	63.49
352.305	36.86
352.517	2.05
352.728	-16.38
352.94	22.53
353.152	24.58
353.363	-51.2
353.575	24.58
353.787	112.64
353.999	69.63
354.21	36.86
354.422	18.43
354.633	22.53
354.845	63.49
355.057	28.67
355.268	-51.2
355.48	98.3
355.692	-6.14
355.903	-22.53
356.115	24.58
356.326	-8.19
356.538	32.77
356.749	63.49
356.961	106.49
357.172	26.62
357.384	-6.14
357.595	69.63
357.807	6.14
358.018	12.29
358.23	73.73
358.441	75.77
358.653	57.34
358.864	22.53
359.075	61.44
359.287	16.38
359.498	88.06
359.709	81.92
359.921	59.39
360.132	88.06
360.344	-16.38
360.555	20.48
360.766	-4.1
360.977	49.15
361.189	16.38
361.4	-20.48
361.611	53.25
361.823	49.15
362.034	40.96
362.245	0
362.456	0
362.667	30.72
362.879	53.25
363.09	-14.34
363.301	86.01
363.512	-18.43
363.723	75.77
363.935	10.24
364.146	49.15
364.357	69.63
364.568	26.62
364.779	18.43
364.99	65.53
365.201	40.96
365.412	51.2
365.623	40.96
365.834	16.38
366.045	69.63
366.256	106.49
366.467	18.43
366.678	40.96
366.889	38.91
367.1	98.3
367.311	55.3
367.522	10.24
367.733	94.21
367.944	10.24
368.155	18.43
368.366	61.44
368.577	108.54
368.788	57.34
368.999	61.44
369.209	-36.86
369.42	-57.34
369.631	116.73
369.842	-8.19
370.053	30.72
370.264	6.14
370.474	6.14
370.685	53.25
370.896	73.73
371.107	77.82
371.317	24.58
371.528	69.63
371.739	24.58
371.95	-2.05
372.16	63.49
372.371	-40.96
372.582	-14.34
372.792	24.58
373.003	65.53
373.214	10.24
373.424	20.48
373.635	4.1
373.846	59.39
374.056	28.67
374.267	51.2
374.477	-12.29
374.688	75.77
374.898	10.24
375.109	83.97
375.319	22.53
375.53	83.97
375.74	24.58
375.951	0
376.161	34.82
376.372	59.39
376.582	-2.05
376.793	34.82
377.003	81.92
377.214	43.01
377.424	24.58
377.635	61.44
377.845	0
378.055	61.44
378.266	28.67
378.476	73.73
378.686	-8.19
378.897	20.48
379.107	108.54
379.317	24.58
379.528	59.39
379.738	0
379.948	10.24
380.158	24.58
380.369	12.29
380.579	2.05
380.789	135.17
380.999	20.48
381.21	94.21
381.42	90.11
381.63	18.43
381.84	16.38
382.05	36.86
382.261	28.67
382.471	20.48
382.681	32.77
382.891	26.62
383.101	63.49
383.311	45.06
383.521	24.58
383.731	79.87
383.941	124.93
384.151	73.73
384.361	45.06
384.571	26.62
384.781	69.63
384.991	98.3
385.201	24.58
385.411	49.15
385.621	43.01
385.831	2.05
386.041	59.39
386.251	45.06
386.461	110.59
386.671	-65.54
386.881	0
387.091	32.77
387.301	47.1
387.511	34.82
387.72	155.65
387.93	45.06
388.14	8.19
388.35	36.86
388.56	-12.29
388.769	79.87
388.979	18.43
389.189	34.82
389.399	-28.67
389.609	65.53
389.818	73.73
390.028	51.2
390.238	10.24
390.447	24.58
390.657	43.01
390.867	102.4
391.076	20.48
391.286	36.86
391.496	106.49
391.705	36.86
391.915	98.3
392.125	59.39
392.334	40.96
392.544	45.06
392.753	114.69
392.963	65.53
393.172	90.11
393.382	49.15
393.591	151.55
393.801	22.53
394.01	34.82
394.22	40.96
394.429	55.3
394.639	86.01
394.848	155.65
395.058	88.06
395.267	49.15
395.477	116.73
395.686	110.59
395.895	2.05
396.105	110.59
396.314	65.53
396.524	102.4
396.733	28.67
396.942	73.73
397.152	122.88
397.361	79.87
397.57	81.92
397.78	184.32
397.989	147.45
398.198	180.22
398.407	96.25
398.617	69.63
398.826	143.36
399.035	79.87
399.244	0
399.453	49.15
399.663	94.21
399.872	83.97
400.081	102.4
400.29	110.59
400.499	172.03
400.708	106.49
400.917	40.96
401.127	81.92
401.336	71.68
401.545	155.65
401.754	129.02
401.963	57.34
402.172	32.77
402.381	73.73
402.59	106.49
402.799	137.21
403.008	57.34
403.217	65.53
403.426	141.31
403.635	157.69
403.844	55.3
404.053	129.02
404.262	94.21
404.471	131.07
404.68	65.53
404.888	133.12
405.097	139.26
405.306	155.65
405.515	108.54
405.724	108.54
405.933	147.45
406.142	73.73
406.35	215.04
406.559	159.74
406.768	137.21
406.977	163.84
407.185	292.86
407.394	114.69
407.603	208.89
407.812	256
408.02	159.74
408.229	247.8
408.438	147.45
408.646	215.04
408.855	227.32
409.064	239.61
409.272	270.33
409.481	274.43
409.69	172.03
409.898	212.99
410.107	235.52
410.315	329.72
410.524	280.57
410.733	319.48
410.941	333.82
411.15	282.62
411.358	374.78
411.567	423.93
411.775	425.98
411.984	329.72
412.192	436.22
412.401	491.51
412.609	468.98
412.818	468.98
413.026	405.5
413.234	524.28
413.443	466.94
413.651	507.9
413.86	471.03
414.068	602.1
414.276	626.68
414.485	466.94
414.693	514.04
414.901	581.62
415.11	645.11
415.318	622.58
415.526	606.2
415.734	718.84
415.943	776.18
416.151	790.52
416.359	745.46
416.567	845.81
416.776	802.8
416.984	917.49
417.192	913.39
417.4	880.63
417.608	845.81
417.817	917.49
418.025	1015.79
418.233	1114.1
418.441	917.49
418.649	1064.94
418.857	1169.39
419.065	1216.49
419.273	1161.2
419.481	1320.94
419.689	1271.79
419.897	1392.62
420.105	1312.75
420.313	1308.65
420.521	1556.46
420.729	1495.02
420.937	1576.94
421.145	1669.09
421.353	1734.63
421.561	1812.45
421.769	1767.4
421.977	1863.65
422.185	1802.21
422.393	1804.26
422.601	1976.29
422.809	2064.35
423.017	2113.5
423.224	2195.42
423.432	2320.35
423.64	2353.12
423.848	2449.37
424.056	2441.18
424.263	2746.33
424.471	2596.82
424.679	2588.63
424.887	2832.34
425.094	2867.16
425.302	2908.12
425.51	2973.65
425.718	3024.85
425.925	3045.33
426.133	3203.02
426.341	3461.07
426.548	3559.37
426.756	3542.99
426.964	3706.82
427.171	3817.41
427.379	3846.09
427.586	4030.4
427.794	3930.05
428.001	4245.44
428.209	4382.65
428.417	4358.08
428.624	4710.33
428.832	4773.82
429.039	4687.8
429.247	4564.92
429.454	4925.36
429.662	5367.73
429.869	5099.44
430.076	5496.75
430.284	5367.73
430.491	5595.05
430.699	5973.92
430.906	5892.01
431.114	5902.25
431.321	6152.1
431.528	6184.87
431.736	6664.09
431.943	7067.54
432.15	6684.57
432.358	6799.26
432.565	7200.66
432.772	7098.26
432.979	7458.7
433.187	7798.66
433.394	7802.76
433.601	8189.83
433.808	8421.25
434.016	8142.72
434.223	8456.06
434.43	8925.05
434.637	8822.65
434.844	9412.46
435.052	9559.92
435.259	9582.45
435.466	9369.46
435.673	9422.7
435.88	10006.38
436.087	10727.26
436.294	10641.25
436.501	10415.97
436.708	10612.57
436.915	10913.63
437.122	11360.08
437.329	11413.33
437.537	11632.46
437.743	12062.54
437.95	11814.73
438.157	12539.71
438.364	12756.8
438.571	12805.95
438.778	13006.65
438.985	14247.72
439.192	13520.69
439.399	14040.87
439.606	13502.26
439.813	14221.09
440.02	15236.89
440.227	15021.85
440.433	14974.75
440.64	15355.67
440.847	15300.37
441.054	15505.17
441.261	16549.64
441.467	16703.23
441.674	16662.27
441.881	17540.85
442.088	17237.75
442.294	17096.44
442.501	17676.02
442.708	18181.87
442.914	18603.75
443.121	19594.97
443.328	19060.45
443.534	20315.85
443.741	19793.62
443.948	19533.53
444.154	20739.78
444.361	20594.37
444.568	20793.03
444.774	20940.48
444.981	21085.89
445.187	21620.41
445.394	22597.29
445.6	22290.09
445.807	24469.13
446.013	23400.09
446.22	23774.87
446.426	24782.47
446.633	25028.23
446.839	25947.76
447.046	24729.22
447.252	26234.48
447.459	26095.22
447.665	25984.63
447.871	27305.57
448.078	28440.14
448.284	26814.05
448.491	27717.21
448.697	28886.6
448.903	29001.29
449.11	29480.51
449.316	28509.77
449.522	29388.35
449.728	30645.8
449.935	30201.4
450.141	30213.68
450.347	31086.12
450.553	30058.04
450.76	30613.04
450.966	31655.45
451.172	31266.34
451.378	31710.75
451.584	31370.79
451.791	32132.63
451.997	32194.07
452.203	32841.23
452.409	32628.24
452.615	32503.31
452.821	31440.42
453.027	31016.49
453.233	32699.92
453.44	31526.43
453.646	31708.7
453.852	31663.64
454.058	32679.44
454.264	31155.75
454.47	32132.63
454.676	31358.5
454.882	32482.83
455.088	29486.65
455.294	30367.28
455.5	30131.76
455.705	30998.06
455.911	29572.67
456.117	29199.94
456.323	28681.8
456.529	27319.9
456.735	28286.54
456.941	27977.3
457.147	27389.53
457.352	26513
457.558	26074.74
457.764	25972.34
457.97	25628.28
458.176	25163.39
458.381	25028.23
458.587	23697.05
458.793	24141.46
458.999	23051.94
459.204	24430.22
459.41	23774.87
459.616	21962.42
459.821	22027.95
460.027	22140.59
460.233	21755.57
460.438	20786.88
460.644	20690.63
460.85	19840.72
461.055	19646.16
461.261	19556.05
461.466	18061.04
461.672	17596.15
461.878	18910.94
462.083	17592.05
462.289	17313.53
462.494	17123.07
462.7	16314.12
462.905	15886.09
463.111	16502.53
463.316	16508.68
463.522	15976.2
463.727	16332.55
463.932	16092.94
464.138	16105.23
464.343	16029.45
464.549	15470.36
464.754	16064.27
464.959	15945.48
465.165	15679.25
465.37	15228.7
465.575	14944.03
465.781	15322.9
465.986	15417.11
466.191	14683.94
466.397	14634.78
466.602	13924.14
466.807	14399.27
467.012	14393.12
467.218	14376.74
467.423	13893.42
467.628	14110.5
467.833	14919.45
468.038	14133.03
468.244	13745.97
468.449	14456.61
468.654	13793.07
468.859	13844.27
469.064	13653.81
469.269	13090.62
469.474	13305.65
469.679	13655.86
469.885	13295.41
470.09	13469.49
470.295	13395.76
470.5	12863.29
470.705	12963.64
470.91	12451.65
471.115	12617.54
471.32	12674.88
471.525	12693.31
471.73	12461.89
471.935	12402.5
472.139	11968.33
472.344	12050.25
472.549	12150.6
472.754	11820.88
472.959	11716.43
473.164	11290.45
473.369	11194.2
473.574	11818.83
473.778	11571.02
473.983	11325.27
474.188	11282.26
474.393	10643.29
474.598	10913.63
474.802	10696.54
475.007	10852.19
475.212	10735.45
475.417	10450.78
475.621	10329.95
475.826	10385.25
476.031	10250.08
476.235	10053.48
476.44	10207.08
476.645	10139.49
476.849	10096.49
477.054	9873.26
477.259	9758.57
477.463	9551.73
477.668	9412.46
477.872	9637.74
478.077	9469.81
478.282	9109.36
478.486	9017.21
478.691	9064.31
478.895	9097.08
479.1	9047.93
479.304	9052.02
479.509	8716.16
479.713	8943.48
479.918	8699.77
480.122	8548.22
480.326	8740.73
480.531	8791.93
480.735	8400.77
480.94	8521.6
481.144	8619.9
481.348	8447.87
481.553	8331.14
481.757	8304.51
481.961	8351.62
482.166	8484.73
482.37	8308.61
482.574	8269.7
482.778	8267.65
482.983	8421.25
483.187	8388.48
483.391	8316.8
483.595	8191.87
483.8	8081.28
484.004	8384.38
484.208	8376.19
484.412	8275.84
484.616	8445.82
484.821	8234.88
485.025	8212.35
485.229	8298.37
485.433	8273.79
485.637	8198.02
485.841	8030.09
486.045	8302.47
486.249	8421.25
486.453	8091.52
486.657	8169.35
486.861	8316.8
487.065	8169.35
487.269	8093.57
487.473	8060.8
487.677	8267.65
487.881	8572.8
488.085	8253.31
488.289	8306.56
488.493	8181.64
488.697	8474.49
488.901	8214.4
489.105	8218.5
489.309	8413.06
489.512	8394.62
489.716	8390.53
489.92	8466.3
490.124	8392.58
490.328	8568.7
490.531	8503.17
490.735	8572.8
490.939	8667
491.143	8275.84
491.346	8628.09
491.55	8634.24
491.754	8527.74
491.958	8585.09
492.161	8882.04
492.365	8679.29
492.569	8552.32
492.772	8535.93
492.976	8865.66
493.18	8679.29
493.383	8877.94
493.587	9099.13
493.79	8816.51
493.994	8861.56
494.197	9027.45
494.401	9119.6
494.605	9224.05
494.808	9340.79
495.012	9336.69
495.215	9351.03
495.419	9445.23
495.622	9369.46
495.825	9545.58
496.029	9588.59
496.232	9742.19
496.436	9830.25
496.639	10004.33
496.843	9871.21
497.046	10069.86
497.249	9916.26
497.453	10100.58
497.656	10289
497.859	10346.34
498.063	10534.75
498.266	10641.25
498.469	10598.24
498.673	10786.65
498.876	10786.65
499.079	11128.66
499.282	11003.74
499.485	11190.1
499.689	11231.06
499.892	11407.19
500.095	11421.52
500.298	11683.66
500.501	11521.87
500.705	11951.95
500.908	12027.72
501.111	12293.96
501.314	12226.37
501.517	12363.59
501.72	12638.02
501.923	12572.48
502.126	12887.87
502.329	13078.33
502.532	13002.55
502.735	13240.12
502.938	13371.19
503.141	13459.25
503.344	13795.12
503.547	13680.43
503.75	13776.69
503.953	14036.78
504.156	14401.32
504.359	14536.48
504.562	14352.16
504.765	14634.78
504.968	14804.77
505.17	14958.36
505.373	15091.48
505.576	15564.56
505.779	15298.33
505.982	15437.59
506.185	15605.52
506.387	15691.54
506.59	15914.77
506.793	16344.84
506.996	16094.99
507.198	16682.75
507.401	16539.4
507.604	16932.61
507.807	17299.19
508.009	17155.83
508.212	17262.33
508.415	17481.46
508.617	17682.16
508.82	17952.49
509.022	17501.94
509.225	18112.24
509.428	18441.96
509.63	18439.91
509.833	18585.32
510.035	19119.84
510.238	18906.85
510.44	19341.02
510.643	19533.53
510.845	19652.31
511.048	19410.65
511.25	19668.69
511.453	20020.94
511.655	21012.16
511.858	20534.98
512.06	20397.77
512.262	20883.14
512.465	21030.59
512.667	21151.42
512.87	21384.89
513.072	21489.34
513.274	21724.85
513.477	22054.58
513.679	22156.97
513.881	22433.45
514.084	23056.03
514.286	22419.11
514.488	22632.1
514.69	23469.72
514.893	23324.32
515.095	23342.75
515.297	23717.53
515.499	23867.03
515.701	24149.65
515.904	24118.93
516.106	24456.84
516.308	24805
516.51	25128.58
516.712	25101.95
516.914	25323.13
517.116	25648.76
517.318	25800.31
517.52	26001.01
517.722	26023.54
517.925	26289.77
518.127	27037.28
518.329	26953.32
518.531	27072.1
518.733	27326.05
518.935	27620.95
519.136	27244.13
519.338	28192.34
519.54	28069.46
519.742	28434
519.944	28429.9
520.146	29081.16
520.348	29224.51
520.55	29029.96
520.752	29021.77
520.954	29611.58
521.155	29548.09
521.357	30017.08
521.559	30101.04
521.761	30156.34
521.963	30510.64
522.164	30836.27
522.366	30776.87
522.568	30811.69
522.77	31651.36
522.971	31819.29
523.173	31444.51
523.375	31807
523.576	31661.6
523.778	31987.22
523.98	32351.76
524.181	32552.46
524.383	32718.35
524.584	33062.41
524.786	32671.25
524.988	32747.02
525.189	33230.34
525.391	33056.26
525.592	33811.96
525.794	33228.29
525.995	33605.12
526.197	33703.42
526.398	34223.61
526.6	34067.96
526.801	34278.9
527.003	34379.25
527.204	34473.46
527.406	34962.92
527.607	34510.32
527.808	34899.44
528.01	34137.59
528.211	34575.86
528.412	35509.73
528.614	35220.97
528.815	35415.52
529.016	35522.02
529.218	35149.29
529.419	35814.88
529.62	35368.42
529.822	35565.03
530.023	35470.82
530.224	36060.63
530.425	35692
530.626	35239.4
530.828	35468.77
531.029	36486.61
531.23	35775.97
531.431	35810.78
531.632	36308.44
531.833	36300.25
532.035	36122.07
532.236	35999.19
532.437	36007.39
532.638	36148.7
532.839	36384.21
533.04	36359.64
533.241	35976.67
533.442	36767.18
533.643	36201.94
533.844	36171.22
534.045	36464.08
534.246	36271.57
534.447	36083.16
534.648	36593.11
534.849	36861.39
535.05	36058.59
535.251	36257.24
535.451	36337.11
535.652	36478.42
535.853	36546
536.054	36312.53
536.255	36681.17
536.456	36150.74
536.657	36613.59
536.857	36529.62
537.058	36423.12
537.259	36593.11
537.46	36333.01
537.66	36355.54
537.861	36210.14
538.062	36777.42
538.263	36654.54
538.463	36310.49
538.664	36441.56
538.865	36228.57
539.065	36615.63
539.266	36120.02
539.466	36638.16
539.667	36089.31
539.868	36638.16
540.068	36279.77
540.269	36101.59
540.469	36830.67
540.67	36115.93
540.87	36056.54
541.071	36533.71
541.271	35933.66
541.472	36459.99
541.672	35792.35
541.873	36105.69
542.073	36007.39
542.274	36564.43
542.474	36435.41
542.675	35915.23
542.875	36408.79
543.075	35952.09
543.276	35694.05
543.476	36376.02
543.676	35798.49
543.877	36189.66
544.077	36273.62
544.277	35909.08
544.478	36271.57
544.678	36287.96
544.878	35851.74
545.078	35769.82
545.279	36050.39
545.479	35694.05
545.679	36242.9
545.879	35851.74
546.079	36054.49
546.28	35782.11
546.48	35851.74
546.68	36285.91
546.88	36052.44
547.08	36027.87
547.28	36056.54
547.48	35900.89
547.68	36281.81
547.88	35984.86
548.081	36267.48
548.281	36228.57
548.481	35603.94
548.681	35853.79
548.881	35943.9
549.081	35831.26
549.28	35864.03
549.48	35628.51
549.68	35593.7
549.88	36269.53
550.08	35280.36
550.28	35786.21
550.48	35446.24
550.68	35943.9
550.88	35585.5
551.08	35739.1
551.279	35423.72
551.479	35415.52
551.679	36142.55
551.879	35554.79
552.079	35706.34
552.278	35536.35
552.478	35665.38
552.678	35556.83
552.878	35653.09
553.077	35450.34
553.277	35280.36
553.477	35864.03
553.676	35196.39
553.876	35519.97
554.076	35223.01
554.275	35165.67
554.475	35345.89
554.674	35466.72
554.874	35220.97
555.074	35409.38
555.273	35339.75
555.473	35231.21
555.672	34858.48
555.872	35352.04
556.071	35044.84
556.271	35241.45
556.47	34868.72
556.67	34592.24
556.869	35198.44
557.068	35364.32
557.268	34864.62
557.467	34690.54
557.667	34897.39
557.866	34913.77
558.065	34567.66
558.265	34344.44
558.464	34485.75
558.663	34762.22
558.863	34612.72
559.062	34835.95
559.261	34633.2
559.461	34887.15
559.66	34024.95
559.859	34371.06
560.058	34518.51
560.258	34385.4
560.457	34332.15
560.656	34295.28
560.855	34201.08
561.054	34502.13
561.253	33893.88
561.453	34070.01
561.652	34260.47
561.851	34483.7
562.05	33967.61
562.249	33801.72
562.448	33914.36
562.647	33902.07
562.846	33777.15
563.045	34035.19
563.244	33803.77
563.443	33611.26
563.642	33256.96
563.841	33859.07
564.04	33359.36
564.239	33656.32
564.438	33451.52
564.637	33390.08
564.836	33650.17
565.035	33244.68
565.234	33562.11
565.432	32900.62
565.631	33209.86
565.83	32949.77
566.029	32923.15
566.228	32857.61
566.427	32681.49
566.625	32536.08
566.824	32081.43
567.023	32773.64
567.222	32458.26
567.42	32853.51
567.619	32552.46
567.818	32437.78
568.016	32460.3
568.215	32417.3
568.414	32235.03
568.612	32591.37
568.811	32235.03
569.01	32405.01
569.208	32009.75
569.407	31862.3
569.605	31700.51
569.804	31659.55
570.002	31553.05
570.201	31833.63
570.4	31680.03
570.598	31370.79
570.797	31585.82
570.995	31403.55
571.193	31252
571.392	31626.78
571.59	30903.85
571.789	31272.48
571.987	31397.41
572.186	31196.71
572.384	30955.05
572.582	30754.35
572.781	31096.36
572.979	30363.18
573.177	30576.17
573.376	31014.44
573.574	30354.99
573.772	30381.62
573.971	30484.01
574.169	30125.62
574.367	29849.14
574.565	30412.34
574.763	30211.63
574.962	30033.46
575.16	29980.21
575.358	30002.74
575.556	29474.37
575.754	29904.44
575.952	29724.22
576.151	29732.41
576.349	29320.77
576.547	29310.53
576.745	29779.51
576.943	29523.52
577.141	29580.86
577.339	29316.67
577.537	29369.92
577.735	29294.15
577.933	28929.61
578.131	29173.31
578.329	28890.7
578.527	28450.38
578.725	28737.1
578.923	29058.63
579.121	28726.86
579.319	28552.78
579.516	28587.6
579.714	28704.33
579.912	28339.79
580.11	28517.96
580.308	28487.25
580.506	28292.69
580.704	27891.29
580.901	28384.85
581.099	28440.14
581.297	27852.38
581.495	27803.22
581.692	27815.51
581.89	27514.46
582.088	28032.6
582.285	27850.33
582.483	27559.52
582.681	27487.84
582.878	27594.33
583.076	27405.92
583.274	27188.83
583.471	26945.12
583.669	27258.46
583.866	26920.55
584.064	27000.42
584.262	26478.19
584.459	26820.2
584.657	26893.93
584.854	26914.41
585.052	26654.31
585.249	26652.27
585.447	26455.66
585.644	26310.25
585.841	26297.97
586.039	26363.5
586.236	26109.55
586.434	26355.31
586.631	26058.35
586.828	26273.39
587.026	26287.73
587.223	26123.89
587.42	25841.27
587.618	25798.26
587.815	25724.54
588.012	25486.97
588.21	25656.95
588.407	25933.43
588.604	25153.15
588.801	25175.68
588.999	25097.86
589.196	25257.6
589.393	25200.26
589.59	24870.53
589.787	25185.92
589.984	24643.21
590.182	24673.93
590.379	25331.33
590.576	24731.27
590.773	24721.03
590.97	24419.98
591.167	24884.87
591.364	24389.26
591.561	24364.68
591.758	24510.09
591.955	24219.28
592.152	24436.36
592.349	23864.98
592.546	24090.26
592.743	24135.31
592.94	23518.87
593.137	23768.73
593.334	23725.72
593.531	23719.57
593.727	23887.51
593.924	23717.53
594.121	23758.49
594.318	23559.83
594.515	23205.53
594.712	23494.3
594.908	23170.72
595.105	23395.99
595.302	23236.25
595.499	23176.86
595.696	23115.42
595.892	22972.07
596.089	23246.49
596.286	23058.08
596.482	22920.87
596.679	22847.14
596.876	22652.58
597.072	22537.9
597.269	22814.37
597.466	22400.68
597.662	22189.74
597.859	22496.94
598.055	21982.9
598.252	22353.58
598.448	21939.89
598.645	21907.12
598.841	21915.31
599.038	21915.31
599.234	22036.14
599.431	21866.16
599.627	21778.1
599.824	21780.15
600.02	21597.88
600.217	21896.88
600.413	21249.72
600.609	21751.48
600.806	21513.91
601.002	21698.23
601.198	21458.62
601.395	21221.05
601.591	21079.74
601.787	21182.14
601.984	21034.69
602.18	21139.13
602.376	20725.44
602.572	20754.12
602.769	20657.86
602.965	20635.33
603.161	20487.88
603.357	20387.53
603.553	20195.02
603.75	20565.7
603.946	20235.98
604.142	20584.13
604.338	20049.61
604.534	20420.3
604.73	20305.61
604.926	20129.48
605.122	20115.15
605.318	20152.01
605.514	20004.56
605.71	19672.79
605.906	19801.81
606.102	19801.81
606.298	19816.15
606.494	19824.34
606.69	19826.39
606.886	19836.63
607.082	19451.61
607.278	19451.61
607.474	19365.59
607.67	19705.56
607.866	19371.74
608.062	19773.14
608.257	19347.16
608.453	19488.47
608.649	19148.51
608.845	19021.53
609.041	19177.18
609.236	19035.87
609.432	19164.89
609.628	19113.69
609.824	19119.84
610.019	18935.52
610.215	18779.87
610.411	18900.7
610.606	18919.14
610.802	18900.7
610.998	18618.08
611.193	18640.61
611.389	18448.1
611.584	18714.34
611.78	18558.69
611.976	18689.76
612.171	18591.46
612.367	18444.01
612.562	18398.95
612.758	18300.65
612.953	18407.14
613.149	18646.76
613.344	18251.5
613.539	18474.73
613.735	18183.91
613.93	18255.59
614.126	18310.89
614.321	18476.77
614.517	17891.06
614.712	18075.37
614.907	18065.13
615.103	18206.44
615.298	18046.7
615.493	18292.46
615.688	17786.61
615.884	18161.39
616.079	17757.94
616.274	18161.39
616.47	17776.37
616.665	17821.42
616.86	17768.18
617.055	17747.7
617.25	17743.6
617.445	17952.49
617.641	17338.1
617.836	17299.19
618.031	17434.36
618.226	17426.17
618.421	17325.82
618.616	17485.56
618.811	17315.58
619.006	17231.61
619.201	17000.19
619.396	16987.9
619.591	16901.89
619.786	17080.06
619.981	16776.96
620.176	16795.39
620.371	16570.12
620.566	16828.16
620.761	16580.35
620.956	16731.9
621.151	16322.31
621.346	16463.62
621.541	16119.56
621.735	16408.33
621.93	15998.73
622.125	16207.62
622.32	15961.87
622.515	16244.49
622.709	16041.74
622.904	15861.52
623.099	15963.92
623.294	15675.15
623.488	15738.64
623.683	15785.74
623.878	15318.81
624.072	15499.03
624.267	15314.71
624.462	15238.94
624.656	15146.78
624.851	14968.6
625.046	14835.49
625.24	14712.61
625.435	14759.71
625.629	14772
625.824	14692.13
626.018	14509.86
626.213	14270.25
626.407	14325.54
626.602	14149.42
626.796	14497.57
626.991	14059.31
627.185	14004.01
627.38	14036.78
627.574	13924.14
627.768	14038.83
627.963	13700.91
628.157	13569.84
628.352	13690.67
628.546	13360.95
628.74	13297.46
628.935	13428.53
629.129	13324.08
629.323	13215.54
629.517	13186.87
629.712	13168.44
629.906	12916.54
630.1	13072.18
630.294	13141.82
630.489	12896.06
630.683	12943.16
630.877	12683.07
631.071	12717.89
631.265	12685.12
631.459	12429.12
631.653	12343.11
631.848	12429.12
632.042	12541.76
632.236	12595.01
632.43	11943.75
632.624	12263.24
632.818	12015.43
633.012	12025.67
633.206	11953.99
633.4	12001.1
633.594	11734.86
633.788	11771.72
633.982	11583.31
634.176	11937.61
634.369	11384.66
634.563	11607.89
634.757	11380.56
634.951	11616.08
635.145	11380.56
635.339	11181.91
635.533	11173.72
635.726	11427.67
635.92	11126.61
636.114	11069.27
636.308	11151.19
636.501	10858.33
636.695	10966.87
636.889	10854.23
637.083	10788.7
637.276	10727.26
637.47	10608.48
637.664	10553.18
637.857	10825.56
638.051	10284.9
638.244	10403.68
638.438	10327.91
638.632	10442.59
638.825	10231.65
639.019	10151.78
639.212	10268.52
639.406	10194.79
639.599	10219.36
639.793	10125.16
639.986	10049.38
640.18	9940.84
640.373	9762.67
640.567	9623.41
640.76	10020.71
640.954	9701.23
641.147	9764.72
641.34	9697.13
641.534	9779.05
641.727	9568.11
641.92	9529.2
642.114	9398.13
642.307	9265.01
642.5	9377.65
642.694	9086.84
642.887	9316.21
643.08	9314.16
643.273	9256.82
643.467	9138.04
643.66	8945.53
643.853	9068.41
644.046	8945.53
644.239	8923
644.432	8716.16
644.626	8759.16
644.819	8646.52
645.012	8935.29
645.205	8769.4
645.398	8771.45
645.591	8724.35
645.784	8546.17
645.977	8517.5
646.17	8593.28
646.363	8519.55
646.556	8533.89
646.749	8351.62
646.942	8275.84
647.135	8339.33
647.328	8187.78
647.521	8193.92
647.714	8161.16
647.907	7962.5
648.099	7997.32
648.292	8206.21
648.485	7866.25
648.678	7817.1
648.871	7831.43
649.064	7806.86
649.256	7718.79
649.449	7927.69
649.642	7573.39
649.835	7776.14
650.027	7554.96
650.22	7733.13
650.413	7470.99
650.605	7671.69
650.798	7448.46
650.991	7227.28
651.183	7526.29
651.376	7376.78
651.568	7305.1
651.761	7339.92
651.954	7286.67
652.146	7290.77
652.339	7178.13
652.531	7114.64
652.724	6987.67
652.916	7053.2
653.109	6940.57
653.301	6823.83
653.494	6850.46
653.686	6842.26
653.879	7008.15
654.071	6750.1
654.263	6815.64
654.456	6987.67
654.648	6754.2
654.84	6694.81
655.033	6565.79
655.225	6631.32
655.417	6473.63
655.61	6733.72
655.802	6588.32
655.994	6475.68
656.186	6563.74
656.379	6334.37
656.571	6367.13
656.763	6391.71
656.955	6205.35
657.148	6406.05
657.34	6258.59
657.532	6213.54
657.724	6119.33
657.916	6164.39
658.108	6121.38
658.3	6143.91
658.492	6201.25
658.684	5930.92
658.876	5957.54
659.068	5885.86
659.26	5826.47
659.452	5971.88
659.644	5908.39
659.836	5879.72
660.028	5844.9
660.22	5662.63
660.412	5883.81
660.604	5613.48
660.796	5709.74
660.988	5633.96
661.18	5572.52
661.372	5728.17
661.563	5691.31
661.755	5670.83
661.947	5488.56
662.139	5441.45
662.331	5357.49
662.522	5472.17
662.714	5281.71
662.906	5357.49
663.097	5310.38
663.289	5334.96
663.481	5193.65
663.673	5273.52
663.864	5201.84
664.056	5242.8
664.247	5160.88
664.439	5160.88
664.631	5007.28
664.822	5128.11
665.014	5048.24
665.205	5128.11
665.397	4982.71
665.588	5064.63
665.78	4997.04
665.971	5031.86
666.163	4964.28
666.354	4972.47
666.546	4863.93
666.737	4956.08
666.929	4890.55
667.12	4745.14
667.311	4843.45
667.503	4693.94
667.694	4900.79
667.885	4759.48
668.077	4657.08
668.268	4566.97
668.459	4669.37
668.651	4507.58
668.842	4607.93
669.033	4546.49
669.224	4564.92
669.416	4544.44
669.607	4548.54
669.798	4573.11
669.989	4650.94
670.18	4628.41
670.371	4591.55
670.563	4368.32
670.754	4497.34
670.945	4448.19
671.136	4288.45
671.327	4394.94
671.518	4276.16
671.709	4394.94
671.9	4376.51
672.091	4431.8
672.282	4272.06
672.473	4310.97
672.664	4188.1
672.855	4198.34
673.046	4304.83
673.237	4251.58
673.428	4337.6
673.619	4087.75
673.809	4153.28
674	4194.24
674.191	4218.82
674.382	4161.47
674.573	4251.58
674.764	4220.86
674.954	4026.31
675.145	3973.06
675.336	4030.4
675.527	4085.7
675.717	4179.9
675.908	4014.02
676.099	3928
676.289	3985.35
676.48	3928
676.671	3901.38
676.861	3891.14
677.052	3919.81
677.243	3944.39
677.433	3856.33
677.624	3962.82
677.814	3860.42
678.005	3848.13
678.195	3870.66
678.386	3760.07
678.576	3903.43
678.767	3674.06
678.957	3846.09
679.148	3858.37
679.338	3833.8
679.529	3858.37
679.719	3817.41
679.909	3796.93
680.1	3841.99
680.29	3743.69
680.481	3768.26
680.671	3721.16
680.861	3704.78
681.052	3825.61
681.242	3739.59
681.432	3665.86
681.622	3696.58
681.813	3676.1
682.003	3571.66
682.193	3647.43
682.383	3801.03
682.573	3522.51
682.764	3551.18
682.954	3569.61
683.144	3581.9
683.334	3729.35
683.524	3551.18
683.714	3620.81
683.904	3516.36
684.094	3465.16
684.284	3502.03
684.474	3637.19
684.664	3518.41
684.854	3626.95
685.044	3440.59
685.234	3549.13
685.424	3364.81
685.614	3428.3
685.804	3514.31
685.994	3409.87
686.184	3411.92
686.374	3332.05
686.564	3418.06
686.753	3401.68
686.943	3305.42
687.133	3356.62
687.323	3223.5
687.513	3391.44
687.702	3219.41
687.892	3321.81
688.082	3270.61
688.272	3272.65
688.461	3401.68
688.651	3276.75
688.841	3074
689.03	3180.5
689.22	3219.41
689.41	3221.45
689.599	3129.3
689.789	3162.06
689.979	3080.14
690.168	3200.98
690.358	3182.54
690.547	3014.61
690.737	3114.96
690.926	3143.63
691.116	3117.01
691.305	3065.81
691.495	2973.65
691.684	3022.8
691.874	2996.18
692.063	3006.42
692.252	3067.86
692.442	3010.51
692.631	2891.73
692.82	2998.23
693.01	3006.42
693.199	2877.4
693.388	2848.72
693.578	2844.63
693.767	2836.44
693.956	2744.28
694.146	2785.24
694.335	2820.05
694.524	2877.4
694.713	2854.87
694.902	2818
695.092	2805.72
695.281	2719.7
695.47	2588.63
695.659	2738.13
695.848	2762.71
696.037	2799.57
696.226	2805.72
696.415	2648.02
696.604	2738.13
696.793	2705.37
696.982	2670.55
697.171	2752.47
697.36	2725.85
697.549	2557.91
697.738	2619.35
697.927	2566.1
698.116	2635.74
698.305	2691.03
698.494	2576.34
698.683	2629.59
698.872	2678.74
699.061	2654.17
699.25	2564.06
699.438	2576.34
699.627	2645.98
699.816	2670.55
700.005	2576.34
700.193	2516.95
700.382	2680.79
700.571	2510.81
700.76	2488.28
700.948	2543.58
701.137	2441.18
701.326	2551.77
701.514	2527.19
701.703	2439.13
701.892	2525.15
702.08	2615.26
702.269	2533.34
702.457	2533.34
702.646	2486.23
702.834	2598.87
703.023	2596.82
703.212	2506.71
703.4	2482.14
703.589	2512.86
703.777	2482.14
703.965	2486.23
704.154	2486.23
704.342	2359.26
704.531	2523.1
704.719	2480.09
704.907	2410.46
705.096	2377.69
705.284	2418.65
705.472	2383.84
705.661	2430.94
705.849	2463.71
706.037	2496.47
706.226	2392.03
706.414	2494.43
706.602	2293.72
706.79	2541.53
706.979	2326.49
707.167	2449.37
707.355	2340.83
707.543	2371.55
707.731	2402.27
707.919	2379.74
708.107	2455.51
708.296	2326.49
708.484	2359.26
708.672	2379.74
708.86	2306.01
709.048	2392.03
709.236	2377.69
709.424	2482.14
709.612	2471.9
709.8	2326.49
709.988	2263.01
710.176	2328.54
710.364	2453.47
710.551	2310.11
710.739	2191.33
710.927	2222.05
711.115	2328.54
711.303	2361.31
711.491	2426.84
711.679	2295.77
711.866	2328.54
712.054	2320.35
712.242	2340.83
712.43	2396.12
712.617	2293.72
712.805	2383.84
712.993	2355.16
713.181	2346.97
713.368	2330.59
713.556	2238.43
713.744	2361.31
713.931	2371.55
714.119	2254.81
714.306	2244.57
714.494	2400.22
714.682	2205.66
714.869	2217.95
715.057	2283.49
715.244	2244.57
715.432	2252.77
715.619	2293.72
715.807	2201.57
715.994	2181.09
716.182	2269.15
716.369	2359.26
716.556	2279.39
716.744	2310.11
716.931	2285.53
717.119	2129.89
717.306	2138.08
717.493	2107.36
717.681	2252.77
717.868	2277.34
718.055	2205.66
718.242	2342.88
718.43	2105.31
718.617	2199.52
718.804	2123.74
718.991	2271.2
719.179	2336.73
719.366	2318.3
719.553	2189.28
719.74	2303.96
719.927	2140.13
720.114	2066.4
720.301	2232.29
720.488	2283.49
720.676	2078.69
720.863	2283.49
721.05	2199.52
721.237	2179.04
721.424	2113.5
721.611	2185.18
721.798	2220
721.985	2281.44
722.172	2250.72
722.358	2203.61
722.545	2371.55
722.732	2097.12
722.919	2244.57
723.106	2158.56
723.293	2121.7
723.48	2260.96
723.667	2244.57
723.853	2187.23
724.04	2269.15
724.227	2244.57
724.414	2205.66
724.6	2217.95
724.787	2269.15
724.974	2271.2
725.161	2252.77
725.347	2195.42
725.534	2181.09
725.72	2176.99
725.907	2140.13
726.094	2133.98
726.28	2193.37
726.467	2097.12
726.653	2226.14
726.84	2211.81
727.027	2162.65
727.213	2058.21
727.4	2176.99
727.586	2170.85
727.773	2105.31
727.959	2136.03
728.145	2228.19
728.332	2142.18
728.518	2070.5
728.705	2238.43
728.891	2101.22
729.077	2283.49
729.264	2244.57
729.45	2119.65
729.636	2111.46
729.823	2095.07
730.009	2195.42
730.195	2260.96
730.382	2101.22
730.568	2152.42
730.754	2181.09
730.94	2070.5
731.126	2205.66
731.313	2224.09
731.499	2109.41
731.685	2097.12
731.871	2099.17
732.057	2240.48
732.243	2183.13
732.429	2160.61
732.615	2154.46
732.801	2158.56
732.987	2123.74
733.173	2185.18
733.359	2113.5
733.545	2031.58
733.731	2156.51
733.917	2146.27
734.103	2199.52
734.289	2099.17
734.475	2107.36
734.661	2193.37
734.847	2189.28
735.033	2101.22
735.219	2129.89
735.404	2080.74
735.59	2078.69
735.776	1982.43
735.962	2127.84
736.148	2084.83
736.333	2031.58
736.519	2013.15
736.705	2021.35
736.89	2039.78
737.076	2076.64
737.262	1961.95
737.447	2047.97
737.633	1937.38
737.819	2131.94
738.004	2127.84
738.19	2066.4
738.375	2033.63
738.561	2125.79
738.747	2015.2
738.932	1961.95
739.118	2127.84
739.303	1916.9
739.489	2103.26
739.674	1996.77
739.859	2035.68
740.045	1978.34
740.23	2047.97
740.416	1947.62
740.601	1947.62
740.786	2039.78
740.972	1990.63
741.157	1910.75
741.342	2015.2
741.528	1880.04
741.713	1957.86
741.898	1990.63
742.084	1980.39
742.269	1863.65
742.454	1871.84
742.639	1834.98
742.824	1943.52
743.01	1867.75
743.195	1916.9
743.38	1918.95
743.565	1896.42
743.75	1869.8
743.935	1941.47
744.12	1923.04
744.305	1777.64
744.49	1880.04
744.675	1763.3
744.86	1837.03
745.045	1875.94
745.23	1761.25
745.415	1765.35
745.6	1769.44
745.785	1708.01
745.97	1834.98
746.155	1843.17
746.34	1744.87
746.525	1720.29
746.71	1689.57
746.895	1699.81
747.079	1708.01
747.264	1675.24
747.449	1757.16
747.634	1697.77
747.819	1662.95
748.003	1642.47
748.188	1593.32
748.373	1679.33
748.557	1685.48
748.742	1589.22
748.927	1705.96
749.111	1671.14
749.296	1535.98
749.481	1533.93
749.665	1589.22
749.85	1501.16
750.034	1482.73
750.219	1454.06
750.404	1556.46
750.588	1552.36
750.773	1544.17
750.957	1490.92
751.141	1621.99
751.326	1576.94
751.51	1452.01
751.695	1421.29
751.879	1441.77
752.064	1505.26
752.248	1490.92
752.432	1409
752.617	1474.54
752.801	1413.1
752.985	1351.66
753.17	1398.76
753.354	1359.85
753.538	1386.47
753.722	1253.36
753.907	1261.55
754.091	1318.89
754.275	1429.48
754.459	1376.23
754.643	1343.47
754.828	1300.46
755.012	1277.93
755.196	1179.63
755.38	1337.32
755.564	1282.03
755.748	1230.83
755.932	1175.53
756.116	1257.45
756.3	1196.01
756.484	1286.12
756.668	1191.92
756.852	1155.05
757.036	1163.25
757.22	1228.78
757.404	1146.86
757.588	1138.67
757.772	1200.11
757.956	1185.77
758.14	1228.78
758.323	980.98
758.507	1163.25
758.691	1122.29
758.875	1228.78
759.059	1114.1
759.242	1083.38
759.426	1064.94
759.61	1118.19
759.794	1140.72
759.977	1126.38
760.161	1105.9
760.345	1130.48
760.528	1081.33
760.712	1032.18
760.895	1161.2
761.079	960.5
761.263	995.31
761.446	944.11
761.63	1032.18
761.813	1093.62
761.997	962.55
762.18	921.59
762.364	970.74
762.547	901.11
762.731	968.69
762.914	956.4
763.098	909.3
763.281	966.64
763.464	1015.79
763.648	968.69
763.831	1054.7
764.015	962.55
764.198	1017.84
764.381	911.35
764.564	980.98
764.748	976.88
764.931	942.07
765.114	876.53
765.297	956.4
765.481	952.31
765.664	946.16
765.847	909.3
766.03	1034.22
766.213	901.11
766.397	901.11
766.58	794.61
766.763	860.15
766.946	815.09
767.129	854
767.312	804.85
767.495	843.76
767.678	745.46
767.861	833.52
768.044	860.15
768.227	835.57
768.41	884.72
768.593	774.13
768.776	780.28
768.959	827.38
769.142	827.38
769.324	802.8
769.507	794.61
769.69	796.66
769.873	761.84
770.056	823.28
770.239	761.84
770.421	786.42
770.604	798.71
770.787	802.8
770.97	870.39
771.152	794.61
771.335	761.84
771.518	688.12
771.7	802.8
771.883	684.02
772.066	714.74
772.248	778.23
772.431	745.46
772.613	749.56
772.796	720.88
772.978	696.31
773.161	714.74
773.343	645.11
773.526	733.17
773.708	720.88
773.891	581.62
774.073	681.97
774.256	655.35
774.438	714.74
774.621	716.79
774.803	729.08
774.985	651.25
775.168	634.87
775.35	653.3
775.532	657.4
775.715	638.97
775.897	729.08
776.079	600.05
776.261	622.58
776.444	720.88
776.626	663.54
776.808	565.24
776.99	565.24
777.173	614.39
777.355	595.96
777.537	593.91
777.719	548.86
777.901	585.72
778.083	602.1
778.265	468.98
778.447	604.15
778.629	548.86
778.811	575.48
778.993	530.42
779.175	591.86
779.357	548.86
779.539	557.05
779.721	542.71
779.903	561.14
780.085	569.34
780.267	632.82
780.449	528.38
780.631	532.47
780.812	573.43
780.994	550.9
781.176	567.29
781.358	487.42
781.54	452.6
781.721	573.43
781.903	534.52
782.085	409.59
782.267	524.28
782.448	493.56
782.63	509.94
782.812	483.32
782.993	489.46
783.175	421.88
783.357	450.55
783.538	499.7
783.72	421.88
783.901	468.98
784.083	395.26
784.264	466.94
784.446	401.4
784.627	380.92
784.809	434.17
784.99	417.79
785.172	460.79
785.353	440.31
785.535	385.02
785.716	342.01
785.897	409.59
786.079	387.07
786.26	409.59
786.441	407.55
786.623	362.49
786.804	309.24
786.985	364.54
787.167	475.13
787.348	325.63
787.529	372.73
787.71	456.7
787.891	315.39
788.073	368.63
788.254	380.92
788.435	419.83
788.616	260.09
788.797	368.63
788.978	268.28
789.159	450.55
789.34	313.34
789.522	360.44
789.703	372.73
789.884	327.67
790.065	409.59
790.246	364.54
790.427	305.15
790.607	327.67
790.788	395.26
790.969	352.25
791.15	292.86
791.331	294.91
791.512	411.64
791.693	286.72
791.874	378.87
792.054	315.39
792.235	307.2
792.416	296.96
792.597	327.67
792.778	331.77
792.958	411.64
793.139	290.81
793.32	235.52
793.5	311.29
793.681	323.58
793.862	311.29
794.042	217.08
794.223	243.71
794.404	229.37
794.584	229.37
794.765	305.15
794.945	198.65
795.126	327.67
795.306	258.04
795.487	323.58
795.667	182.27
795.848	245.76
796.028	301.05
796.209	174.08
796.389	288.76
796.57	276.48
796.75	305.15
796.93	176.13
797.111	229.37
797.291	360.44
797.471	264.19
797.652	221.18
797.832	239.61
798.012	286.72
798.192	210.94
798.373	188.41
798.553	212.99
798.733	223.23
798.913	163.84
799.093	229.37
799.274	155.65
799.454	305.15
799.634	249.85
799.814	307.2
799.994	280.57
800.174	249.85
800.354	200.7
800.534	188.41
800.714	282.62
800.894	118.78
801.074	172.03
801.254	215.04
801.434	266.24
801.614	206.84
801.794	176.13
801.974	655.35
802.154	169.98
802.334	241.66
802.514	129.02
802.693	276.48
802.873	223.23
803.053	190.46
803.233	212.99
803.413	198.65
803.592	139.26
803.772	200.7
803.952	116.73
804.131	206.84
804.311	196.61
804.491	208.89
804.67	163.84
804.85	147.45
805.03	210.94
805.209	231.42
805.389	122.88
805.568	172.03
805.748	141.31
805.928	120.83
806.107	196.61
806.287	200.7
806.466	114.69
806.646	196.61
806.825	188.41
807.004	188.41
807.184	176.13
807.363	278.52
807.543	92.16
807.722	155.65
807.901	180.22
808.081	204.8
808.26	102.4
808.439	165.89
808.619	147.45
808.798	182.27
808.977	145.41
809.156	215.04
809.336	94.21
809.515	126.97
809.694	133.12
809.873	143.36
810.052	178.17
810.231	192.51
810.411	163.84
810.59	159.74
810.769	157.69
810.948	131.07
811.127	73.73
811.306	114.69
811.485	96.25
811.664	155.65
811.843	94.21
812.022	190.46
812.201	122.88
812.38	145.41
812.559	129.02
812.737	112.64
812.916	153.6
813.095	198.65
813.274	122.88
813.453	139.26
813.632	139.26
813.811	159.74
813.989	90.11
814.168	83.97
814.347	157.69
814.526	108.54
814.704	141.31
814.883	116.73
815.062	116.73
815.24	98.3
815.419	131.07
815.598	71.68
815.776	67.58
815.955	57.34
816.133	30.72
816.312	116.73
816.49	53.25
816.669	190.46
816.847	92.16
817.026	151.55
817.204	135.17
817.383	145.41
817.561	88.06
817.74	118.78
817.918	190.46
818.097	92.16
818.275	65.53
818.453	90.11
818.632	114.69
818.81	172.03
818.988	129.02
819.167	143.36
819.345	143.36
819.523	96.25
819.701	61.44
819.879	143.36
820.058	30.72
820.236	102.4
820.414	131.07
820.592	159.74
820.77	112.64
820.948	174.08
821.127	104.45
821.305	110.59
821.483	104.45
821.661	133.12
821.839	106.49
822.017	67.58
822.195	67.58
822.373	102.4
822.551	96.25
822.729	81.92
822.907	92.16
823.085	169.98
823.262	67.58
823.44	122.88
823.618	43.01
823.796	2.05
823.974	57.34
824.152	8.19
824.329	92.16
824.507	96.25
824.685	133.12
824.863	43.01
825.04	43.01
825.218	77.82
825.396	131.07
825.574	98.3
825.751	57.34
825.929	141.31
826.107	-4.1
826.284	88.06
826.462	65.53
826.639	92.16
826.817	81.92
826.994	77.82
827.172	98.3
827.349	143.36
827.527	120.83
827.704	45.06
827.882	116.73
828.059	90.11
828.237	65.53
828.414	73.73
828.591	49.15
828.769	102.4
828.946	96.25
829.124	65.53
829.301	169.98
829.478	81.92
829.655	98.3
829.833	92.16
830.01	51.2
830.187	133.12
830.364	67.58
830.542	61.44
830.719	73.73
830.896	139.26
831.073	83.97
831.25	92.16
831.427	124.93
831.604	69.63
831.782	92.16
831.959	24.58
832.136	79.87
832.313	114.69
832.49	0
832.667	79.87
832.844	53.25
833.021	120.83
833.198	67.58
833.374	59.39
833.551	118.78
833.728	120.83
833.905	34.82
834.082	12.29
834.259	65.53
834.436	24.58
834.612	-8.19
834.789	30.72
834.966	77.82
835.143	92.16
835.319	32.77
835.496	57.34
835.673	24.58
835.85	61.44
836.026	57.34
836.203	38.91
836.38	30.72
836.556	28.67
836.733	-18.43
836.909	147.45
837.086	2.05
837.262	-28.67
837.439	26.62
837.616	83.97
837.792	59.39
837.968	8.19
838.145	65.53
838.321	26.62
838.498	61.44
838.674	81.92
838.851	32.77
839.027	2.05
839.203	45.06
839.38	38.91
839.556	8.19
839.732	8.19
839.909	34.82
840.085	71.68
840.261	-28.67
840.437	49.15
840.614	30.72
840.79	24.58
840.966	43.01
841.142	81.92
841.318	53.25
841.494	124.93
841.671	40.96
841.847	26.62
842.023	47.1
842.199	8.19
842.375	49.15
842.551	32.77
842.727	-12.29
842.903	67.58
843.079	18.43
843.255	90.11
843.431	16.38
843.607	71.68
843.783	-16.38
843.959	90.11
844.134	-32.77
844.31	98.3
844.486	-6.14
844.662	65.53
844.838	61.44
845.013	90.11
845.189	65.53
845.365	38.91
845.541	79.87
845.716	90.11
845.892	65.53
846.068	0
846.244	16.38
846.419	32.77
846.595	24.58
846.77	86.01
846.946	77.82
847.122	75.77
847.297	47.1
847.473	65.53
847.648	12.29
847.824	69.63
847.999	-16.38
848.175	6.14
848.35	88.06
848.526	75.77
848.701	-77.82
848.876	43.01
849.052	49.15
849.227	63.49
849.403	-22.53
849.578	-4.1
849.753	49.15
849.929	49.15
850.104	-4.1
850.279	8.19
850.454	100.35
850.63	34.82
850.805	65.53
850.98	53.25
851.155	-8.19
851.33	12.29
851.505	-4.1
851.681	4.1
851.856	-38.91
852.031	49.15
852.206	0
852.381	-32.77
852.556	32.77
852.731	65.53
852.906	69.63
853.081	-8.19
853.256	81.92
853.431	53.25
853.606	53.25
853.781	8.19
853.956	-63.49
854.131	51.2
854.305	16.38
854.48	36.86
854.655	-12.29
854.83	40.96
855.005	-4.1
855.18	69.63
855.354	-47.1
855.529	86.01
855.704	94.21
855.879	8.19
856.053	2.05
856.228	-30.72
856.403	26.62
856.577	34.82
856.752	-26.62
856.926	61.44
857.101	8.19
857.276	-26.62
857.45	-18.43
857.625	104.45
857.799	100.35
857.974	151.55
858.148	-2.05
858.323	81.92
858.497	-10.24
858.672	65.53
858.846	2.05
859.02	61.44
859.195	-24.58
859.369	-8.19
859.543	65.53
859.718	59.39
859.892	67.58
860.066	10.24
860.241	65.53
860.415	106.49
860.589	28.67
860.763	-8.19
860.938	45.06
861.112	8.19
861.286	2.05
861.46	26.62
861.634	28.67
861.808	49.15
861.982	51.2
862.157	8.19
862.331	-6.14
862.505	88.06
862.679	-20.48
862.853	-12.29
863.027	-14.34
863.201	65.53
863.375	63.49
863.549	26.62
863.722	-28.67
863.896	49.15
864.07	16.38
864.244	34.82
864.418	69.63
864.592	4.1
864.766	114.69
864.939	-28.67
865.113	2.05
865.287	61.44
865.461	-16.38
865.634	67.58
865.808	32.77
865.982	49.15
866.156	18.43
866.329	-10.24
866.503	4.1
866.676	73.73
866.85	77.82
867.024	-6.14
867.197	69.63
867.371	90.11
867.544	18.43
867.718	-26.62
867.891	24.58
868.065	18.43
868.238	0
868.412	110.59
868.585	12.29
868.759	-6.14
868.932	6.14
869.105	63.49
869.279	-81.92
869.452	24.58
869.625	34.82
869.799	90.11
869.972	-24.58
870.145	16.38
870.319	20.48
870.492	49.15
870.665	-36.86
870.838	8.19
871.011	-12.29
871.185	96.25
871.358	-8.19
871.531	94.21
871.704	32.77
871.877	-8.19
872.05	53.25
872.223	22.53
872.396	32.77
872.569	75.77
872.742	-73.73
872.915	-22.53
873.088	-40.96
873.261	75.77
873.434	-4.1
873.607	-53.25
873.78	106.49
873.953	20.48
874.126	-14.34
874.299	45.06
874.471	30.72
874.644	40.96
874.817	53.25
874.99	28.67
875.163	-65.54
875.335	-8.19
875.508	-8.19
875.681	22.53
875.853	-16.38
876.026	67.58
876.199	-20.48
876.371	36.86
876.544	-47.1
876.717	28.67
876.889	-4.1
877.062	51.2
877.234	36.86
877.407	-8.19
877.579	40.96
877.752	53.25
877.924	88.06
878.097	69.63
878.269	-12.29
878.442	55.3
878.614	28.67
878.786	51.2
878.959	2.05
879.131	40.96
879.303	-36.86
879.476	32.77
879.648	51.2
879.82	-6.14
879.993	-12.29
880.165	-65.54
880.337	-40.96
880.509	-43.01
880.681	-49.15
880.854	-4.1
881.026	-8.19
881.198	61.44
881.37	-36.86
881.542	47.1
881.714	4.1
881.886	-8.19
882.058	53.25
882.23	-24.58
882.402	0
882.574	-18.43
882.746	-8.19
882.918	18.43
883.09	40.96
883.262	-30.72
883.434	34.82
883.606	-26.62
883.778	-16.38
883.95	32.77
884.122	-57.34
884.293	-28.67
884.465	-2.05
884.637	16.38
884.809	59.39
884.98	-45.06
885.152	43.01
885.324	16.38
885.496	-20.48
885.667	16.38
885.839	-16.38
886.011	24.58
886.182	-8.19
886.354	-22.53
886.525	-30.72
886.697	16.38
886.869	26.62
887.04	-28.67
887.212	6.14
887.383	45.06
887.555	45.06
887.726	6.14
887.897	-65.54
888.069	51.2
888.24	-30.72
888.412	-4.1
888.583	-32.77
888.754	-71.68
888.926	-32.77
889.097	0
889.268	-12.29
889.44	-24.58
889.611	2.05
889.782	8.19
889.953	24.58
890.125	45.06
890.296	-34.82
890.467	-36.86
890.638	18.43
890.809	20.48
890.98	79.87
891.151	43.01
891.323	16.38
891.494	-26.62
891.665	12.29
891.836	-8.19
892.007	2.05
892.178	0
892.349	55.3
892.52	-28.67
892.691	2.05
892.862	28.67
893.032	-81.92
893.203	-18.43
893.374	59.39
893.545	8.19
893.716	-8.19
893.887	-14.34
894.057	43.01
894.228	-73.73
894.399	-59.39
894.57	-18.43
894.74	16.38
894.911	51.2
895.082	-24.58
895.253	-8.19
895.423	10.24
895.594	-6.14
895.764	20.48
895.935	16.38
896.106	-30.72
896.276	-16.38
896.447	-24.58
896.617	-53.25
896.788	-55.3
896.958	-57.34
897.129	-4.1
897.299	0
897.47	-53.25
897.64	-2.05
897.81	0
897.981	49.15
898.151	-69.63
898.322	114.69
898.492	32.77
898.662	16.38
898.832	20.48
899.003	-57.34
899.173	-36.86
899.343	-30.72
899.513	-102.4
