Data from USB4F104151__34__14-16-34-391.txt Node

Date: Thu Mar 13 14:16:34 EDT 2025
User: louis
Spectrometer: USB4F10415
Trigger mode: 4
Integration Time (sec): 2.000000E-2
Scans to average: 1
Electric dark correction enabled: true
Nonlinearity correction enabled: false
Boxcar width: 0
XAxis mode: Wavelengths
Number of Pixels in Spectrum: 3648
>>>>>Begin Spectral Data<<<<<
178.204	-51.2
178.424	-51.2
178.644	-51.2
178.864	-108.54
179.084	-120.83
179.304	2.05
179.524	-10.24
179.744	38.91
179.964	18.43
180.184	-4.1
180.404	-0
180.624	14.34
180.844	14.34
181.064	-71.68
181.283	-6.14
181.503	-34.82
181.723	38.91
181.943	67.58
182.163	38.91
182.383	6.14
182.602	120.83
182.822	55.3
183.042	24.58
183.262	-49.15
183.482	51.2
183.701	14.34
183.921	26.62
184.141	-18.43
184.361	28.67
184.58	-12.29
184.8	-24.58
185.02	30.72
185.239	69.63
185.459	57.34
185.679	-2.05
185.898	-75.77
186.118	10.24
186.338	6.14
186.557	2.05
186.777	-2.05
186.997	-22.53
187.216	22.53
187.436	83.97
187.655	-18.43
187.875	38.91
188.095	40.96
188.314	30.72
188.534	108.54
188.753	30.72
188.973	73.73
189.192	129.02
189.412	106.49
189.631	-77.82
189.851	38.91
190.07	79.87
190.29	75.77
190.509	22.53
190.729	63.49
190.948	55.3
191.168	79.87
191.387	51.2
191.607	81.92
191.826	81.92
192.045	-0
192.265	65.53
192.484	22.53
192.704	-49.15
192.923	-28.67
193.142	30.72
193.362	86.01
193.581	-10.24
193.8	-24.58
194.02	22.53
194.239	-4.1
194.458	-40.96
194.678	32.77
194.897	40.96
195.116	38.91
195.335	-10.24
195.555	139.26
195.774	51.2
195.993	-34.82
196.212	32.77
196.432	6.14
196.651	49.15
196.87	79.87
197.089	129.02
197.308	-8.19
197.528	-4.1
197.747	71.68
197.966	12.29
198.185	145.41
198.404	49.15
198.623	63.49
198.842	98.3
199.062	-8.19
199.281	40.96
199.5	22.53
199.719	47.1
199.938	55.3
200.157	63.49
200.376	24.58
200.595	106.49
200.814	40.96
201.033	94.21
201.252	59.39
201.471	61.44
201.69	108.54
201.909	30.72
202.128	10.24
202.347	-61.44
202.566	26.62
202.785	-6.14
203.004	96.25
203.223	57.34
203.442	-24.58
203.661	65.53
203.879	53.25
204.098	102.4
204.317	14.34
204.536	43.01
204.755	57.34
204.974	55.3
205.193	4.1
205.411	57.34
205.63	24.58
205.849	32.77
206.068	61.44
206.287	32.77
206.505	10.24
206.724	47.1
206.943	-10.24
207.162	24.58
207.381	45.06
207.599	18.43
207.818	-0
208.037	51.2
208.255	10.24
208.474	114.69
208.693	67.58
208.911	34.82
209.13	12.29
209.349	90.11
209.567	-18.43
209.786	65.53
210.005	-34.82
210.223	40.96
210.442	22.53
210.661	38.91
210.879	67.58
211.098	6.14
211.316	83.97
211.535	22.53
211.753	38.91
211.972	32.77
212.191	67.58
212.409	-18.43
212.628	32.77
212.846	22.53
213.065	98.3
213.283	63.49
213.502	-8.19
213.72	16.38
213.938	49.15
214.157	40.96
214.375	100.35
214.594	-22.53
214.812	12.29
215.031	-8.19
215.249	-18.43
215.467	61.44
215.686	34.82
215.904	-8.19
216.122	-8.19
216.341	88.06
216.559	16.38
216.778	-8.19
216.996	-24.58
217.214	-6.14
217.432	92.16
217.651	-4.1
217.869	-16.38
218.087	67.58
218.306	51.2
218.524	61.44
218.742	40.96
218.96	-2.05
219.179	8.19
219.397	34.82
219.615	32.77
219.833	-40.96
220.051	-57.34
220.27	30.72
220.488	-0
220.706	-49.15
220.924	30.72
221.142	6.14
221.36	43.01
221.578	6.14
221.796	102.4
222.015	45.06
222.233	24.58
222.451	102.4
222.669	26.62
222.887	67.58
223.105	20.48
223.323	-4.1
223.541	-8.19
223.759	59.39
223.977	47.1
224.195	69.63
224.413	14.34
224.631	22.53
224.849	30.72
225.067	100.35
225.285	26.62
225.503	-6.14
225.721	-16.38
225.939	71.68
226.157	-24.58
226.375	122.88
226.592	16.38
226.81	22.53
227.028	49.15
227.246	-2.05
227.464	43.01
227.682	49.15
227.9	34.82
228.117	12.29
228.335	67.58
228.553	28.67
228.771	38.91
228.989	79.87
229.206	8.19
229.424	57.34
229.642	30.72
229.86	-0
230.077	-14.34
230.295	32.77
230.513	51.2
230.731	16.38
230.948	14.34
231.166	-30.72
231.384	-57.34
231.601	34.82
231.819	122.88
232.037	57.34
232.254	6.14
232.472	34.82
232.689	-26.62
232.907	57.34
233.125	-59.39
233.342	8.19
233.56	-10.24
233.777	57.34
233.995	14.34
234.213	96.25
234.43	14.34
234.648	10.24
234.865	-6.14
235.083	120.83
235.3	12.29
235.518	18.43
235.735	133.12
235.953	4.1
236.17	45.06
236.388	-28.67
236.605	-28.67
236.822	104.45
237.04	67.58
237.257	26.62
237.475	-34.82
237.692	45.06
237.909	-16.38
238.127	16.38
238.344	26.62
238.562	75.77
238.779	40.96
238.996	24.58
239.214	-14.34
239.431	10.24
239.648	-36.86
239.865	40.96
240.083	73.73
240.3	22.53
240.517	10.24
240.735	-49.15
240.952	75.77
241.169	126.97
241.386	-18.43
241.603	53.25
241.821	-10.24
242.038	116.73
242.255	34.82
242.472	-6.14
242.689	79.87
242.907	65.53
243.124	-26.62
243.341	-2.05
243.558	63.49
243.775	-10.24
243.992	16.38
244.209	32.77
244.426	65.53
244.643	26.62
244.86	28.67
245.078	-16.38
245.295	104.45
245.512	100.35
245.729	2.05
245.946	-16.38
246.163	16.38
246.38	-2.05
246.597	14.34
246.814	65.53
247.031	-2.05
247.248	36.86
247.464	-10.24
247.681	22.53
247.898	45.06
248.115	108.54
248.332	-43.01
248.549	71.68
248.766	10.24
248.983	88.06
249.2	16.38
249.417	28.67
249.633	26.62
249.85	71.68
250.067	114.69
250.284	51.2
250.501	57.34
250.717	40.96
250.934	-51.2
251.151	57.34
251.368	-10.24
251.585	102.4
251.801	32.77
252.018	32.77
252.235	92.16
252.451	-36.86
252.668	2.05
252.885	90.11
253.102	59.39
253.318	47.1
253.535	-12.29
253.752	22.53
253.968	6.14
254.185	2.05
254.401	30.72
254.618	32.77
254.835	8.19
255.051	55.3
255.268	73.73
255.484	-45.06
255.701	-4.1
255.917	-4.1
256.134	63.49
256.351	30.72
256.567	-4.1
256.784	20.48
257	-2.05
257.217	71.68
257.433	114.69
257.65	34.82
257.866	53.25
258.082	30.72
258.299	12.29
258.515	73.73
258.732	22.53
258.948	-16.38
259.165	28.67
259.381	24.58
259.597	38.91
259.814	-51.2
260.03	30.72
260.246	38.91
260.463	-20.48
260.679	6.14
260.895	92.16
261.112	49.15
261.328	16.38
261.544	28.67
261.761	129.02
261.977	-40.96
262.193	-30.72
262.409	4.1
262.626	24.58
262.842	10.24
263.058	30.72
263.274	16.38
263.49	-45.06
263.707	12.29
263.923	38.91
264.139	-24.58
264.355	63.49
264.571	34.82
264.787	-18.43
265.004	100.35
265.22	2.05
265.436	-36.86
265.652	45.06
265.868	55.3
266.084	34.82
266.3	24.58
266.516	-6.14
266.732	10.24
266.948	47.1
267.164	32.77
267.38	61.44
267.596	-0
267.812	112.64
268.028	45.06
268.244	16.38
268.46	59.39
268.676	88.06
268.892	49.15
269.108	14.34
269.324	75.77
269.54	14.34
269.756	71.68
269.972	45.06
270.188	47.1
270.403	-57.34
270.619	-2.05
270.835	67.58
271.051	106.49
271.267	-18.43
271.483	-2.05
271.698	2.05
271.914	67.58
272.13	6.14
272.346	16.38
272.562	12.29
272.777	57.34
272.993	30.72
273.209	6.14
273.425	49.15
273.64	-47.1
273.856	106.49
274.072	-16.38
274.287	22.53
274.503	-16.38
274.719	98.3
274.934	14.34
275.15	18.43
275.366	16.38
275.581	55.3
275.797	38.91
276.012	8.19
276.228	40.96
276.444	96.25
276.659	49.15
276.875	-2.05
277.09	14.34
277.306	49.15
277.521	79.87
277.737	-28.67
277.952	28.67
278.168	34.82
278.383	-4.1
278.599	-47.1
278.814	40.96
279.03	-43.01
279.245	81.92
279.461	24.58
279.676	88.06
279.892	-24.58
280.107	43.01
280.322	-32.77
280.538	38.91
280.753	22.53
280.969	38.91
281.184	10.24
281.399	28.67
281.615	98.3
281.83	18.43
282.045	-2.05
282.26	34.82
282.476	102.4
282.691	88.06
282.906	45.06
283.122	22.53
283.337	34.82
283.552	14.34
283.767	-10.24
283.983	14.34
284.198	32.77
284.413	-10.24
284.628	-0
284.843	81.92
285.058	2.05
285.274	6.14
285.489	32.77
285.704	-8.19
285.919	-38.91
286.134	38.91
286.349	38.91
286.564	86.01
286.779	22.53
286.995	30.72
287.21	-51.2
287.425	-8.19
287.64	-14.34
287.855	88.06
288.07	-6.14
288.285	38.91
288.5	79.87
288.715	55.3
288.93	47.1
289.145	14.34
289.36	45.06
289.575	22.53
289.79	65.53
290.004	47.1
290.219	14.34
290.434	-0
290.649	57.34
290.864	55.3
291.079	34.82
291.294	116.73
291.509	26.62
291.724	6.14
291.938	79.87
292.153	71.68
292.368	47.1
292.583	38.91
292.798	55.3
293.012	71.68
293.227	6.14
293.442	22.53
293.657	81.92
293.871	129.02
294.086	-10.24
294.301	71.68
294.516	36.86
294.73	43.01
294.945	51.2
295.16	10.24
295.374	20.48
295.589	26.62
295.804	55.3
296.018	63.49
296.233	65.53
296.447	38.91
296.662	-14.34
296.877	34.82
297.091	79.87
297.306	6.14
297.52	-18.43
297.735	120.83
297.949	30.72
298.164	63.49
298.378	-34.82
298.593	55.3
298.807	40.96
299.022	104.45
299.236	71.68
299.451	51.2
299.665	40.96
299.88	51.2
300.094	10.24
300.309	73.73
300.523	49.15
300.737	2.05
300.952	55.3
301.166	69.63
301.381	30.72
301.595	-8.19
301.809	63.49
302.024	26.62
302.238	-63.49
302.452	79.87
302.667	16.38
302.881	102.4
303.095	40.96
303.309	18.43
303.524	-18.43
303.738	81.92
303.952	55.3
304.166	73.73
304.381	-16.38
304.595	55.3
304.809	18.43
305.023	36.86
305.237	43.01
305.452	-16.38
305.666	2.05
305.88	98.3
306.094	65.53
306.308	34.82
306.522	71.68
306.736	67.58
306.95	49.15
307.164	30.72
307.379	28.67
307.593	73.73
307.807	-4.1
308.021	92.16
308.235	75.77
308.449	-38.91
308.663	-14.34
308.877	73.73
309.091	24.58
309.305	79.87
309.519	59.39
309.733	16.38
309.947	10.24
310.161	55.3
310.374	4.1
310.588	106.49
310.802	-0
311.016	2.05
311.23	-0
311.444	26.62
311.658	59.39
311.872	104.45
312.085	71.68
312.299	104.45
312.513	100.35
312.727	57.34
312.941	-16.38
313.154	-4.1
313.368	61.44
313.582	57.34
313.796	-20.48
314.009	24.58
314.223	49.15
314.437	57.34
314.651	51.2
314.864	79.87
315.078	4.1
315.292	18.43
315.505	28.67
315.719	67.58
315.933	61.44
316.146	24.58
316.36	22.53
316.573	-0
316.787	22.53
317.001	47.1
317.214	-2.05
317.428	8.19
317.641	26.62
317.855	51.2
318.068	22.53
318.282	57.34
318.495	110.59
318.709	51.2
318.922	73.73
319.136	141.31
319.349	-8.19
319.563	88.06
319.776	57.34
319.99	71.68
320.203	20.48
320.417	30.72
320.63	57.34
320.843	96.25
321.057	-10.24
321.27	57.34
321.483	106.49
321.697	120.83
321.91	32.77
322.124	30.72
322.337	36.86
322.55	-10.24
322.763	59.39
322.977	40.96
323.19	-0
323.403	-4.1
323.617	-8.19
323.83	55.3
324.043	34.82
324.256	-18.43
324.469	-14.34
324.683	43.01
324.896	14.34
325.109	71.68
325.322	-32.77
325.535	104.45
325.748	86.01
325.962	-2.05
326.175	20.48
326.388	30.72
326.601	63.49
326.814	77.82
327.027	24.58
327.24	71.68
327.453	4.1
327.666	90.11
327.879	49.15
328.092	49.15
328.305	71.68
328.518	-16.38
328.731	-40.96
328.944	49.15
329.157	14.34
329.37	-16.38
329.583	36.86
329.796	96.25
330.009	-6.14
330.222	-38.91
330.435	22.53
330.648	57.34
330.861	16.38
331.073	-18.43
331.286	86.01
331.499	57.34
331.712	30.72
331.925	38.91
332.138	18.43
332.35	90.11
332.563	16.38
332.776	47.1
332.989	16.38
333.202	-8.19
333.414	-26.62
333.627	36.86
333.84	-18.43
334.053	77.82
334.265	24.58
334.478	-8.19
334.691	53.25
334.903	55.3
335.116	26.62
335.329	43.01
335.541	-4.1
335.754	51.2
335.966	63.49
336.179	55.3
336.392	16.38
336.604	112.64
336.817	14.34
337.029	63.49
337.242	20.48
337.454	112.64
337.667	65.53
337.88	30.72
338.092	73.73
338.305	30.72
338.517	38.91
338.729	55.3
338.942	22.53
339.154	-24.58
339.367	8.19
339.579	71.68
339.792	-10.24
340.004	73.73
340.217	51.2
340.429	51.2
340.641	-55.3
340.854	143.36
341.066	10.24
341.278	71.68
341.491	59.39
341.703	-2.05
341.915	65.53
342.128	34.82
342.34	22.53
342.552	69.63
342.764	43.01
342.977	71.68
343.189	26.62
343.401	114.69
343.613	-30.72
343.826	14.34
344.038	-8.19
344.25	34.82
344.462	55.3
344.674	83.97
344.886	-0
345.099	40.96
345.311	43.01
345.523	69.63
345.735	-30.72
345.947	40.96
346.159	6.14
346.371	65.53
346.583	16.38
346.795	90.11
347.007	32.77
347.219	96.25
347.431	-4.1
347.643	106.49
347.855	-12.29
348.067	120.83
348.279	73.73
348.491	16.38
348.703	16.38
348.915	73.73
349.127	88.06
349.339	61.44
349.551	30.72
349.763	124.93
349.975	106.49
350.187	51.2
350.399	51.2
350.61	65.53
350.822	40.96
351.034	34.82
351.246	-30.72
351.458	-14.34
351.669	-2.05
351.881	88.06
352.093	71.68
352.305	10.24
352.517	55.3
352.728	94.21
352.94	161.79
353.152	40.96
353.363	59.39
353.575	14.34
353.787	47.1
353.999	75.77
354.21	75.77
354.422	49.15
354.633	-24.58
354.845	20.48
355.057	67.58
355.268	24.58
355.48	63.49
355.692	83.97
355.903	24.58
356.115	22.53
356.326	-2.05
356.538	100.35
356.749	-8.19
356.961	88.06
357.172	38.91
357.384	45.06
357.595	149.5
357.807	75.77
358.018	30.72
358.23	-10.24
358.441	75.77
358.653	-4.1
358.864	2.05
359.075	-47.1
359.287	88.06
359.498	57.34
359.709	2.05
359.921	8.19
360.132	26.62
360.344	6.14
360.555	-16.38
360.766	59.39
360.977	43.01
361.189	86.01
361.4	34.82
361.611	-6.14
361.823	75.77
362.034	-0
362.245	-24.58
362.456	30.72
362.667	96.25
362.879	45.06
363.09	49.15
363.301	88.06
363.512	-26.62
363.723	-10.24
363.935	55.3
364.146	16.38
364.357	14.34
364.568	63.49
364.779	59.39
364.99	96.25
365.201	16.38
365.412	22.53
365.623	43.01
365.834	38.91
366.045	-38.91
366.256	24.58
366.467	67.58
366.678	26.62
366.889	24.58
367.1	65.53
367.311	71.68
367.522	47.1
367.733	38.91
367.944	86.01
368.155	59.39
368.366	22.53
368.577	65.53
368.788	40.96
368.999	4.1
369.209	81.92
369.42	147.45
369.631	124.93
369.842	24.58
370.053	77.82
370.264	8.19
370.474	71.68
370.685	114.69
370.896	8.19
371.107	30.72
371.317	92.16
371.528	51.2
371.739	81.92
371.95	43.01
372.16	14.34
372.371	-32.77
372.582	59.39
372.792	38.91
373.003	98.3
373.214	30.72
373.424	92.16
373.635	57.34
373.846	18.43
374.056	100.35
374.267	49.15
374.477	65.53
374.688	53.25
374.898	22.53
375.109	26.62
375.319	69.63
375.53	55.3
375.74	49.15
375.951	63.49
376.161	47.1
376.372	53.25
376.582	43.01
376.793	79.87
377.003	16.38
377.214	59.39
377.424	65.53
377.635	24.58
377.845	-8.19
378.055	51.2
378.266	-8.19
378.476	73.73
378.686	-16.38
378.897	73.73
379.107	26.62
379.317	-12.29
379.528	20.48
379.738	92.16
379.948	51.2
380.158	86.01
380.369	71.68
380.579	96.25
380.789	112.64
380.999	47.1
381.21	22.53
381.42	153.6
381.63	81.92
381.84	22.53
382.05	143.36
382.261	53.25
382.471	8.19
382.681	-49.15
382.891	112.64
383.101	69.63
383.311	-43.01
383.521	112.64
383.731	88.06
383.941	65.53
384.151	10.24
384.361	81.92
384.571	-2.05
384.781	120.83
384.991	141.31
385.201	106.49
385.411	73.73
385.621	-10.24
385.831	14.34
386.041	59.39
386.251	100.35
386.461	112.64
386.671	122.88
386.881	108.54
387.091	-10.24
387.301	43.01
387.511	122.88
387.72	114.69
387.93	26.62
388.14	77.82
388.35	-8.19
388.56	100.35
388.769	104.45
388.979	53.25
389.189	40.96
389.399	51.2
389.609	47.1
389.818	112.64
390.028	59.39
390.238	98.3
390.447	-0
390.657	24.58
390.867	40.96
391.076	47.1
391.286	145.41
391.496	120.83
391.705	40.96
391.915	81.92
392.125	118.78
392.334	75.77
392.544	133.12
392.753	75.77
392.963	129.02
393.172	94.21
393.382	26.62
393.591	145.41
393.801	45.06
394.01	53.25
394.22	38.91
394.429	129.02
394.639	126.97
394.848	141.31
395.058	86.01
395.267	79.87
395.477	65.53
395.686	61.44
395.895	20.48
396.105	145.41
396.314	81.92
396.524	22.53
396.733	120.83
396.942	112.64
397.152	49.15
397.361	61.44
397.57	180.22
397.78	155.65
397.989	63.49
398.198	139.26
398.407	98.3
398.617	22.53
398.826	129.02
399.035	169.98
399.244	133.12
399.453	38.91
399.663	79.87
399.872	126.97
400.081	79.87
400.29	104.45
400.499	22.53
400.708	133.12
400.917	120.83
401.127	106.49
401.336	122.88
401.545	104.45
401.754	165.89
401.963	96.25
402.172	143.36
402.381	38.91
402.59	65.53
402.799	194.56
403.008	235.52
403.217	165.89
403.426	165.89
403.635	65.53
403.844	129.02
404.053	110.59
404.262	133.12
404.471	223.23
404.68	131.07
404.888	210.94
405.097	102.4
405.306	116.73
405.515	81.92
405.724	69.63
405.933	124.93
406.142	161.79
406.35	229.37
406.559	145.41
406.768	155.65
406.977	243.71
407.185	178.17
407.394	258.04
407.603	186.37
407.812	184.32
408.02	303.1
408.229	260.09
408.438	210.94
408.646	202.75
408.855	286.72
409.064	219.13
409.272	182.27
409.481	321.53
409.69	253.95
409.898	286.72
410.107	301.05
410.315	241.66
410.524	317.44
410.733	333.82
410.941	319.48
411.15	356.35
411.358	393.21
411.567	460.79
411.775	391.16
411.984	327.67
412.192	456.7
412.401	374.78
412.609	432.12
412.818	526.33
413.026	528.38
413.234	497.66
413.443	595.96
413.651	581.62
413.86	540.66
414.068	604.15
414.276	622.58
414.485	577.53
414.693	645.11
414.901	573.43
415.11	686.07
415.318	802.8
415.526	737.27
415.734	686.07
415.943	808.95
416.151	802.8
416.359	849.91
416.567	833.52
416.776	817.14
416.984	901.11
417.192	927.73
417.4	958.45
417.608	874.48
417.817	1046.51
418.025	1161.2
418.233	1234.93
418.441	1058.8
418.649	1103.86
418.857	1234.93
419.065	1234.93
419.273	1204.21
419.481	1308.65
419.689	1374.19
419.897	1382.38
420.105	1417.19
420.313	1443.82
420.521	1515.5
420.729	1570.79
420.937	1560.55
421.145	1695.72
421.353	1689.57
421.561	1900.51
421.769	1808.36
421.977	1890.28
422.185	2017.25
422.393	2021.35
422.601	2283.49
422.809	2189.28
423.017	2275.29
423.224	2308.06
423.432	2432.99
423.64	2392.03
423.848	2559.96
424.056	2559.96
424.263	2791.38
424.471	2793.43
424.679	2828.24
424.887	2959.31
425.094	3108.82
425.302	3145.68
425.51	3221.45
425.718	3233.74
425.925	3385.29
426.133	3381.2
426.341	3608.52
426.548	3700.68
426.756	3704.78
426.964	3852.23
427.171	4044.74
427.379	4200.38
427.586	4218.82
427.794	4413.37
428.001	4575.16
428.209	4790.2
428.417	4687.8
428.624	5087.15
428.832	4972.47
429.039	5007.28
429.247	5085.11
429.454	5431.21
429.662	5849
429.869	5461.93
430.076	5832.61
430.284	5627.82
430.491	5928.87
430.699	6043.56
430.906	6334.37
431.114	6324.13
431.321	6580.12
431.528	6776.73
431.736	7124.88
431.943	7397.26
432.15	7329.68
432.358	7217.04
432.565	7528.33
432.772	7681.93
432.979	7919.5
433.187	8140.68
433.394	8200.07
433.601	8832.89
433.808	8898.42
434.016	8853.37
434.223	9021.3
434.43	9830.25
434.637	9471.86
434.844	10270.56
435.052	10245.99
435.259	10188.64
435.466	10303.33
435.673	10184.55
435.88	10600.29
436.087	11437.91
436.294	11218.77
436.501	11405.14
436.708	11650.89
436.915	11820.88
437.122	11980.62
437.329	12312.39
437.537	12537.66
437.743	12826.43
437.95	12717.89
438.157	13516.59
438.364	13776.69
438.571	13858.6
438.778	13819.69
438.985	14917.4
439.192	14767.9
439.399	15023.9
439.606	14561.06
439.813	15464.21
440.02	16541.44
440.227	16047.88
440.433	15830.8
440.64	16543.49
440.847	16592.64
441.054	16875.26
441.261	17958.64
441.467	17585.91
441.674	18210.54
441.881	18613.99
442.088	18691.81
442.294	18552.55
442.501	18720.48
442.708	19486.42
442.914	20080.33
443.121	21067.45
443.328	20649.67
443.534	21804.72
443.741	21208.76
443.948	20913.86
444.154	22470.31
444.361	22306.48
444.568	22953.63
444.774	22521.51
444.981	22767.27
445.187	23414.43
445.394	24391.31
445.6	24217.23
445.807	26244.72
446.013	25175.68
446.22	25738.87
446.426	26574.44
446.633	27111.01
446.839	27747.93
447.046	26687.08
447.252	28192.34
447.459	27870.81
447.665	28180.05
447.871	29240.9
448.078	30426.67
448.284	29236.8
448.491	29830.71
448.697	30912.04
448.903	31456.8
449.11	31118.89
449.316	31198.76
449.522	31858.2
449.728	32353.81
449.935	32933.39
450.141	32421.39
450.347	33459.71
450.553	32527.89
450.76	33150.47
450.966	33775.1
451.172	33607.17
451.378	34303.48
451.584	33707.52
451.791	34293.24
451.997	34418.16
452.203	34858.48
452.409	34801.13
452.615	35089.9
452.821	33271.3
453.027	33263.11
453.233	34803.18
453.44	33670.65
453.646	33797.63
453.852	34072.06
454.058	34969.07
454.264	33332.74
454.47	34303.48
454.676	33465.86
454.882	34196.98
455.088	31501.86
455.294	32095.77
455.5	32855.56
455.705	33144.33
455.911	31602.21
456.117	30815.79
456.323	30570.03
456.529	29312.58
456.735	29955.64
456.941	29369.92
457.147	29027.91
457.352	28192.34
457.558	28089.94
457.764	27879
457.97	27391.58
458.176	26826.34
458.381	26707.56
458.587	25429.63
458.793	25468.54
458.999	24444.56
459.204	25650.81
459.41	25214.59
459.616	23471.77
459.821	23695
460.027	23451.29
460.233	22804.13
460.438	22015.66
460.644	22077.1
460.85	21276.35
461.055	20805.31
461.261	20565.7
461.466	19275.48
461.672	18732.77
461.878	19963.6
462.083	18831.07
462.289	18284.26
462.494	18392.81
462.7	17227.51
462.905	17245.94
463.111	17383.16
463.316	17256.18
463.522	17184.51
463.727	17106.68
463.932	17299.19
464.138	16762.62
464.343	17065.72
464.549	16598.79
464.754	17157.88
464.959	16709.38
465.165	16584.45
465.37	16045.84
465.575	15539.99
465.781	16357.13
465.986	16742.14
466.191	15679.25
466.397	15488.79
466.602	14647.07
466.807	15533.84
467.012	15406.87
467.218	15197.98
467.423	15136.54
467.628	15025.95
467.833	15695.63
468.038	15142.68
468.244	14702.37
468.449	15367.96
468.654	14864.16
468.859	14489.38
469.064	14632.74
469.269	14182.18
469.474	14163.75
469.679	14458.66
469.885	13801.26
470.09	14214.95
470.295	14173.99
470.5	13733.68
470.705	13944.62
470.91	13535.03
471.115	13551.41
471.32	13653.81
471.525	13541.17
471.73	13565.74
471.935	13496.11
472.139	12724.03
472.344	12887.87
472.549	12527.42
472.754	12582.72
472.959	12451.65
473.164	12209.99
473.369	11855.69
473.574	12412.74
473.778	12369.73
473.983	12058.44
474.188	12238.66
474.393	11517.78
474.598	11720.53
474.802	11468.62
475.007	11540.3
475.212	11573.07
475.417	11204.44
475.621	11167.57
475.826	11044.7
476.031	11099.99
476.235	10598.24
476.44	10786.65
476.645	10559.33
476.849	10528.61
477.054	10749.79
477.259	10327.91
477.463	10174.31
477.668	10116.97
477.872	10098.53
478.077	9977.7
478.282	9701.23
478.486	9852.78
478.691	9813.87
478.895	9875.31
479.1	9887.59
479.304	9721.71
479.509	9430.9
479.713	9754.48
479.918	9193.33
480.122	9082.74
480.326	9453.42
480.531	9187.19
480.735	9293.68
480.94	9029.49
481.144	9326.45
481.348	9041.78
481.553	9009.01
481.757	8830.84
481.961	9197.43
482.166	9068.41
482.37	8927.1
482.574	8863.61
482.778	8873.85
482.983	8961.91
483.187	8976.25
483.391	8996.73
483.595	8972.15
483.8	8951.67
484.004	9029.49
484.208	8990.58
484.412	8884.09
484.616	8929.14
484.821	9025.4
485.025	8714.11
485.229	8978.3
485.433	9088.89
485.637	8978.3
485.841	8945.53
486.045	8859.51
486.249	8761.21
486.453	8836.99
486.657	8970.1
486.861	9123.7
487.065	8748.92
487.269	8920.95
487.473	8730.49
487.677	8996.73
487.881	9017.21
488.085	8984.44
488.289	8988.53
488.493	8865.66
488.697	8935.29
488.901	8937.34
489.105	8820.6
489.309	9009.01
489.512	9174.9
489.716	9021.3
489.92	8970.1
490.124	8742.78
490.328	9101.17
490.531	9082.74
490.735	9236.34
490.939	9172.85
491.143	9207.67
491.346	9138.04
491.55	9279.35
491.754	9238.39
491.958	9432.94
492.161	9250.67
492.365	9658.22
492.569	9320.31
492.772	9326.45
492.976	9451.38
493.18	9377.65
493.383	9594.73
493.587	9877.35
493.79	9860.97
493.994	9713.52
494.197	9887.59
494.401	10008.42
494.605	9834.35
494.808	10180.45
495.012	10092.39
495.215	10030.95
495.419	10207.08
495.622	10198.88
495.825	10413.92
496.029	10446.69
496.232	10561.37
496.436	10557.28
496.639	11009.88
496.843	10803.04
497.046	11056.98
497.249	11034.46
497.453	10983.26
497.656	11085.65
497.859	11214.68
498.063	11349.84
498.266	11716.43
498.469	11462.48
498.673	11706.19
498.876	11939.66
499.079	11917.13
499.282	12072.78
499.485	12312.39
499.689	12302.15
499.892	12441.41
500.095	12609.34
500.298	12932.92
500.501	12937.02
500.705	12894.01
500.908	13154.1
501.111	13195.06
501.314	13416.24
501.517	13580.08
501.72	13885.23
501.923	13541.17
502.126	14178.09
502.329	14204.71
502.532	14366.5
502.735	14282.53
502.938	14544.67
503.141	14645.02
503.344	15140.63
503.547	15148.82
503.75	15046.43
503.953	15232.79
504.156	15595.28
504.359	15763.22
504.562	15755.02
504.765	16273.16
504.968	16283.4
505.17	16506.63
505.373	16486.15
505.576	16725.76
505.779	17131.26
505.982	17067.77
506.185	17272.57
506.387	17469.17
506.59	17471.22
506.793	18048.75
506.996	18038.51
507.198	18503.4
507.401	18382.57
507.604	18517.73
507.807	18908.9
508.009	18863.84
508.212	19248.86
508.415	19478.23
508.617	19830.48
508.82	19766.99
509.022	19838.67
509.225	20258.51
509.428	20326.09
509.63	20569.8
509.833	20668.1
510.035	21096.13
510.238	20960.96
510.44	21288.64
510.643	21462.71
510.845	21765.81
511.048	22019.76
511.25	22222.51
511.453	22462.12
511.655	22855.33
511.858	22832.8
512.06	22898.34
512.262	23299.74
512.465	23021.22
512.667	23615.13
512.87	23819.92
513.072	23899.8
513.274	24315.53
513.477	24514.19
513.679	25093.76
513.881	24917.64
514.084	25267.84
514.286	25314.94
514.488	25323.13
514.69	26197.62
514.893	25951.86
515.095	26338.93
515.297	26543.72
515.499	26627.69
515.701	27203.17
515.904	27215.46
516.106	27641.43
516.308	27760.22
516.51	28288.59
516.712	28249.68
516.914	28540.49
517.116	28661.32
517.318	29185.6
517.52	29109.83
517.722	29388.35
517.925	29922.87
518.127	30148.15
518.329	30217.78
518.531	30043.7
518.733	30549.55
518.935	30895.66
519.136	31438.37
519.338	31661.6
519.54	31598.11
519.742	31995.42
519.944	32181.78
520.146	32777.74
520.348	32876.04
520.55	33043.98
520.752	33054.22
520.954	33947.13
521.155	33494.53
521.357	33715.71
521.559	33887.74
521.761	34856.43
521.963	34448.88
522.164	34637.3
522.366	34756.08
522.568	35331.56
522.77	35114.47
522.971	35761.63
523.173	35970.52
523.375	36167.13
523.576	36136.41
523.778	36443.6
523.98	36474.32
524.181	36570.58
524.383	36832.72
524.584	37119.43
524.786	37070.28
524.988	37375.43
525.189	37727.68
525.391	37985.72
525.592	38161.85
525.794	38231.48
525.995	38290.87
526.197	38372.79
526.398	38727.09
526.6	38897.07
526.801	38849.97
527.003	39404.97
527.204	38923.69
527.406	39056.81
527.607	39409.06
527.808	39767.46
528.01	38952.37
528.211	39257.51
528.412	39919.01
528.614	39945.63
528.815	40054.17
529.016	40371.61
529.218	40050.08
529.419	40043.93
529.62	40295.83
529.822	40301.98
530.023	40502.68
530.224	40750.48
530.425	40584.6
530.626	40242.59
530.828	40168.86
531.029	41207.18
531.23	40652.18
531.431	41016.72
531.632	40846.74
531.833	41039.25
532.035	40967.57
532.236	40768.91
532.437	41149.84
532.638	40836.5
532.839	41008.53
533.04	41446.79
533.241	40787.35
533.442	41633.16
533.643	40945.04
533.844	41248.14
534.045	41575.81
534.246	40885.65
534.447	41373.06
534.648	41106.83
534.849	41260.43
535.05	40820.11
535.251	41205.13
535.451	41076.11
535.652	41178.51
535.853	41133.45
536.054	41311.63
536.255	40975.76
536.456	40959.38
536.657	41964.93
536.857	41239.95
537.058	40957.33
537.259	41305.48
537.46	41164.17
537.66	41301.39
537.861	41317.77
538.062	41094.54
538.263	41491.85
538.463	40906.13
538.664	41022.86
538.865	41307.53
539.065	41631.11
539.266	40897.94
539.466	41571.72
539.667	40668.56
539.868	41442.7
540.068	41100.68
540.269	41127.31
540.469	41405.83
540.67	41033.1
540.87	40789.39
541.071	40885.65
541.271	40840.59
541.472	41309.58
541.672	40942.99
541.873	40719.76
542.073	40967.57
542.274	41371.02
542.474	40652.18
542.675	40674.71
542.875	40967.57
543.075	41000.33
543.276	40344.98
543.476	41213.32
543.676	40813.97
543.877	40916.37
544.077	40844.69
544.277	40760.72
544.478	41055.63
544.678	40914.32
544.878	40895.89
545.078	41049.49
545.279	40727.95
545.479	40512.92
545.679	40580.5
545.879	40816.02
546.079	40740.24
546.28	40709.52
546.48	40394.14
546.68	40922.51
546.88	41051.53
547.08	40930.7
547.28	40664.47
547.48	40301.98
547.68	40865.17
547.88	40390.04
548.081	40838.54
548.281	40770.96
548.481	40502.68
548.681	40719.76
548.881	40586.64
549.081	40648.08
549.28	40494.49
549.48	40701.33
549.68	40566.17
549.88	41108.88
550.08	40564.12
550.28	40316.31
550.48	40517.01
550.68	41104.78
550.88	40191.39
551.08	40564.12
551.279	40394.14
551.479	40158.62
551.679	40756.63
551.879	40258.97
552.079	40723.86
552.278	40312.22
552.478	40564.12
552.678	40822.16
552.878	40613.27
553.077	40312.22
553.277	40332.7
553.477	40975.76
553.676	40414.62
553.876	40177.05
554.076	40234.39
554.275	40013.21
554.475	39919.01
554.674	40297.88
554.874	40533.4
555.074	40285.59
555.273	40357.27
555.473	40660.37
555.672	39855.52
555.872	40043.93
556.071	40422.81
556.271	40662.42
556.47	39779.74
556.67	39953.82
556.869	39919.01
557.068	40005.02
557.268	39689.63
557.467	39962.01
557.667	39890.34
557.866	39525.8
558.065	40011.17
558.265	39404.97
558.464	39357.86
558.663	39955.87
558.863	39464.36
559.062	40058.27
559.261	39400.87
559.461	39742.88
559.66	39087.53
559.859	39603.62
560.058	39077.29
560.258	39613.86
560.457	39015.85
560.656	39689.63
560.855	39294.38
561.054	39067.05
561.253	38880.69
561.453	38935.98
561.652	39112.11
561.851	39142.83
562.05	38835.63
562.249	38661.55
562.448	39028.14
562.647	39048.62
562.846	38479.28
563.045	38817.2
563.244	38729.14
563.443	38935.98
563.642	38182.33
563.841	38604.21
564.04	38501.81
564.239	38872.49
564.438	38182.33
564.637	38718.9
564.836	38327.74
565.035	37885.37
565.234	38294.97
565.432	38028.73
565.631	37557.7
565.83	38198.71
566.029	37877.18
566.228	37729.73
566.427	37166.54
566.625	37361.09
566.824	37123.53
567.023	37561.79
567.222	37064.14
567.42	37606.85
567.619	37221.83
567.818	37432.77
568.016	37033.42
568.215	37746.11
568.414	37352.9
568.612	37604.8
568.811	36865.49
569.01	37203.4
569.208	36312.53
569.407	37014.99
569.605	36234.71
569.804	36419.03
570.002	36148.7
570.201	36672.98
570.4	36599.25
570.598	35939.8
570.797	36081.11
570.995	36242.9
571.193	35479.01
571.392	36251.09
571.59	35419.62
571.789	35618.27
571.987	35902.94
572.186	35517.92
572.384	35311.08
572.582	35366.37
572.781	35775.97
572.979	35069.42
573.177	35137
573.376	35452.39
573.574	35055.08
573.772	35229.16
573.971	34807.28
574.169	34901.48
574.367	34403.83
574.565	34885.1
574.763	34579.95
574.962	34401.78
575.16	34291.19
575.358	34407.92
575.556	34055.67
575.754	34485.75
575.952	33711.61
576.151	34098.68
576.349	33568.26
576.547	34072.06
576.745	33945.08
576.943	33635.84
577.141	33820.16
577.339	33895.93
577.537	33693.18
577.735	33641.98
577.933	33023.5
578.131	33279.49
578.329	33336.84
578.527	32892.43
578.725	32830.99
578.923	32900.62
579.121	32990.73
579.319	32591.37
579.516	32671.25
579.714	32720.4
579.912	32595.47
580.11	32673.29
580.308	32206.36
580.506	32337.43
580.704	31743.52
580.901	31933.98
581.099	32443.92
581.297	31716.89
581.495	32022.04
581.692	32134.68
581.89	31655.45
582.088	31813.15
582.285	31536.67
582.483	31616.54
582.681	31661.6
582.878	31467.04
583.076	31211.04
583.274	31219.24
583.471	30901.8
583.669	31143.46
583.866	30633.52
584.064	30580.27
584.262	30471.73
584.459	30768.68
584.657	30631.47
584.854	30852.65
585.052	30287.41
585.249	30320.18
585.447	30424.62
585.644	30092.85
585.841	30240.31
586.039	30424.62
586.236	29673.02
586.434	29799.99
586.631	29568.57
586.828	29609.53
587.026	29476.41
587.223	29431.36
587.42	29564.48
587.618	29470.27
587.815	29091.4
588.012	29443.65
588.21	29220.42
588.407	29443.65
588.604	28767.82
588.801	28816.97
588.999	29001.29
589.196	28646.99
589.393	28769.86
589.59	28601.93
589.787	28634.7
589.984	28298.83
590.182	28573.26
590.379	28569.16
590.576	28204.63
590.773	28274.26
590.97	27858.52
591.167	28356.18
591.364	27602.52
591.561	27661.91
591.758	27870.81
591.955	27756.12
592.152	27962.97
592.349	27661.91
592.546	27397.73
592.743	27248.22
592.94	27221.6
593.137	26938.98
593.334	27184.74
593.531	27082.34
593.727	27330.14
593.924	26898.02
594.121	26556.01
594.318	27242.08
594.515	26293.87
594.712	27027.04
594.908	26621.55
595.105	26764.9
595.302	26320.49
595.499	26017.4
595.696	26482.28
595.892	26113.65
596.089	26209.9
596.286	26214
596.482	26166.9
596.679	25958
596.876	26011.25
597.072	25765.49
597.269	25812.6
597.466	25675.38
597.662	25564.79
597.859	25450.11
598.055	25382.52
598.252	25323.13
598.448	25280.13
598.645	24897.16
598.841	24802.95
599.038	24725.13
599.234	25433.72
599.431	25028.23
599.627	25034.37
599.824	24948.36
600.02	24897.16
600.217	24675.98
600.413	24725.13
600.609	24329.87
600.806	24630.92
601.002	24729.22
601.198	24229.52
601.395	24211.09
601.591	23799.44
601.787	24163.98
601.984	24256.14
602.18	24219.28
602.376	23746.2
602.572	23637.66
602.769	23760.53
602.965	23606.94
603.161	23623.32
603.357	23502.49
603.553	23344.8
603.75	23498.39
603.946	23326.36
604.142	23256.73
604.338	23082.66
604.534	23371.42
604.73	23002.78
604.926	23045.79
605.122	23035.55
605.318	22748.84
605.514	22632.1
605.71	22503.08
605.906	22808.23
606.102	22679.21
606.298	22582.95
606.494	22605.48
606.69	22724.26
606.886	22419.11
607.082	21989.04
607.278	22601.38
607.474	21956.27
607.67	22255.28
607.866	22400.68
608.062	22447.79
608.257	22081.2
608.453	22339.24
608.649	21939.89
608.845	21931.7
609.041	21972.66
609.236	21874.35
609.432	21692.08
609.628	21755.57
609.824	21579.45
610.019	21698.23
610.215	21616.31
610.411	21796.53
610.606	21354.17
610.802	21716.66
610.998	21391.03
611.193	21595.83
611.389	21282.49
611.584	21200.57
611.78	21161.66
611.976	21194.43
612.171	21118.65
612.367	21083.84
612.562	20801.22
612.758	20993.73
612.953	20903.62
613.149	21006.02
613.344	20833.99
613.539	21145.28
613.735	20698.82
613.93	21032.64
614.126	20702.92
614.321	21001.92
614.517	20668.1
614.712	20758.21
614.907	20645.57
615.103	20586.18
615.298	20485.83
615.493	20774.6
615.688	20321.99
615.884	20614.85
616.079	20305.61
616.274	20311.75
616.47	20217.55
616.665	20281.03
616.86	20233.93
617.055	20004.56
617.25	20317.9
617.445	20299.47
617.641	19750.61
617.836	20037.33
618.031	19816.15
618.226	20174.54
618.421	19779.28
618.616	20215.5
618.811	19521.24
619.006	19953.36
619.201	19461.85
619.396	19515.09
619.591	19222.23
619.786	19621.59
619.981	19117.79
620.176	19412.7
620.371	19257.05
620.566	19062.49
620.761	19097.31
620.956	19330.78
621.151	18927.33
621.346	18962.14
621.541	18458.34
621.735	18978.53
621.93	18534.12
622.125	18581.22
622.32	18069.23
622.515	18015.98
622.709	17917.68
622.904	18269.93
623.099	18095.85
623.294	18073.32
623.488	17766.13
623.683	18011.89
623.878	17559.28
624.072	17663.73
624.267	17297.14
624.462	17274.62
624.656	17188.6
624.851	17047.29
625.046	17211.13
625.24	17108.73
625.435	16832.26
625.629	16783.1
625.824	16795.39
626.018	16899.84
626.213	16613.12
626.407	16736
626.602	16137.99
626.796	16328.45
626.991	16406.28
627.185	16041.74
627.38	16156.43
627.574	15988.49
627.768	16062.22
627.963	15822.61
628.157	15679.25
628.352	15560.47
628.546	15460.12
628.74	15617.81
628.935	15187.74
629.129	15378.2
629.323	15228.7
629.517	15103.77
629.712	15064.86
629.906	15120.15
630.1	15071
630.294	15030.04
630.489	14817.05
630.683	14925.6
630.877	14440.23
631.071	14370.6
631.265	14540.58
631.459	14561.06
631.653	14169.9
631.848	14411.56
632.042	14051.11
632.236	14249.77
632.43	13932.33
632.624	14090.02
632.818	13887.28
633.012	13655.86
633.206	13760.3
633.4	13700.91
633.594	13557.55
633.788	13666.1
633.982	13666.1
634.176	13489.97
634.369	13444.91
634.563	13207.35
634.757	13262.65
634.951	13244.21
635.145	13088.57
635.339	13129.53
635.533	12803.9
635.726	12949.31
635.92	12758.85
636.114	12578.62
636.308	12701.5
636.501	12906.3
636.695	12662.59
636.889	12449.6
637.083	12339.01
637.276	12214.09
637.47	12083.02
637.664	12212.04
637.857	12289.86
638.051	12130.12
638.244	12015.43
638.438	12033.86
638.632	11949.9
638.825	11929.42
639.019	11917.13
639.212	11689.81
639.406	11880.27
639.599	11763.53
639.793	11564.88
639.986	11419.47
640.18	11493.2
640.373	11388.75
640.567	11163.48
640.76	11454.29
640.954	11392.85
641.147	11056.98
641.34	11118.42
641.534	10987.35
641.727	11198.29
641.92	11024.22
642.114	10813.27
642.307	10932.06
642.5	10790.75
642.694	10469.22
642.887	10555.23
643.08	10583.9
643.273	10522.46
643.467	10585.95
643.66	10370.91
643.853	10346.34
644.046	10213.22
644.239	10504.03
644.432	10211.17
644.626	9936.74
644.819	10071.91
645.012	10141.54
645.205	9928.55
645.398	10008.42
645.591	10033
645.784	9688.94
645.977	9709.42
646.17	9760.62
646.363	9596.78
646.556	9564.01
646.749	9688.94
646.942	9568.11
647.135	9566.06
647.328	9191.28
647.521	9437.04
647.714	9365.36
647.907	9148.28
648.099	9410.42
648.292	9189.24
648.485	9066.36
648.678	8931.19
648.871	9154.42
649.064	9025.4
649.256	9004.92
649.449	8879.99
649.642	8736.63
649.835	8626.04
650.027	8693.63
650.22	8781.69
650.413	8546.17
650.605	8587.13
650.798	8626.04
650.991	8302.47
651.183	8345.47
651.376	8279.94
651.568	8388.48
651.761	8378.24
651.954	8298.37
652.146	8324.99
652.339	8296.32
652.531	8167.3
652.724	7989.13
652.916	7933.83
653.109	7837.58
653.301	7960.45
653.494	7976.84
653.686	7911.3
653.879	7860.1
654.071	7876.49
654.263	7681.93
654.456	7765.9
654.648	7774.09
654.84	7600.01
655.033	7501.71
655.225	7593.87
655.417	7387.02
655.61	7436.17
655.802	7563.15
655.994	7501.71
656.186	7434.13
656.379	7282.58
656.571	7309.2
656.763	7282.58
656.955	7171.99
657.148	7110.55
657.34	7186.32
657.532	7063.44
657.724	6946.71
657.916	7114.64
658.108	7004.05
658.3	7045.01
658.492	6918.04
658.684	6977.43
658.876	6948.76
659.068	6899.61
659.26	6817.69
659.452	6807.45
659.644	6772.63
659.836	6659.99
660.028	6741.91
660.22	6657.95
660.412	6502.3
660.604	6571.93
660.796	6487.96
660.988	6424.48
661.18	6406.05
661.372	6461.34
661.563	6225.82
661.755	6498.2
661.947	6377.37
662.139	6313.89
662.331	6301.6
662.522	6156.19
662.714	6184.87
662.906	6141.86
663.097	6129.57
663.289	6076.32
663.481	6188.96
663.673	6008.74
663.864	6076.32
664.056	5992.36
664.247	5984.16
664.439	5910.44
664.631	5789.61
664.822	5726.12
665.014	5855.14
665.205	5916.58
665.397	5738.41
665.588	5691.31
665.78	5660.59
665.971	5855.14
666.163	5705.64
666.354	5625.77
666.546	5535.66
666.737	5412.78
666.929	5650.35
667.12	5509.04
667.311	5416.88
667.503	5488.56
667.694	5492.65
667.885	5429.17
668.077	5296.05
668.268	5388.21
668.459	5396.4
668.651	5334.96
668.842	5164.98
669.033	5191.6
669.224	5257.14
669.416	5396.4
669.607	5312.43
669.798	5099.44
669.989	5242.8
670.18	5236.66
670.371	5033.91
670.563	5091.25
670.754	5027.76
670.945	5095.35
671.136	4939.7
671.327	4919.22
671.518	4995
671.709	5060.53
671.9	4988.85
672.091	4913.08
672.282	4847.54
672.473	4868.02
672.664	4845.49
672.855	4831.16
673.046	4839.35
673.237	4863.93
673.428	4800.44
673.619	4667.32
673.809	4767.67
674	4816.82
674.191	4736.95
674.382	4708.28
674.573	4765.62
674.764	4706.23
674.954	4579.26
675.145	4571.07
675.336	4595.64
675.527	4677.56
675.717	4603.83
675.908	4661.18
676.099	4743.1
676.289	4548.54
676.48	4470.72
676.671	4542.39
676.861	4521.91
677.052	4437.95
677.243	4267.97
677.433	4503.48
677.624	4671.42
677.814	4417.47
678.005	4462.52
678.195	4523.96
678.386	4290.49
678.576	4169.66
678.767	4327.36
678.957	4274.11
679.148	4437.95
679.338	4325.31
679.529	4374.46
679.719	4310.97
679.909	4366.27
680.1	4423.61
680.29	4300.73
680.481	4407.23
680.671	4216.77
680.861	4208.58
681.052	4216.77
681.242	4212.67
681.432	4317.12
681.622	4231.1
681.813	4120.51
682.003	4231.1
682.193	4071.36
682.383	4122.56
682.573	4192.19
682.764	4227.01
682.954	4270.01
683.144	4140.99
683.334	4188.1
683.524	4161.47
683.714	4208.58
683.904	4175.81
684.094	4024.26
684.284	4128.7
684.474	4108.23
684.664	4216.77
684.854	4044.74
685.044	3938.24
685.234	3872.71
685.424	4102.08
685.614	4009.92
685.804	4011.97
685.994	3983.3
686.184	3989.44
686.374	3899.33
686.564	4005.83
686.753	3971.01
686.943	3895.24
687.133	3852.23
687.323	3784.65
687.513	3868.61
687.702	3870.66
687.892	3858.37
688.082	3798.98
688.272	3911.62
688.461	3903.43
688.651	3825.61
688.841	3680.2
689.03	3786.69
689.22	3694.54
689.41	3639.24
689.599	3719.11
689.789	3731.4
689.979	3684.3
690.168	3706.82
690.358	3561.42
690.547	3516.36
690.737	3684.3
690.926	3733.45
691.116	3389.39
691.305	3620.81
691.495	3504.07
691.684	3534.79
691.874	3497.93
692.063	3489.74
692.252	3407.82
692.442	3385.29
692.631	3440.59
692.82	3422.16
693.01	3483.59
693.199	3416.01
693.388	3405.77
693.578	3416.01
693.767	3377.1
693.956	3499.98
694.146	3377.1
694.335	3362.76
694.524	3321.81
694.713	3221.45
694.902	3465.16
695.092	3280.85
695.281	3299.28
695.47	3274.7
695.659	3250.13
695.848	3313.61
696.037	3295.18
696.226	3282.89
696.415	3225.55
696.604	3344.33
696.793	3334.09
696.982	3215.31
697.171	3342.28
697.36	3157.97
697.549	3121.1
697.738	3250.13
697.927	3164.11
698.116	3260.37
698.305	3340.24
698.494	3196.88
698.683	3149.78
698.872	3274.7
699.061	3125.2
699.25	3182.54
699.438	3196.88
699.627	3129.3
699.816	3170.26
700.005	3098.58
700.193	3176.4
700.382	3078.1
700.571	3266.51
700.76	3119.06
700.948	3184.59
701.137	3110.86
701.326	3209.17
701.514	3057.62
701.703	3082.19
701.892	3123.15
702.08	3237.84
702.269	3076.05
702.457	3114.96
702.646	3053.52
702.834	3168.21
703.023	3014.61
703.212	3225.55
703.4	3145.68
703.589	2987.99
703.777	3110.86
703.965	3086.29
704.154	2957.27
704.342	3037.14
704.531	2881.49
704.719	3033.04
704.907	3053.52
705.096	3057.62
705.284	3100.62
705.472	3014.61
705.661	2928.6
705.849	3076.05
706.037	2971.6
706.226	2975.7
706.414	2987.99
706.602	2996.18
706.79	2899.92
706.979	3006.42
707.167	3006.42
707.355	2877.4
707.543	3000.27
707.731	2990.03
707.919	2908.12
708.107	2985.94
708.296	2904.02
708.484	2775
708.672	2736.09
708.86	2777.05
709.048	2930.64
709.236	2861.01
709.424	2889.68
709.612	2914.26
709.8	2942.93
709.988	2875.35
710.176	2836.44
710.364	2869.2
710.551	2963.41
710.739	2842.58
710.927	2826.2
711.115	2987.99
711.303	2766.81
711.491	2815.96
711.679	2783.19
711.866	2924.5
712.054	2799.57
712.242	2805.72
712.43	2914.26
712.617	2848.72
712.805	2748.37
712.993	2756.57
713.181	2815.96
713.368	2795.48
713.556	2828.24
713.744	2662.36
713.931	2949.07
714.119	2717.65
714.306	2701.27
714.494	2736.09
714.682	2875.35
714.869	2750.42
715.057	2781.14
715.244	2766.81
715.432	2717.65
715.619	2729.94
715.807	2539.48
715.994	2656.22
716.182	2744.28
716.369	2754.52
716.556	2701.27
716.744	2641.88
716.931	2672.6
717.119	2676.7
717.306	2662.36
717.493	2695.13
717.681	2684.89
717.868	2688.98
718.055	2680.79
718.242	2658.26
718.43	2791.38
718.617	2705.37
718.804	2734.04
718.991	2719.7
719.179	2633.69
719.366	2629.59
719.553	2586.58
719.74	2668.5
719.927	2613.21
720.114	2547.67
720.301	2652.12
720.488	2549.72
720.676	2488.28
720.863	2678.74
721.05	2652.12
721.237	2539.48
721.424	2652.12
721.611	2613.21
721.798	2570.2
721.985	2623.45
722.172	2455.51
722.358	2482.14
722.545	2453.47
722.732	2512.86
722.919	2584.54
723.106	2392.03
723.293	2545.63
723.48	2525.15
723.667	2586.58
723.853	2465.75
724.04	2455.51
724.227	2537.43
724.414	2607.06
724.6	2537.43
724.787	2410.46
724.974	2467.8
725.161	2326.49
725.347	2383.84
725.534	2416.6
725.72	2447.32
725.907	2445.27
726.094	2545.63
726.28	2361.31
726.467	2447.32
726.653	2418.65
726.84	2492.38
727.027	2525.15
727.213	2326.49
727.4	2447.32
727.586	2308.06
727.773	2504.67
727.959	2418.65
728.145	2465.75
728.332	2275.29
728.518	2365.4
728.705	2424.8
728.891	2469.85
729.077	2418.65
729.264	2351.07
729.45	2469.85
729.636	2488.28
729.823	2439.13
730.009	2344.92
730.195	2400.22
730.382	2357.21
730.568	2357.21
730.754	2357.21
730.94	2396.12
731.126	2459.61
731.313	2443.23
731.499	2443.23
731.685	2400.22
731.871	2432.99
732.057	2381.79
732.243	2451.42
732.429	2490.33
732.615	2234.33
732.801	2398.17
732.987	2351.07
733.173	2373.6
733.359	2324.44
733.545	2353.12
733.731	2351.07
733.917	2375.64
734.103	2301.92
734.289	2314.2
734.475	2293.72
734.661	2283.49
734.847	2316.25
735.033	2310.11
735.219	2332.64
735.404	2324.44
735.59	2308.06
735.776	2252.77
735.962	2258.91
736.148	2293.72
736.333	2277.34
736.519	2246.62
736.705	2217.95
736.89	2187.23
737.076	2201.57
737.262	2244.57
737.447	2181.09
737.633	2164.7
737.819	2250.72
738.004	2203.61
738.19	2131.94
738.375	2146.27
738.561	2207.71
738.747	1978.34
738.932	2215.9
739.118	2199.52
739.303	2191.33
739.489	2248.67
739.674	2080.74
739.859	2136.03
740.045	2164.7
740.23	2097.12
740.416	2103.26
740.601	2109.41
740.786	2072.54
740.972	2095.07
741.157	1959.91
741.342	2111.46
741.528	2090.98
741.713	2029.54
741.898	2041.82
742.084	2056.16
742.269	1947.62
742.454	2007.01
742.639	2103.26
742.824	2009.06
743.01	1861.6
743.195	1984.48
743.38	1990.63
743.565	2095.07
743.75	1996.77
743.935	1906.66
744.12	2064.35
744.305	1894.37
744.49	1947.62
744.675	1961.95
744.86	1943.52
745.045	1949.67
745.23	1814.5
745.415	1877.99
745.6	1884.13
745.785	1873.89
745.97	1855.46
746.155	1791.97
746.34	1841.12
746.525	1867.75
746.71	1849.32
746.895	1808.36
747.079	1824.74
747.264	1718.25
747.449	1742.82
747.634	1728.49
747.819	1771.49
748.003	1761.25
748.188	1753.06
748.373	1751.01
748.557	1726.44
748.742	1628.14
748.927	1660.9
749.111	1617.9
749.296	1538.02
749.481	1683.43
749.665	1628.14
749.85	1538.02
750.034	1554.41
750.219	1619.94
750.404	1585.13
750.588	1581.03
750.773	1660.9
750.957	1562.6
751.141	1476.59
751.326	1562.6
751.51	1458.15
751.695	1533.93
751.879	1521.64
752.064	1554.41
752.248	1456.11
752.432	1415.15
752.617	1472.49
752.801	1456.11
752.985	1505.26
753.17	1497.07
753.354	1378.28
753.538	1433.58
753.722	1353.71
753.907	1382.38
754.091	1411.05
754.275	1368.04
754.459	1366
754.643	1320.94
754.828	1339.37
755.012	1275.88
755.196	1329.13
755.38	1333.23
755.564	1302.51
755.748	1331.18
755.932	1267.69
756.116	1333.23
756.3	1304.56
756.484	1320.94
756.668	1232.88
756.852	1214.45
757.036	1185.77
757.22	1193.97
757.404	1380.33
757.588	1173.49
757.772	1189.87
757.956	1267.69
758.14	1208.3
758.323	1038.32
758.507	1216.49
758.691	1232.88
758.875	1153.01
759.059	1153.01
759.242	1060.85
759.426	1112.05
759.61	968.69
759.794	1095.66
759.977	1097.71
760.161	1103.86
760.345	1200.11
760.528	1005.55
760.712	1009.65
760.895	1159.15
761.079	1071.09
761.263	1013.74
761.446	1071.09
761.63	1075.18
761.813	1062.9
761.997	1114.09
762.18	989.17
762.364	1071.09
762.547	1038.32
762.731	956.4
762.914	1005.55
763.098	1095.66
763.281	1034.22
763.464	1005.55
763.648	964.59
763.831	985.07
764.015	976.88
764.198	1107.95
764.381	1009.65
764.564	997.36
764.748	905.2
764.931	985.07
765.114	921.59
765.297	931.83
765.481	935.92
765.664	919.54
765.847	948.21
766.03	923.63
766.213	940.02
766.397	931.83
766.58	854
766.763	1017.84
766.946	888.82
767.129	854
767.312	876.53
767.495	858.1
767.678	825.33
767.861	874.48
768.044	841.72
768.227	878.58
768.41	866.29
768.593	759.8
768.776	899.06
768.959	860.15
769.142	933.87
769.324	849.91
769.507	845.81
769.69	845.81
769.873	798.71
770.056	911.35
770.239	794.61
770.421	911.35
770.604	841.72
770.787	743.41
770.97	907.25
771.152	882.67
771.335	837.62
771.518	767.99
771.7	776.18
771.883	841.72
772.066	784.37
772.248	827.38
772.431	792.56
772.613	729.08
772.796	751.6
772.978	827.38
773.161	811
773.343	778.23
773.526	743.41
773.708	731.12
773.891	774.13
774.073	735.22
774.256	700.41
774.438	710.65
774.621	630.77
774.803	737.27
774.985	729.08
775.168	720.88
775.35	614.39
775.532	727.03
775.715	643.06
775.897	684.02
776.079	626.68
776.261	661.49
776.444	641.01
776.626	710.65
776.808	694.26
776.99	624.63
777.173	686.07
777.355	675.83
777.537	632.82
777.719	651.25
777.901	581.62
778.083	565.24
778.265	612.34
778.447	571.38
778.629	567.29
778.811	610.29
778.993	649.21
779.175	641.01
779.357	608.25
779.539	526.33
779.721	573.43
779.903	555
780.085	591.86
780.267	540.66
780.449	507.9
780.631	600.05
780.812	571.38
780.994	483.32
781.176	534.52
781.358	489.46
781.54	530.42
781.721	602.1
781.903	505.85
782.085	505.85
782.267	583.67
782.448	503.8
782.63	507.9
782.812	444.41
782.993	458.74
783.175	514.04
783.357	448.51
783.538	368.63
783.72	497.66
783.901	448.51
784.083	546.81
784.264	477.18
784.446	319.48
784.627	434.17
784.809	374.78
784.99	499.7
785.172	528.38
785.353	456.7
785.535	442.36
785.716	432.12
785.897	376.83
786.079	473.08
786.26	393.21
786.441	382.97
786.623	395.26
786.804	409.59
786.985	415.74
787.167	382.97
787.348	452.6
787.529	436.22
787.71	407.55
787.891	450.55
788.073	346.11
788.254	333.82
788.435	393.21
788.616	444.41
788.797	253.95
788.978	440.31
789.159	366.59
789.34	409.59
789.522	378.87
789.703	294.91
789.884	337.91
790.065	346.11
790.246	391.16
790.427	315.39
790.607	342.01
790.788	348.15
790.969	393.21
791.15	337.91
791.331	530.42
791.512	317.44
791.693	309.24
791.874	333.82
792.054	395.26
792.235	366.59
792.416	278.52
792.597	303.1
792.778	292.86
792.958	260.09
793.139	366.59
793.32	370.68
793.5	260.09
793.681	284.67
793.862	360.44
794.042	260.09
794.223	268.28
794.404	301.05
794.584	219.13
794.765	327.67
794.945	333.82
795.126	329.72
795.306	292.86
795.487	284.67
795.667	264.19
795.848	268.28
796.028	247.8
796.209	284.67
796.389	292.86
796.57	317.44
796.75	260.09
796.93	243.71
797.111	290.81
797.291	294.91
797.471	270.33
797.652	188.41
797.832	219.13
798.012	315.39
798.192	249.85
798.373	258.04
798.553	235.52
798.733	253.95
798.913	184.32
799.093	251.9
799.274	219.13
799.454	190.46
799.634	202.75
799.814	245.76
799.994	198.65
800.174	268.28
800.354	202.75
800.534	188.41
800.714	251.9
800.894	276.48
801.074	186.37
801.254	161.79
801.434	262.14
801.614	286.72
801.794	202.75
801.974	784.37
802.154	243.71
802.334	153.6
802.514	294.91
802.693	157.69
802.873	233.47
803.053	276.48
803.233	212.99
803.413	243.71
803.592	223.23
803.772	178.17
803.952	194.56
804.131	239.61
804.311	229.37
804.491	233.47
804.67	153.6
804.85	192.51
805.03	233.47
805.209	190.46
805.389	217.08
805.568	165.89
805.748	184.32
805.928	227.32
806.107	210.94
806.287	190.46
806.466	106.49
806.646	169.98
806.825	247.8
807.004	208.89
807.184	151.55
807.363	206.84
807.543	243.71
807.722	147.45
807.901	147.45
808.081	186.37
808.26	145.41
808.439	161.79
808.619	190.46
808.798	178.17
808.977	149.5
809.156	131.07
809.336	202.75
809.515	247.8
809.694	165.89
809.873	163.84
810.052	206.84
810.231	137.21
810.411	149.5
810.59	210.94
810.769	129.02
810.948	184.32
811.127	92.16
811.306	204.8
811.485	114.69
811.664	110.59
811.843	215.04
812.022	155.65
812.201	165.89
812.38	169.98
812.559	110.59
812.737	153.6
812.916	108.54
813.095	71.68
813.274	90.11
813.453	180.22
813.632	188.41
813.811	116.73
813.989	149.5
814.168	165.89
814.347	131.07
814.526	206.84
814.704	153.6
814.883	190.46
815.062	137.21
815.24	137.21
815.419	153.6
815.598	163.84
815.776	131.07
815.955	120.83
816.133	104.45
816.312	178.17
816.49	69.63
816.669	114.69
816.847	165.89
817.026	108.54
817.204	135.17
817.383	137.21
817.561	129.02
817.74	167.93
817.918	88.06
818.097	129.02
818.275	73.73
818.453	178.17
818.632	155.65
818.81	129.02
818.988	126.97
819.167	161.79
819.345	120.83
819.523	83.97
819.701	139.26
819.879	108.54
820.058	112.64
820.236	118.78
820.414	38.91
820.592	167.93
820.77	38.91
820.948	92.16
821.127	172.03
821.305	100.35
821.483	65.53
821.661	118.78
821.839	122.88
822.017	47.1
822.195	88.06
822.373	88.06
822.551	77.82
822.729	112.64
822.907	30.72
823.085	112.64
823.262	104.45
823.44	114.69
823.618	172.03
823.796	143.36
823.974	92.16
824.152	196.6
824.329	8.19
824.507	83.97
824.685	100.35
824.863	86.01
825.04	51.2
825.218	137.21
825.396	133.12
825.574	139.26
825.751	88.06
825.929	83.97
826.107	88.06
826.284	108.54
826.462	43.01
826.639	137.21
826.817	83.97
826.994	81.92
827.172	51.2
827.349	147.45
827.527	90.11
827.704	88.06
827.882	108.54
828.059	122.88
828.237	61.44
828.414	100.35
828.591	65.53
828.769	47.1
828.946	24.58
829.124	-20.48
829.301	120.83
829.478	67.58
829.655	55.3
829.833	81.92
830.01	40.96
830.187	38.91
830.364	120.83
830.542	106.49
830.719	69.63
830.896	55.3
831.073	108.54
831.25	49.15
831.427	79.87
831.604	26.62
831.782	51.2
831.959	49.15
832.136	51.2
832.313	137.21
832.49	55.3
832.667	159.74
832.844	63.49
833.021	40.96
833.198	67.58
833.374	120.83
833.551	79.87
833.728	65.53
833.905	30.72
834.082	79.87
834.259	83.97
834.436	83.97
834.612	32.77
834.789	55.3
834.966	98.3
835.143	92.16
835.319	73.73
835.496	98.3
835.673	86.01
835.85	88.06
836.026	22.53
836.203	73.73
836.38	12.29
836.556	63.49
836.733	79.87
836.909	114.69
837.086	30.72
837.262	47.1
837.439	61.44
837.616	40.96
837.792	-45.06
837.968	51.2
838.145	75.77
838.321	83.97
838.498	47.1
838.674	40.96
838.851	38.91
839.027	92.16
839.203	67.58
839.38	45.06
839.556	43.01
839.732	6.14
839.909	40.96
840.085	83.97
840.261	20.48
840.437	88.06
840.614	22.53
840.79	77.82
840.966	129.02
841.142	65.53
841.318	38.91
841.494	43.01
841.671	92.16
841.847	63.49
842.023	47.1
842.199	36.86
842.375	38.91
842.551	2.05
842.727	-40.96
842.903	81.92
843.079	38.91
843.255	104.45
843.431	8.19
843.607	90.11
843.783	55.3
843.959	104.45
844.134	59.39
844.31	88.06
844.486	69.63
844.662	69.63
844.838	30.72
845.013	81.92
845.189	63.49
845.365	49.15
845.541	81.92
845.716	40.96
845.892	67.58
846.068	47.1
846.244	14.34
846.419	67.58
846.595	26.62
846.77	-38.91
846.946	47.1
847.122	38.91
847.297	38.91
847.473	96.25
847.648	-10.24
847.824	88.06
847.999	45.06
848.175	30.72
848.35	98.3
848.526	83.97
848.701	-0
848.876	57.34
849.052	-57.34
849.227	-10.24
849.403	96.25
849.578	-0
849.753	14.34
849.929	26.62
850.104	-14.34
850.279	96.25
850.454	10.24
850.63	88.06
850.805	57.34
850.98	65.53
851.155	-12.29
851.33	32.77
851.505	55.3
851.681	204.8
851.856	86.01
852.031	71.68
852.206	63.49
852.381	-22.53
852.556	10.24
852.731	79.87
852.906	63.49
853.081	38.91
853.256	18.43
853.431	2.05
853.606	51.2
853.781	81.92
853.956	6.14
854.131	14.34
854.305	24.58
854.48	-18.43
854.655	34.82
854.83	14.34
855.005	92.16
855.18	77.82
855.354	-16.38
855.529	100.35
855.704	2.05
855.879	32.77
856.053	55.3
856.228	79.87
856.403	22.53
856.577	71.68
856.752	-55.3
856.926	-22.53
857.101	67.58
857.276	2.05
857.45	14.34
857.625	30.72
857.799	24.58
857.974	-16.38
858.148	8.19
858.323	59.39
858.497	-65.54
858.672	30.72
858.846	10.24
859.02	90.11
859.195	-16.38
859.369	-20.48
859.543	4.1
859.718	88.06
859.892	55.3
860.066	-51.2
860.241	-6.14
860.415	-6.14
860.589	43.01
860.763	40.96
860.938	71.68
861.112	22.53
861.286	-2.05
861.46	73.73
861.634	-18.43
861.808	59.39
861.982	-26.62
862.157	32.77
862.331	-30.72
862.505	-30.72
862.679	-108.54
862.853	73.73
863.027	-49.15
863.201	49.15
863.375	-43.01
863.549	-18.43
863.722	61.44
863.896	28.67
864.07	6.14
864.244	67.58
864.418	28.67
864.592	14.34
864.766	34.82
864.939	-22.53
865.113	-49.15
865.287	63.49
865.461	24.58
865.634	88.06
865.808	34.82
865.982	34.82
866.156	-47.1
866.329	10.24
866.503	-22.53
866.676	40.96
866.85	24.58
867.024	-51.2
867.197	38.91
867.371	77.82
867.544	18.43
867.718	12.29
867.891	102.4
868.065	-30.72
868.238	38.91
868.412	83.97
868.585	30.72
868.759	51.2
868.932	-24.58
869.105	16.38
869.279	24.58
869.452	-34.82
869.625	-24.58
869.799	-18.43
869.972	12.29
870.145	-2.05
870.319	-16.38
870.492	75.77
870.665	-10.24
870.838	4.1
871.011	-51.2
871.185	4.1
871.358	24.58
871.531	43.01
871.704	-43.01
871.877	51.2
872.05	55.3
872.223	-32.77
872.396	59.39
872.569	79.87
872.742	22.53
872.915	49.15
873.088	22.53
873.261	-40.96
873.434	26.62
873.607	90.11
873.78	-2.05
873.953	-40.96
874.126	18.43
874.299	6.14
874.471	24.58
874.644	-8.19
874.817	6.14
874.99	28.67
875.163	24.58
875.335	22.53
875.508	-40.96
875.681	20.48
875.853	-51.2
876.026	53.25
876.199	34.82
876.371	-12.29
876.544	-6.14
876.717	6.14
876.889	-10.24
877.062	-36.86
877.234	-24.58
877.407	71.68
877.579	22.53
877.752	22.53
877.924	51.2
878.097	49.15
878.269	63.49
878.442	22.53
878.614	28.67
878.786	-12.29
878.959	4.1
879.131	4.1
879.303	30.72
879.476	-34.82
879.648	79.87
879.82	47.1
879.993	34.82
880.165	43.01
880.337	-2.05
880.509	40.96
880.681	-0
880.854	-20.48
881.026	-38.91
881.198	104.45
881.37	-22.53
881.542	67.58
881.714	-28.67
881.886	-26.62
882.058	79.87
882.23	59.39
882.402	86.01
882.574	36.86
882.746	34.82
882.918	30.72
883.09	28.67
883.262	-51.2
883.434	-4.1
883.606	79.87
883.778	-18.43
883.95	-18.43
884.122	16.38
884.293	86.01
884.465	14.34
884.637	14.34
884.809	20.48
884.98	6.14
885.152	61.44
885.324	22.53
885.496	-90.11
885.667	-10.24
885.839	10.24
886.011	61.44
886.182	38.91
886.354	18.43
886.525	-34.82
886.697	-49.15
886.869	-14.34
887.04	8.19
887.212	67.58
887.383	69.63
887.555	-43.01
887.726	30.72
887.897	-47.1
888.069	-2.05
888.24	55.3
888.412	-32.77
888.583	32.77
888.754	-18.43
888.926	8.19
889.097	-18.43
889.268	-83.97
889.44	8.19
889.611	57.34
889.782	-43.01
889.953	-16.38
890.125	22.53
890.296	49.15
890.467	6.14
890.638	-16.38
890.809	24.58
890.98	47.1
891.151	51.2
891.323	75.77
891.494	30.72
891.665	2.05
891.836	-47.1
892.007	90.11
892.178	-40.96
892.349	6.14
892.52	-30.72
892.691	-30.72
892.862	63.49
893.032	-26.62
893.203	-16.38
893.374	-26.62
893.545	45.06
893.716	14.34
893.887	71.68
894.057	14.34
894.228	38.91
894.399	-6.14
894.57	24.58
894.74	-26.62
894.911	-34.82
895.082	8.19
895.253	51.2
895.423	12.29
895.594	14.34
895.764	51.2
895.935	24.58
896.106	69.63
896.276	14.34
896.447	-2.05
896.617	-14.34
896.788	63.49
896.958	-0
897.129	36.86
897.299	67.58
897.47	20.48
897.64	-22.53
897.81	-30.72
897.981	20.48
898.151	2.05
898.322	-24.58
898.492	-10.24
898.662	-26.62
898.832	26.62
899.003	43.01
899.173	-26.62
899.343	22.53
899.513	-4.1
