Data from USB4F104151__167__14-19-52-240.txt Node

Date: Thu Mar 13 14:19:52 EDT 2025
User: louis
Spectrometer: USB4F10415
Trigger mode: 4
Integration Time (sec): 2.000000E-2
Scans to average: 1
Electric dark correction enabled: true
Nonlinearity correction enabled: false
Boxcar width: 0
XAxis mode: Wavelengths
Number of Pixels in Spectrum: 3648
>>>>>Begin Spectral Data<<<<<
178.204	-119.81
178.424	-119.81
178.644	-119.81
178.864	-62.46
179.084	-58.37
179.304	15.36
179.524	31.74
179.744	15.36
179.964	19.46
180.184	5.12
180.404	21.5
180.624	-25.6
180.844	25.6
181.064	-37.89
181.283	-44.03
181.503	-46.08
181.723	19.46
181.943	-87.04
182.163	56.32
182.383	48.13
182.602	-3.07
182.822	48.13
183.042	56.32
183.262	-11.26
183.482	56.32
183.701	9.22
183.921	68.61
184.141	39.94
184.361	46.08
184.58	-5.12
184.8	15.36
185.02	74.75
185.239	23.55
185.459	1.02
185.679	99.33
185.898	23.55
186.118	52.22
186.338	-3.07
186.557	76.8
186.777	35.84
186.997	74.75
187.216	54.27
187.436	152.57
187.655	58.37
187.875	68.61
188.095	-3.07
188.314	95.23
188.534	50.18
188.753	50.18
188.973	87.04
189.192	162.81
189.412	3.07
189.631	23.55
189.851	13.31
190.07	29.7
190.29	44.03
190.509	23.55
190.729	80.89
190.948	35.84
191.168	175.1
191.387	91.13
191.607	44.03
191.826	27.65
192.045	84.99
192.265	60.42
192.484	52.22
192.704	23.55
192.923	3.07
193.142	185.34
193.362	19.46
193.581	76.8
193.8	54.27
194.02	70.65
194.239	33.79
194.458	128
194.678	-5.12
194.897	132.09
195.116	-5.12
195.335	33.79
195.555	111.61
195.774	80.89
195.993	107.52
196.212	109.57
196.432	41.98
196.651	23.55
196.87	58.37
197.089	115.71
197.308	33.79
197.528	95.23
197.747	48.13
197.966	15.36
198.185	95.23
198.404	95.23
198.623	27.65
198.842	134.14
199.062	52.22
199.281	103.42
199.5	27.65
199.719	130.05
199.938	46.08
200.157	48.13
200.376	62.46
200.595	70.65
200.814	5.12
201.033	27.65
201.252	125.95
201.471	-27.65
201.69	39.94
201.909	-17.41
202.128	23.55
202.347	46.08
202.566	37.89
202.785	80.89
203.004	-23.55
203.223	105.47
203.442	105.47
203.661	19.46
203.879	48.13
204.098	44.03
204.317	31.74
204.536	105.47
204.755	130.05
204.974	93.18
205.193	3.07
205.411	80.89
205.63	80.89
205.849	48.13
206.068	21.5
206.287	39.94
206.505	105.47
206.724	17.41
206.943	78.85
207.162	31.74
207.381	89.09
207.599	27.65
207.818	68.61
208.037	-1.02
208.255	31.74
208.474	-41.98
208.693	-64.51
208.911	54.27
209.13	68.61
209.349	37.89
209.567	64.51
209.786	68.61
210.005	130.05
210.223	-9.22
210.442	-5.12
210.661	33.79
210.879	93.18
211.098	64.51
211.316	95.23
211.535	95.23
211.753	21.5
211.972	68.61
212.191	31.74
212.409	27.65
212.628	27.65
212.846	46.08
213.065	-9.22
213.283	177.15
213.502	31.74
213.72	48.13
213.938	91.13
214.157	60.42
214.375	37.89
214.594	66.56
214.812	97.28
215.031	109.57
215.249	68.61
215.467	3.07
215.686	-29.7
215.904	103.42
216.122	44.03
216.341	80.89
216.559	48.13
216.778	101.37
216.996	52.22
217.214	37.89
217.432	44.03
217.651	37.89
217.869	93.18
218.087	68.61
218.306	31.74
218.524	3.07
218.742	72.7
218.96	52.22
219.179	117.76
219.397	52.22
219.615	70.65
219.833	3.07
220.051	31.74
220.27	46.08
220.488	60.42
220.706	60.42
220.924	7.17
221.142	103.42
221.36	27.65
221.578	54.27
221.796	107.52
222.015	62.46
222.233	19.46
222.451	68.61
222.669	23.55
222.887	54.27
223.105	19.46
223.323	48.13
223.541	-13.31
223.759	50.18
223.977	-21.5
224.195	76.8
224.413	50.18
224.631	33.79
224.849	48.13
225.067	130.05
225.285	64.51
225.503	84.99
225.721	-46.08
225.939	39.94
226.157	101.37
226.375	179.2
226.592	52.22
226.81	35.84
227.028	168.96
227.246	37.89
227.464	-13.31
227.682	93.18
227.9	25.6
228.117	72.7
228.335	52.22
228.553	48.13
228.771	128
228.989	29.7
229.206	39.94
229.424	76.8
229.642	-58.37
229.86	-19.46
230.077	35.84
230.295	7.17
230.513	76.8
230.731	25.6
230.948	68.61
231.166	84.99
231.384	7.17
231.601	87.04
231.819	105.47
232.037	35.84
232.254	-1.02
232.472	7.17
232.689	84.99
232.907	39.94
233.125	41.98
233.342	76.8
233.56	52.22
233.777	25.6
233.995	87.04
234.213	117.76
234.43	103.42
234.648	-9.22
234.865	87.04
235.083	150.53
235.3	3.07
235.518	76.8
235.735	97.28
235.953	87.04
236.17	23.55
236.388	37.89
236.605	-66.56
236.822	95.23
237.04	60.42
237.257	11.26
237.475	5.12
237.692	-11.26
237.909	60.42
238.127	80.89
238.344	128
238.562	80.89
238.779	-15.36
238.996	19.46
239.214	3.07
239.431	-1.02
239.648	31.74
239.865	74.75
240.083	35.84
240.3	68.61
240.517	-5.12
240.735	76.8
240.952	97.28
241.169	19.46
241.386	87.04
241.603	84.99
241.821	76.8
242.038	93.18
242.255	101.37
242.472	62.46
242.689	52.22
242.907	13.31
243.124	19.46
243.341	44.03
243.558	-3.07
243.775	31.74
243.992	29.7
244.209	142.33
244.426	93.18
244.643	27.65
244.86	19.46
245.078	35.84
245.295	111.61
245.512	60.42
245.729	27.65
245.946	52.22
246.163	84.99
246.38	95.23
246.597	54.27
246.814	3.07
247.031	72.7
247.248	134.14
247.464	27.65
247.681	80.89
247.898	-3.07
248.115	142.33
248.332	13.31
248.549	97.28
248.766	80.89
248.983	64.51
249.2	70.65
249.417	21.5
249.633	-3.07
249.85	78.85
250.067	60.42
250.284	87.04
250.501	68.61
250.717	76.8
250.934	-7.17
251.151	44.03
251.368	101.37
251.585	87.04
251.801	31.74
252.018	44.03
252.235	3.07
252.451	21.5
252.668	13.31
252.885	27.65
253.102	54.27
253.318	13.31
253.535	31.74
253.752	37.89
253.968	35.84
254.185	19.46
254.401	68.61
254.618	95.23
254.835	80.89
255.051	89.09
255.268	37.89
255.484	35.84
255.701	35.84
255.917	78.85
256.134	52.22
256.351	80.89
256.567	-46.08
256.784	60.42
257	-35.84
257.217	13.31
257.433	31.74
257.65	109.57
257.866	64.51
258.082	29.7
258.299	-37.89
258.515	66.56
258.732	-15.36
258.948	52.22
259.165	37.89
259.381	54.27
259.597	119.81
259.814	25.6
260.03	44.03
260.246	54.27
260.463	103.42
260.679	93.18
260.895	-11.26
261.112	-13.31
261.328	29.7
261.544	-37.89
261.761	70.65
261.977	74.75
262.193	48.13
262.409	76.8
262.626	72.7
262.842	13.31
263.058	-3.07
263.274	62.46
263.49	-7.17
263.707	87.04
263.923	13.31
264.139	72.7
264.355	37.89
264.571	76.8
264.787	39.94
265.004	119.81
265.22	-15.36
265.436	31.74
265.652	56.32
265.868	107.52
266.084	44.03
266.3	60.42
266.516	76.8
266.732	52.22
266.948	68.61
267.164	35.84
267.38	56.32
267.596	89.09
267.812	84.99
268.028	15.36
268.244	-9.22
268.46	21.5
268.676	41.98
268.892	140.29
269.108	46.08
269.324	84.99
269.54	-66.56
269.756	103.42
269.972	29.7
270.188	48.13
270.403	52.22
270.619	46.08
270.835	7.17
271.051	15.36
271.267	44.03
271.483	46.08
271.698	103.42
271.914	52.22
272.13	23.55
272.346	62.46
272.562	13.31
272.777	158.72
272.993	68.61
273.209	74.75
273.425	89.09
273.64	21.5
273.856	48.13
274.072	58.37
274.287	33.79
274.503	109.57
274.719	15.36
274.934	35.84
275.15	-66.56
275.366	87.04
275.581	31.74
275.797	13.31
276.012	62.46
276.228	17.41
276.444	35.84
276.659	80.89
276.875	54.27
277.09	101.37
277.306	-46.08
277.521	93.18
277.737	39.94
277.952	93.18
278.168	19.46
278.383	21.5
278.599	58.37
278.814	113.66
279.03	80.89
279.245	113.66
279.461	11.26
279.676	29.7
279.892	87.04
280.107	52.22
280.322	87.04
280.538	23.55
280.753	27.65
280.969	74.75
281.184	76.8
281.399	3.07
281.615	-9.22
281.83	74.75
282.045	3.07
282.26	89.09
282.476	-9.22
282.691	52.22
282.906	70.65
283.122	103.42
283.337	17.41
283.552	37.89
283.767	117.76
283.983	60.42
284.198	52.22
284.413	93.18
284.628	84.99
284.843	44.03
285.058	117.76
285.274	23.55
285.489	3.07
285.704	39.94
285.919	-52.22
286.134	56.32
286.349	80.89
286.564	99.33
286.779	134.14
286.995	93.18
287.21	84.99
287.425	13.31
287.64	113.66
287.855	97.28
288.07	62.46
288.285	117.76
288.5	60.42
288.715	117.76
288.93	-3.07
289.145	-17.41
289.36	44.03
289.575	31.74
289.79	60.42
290.004	84.99
290.219	37.89
290.434	56.32
290.649	-37.89
290.864	21.5
291.079	35.84
291.294	78.85
291.509	23.55
291.724	31.74
291.938	-3.07
292.153	93.18
292.368	64.51
292.583	111.61
292.798	33.79
293.012	21.5
293.227	11.26
293.442	54.27
293.657	68.61
293.871	31.74
294.086	-1.02
294.301	134.14
294.516	27.65
294.73	68.61
294.945	19.46
295.16	19.46
295.374	87.04
295.589	125.95
295.804	21.5
296.018	76.8
296.233	60.42
296.447	111.61
296.662	54.27
296.877	80.89
297.091	44.03
297.306	76.8
297.52	54.27
297.735	76.8
297.949	7.17
298.164	76.8
298.378	29.7
298.593	39.94
298.807	78.85
299.022	84.99
299.236	56.32
299.451	-5.12
299.665	-25.6
299.88	113.66
300.094	95.23
300.309	21.5
300.523	52.22
300.737	64.51
300.952	72.7
301.166	76.8
301.381	93.18
301.595	39.94
301.809	13.31
302.024	78.85
302.238	44.03
302.452	93.18
302.667	-17.41
302.881	66.56
303.095	142.33
303.309	44.03
303.524	89.09
303.738	76.8
303.952	76.8
304.166	136.19
304.381	-23.55
304.595	84.99
304.809	21.5
305.023	84.99
305.237	17.41
305.452	62.46
305.666	70.65
305.88	103.42
306.094	44.03
306.308	107.52
306.522	-15.36
306.736	97.28
306.95	87.04
307.164	-13.31
307.379	125.95
307.593	138.24
307.807	78.85
308.021	103.42
308.235	109.57
308.449	-25.6
308.663	68.61
308.877	150.53
309.091	91.13
309.305	76.8
309.519	-93.18
309.733	72.7
309.947	37.89
310.161	76.8
310.374	39.94
310.588	109.57
310.802	13.31
311.016	19.46
311.23	70.65
311.444	91.13
311.658	82.94
311.872	76.8
312.085	3.07
312.299	56.32
312.513	60.42
312.727	23.55
312.941	5.12
313.154	130.05
313.368	-11.26
313.582	7.17
313.796	29.7
314.009	35.84
314.223	11.26
314.437	84.99
314.651	23.55
314.864	54.27
315.078	-5.12
315.292	44.03
315.505	37.89
315.719	171.01
315.933	123.9
316.146	70.65
316.36	-9.22
316.573	19.46
316.787	27.65
317.001	-35.84
317.214	54.27
317.428	-5.12
317.641	-19.46
317.855	44.03
318.068	48.13
318.282	95.23
318.495	76.8
318.709	68.61
318.922	46.08
319.136	68.61
319.349	84.99
319.563	9.22
319.776	109.57
319.99	23.55
320.203	78.85
320.417	95.23
320.63	138.24
320.843	128
321.057	91.13
321.27	105.47
321.483	101.37
321.697	97.28
321.91	23.55
322.124	21.5
322.337	80.89
322.55	39.94
322.763	68.61
322.977	39.94
323.19	37.89
323.403	-60.42
323.617	44.03
323.83	35.84
324.043	105.47
324.256	17.41
324.469	93.18
324.683	52.22
324.896	44.03
325.109	84.99
325.322	66.56
325.535	103.42
325.748	48.13
325.962	64.51
326.175	74.75
326.388	146.43
326.601	52.22
326.814	119.81
327.027	103.42
327.24	60.42
327.453	29.7
327.666	31.74
327.879	44.03
328.092	119.81
328.305	37.89
328.518	91.13
328.731	95.23
328.944	56.32
329.157	68.61
329.37	-48.13
329.583	156.67
329.796	103.42
330.009	27.65
330.222	-1.02
330.435	97.28
330.648	25.6
330.861	33.79
331.073	62.46
331.286	27.65
331.499	87.04
331.712	44.03
331.925	66.56
332.138	84.99
332.35	93.18
332.563	52.22
332.776	31.74
332.989	31.74
333.202	11.26
333.414	76.8
333.627	62.46
333.84	68.61
334.053	44.03
334.265	66.56
334.478	60.42
334.691	101.37
334.903	27.65
335.116	105.47
335.329	80.89
335.541	31.74
335.754	48.13
335.966	-9.22
336.179	29.7
336.392	68.61
336.604	60.42
336.817	35.84
337.029	44.03
337.242	46.08
337.454	87.04
337.667	1.02
337.88	54.27
338.092	31.74
338.305	70.65
338.517	52.22
338.729	138.24
338.942	3.07
339.154	21.5
339.367	80.89
339.579	80.89
339.792	54.27
340.004	158.72
340.217	54.27
340.429	78.85
340.641	-46.08
340.854	84.99
341.066	72.7
341.278	95.23
341.491	70.65
341.703	60.42
341.915	5.12
342.128	33.79
342.34	44.03
342.552	27.65
342.764	56.32
342.977	76.8
343.189	78.85
343.401	130.05
343.613	23.55
343.826	80.89
344.038	56.32
344.25	125.95
344.462	37.89
344.674	44.03
344.886	107.52
345.099	60.42
345.311	93.18
345.523	52.22
345.735	64.51
345.947	48.13
346.159	97.28
346.371	56.32
346.583	31.74
346.795	84.99
347.007	68.61
347.219	66.56
347.431	19.46
347.643	138.24
347.855	25.6
348.067	146.43
348.279	58.37
348.491	64.51
348.703	103.42
348.915	56.32
349.127	78.85
349.339	158.72
349.551	84.99
349.763	56.32
349.975	27.65
350.187	109.57
350.399	107.52
350.61	60.42
350.822	82.94
351.034	119.81
351.246	46.08
351.458	76.8
351.669	56.32
351.881	82.94
352.093	35.84
352.305	87.04
352.517	56.32
352.728	52.22
352.94	37.89
353.152	44.03
353.363	44.03
353.575	70.65
353.787	103.42
353.999	72.7
354.21	70.65
354.422	60.42
354.633	68.61
354.845	70.65
355.057	68.61
355.268	29.7
355.48	-5.12
355.692	60.42
355.903	72.7
356.115	68.61
356.326	5.12
356.538	84.99
356.749	17.41
356.961	80.89
357.172	13.31
357.384	125.95
357.595	146.43
357.807	11.26
358.018	99.33
358.23	70.65
358.441	93.18
358.653	93.18
358.864	31.74
359.075	-19.46
359.287	101.37
359.498	31.74
359.709	21.5
359.921	72.7
360.132	80.89
360.344	82.94
360.555	93.18
360.766	68.61
360.977	89.09
361.189	56.32
361.4	60.42
361.611	150.53
361.823	76.8
362.034	15.36
362.245	7.17
362.456	103.42
362.667	162.81
362.879	-1.02
363.09	52.22
363.301	78.85
363.512	52.22
363.723	70.65
363.935	-31.74
364.146	134.14
364.357	80.89
364.568	60.42
364.779	46.08
364.99	111.61
365.201	66.56
365.412	93.18
365.623	15.36
365.834	84.99
366.045	72.7
366.256	80.89
366.467	93.18
366.678	52.22
366.889	66.56
367.1	111.61
367.311	62.46
367.522	-11.26
367.733	15.36
367.944	31.74
368.155	9.22
368.366	103.42
368.577	121.85
368.788	80.89
368.999	52.22
369.209	56.32
369.42	33.79
369.631	150.53
369.842	136.19
370.053	27.65
370.264	117.76
370.474	35.84
370.685	93.18
370.896	44.03
371.107	87.04
371.317	121.85
371.528	31.74
371.739	117.76
371.95	29.7
372.16	97.28
372.371	60.42
372.582	60.42
372.792	103.42
373.003	72.7
373.214	62.46
373.424	31.74
373.635	46.08
373.846	113.66
374.056	23.55
374.267	62.46
374.477	74.75
374.688	46.08
374.898	60.42
375.109	74.75
375.319	68.61
375.53	113.66
375.74	62.46
375.951	44.03
376.161	39.94
376.372	27.65
376.582	13.31
376.793	97.28
377.003	150.53
377.214	52.22
377.424	99.33
377.635	56.32
377.845	84.99
378.055	113.66
378.266	48.13
378.476	84.99
378.686	80.89
378.897	107.52
379.107	76.8
379.317	35.84
379.528	105.47
379.738	52.22
379.948	37.89
380.158	60.42
380.369	70.65
380.579	33.79
380.789	84.99
380.999	44.03
381.21	93.18
381.42	70.65
381.63	-37.89
381.84	101.37
382.05	119.81
382.261	142.33
382.471	35.84
382.681	78.85
382.891	117.76
383.101	154.62
383.311	89.09
383.521	99.33
383.731	80.89
383.941	134.14
384.151	46.08
384.361	152.57
384.571	80.89
384.781	76.8
384.991	60.42
385.201	27.65
385.411	84.99
385.621	74.75
385.831	101.37
386.041	76.8
386.251	76.8
386.461	80.89
386.671	76.8
386.881	89.09
387.091	3.07
387.301	11.26
387.511	60.42
387.72	146.43
387.93	52.22
388.14	21.5
388.35	89.09
388.56	111.61
388.769	142.33
388.979	109.57
389.189	60.42
389.399	64.51
389.609	136.19
389.818	84.99
390.028	46.08
390.238	125.95
390.447	54.27
390.657	97.28
390.867	68.61
391.076	78.85
391.286	19.46
391.496	117.76
391.705	41.98
391.915	166.91
392.125	84.99
392.334	62.46
392.544	134.14
392.753	37.89
392.963	76.8
393.172	101.37
393.382	-3.07
393.591	60.42
393.801	19.46
394.01	121.85
394.22	66.56
394.429	80.89
394.639	70.65
394.848	101.37
395.058	158.72
395.267	66.56
395.477	103.42
395.686	52.22
395.895	134.14
396.105	166.91
396.314	115.71
396.524	64.51
396.733	93.18
396.942	228.35
397.152	-5.12
397.361	183.29
397.57	60.42
397.78	148.48
397.989	95.23
398.198	105.47
398.407	140.29
398.617	97.28
398.826	80.89
399.035	84.99
399.244	152.57
399.453	78.85
399.663	128
399.872	183.29
400.081	89.09
400.29	125.95
400.499	146.43
400.708	185.34
400.917	95.23
401.127	130.05
401.336	97.28
401.545	275.45
401.754	134.14
401.963	109.57
402.172	107.52
402.381	78.85
402.59	142.33
402.799	134.14
403.008	191.49
403.217	185.34
403.426	117.76
403.635	123.9
403.844	166.91
404.053	162.81
404.262	80.89
404.471	199.68
404.68	146.43
404.888	138.24
405.097	191.49
405.306	177.15
405.515	183.29
405.724	144.38
405.933	152.57
406.142	216.06
406.35	150.53
406.559	193.53
406.768	209.92
406.977	297.98
407.185	187.39
407.394	265.21
407.603	175.1
407.812	177.15
408.02	201.72
408.229	183.29
408.438	240.64
408.646	209.92
408.855	207.87
409.064	302.08
409.272	257.02
409.481	308.22
409.69	252.92
409.898	312.32
410.107	273.4
410.315	320.51
410.524	326.65
410.733	306.17
410.941	363.51
411.15	371.71
411.358	334.84
411.567	390.14
411.775	373.75
411.984	310.27
412.192	396.28
412.401	470.01
412.609	478.2
412.818	562.17
413.026	420.86
413.234	490.49
413.443	459.77
413.651	560.12
413.86	601.08
414.068	627.7
414.276	603.13
414.485	576.5
414.693	580.6
414.901	687.09
415.11	678.9
415.318	697.33
415.526	652.28
415.734	732.15
415.943	750.58
416.151	777.2
416.359	762.87
416.567	789.49
416.776	789.49
416.984	936.95
417.192	902.13
417.4	969.71
417.608	820.21
417.817	861.17
418.025	977.91
418.233	1072.11
418.441	1008.62
418.649	1057.78
418.857	1174.51
419.065	1199.09
419.273	1172.46
419.481	1260.52
419.689	1285.1
419.897	1266.67
420.105	1324.01
420.313	1403.88
420.521	1506.28
420.729	1526.76
420.937	1436.65
421.145	1573.86
421.353	1641.45
421.561	1709.03
421.769	1799.14
421.977	1856.48
422.185	1909.73
422.393	1780.71
422.601	2020.32
422.809	2032.61
423.017	2149.34
423.224	2151.39
423.432	2218.97
423.64	2229.21
423.848	2329.56
424.056	2317.28
424.263	2583.51
424.471	2540.51
424.679	2505.69
424.887	2755.54
425.094	2833.36
425.302	2784.21
425.51	2941.91
425.718	3021.78
425.925	3189.71
426.133	3142.61
426.341	3296.21
426.548	3576.78
426.756	3376.08
426.964	3431.37
427.171	3705.8
427.379	3818.44
427.586	3773.38
427.794	4115.39
428.001	4182.98
428.209	4459.45
428.417	4246.46
428.624	4529.08
428.832	4438.97
429.039	4565.95
429.247	4481.98
429.454	4967.35
429.662	5260.21
429.869	5049.27
430.076	5278.64
430.284	5200.82
430.491	5370.8
430.699	5718.95
430.906	5641.13
431.114	5774.25
431.321	5903.27
431.528	6007.72
431.736	6560.67
431.943	6671.26
432.15	6423.45
432.358	6726.55
432.565	6900.63
432.772	6900.63
432.979	7273.36
433.187	7449.49
433.394	7498.64
433.601	7981.96
433.808	8168.32
434.016	7816.07
434.223	8133.51
434.43	8721.27
434.637	8811.39
434.844	9237.36
435.052	9290.61
435.259	9231.22
435.466	9177.97
435.673	9096.05
435.88	9827.18
436.087	10161
436.294	10345.31
436.501	9802.6
436.708	10247.01
436.915	10595.17
437.122	11162.45
437.329	10957.66
437.537	11418.45
437.743	11469.65
437.95	11471.7
438.157	12262.21
438.364	12555.07
438.571	12364.61
438.778	12682.05
438.985	13912.88
439.192	13304.63
439.399	13468.47
439.606	13220.66
439.813	14080.81
440.02	14715.68
440.227	14785.31
440.433	14441.25
440.64	14777.12
440.847	14793.5
441.054	15067.93
441.261	16198.41
441.467	16026.38
441.674	16370.44
441.881	16831.23
442.088	16820.99
442.294	16497.41
442.501	17154.81
442.708	17566.45
442.914	18215.66
443.121	18584.29
443.328	18424.55
443.534	19589.85
443.741	19073.76
443.948	19040.99
444.154	20316.87
444.361	20253.39
444.568	20265.67
444.774	20433.61
444.981	20445.9
445.187	20974.27
445.394	21863.09
445.6	21826.23
445.807	23782.04
446.013	22592.17
446.22	23138.97
446.426	23931.54
446.633	24195.73
446.839	25162.37
447.046	23726.74
447.252	25272.96
447.459	25275.01
447.665	25244.29
447.871	26073.71
448.078	27345.5
448.284	26274.42
448.491	26790.5
448.697	28043.86
448.903	28727.88
449.11	28719.69
449.316	28136.02
449.522	28430.93
449.728	29403.71
449.935	29647.42
450.141	29725.24
450.347	29948.47
450.553	29350.46
450.76	29653.56
450.966	30695.98
451.172	30411.31
451.378	31005.22
451.584	30587.44
451.791	31136.29
451.997	31191.59
452.203	31570.46
452.409	31638.05
452.615	31246.88
452.821	30405.17
453.027	29827.64
453.233	31443.49
453.44	30245.43
453.646	30679.6
453.852	30941.74
454.058	31244.84
454.264	30538.29
454.47	31001.13
454.676	30194.23
454.882	31406.62
455.088	28371.54
455.294	29162.05
455.5	29342.27
455.705	30102.07
455.911	28598.86
456.117	27685.47
456.323	27767.38
456.529	26303.09
456.735	27316.83
456.941	26632.81
457.147	26497.64
457.352	25375.36
457.558	24969.86
457.764	25225.86
457.97	24980.1
458.176	24418.96
458.381	24369.8
458.587	22768.29
458.793	23100.06
458.999	21791.41
459.204	23610.01
459.41	23059.1
459.616	21301.95
459.821	21516.98
460.027	21308.09
460.233	21146.3
460.438	19872.46
460.644	19890.9
460.85	19147.48
461.055	19104.48
461.261	18823.9
461.466	17490.68
461.672	16777.98
461.878	17988.33
462.083	16935.68
462.289	16421.64
462.494	16470.79
462.7	15667.98
462.905	15405.84
463.111	15788.82
463.316	15661.84
463.522	15706.9
463.727	15479.57
463.932	15291.16
464.138	15313.69
464.343	15555.35
464.549	14816.03
464.754	15276.82
464.959	15205.14
465.165	15094.55
465.37	14588.71
465.575	14132.01
465.781	14832.41
465.986	14730.02
466.191	14224.17
466.397	14273.32
466.602	13316.92
466.807	13931.31
467.012	13941.55
467.218	13650.74
467.423	13540.15
467.628	13638.45
467.833	14408.48
468.038	13835.05
468.244	13558.58
468.449	13732.65
468.654	13495.09
468.859	13259.57
469.064	13198.13
469.269	12858.17
469.474	12659.52
469.679	12995.39
469.885	12753.73
470.09	13015.87
470.295	12917.56
470.5	12438.34
470.705	12464.96
470.91	12104.52
471.115	12008.26
471.32	12440.39
471.525	12032.84
471.73	12106.57
471.935	11807.56
472.139	11819.85
472.344	11682.64
472.549	11680.59
472.754	11299.67
472.959	11338.58
473.164	11084.63
473.369	10885.98
473.574	11400.02
473.778	11201.37
473.983	11066.2
474.188	10984.28
474.393	10468.19
474.598	10492.77
474.802	10564.45
475.007	10238.82
475.212	10351.46
475.417	10126.18
475.621	10001.26
475.826	10236.77
476.031	9956.2
476.235	9694.06
476.44	10042.21
476.645	9655.15
476.849	9726.83
477.054	9395.06
477.259	9350
477.463	9368.43
477.668	9268.08
477.872	9337.71
478.077	9286.51
478.282	8956.79
478.486	8924.02
478.691	8741.75
478.895	8887.16
479.1	8577.92
479.304	8860.54
479.509	8479.61
479.713	8780.67
479.918	8518.53
480.122	8338.3
480.326	8467.33
480.531	8375.17
480.735	8422.27
480.94	8211.33
481.144	8723.32
481.348	8027.01
481.553	8203.14
481.757	8076.16
481.961	8244.1
482.166	8383.36
482.37	8227.71
482.574	8047.49
482.778	8276.87
482.983	8424.32
483.187	8086.4
483.391	7981.96
483.595	7967.62
483.8	8065.92
484.004	8100.74
484.208	8127.36
484.412	8113.03
484.616	8012.68
484.821	8070.02
485.025	7975.81
485.229	8211.33
485.433	7959.43
485.637	8094.6
485.841	7920.52
486.045	8041.35
486.249	8082.31
486.453	7957.38
486.657	7971.72
486.861	8137.6
487.065	7981.96
487.269	8082.31
487.473	7971.72
487.677	8160.13
487.881	8326.02
488.085	8063.88
488.289	7957.38
488.493	8088.45
488.697	8057.73
488.901	8233.86
489.105	8106.88
489.309	8205.19
489.512	8201.09
489.716	8289.15
489.92	8311.68
490.124	8342.4
490.328	8326.02
490.531	8055.69
490.735	8352.64
490.939	8276.87
491.143	8237.95
491.346	8248.19
491.55	8334.21
491.754	8328.06
491.958	8479.61
492.161	8452.99
492.365	8448.9
492.569	8567.68
492.772	8301.44
492.976	8602.49
493.18	8622.97
493.383	8633.21
493.587	8708.99
493.79	8694.65
493.994	8637.31
494.197	8889.21
494.401	9204.6
494.605	8973.18
494.808	9046.9
495.012	9077.62
495.215	9231.22
495.419	9198.45
495.622	9161.59
495.825	9241.46
496.029	9374.58
496.232	9397.1
496.436	9452.4
496.639	9710.44
496.843	9706.35
497.046	9921.38
497.249	9937.77
497.453	10247.01
497.656	9905
497.859	10253.16
498.063	10212.2
498.266	10318.69
498.469	10521.44
498.673	10476.38
498.876	10595.17
499.079	10693.47
499.282	10851.16
499.485	10996.57
499.689	10935.13
499.892	11316.05
500.095	11334.48
500.298	11381.59
500.501	11344.72
500.705	11795.28
500.908	11631.44
501.111	11903.82
501.314	11918.15
501.517	12012.36
501.72	12356.42
501.923	12174.15
502.126	12784.44
502.329	12737.34
502.532	12798.78
502.735	12929.85
502.938	13212.47
503.141	13198.13
503.344	13742.89
503.547	13534
503.75	13685.55
503.953	13992.75
504.156	13921.07
504.359	14005.03
504.562	14492.45
504.765	14365.48
504.968	14687.01
505.17	14629.66
505.373	14717.73
505.576	15209.24
505.779	15145.75
505.982	15176.47
506.185	15356.69
506.387	15444.76
506.59	15897.36
506.793	16032.52
506.996	16114.44
507.198	16503.56
507.401	16284.42
507.604	16519.94
507.807	16911.1
508.009	16810.75
508.212	17132.28
508.415	17285.88
508.617	17396.47
508.82	17441.53
509.022	17126.14
509.225	17943.28
509.428	18166.51
509.63	18373.35
509.833	18229.99
510.035	18635.49
510.238	18938.59
510.44	18911.97
510.643	19120.86
510.845	19249.88
511.048	19241.69
511.25	19552.98
511.453	19419.86
511.655	20339.4
511.858	20220.62
512.06	20323.02
512.262	20488.9
512.465	20482.76
512.667	20603.59
512.87	21205.69
513.072	21279.42
513.274	21686.97
513.477	21371.58
513.679	21791.41
513.881	21801.65
514.084	22534.82
514.286	22209.2
514.488	22295.21
514.69	22919.84
514.893	23083.68
515.095	23073.44
515.297	23556.76
515.499	23372.44
515.701	23681.69
515.904	24115.86
516.106	24197.77
516.308	24185.49
516.51	24695.43
516.712	24875.65
516.914	25287.29
517.116	25406.08
517.318	25416.32
517.52	25754.23
517.722	25758.33
517.925	25983.6
518.127	26385.01
518.329	26534.51
518.531	26305.13
518.733	26972.77
518.935	27249.25
519.136	26970.72
519.338	27595.35
519.54	27591.26
519.742	28150.35
519.944	28111.44
520.146	28439.12
520.348	28699.21
520.55	28639.82
520.752	28777.03
520.954	28981.83
521.155	29188.67
521.357	29506.11
521.559	29934.14
521.761	29831.74
521.963	30313.01
522.164	30255.67
522.366	30345.78
522.568	30595.63
522.77	30861.87
522.971	30964.26
523.173	30902.82
523.375	31246.88
523.576	31402.53
523.778	31334.95
523.98	31808.03
524.181	32053.78
524.383	31986.2
524.584	32449.04
524.786	31939.1
524.988	32602.64
525.189	32672.27
525.391	33122.82
525.592	32692.75
525.794	33315.33
525.995	33061.38
526.197	33245.7
526.398	33200.65
526.6	33425.92
526.801	33886.71
527.003	33548.8
527.204	33839.61
527.406	34165.24
527.607	33929.72
527.808	34312.69
528.01	33683.97
528.211	33933.82
528.412	34855.4
528.614	34527.73
528.815	34535.92
529.016	34744.81
529.218	34820.59
529.419	34750.96
529.62	34570.74
529.822	34800.11
530.023	35090.92
530.224	35056.11
530.425	35174.89
530.626	34832.88
530.828	34521.59
531.029	35920.35
531.23	35299.81
531.431	35123.69
531.632	35561.95
531.833	35586.53
532.035	35432.93
532.236	35404.26
532.437	35963.36
532.638	35568.1
532.839	35545.57
533.04	35662.3
533.241	35457.51
533.442	36401.62
533.643	35783.13
533.844	35834.33
534.045	35666.4
534.246	35555.81
534.447	35766.75
534.648	35488.23
534.849	35772.89
535.05	35547.62
535.251	35613.15
535.451	35654.11
535.652	35932.64
535.853	36151.77
536.054	35658.21
536.255	35838.43
536.456	35551.71
536.657	35973.6
536.857	35627.49
537.058	35838.43
537.259	35641.82
537.46	35703.26
537.66	35783.13
537.861	35832.29
538.062	35940.83
538.263	35906.01
538.463	35699.17
538.664	36092.38
538.865	35832.29
539.065	35994.07
539.266	35146.22
539.466	35934.68
539.667	35656.16
539.868	36022.75
540.068	35803.61
540.269	35322.34
540.469	35654.11
540.67	35432.93
540.87	36178.39
541.071	35197.41
541.271	35992.03
541.472	35467.75
541.672	35721.69
541.873	35246.57
542.073	35205.61
542.274	35916.25
542.474	35615.2
542.675	35516.9
542.875	36000.22
543.075	35418.6
543.276	35369.44
543.476	35830.24
543.676	35101.16
543.877	35793.37
544.077	35201.51
544.277	35529.19
544.478	35160.55
544.678	35566.05
544.878	35422.69
545.078	35650.02
545.279	35381.73
545.479	35295.72
545.679	35795.42
545.879	35500.51
546.079	35328.48
546.28	35123.69
546.48	34941.42
546.68	35246.57
546.88	35656.16
547.08	35316.2
547.28	35443.17
547.48	35070.44
547.68	35365.35
547.88	35363.3
548.081	35334.63
548.281	35178.98
548.481	34898.41
548.681	35297.77
548.881	35185.13
549.081	35228.13
549.28	35230.18
549.48	35334.63
549.68	35140.07
549.88	35846.62
550.08	35211.75
550.28	35484.13
550.48	35070.44
550.68	35455.46
550.88	35097.06
551.08	35170.79
551.279	35774.94
551.479	34863.6
551.679	35070.44
551.879	35076.58
552.079	35242.47
552.278	35074.54
552.478	35283.43
552.678	34949.61
552.878	35361.25
553.077	34681.33
553.277	34769.39
553.477	35154.41
553.676	34775.53
553.876	34974.19
554.076	34845.16
554.275	34783.73
554.475	34775.53
554.674	34699.76
554.874	35123.69
555.074	34984.43
555.273	34789.87
555.473	34832.88
555.672	34775.53
555.872	34654.7
556.071	34845.16
556.271	34669.04
556.47	34675.18
556.67	34460.15
556.869	34370.04
557.068	34296.31
557.268	34447.86
557.467	34757.1
557.667	34404.85
557.866	34525.68
558.065	34259.45
558.265	34216.44
558.464	34320.88
558.663	34609.65
558.863	33638.91
559.062	34404.85
559.261	34136.57
559.461	34126.33
559.66	33661.44
559.859	33868.28
560.058	33767.93
560.258	34050.55
560.457	33890.81
560.656	33600
560.855	33796.6
561.054	34421.23
561.253	33446.4
561.453	33755.64
561.652	33886.71
561.851	33909.24
562.05	33513.98
562.249	33454.59
562.448	33571.33
562.647	33780.22
562.846	33581.57
563.045	33649.15
563.244	33243.65
563.443	33417.73
563.642	33010.18
563.841	33366.53
564.04	33311.24
564.239	33253.89
564.438	32797.2
564.637	33274.37
564.836	33118.73
565.035	32752.14
565.234	33016.33
565.432	33079.82
565.631	32621.07
565.83	32782.86
566.029	32940.55
566.228	32627.21
566.427	32277.01
566.625	32514.58
566.824	31986.2
567.023	32666.13
567.222	31785.5
567.42	32348.69
567.619	32231.96
567.818	32016.92
568.016	31959.58
568.215	32211.48
568.414	32109.08
568.612	32387.6
568.811	31697.44
569.01	32068.12
569.208	31595.04
569.407	31779.36
569.605	31386.15
569.804	31687.2
570.002	31537.69
570.201	31506.98
570.4	31119.91
570.598	31250.98
570.797	30927.4
570.995	31152.68
571.193	30960.17
571.392	31193.64
571.59	30763.56
571.789	30913.06
571.987	30808.62
572.186	30450.22
572.384	30759.47
572.582	30569.01
572.781	30685.74
572.979	30308.91
573.177	30835.24
573.376	30470.7
573.574	29837.88
573.772	30605.87
573.971	30286.39
574.169	30112.31
574.367	29784.63
574.565	30259.76
574.763	30104.12
574.962	29962.81
575.16	29608.51
575.358	29921.85
575.556	29278.79
575.754	29919.8
575.952	29295.17
576.151	29477.44
576.349	29151.81
576.547	29293.12
576.745	29551.17
576.943	29416
577.141	29018.69
577.339	29338.18
577.537	28904.01
577.735	29065.8
577.933	28498.51
578.131	29018.69
578.329	28658.25
578.527	28228.18
578.725	28629.58
578.923	28699.21
579.121	28232.27
579.319	28365.39
579.516	28607.05
579.714	28217.94
579.912	28129.87
580.11	27939.41
580.308	28322.38
580.506	27900.5
580.704	27542.11
580.901	28179.03
581.099	28170.83
581.297	27695.71
581.495	27712.09
581.692	27738.71
581.89	27386.46
582.088	27521.63
582.285	27140.71
582.483	27607.64
582.681	27064.93
582.878	27320.93
583.076	27034.21
583.274	27386.46
583.471	27093.6
583.669	26864.23
583.866	26720.87
584.064	26767.98
584.262	26358.38
584.459	26636.91
584.657	26544.75
584.854	26882.66
585.052	25983.6
585.249	26509.93
585.447	26671.72
585.644	26200.69
585.841	26288.75
586.039	26479.21
586.236	25932.4
586.434	25889.4
586.631	25897.59
586.828	26100.34
587.026	25696.89
587.223	25866.87
587.42	25571.96
587.618	25764.47
587.815	25651.83
588.012	25385.6
588.21	25641.59
588.407	25496.19
588.604	25201.28
588.801	24916.61
588.999	25309.82
589.196	25223.81
589.393	25031.3
589.59	25037.44
589.787	25029.25
589.984	24498.83
590.182	24679.05
590.379	24789.64
590.576	24654.47
590.773	24861.32
590.97	24410.76
591.167	24502.92
591.364	23978.64
591.561	24484.49
591.758	24081.04
591.955	24261.26
592.152	24199.82
592.349	23782.04
592.546	24144.53
592.743	23933.59
592.94	23696.02
593.137	23958.16
593.334	23849.62
593.531	23364.25
593.727	23933.59
593.924	23886.48
594.121	23437.98
594.318	23392.92
594.515	23265.95
594.712	23218.85
594.908	23427.74
595.105	23319.2
595.302	22882.98
595.499	23171.74
595.696	23012
595.892	22545.06
596.089	22946.47
596.286	22901.41
596.482	22676.13
596.679	22559.4
596.876	22917.79
597.072	22241.96
597.269	22244.01
597.466	22059.7
597.662	22518.44
597.859	22432.43
598.055	22198.96
598.252	22221.48
598.448	22166.19
598.645	22137.52
598.841	21668.53
599.038	21803.7
599.234	22043.31
599.431	21564.09
599.627	21643.96
599.824	21924.53
600.02	21303.99
600.217	21404.35
600.413	21416.63
600.609	21158.59
600.806	21283.52
601.002	21406.39
601.198	21093.05
601.395	21199.55
601.591	21142.21
601.787	21033.66
601.984	21043.9
602.18	21082.81
602.376	20746.95
602.572	20501.19
602.769	20644.55
602.965	20746.95
603.161	21023.42
603.357	20449.99
603.553	20402.89
603.75	20525.77
603.946	20351.69
604.142	20353.74
604.338	20069.07
604.534	20310.73
604.73	19925.71
604.926	20208.33
605.122	20011.73
605.318	19874.51
605.514	19948.24
605.71	19804.88
605.906	19915.47
606.102	19499.73
606.298	19581.65
606.494	19747.54
606.69	19819.22
606.886	19718.87
607.082	19251.93
607.278	19497.69
607.474	19270.36
607.67	19516.12
607.866	19389.14
608.062	19788.5
608.257	19290.84
608.453	19077.85
608.649	19327.71
608.845	19040.99
609.041	19079.9
609.236	19106.52
609.432	19163.87
609.628	19088.09
609.824	18957.02
610.019	19071.71
610.215	18782.95
610.411	18680.55
610.606	18944.73
610.802	18680.55
610.998	18887.39
611.193	18950.88
611.389	18701.03
611.584	18574.05
611.78	18303.72
611.976	18578.15
612.171	18651.88
612.367	18369.26
612.562	18430.69
612.758	18428.65
612.953	18195.18
613.149	18387.69
613.344	18248.43
613.539	18557.67
613.735	18189.03
613.93	18475.75
614.126	18234.09
614.321	18672.36
614.517	18064.11
614.712	18017.01
614.907	18256.62
615.103	18275.05
615.298	18045.68
615.493	18301.67
615.688	17943.28
615.884	17988.33
616.079	17703.67
616.274	17814.26
616.47	17535.73
616.665	17910.51
616.86	17681.14
617.055	17861.36
617.25	17656.56
617.445	17863.41
617.641	17218.3
617.836	17621.75
618.031	17636.08
618.226	17738.48
618.421	17240.82
618.616	17617.65
618.811	17068.8
619.006	17400.57
619.201	16792.32
619.396	17289.98
619.591	16792.32
619.786	17181.43
619.981	16827.14
620.176	16947.97
620.371	16800.51
620.566	16579.33
620.761	16481.03
620.956	16542.47
621.151	16364.29
621.346	16497.41
621.541	16309
621.735	16358.15
621.93	16198.41
622.125	16077.58
622.32	15887.12
622.515	15807.25
622.709	15635.22
622.904	15825.68
623.099	15366.93
623.294	15930.12
623.488	15414.04
623.683	15573.78
623.878	15387.41
624.072	15307.54
624.267	15436.56
624.462	15287.06
624.656	14895.9
624.851	15145.75
625.046	15010.59
625.24	14893.85
625.435	14725.92
625.629	14633.76
625.824	14666.53
626.018	14832.41
626.213	14406.44
626.407	14297.89
626.602	14211.88
626.796	14271.27
626.991	14299.94
627.185	14021.42
627.38	13962.03
627.574	13966.12
627.768	14054.19
627.963	13701.93
628.157	13511.47
628.352	13636.4
628.546	13554.48
628.74	13468.47
628.935	13558.58
629.129	13372.21
629.323	13273.91
629.517	13411.12
629.712	13230.9
629.906	13251.38
630.1	12942.14
630.294	13011.77
630.489	12964.67
630.683	12827.45
630.877	12616.51
631.071	12745.53
631.265	12708.67
631.459	12329.8
631.653	12557.12
631.848	12407.62
632.042	12233.54
632.236	12460.87
632.43	12219.21
632.624	12342.08
632.818	12243.78
633.012	11869
633.206	12065.61
633.4	11977.55
633.594	11877.19
633.788	11862.86
633.982	11780.94
634.176	11647.82
634.369	11604.81
634.563	11762.51
634.757	11408.21
634.951	11578.19
635.145	11354.96
635.339	11549.52
635.533	11496.27
635.726	11361.11
635.92	11162.45
636.114	11275.09
636.308	11244.37
636.501	11217.75
636.695	10996.57
636.889	10939.23
637.083	10978.14
637.276	10824.54
637.47	10709.85
637.664	10681.18
637.857	10701.66
638.051	10685.28
638.244	10654.56
638.438	10484.58
638.632	10445.66
638.825	10468.19
639.019	10525.54
639.212	10267.49
639.406	10361.7
639.599	10077.03
639.793	10267.49
639.986	10134.37
640.18	10201.96
640.373	10005.35
640.567	9993.06
640.76	9790.31
640.954	9833.32
641.147	9847.66
641.34	9593.71
641.534	9558.89
641.727	9689.96
641.92	9726.83
642.114	9562.99
642.307	9460.59
642.5	9448.3
642.694	9169.78
642.887	8960.89
643.08	9415.54
643.273	9237.36
643.467	9237.36
643.66	9194.36
643.853	8907.64
644.046	8956.79
644.239	9104.25
644.432	8960.89
644.626	8819.58
644.819	8731.51
645.012	8835.96
645.205	8686.46
645.398	8872.82
645.591	8653.69
645.784	8522.62
645.977	8518.53
646.17	8479.61
646.363	8457.09
646.556	8467.33
646.749	8201.09
646.942	8459.13
647.135	8326.02
647.328	8246.15
647.521	8295.3
647.714	8213.38
647.907	8110.98
648.099	8190.85
648.292	8213.38
648.485	8137.6
648.678	8041.35
648.871	7836.55
649.064	7984.01
649.256	7666.57
649.449	7762.83
649.642	7764.87
649.835	7687.05
650.027	7621.52
650.22	7629.71
650.413	7621.52
650.605	7486.35
650.798	7525.26
650.991	7390.1
651.183	7465.87
651.376	7408.53
651.568	7652.24
651.761	7412.62
651.954	7353.23
652.146	7240.59
652.339	7158.67
652.531	7357.33
652.724	7127.96
652.916	7213.97
653.109	6984.6
653.301	7179.15
653.494	6976.41
653.686	7011.22
653.879	7068.56
654.071	6970.26
654.263	6853.53
654.456	6929.3
654.648	6769.56
654.84	6685.59
655.033	6534.04
655.225	6814.62
655.417	6763.42
655.61	6503.32
655.802	6525.85
655.994	6486.94
656.186	6493.08
656.379	6507.42
656.571	6599.58
656.763	6325.15
656.955	6417.31
657.148	6548.38
657.34	6343.58
657.532	6187.94
657.724	6298.53
657.916	6316.96
658.108	6237.09
658.3	6114.21
658.492	6286.24
658.684	6034.34
658.876	6048.68
659.068	6130.59
659.26	6034.34
659.452	5872.55
659.644	6132.64
659.836	5958.57
660.028	5868.45
660.22	5890.98
660.412	5788.58
660.604	5813.16
660.796	5651.37
660.988	5721
661.18	5764.01
661.372	5714.86
661.563	5823.4
661.755	5604.27
661.947	5589.93
662.139	5632.94
662.331	5694.38
662.522	5497.77
662.714	5430.19
662.906	5540.78
663.097	5501.87
663.289	5346.22
663.481	5297.07
663.673	5483.44
663.864	5352.37
664.056	5331.89
664.247	5237.68
664.439	5108.66
664.631	5190.58
664.822	5180.34
665.014	5122.99
665.205	5321.65
665.397	5034.93
665.588	5176.24
665.78	4969.4
665.971	5149.62
666.163	4987.83
666.354	4955.06
666.546	4987.83
666.737	5041.08
666.929	4932.53
667.12	5057.46
667.311	4858.81
667.503	4901.81
667.694	4740.02
667.885	4756.41
668.077	4860.85
668.268	4852.66
668.459	4668.34
668.651	4750.26
668.842	4942.77
669.033	4910.01
669.224	4670.39
669.416	4729.78
669.607	4615.1
669.798	4578.23
669.989	4668.34
670.18	4533.18
670.371	4635.58
670.563	4582.33
670.754	4522.94
670.945	4430.78
671.136	4463.55
671.327	4475.84
671.518	4486.08
671.709	4447.16
671.9	4459.45
672.091	4541.37
672.282	4430.78
672.473	4377.53
672.664	4484.03
672.855	4279.23
673.046	4361.15
673.237	4373.44
673.428	4283.33
673.619	4393.92
673.809	4131.78
674	4336.57
674.191	4414.4
674.382	4256.7
674.573	4289.47
674.764	4279.23
674.954	4221.89
675.145	4172.74
675.336	4211.65
675.527	4090.82
675.717	4213.7
675.908	4248.51
676.099	4099.01
676.289	4119.49
676.48	4215.74
676.671	4133.82
676.861	4107.2
677.052	4068.29
677.243	3939.27
677.433	3998.66
677.624	3978.18
677.814	3996.61
678.005	4021.19
678.195	3978.18
678.386	4035.52
678.576	3976.13
678.767	3976.13
678.957	3967.94
679.148	3814.34
679.338	3863.49
679.529	3734.47
679.719	3918.79
679.909	3853.25
680.1	3947.46
680.29	3906.5
680.481	3883.97
680.671	3820.49
680.861	3785.67
681.052	3912.64
681.242	3773.38
681.432	3933.12
681.622	3869.64
681.813	3787.72
682.003	3877.83
682.193	3851.21
682.383	3693.51
682.573	3902.4
682.764	3843.01
682.954	3787.72
683.144	3873.73
683.334	3816.39
683.524	3734.47
683.714	3713.99
683.904	3699.66
684.094	3709.9
684.284	3619.78
684.474	3883.97
684.664	3693.51
684.854	3689.42
685.044	3636.17
685.234	3562.44
685.424	3638.22
685.614	3593.16
685.804	3750.85
685.994	3576.78
686.184	3574.73
686.374	3529.67
686.564	3423.18
686.753	3460.04
686.943	3453.9
687.133	3558.35
687.323	3404.75
687.513	3511.24
687.702	3484.62
687.892	3394.51
688.082	3562.44
688.272	3410.89
688.461	3523.53
688.651	3445.71
688.841	3423.18
689.03	3431.37
689.22	3179.47
689.41	3349.45
689.599	3304.4
689.789	3304.4
689.979	3193.81
690.168	3449.8
690.358	3214.29
690.547	3247.05
690.737	3308.49
690.926	3202
691.116	3027.92
691.305	3240.91
691.495	3214.29
691.684	3214.29
691.874	3197.9
692.063	3265.49
692.252	3150.8
692.442	3107.79
692.631	3009.49
692.82	2986.96
693.01	2986.96
693.199	3103.7
693.388	3034.07
693.578	2960.34
693.767	3032.02
693.956	3042.26
694.146	2905.04
694.335	2923.48
694.524	2872.28
694.713	2954.19
694.902	2876.37
695.092	2909.14
695.281	2894.8
695.47	3023.83
695.659	2839.51
695.848	2745.3
696.037	2790.36
696.226	2866.13
696.415	2786.26
696.604	2837.46
696.793	2859.99
696.982	2816.98
697.171	2866.13
697.36	2784.21
697.549	2898.9
697.738	2841.56
697.927	2788.31
698.116	2812.89
698.305	2735.06
698.494	2763.73
698.683	2747.35
698.872	2694.1
699.061	2730.97
699.25	2722.77
699.438	2640.86
699.627	2685.91
699.816	2767.83
700.005	2636.76
700.193	2714.58
700.382	2755.54
700.571	2733.01
700.76	2735.06
700.948	2763.73
701.137	2667.48
701.326	2733.01
701.514	2651.1
701.703	2599.9
701.892	2616.28
702.08	2659.29
702.269	2626.52
702.457	2579.42
702.646	2653.14
702.834	2771.93
703.023	2599.9
703.212	2739.16
703.4	2499.55
703.589	2665.43
703.777	2599.9
703.965	2591.7
704.154	2599.9
704.342	2509.79
704.531	2571.22
704.719	2626.52
704.907	2583.51
705.096	2608.09
705.284	2526.17
705.472	2536.41
705.661	2667.48
705.849	2599.9
706.037	2567.13
706.226	2591.7
706.414	2583.51
706.602	2493.4
706.79	2638.81
706.979	2550.75
707.167	2612.18
707.355	2552.79
707.543	2477.02
707.731	2513.88
707.919	2493.4
708.107	2556.89
708.296	2374.62
708.484	2438.11
708.672	2431.96
708.86	2444.25
709.048	2454.49
709.236	2649.05
709.424	2460.63
709.612	2507.74
709.8	2413.53
709.988	2501.59
710.176	2403.29
710.364	2374.62
710.551	2440.15
710.739	2491.35
710.927	2466.78
711.115	2337.76
711.303	2468.83
711.491	2501.59
711.679	2395.1
711.866	2495.45
712.054	2268.13
712.242	2493.4
712.43	2378.72
712.617	2507.74
712.805	2384.86
712.993	2413.53
713.181	2417.63
713.368	2495.45
713.556	2421.72
713.744	2399.2
713.931	2479.07
714.119	2458.59
714.306	2329.56
714.494	2542.55
714.682	2354.14
714.869	2370.52
715.057	2429.91
715.244	2446.3
715.432	2370.52
715.619	2399.2
715.807	2378.72
715.994	2253.79
716.182	2450.39
716.369	2493.4
716.556	2427.87
716.744	2448.35
716.931	2423.77
717.119	2298.84
717.306	2382.81
717.493	2425.82
717.681	2345.95
717.868	2364.38
718.055	2470.87
718.242	2317.28
718.43	2458.59
718.617	2337.76
718.804	2300.89
718.991	2436.06
719.179	2431.96
719.366	2419.68
719.553	2401.24
719.74	2403.29
719.927	2399.2
720.114	2399.2
720.301	2401.24
720.488	2257.89
720.676	2290.65
720.863	2466.78
721.05	2388.96
721.237	2411.48
721.424	2315.23
721.611	2339.8
721.798	2450.39
721.985	2337.76
722.172	2343.9
722.358	2249.69
722.545	2319.32
722.732	2421.72
722.919	2407.39
723.106	2358.24
723.293	2386.91
723.48	2278.37
723.667	2268.13
723.853	2329.56
724.04	2296.8
724.227	2309.08
724.414	2210.78
724.6	2386.91
724.787	2270.17
724.974	2321.37
725.161	2323.42
725.347	2323.42
725.534	2370.52
725.72	2470.87
725.907	2161.63
726.094	2280.41
726.28	2315.23
726.467	2315.23
726.653	2331.61
726.84	2399.2
727.027	2376.67
727.213	2282.46
727.4	2378.72
727.586	2364.38
727.773	2329.56
727.959	2294.75
728.145	2329.56
728.332	2374.62
728.518	2337.76
728.705	2261.98
728.891	2292.7
729.077	2221.02
729.264	2323.42
729.45	2313.18
729.636	2227.17
729.823	2284.51
730.009	2274.27
730.195	2325.47
730.382	2235.36
730.568	2239.45
730.754	2253.79
730.94	2235.36
731.126	2307.04
731.313	2255.84
731.499	2409.44
731.685	2362.33
731.871	2284.51
732.057	2294.75
732.243	2304.99
732.429	2380.76
732.615	2415.58
732.801	2257.89
732.987	2253.79
733.173	2294.75
733.359	2239.45
733.545	2227.17
733.731	2221.02
733.917	2247.65
734.103	2307.04
734.289	2251.74
734.475	2372.57
734.661	2298.84
734.847	2429.91
735.033	2313.18
735.219	2300.89
735.404	2313.18
735.59	2255.84
735.776	2272.22
735.962	2296.8
736.148	2286.56
736.333	2264.03
736.519	2241.5
736.705	2329.56
736.89	2165.73
737.076	2247.65
737.262	2083.81
737.447	2214.88
737.633	2132.96
737.819	2323.42
738.004	2255.84
738.19	2110.43
738.375	2163.68
738.561	2251.74
738.747	2102.24
738.932	2132.96
739.118	2237.41
739.303	2141.15
739.489	2276.32
739.674	2239.45
739.859	2167.77
740.045	2157.54
740.23	2141.15
740.416	2001.89
740.601	2147.3
740.786	2288.61
740.972	2077.66
741.157	2034.66
741.342	2100.19
741.528	2137.06
741.713	2126.82
741.898	2042.85
742.084	2169.82
742.269	2059.23
742.454	2155.49
742.639	2057.18
742.824	2151.39
743.01	2145.25
743.195	2081.76
743.38	2098.14
743.565	1965.03
743.75	2073.57
743.935	2126.82
744.12	1995.75
744.305	1944.55
744.49	1977.31
744.675	1954.79
744.86	2024.42
745.045	1981.41
745.23	1948.64
745.415	2005.99
745.6	1940.45
745.785	2008.03
745.97	1911.78
746.155	1944.55
746.34	1969.12
746.525	1805.28
746.71	1899.49
746.895	1881.06
747.079	1749.99
747.264	1780.71
747.449	1868.77
747.634	1829.86
747.819	1778.66
748.003	1782.76
748.188	1813.48
748.373	1829.86
748.557	1831.91
748.742	1592.3
748.927	1727.46
749.111	1788.9
749.296	1766.37
749.481	1797.09
749.665	1639.4
749.85	1649.64
750.034	1684.45
750.219	1690.6
750.404	1510.38
750.588	1731.56
750.773	1668.07
750.957	1715.17
751.141	1551.34
751.326	1661.93
751.51	1586.15
751.695	1559.53
751.879	1543.14
752.064	1510.38
752.248	1504.23
752.432	1600.49
752.617	1600.49
752.801	1577.96
752.985	1602.54
753.17	1485.8
753.354	1465.32
753.538	1446.89
753.722	1551.34
753.907	1412.07
754.091	1436.65
754.275	1528.81
754.459	1459.18
754.643	1412.07
754.828	1455.08
755.012	1354.73
755.196	1344.49
755.38	1403.88
755.564	1463.27
755.748	1268.72
755.932	1276.91
756.116	1387.5
756.3	1354.73
756.484	1362.92
756.668	1313.77
756.852	1262.57
757.036	1305.58
757.22	1182.7
757.404	1266.67
757.588	1305.58
757.772	1342.44
757.956	1381.35
758.14	1270.76
758.323	1260.52
758.507	1252.33
758.691	1149.93
758.875	1326.06
759.059	1266.67
759.242	1180.65
759.426	1180.65
759.61	1209.33
759.794	1141.74
759.977	1145.84
760.161	1231.85
760.345	1209.33
760.528	1149.93
760.712	1113.07
760.895	1205.23
761.079	1143.79
761.263	1086.45
761.446	1113.07
761.63	1156.08
761.813	1061.87
761.997	1084.4
762.18	1059.82
762.364	1041.39
762.547	986.1
762.731	1154.03
762.914	1041.39
763.098	1002.48
763.281	1051.63
763.464	992.24
763.648	1117.17
763.831	1010.67
764.015	1043.44
764.198	1010.67
764.381	1027.06
764.564	1088.5
764.748	1041.39
764.931	996.34
765.114	977.91
765.297	982
765.481	830.45
765.664	938.99
765.847	900.08
766.03	873.46
766.213	938.99
766.397	945.14
766.58	928.75
766.763	945.14
766.946	945.14
767.129	922.61
767.312	928.75
767.495	926.71
767.678	889.84
767.861	932.85
768.044	936.95
768.227	908.27
768.41	941.04
768.593	912.37
768.776	932.85
768.959	818.16
769.142	990.19
769.324	916.47
769.507	930.8
769.69	914.42
769.873	873.46
770.056	914.42
770.239	918.51
770.421	895.99
770.604	838.64
770.787	887.79
770.97	857.07
771.152	791.54
771.335	771.06
771.518	838.64
771.7	838.64
771.883	844.79
772.066	830.45
772.248	781.3
772.431	826.36
772.613	805.88
772.796	822.26
772.978	893.94
773.161	738.29
773.343	756.72
773.526	748.53
773.708	693.24
773.891	711.67
774.073	723.96
774.256	728.05
774.438	797.68
774.621	726
774.803	771.06
774.985	713.72
775.168	728.05
775.35	756.72
775.532	723.96
775.715	656.37
775.897	715.77
776.079	678.9
776.261	740.34
776.444	609.27
776.626	758.77
776.808	670.71
776.99	691.19
777.173	668.66
777.355	619.51
777.537	609.27
777.719	666.61
777.901	674.81
778.083	633.85
778.265	611.32
778.447	691.19
778.629	531.45
778.811	672.76
778.993	609.27
779.175	621.56
779.357	556.02
779.539	584.7
779.721	584.7
779.903	596.98
780.085	588.79
780.267	547.83
780.449	646.13
780.631	613.37
780.812	580.6
780.994	543.74
781.176	553.98
781.358	584.7
781.54	527.35
781.721	515.06
781.903	513.02
782.085	674.81
782.267	570.36
782.448	543.74
782.63	566.26
782.812	494.58
782.993	529.4
783.175	611.32
783.357	523.26
783.538	513.02
783.72	603.13
783.901	570.36
784.083	472.06
784.264	535.54
784.446	414.71
784.627	496.63
784.809	500.73
784.99	560.12
785.172	541.69
785.353	476.15
785.535	496.63
785.716	381.95
785.897	519.16
786.079	404.47
786.26	455.67
786.441	441.34
786.623	320.51
786.804	467.96
786.985	359.42
787.167	390.14
787.348	463.86
787.529	494.58
787.71	424.95
787.891	386.04
788.073	463.86
788.254	386.04
788.435	422.91
788.616	410.62
788.797	441.34
788.978	394.23
789.159	420.86
789.34	465.91
789.522	371.71
789.703	363.51
789.884	392.19
790.065	381.95
790.246	394.23
790.427	306.17
790.607	396.28
790.788	355.32
790.969	343.03
791.15	314.36
791.331	347.13
791.512	357.37
791.693	355.32
791.874	379.9
792.054	347.13
792.235	386.04
792.416	328.7
792.597	381.95
792.778	381.95
792.958	275.45
793.139	355.32
793.32	340.99
793.5	306.17
793.681	314.36
793.862	357.37
794.042	308.22
794.223	312.32
794.404	330.75
794.584	318.46
794.765	281.6
794.945	273.4
795.126	306.17
795.306	347.13
795.487	236.54
795.667	349.18
795.848	263.16
796.028	330.75
796.209	330.75
796.389	293.88
796.57	306.17
796.75	273.4
796.93	347.13
797.111	373.75
797.291	275.45
797.471	330.75
797.652	283.64
797.832	259.07
798.012	277.5
798.192	216.06
798.373	259.07
798.553	259.07
798.733	357.37
798.913	220.16
799.093	257.02
799.274	265.21
799.454	269.31
799.634	183.29
799.814	283.64
799.994	277.5
800.174	297.98
800.354	257.02
800.534	236.54
800.714	287.74
800.894	277.5
801.074	136.19
801.254	175.1
801.434	265.21
801.614	275.45
801.794	250.88
801.974	752.63
802.154	248.83
802.334	271.36
802.514	220.16
802.693	234.49
802.873	193.53
803.053	295.93
803.233	220.16
803.413	232.44
803.592	146.43
803.772	248.83
803.952	244.73
804.131	195.58
804.311	207.87
804.491	275.45
804.67	222.2
804.85	242.68
805.03	187.39
805.209	283.64
805.389	191.49
805.568	261.12
805.748	203.77
805.928	236.54
806.107	261.12
806.287	207.87
806.466	183.29
806.646	195.58
806.825	201.72
807.004	162.81
807.184	232.44
807.363	197.63
807.543	187.39
807.722	183.29
807.901	250.88
808.081	195.58
808.26	181.25
808.439	199.68
808.619	128
808.798	203.77
808.977	203.77
809.156	211.96
809.336	150.53
809.515	185.34
809.694	109.57
809.873	216.06
810.052	150.53
810.231	224.25
810.411	152.57
810.59	224.25
810.769	193.53
810.948	248.83
811.127	128
811.306	209.92
811.485	222.2
811.664	205.82
811.843	179.2
812.022	252.92
812.201	195.58
812.38	158.72
812.559	150.53
812.737	207.87
812.916	154.62
813.095	175.1
813.274	199.68
813.453	177.15
813.632	144.38
813.811	154.62
813.989	148.48
814.168	181.25
814.347	142.33
814.526	123.9
814.704	152.57
814.883	150.53
815.062	152.57
815.24	181.25
815.419	152.57
815.598	201.72
815.776	144.38
815.955	142.33
816.133	166.91
816.312	175.1
816.49	148.48
816.669	72.7
816.847	189.44
817.026	152.57
817.204	150.53
817.383	142.33
817.561	119.81
817.74	224.25
817.918	121.85
818.097	146.43
818.275	148.48
818.453	177.15
818.632	134.14
818.81	113.66
818.988	134.14
819.167	138.24
819.345	103.42
819.523	128
819.701	187.39
819.879	168.96
820.058	195.58
820.236	175.1
820.414	136.19
820.592	121.85
820.77	111.61
820.948	62.46
821.127	93.18
821.305	117.76
821.483	99.33
821.661	154.62
821.839	168.96
822.017	68.61
822.195	111.61
822.373	173.05
822.551	168.96
822.729	125.95
822.907	111.61
823.085	195.58
823.262	119.81
823.44	183.29
823.618	191.49
823.796	187.39
823.974	109.57
824.152	177.15
824.329	146.43
824.507	93.18
824.685	80.89
824.863	144.38
825.04	128
825.218	93.18
825.396	84.99
825.574	125.95
825.751	89.09
825.929	119.81
826.107	117.76
826.284	152.57
826.462	146.43
826.639	117.76
826.817	121.85
826.994	144.38
827.172	68.61
827.349	166.91
827.527	140.29
827.704	84.99
827.882	185.34
828.059	158.72
828.237	80.89
828.414	187.39
828.591	134.14
828.769	134.14
828.946	113.66
829.124	142.33
829.301	105.47
829.478	64.51
829.655	93.18
829.833	64.51
830.01	84.99
830.187	60.42
830.364	48.13
830.542	160.77
830.719	160.77
830.896	195.58
831.073	89.09
831.25	130.05
831.427	82.94
831.604	144.38
831.782	44.03
831.959	76.8
832.136	44.03
832.313	48.13
832.49	87.04
832.667	46.08
832.844	78.85
833.021	134.14
833.198	142.33
833.374	138.24
833.551	119.81
833.728	134.14
833.905	130.05
834.082	70.65
834.259	111.61
834.436	82.94
834.612	35.84
834.789	17.41
834.966	74.75
835.143	111.61
835.319	23.55
835.496	132.09
835.673	111.61
835.85	54.27
836.026	80.89
836.203	140.29
836.38	91.13
836.556	44.03
836.733	44.03
836.909	125.95
837.086	101.37
837.262	27.65
837.439	117.76
837.616	64.51
837.792	78.85
837.968	91.13
838.145	132.09
838.321	103.42
838.498	109.57
838.674	158.72
838.851	48.13
839.027	109.57
839.203	70.65
839.38	78.85
839.556	-31.74
839.732	62.46
839.909	60.42
840.085	35.84
840.261	9.22
840.437	101.37
840.614	101.37
840.79	119.81
840.966	78.85
841.142	148.48
841.318	115.71
841.494	84.99
841.671	78.85
841.847	56.32
842.023	37.89
842.199	109.57
842.375	78.85
842.551	78.85
842.727	46.08
842.903	216.06
843.079	3.07
843.255	125.95
843.431	121.85
843.607	35.84
843.783	27.65
843.959	158.72
844.134	62.46
844.31	93.18
844.486	78.85
844.662	31.74
844.838	76.8
845.013	95.23
845.189	136.19
845.365	54.27
845.541	54.27
845.716	121.85
845.892	56.32
846.068	119.81
846.244	50.18
846.419	99.33
846.595	33.79
846.77	11.26
846.946	101.37
847.122	78.85
847.297	66.56
847.473	76.8
847.648	39.94
847.824	97.28
847.999	35.84
848.175	93.18
848.35	87.04
848.526	97.28
848.701	21.5
848.876	15.36
849.052	56.32
849.227	13.31
849.403	37.89
849.578	19.46
849.753	101.37
849.929	60.42
850.104	-31.74
850.279	35.84
850.454	82.94
850.63	103.42
850.805	89.09
850.98	-5.12
851.155	-3.07
851.33	58.37
851.505	-19.46
851.681	101.37
851.856	48.13
852.031	52.22
852.206	91.13
852.381	31.74
852.556	3.07
852.731	48.13
852.906	142.33
853.081	44.03
853.256	37.89
853.431	35.84
853.606	15.36
853.781	128
853.956	1.02
854.131	56.32
854.305	-21.5
854.48	87.04
854.655	-50.18
854.83	37.89
855.005	74.75
855.18	60.42
855.354	19.46
855.529	11.26
855.704	-27.65
855.879	17.41
856.053	60.42
856.228	62.46
856.403	111.61
856.577	29.7
856.752	23.55
856.926	136.19
857.101	11.26
857.276	19.46
857.45	68.61
857.625	52.22
857.799	31.74
857.974	70.65
858.148	1.02
858.323	136.19
858.497	17.41
858.672	72.7
858.846	29.7
859.02	70.65
859.195	44.03
859.369	66.56
859.543	29.7
859.718	76.8
859.892	56.32
860.066	-21.5
860.241	44.03
860.415	27.65
860.589	-87.04
860.763	52.22
860.938	-19.46
861.112	27.65
861.286	-13.31
861.46	52.22
861.634	99.33
861.808	93.18
861.982	-13.31
862.157	72.7
862.331	-5.12
862.505	138.24
862.679	70.65
862.853	-31.74
863.027	19.46
863.201	-9.22
863.375	89.09
863.549	46.08
863.722	52.22
863.896	35.84
864.07	17.41
864.244	125.95
864.418	91.13
864.592	9.22
864.766	70.65
864.939	23.55
865.113	70.65
865.287	62.46
865.461	29.7
865.634	68.61
865.808	31.74
865.982	39.94
866.156	-13.31
866.329	15.36
866.503	89.09
866.676	19.46
866.85	25.6
867.024	60.42
867.197	23.55
867.371	80.89
867.544	54.27
867.718	-9.22
867.891	84.99
868.065	-33.79
868.238	52.22
868.412	29.7
868.585	29.7
868.759	-9.22
868.932	58.37
869.105	29.7
869.279	19.46
869.452	46.08
869.625	56.32
869.799	19.46
869.972	41.98
870.145	56.32
870.319	64.51
870.492	68.61
870.665	68.61
870.838	5.12
871.011	23.55
871.185	35.84
871.358	17.41
871.531	62.46
871.704	13.31
871.877	21.5
872.05	7.17
872.223	52.22
872.396	91.13
872.569	37.89
872.742	17.41
872.915	89.09
873.088	52.22
873.261	27.65
873.434	80.89
873.607	39.94
873.78	46.08
873.953	25.6
874.126	25.6
874.299	68.61
874.471	101.37
874.644	-5.12
874.817	-27.65
874.99	-1.02
875.163	-27.65
875.335	130.05
875.508	93.18
875.681	58.37
875.853	21.5
876.026	46.08
876.199	31.74
876.371	3.07
876.544	9.22
876.717	78.85
876.889	-3.07
877.062	93.18
877.234	29.7
877.407	46.08
877.579	52.22
877.752	70.65
877.924	35.84
878.097	76.8
878.269	-9.22
878.442	62.46
878.614	-9.22
878.786	33.79
878.959	23.55
879.131	54.27
879.303	48.13
879.476	19.46
879.648	72.7
879.82	76.8
879.993	39.94
880.165	21.5
880.337	13.31
880.509	35.84
880.681	76.8
880.854	31.74
881.026	72.7
881.198	39.94
881.37	27.65
881.542	27.65
881.714	48.13
881.886	50.18
882.058	-62.46
882.23	-29.7
882.402	78.85
882.574	97.28
882.746	-5.12
882.918	52.22
883.09	68.61
883.262	31.74
883.434	-3.07
883.606	3.07
883.778	19.46
883.95	44.03
884.122	-17.41
884.293	62.46
884.465	23.55
884.637	80.89
884.809	31.74
884.98	60.42
885.152	7.17
885.324	-27.65
885.496	-5.12
885.667	64.51
885.839	-11.26
886.011	89.09
886.182	27.65
886.354	68.61
886.525	15.36
886.697	11.26
886.869	58.37
887.04	-35.84
887.212	19.46
887.383	78.85
887.555	3.07
887.726	-9.22
887.897	-11.26
888.069	60.42
888.24	72.7
888.412	80.89
888.583	58.37
888.754	44.03
888.926	56.32
889.097	62.46
889.268	-70.65
889.44	64.51
889.611	7.17
889.782	41.98
889.953	84.99
890.125	80.89
890.296	25.6
890.467	33.79
890.638	17.41
890.809	58.37
890.98	46.08
891.151	31.74
891.323	-3.07
891.494	37.89
891.665	19.46
891.836	5.12
892.007	35.84
892.178	37.89
892.349	3.07
892.52	5.12
892.691	-5.12
892.862	21.5
893.032	-56.32
893.203	27.65
893.374	103.42
893.545	101.37
893.716	29.7
893.887	95.23
894.057	72.7
894.228	50.18
894.399	9.22
894.57	56.32
894.74	31.74
894.911	-1.02
895.082	44.03
895.253	-66.56
895.423	-21.5
895.594	56.32
895.764	29.7
895.935	48.13
896.106	78.85
896.276	56.32
896.447	80.89
896.617	19.46
896.788	1.02
896.958	70.65
897.129	3.07
897.299	17.41
897.47	50.18
897.64	33.79
897.81	48.13
897.981	27.65
898.151	-3.07
898.322	76.8
898.492	44.03
898.662	-3.07
898.832	25.6
899.003	-1.02
899.173	37.89
899.343	76.8
899.513	68.61
