Data from USB4F104151__175__14-19-58-977.txt Node

Date: Thu Mar 13 14:19:58 EDT 2025
User: louis
Spectrometer: USB4F10415
Trigger mode: 4
Integration Time (sec): 2.000000E-2
Scans to average: 1
Electric dark correction enabled: true
Nonlinearity correction enabled: false
Boxcar width: 0
XAxis mode: Wavelengths
Number of Pixels in Spectrum: 3648
>>>>>Begin Spectral Data<<<<<
178.204	-79.87
178.424	-79.87
178.644	-79.87
178.864	-77.82
179.084	-131.07
179.304	24.58
179.524	-28.67
179.744	24.58
179.964	57.34
180.184	-38.91
180.404	-6.14
180.624	2.05
180.844	-22.53
181.064	-79.87
181.283	2.05
181.503	8.19
181.723	57.34
181.943	-47.1
182.163	65.53
182.383	53.25
182.602	75.77
182.822	26.62
183.042	38.91
183.262	8.19
183.482	-14.34
183.701	-28.67
183.921	-28.67
184.141	-63.49
184.361	57.34
184.58	49.15
184.8	-81.92
185.02	-16.38
185.239	22.53
185.459	4.1
185.679	49.15
185.898	6.14
186.118	63.49
186.338	24.58
186.557	0
186.777	-16.38
186.997	-40.96
187.216	-16.38
187.436	53.25
187.655	45.06
187.875	32.77
188.095	116.73
188.314	24.58
188.534	49.15
188.753	22.53
188.973	30.72
189.192	28.67
189.412	4.1
189.631	16.38
189.851	-12.29
190.07	63.49
190.29	4.1
190.509	51.2
190.729	-24.58
190.948	32.77
191.168	100.35
191.387	4.1
191.607	57.34
191.826	34.82
192.045	-40.96
192.265	73.73
192.484	-20.48
192.704	16.38
192.923	51.2
193.142	90.11
193.362	-43.01
193.581	57.34
193.8	0
194.02	135.17
194.239	0
194.458	-34.82
194.678	34.82
194.897	57.34
195.116	26.62
195.335	34.82
195.555	32.77
195.774	24.58
195.993	69.63
196.212	0
196.432	-38.91
196.651	0
196.87	36.86
197.089	71.68
197.308	26.62
197.528	92.16
197.747	-57.34
197.966	65.53
198.185	55.3
198.404	8.19
198.623	-6.14
198.842	59.39
199.062	98.3
199.281	77.82
199.5	0
199.719	65.53
199.938	98.3
200.157	49.15
200.376	-20.48
200.595	57.34
200.814	67.58
201.033	0
201.252	-8.19
201.471	22.53
201.69	0
201.909	-24.58
202.128	16.38
202.347	28.67
202.566	-8.19
202.785	-8.19
203.004	81.92
203.223	75.77
203.442	0
203.661	32.77
203.879	51.2
204.098	53.25
204.317	-14.34
204.536	49.15
204.755	55.3
204.974	67.58
205.193	40.96
205.411	2.05
205.63	-18.43
205.849	14.34
206.068	79.87
206.287	30.72
206.505	116.73
206.724	-18.43
206.943	2.05
207.162	43.01
207.381	16.38
207.599	36.86
207.818	43.01
208.037	-14.34
208.255	-10.24
208.474	-53.25
208.693	43.01
208.911	-24.58
209.13	-8.19
209.349	16.38
209.567	65.53
209.786	51.2
210.005	43.01
210.223	-8.19
210.442	-32.77
210.661	-24.58
210.879	-24.58
211.098	-14.34
211.316	59.39
211.535	-36.86
211.753	24.58
211.972	77.82
212.191	49.15
212.409	81.92
212.628	49.15
212.846	36.86
213.065	36.86
213.283	65.53
213.502	28.67
213.72	51.2
213.938	34.82
214.157	12.29
214.375	-61.44
214.594	-4.1
214.812	16.38
215.031	-8.19
215.249	10.24
215.467	61.44
215.686	32.77
215.904	67.58
216.122	2.05
216.341	-8.19
216.559	100.35
216.778	106.49
216.996	47.1
217.214	26.62
217.432	-16.38
217.651	45.06
217.869	-20.48
218.087	16.38
218.306	34.82
218.524	34.82
218.742	-30.72
218.96	16.38
219.179	-20.48
219.397	32.77
219.615	53.25
219.833	-6.14
220.051	14.34
220.27	83.97
220.488	-12.29
220.706	63.49
220.924	-6.14
221.142	-16.38
221.36	0
221.578	45.06
221.796	-22.53
222.015	24.58
222.233	-32.77
222.451	32.77
222.669	-73.73
222.887	12.29
223.105	16.38
223.323	20.48
223.541	16.38
223.759	28.67
223.977	106.49
224.195	47.1
224.413	49.15
224.631	53.25
224.849	57.34
225.067	100.35
225.285	8.19
225.503	10.24
225.721	10.24
225.939	61.44
226.157	14.34
226.375	98.3
226.592	106.49
226.81	51.2
227.028	53.25
227.246	116.73
227.464	-36.86
227.682	16.38
227.9	34.82
228.117	16.38
228.335	83.97
228.553	-24.58
228.771	16.38
228.989	10.24
229.206	30.72
229.424	34.82
229.642	12.29
229.86	24.58
230.077	65.53
230.295	24.58
230.513	24.58
230.731	43.01
230.948	8.19
231.166	98.3
231.384	45.06
231.601	83.97
231.819	59.39
232.037	-8.19
232.254	-30.72
232.472	57.34
232.689	16.38
232.907	-8.19
233.125	-22.53
233.342	43.01
233.56	40.96
233.777	45.06
233.995	26.62
234.213	-16.38
234.43	-30.72
234.648	16.38
234.865	-18.43
235.083	49.15
235.3	16.38
235.518	4.1
235.735	20.48
235.953	114.69
236.17	49.15
236.388	75.77
236.605	32.77
236.822	71.68
237.04	88.06
237.257	-26.62
237.475	-14.34
237.692	47.1
237.909	40.96
238.127	24.58
238.344	-16.38
238.562	8.19
238.779	-6.14
238.996	0
239.214	57.34
239.431	6.14
239.648	-40.96
239.865	10.24
240.083	-47.1
240.3	49.15
240.517	-16.38
240.735	26.62
240.952	45.06
241.169	57.34
241.386	8.19
241.603	20.48
241.821	28.67
242.038	-30.72
242.255	108.54
242.472	4.1
242.689	43.01
242.907	43.01
243.124	124.93
243.341	0
243.558	-16.38
243.775	-12.29
243.992	16.38
244.209	83.97
244.426	65.53
244.643	28.67
244.86	8.19
245.078	75.77
245.295	59.39
245.512	2.05
245.729	-73.73
245.946	32.77
246.163	43.01
246.38	28.67
246.597	88.06
246.814	57.34
247.031	-20.48
247.248	-8.19
247.464	-65.54
247.681	10.24
247.898	98.3
248.115	-8.19
248.332	0
248.549	-55.3
248.766	61.44
248.983	114.69
249.2	-22.53
249.417	86.01
249.633	10.24
249.85	34.82
250.067	28.67
250.284	-8.19
250.501	0
250.717	28.67
250.934	24.58
251.151	10.24
251.368	36.86
251.585	55.3
251.801	16.38
252.018	75.77
252.235	-28.67
252.451	-28.67
252.668	20.48
252.885	43.01
253.102	57.34
253.318	32.77
253.535	20.48
253.752	0
253.968	45.06
254.185	-16.38
254.401	26.62
254.618	36.86
254.835	2.05
255.051	81.92
255.268	94.21
255.484	6.14
255.701	-65.54
255.917	32.77
256.134	57.34
256.351	-16.38
256.567	-10.24
256.784	16.38
257	26.62
257.217	59.39
257.433	43.01
257.65	28.67
257.866	88.06
258.082	-20.48
258.299	28.67
258.515	22.53
258.732	-69.63
258.948	-16.38
259.165	-12.29
259.381	16.38
259.597	2.05
259.814	49.15
260.03	36.86
260.246	-16.38
260.463	-20.48
260.679	24.58
260.895	61.44
261.112	18.43
261.328	-8.19
261.544	28.67
261.761	86.01
261.977	0
262.193	-4.1
262.409	77.82
262.626	38.91
262.842	47.1
263.058	34.82
263.274	75.77
263.49	90.11
263.707	-32.77
263.923	51.2
264.139	34.82
264.355	73.73
264.571	22.53
264.787	122.88
265.004	36.86
265.22	30.72
265.436	45.06
265.652	8.19
265.868	24.58
266.084	83.97
266.3	40.96
266.516	55.3
266.732	20.48
266.948	10.24
267.164	55.3
267.38	75.77
267.596	-14.34
267.812	28.67
268.028	47.1
268.244	43.01
268.46	8.19
268.676	22.53
268.892	12.29
269.108	0
269.324	8.19
269.54	4.1
269.756	73.73
269.972	-47.1
270.188	55.3
270.403	-55.3
270.619	-16.38
270.835	57.34
271.051	14.34
271.267	53.25
271.483	-30.72
271.698	20.48
271.914	18.43
272.13	45.06
272.346	43.01
272.562	30.72
272.777	49.15
272.993	-34.82
273.209	36.86
273.425	20.48
273.64	-14.34
273.856	8.19
274.072	24.58
274.287	-81.92
274.503	71.68
274.719	-36.86
274.934	-38.91
275.15	-28.67
275.366	26.62
275.581	65.53
275.797	20.48
276.012	106.49
276.228	65.53
276.444	57.34
276.659	73.73
276.875	-67.58
277.09	-8.19
277.306	-14.34
277.521	45.06
277.737	38.91
277.952	118.78
278.168	-12.29
278.383	40.96
278.599	34.82
278.814	2.05
279.03	18.43
279.245	8.19
279.461	24.58
279.676	34.82
279.892	0
280.107	-32.77
280.322	-49.15
280.538	40.96
280.753	34.82
280.969	4.1
281.184	-26.62
281.399	149.5
281.615	-8.19
281.83	124.93
282.045	-10.24
282.26	4.1
282.476	32.77
282.691	20.48
282.906	65.53
283.122	0
283.337	-30.72
283.552	75.77
283.767	43.01
283.983	-8.19
284.198	38.91
284.413	-10.24
284.628	-10.24
284.843	59.39
285.058	90.11
285.274	92.16
285.489	-53.25
285.704	67.58
285.919	32.77
286.134	8.19
286.349	0
286.564	34.82
286.779	86.01
286.995	75.77
287.21	38.91
287.425	43.01
287.64	61.44
287.855	67.58
288.07	-67.58
288.285	79.87
288.5	57.34
288.715	28.67
288.93	49.15
289.145	24.58
289.36	133.12
289.575	-18.43
289.79	83.97
290.004	49.15
290.219	8.19
290.434	57.34
290.649	8.19
290.864	-10.24
291.079	-45.06
291.294	28.67
291.509	16.38
291.724	43.01
291.938	-2.05
292.153	61.44
292.368	-26.62
292.583	40.96
292.798	-20.48
293.012	32.77
293.227	75.77
293.442	34.82
293.657	24.58
293.871	53.25
294.086	16.38
294.301	92.16
294.516	81.92
294.73	12.29
294.945	14.34
295.16	-6.14
295.374	106.49
295.589	34.82
295.804	24.58
296.018	12.29
296.233	34.82
296.447	20.48
296.662	34.82
296.877	114.69
297.091	47.1
297.306	51.2
297.52	-30.72
297.735	-2.05
297.949	65.53
298.164	26.62
298.378	73.73
298.593	-20.48
298.807	43.01
299.022	94.21
299.236	63.49
299.451	49.15
299.665	67.58
299.88	112.64
300.094	4.1
300.309	16.38
300.523	59.39
300.737	71.68
300.952	49.15
301.166	32.77
301.381	57.34
301.595	32.77
301.809	-14.34
302.024	0
302.238	-4.1
302.452	51.2
302.667	57.34
302.881	28.67
303.095	94.21
303.309	114.69
303.524	4.1
303.738	73.73
303.952	-57.34
304.166	45.06
304.381	-30.72
304.595	24.58
304.809	14.34
305.023	57.34
305.237	20.48
305.452	-8.19
305.666	16.38
305.88	90.11
306.094	59.39
306.308	30.72
306.522	53.25
306.736	65.53
306.95	126.97
307.164	-4.1
307.379	-4.1
307.593	51.2
307.807	83.97
308.021	24.58
308.235	14.34
308.449	-49.15
308.663	-40.96
308.877	102.4
309.091	-18.43
309.305	55.3
309.519	45.06
309.733	-14.34
309.947	2.05
310.161	90.11
310.374	12.29
310.588	28.67
310.802	32.77
311.016	8.19
311.23	-4.1
311.444	34.82
311.658	-12.29
311.872	67.58
312.085	2.05
312.299	61.44
312.513	32.77
312.727	90.11
312.941	2.05
313.154	81.92
313.368	73.73
313.582	124.93
313.796	12.29
314.009	40.96
314.223	106.49
314.437	-16.38
314.651	4.1
314.864	-49.15
315.078	47.1
315.292	24.58
315.505	79.87
315.719	49.15
315.933	75.77
316.146	57.34
316.36	-4.1
316.573	49.15
316.787	45.06
317.001	43.01
317.214	98.3
317.428	135.17
317.641	-32.77
317.855	-8.19
318.068	-49.15
318.282	53.25
318.495	67.58
318.709	24.58
318.922	12.29
319.136	53.25
319.349	38.91
319.563	-6.14
319.776	20.48
319.99	32.77
320.203	43.01
320.417	55.3
320.63	-4.1
320.843	34.82
321.057	53.25
321.27	28.67
321.483	63.49
321.697	81.92
321.91	14.34
322.124	73.73
322.337	118.78
322.55	90.11
322.763	-4.1
322.977	61.44
323.19	16.38
323.403	83.97
323.617	0
323.83	43.01
324.043	45.06
324.256	-30.72
324.469	61.44
324.683	43.01
324.896	32.77
325.109	67.58
325.322	-32.77
325.535	96.25
325.748	10.24
325.962	49.15
326.175	79.87
326.388	-6.14
326.601	-6.14
326.814	-8.19
327.027	32.77
327.24	28.67
327.453	-57.34
327.666	40.96
327.879	12.29
328.092	81.92
328.305	12.29
328.518	8.19
328.731	12.29
328.944	90.11
329.157	32.77
329.37	26.62
329.583	55.3
329.796	65.53
330.009	2.05
330.222	26.62
330.435	49.15
330.648	20.48
330.861	32.77
331.073	32.77
331.286	26.62
331.499	12.29
331.712	49.15
331.925	73.73
332.138	57.34
332.35	32.77
332.563	90.11
332.776	81.92
332.989	0
333.202	81.92
333.414	81.92
333.627	0
333.84	71.68
334.053	69.63
334.265	40.96
334.478	40.96
334.691	-22.53
334.903	63.49
335.116	4.1
335.329	57.34
335.541	30.72
335.754	122.88
335.966	0
336.179	77.82
336.392	26.62
336.604	36.86
336.817	4.1
337.029	49.15
337.242	86.01
337.454	59.39
337.667	67.58
337.88	122.88
338.092	59.39
338.305	139.26
338.517	22.53
338.729	122.88
338.942	30.72
339.154	-24.58
339.367	-53.25
339.579	61.44
339.792	-20.48
340.004	36.86
340.217	-32.77
340.429	40.96
340.641	47.1
340.854	10.24
341.066	139.26
341.278	81.92
341.491	98.3
341.703	43.01
341.915	28.67
342.128	112.64
342.34	75.77
342.552	24.58
342.764	114.69
342.977	55.3
343.189	71.68
343.401	18.43
343.613	43.01
343.826	114.69
344.038	-40.96
344.25	16.38
344.462	36.86
344.674	40.96
344.886	-28.67
345.099	61.44
345.311	-26.62
345.523	26.62
345.735	-12.29
345.947	18.43
346.159	-34.82
346.371	6.14
346.583	145.41
346.795	108.54
347.007	20.48
347.219	28.67
347.431	12.29
347.643	118.78
347.855	-40.96
348.067	92.16
348.279	32.77
348.491	-8.19
348.703	40.96
348.915	-12.29
349.127	8.19
349.339	-8.19
349.551	40.96
349.763	20.48
349.975	92.16
350.187	34.82
350.399	53.25
350.61	8.19
350.822	18.43
351.034	12.29
351.246	26.62
351.458	24.58
351.669	75.77
351.881	65.53
352.093	40.96
352.305	49.15
352.517	24.58
352.728	155.65
352.94	77.82
353.152	24.58
353.363	4.1
353.575	26.62
353.787	116.73
353.999	73.73
354.21	112.64
354.422	-20.48
354.633	-20.48
354.845	59.39
355.057	69.63
355.268	24.58
355.48	-16.38
355.692	-47.1
355.903	77.82
356.115	26.62
356.326	-36.86
356.538	65.53
356.749	75.77
356.961	145.41
357.172	-20.48
357.384	-20.48
357.595	83.97
357.807	79.87
358.018	8.19
358.23	16.38
358.441	32.77
358.653	36.86
358.864	26.62
359.075	-55.3
359.287	49.15
359.498	49.15
359.709	40.96
359.921	40.96
360.132	83.97
360.344	40.96
360.555	18.43
360.766	16.38
360.977	10.24
361.189	81.92
361.4	-28.67
361.611	20.48
361.823	77.82
362.034	55.3
362.245	20.48
362.456	43.01
362.667	81.92
362.879	34.82
363.09	32.77
363.301	100.35
363.512	81.92
363.723	45.06
363.935	20.48
364.146	59.39
364.357	53.25
364.568	61.44
364.779	-32.77
364.99	79.87
365.201	129.02
365.412	69.63
365.623	49.15
365.834	24.58
366.045	49.15
366.256	61.44
366.467	71.68
366.678	98.3
366.889	24.58
367.1	32.77
367.311	61.44
367.522	-53.25
367.733	49.15
367.944	16.38
368.155	34.82
368.366	90.11
368.577	53.25
368.788	90.11
368.999	12.29
369.209	98.3
369.42	67.58
369.631	63.49
369.842	106.49
370.053	73.73
370.264	22.53
370.474	28.67
370.685	-8.19
370.896	24.58
371.107	24.58
371.317	92.16
371.528	18.43
371.739	57.34
371.95	4.1
372.16	51.2
372.371	-38.91
372.582	34.82
372.792	75.77
373.003	83.97
373.214	108.54
373.424	57.34
373.635	14.34
373.846	106.49
374.056	24.58
374.267	104.45
374.477	73.73
374.688	24.58
374.898	79.87
375.109	26.62
375.319	71.68
375.53	8.19
375.74	-20.48
375.951	0
376.161	32.77
376.372	0
376.582	28.67
376.793	43.01
377.003	86.01
377.214	114.69
377.424	-53.25
377.635	98.3
377.845	36.86
378.055	65.53
378.266	24.58
378.476	36.86
378.686	18.43
378.897	65.53
379.107	10.24
379.317	90.11
379.528	69.63
379.738	57.34
379.948	20.48
380.158	81.92
380.369	63.49
380.579	100.35
380.789	-28.67
380.999	102.4
381.21	53.25
381.42	69.63
381.63	-10.24
381.84	10.24
382.05	57.34
382.261	77.82
382.471	67.58
382.681	26.62
382.891	10.24
383.101	2.05
383.311	12.29
383.521	8.19
383.731	69.63
383.941	30.72
384.151	90.11
384.361	57.34
384.571	43.01
384.781	92.16
384.991	57.34
385.201	53.25
385.411	40.96
385.621	34.82
385.831	92.16
386.041	55.3
386.251	53.25
386.461	86.01
386.671	40.96
386.881	118.78
387.091	59.39
387.301	88.06
387.511	32.77
387.72	67.58
387.93	145.41
388.14	24.58
388.35	122.88
388.56	43.01
388.769	20.48
388.979	32.77
389.189	32.77
389.399	114.69
389.609	112.64
389.818	57.34
390.028	57.34
390.238	36.86
390.447	-43.01
390.657	106.49
390.867	100.35
391.076	4.1
391.286	100.35
391.496	65.53
391.705	69.63
391.915	59.39
392.125	90.11
392.334	53.25
392.544	151.55
392.753	51.2
392.963	122.88
393.172	92.16
393.382	51.2
393.591	100.35
393.801	90.11
394.01	141.31
394.22	122.88
394.429	159.74
394.639	73.73
394.848	30.72
395.058	75.77
395.267	114.69
395.477	57.34
395.686	98.3
395.895	55.3
396.105	151.55
396.314	57.34
396.524	49.15
396.733	67.58
396.942	129.02
397.152	98.3
397.361	53.25
397.57	47.1
397.78	90.11
397.989	129.02
398.198	98.3
398.407	163.84
398.617	98.3
398.826	45.06
399.035	92.16
399.244	43.01
399.453	51.2
399.663	118.78
399.872	102.4
400.081	143.36
400.29	116.73
400.499	137.21
400.708	65.53
400.917	73.73
401.127	90.11
401.336	57.34
401.545	178.17
401.754	57.34
401.963	180.22
402.172	96.25
402.381	81.92
402.59	102.4
402.799	120.83
403.008	143.36
403.217	81.92
403.426	75.77
403.635	65.53
403.844	88.06
404.053	86.01
404.262	98.3
404.471	172.03
404.68	133.12
404.888	135.17
405.097	147.45
405.306	165.89
405.515	90.11
405.724	114.69
405.933	131.07
406.142	131.07
406.35	112.64
406.559	204.8
406.768	212.99
406.977	247.8
407.185	204.8
407.394	208.89
407.603	147.45
407.812	233.47
408.02	256
408.229	253.95
408.438	231.42
408.646	186.37
408.855	212.99
409.064	264.19
409.272	212.99
409.481	319.48
409.69	329.72
409.898	212.99
410.107	321.53
410.315	335.87
410.524	321.53
410.733	385.02
410.941	280.57
411.15	452.6
411.358	407.55
411.567	419.83
411.775	360.44
411.984	411.64
412.192	352.25
412.401	425.98
412.609	479.22
412.818	565.24
413.026	528.38
413.234	495.61
413.443	620.53
413.651	567.29
413.86	610.29
414.068	610.29
414.276	696.31
414.485	651.25
414.693	706.55
414.901	665.59
415.11	684.02
415.318	681.97
415.526	765.94
415.734	720.88
415.943	815.09
416.151	843.76
416.359	829.43
416.567	854
416.776	878.58
416.984	876.53
417.192	999.41
417.4	1077.23
417.608	972.79
417.817	1091.57
418.025	1167.34
418.233	1155.05
418.441	1208.3
418.649	1277.93
418.857	1277.93
419.065	1427.43
419.273	1253.36
419.481	1425.39
419.689	1396.71
419.897	1544.17
420.105	1531.88
420.313	1550.31
420.521	1564.65
420.729	1581.03
420.937	1736.68
421.145	1753.06
421.353	1906.66
421.561	1920.99
421.769	2023.39
421.977	2088.93
422.185	2050.02
422.393	2187.23
422.601	2475.99
422.809	2310.11
423.017	2301.92
423.224	2467.8
423.432	2631.64
423.64	2555.86
423.848	2752.47
424.056	2725.85
424.263	2924.5
424.471	2885.59
424.679	3067.86
424.887	3022.8
425.094	3268.56
425.302	3293.13
425.51	3395.53
425.718	3383.24
425.925	3504.07
426.133	3600.33
426.341	3669.96
426.548	3919.81
426.756	3874.76
426.964	4009.92
427.171	4143.04
427.379	4362.17
427.586	4511.68
427.794	4655.03
428.001	4820.92
428.209	4859.83
428.417	4941.75
428.624	5038
428.832	5199.79
429.039	5220.27
429.247	5250.99
429.454	5541.8
429.662	6270.88
429.869	5656.49
430.076	6016.93
430.284	5810.09
430.491	6279.07
430.699	6528.92
430.906	6662.04
431.114	6621.08
431.321	6930.33
431.528	6932.37
431.736	7323.54
431.943	7698.31
432.15	7540.62
432.358	7544.72
432.565	8042.37
432.772	8054.66
432.979	8298.37
433.187	8519.55
433.394	8591.23
433.601	9168.76
433.808	9254.77
434.016	9160.56
434.223	9461.62
434.43	10033
434.637	9822.06
434.844	10690.4
435.052	10815.32
435.259	10723.16
435.466	10766.17
435.673	10307.43
435.88	11478.86
436.087	11755.34
436.294	11818.83
436.501	11546.45
436.708	11806.54
436.915	12359.49
437.122	12855.1
437.329	12683.07
437.537	13066.04
437.743	13473.59
437.95	13389.62
438.157	14059.31
438.364	14346.02
438.571	14221.09
438.778	14554.91
438.985	15847.18
439.192	15384.34
439.399	16035.6
439.606	15275.8
439.813	16287.5
440.02	17385.21
440.227	16908.03
440.433	16817.92
440.64	17463.03
440.847	17092.35
441.054	17544.95
441.261	18757.35
441.467	18693.86
441.674	18659.04
441.881	19492.57
442.088	19498.71
442.294	19171.04
442.501	19844.82
442.708	20135.63
442.914	20860.61
443.121	21788.34
443.328	21016.26
443.534	22621.86
443.741	21917.36
443.948	21692.08
444.154	23092.9
444.361	23250.59
444.568	23291.55
444.774	23453.34
444.981	23457.43
445.187	24270.48
445.394	25298.56
445.6	25132.67
445.807	27055.72
446.013	26136.18
446.22	26375.79
446.426	27328.09
446.633	27803.22
446.839	28857.93
447.046	27596.38
447.252	29011.53
447.459	29326.91
447.665	29222.47
447.871	30748.2
448.078	31684.12
448.284	29949.49
448.491	30666.28
448.697	32269.84
448.903	32349.71
449.11	33003.02
449.316	32294.42
449.522	32947.72
449.728	33678.85
449.935	34336.24
450.141	33881.59
450.347	34465.27
450.553	33895.93
450.76	33777.15
450.966	35302.89
451.172	34731.5
451.378	35530.21
451.584	35093.99
451.791	36025.82
451.997	35919.32
452.203	36228.57
452.409	36337.11
452.615	36234.71
452.821	34571.76
453.027	34491.89
453.233	36333.01
453.44	34977.26
453.646	35614.18
453.852	35655.14
454.058	36228.57
454.264	34944.49
454.47	35687.9
454.676	34723.31
454.882	35888.6
455.088	33041.93
455.294	33232.39
455.5	33478.15
455.705	34397.68
455.911	32777.74
456.117	32247.32
456.323	31600.16
456.529	30463.54
456.735	31387.17
456.941	30676.52
457.147	29969.97
457.352	29484.61
457.558	28827.21
457.764	29283.91
457.97	28452.43
458.176	27801.18
458.381	28040.79
458.587	26510.96
458.793	26746.47
458.999	25169.54
459.204	27057.76
459.41	26199.66
459.616	24436.36
459.821	24721.03
460.027	24536.71
460.233	24004.24
460.438	23008.93
460.644	23346.84
460.85	21980.85
461.055	21894.83
461.261	21472.95
461.466	20135.63
461.672	19580.63
461.878	21024.45
462.083	19273.43
462.289	19115.74
462.494	18898.66
462.7	17975.02
462.905	17635.06
463.111	18255.59
463.316	18003.69
463.522	17819.38
463.727	17927.92
463.932	17889.01
464.138	17702.64
464.343	17571.57
464.549	17213.18
464.754	17833.71
464.959	17432.31
465.165	17403.64
465.37	16625.41
465.575	16289.54
465.781	17041.15
465.986	17104.63
466.191	16250.63
466.397	16338.69
466.602	15427.35
466.807	15882
467.012	15931.15
467.218	15611.67
467.423	15537.94
467.628	15562.51
467.833	16400.13
468.038	15789.84
468.244	15290.13
468.449	15976.2
468.654	15449.88
468.859	15603.47
469.064	15236.89
469.269	14434.08
469.474	14618.4
469.679	14956.32
469.885	14528.29
470.09	14618.4
470.295	14821.15
470.5	14300.97
470.705	14255.91
470.91	14077.74
471.115	13895.47
471.32	14241.57
471.525	14114.6
471.73	14014.25
471.935	13834.03
472.139	13217.59
472.344	13590.32
472.549	13158.2
472.754	13018.94
472.959	12961.59
473.164	12701.5
473.369	12560.19
473.574	12812.09
473.778	12674.88
473.983	12525.38
474.188	12508.99
474.393	12160.84
474.598	12078.92
474.802	11816.78
475.007	11927.37
475.212	11753.29
475.417	11687.76
475.621	11577.17
475.826	11712.33
476.031	11239.25
476.235	11112.28
476.44	11194.2
476.645	10954.58
476.849	11099.99
477.054	10692.44
477.259	10803.04
477.463	10794.84
477.668	10497.89
477.872	10714.97
478.077	10409.83
478.282	10139.49
478.486	10055.53
478.691	9930.6
478.895	9826.15
479.1	9738.09
479.304	10092.39
479.509	9682.8
479.713	10047.33
479.918	9611.12
480.122	9449.33
480.326	9592.69
480.531	9625.45
480.735	9619.31
480.94	9437.04
481.144	9723.76
481.348	9119.6
481.553	9508.72
481.757	9049.97
481.961	9316.21
482.166	9443.18
482.37	9133.94
482.574	9111.41
482.778	9215.86
482.983	9260.91
483.187	9361.27
483.391	9281.39
483.595	9011.06
483.8	9140.08
484.004	9201.52
484.208	9265.01
484.412	9293.68
484.616	9154.42
484.821	9265.01
485.025	9209.72
485.229	9060.21
485.433	8970.1
485.637	9088.89
485.841	8912.76
486.045	9183.09
486.249	9191.28
486.453	9066.36
486.657	9144.18
486.861	9176.95
487.065	8998.77
487.269	9011.06
487.473	9029.49
487.677	9244.53
487.881	9029.49
488.085	9092.98
488.289	9265.01
488.493	9219.96
488.697	9301.87
488.901	9303.92
489.105	9158.52
489.309	9219.96
489.512	9322.35
489.716	9351.03
489.92	9342.83
490.124	9111.41
490.328	9525.1
490.531	9389.94
490.735	9670.51
490.939	9346.93
491.143	9336.69
491.346	9365.36
491.55	9641.84
491.754	9494.38
491.958	9650.03
492.161	9594.73
492.365	9654.12
492.569	9662.32
492.772	9742.19
492.976	9830.25
493.18	9699.18
493.383	10045.29
493.587	9897.83
493.79	9994.09
493.994	9926.5
494.197	10028.9
494.401	9961.32
494.605	10141.54
494.808	10354.53
495.012	10245.99
495.215	10366.82
495.419	10356.58
495.622	10491.74
495.825	10690.4
496.029	10542.94
496.232	10731.36
496.436	10882.91
496.639	11171.67
496.843	10956.63
497.046	11398.99
497.249	11368.27
497.453	11140.95
497.656	11329.36
497.859	11616.08
498.063	11448.15
498.266	11972.43
498.469	11788.11
498.673	11855.69
498.876	12134.21
499.079	12048.2
499.282	11968.33
499.485	12539.71
499.689	12461.89
499.892	12869.44
500.095	12779.33
500.298	13223.73
500.501	13055.8
500.705	13375.28
500.908	13481.78
501.111	13420.34
501.314	13567.79
501.517	13852.46
501.72	13999.91
501.923	13831.98
502.126	14278.44
502.329	14358.31
502.532	14460.71
502.735	14602.02
502.938	14796.57
503.141	15048.47
503.344	15267.61
503.547	15224.6
503.75	15460.12
503.953	15787.79
504.156	15937.29
504.359	15925.01
504.562	15804.17
504.765	16424.71
504.968	16631.55
505.17	16445.19
505.373	16756.48
505.576	17092.35
505.779	17112.83
505.982	17530.61
506.185	17719.03
506.387	17811.18
506.59	17899.25
506.793	17950.45
506.996	18048.75
507.198	18454.25
507.401	18454.25
507.604	18552.55
507.807	18904.8
508.009	19130.08
508.212	19162.84
508.415	19404.5
508.617	19609.3
508.82	19656.4
509.022	19754.71
509.225	20258.51
509.428	20426.44
509.63	20580.04
509.833	20944.58
510.035	21200.57
510.238	20987.58
510.44	21485.24
510.643	21731
510.845	21655.22
511.048	21685.94
511.25	22081.2
511.453	22478.51
511.655	22859.43
511.858	22404.78
512.06	22855.33
512.262	23060.13
512.465	23105.18
512.667	23436.95
512.87	23625.37
513.072	23760.53
513.274	24174.22
513.477	24495.75
513.679	24587.91
513.881	24870.53
514.084	24880.77
514.286	25302.65
514.488	25685.62
514.69	26041.97
514.893	25667.19
515.095	25927.28
515.297	26306.16
515.499	26496.62
515.701	26732.14
515.904	27100.77
516.106	27053.67
516.308	27225.7
516.51	27717.21
516.712	27811.42
516.914	28347.98
517.116	28532.3
517.318	28782.15
517.52	28503.63
517.722	28937.8
517.925	29560.38
518.127	29892.15
518.329	29470.27
518.531	29453.89
518.733	30180.92
518.935	30584.37
519.136	30610.99
519.338	30944.81
519.54	31215.14
519.742	31217.19
519.944	31325.73
520.146	31698.46
520.348	31985.18
520.55	32093.72
520.752	32286.23
520.954	32716.3
521.155	32697.87
521.357	32910.86
521.559	33209.86
521.761	33863.16
521.963	33713.66
522.164	33914.36
522.366	33732.09
522.568	34256.37
522.77	34555.38
522.971	35010.03
523.173	34678.25
523.375	34725.36
523.576	34975.21
523.778	35581.41
523.98	35800.54
524.181	35810.78
524.383	35870.17
524.584	36443.6
524.786	36292.05
524.988	36107.74
525.189	36754.9
525.391	36754.9
525.592	36789.71
525.794	36894.16
525.995	37090.76
526.197	37422.53
526.398	37129.67
526.6	37600.71
526.801	37508.55
527.003	37520.84
527.204	37656
527.406	38215.1
527.607	38442.42
527.808	38309.3
528.01	37707.2
528.211	38229.43
528.412	38866.35
528.614	38426.04
528.815	38823.34
529.016	39177.64
529.218	38901.17
529.419	38946.22
529.62	38772.14
529.822	39284.14
530.023	38772.14
530.224	39101.87
530.425	39263.66
530.626	38995.37
530.828	38931.89
531.029	39902.62
531.23	39212.46
531.431	39169.45
531.632	39413.16
531.833	39687.59
532.035	39435.69
532.236	39701.92
532.437	39849.38
532.638	39577
532.839	40322.46
533.04	39781.79
533.241	39151.02
533.442	40314.26
533.643	40222.11
533.844	39810.46
534.045	40041.88
534.246	39269.8
534.447	39767.46
534.648	39703.97
534.849	39867.81
535.05	39435.69
535.251	39603.62
535.451	39841.18
535.652	39886.24
535.853	39775.65
536.054	39957.92
536.255	40009.12
536.456	39800.22
536.657	40347.03
536.857	39914.91
537.058	39925.15
537.259	40242.59
537.46	40082.84
537.66	39548.32
537.861	39796.13
538.062	39744.93
538.263	39943.58
538.463	39847.33
538.664	39667.11
538.865	40007.07
539.065	40162.72
539.266	39413.16
539.466	40224.15
539.667	39382.44
539.868	40105.37
540.068	39687.59
540.269	39716.26
540.469	39957.92
540.67	39646.63
540.87	39628.2
541.071	39572.9
541.271	39751.07
541.472	39429.54
541.672	39280.04
541.873	39603.62
542.073	39140.78
542.274	39837.09
542.474	39505.32
542.675	39482.79
542.875	39837.09
543.075	39736.74
543.276	38960.56
543.476	39634.34
543.676	39368.1
543.877	39304.62
544.077	39441.83
544.277	39419.3
544.478	39386.53
544.678	39503.27
544.878	39130.54
545.078	39472.55
545.279	39126.44
545.479	39169.45
545.679	39257.51
545.879	39083.44
546.079	39216.55
546.28	39019.95
546.48	38440.37
546.68	39216.55
546.88	39191.98
547.08	39003.56
547.28	39093.68
547.48	38917.55
547.68	39380.39
547.88	39001.52
548.081	39423.4
548.281	39234.99
548.481	39140.78
548.681	39609.76
548.881	39357.86
549.081	39277.99
549.28	38614.45
549.48	39407.01
549.68	39075.24
549.88	39671.2
550.08	38933.93
550.28	39425.45
550.48	39269.8
550.68	39591.33
550.88	38823.34
551.08	39425.45
551.279	38974.89
551.479	38706.61
551.679	39255.46
551.879	38948.27
552.079	39116.2
552.278	38964.65
552.478	39136.68
552.678	38804.91
552.878	39228.84
553.077	38655.41
553.277	38413.75
553.477	38837.68
553.676	38968.75
553.876	38641.07
554.076	38923.69
554.275	38530.48
554.475	38120.89
554.674	38847.92
554.874	38534.58
555.074	38690.23
555.273	38933.93
555.473	38907.31
555.672	38223.29
555.872	38450.61
556.071	38294.97
556.271	38684.08
556.47	38096.31
556.67	37995.96
556.869	38170.04
557.068	38423.99
557.268	37930.43
557.467	37920.19
557.667	37864.89
557.866	38274.49
558.065	38415.8
558.265	38004.16
558.464	37942.72
558.663	38276.54
558.863	37830.08
559.062	38231.48
559.261	37860.8
559.461	38034.88
559.66	37481.92
559.859	37531.08
560.058	37823.93
560.258	37526.98
560.457	37023.18
560.656	37746.11
560.855	37670.34
561.054	37770.69
561.253	37377.48
561.453	37707.2
561.652	37457.35
561.851	37440.96
562.05	37270.98
562.249	37273.03
562.448	37381.57
562.647	37203.4
562.846	37154.25
563.045	36955.6
563.244	36613.59
563.443	37354.95
563.642	36546
563.841	36640.21
564.04	36607.44
564.239	37330.37
564.438	36779.47
564.637	36445.65
564.836	36916.68
565.035	36466.13
565.234	36433.36
565.432	36259.29
565.631	36353.49
565.83	36793.81
566.029	36001.24
566.228	36197.85
566.427	36244.95
566.625	35982.81
566.824	35798.49
567.023	35974.62
567.222	35663.33
567.42	35997.15
567.619	35614.18
567.818	35624.42
568.016	35716.57
568.215	35904.99
568.414	35499.49
568.612	35706.34
568.811	35118.57
569.01	35687.9
569.208	35155.43
569.407	34944.49
569.605	34776.56
569.804	35272.17
570.002	34729.45
570.201	35100.14
570.4	35040.75
570.598	34917.87
570.797	34711.02
570.995	34358.77
571.193	34469.36
571.392	34805.23
571.59	34205.17
571.789	34373.11
571.987	34844.14
572.186	33983.99
572.384	34442.74
572.582	34569.71
572.781	34360.82
572.979	33607.17
573.177	33873.4
573.376	34151.93
573.574	33850.88
573.772	33926.65
573.971	33664.51
574.169	33287.68
574.367	32986.63
574.565	33398.27
574.763	33277.44
574.962	32960.01
575.16	32777.74
575.358	33285.64
575.556	32886.28
575.754	33426.95
575.952	32880.14
576.151	33148.42
576.349	32536.08
576.547	32325.14
576.745	32751.12
576.943	32949.77
577.141	32865.8
577.339	32675.34
577.537	32067.09
577.735	32380.43
577.933	31907.35
578.131	32581.13
578.329	31929.88
578.527	32009.75
578.725	31938.07
578.923	31813.15
579.121	31997.46
579.319	31829.53
579.516	31675.93
579.714	31446.56
579.912	31368.74
580.11	31458.85
580.308	31397.41
580.506	31329.83
580.704	30660.14
580.901	30852.65
581.099	31395.36
581.297	30891.56
581.495	30694.96
581.692	31075.88
581.89	30617.13
582.088	30598.7
582.285	30467.63
582.483	30967.34
582.681	30733.87
582.878	30545.45
583.076	29939.26
583.274	30582.32
583.471	30078.52
583.669	30090.8
583.866	29853.24
584.064	30318.13
584.262	29640.25
584.459	30060.09
584.657	29730.36
584.854	29924.92
585.052	29257.28
585.249	29797.95
585.447	29750.84
585.644	29324.86
585.841	29324.86
586.039	29646.4
586.236	28829.26
586.434	28812.87
586.631	29070.92
586.828	28982.85
587.026	28814.92
587.223	28894.79
587.42	28667.47
587.618	28560.97
587.815	28773.96
588.012	28661.32
588.21	28429.9
588.407	28599.88
588.604	27965.01
588.801	28075.6
588.999	28130.9
589.196	28171.86
589.393	28096.08
589.59	27792.98
589.787	27645.53
589.984	27641.43
590.182	27473.5
590.379	27479.64
590.576	27430.49
590.773	27776.6
590.97	27315.81
591.167	27539.04
591.364	27074.15
591.561	27444.83
591.758	26996.32
591.955	26992.23
592.152	27446.88
592.349	26584.68
592.546	27037.28
592.743	26893.93
592.94	26160.75
593.137	26650.22
593.334	26764.9
593.531	26355.31
593.727	26379.89
593.924	26449.52
594.121	26175.09
594.318	26355.31
594.515	25857.65
594.712	26207.86
594.908	25970.29
595.105	25788.02
595.302	25783.93
595.499	25673.34
595.696	25509.5
595.892	25282.17
596.089	25691.77
596.286	25564.79
596.482	25304.7
596.679	25446.01
596.876	25521.79
597.072	25147.01
597.269	25380.48
597.466	25007.75
597.662	24919.68
597.859	24958.6
598.055	24796.81
598.252	24780.42
598.448	24813.19
598.645	24270.48
598.841	24243.85
599.038	24485.51
599.234	24534.67
599.431	24204.94
599.627	24295.05
599.824	24192.65
600.02	23844.5
600.217	24231.57
600.413	23998.1
600.609	23799.44
600.806	23735.96
601.002	23883.41
601.198	23588.5
601.395	23568.02
601.591	23357.08
601.787	23772.82
601.984	23400.09
602.18	23580.31
602.376	23203.49
602.572	23301.79
602.769	23352.99
602.965	22726.31
603.161	23103.14
603.357	22832.8
603.553	22869.67
603.75	22937.25
603.946	22331.05
604.142	22875.81
604.338	22453.93
604.534	22541.99
604.73	22458.03
604.926	22498.98
605.122	22615.72
605.318	22271.66
605.514	22150.83
605.71	22214.32
605.906	22255.28
606.102	22087.34
606.298	22195.89
606.494	22128.3
606.69	22326.96
606.886	22025.9
607.082	21581.49
607.278	22009.52
607.474	21522.1
607.67	21591.73
607.866	21444.28
608.062	21864.11
608.257	21458.62
608.453	21456.57
608.649	21638.84
608.845	21274.3
609.041	21202.62
609.236	21421.75
609.432	21382.84
609.628	21040.83
609.824	21360.31
610.019	21016.26
610.215	20936.38
610.411	21194.43
610.606	20784.83
610.802	21274.3
610.998	21061.31
611.193	21067.45
611.389	20532.93
611.584	20614.85
611.78	20600.52
611.976	20692.68
612.171	20727.49
612.367	20870.85
612.562	20287.18
612.758	20315.85
612.953	20299.47
613.149	20385.48
613.344	20225.74
613.539	20666.05
613.735	20276.94
613.93	20539.08
614.126	20410.06
614.321	20547.27
614.517	20127.44
614.712	20178.64
614.907	20197.07
615.103	20422.34
615.298	20092.62
615.493	20405.96
615.688	19719.89
615.884	20270.79
616.079	20158.16
616.274	20088.53
616.47	19635.92
616.665	19824.34
616.86	19900.11
617.055	19474.13
617.25	19637.97
617.445	19977.94
617.641	19545.81
617.836	19664.6
618.031	19486.42
618.226	19705.56
618.421	19316.44
618.616	19646.16
618.811	19107.55
619.006	19412.7
619.201	18972.38
619.396	19062.49
619.591	18882.27
619.786	19070.69
619.981	18724.58
620.176	19144.41
620.371	18636.52
620.566	18812.64
620.761	18564.84
620.956	18777.83
621.151	18228.97
621.346	18513.64
621.541	18335.46
621.735	18546.4
621.93	18083.56
622.125	17977.07
622.32	17886.96
622.515	17993.45
622.709	17612.53
622.904	17733.36
623.099	17581.81
623.294	17463.03
623.488	17434.36
623.683	17510.13
623.878	17104.63
624.072	17215.23
624.267	16973.56
624.462	17118.97
624.656	16760.58
624.851	16998.14
625.046	16809.73
625.24	16678.66
625.435	16621.31
625.629	16297.74
625.824	16404.23
626.018	16127.75
626.213	16111.37
626.407	16144.14
626.602	15855.37
626.796	16004.88
626.991	16011.02
627.185	15879.95
627.38	15621.91
627.574	15572.75
627.768	15701.78
627.963	15605.52
628.157	15306.52
628.352	15396.63
628.546	14982.94
628.74	15220.5
628.935	15105.82
629.129	15099.67
629.323	14933.79
629.517	14716.7
629.712	14966.56
629.906	14731.04
630.1	14339.88
630.294	14608.16
630.489	14741.28
630.683	14626.59
630.877	14413.6
631.071	14274.34
631.265	14288.68
631.459	14145.32
631.653	14057.26
631.848	13977.39
632.042	13907.76
632.236	13756.21
632.43	13592.37
632.624	13842.22
632.818	13571.89
633.012	13221.69
633.206	13389.62
633.4	13508.4
633.594	13291.32
633.788	13197.11
633.982	13264.69
634.176	13109.05
634.369	13182.77
634.563	13244.21
634.757	12799.8
634.951	12992.31
635.145	12994.36
635.339	12773.18
635.533	12713.79
635.726	12721.98
635.92	12298.05
636.114	12691.26
636.308	12316.48
636.501	12267.33
636.695	12224.33
636.889	12363.59
637.083	12205.89
637.276	12154.69
637.47	11988.81
637.664	11859.79
637.857	12023.62
638.051	11814.73
638.244	11765.58
638.438	11741
638.632	11763.53
638.825	11685.71
639.019	11398.99
639.212	11562.83
639.406	11278.16
639.599	11370.32
639.793	11315.03
639.986	11020.12
640.18	11343.7
640.373	11423.57
640.567	11005.78
640.76	11075.42
640.954	10927.96
641.147	11020.12
641.34	10905.43
641.534	10741.6
641.727	10641.25
641.92	10874.71
642.114	10641.25
642.307	10602.33
642.5	10483.55
642.694	10446.69
642.887	10477.41
643.08	10579.81
643.273	10344.29
643.467	10278.76
643.66	10237.8
643.853	10207.08
644.046	10166.12
644.239	9977.7
644.432	9936.74
644.626	10086.25
644.819	9912.17
645.012	9989.99
645.205	9774.95
645.398	9715.56
645.591	9641.84
645.784	9688.94
645.977	9510.77
646.17	9441.14
646.363	9613.17
646.556	9285.49
646.749	9308.02
646.942	9338.74
647.135	9209.72
647.328	9340.79
647.521	9144.18
647.714	9035.64
647.907	9109.36
648.099	8978.3
648.292	9080.69
648.485	8900.47
648.678	8929.14
648.871	8896.38
649.064	8810.36
649.256	8863.61
649.449	8613.76
649.642	8683.39
649.835	8693.63
650.027	8642.43
650.22	8685.44
650.413	8576.89
650.605	8480.64
650.798	8445.82
650.991	8341.38
651.183	8523.65
651.376	8238.98
651.568	8294.27
651.761	8253.31
651.954	8216.45
652.146	8228.74
652.339	8069
652.531	8083.33
652.724	8087.43
652.916	7722.89
653.109	7776.14
653.301	7970.69
653.494	7939.97
653.686	7698.31
653.879	7933.83
654.071	7927.69
654.263	7749.51
654.456	7587.72
654.648	7733.13
654.84	7722.89
655.033	7501.71
655.225	7372.69
655.417	7483.28
655.61	7415.69
655.802	7466.89
655.994	7266.19
656.186	7145.36
656.379	7346.06
656.571	7237.52
656.763	7071.64
656.955	7249.81
657.148	7192.47
657.34	6926.23
657.532	7077.78
657.724	7022.48
657.916	7002.01
658.108	6911.89
658.3	6838.17
658.492	7079.83
658.684	6799.26
658.876	6815.64
659.068	6743.96
659.26	6631.32
659.452	6657.95
659.644	6899.61
659.836	6469.53
660.028	6733.72
660.22	6543.26
660.412	6442.91
660.604	6506.4
660.796	6471.58
660.988	6373.28
661.18	6358.94
661.372	6453.15
661.563	6401.95
661.755	6320.03
661.947	6350.75
662.139	6416.29
662.331	6104.99
662.522	6145.95
662.714	6158.24
662.906	6004.64
663.097	6045.6
663.289	6025.12
663.481	6031.27
663.673	6096.8
663.864	6025.12
664.056	5949.35
664.247	5994.4
664.439	5799.85
664.631	5928.87
664.822	5922.73
665.014	5756.84
665.205	5752.74
665.397	5687.21
665.588	5734.31
665.78	5803.94
665.971	5711.78
666.163	5664.68
666.354	5613.48
666.546	5513.13
666.737	5689.26
666.929	5504.94
667.12	5558.19
667.311	5443.5
667.503	5529.52
667.694	5345.2
667.885	5447.6
668.077	5173.17
668.268	5357.49
668.459	5343.15
668.651	5177.26
668.842	5316.53
669.033	5199.79
669.224	5195.7
669.416	5406.64
669.607	5423.02
669.798	5300.14
669.989	5156.79
670.18	5162.93
670.371	5121.97
670.563	4974.52
670.754	5058.48
670.945	4812.73
671.136	4964.28
671.327	5033.91
671.518	4999.09
671.709	5062.58
671.9	5187.5
672.091	4849.59
672.282	4841.4
672.473	4982.71
672.664	4913.08
672.855	4747.19
673.046	4958.13
673.237	4843.45
673.428	4755.38
673.619	4763.58
673.809	4794.29
674	4669.37
674.191	4687.8
674.382	4573.11
674.573	4704.18
674.764	4691.9
674.954	4798.39
675.145	4755.38
675.336	4607.93
675.527	4646.84
675.717	4548.54
675.908	4564.92
676.099	4536.25
676.289	4466.62
676.48	4456.38
676.671	4407.23
676.861	4489.15
677.052	4519.87
677.243	4472.76
677.433	4571.07
677.624	4403.13
677.814	4433.85
678.005	4499.39
678.195	4382.65
678.386	4497.34
678.576	4272.06
678.767	4374.46
678.957	4368.32
679.148	4476.86
679.338	4417.47
679.529	4177.86
679.719	4140.99
679.909	4282.3
680.1	4284.35
680.29	4263.87
680.481	4286.4
680.671	4353.98
680.861	4196.29
681.052	4218.82
681.242	4270.01
681.432	4122.56
681.622	4331.45
681.813	4259.77
682.003	4061.12
682.193	4083.65
682.383	4261.82
682.573	4175.81
682.764	4005.83
682.954	4190.14
683.144	4122.56
683.334	3999.68
683.524	4063.17
683.714	4112.32
683.904	4104.13
684.094	4106.18
684.284	4147.14
684.474	4032.45
684.664	4069.31
684.854	4030.4
685.044	3921.86
685.234	3938.24
685.424	3952.58
685.614	3846.09
685.804	4069.31
685.994	3858.37
686.184	4022.21
686.374	3993.54
686.564	3778.5
686.753	3803.08
686.943	3794.89
687.133	3710.92
687.323	3715.02
687.513	3778.5
687.702	3717.06
687.892	3766.21
688.082	3688.39
688.272	3743.69
688.461	3796.93
688.651	3719.11
688.841	3755.97
689.03	3620.81
689.22	3629
689.41	3674.06
689.599	3684.3
689.789	3604.42
689.979	3538.89
690.168	3522.51
690.358	3489.74
690.547	3483.59
690.737	3436.49
690.926	3512.27
691.116	3471.31
691.305	3497.93
691.495	3499.98
691.684	3403.72
691.874	3301.33
692.063	3465.16
692.252	3506.12
692.442	3342.28
692.631	3418.06
692.82	3465.16
693.01	3375.05
693.199	3377.1
693.388	3227.6
693.578	3274.7
693.767	3284.94
693.956	3235.79
694.146	3180.5
694.335	3303.37
694.524	3237.84
694.713	3190.74
694.902	3162.06
695.092	3123.15
695.281	3026.9
695.47	3162.06
695.659	3149.78
695.848	3145.68
696.037	3080.14
696.226	3057.62
696.415	3033.04
696.604	3262.41
696.793	3112.91
696.982	3012.56
697.171	3137.49
697.36	3080.14
697.549	3018.71
697.738	2983.89
697.927	3071.95
698.116	3026.9
698.305	2965.46
698.494	2990.03
698.683	2801.62
698.872	3080.14
699.061	3121.1
699.25	2924.5
699.438	2957.27
699.627	2990.03
699.816	2983.89
700.005	2926.55
700.193	2912.21
700.382	2926.55
700.571	2867.16
700.76	2936.79
700.948	2830.29
701.137	2885.59
701.326	2942.93
701.514	2756.57
701.703	3002.32
701.892	2850.77
702.08	2775
702.269	2883.54
702.457	2850.77
702.646	2758.61
702.834	2832.34
703.023	2768.85
703.212	2942.93
703.4	2744.28
703.589	2805.72
703.777	2838.48
703.965	2760.66
704.154	2707.41
704.342	2846.68
704.531	2897.88
704.719	2717.65
704.907	2906.07
705.096	2770.9
705.284	2762.71
705.472	2752.47
705.661	2869.2
705.849	2697.17
706.037	2746.33
706.226	2764.76
706.414	2738.13
706.602	2678.74
706.79	2811.86
706.979	2695.13
707.167	2891.73
707.355	2656.22
707.543	2756.57
707.731	2639.83
707.919	2637.78
708.107	2703.32
708.296	2650.07
708.484	2645.98
708.672	2660.31
708.86	2584.54
709.048	2738.13
709.236	2719.7
709.424	2670.55
709.612	2688.98
709.8	2674.65
709.988	2697.17
710.176	2664.41
710.364	2654.17
710.551	2588.63
710.739	2703.32
710.927	2609.11
711.115	2668.5
711.303	2680.79
711.491	2605.02
711.679	2619.35
711.866	2609.11
712.054	2738.13
712.242	2662.36
712.43	2582.49
712.617	2639.83
712.805	2555.86
712.993	2613.21
713.181	2533.34
713.368	2549.72
713.556	2629.59
713.744	2486.23
713.931	2734.04
714.119	2717.65
714.306	2590.68
714.494	2584.54
714.682	2580.44
714.869	2678.74
715.057	2625.5
715.244	2514.91
715.432	2535.39
715.619	2562.01
715.807	2627.54
715.994	2557.91
716.182	2559.96
716.369	2576.34
716.556	2736.09
716.744	2498.52
716.931	2502.62
717.119	2566.1
717.306	2609.11
717.493	2490.33
717.681	2525.15
717.868	2504.67
718.055	2570.2
718.242	2637.78
718.43	2617.3
718.617	2535.39
718.804	2553.82
718.991	2639.83
719.179	2551.77
719.366	2514.91
719.553	2555.86
719.74	2484.19
719.927	2430.94
720.114	2404.32
720.301	2478.04
720.488	2508.76
720.676	2535.39
720.863	2385.88
721.05	2600.92
721.237	2531.29
721.424	2623.45
721.611	2418.65
721.798	2455.51
721.985	2451.42
722.172	2416.6
722.358	2566.1
722.545	2418.65
722.732	2359.26
722.919	2492.38
723.106	2432.99
723.293	2545.63
723.48	2490.33
723.667	2441.18
723.853	2445.27
724.04	2457.56
724.227	2572.25
724.414	2467.8
724.6	2416.6
724.787	2416.6
724.974	2473.95
725.161	2457.56
725.347	2355.16
725.534	2543.58
725.72	2441.18
725.907	2514.91
726.094	2394.08
726.28	2432.99
726.467	2467.8
726.653	2402.27
726.84	2410.46
727.027	2502.62
727.213	2371.55
727.4	2406.36
727.586	2439.13
727.773	2367.45
727.959	2469.85
728.145	2492.38
728.332	2414.56
728.518	2402.27
728.705	2336.73
728.891	2394.08
729.077	2508.76
729.264	2445.27
729.45	2338.78
729.636	2381.79
729.823	2584.54
730.009	2398.17
730.195	2310.11
730.382	2424.8
730.568	2557.91
730.754	2471.9
730.94	2371.55
731.126	2301.92
731.313	2408.41
731.499	2334.68
731.685	2467.8
731.871	2322.4
732.057	2426.84
732.243	2381.79
732.429	2279.39
732.615	2408.41
732.801	2428.89
732.987	2500.57
733.173	2336.73
733.359	2441.18
733.545	2400.22
733.731	2230.24
733.917	2385.88
734.103	2324.44
734.289	2449.37
734.475	2324.44
734.661	2457.56
734.847	2439.13
735.033	2246.62
735.219	2334.68
735.404	2318.3
735.59	2351.07
735.776	2256.86
735.962	2326.49
736.148	2441.18
736.333	2441.18
736.519	2181.09
736.705	2283.49
736.89	2430.94
737.076	2258.91
737.262	2197.47
737.447	2377.69
737.633	2105.31
737.819	2400.22
738.004	2181.09
738.19	2299.87
738.375	2263.01
738.561	2355.16
738.747	2363.36
738.932	2301.92
739.118	2209.76
739.303	2277.34
739.489	2330.59
739.674	2217.95
739.859	2328.54
740.045	2240.48
740.23	2205.66
740.416	2113.5
740.601	2203.61
740.786	2236.38
740.972	2215.9
741.157	2256.86
741.342	2138.08
741.528	2244.57
741.713	2252.77
741.898	2228.19
742.084	2101.22
742.269	2164.7
742.454	2011.11
742.639	2115.55
742.824	2105.31
743.01	2179.04
743.195	2119.65
743.38	2162.65
743.565	2140.13
743.75	1992.67
743.935	1992.67
744.12	2138.08
744.305	2041.82
744.49	2142.18
744.675	2033.63
744.86	1978.34
745.045	2060.26
745.23	2050.02
745.415	1925.09
745.6	2023.39
745.785	2050.02
745.97	2090.98
746.155	1992.67
746.34	1957.86
746.525	1908.71
746.71	1986.53
746.895	2007.01
747.079	1892.32
747.264	1857.51
747.449	1927.14
747.634	1978.34
747.819	1935.33
748.003	1800.16
748.188	1859.56
748.373	1845.22
748.557	1949.67
748.742	1978.34
748.927	1763.3
749.111	1794.02
749.296	1753.06
749.481	1771.49
749.665	1732.58
749.85	1802.21
750.034	1687.53
750.219	1740.77
750.404	1658.85
750.588	1781.73
750.773	1640.42
750.957	1720.29
751.141	1644.52
751.326	1679.33
751.51	1638.37
751.695	1554.41
751.879	1628.14
752.064	1642.47
752.248	1646.57
752.432	1720.29
752.617	1658.85
752.801	1556.46
752.985	1589.22
753.17	1646.57
753.354	1615.85
753.538	1499.11
753.722	1527.78
753.907	1556.46
754.091	1429.48
754.275	1490.92
754.459	1546.22
754.643	1372.14
754.828	1515.5
755.012	1433.58
755.196	1384.43
755.38	1458.15
755.564	1361.9
755.748	1378.28
755.932	1437.67
756.116	1355.76
756.3	1409
756.484	1347.56
756.668	1322.99
756.852	1392.62
757.036	1294.32
757.22	1351.66
757.404	1288.17
757.588	1249.26
757.772	1349.61
757.956	1396.71
758.14	1417.19
758.323	1306.6
758.507	1275.88
758.691	1314.8
758.875	1277.93
759.059	1204.21
759.242	1277.93
759.426	1224.69
759.61	1187.82
759.794	1179.63
759.977	1222.64
760.161	1200.11
760.345	1214.45
760.528	1216.49
760.712	1191.92
760.895	1228.78
761.079	1146.86
761.263	1112.05
761.446	1144.81
761.63	1105.9
761.813	1046.51
761.997	1118.19
762.18	1196.01
762.364	1103.86
762.547	1097.71
762.731	1150.96
762.914	1032.18
763.098	1116.14
763.281	1058.8
763.464	1087.47
763.648	1028.08
763.831	1044.46
764.015	1073.14
764.198	983.02
764.381	1030.13
764.564	1060.85
764.748	1099.76
764.931	942.07
765.114	935.92
765.297	987.12
765.481	903.15
765.664	1028.08
765.847	993.26
766.03	909.3
766.213	950.26
766.397	933.87
766.58	915.44
766.763	985.07
766.946	972.79
767.129	995.31
767.312	974.83
767.495	966.64
767.678	935.92
767.861	1011.7
768.044	999.41
768.227	950.26
768.41	942.07
768.593	827.38
768.776	968.69
768.959	903.15
769.142	909.3
769.324	806.9
769.507	950.26
769.69	970.74
769.873	827.38
770.056	1023.98
770.239	948.21
770.421	901.11
770.604	870.39
770.787	843.76
770.97	872.43
771.152	827.38
771.335	946.16
771.518	788.47
771.7	851.95
771.883	843.76
772.066	827.38
772.248	802.8
772.431	886.77
772.613	905.2
772.796	790.52
772.978	843.76
773.161	778.23
773.343	761.84
773.526	772.08
773.708	763.89
773.891	739.32
774.073	794.61
774.256	782.32
774.438	843.76
774.621	700.41
774.803	782.32
774.985	772.08
775.168	632.82
775.35	757.75
775.532	745.46
775.715	696.31
775.897	704.5
776.079	673.78
776.261	710.65
776.444	696.31
776.626	684.02
776.808	718.84
776.99	790.52
777.173	761.84
777.355	667.64
777.537	696.31
777.719	681.97
777.901	610.29
778.083	679.93
778.265	632.82
778.447	720.88
778.629	673.78
778.811	589.81
778.993	634.87
779.175	622.58
779.357	679.93
779.539	626.68
779.721	673.78
779.903	632.82
780.085	544.76
780.267	614.39
780.449	616.44
780.631	630.77
780.812	657.4
780.994	569.34
781.176	563.19
781.358	501.75
781.54	561.14
781.721	516.09
781.903	516.09
782.085	536.57
782.267	534.52
782.448	491.51
782.63	557.05
782.812	542.71
782.993	528.38
783.175	499.7
783.357	450.55
783.538	485.37
783.72	448.51
783.901	509.94
784.083	505.85
784.264	485.37
784.446	419.83
784.627	430.07
784.809	522.23
784.99	526.33
785.172	511.99
785.353	518.14
785.535	542.71
785.716	495.61
785.897	507.9
786.079	524.28
786.26	413.69
786.441	411.64
786.623	505.85
786.804	393.21
786.985	438.27
787.167	413.69
787.348	489.46
787.529	356.35
787.71	401.4
787.891	378.87
788.073	362.49
788.254	415.74
788.435	436.22
788.616	466.94
788.797	380.92
788.978	421.88
789.159	393.21
789.34	380.92
789.522	372.73
789.703	278.52
789.884	409.59
790.065	378.87
790.246	401.4
790.427	346.11
790.607	370.68
790.788	401.4
790.969	401.4
791.15	399.35
791.331	329.72
791.512	237.56
791.693	352.25
791.874	335.87
792.054	419.83
792.235	327.67
792.416	311.29
792.597	403.45
792.778	329.72
792.958	337.91
793.139	370.68
793.32	368.63
793.5	403.45
793.681	360.44
793.862	335.87
794.042	313.34
794.223	290.81
794.404	276.48
794.584	256
794.765	292.86
794.945	354.3
795.126	342.01
795.306	344.06
795.487	227.32
795.667	327.67
795.848	360.44
796.028	337.91
796.209	278.52
796.389	382.97
796.57	290.81
796.75	262.14
796.93	208.89
797.111	221.18
797.291	260.09
797.471	190.46
797.652	204.8
797.832	210.94
798.012	233.47
798.192	237.56
798.373	253.95
798.553	245.76
798.733	278.52
798.913	200.7
799.093	266.24
799.274	233.47
799.454	212.99
799.634	319.48
799.814	272.38
799.994	274.43
800.174	346.11
800.354	217.08
800.534	335.87
800.714	278.52
800.894	229.37
801.074	118.78
801.254	245.76
801.434	221.18
801.614	233.47
801.794	229.37
801.974	780.28
802.154	215.04
802.334	284.67
802.514	208.89
802.693	192.51
802.873	270.33
803.053	243.71
803.233	243.71
803.413	206.84
803.592	229.37
803.772	184.32
803.952	286.72
804.131	169.98
804.311	221.18
804.491	337.91
804.67	206.84
804.85	165.89
805.03	215.04
805.209	319.48
805.389	165.89
805.568	157.69
805.748	217.08
805.928	206.84
806.107	192.51
806.287	253.95
806.466	245.76
806.646	245.76
806.825	178.17
807.004	188.41
807.184	147.45
807.363	149.5
807.543	233.47
807.722	184.32
807.901	251.9
808.081	264.19
808.26	192.51
808.439	176.13
808.619	204.8
808.798	221.18
808.977	141.31
809.156	172.03
809.336	212.99
809.515	161.79
809.694	169.98
809.873	188.41
810.052	198.65
810.231	149.5
810.411	196.61
810.59	118.78
810.769	100.35
810.948	190.46
811.127	149.5
811.306	135.17
811.485	192.51
811.664	204.8
811.843	176.13
812.022	114.69
812.201	221.18
812.38	100.35
812.559	192.51
812.737	182.27
812.916	180.22
813.095	110.59
813.274	276.48
813.453	198.65
813.632	165.89
813.811	223.23
813.989	151.55
814.168	147.45
814.347	108.54
814.526	141.31
814.704	180.22
814.883	65.53
815.062	174.08
815.24	172.03
815.419	122.88
815.598	165.89
815.776	43.01
815.955	184.32
816.133	110.59
816.312	167.93
816.49	131.07
816.669	174.08
816.847	94.21
817.026	184.32
817.204	114.69
817.383	73.73
817.561	157.69
817.74	221.18
817.918	172.03
818.097	120.83
818.275	73.73
818.453	94.21
818.632	139.26
818.81	67.58
818.988	57.34
819.167	69.63
819.345	190.46
819.523	143.36
819.701	161.79
819.879	172.03
820.058	169.98
820.236	28.67
820.414	135.17
820.592	40.96
820.77	26.62
820.948	108.54
821.127	63.49
821.305	110.59
821.483	61.44
821.661	147.45
821.839	143.36
822.017	131.07
822.195	96.25
822.373	122.88
822.551	81.92
822.729	40.96
822.907	73.73
823.085	180.22
823.262	118.78
823.44	73.73
823.618	106.49
823.796	106.49
823.974	65.53
824.152	180.22
824.329	75.77
824.507	69.63
824.685	143.36
824.863	86.01
825.04	94.21
825.218	135.17
825.396	30.72
825.574	139.26
825.751	157.69
825.929	104.45
826.107	49.15
826.284	79.87
826.462	129.02
826.639	81.92
826.817	14.34
826.994	32.77
827.172	24.58
827.349	114.69
827.527	90.11
827.704	139.26
827.882	81.92
828.059	108.54
828.237	32.77
828.414	151.55
828.591	71.68
828.769	94.21
828.946	53.25
829.124	131.07
829.301	108.54
829.478	100.35
829.655	40.96
829.833	73.73
830.01	67.58
830.187	124.93
830.364	98.3
830.542	114.69
830.719	65.53
830.896	108.54
831.073	133.12
831.25	16.38
831.427	98.3
831.604	-6.14
831.782	86.01
831.959	59.39
832.136	77.82
832.313	157.69
832.49	47.1
832.667	16.38
832.844	63.49
833.021	98.3
833.198	122.88
833.374	43.01
833.551	47.1
833.728	65.53
833.905	-16.38
834.082	20.48
834.259	65.53
834.436	83.97
834.612	94.21
834.789	126.97
834.966	53.25
835.143	131.07
835.319	-22.53
835.496	65.53
835.673	75.77
835.85	34.82
836.026	59.39
836.203	139.26
836.38	73.73
836.556	59.39
836.733	92.16
836.909	172.03
837.086	22.53
837.262	59.39
837.439	55.3
837.616	116.73
837.792	40.96
837.968	43.01
838.145	43.01
838.321	8.19
838.498	108.54
838.674	139.26
838.851	100.35
839.027	79.87
839.203	10.24
839.38	73.73
839.556	86.01
839.732	-6.14
839.909	51.2
840.085	73.73
840.261	112.64
840.437	75.77
840.614	114.69
840.79	47.1
840.966	61.44
841.142	24.58
841.318	86.01
841.494	53.25
841.671	32.77
841.847	83.97
842.023	-8.19
842.199	16.38
842.375	47.1
842.551	77.82
842.727	-14.34
842.903	108.54
843.079	32.77
843.255	124.93
843.431	86.01
843.607	40.96
843.783	2.05
843.959	86.01
844.134	94.21
844.31	147.45
844.486	-38.91
844.662	-36.86
844.838	79.87
845.013	79.87
845.189	67.58
845.365	43.01
845.541	59.39
845.716	71.68
845.892	96.25
846.068	73.73
846.244	90.11
846.419	16.38
846.595	34.82
846.77	-14.34
846.946	69.63
847.122	34.82
847.297	-2.05
847.473	151.55
847.648	71.68
847.824	61.44
847.999	-63.49
848.175	10.24
848.35	65.53
848.526	131.07
848.701	67.58
848.876	49.15
849.052	24.58
849.227	49.15
849.403	-10.24
849.578	18.43
849.753	57.34
849.929	69.63
850.104	-40.96
850.279	-8.19
850.454	-55.3
850.63	-32.77
850.805	32.77
850.98	36.86
851.155	92.16
851.33	30.72
851.505	12.29
851.681	28.67
851.856	79.87
852.031	59.39
852.206	-24.58
852.381	65.53
852.556	2.05
852.731	65.53
852.906	73.73
853.081	-14.34
853.256	18.43
853.431	26.62
853.606	49.15
853.781	-12.29
853.956	8.19
854.131	51.2
854.305	6.14
854.48	-12.29
854.655	24.58
854.83	32.77
855.005	-24.58
855.18	98.3
855.354	73.73
855.529	57.34
855.704	-67.58
855.879	61.44
856.053	-30.72
856.228	28.67
856.403	-8.19
856.577	16.38
856.752	40.96
856.926	0
857.101	0
857.276	-49.15
857.45	28.67
857.625	49.15
857.799	32.77
857.974	61.44
858.148	4.1
858.323	34.82
858.497	10.24
858.672	38.91
858.846	-6.14
859.02	92.16
859.195	16.38
859.369	-77.82
859.543	53.25
859.718	67.58
859.892	90.11
860.066	63.49
860.241	18.43
860.415	14.34
860.589	20.48
860.763	57.34
860.938	6.14
861.112	40.96
861.286	49.15
861.46	32.77
861.634	-40.96
861.808	16.38
861.982	81.92
862.157	61.44
862.331	-4.1
862.505	90.11
862.679	14.34
862.853	20.48
863.027	8.19
863.201	57.34
863.375	34.82
863.549	67.58
863.722	16.38
863.896	40.96
864.07	2.05
864.244	-4.1
864.418	16.38
864.592	81.92
864.766	26.62
864.939	0
865.113	30.72
865.287	18.43
865.461	8.19
865.634	-20.48
865.808	30.72
865.982	59.39
866.156	43.01
866.329	18.43
866.503	120.83
866.676	16.38
866.85	59.39
867.024	26.62
867.197	118.78
867.371	69.63
867.544	30.72
867.718	-16.38
867.891	12.29
868.065	26.62
868.238	57.34
868.412	-28.67
868.585	-22.53
868.759	8.19
868.932	-38.91
869.105	-24.58
869.279	-16.38
869.452	0
869.625	16.38
869.799	79.87
869.972	8.19
870.145	8.19
870.319	-16.38
870.492	49.15
870.665	90.11
870.838	0
871.011	-20.48
871.185	-30.72
871.358	40.96
871.531	0
871.704	-4.1
871.877	63.49
872.05	18.43
872.223	-43.01
872.396	-12.29
872.569	51.2
872.742	-34.82
872.915	6.14
873.088	-4.1
873.261	-24.58
873.434	-47.1
873.607	28.67
873.78	16.38
873.953	2.05
874.126	118.78
874.299	24.58
874.471	14.34
874.644	8.19
874.817	75.77
874.99	40.96
875.163	6.14
875.335	59.39
875.508	53.25
875.681	77.82
875.853	32.77
876.026	2.05
876.199	40.96
876.371	53.25
876.544	-22.53
876.717	-24.58
876.889	24.58
877.062	32.77
877.234	-47.1
877.407	-4.1
877.579	10.24
877.752	65.53
877.924	20.48
878.097	-8.19
878.269	61.44
878.442	0
878.614	61.44
878.786	-16.38
878.959	18.43
879.131	-16.38
879.303	-22.53
879.476	-24.58
879.648	2.05
879.82	59.39
879.993	-40.96
880.165	10.24
880.337	-81.92
880.509	122.88
880.681	0
880.854	32.77
881.026	-18.43
881.198	61.44
881.37	0
881.542	57.34
881.714	8.19
881.886	-36.86
882.058	-4.1
882.23	90.11
882.402	16.38
882.574	-8.19
882.746	10.24
882.918	12.29
883.09	24.58
883.262	32.77
883.434	53.25
883.606	4.1
883.778	32.77
883.95	-10.24
884.122	-8.19
884.293	14.34
884.465	-16.38
884.637	106.49
884.809	-63.49
884.98	94.21
885.152	-28.67
885.324	40.96
885.496	-18.43
885.667	-8.19
885.839	-26.62
886.011	40.96
886.182	-12.29
886.354	90.11
886.525	47.1
886.697	-8.19
886.869	-47.1
887.04	30.72
887.212	36.86
887.383	38.91
887.555	-53.25
887.726	-49.15
887.897	8.19
888.069	-36.86
888.24	38.91
888.412	-2.05
888.583	34.82
888.754	49.15
888.926	-4.1
889.097	4.1
889.268	-40.96
889.44	-32.77
889.611	4.1
889.782	-2.05
889.953	-20.48
890.125	26.62
890.296	16.38
890.467	-32.77
890.638	0
890.809	-14.34
890.98	-8.19
891.151	24.58
891.323	28.67
891.494	40.96
891.665	28.67
891.836	38.91
892.007	-24.58
892.178	67.58
892.349	16.38
892.52	-12.29
892.691	45.06
892.862	-16.38
893.032	-57.34
893.203	45.06
893.374	-18.43
893.545	-8.19
893.716	-6.14
893.887	40.96
894.057	-73.73
894.228	-14.34
894.399	-16.38
894.57	92.16
894.74	24.58
894.911	43.01
895.082	43.01
895.253	8.19
895.423	24.58
895.594	8.19
895.764	2.05
895.935	8.19
896.106	-20.48
896.276	26.62
896.447	22.53
896.617	-71.68
896.788	-61.44
896.958	12.29
897.129	-67.58
897.299	-32.77
897.47	6.14
897.64	-8.19
897.81	32.77
897.981	14.34
898.151	-63.49
898.322	98.3
898.492	18.43
898.662	-65.54
898.832	-28.67
899.003	16.38
899.173	-57.34
899.343	40.96
899.513	-4.1
