Data from USB4F104151__41__14-16-44-787.txt Node

Date: Thu Mar 13 14:16:44 EDT 2025
User: louis
Spectrometer: USB4F10415
Trigger mode: 4
Integration Time (sec): 2.000000E-2
Scans to average: 1
Electric dark correction enabled: true
Nonlinearity correction enabled: false
Boxcar width: 0
XAxis mode: Wavelengths
Number of Pixels in Spectrum: 3648
>>>>>Begin Spectral Data<<<<<
178.204	-151.04
178.424	-151.04
178.644	-151.04
178.864	-89.6
179.084	-151.04
179.304	-40.45
179.524	-65.02
179.744	16.9
179.964	45.57
180.184	-30.21
180.404	61.95
180.624	-13.82
180.844	18.94
181.064	-50.69
181.283	20.99
181.503	-7.68
181.723	43.52
181.943	-34.3
182.163	8.7
182.383	72.19
182.602	8.7
182.822	4.61
183.042	25.09
183.262	20.99
183.482	-15.87
183.701	57.86
183.921	70.14
184.141	25.09
184.361	-24.06
184.58	0.51
184.8	45.57
185.02	72.19
185.239	25.09
185.459	41.47
185.679	41.47
185.898	20.99
186.118	41.47
186.338	53.76
186.557	14.85
186.777	2.56
186.997	57.86
187.216	37.38
187.436	72.19
187.655	31.23
187.875	107.01
188.095	-24.06
188.314	27.14
188.534	82.43
188.753	-36.35
188.973	-13.82
189.192	139.77
189.412	74.24
189.631	57.86
189.851	0.51
190.07	117.25
190.29	-3.58
190.509	25.09
190.729	-11.78
190.948	57.86
191.168	152.06
191.387	68.09
191.607	10.75
191.826	-3.58
192.045	70.14
192.265	25.09
192.484	20.99
192.704	25.09
192.923	-65.02
193.142	16.9
193.362	0.51
193.581	70.14
193.8	37.38
194.02	4.61
194.239	37.38
194.458	8.7
194.678	20.99
194.897	25.09
195.116	59.9
195.335	16.9
195.555	-3.58
195.774	53.76
195.993	33.28
196.212	8.7
196.432	-7.68
196.651	25.09
196.87	25.09
197.089	102.91
197.308	35.33
197.528	74.24
197.747	-11.78
197.966	70.14
198.185	-65.02
198.404	0.51
198.623	70.14
198.842	6.66
199.062	49.66
199.281	68.09
199.5	-3.58
199.719	76.29
199.938	35.33
200.157	41.47
200.376	18.94
200.595	84.48
200.814	72.19
201.033	-7.68
201.252	16.9
201.471	68.09
201.69	37.38
201.909	35.33
202.128	33.28
202.347	20.99
202.566	33.28
202.785	16.9
203.004	25.09
203.223	8.7
203.442	-11.78
203.661	41.47
203.879	41.47
204.098	-24.06
204.317	-15.87
204.536	16.9
204.755	-22.02
204.974	51.71
205.193	82.43
205.411	109.05
205.63	94.72
205.849	25.09
206.068	4.61
206.287	-5.63
206.505	45.57
206.724	-3.58
206.943	47.62
207.162	43.52
207.381	16.9
207.599	31.23
207.818	29.18
208.037	20.99
208.255	4.61
208.474	10.75
208.693	68.09
208.911	23.04
209.13	57.86
209.349	66.05
209.567	61.95
209.786	16.9
210.005	-7.68
210.223	12.8
210.442	8.7
210.661	-11.78
210.879	66.05
211.098	78.33
211.316	45.57
211.535	164.35
211.753	39.42
211.972	53.76
212.191	0.51
212.409	39.42
212.628	41.47
212.846	-17.92
213.065	111.1
213.283	64
213.502	-30.21
213.72	25.09
213.938	-7.68
214.157	-9.73
214.375	-30.21
214.594	16.9
214.812	53.76
215.031	25.09
215.249	20.99
215.467	45.57
215.686	133.63
215.904	57.86
216.122	33.28
216.341	61.95
216.559	27.14
216.778	68.09
216.996	66.05
217.214	35.33
217.432	16.9
217.651	29.18
217.869	10.75
218.087	-11.78
218.306	-22.02
218.524	53.76
218.742	41.47
218.96	117.25
219.179	-40.45
219.397	82.43
219.615	68.09
219.833	147.97
220.051	-36.35
220.27	29.18
220.488	2.56
220.706	86.53
220.924	8.7
221.142	16.9
221.36	25.09
221.578	84.48
221.796	123.39
222.015	8.7
222.233	121.34
222.451	82.43
222.669	18.94
222.887	0.51
223.105	76.29
223.323	41.47
223.541	45.57
223.759	59.9
223.977	64
224.195	74.24
224.413	49.66
224.631	8.7
224.849	37.38
225.067	68.09
225.285	-3.58
225.503	61.95
225.721	-30.21
225.939	98.81
226.157	29.18
226.375	76.29
226.592	-13.82
226.81	70.14
227.028	92.67
227.246	64
227.464	33.28
227.682	59.9
227.9	94.72
228.117	49.66
228.335	35.33
228.553	-15.87
228.771	66.05
228.989	59.9
229.206	29.18
229.424	100.86
229.642	10.75
229.86	35.33
230.077	-32.26
230.295	111.1
230.513	49.66
230.731	131.58
230.948	-9.73
231.166	94.72
231.384	41.47
231.601	41.47
231.819	109.05
232.037	18.94
232.254	68.09
232.472	94.72
232.689	61.95
232.907	-81.41
233.125	41.47
233.342	20.99
233.56	33.28
233.777	0.51
233.995	8.7
234.213	90.62
234.43	70.14
234.648	18.94
234.865	31.23
235.083	66.05
235.3	45.57
235.518	92.67
235.735	59.9
235.953	109.05
236.17	47.62
236.388	55.81
236.605	35.33
236.822	49.66
237.04	-7.68
237.257	41.47
237.475	27.14
237.692	102.91
237.909	29.18
238.127	74.24
238.344	139.77
238.562	31.23
238.779	33.28
238.996	2.56
239.214	25.09
239.431	45.57
239.648	33.28
239.865	12.8
240.083	0.51
240.3	43.52
240.517	-62.98
240.735	25.09
240.952	70.14
241.169	20.99
241.386	53.76
241.603	41.47
241.821	6.66
242.038	74.24
242.255	61.95
242.472	-40.45
242.689	35.33
242.907	57.86
243.124	117.25
243.341	6.66
243.558	8.7
243.775	2.56
243.992	2.56
244.209	-3.58
244.426	55.81
244.643	45.57
244.86	20.99
245.078	74.24
245.295	16.9
245.512	45.57
245.729	49.66
245.946	-5.63
246.163	57.86
246.38	86.53
246.597	33.28
246.814	0.51
247.031	2.56
247.248	16.9
247.464	10.75
247.681	33.28
247.898	57.86
248.115	0.51
248.332	23.04
248.549	25.09
248.766	78.33
248.983	78.33
249.2	4.61
249.417	102.91
249.633	-38.4
249.85	51.71
250.067	-28.16
250.284	16.9
250.501	135.68
250.717	-22.02
250.934	-24.06
251.151	64
251.368	10.75
251.585	72.19
251.801	-46.59
252.018	80.38
252.235	70.14
252.451	8.7
252.668	14.85
252.885	41.47
253.102	-9.73
253.318	94.72
253.535	4.61
253.752	41.47
253.968	107.01
254.185	-13.82
254.401	125.44
254.618	74.24
254.835	16.9
255.051	74.24
255.268	66.05
255.484	35.33
255.701	6.66
255.917	94.72
256.134	51.71
256.351	27.14
256.567	-1.54
256.784	141.82
257	10.75
257.217	37.38
257.433	90.62
257.65	68.09
257.866	64
258.082	25.09
258.299	-48.64
258.515	12.8
258.732	18.94
258.948	-26.11
259.165	-22.02
259.381	57.86
259.597	82.43
259.814	39.42
260.03	2.56
260.246	-79.36
260.463	111.1
260.679	55.81
260.895	74.24
261.112	82.43
261.328	76.29
261.544	20.99
261.761	45.57
261.977	86.53
262.193	-36.35
262.409	104.96
262.626	-40.45
262.842	66.05
263.058	-3.58
263.274	90.62
263.49	115.2
263.707	111.1
263.923	61.95
264.139	158.21
264.355	14.85
264.571	35.33
264.787	2.56
265.004	37.38
265.22	43.52
265.436	-15.87
265.652	84.48
265.868	33.28
266.084	14.85
266.3	98.81
266.516	23.04
266.732	59.9
266.948	2.56
267.164	2.56
267.38	27.14
267.596	150.01
267.812	23.04
268.028	90.62
268.244	-9.73
268.46	25.09
268.676	-38.4
268.892	107.01
269.108	-36.35
269.324	59.9
269.54	25.09
269.756	33.28
269.972	29.18
270.188	-17.92
270.403	29.18
270.619	53.76
270.835	53.76
271.051	8.7
271.267	66.05
271.483	43.52
271.698	41.47
271.914	2.56
272.13	96.77
272.346	29.18
272.562	-58.88
272.777	74.24
272.993	68.09
273.209	12.8
273.425	80.38
273.64	-7.68
273.856	74.24
274.072	16.9
274.287	8.7
274.503	137.73
274.719	72.19
274.934	49.66
275.15	23.04
275.366	-19.97
275.581	-19.97
275.797	41.47
276.012	37.38
276.228	2.56
276.444	86.53
276.659	80.38
276.875	-54.78
277.09	10.75
277.306	35.33
277.521	137.73
277.737	49.66
277.952	74.24
278.168	8.7
278.383	96.77
278.599	16.9
278.814	-5.63
279.03	25.09
279.245	53.76
279.461	49.66
279.676	64
279.892	-15.87
280.107	76.29
280.322	41.47
280.538	25.09
280.753	0.51
280.969	-5.63
281.184	47.62
281.399	133.63
281.615	29.18
281.83	123.39
282.045	-15.87
282.26	18.94
282.476	18.94
282.691	70.14
282.906	43.52
283.122	61.95
283.337	33.28
283.552	109.05
283.767	100.86
283.983	45.57
284.198	0.51
284.413	57.86
284.628	37.38
284.843	61.95
285.058	66.05
285.274	43.52
285.489	25.09
285.704	74.24
285.919	61.95
286.134	45.57
286.349	49.66
286.564	-36.35
286.779	31.23
286.995	35.33
287.21	-73.21
287.425	57.86
287.64	-24.06
287.855	31.23
288.07	70.14
288.285	-30.21
288.5	68.09
288.715	45.57
288.93	117.25
289.145	37.38
289.36	59.9
289.575	53.76
289.79	-5.63
290.004	-15.87
290.219	10.75
290.434	10.75
290.649	53.76
290.864	2.56
291.079	57.86
291.294	90.62
291.509	98.81
291.724	10.75
291.938	31.23
292.153	10.75
292.368	-28.16
292.583	76.29
292.798	123.39
293.012	100.86
293.227	80.38
293.442	-24.06
293.657	4.61
293.871	43.52
294.086	76.29
294.301	43.52
294.516	68.09
294.73	96.77
294.945	98.81
295.16	72.19
295.374	113.15
295.589	72.19
295.804	64
296.018	-9.73
296.233	86.53
296.447	57.86
296.662	14.85
296.877	49.66
297.091	117.25
297.306	133.63
297.52	82.43
297.735	82.43
297.949	41.47
298.164	90.62
298.378	-15.87
298.593	10.75
298.807	-15.87
299.022	82.43
299.236	66.05
299.451	82.43
299.665	51.71
299.88	16.9
300.094	61.95
300.309	68.09
300.523	80.38
300.737	-5.63
300.952	53.76
301.166	-3.58
301.381	6.66
301.595	49.66
301.809	74.24
302.024	-7.68
302.238	33.28
302.452	59.9
302.667	27.14
302.881	94.72
303.095	57.86
303.309	20.99
303.524	10.75
303.738	45.57
303.952	-1.54
304.166	164.35
304.381	0.51
304.595	74.24
304.809	66.05
305.023	41.47
305.237	59.9
305.452	107.01
305.666	-44.54
305.88	16.9
306.094	-40.45
306.308	16.9
306.522	115.2
306.736	37.38
306.95	70.14
307.164	6.66
307.379	33.28
307.593	72.19
307.807	53.76
308.021	61.95
308.235	-11.78
308.449	-5.63
308.663	102.91
308.877	76.29
309.091	-1.54
309.305	102.91
309.519	-89.6
309.733	-15.87
309.947	-65.02
310.161	39.42
310.374	0.51
310.588	90.62
310.802	-7.68
311.016	-22.02
311.23	25.09
311.444	74.24
311.658	49.66
311.872	86.53
312.085	10.75
312.299	66.05
312.513	135.68
312.727	35.33
312.941	41.47
313.154	33.28
313.368	102.91
313.582	96.77
313.796	33.28
314.009	-28.16
314.223	-7.68
314.437	59.9
314.651	-7.68
314.864	-5.63
315.078	33.28
315.292	51.71
315.505	10.75
315.719	133.63
315.933	76.29
316.146	-7.68
316.36	4.61
316.573	57.86
316.787	43.52
317.001	25.09
317.214	-5.63
317.428	57.86
317.641	25.09
317.855	57.86
318.068	90.62
318.282	4.61
318.495	109.05
318.709	37.38
318.922	45.57
319.136	-7.68
319.349	66.05
319.563	55.81
319.776	41.47
319.99	27.14
320.203	0.51
320.417	41.47
320.63	80.38
320.843	78.33
321.057	8.7
321.27	8.7
321.483	107.01
321.697	74.24
321.91	84.48
322.124	66.05
322.337	121.34
322.55	-7.68
322.763	41.47
322.977	107.01
323.19	10.75
323.403	59.9
323.617	4.61
323.83	53.76
324.043	-38.4
324.256	61.95
324.469	12.8
324.683	2.56
324.896	119.29
325.109	66.05
325.322	0.51
325.535	86.53
325.748	-9.73
325.962	23.04
326.175	-1.54
326.388	64
326.601	33.28
326.814	39.42
327.027	18.94
327.24	98.81
327.453	41.47
327.666	8.7
327.879	-11.78
328.092	45.57
328.305	100.86
328.518	53.76
328.731	96.77
328.944	78.33
329.157	100.86
329.37	66.05
329.583	109.05
329.796	47.62
330.009	125.44
330.222	20.99
330.435	92.67
330.648	115.2
330.861	14.85
331.073	57.86
331.286	102.91
331.499	66.05
331.712	59.9
331.925	109.05
332.138	37.38
332.35	70.14
332.563	33.28
332.776	61.95
332.989	8.7
333.202	-11.78
333.414	51.71
333.627	68.09
333.84	4.61
334.053	74.24
334.265	107.01
334.478	-15.87
334.691	66.05
334.903	4.61
335.116	20.99
335.329	102.91
335.541	76.29
335.754	49.66
335.966	-1.54
336.179	78.33
336.392	41.47
336.604	25.09
336.817	57.86
337.029	74.24
337.242	27.14
337.454	107.01
337.667	51.71
337.88	68.09
338.092	10.75
338.305	53.76
338.517	-15.87
338.729	119.29
338.942	8.7
339.154	16.9
339.367	74.24
339.579	-11.78
339.792	76.29
340.004	74.24
340.217	-28.16
340.429	16.9
340.641	33.28
340.854	39.42
341.066	18.94
341.278	53.76
341.491	35.33
341.703	61.95
341.915	-24.06
342.128	80.38
342.34	14.85
342.552	8.7
342.764	66.05
342.977	115.2
343.189	78.33
343.401	88.57
343.613	-1.54
343.826	0.51
344.038	14.85
344.25	70.14
344.462	84.48
344.674	68.09
344.886	41.47
345.099	29.18
345.311	27.14
345.523	49.66
345.735	-7.68
345.947	82.43
346.159	53.76
346.371	115.2
346.583	45.57
346.795	195.07
347.007	47.62
347.219	59.9
347.431	39.42
347.643	84.48
347.855	51.71
348.067	94.72
348.279	74.24
348.491	57.86
348.703	35.33
348.915	43.52
349.127	92.67
349.339	12.8
349.551	6.66
349.763	10.75
349.975	61.95
350.187	61.95
350.399	107.01
350.61	49.66
350.822	23.04
351.034	45.57
351.246	76.29
351.458	16.9
351.669	-7.68
351.881	53.76
352.093	131.58
352.305	18.94
352.517	18.94
352.728	104.96
352.94	-22.02
353.152	53.76
353.363	33.28
353.575	68.09
353.787	35.33
353.999	100.86
354.21	141.82
354.422	123.39
354.633	61.95
354.845	53.76
355.057	-40.45
355.268	64
355.48	8.7
355.692	35.33
355.903	10.75
356.115	80.38
356.326	57.86
356.538	113.15
356.749	90.62
356.961	66.05
357.172	109.05
357.384	25.09
357.595	88.57
357.807	-11.78
358.018	-26.11
358.23	115.2
358.441	68.09
358.653	66.05
358.864	33.28
359.075	41.47
359.287	18.94
359.498	78.33
359.709	33.28
359.921	43.52
360.132	25.09
360.344	49.66
360.555	72.19
360.766	55.81
360.977	61.95
361.189	98.81
361.4	37.38
361.611	43.52
361.823	115.2
362.034	86.53
362.245	16.9
362.456	70.14
362.667	35.33
362.879	0.51
363.09	43.52
363.301	76.29
363.512	90.62
363.723	115.2
363.935	0.51
364.146	59.9
364.357	-15.87
364.568	98.81
364.779	35.33
364.99	61.95
365.201	25.09
365.412	74.24
365.623	-13.82
365.834	57.86
366.045	57.86
366.256	-1.54
366.467	59.9
366.678	78.33
366.889	37.38
367.1	0.51
367.311	88.57
367.522	37.38
367.733	68.09
367.944	74.24
368.155	119.29
368.366	123.39
368.577	143.87
368.788	53.76
368.999	53.76
369.209	-32.26
369.42	66.05
369.631	92.67
369.842	-15.87
370.053	74.24
370.264	96.77
370.474	74.24
370.685	64
370.896	96.77
371.107	74.24
371.317	84.48
371.528	23.04
371.739	143.87
371.95	109.05
372.16	78.33
372.371	31.23
372.582	6.66
372.792	74.24
373.003	113.15
373.214	92.67
373.424	78.33
373.635	33.28
373.846	76.29
374.056	57.86
374.267	59.9
374.477	55.81
374.688	35.33
374.898	45.57
375.109	59.9
375.319	29.18
375.53	117.25
375.74	135.68
375.951	-15.87
376.161	37.38
376.372	102.91
376.582	33.28
376.793	57.86
377.003	12.8
377.214	37.38
377.424	104.96
377.635	82.43
377.845	88.57
378.055	76.29
378.266	-54.78
378.476	115.2
378.686	51.71
378.897	74.24
379.107	141.82
379.317	18.94
379.528	66.05
379.738	25.09
379.948	86.53
380.158	117.25
380.369	82.43
380.579	16.9
380.789	16.9
380.999	82.43
381.21	18.94
381.42	127.49
381.63	66.05
381.84	86.53
382.05	74.24
382.261	49.66
382.471	53.76
382.681	45.57
382.891	33.28
383.101	45.57
383.311	29.18
383.521	16.9
383.731	27.14
383.941	41.47
384.151	66.05
384.361	74.24
384.571	55.81
384.781	61.95
384.991	88.57
385.201	109.05
385.411	115.2
385.621	119.29
385.831	18.94
386.041	49.66
386.251	74.24
386.461	76.29
386.671	61.95
386.881	43.52
387.091	92.67
387.301	137.73
387.511	72.19
387.72	33.28
387.93	98.81
388.14	-34.3
388.35	53.76
388.56	86.53
388.769	119.29
388.979	47.62
389.189	43.52
389.399	152.06
389.609	68.09
389.818	158.21
390.028	66.05
390.238	37.38
390.447	61.95
390.657	66.05
390.867	49.66
391.076	31.23
391.286	150.01
391.496	141.82
391.705	131.58
391.915	168.45
392.125	94.72
392.334	0.51
392.544	70.14
392.753	96.77
392.963	18.94
393.172	107.01
393.382	59.9
393.591	84.48
393.801	139.77
394.01	57.86
394.22	20.99
394.429	188.93
394.639	72.19
394.848	66.05
395.058	78.33
395.267	107.01
395.477	102.91
395.686	129.53
395.895	113.15
396.105	147.97
396.314	117.25
396.524	109.05
396.733	117.25
396.942	98.81
397.152	123.39
397.361	104.96
397.57	125.44
397.78	147.97
397.989	66.05
398.198	172.54
398.407	170.49
398.617	86.53
398.826	68.09
399.035	123.39
399.244	156.16
399.453	109.05
399.663	154.11
399.872	150.01
400.081	158.21
400.29	129.53
400.499	76.29
400.708	117.25
400.917	178.69
401.127	147.97
401.336	107.01
401.545	168.45
401.754	137.73
401.963	180.73
402.172	156.16
402.381	174.59
402.59	164.35
402.799	152.06
403.008	180.73
403.217	115.2
403.426	141.82
403.635	141.82
403.844	172.54
404.053	176.64
404.262	160.25
404.471	209.4
404.68	156.16
404.888	160.25
405.097	201.21
405.306	190.97
405.515	162.3
405.724	150.01
405.933	258.56
406.142	193.02
406.35	262.65
406.559	158.21
406.768	264.7
406.977	270.84
407.185	215.55
407.394	244.22
407.603	213.5
407.812	238.08
408.02	221.69
408.229	254.46
408.438	281.08
408.646	324.09
408.855	238.08
409.064	326.14
409.272	336.38
409.481	297.47
409.69	313.85
409.898	346.62
410.107	305.66
410.315	262.65
410.524	328.19
410.733	401.91
410.941	418.3
411.15	408.06
411.358	463.35
411.567	518.65
411.775	393.72
411.984	520.7
412.192	518.65
412.401	532.98
412.609	541.18
412.818	647.67
413.026	567.8
413.234	647.67
413.443	614.9
413.651	639.48
413.86	721.4
414.068	698.87
414.276	731.64
414.485	639.48
414.693	780.79
414.901	844.28
415.11	868.85
415.318	854.51
415.526	924.15
415.734	893.43
415.943	950.77
416.151	979.44
416.359	961.01
416.567	1024.5
416.776	1004.02
416.984	1053.17
417.192	1190.38
417.4	1171.95
417.608	1141.23
417.817	1176.05
418.025	1343.98
418.233	1407.47
418.441	1401.32
418.649	1415.66
418.857	1550.82
419.065	1556.97
419.273	1567.21
419.481	1663.46
419.689	1647.08
419.897	1788.39
420.105	1774.05
420.313	1913.31
420.521	1931.75
420.729	1886.69
420.937	1960.42
421.145	2114.02
421.353	2173.41
421.561	2343.39
421.769	2284
421.977	2382.3
422.185	2449.88
422.393	2705.88
422.601	2623.96
422.809	2697.69
423.017	2671.06
423.224	2824.66
423.432	2980.31
423.64	2888.15
423.848	3156.43
424.056	3219.92
424.263	3338.7
424.471	3322.32
424.679	3394
424.887	3572.17
425.094	3819.97
425.302	3707.34
425.51	3836.36
425.718	3973.57
425.925	4098.5
426.133	4221.38
426.341	4499.9
426.548	4526.52
426.756	4647.35
426.964	4704.7
427.171	5011.89
427.379	5040.56
427.586	4948.4
427.794	5239.22
428.001	5566.89
428.209	5783.98
428.417	5687.72
428.624	5966.24
428.832	6013.35
429.039	6136.23
429.247	6064.55
429.454	6709.66
429.662	6971.8
429.869	6459.81
430.076	7123.35
430.284	6971.8
430.491	7192.98
430.699	7258.51
430.906	7471.5
431.114	7514.51
431.321	7872.9
431.528	8036.74
431.736	8589.69
431.943	8954.23
432.15	8884.6
432.358	8898.94
432.565	9175.41
432.772	9476.46
432.979	9591.15
433.187	9972.07
433.394	9943.4
433.601	10826.07
433.808	10690.91
434.016	10864.99
434.223	11147.61
434.43	11675.98
434.637	11581.78
434.844	12310.85
435.052	12448.07
435.259	12294.47
435.466	12321.09
435.673	12384.58
435.88	13302.07
436.087	13895.98
436.294	13846.83
436.501	13472.05
436.708	13857.07
436.915	14248.23
437.122	14717.22
437.329	14655.78
437.537	15438.1
437.743	15509.78
437.95	15577.36
438.157	16404.74
438.364	16812.29
438.571	16668.93
438.778	16877.82
438.985	18295.02
439.192	17516.79
439.399	18452.71
439.606	17922.29
439.813	18639.08
440.02	20068.56
440.227	19577.05
440.433	19353.82
440.64	20173
440.847	19843.28
441.054	20433.1
441.261	21868.72
441.467	21668.02
441.674	21969.07
441.881	22665.38
442.088	22380.71
442.294	22458.54
442.501	22935.71
442.708	23351.45
442.914	24481.93
443.121	25458.81
443.328	24762.5
443.534	26259.57
443.741	25540.73
443.948	25047.17
444.154	27261.02
444.361	26892.39
444.568	27351.13
444.774	27687
444.981	27736.15
445.187	28104.79
445.394	29241.41
445.6	29075.52
445.807	31959.06
446.013	30304.31
446.22	30867.5
446.426	31899.67
446.633	32456.72
446.839	34183.16
447.046	32026.65
447.252	33972.22
447.459	34150.39
447.665	33773.56
447.871	35147.75
448.078	36808.65
448.284	35164.14
448.491	36065.24
448.697	37650.37
448.903	37932.99
449.11	38496.18
449.316	37765.06
449.522	38152.12
449.728	39573.41
449.935	39985.05
450.141	39565.22
450.347	40482.71
450.553	39505.83
450.76	39743.39
450.966	41213.84
451.172	40605.59
451.378	41717.64
451.584	40736.66
451.791	41879.42
451.997	41740.16
452.203	42223.48
452.409	42297.21
452.615	42010.49
452.821	40970.13
453.027	40079.26
453.233	42286.97
453.44	40419.22
453.646	41152.4
453.852	41480.07
454.058	42162.04
454.264	40785.81
454.47	41578.37
454.676	40228.76
454.882	41930.62
455.088	38422.45
455.294	39235.5
455.5	39475.11
455.705	39944.09
455.911	38283.19
456.117	37294.02
456.323	37183.43
456.529	35465.19
456.735	36722.64
456.941	35874.78
457.147	35231.72
457.352	34148.34
457.558	34007.03
457.764	33906.68
457.97	33650.69
458.176	32682
458.381	32782.35
458.587	31383.59
458.793	30838.83
458.999	29356.1
459.204	31694.88
459.41	30584.88
459.616	28565.58
459.821	28563.53
460.027	28663.88
460.233	27979.86
460.438	26640.49
460.644	27181.15
460.85	25661.56
461.055	25550.97
461.261	24965.25
461.466	23097.5
461.672	22872.23
461.878	24064.14
462.083	22608.04
462.289	22202.54
462.494	22075.57
462.7	21018.82
462.905	20836.55
463.111	20938.94
463.316	20967.62
463.522	20750.53
463.727	20723.91
463.932	21006.53
464.138	20465.86
464.343	20910.27
464.549	19960.02
464.754	20854.98
464.959	20408.52
465.165	20308.17
465.37	19491.03
465.575	18995.42
465.781	19824.85
465.986	19943.63
466.191	19290.33
466.397	18716.9
466.602	18008.3
466.807	18630.88
467.012	18710.75
467.218	18387.18
467.423	17875.18
467.628	18243.82
467.833	19452.12
468.038	18542.82
468.244	17750.26
468.449	18802.91
468.654	17787.12
468.859	17688.82
469.064	17592.56
469.269	16994.56
469.474	17393.91
469.679	17615.09
469.885	17092.86
470.09	17248.5
470.295	17031.42
470.5	16634.11
470.705	16974.08
470.91	16705.79
471.115	16093.45
471.32	16539.91
471.525	16830.72
471.73	16032.01
471.935	16091.4
472.139	15427.86
472.344	15769.87
472.549	15470.87
472.754	15264.02
472.959	15005.98
473.164	14614.82
473.369	14467.36
473.574	14926.11
473.778	15210.78
473.983	14731.55
474.188	14850.33
474.393	14014.76
474.598	14231.85
474.802	14219.56
475.007	13844.78
475.212	13742.38
475.417	13261.11
475.621	13379.89
475.826	13519.15
476.031	13117.75
476.235	13009.21
476.44	12984.63
476.645	13044.02
476.849	12884.28
477.054	12814.65
477.259	12695.87
477.463	12515.65
477.668	12366.15
477.872	12392.77
478.077	12144.97
478.282	11759.95
478.486	11934.03
478.691	11555.15
478.895	12003.66
479.1	11833.68
479.304	11743.56
479.509	11419.99
479.713	11358.55
479.918	11346.26
480.122	11149.65
480.326	11368.79
480.531	11403.6
480.735	11071.83
480.94	10895.71
481.144	11247.96
481.348	10928.47
481.553	11080.02
481.757	10735.96
481.961	10686.81
482.166	10942.81
482.37	10955.1
482.574	10572.13
482.778	10887.51
482.983	10916.19
483.187	10828.12
483.391	10676.57
483.595	10744.16
483.8	10658.14
484.004	10799.45
484.208	10891.61
484.412	10774.88
484.616	11006.3
484.821	10776.92
485.025	10400.1
485.229	10715.48
485.433	10717.53
485.637	10547.55
485.841	10549.6
486.045	10815.83
486.249	10844.51
486.453	10432.86
486.657	10840.41
486.861	10576.22
487.065	10418.53
487.269	10862.94
487.473	10652
487.677	10770.78
487.881	10969.43
488.085	10641.76
488.289	10934.62
488.493	10735.96
488.697	10858.84
488.901	10967.38
489.105	10647.9
489.309	10791.26
489.512	11198.81
489.716	10778.97
489.92	10815.83
490.124	11100.5
490.328	11295.06
490.531	11086.17
490.735	11002.2
490.939	11168.09
491.143	11137.37
491.346	11006.3
491.55	11333.97
491.754	11368.79
491.958	11245.91
492.161	11338.07
492.365	11354.45
492.569	11428.18
492.772	11432.27
492.976	11403.6
493.18	11567.44
493.383	11759.95
493.587	11510.1
493.79	11895.11
493.994	11692.37
494.197	11643.21
494.401	11782.48
494.605	12116.3
494.808	12134.73
495.012	12058.95
495.215	11995.46
495.419	12280.13
495.622	12339.52
495.825	12353.86
496.029	12519.74
496.232	12673.34
496.436	12634.43
496.639	12890.43
496.843	12874.04
497.046	13218.1
497.249	13443.38
497.453	13453.62
497.656	13609.26
497.859	13322.55
498.063	13639.98
498.266	13895.98
498.469	14137.64
498.673	14059.82
498.876	14295.33
499.079	14448.93
499.282	14412.07
499.485	14663.97
499.689	14756.13
499.892	15091.99
500.095	15157.53
500.298	15436.05
500.501	15362.33
500.705	15726.86
500.908	15841.55
501.111	16177.42
501.314	16136.46
501.517	16308.49
501.72	16695.55
501.923	16281.86
502.126	16836.86
502.329	17129.72
502.532	17309.94
502.735	17455.35
502.938	17756.4
503.141	17895.66
503.344	17774.83
503.547	18174.19
503.75	18428.13
503.953	18602.21
504.156	18739.43
504.359	18751.71
504.562	19050.72
504.765	19513.56
504.968	19484.89
505.17	19906.77
505.373	19742.93
505.576	20113.61
505.779	20416.71
505.982	20363.47
506.185	21047.49
506.387	20924.61
506.59	20988.1
506.793	21426.36
506.996	21342.39
507.198	22059.18
507.401	21962.93
507.604	22216.88
507.807	22802.6
508.009	22780.07
508.212	22976.67
508.415	22980.77
508.617	23527.58
508.82	23853.2
509.022	23511.19
509.225	24324.24
509.428	24184.97
509.63	24447.11
509.833	24500.36
510.035	25290.88
510.238	25198.72
510.44	25438.33
510.643	25845.88
510.845	26101.87
511.048	26030.19
511.25	26589.29
511.453	26343.53
511.655	27175.01
511.858	27127.91
512.06	27476.06
512.262	28125.27
512.465	27938.9
512.667	28252.24
512.87	28692.55
513.072	28618.83
513.274	28915.78
513.477	29481.02
513.679	29380.67
513.881	29753.4
514.084	30070.84
514.286	30097.46
514.488	30402.61
514.69	31275.04
514.893	30844.97
515.095	31348.77
515.297	31780.89
515.499	31727.64
515.701	32342.03
515.904	32419.86
516.106	32753.68
516.308	32800.78
516.51	33443.84
516.712	33470.47
516.914	33636.35
517.116	34435.06
517.318	34428.91
517.52	34637.81
517.722	34918.38
517.925	35327.97
518.127	35704.8
518.329	35805.15
518.531	35870.68
518.733	36747.22
518.935	36872.14
519.136	36653.01
519.338	37423.04
519.54	37732.29
519.742	37992.38
519.944	37976
520.146	38455.22
520.348	39098.28
520.55	38940.59
520.752	38811.57
520.954	39464.87
521.155	39391.14
521.357	40169.37
521.559	40124.32
521.761	40935.31
521.963	40353.69
522.164	40927.12
522.366	40875.92
522.568	41559.94
522.77	41879.42
522.971	42225.53
523.173	41875.33
523.375	42663.8
523.576	42438.52
523.778	42551.16
523.98	43167.6
524.181	43321.19
524.383	43333.48
524.584	44408.67
524.786	43833.19
524.988	43616.1
525.189	44255.07
525.391	44679
525.592	44986.19
525.794	45115.22
525.995	44920.66
526.197	45145.94
526.398	44998.48
526.6	45455.18
526.801	45969.22
527.003	45700.93
527.204	45825.86
527.406	46200.64
527.607	46239.55
527.808	46767.93
528.01	45793.09
528.211	46313.28
528.412	47191.86
528.614	46845.75
528.815	46757.69
529.016	47054.64
529.218	46761.78
529.419	47066.93
529.62	47116.08
529.822	47089.46
530.023	47390.51
530.224	47277.87
530.425	47290.16
530.626	46798.65
530.828	46972.72
531.029	47775.53
531.23	47400.75
531.431	47652.65
531.632	48045.86
531.833	48178.98
532.035	47798.05
532.236	48002.85
532.437	48297.76
532.638	47871.78
532.839	48078.63
533.04	47945.51
533.241	47621.93
533.442	48156.45
533.643	48119.59
533.844	47853.35
534.045	48076.58
534.246	48082.72
534.447	48299.81
534.648	48152.35
534.849	47988.52
535.05	47877.93
535.251	47798.05
535.451	48099.11
535.652	47865.64
535.853	48287.52
536.054	48369.44
536.255	48125.73
536.456	47972.13
536.657	48801.56
536.857	47628.07
537.058	48193.31
537.259	48471.84
537.46	48283.42
537.66	47839.01
537.861	48336.67
538.062	47853.35
538.263	47953.7
538.463	48025.38
538.664	48191.26
538.865	48453.4
539.065	48377.63
539.266	47560.49
539.466	47961.89
539.667	47515.43
539.868	48344.86
540.068	48080.67
540.269	47863.59
540.469	48471.84
540.67	47896.36
540.87	48009
541.071	47902.5
541.271	47976.23
541.472	47574.83
541.672	47753
541.873	48062.24
542.073	47064.88
542.274	48207.65
542.474	47753
542.675	47486.76
542.875	48172.83
543.075	47839.01
543.276	46782.26
543.476	47789.86
543.676	47447.85
543.877	48113.44
544.077	47884.07
544.277	48021.28
544.478	47384.36
544.678	47806.25
544.878	47509.29
545.078	47341.36
545.279	47329.07
545.479	47228.72
545.679	47666.98
545.879	47712.04
546.079	47466.28
546.28	47474.48
546.48	46872.37
546.68	47548.2
546.88	47748.9
547.08	47576.87
547.28	47337.26
547.48	47222.58
547.68	47509.29
547.88	47513.39
548.081	47386.41
548.281	47310.64
548.481	47355.69
548.681	47523.63
548.881	47953.7
549.081	47335.21
549.28	47374.13
549.48	47372.08
549.68	47259.44
549.88	47806.25
550.08	46825.27
550.28	47183.66
550.48	47527.72
550.68	47572.78
550.88	47169.33
551.08	47290.16
551.279	47300.4
551.479	47353.65
551.679	46999.35
551.879	46614.33
552.079	47525.67
552.278	47226.67
552.478	46913.33
552.678	47243.06
552.878	47271.73
553.077	47171.38
553.277	46788.41
553.477	47017.78
553.676	46870.32
553.876	46952.24
554.076	46780.21
554.275	46737.21
554.475	46028.61
554.674	46323.52
554.874	46948.15
555.074	46530.36
555.273	47439.66
555.473	47060.79
555.672	46610.23
555.872	46749.49
556.071	46516.03
556.271	47017.78
556.47	46614.33
556.67	46110.53
556.869	46489.4
557.068	46466.87
557.268	46604.09
557.467	46075.71
557.667	46548.79
557.866	46346.04
558.065	46454.59
558.265	46327.61
558.464	45487.95
558.663	46702.39
558.863	45895.49
559.062	46483.26
559.261	45979.46
559.461	46262.08
559.66	45461.32
559.859	45766.47
560.058	45768.52
560.258	45834.05
560.457	45539.15
560.656	46067.52
560.855	45688.65
561.054	45963.07
561.253	45360.97
561.453	46157.63
561.652	45664.07
561.851	45750.09
562.05	45201.23
562.249	45246.29
562.448	45541.19
562.647	45018.96
562.846	45172.56
563.045	45070.16
563.244	45012.82
563.443	45596.49
563.642	44871.51
563.841	45170.51
564.04	44406.62
564.239	45197.13
564.438	44384.09
564.637	44865.36
564.836	44959.57
565.035	44480.35
565.234	44638.04
565.432	44715.86
565.631	44054.37
565.83	44347.23
566.029	44185.44
566.228	43988.83
566.427	43999.07
566.625	43851.62
566.824	43802.47
567.023	43927.39
567.222	43222.89
567.42	43960.16
567.619	43876.19
567.818	43448.17
568.016	43128.69
568.215	43732.84
568.414	43419.5
568.612	43829.09
568.811	43290.48
569.01	43456.36
569.208	42618.74
569.407	43093.87
569.605	42495.86
569.804	43388.78
570.002	42510.2
570.201	42612.6
570.4	42381.18
570.598	42776.44
570.797	42547.06
570.995	42047.36
571.193	42200.96
571.392	42545.01
571.59	41932.67
571.789	41981.82
571.987	41742.21
572.186	41865.09
572.384	41535.37
572.582	41740.16
572.781	41727.88
572.979	41488.26
573.177	41553.8
573.376	41664.39
573.574	40605.59
573.772	41486.21
573.971	40888.21
574.169	40769.43
574.367	40777.62
574.565	41121.68
574.763	40691.6
574.962	40750.99
575.16	40038.3
575.358	40464.28
575.556	40128.41
575.754	40603.54
575.952	39702.43
576.151	40566.68
576.349	39636.9
576.547	40013.73
576.745	39937.95
576.943	39868.32
577.141	39274.41
577.339	40103.84
577.537	39212.97
577.735	39276.46
577.933	39055.28
578.131	39645.09
578.329	39182.25
578.527	38891.44
578.725	38897.58
578.923	39106.48
579.121	38815.66
579.319	38576.05
579.516	38782.9
579.714	38786.99
579.912	38428.6
580.11	38617.01
580.308	38287.29
580.506	38358.97
580.704	37871.55
580.901	38168.51
581.099	38334.39
581.297	37842.88
581.495	37507.01
581.692	37760.96
581.89	37586.88
582.088	37818.3
582.285	37259.21
582.483	37418.95
582.681	37300.17
582.878	36931.53
583.076	36790.22
583.274	37285.83
583.471	36880.33
583.669	37117.9
583.866	36429.78
584.064	37183.43
584.262	36493.27
584.459	37029.83
584.657	36071.39
584.854	36360.15
585.052	35534.82
585.249	36347.86
585.447	36005.85
585.644	35794.91
585.841	35663.84
586.039	36220.89
586.236	35495.91
586.434	35477.47
586.631	35133.42
586.828	35274.73
587.026	35444.71
587.223	35395.56
587.42	35106.79
587.618	35069.93
587.815	34584.56
588.012	34549.74
588.21	34367.48
588.407	35139.56
588.604	34627.57
588.801	34308.08
588.999	34441.2
589.196	33888.25
589.393	34543.6
589.59	34392.05
589.787	33794.04
589.984	34004.99
590.182	33576.96
590.379	33925.11
590.576	33507.33
590.773	33615.87
590.97	33492.99
591.167	33230.85
591.364	33259.52
591.561	33671.17
591.758	33179.65
591.955	33126.41
592.152	33288.2
592.349	32657.42
592.546	32978.95
592.743	32872.46
592.94	32292.88
593.137	32491.54
593.334	32448.53
593.531	32313.36
593.727	32323.6
593.924	32280.6
594.121	32110.61
594.318	32088.09
594.515	31692.83
594.712	31903.77
594.908	31719.45
595.105	32038.94
595.302	31346.72
595.499	31907.87
595.696	31555.61
595.892	31160.36
596.089	31408.16
596.286	31008.81
596.482	30920.74
596.679	31223.84
596.876	31215.65
597.072	30789.67
597.269	30922.79
597.466	30568.49
597.662	30509.1
597.859	30816.3
598.055	30384.18
598.252	30382.13
598.448	30267.44
598.645	30152.76
598.841	29927.48
599.038	29980.73
599.234	29980.73
599.431	29835.32
599.627	29661.24
599.824	29657.15
600.02	29468.73
600.217	29476.93
600.413	29374.53
600.609	29141.06
600.806	29132.87
601.002	29270.08
601.198	28727.37
601.395	28631.12
601.591	29093.96
601.787	28753.99
601.984	28899.4
602.18	29104.2
602.376	28330.06
602.572	28426.32
602.769	28784.71
602.965	28004.44
603.161	28430.41
603.357	28104.79
603.553	28112.98
603.75	28084.31
603.946	27725.91
604.142	28018.77
604.338	27537.5
604.534	27521.12
604.73	27396.19
604.926	27803.74
605.122	27627.61
605.318	27160.67
605.514	27232.35
605.71	26931.3
605.906	27033.7
606.102	27267.17
606.298	27310.18
606.494	27154.53
606.69	27226.21
606.886	27340.89
607.082	26671.21
607.278	27175.01
607.474	26370.16
607.67	26572.91
607.866	26171.5
608.062	26630.25
608.257	26417.26
608.453	26357.87
608.649	26443.88
608.845	26241.14
609.041	26042.48
609.236	26148.98
609.432	25944.18
609.628	26132.59
609.824	25628.79
610.019	25499.77
610.215	25763.96
610.411	25755.77
610.606	25725.05
610.802	25510.01
610.998	25614.46
611.193	25677.94
611.389	25516.15
611.584	25700.47
611.78	25645.18
611.976	25540.73
612.171	25415.8
612.367	25430.14
612.562	25159.81
612.758	24856.71
612.953	24793.22
613.149	25376.89
613.344	24864.9
613.539	25264.25
613.735	25063.55
613.93	24930.44
614.126	24754.31
614.321	25059.46
614.517	24821.89
614.712	24920.2
614.907	24815.75
615.103	24701.06
615.298	24357
615.493	24727.69
615.688	24397.96
615.884	24588.42
616.079	24025.23
616.274	24201.36
616.47	24160.4
616.665	24483.98
616.86	24062.1
617.055	24031.38
617.25	24254.61
617.445	24195.21
617.641	23750.81
617.836	24221.84
618.031	23871.64
618.226	23898.26
618.421	23523.48
618.616	23660.69
618.811	23224.48
619.006	23648.41
619.201	23036.06
619.396	23287.96
619.591	22956.19
619.786	23435.42
619.981	22931.62
620.176	22882.47
620.371	22436.01
620.566	22745.25
620.761	22309.04
620.956	22653.09
621.151	22161.58
621.346	22528.17
621.541	22415.53
621.735	22399.15
621.93	21860.53
622.125	21967.02
622.32	21512.38
622.515	21876.91
622.709	21588.15
622.904	21553.34
623.099	21434.55
623.294	21508.28
623.488	20990.14
623.683	21334.2
623.878	20842.69
624.072	21266.62
624.267	20789.44
624.462	20586.69
624.656	20424.9
624.851	20588.74
625.046	20121.8
625.24	20162.76
625.435	20332.75
625.629	19990.73
625.824	19777.75
626.018	19839.19
626.213	19423.45
626.407	19689.68
626.602	19263.71
626.796	19544.28
626.991	19368.15
627.185	19202.27
627.38	19075.29
627.574	18800.87
627.768	18600.16
627.963	18725.09
628.157	18589.92
628.352	18616.55
628.546	18424.04
628.74	18534.63
628.935	18356.46
629.129	18274.54
629.323	17766.64
629.517	17873.14
629.712	17764.59
629.906	17862.9
630.1	17467.64
630.294	17647.86
630.489	17563.89
630.683	17664.24
630.877	17279.22
631.071	17471.73
631.265	17158.39
631.459	16984.32
631.653	17152.25
631.848	16879.87
632.042	16711.94
632.236	16871.68
632.43	16605.44
632.624	16646.4
632.818	16605.44
633.012	16220.42
633.206	16443.65
633.4	16533.76
633.594	16019.72
633.788	16187.66
633.982	16224.52
634.176	16124.17
634.369	15718.67
634.563	15735.06
634.757	15681.81
634.951	16009.48
635.145	15626.51
635.339	15626.51
635.533	15509.78
635.726	15249.69
635.92	15100.19
636.114	15155.48
636.308	15421.72
636.501	14981.4
636.695	15067.42
636.889	14819.61
637.083	14930.2
637.276	14797.09
637.47	14627.1
637.664	14428.45
637.857	14623.01
638.051	14395.68
638.244	14623.01
638.438	14518.56
638.632	14215.46
638.825	14108.97
639.019	13943.08
639.212	14098.73
639.406	13889.84
639.599	13785.39
639.793	13801.77
639.986	13646.13
640.18	13898.03
640.373	13744.43
640.567	13287.73
640.76	13570.35
640.954	13183.29
641.147	13232.44
641.34	13254.97
641.534	13379.89
641.727	13072.7
641.92	12904.76
642.114	12867.9
642.307	12980.54
642.5	12755.26
642.694	12521.79
642.887	12661.05
643.08	12620.1
643.273	12577.09
643.467	12560.7
643.66	12380.48
643.853	12218.69
644.046	12159.3
644.239	12357.96
644.432	12132.68
644.626	12042.57
644.819	11997.51
645.012	12026.18
645.205	11692.37
645.398	12026.18
645.591	11649.36
645.784	11874.63
645.977	11776.33
646.17	11557.2
646.363	11465.04
646.556	11311.44
646.749	11342.16
646.942	11524.43
647.135	11112.79
647.328	11059.54
647.521	11196.76
647.714	10824.03
647.907	11008.34
648.099	10830.17
648.292	10912.09
648.485	10860.89
648.678	10715.48
648.871	10824.03
649.064	10744.16
649.256	10711.39
649.449	10555.74
649.642	10572.13
649.835	10340.71
650.027	10258.79
650.22	10183.01
650.413	10391.91
650.605	10375.52
650.798	10094.95
650.991	9970.02
651.183	10172.77
651.376	10027.37
651.568	10092.9
651.761	10002.79
651.954	10088.81
652.146	9808.23
652.339	9843.05
652.531	9644.4
652.724	9617.77
652.916	9437.55
653.109	9726.32
653.301	9382.26
653.494	9750.89
653.686	9253.23
653.879	9359.73
654.071	9308.53
654.263	9238.9
654.456	9206.13
654.648	9347.44
654.84	9191.8
655.033	8943.99
655.225	8948.09
655.417	8948.09
655.61	9013.62
655.802	8874.36
655.994	8761.72
656.186	8765.82
656.379	8696.19
656.571	8792.44
656.763	8718.71
656.955	8659.32
657.148	8446.34
657.34	8524.16
657.532	8425.86
657.724	8315.27
657.916	8419.71
658.108	8505.73
658.3	8237.44
658.492	8364.42
658.684	8206.72
658.876	8100.23
659.068	8268.16
659.26	8116.61
659.452	8192.39
659.644	8057.22
659.836	8094.08
660.028	7965.06
660.22	7938.44
660.412	7907.72
660.604	7928.2
660.796	7686.54
660.988	7668.11
661.18	7750.03
661.372	7690.63
661.563	7500.17
661.755	7545.23
661.947	7444.88
662.139	7334.29
662.331	7346.58
662.522	7334.29
662.714	7403.92
662.906	7338.38
663.097	7352.72
663.289	7268.75
663.481	7289.23
663.673	7184.79
663.864	7055.76
664.056	7115.16
664.247	7182.74
664.439	7053.72
664.631	7156.11
664.822	6953.37
665.014	6883.73
665.205	7047.57
665.397	6830.49
665.588	6906.26
665.78	6676.89
665.971	6826.39
666.163	6881.69
666.354	6730.14
666.546	6668.7
666.737	6490.52
666.929	6752.66
667.12	6463.9
667.311	6574.49
667.503	6556.06
667.694	6451.61
667.885	6363.55
668.077	6492.57
668.268	6369.69
668.459	6498.72
668.651	6361.5
668.842	6373.79
669.033	6162.85
669.224	6226.34
669.416	6392.22
669.607	6381.98
669.798	6160.8
669.989	6156.71
670.18	6152.61
670.371	6220.19
670.563	6037.92
670.754	5933.48
670.945	5966.24
671.136	5984.68
671.327	5974.44
671.518	5849.51
671.709	5829.03
671.9	6031.78
672.091	5767.59
672.282	5898.66
672.473	5722.54
672.664	5931.43
672.855	5814.7
673.046	5654.95
673.237	5925.29
673.428	5611.95
673.619	5681.58
673.809	5671.34
674	5628.33
674.191	5654.95
674.382	5663.15
674.573	5509.55
674.764	5661.1
674.954	5466.54
675.145	5433.77
675.336	5507.5
675.527	5532.08
675.717	5415.34
675.908	5390.77
676.099	5341.61
676.289	5474.73
676.48	5427.63
676.671	5263.79
676.861	5458.35
677.052	5368.24
677.243	5325.23
677.433	5161.39
677.624	5435.82
677.814	5163.44
678.005	5165.49
678.195	5185.97
678.386	5136.82
678.576	5185.97
678.767	5120.43
678.957	5116.34
679.148	5120.43
679.338	5136.82
679.529	5038.52
679.719	4977.08
679.909	5089.71
680.1	5081.52
680.29	4952.5
680.481	4899.25
680.671	5142.96
680.861	4968.88
681.052	4997.56
681.242	4950.45
681.432	5026.23
681.622	4899.25
681.813	4989.36
682.003	5024.18
682.193	4882.87
682.383	4891.06
682.573	4794.81
682.764	4794.81
682.954	4864.44
683.144	4848.05
683.334	4573.63
683.524	4825.53
683.714	4821.43
683.904	4669.88
684.094	4809.14
684.284	4778.42
684.474	4870.58
684.664	4678.07
684.854	4669.88
685.044	4669.88
685.234	4741.56
685.424	4571.58
685.614	4635.07
685.804	4612.54
685.994	4612.54
686.184	4755.9
686.374	4516.28
686.564	4524.47
686.753	4592.06
686.943	4409.79
687.133	4559.29
687.323	4370.88
687.513	4493.76
687.702	4506.04
687.892	4385.21
688.082	4458.94
688.272	4413.88
688.461	4334.01
688.651	4395.45
688.841	4233.66
689.03	4301.25
689.22	4248
689.41	4317.63
689.599	4237.76
689.789	4245.95
689.979	4196.8
690.168	4125.12
690.358	4078.02
690.547	4073.92
690.737	4075.97
690.926	4020.67
691.116	4088.26
691.305	4032.96
691.495	4039.11
691.684	4020.67
691.874	4147.65
692.063	4112.83
692.252	3981.76
692.442	3981.76
692.631	3828.17
692.82	3932.61
693.01	3883.46
693.199	3969.48
693.388	3942.85
693.578	3881.41
693.767	3901.89
693.956	3719.62
694.146	3854.79
694.335	3713.48
694.524	3729.86
694.713	3824.07
694.902	3826.12
695.092	3957.19
695.281	3801.54
695.47	3658.18
695.659	3787.21
695.848	3695.05
696.037	3695.05
696.226	3678.66
696.415	3654.09
696.604	3797.45
696.793	3723.72
696.982	3809.73
697.171	3631.56
697.36	3738.05
697.549	3664.33
697.738	3658.18
697.927	3633.61
698.116	3723.72
698.305	3574.22
698.494	3592.65
698.683	3523.02
698.872	3547.59
699.061	3647.94
699.25	3617.22
699.438	3621.32
699.627	3559.88
699.816	3568.07
700.005	3461.58
700.193	3672.52
700.382	3568.07
700.571	3592.65
700.76	3492.3
700.948	3490.25
701.137	3453.39
701.326	3375.56
701.514	3459.53
701.703	3467.72
701.892	3434.96
702.08	3447.24
702.269	3490.25
702.457	3326.41
702.646	3428.81
702.834	3330.51
703.023	3449.29
703.212	3350.99
703.4	3406.28
703.589	3379.66
703.777	3461.58
703.965	3205.58
704.154	3443.15
704.342	3336.65
704.531	3314.13
704.719	3334.61
704.907	3381.71
705.096	3287.5
705.284	3230.16
705.472	3305.93
705.661	3174.86
705.849	3342.8
706.037	3254.73
706.226	3256.78
706.414	3170.77
706.602	3293.65
706.79	3213.77
706.979	3207.63
707.167	3152.34
707.355	3176.91
707.543	3172.82
707.731	3342.8
707.919	3178.96
708.107	3146.19
708.296	3049.94
708.484	3111.38
708.672	3164.62
708.86	3084.75
709.048	3264.97
709.236	3109.33
709.424	3113.42
709.612	3129.81
709.8	3041.75
709.988	2957.78
710.176	3193.3
710.364	3125.71
710.551	3021.27
710.739	3113.42
710.927	2998.74
711.115	3138
711.303	3105.23
711.491	3078.61
711.679	2998.74
711.866	3056.08
712.054	3056.08
712.242	2978.26
712.43	3013.07
712.617	2992.59
712.805	2978.26
712.993	2900.44
713.181	2914.77
713.368	3047.89
713.556	2982.35
713.744	2953.68
713.931	3017.17
714.119	2851.28
714.306	2982.35
714.494	2906.58
714.682	2912.72
714.869	2941.4
715.057	2933.2
715.244	2845.14
715.432	2734.55
715.619	2892.24
715.807	2836.95
715.994	2900.44
716.182	2816.47
716.369	2779.61
716.556	2863.57
716.744	2886.1
716.931	2802.13
717.119	2703.83
717.306	2787.8
717.493	2714.07
717.681	2761.17
717.868	2752.98
718.055	2824.66
718.242	2628.06
718.43	2818.52
718.617	2693.59
718.804	2681.3
718.991	2712.02
719.179	2554.33
719.366	2697.69
719.553	2734.55
719.74	2718.17
719.927	2695.64
720.114	2658.78
720.301	2648.54
720.488	2574.81
720.676	2572.76
720.863	2699.73
721.05	2699.73
721.237	2656.73
721.424	2496.99
721.611	2677.21
721.798	2617.82
721.985	2607.58
722.172	2589.14
722.358	2533.85
722.545	2619.86
722.732	2564.57
722.919	2601.43
723.106	2640.34
723.293	2585.05
723.48	2562.52
723.667	2574.81
723.853	2466.27
724.04	2544.09
724.227	2589.14
724.414	2558.42
724.6	2517.47
724.787	2509.27
724.974	2638.3
725.161	2607.58
725.347	2286.05
725.534	2406.88
725.72	2511.32
725.907	2480.6
726.094	2394.59
726.28	2408.92
726.467	2419.16
726.653	2490.84
726.84	2425.31
727.027	2451.93
727.213	2339.29
727.4	2421.21
727.586	2490.84
727.773	2333.15
727.959	2335.2
728.145	2386.4
728.332	2398.68
728.518	2392.54
728.705	2501.08
728.891	2290.14
729.077	2384.35
729.264	2261.47
729.45	2312.67
729.636	2400.73
729.823	2347.48
730.009	2236.89
730.195	2453.98
730.382	2417.12
730.568	2335.2
730.754	2318.81
730.94	2376.16
731.126	2290.14
731.313	2441.69
731.499	2187.74
731.685	2312.67
731.871	2306.52
732.057	2363.87
732.243	2359.77
732.429	2306.52
732.615	2300.38
732.801	2308.57
732.987	2157.02
733.173	2357.72
733.359	2329.05
733.545	2351.58
733.731	2189.79
733.917	2179.55
734.103	2294.24
734.289	2189.79
734.475	2191.84
734.661	2200.03
734.847	2146.78
735.033	2083.3
735.219	2146.78
735.404	2109.92
735.59	2165.21
735.776	2128.35
735.962	2089.44
736.148	2146.78
736.333	2167.26
736.519	2165.21
736.705	2030.05
736.89	2146.78
737.076	2171.36
737.262	2107.87
737.447	2064.86
737.633	2111.97
737.819	2183.65
738.004	1941.99
738.19	1966.56
738.375	1978.85
738.561	2083.3
738.747	2111.97
738.932	2097.63
739.118	2073.06
739.303	2056.67
739.489	2099.68
739.674	2089.44
739.859	2083.3
740.045	1937.89
740.23	1907.17
740.416	1929.7
740.601	1941.99
740.786	1958.37
740.972	2007.52
741.157	1950.18
741.342	1987.04
741.528	1966.56
741.713	1964.51
741.898	1941.99
742.084	1804.77
742.269	1982.95
742.454	1880.55
742.639	1815.01
742.824	1870.31
743.01	1917.41
743.195	1896.93
743.38	1792.48
743.565	1825.25
743.75	1835.49
743.935	1860.07
744.12	1843.68
744.305	1761.77
744.49	1780.2
744.675	1909.22
744.86	1710.57
745.045	1876.45
745.23	1714.66
745.415	1737.19
745.6	1825.25
745.785	1749.48
745.97	1774.05
746.155	1796.58
746.34	1731.05
746.525	1614.31
746.71	1780.2
746.895	1634.79
747.079	1645.03
747.264	1628.65
747.449	1706.47
747.634	1681.89
747.819	1567.21
748.003	1559.02
748.188	1597.93
748.373	1616.36
748.557	1577.45
748.742	1536.49
748.927	1645.03
749.111	1542.63
749.296	1526.25
749.481	1550.82
749.665	1524.2
749.85	1481.19
750.034	1599.98
750.219	1477.1
750.404	1434.09
750.588	1366.51
750.773	1526.25
750.957	1409.51
751.141	1380.84
751.326	1366.51
751.51	1483.24
751.695	1393.13
751.879	1343.98
752.064	1442.28
752.248	1448.43
752.432	1393.13
752.617	1356.27
752.801	1333.74
752.985	1370.6
753.17	1395.18
753.354	1307.12
753.538	1245.68
753.722	1255.92
753.907	1343.98
754.091	1282.54
754.275	1239.53
754.459	1272.3
754.643	1257.96
754.828	1311.21
755.012	1241.58
755.196	1266.16
755.38	1182.19
755.564	1176.05
755.748	1184.24
755.932	1214.96
756.116	1176.05
756.3	1139.18
756.484	1188.33
756.668	1190.38
756.852	1036.78
757.036	1253.87
757.22	1241.58
757.404	1186.29
757.588	1100.27
757.772	1202.67
757.956	1120.75
758.14	1130.99
758.323	1106.42
758.507	1130.99
758.691	1024.5
758.875	1081.84
759.059	1141.23
759.242	1081.84
759.426	997.87
759.61	1053.17
759.794	997.87
759.977	1065.46
760.161	1153.52
760.345	1040.88
760.528	1049.07
760.712	1004.02
760.895	1001.97
761.079	1085.94
761.263	1024.5
761.446	1042.93
761.63	1016.3
761.813	1030.64
761.997	909.81
762.18	934.39
762.364	973.3
762.547	872.95
762.731	936.43
762.914	911.86
763.098	971.25
763.281	938.48
763.464	932.34
763.648	1012.21
763.831	813.56
764.015	895.47
764.198	838.13
764.381	870.9
764.564	909.81
764.748	946.67
764.931	860.66
765.114	918
765.297	823.8
765.481	950.77
765.664	836.08
765.847	864.75
766.03	831.99
766.213	739.83
766.397	887.28
766.58	911.86
766.763	883.19
766.946	848.37
767.129	860.66
767.312	868.85
767.495	813.56
767.678	850.42
767.861	879.09
768.044	891.38
768.227	799.22
768.41	887.28
768.593	870.9
768.776	766.45
768.959	805.36
769.142	811.51
769.324	836.08
769.507	743.92
769.69	745.97
769.873	797.17
770.056	860.66
770.239	801.27
770.421	784.88
770.604	778.74
770.787	711.16
770.97	815.6
771.152	766.45
771.335	774.64
771.518	756.21
771.7	721.4
771.883	786.93
772.066	807.41
772.248	664.05
772.431	760.31
772.613	696.82
772.796	713.21
772.978	735.73
773.161	688.63
773.343	748.02
773.526	666.1
773.708	739.83
773.891	705.01
774.073	608.76
774.256	635.38
774.438	748.02
774.621	608.76
774.803	682.49
774.985	672.25
775.168	672.25
775.35	612.85
775.532	680.44
775.715	721.4
775.897	666.1
776.079	616.95
776.261	619
776.444	616.95
776.626	645.62
776.808	633.33
776.99	598.52
777.173	580.09
777.355	672.25
777.537	594.42
777.719	600.57
777.901	627.19
778.083	688.63
778.265	508.41
778.447	582.14
778.629	520.7
778.811	705.01
778.993	520.7
779.175	522.74
779.357	530.94
779.539	502.26
779.721	596.47
779.903	631.29
780.085	573.94
780.267	553.46
780.449	590.33
780.631	508.41
780.812	575.99
780.994	535.03
781.176	549.37
781.358	467.45
781.54	563.7
781.721	528.89
781.903	545.27
782.085	494.07
782.267	539.13
782.448	467.45
782.63	475.64
782.812	438.78
782.993	483.83
783.175	434.68
783.357	453.11
783.538	489.98
783.72	403.96
783.901	512.5
784.083	520.7
784.264	401.91
784.446	473.59
784.627	397.82
784.809	512.5
784.99	399.87
785.172	416.25
785.353	444.92
785.535	383.48
785.716	469.5
785.897	426.49
786.079	426.49
786.26	403.96
786.441	455.16
786.623	406.01
786.804	422.39
786.985	360.95
787.167	461.3
787.348	336.38
787.529	434.68
787.71	504.31
787.891	420.35
788.073	379.39
788.254	426.49
788.435	360.95
788.616	426.49
788.797	285.18
788.978	387.58
789.159	285.18
789.34	379.39
789.522	313.85
789.703	377.34
789.884	336.38
790.065	322.04
790.246	322.04
790.427	344.57
790.607	350.71
790.788	346.62
790.969	291.32
791.15	315.9
791.331	342.52
791.512	295.42
791.693	270.84
791.874	270.84
792.054	363
792.235	342.52
792.416	287.23
792.597	289.28
792.778	270.84
792.958	328.19
793.139	266.75
793.32	299.52
793.5	233.98
793.681	442.87
793.862	303.61
794.042	283.13
794.223	274.94
794.404	303.61
794.584	231.93
794.765	223.74
794.945	231.93
795.126	201.21
795.306	285.18
795.487	246.27
795.667	225.79
795.848	293.37
796.028	221.69
796.209	248.32
796.389	344.57
796.57	293.37
796.75	158.21
796.93	266.75
797.111	236.03
797.291	334.33
797.471	305.66
797.652	270.84
797.832	231.93
798.012	270.84
798.192	215.55
798.373	174.59
798.553	258.56
798.733	295.42
798.913	229.88
799.093	246.27
799.274	303.61
799.454	219.64
799.634	258.56
799.814	246.27
799.994	180.73
800.174	258.56
800.354	197.12
800.534	172.54
800.714	205.31
800.894	229.88
801.074	254.46
801.254	233.98
801.434	270.84
801.614	258.56
801.794	254.46
801.974	729.59
802.154	250.36
802.334	233.98
802.514	164.35
802.693	176.64
802.873	197.12
803.053	197.12
803.233	213.5
803.413	207.36
803.592	205.31
803.772	172.54
803.952	180.73
804.131	154.11
804.311	262.65
804.491	229.88
804.67	213.5
804.85	223.74
805.03	193.02
805.209	203.26
805.389	121.34
805.568	174.59
805.748	199.16
805.928	168.45
806.107	248.32
806.287	246.27
806.466	209.4
806.646	199.16
806.825	229.88
807.004	182.78
807.184	207.36
807.363	188.93
807.543	215.55
807.722	172.54
807.901	209.4
808.081	176.64
808.26	162.3
808.439	158.21
808.619	109.05
808.798	119.29
808.977	129.53
809.156	221.69
809.336	164.35
809.515	162.3
809.694	190.97
809.873	16.9
810.052	129.53
810.231	188.93
810.411	152.06
810.59	141.82
810.769	135.68
810.948	233.98
811.127	82.43
811.306	186.88
811.485	172.54
811.664	250.36
811.843	186.88
812.022	197.12
812.201	147.97
812.38	147.97
812.559	180.73
812.737	143.87
812.916	152.06
813.095	131.58
813.274	180.73
813.453	143.87
813.632	125.44
813.811	135.68
813.989	92.67
814.168	125.44
814.347	119.29
814.526	158.21
814.704	156.16
814.883	238.08
815.062	98.81
815.24	180.73
815.419	96.77
815.598	184.83
815.776	156.16
815.955	98.81
816.133	94.72
816.312	180.73
816.49	133.63
816.669	152.06
816.847	94.72
817.026	117.25
817.204	145.92
817.383	100.86
817.561	135.68
817.74	76.29
817.918	152.06
818.097	176.64
818.275	123.39
818.453	141.82
818.632	180.73
818.81	82.43
818.988	141.82
819.167	137.73
819.345	72.19
819.523	76.29
819.701	102.91
819.879	88.57
820.058	90.62
820.236	131.58
820.414	72.19
820.592	152.06
820.77	82.43
820.948	147.97
821.127	125.44
821.305	121.34
821.483	100.86
821.661	223.74
821.839	111.1
822.017	86.53
822.195	27.14
822.373	107.01
822.551	139.77
822.729	117.25
822.907	131.58
823.085	147.97
823.262	70.14
823.44	20.99
823.618	100.86
823.796	107.01
823.974	49.66
824.152	80.38
824.329	57.86
824.507	117.25
824.685	172.54
824.863	133.63
825.04	111.1
825.218	117.25
825.396	76.29
825.574	115.2
825.751	139.77
825.929	123.39
826.107	64
826.284	107.01
826.462	33.28
826.639	139.77
826.817	16.9
826.994	70.14
827.172	113.15
827.349	147.97
827.527	123.39
827.704	88.57
827.882	107.01
828.059	80.38
828.237	49.66
828.414	115.2
828.591	29.18
828.769	27.14
828.946	-36.35
829.124	119.29
829.301	129.53
829.478	68.09
829.655	82.43
829.833	66.05
830.01	53.76
830.187	41.47
830.364	94.72
830.542	125.44
830.719	147.97
830.896	53.76
831.073	8.7
831.25	104.96
831.427	131.58
831.604	78.33
831.782	-11.78
831.959	111.1
832.136	117.25
832.313	61.95
832.49	53.76
832.667	61.95
832.844	51.71
833.021	53.76
833.198	115.2
833.374	115.2
833.551	94.72
833.728	74.24
833.905	76.29
834.082	74.24
834.259	104.96
834.436	117.25
834.612	10.75
834.789	115.2
834.966	33.28
835.143	147.97
835.319	27.14
835.496	70.14
835.673	76.29
835.85	53.76
836.026	104.96
836.203	104.96
836.38	45.57
836.556	66.05
836.733	-28.16
836.909	45.57
837.086	74.24
837.262	100.86
837.439	29.18
837.616	25.09
837.792	74.24
837.968	90.62
838.145	33.28
838.321	125.44
838.498	14.85
838.674	49.66
838.851	82.43
839.027	43.52
839.203	49.66
839.38	86.53
839.556	104.96
839.732	25.09
839.909	107.01
840.085	94.72
840.261	80.38
840.437	70.14
840.614	6.66
840.79	37.38
840.966	43.52
841.142	35.33
841.318	70.14
841.494	82.43
841.671	59.9
841.847	2.56
842.023	29.18
842.199	90.62
842.375	162.3
842.551	-7.68
842.727	82.43
842.903	98.81
843.079	-32.26
843.255	59.9
843.431	4.61
843.607	41.47
843.783	57.86
843.959	35.33
844.134	66.05
844.31	127.49
844.486	37.38
844.662	-13.82
844.838	72.19
845.013	92.67
845.189	68.09
845.365	82.43
845.541	117.25
845.716	61.95
845.892	27.14
846.068	-56.83
846.244	37.38
846.419	18.94
846.595	82.43
846.77	-48.64
846.946	61.95
847.122	74.24
847.297	111.1
847.473	12.8
847.648	59.9
847.824	57.86
847.999	-65.02
848.175	176.64
848.35	23.04
848.526	139.77
848.701	49.66
848.876	37.38
849.052	-24.06
849.227	61.95
849.403	-15.87
849.578	57.86
849.753	82.43
849.929	68.09
850.104	14.85
850.279	59.9
850.454	33.28
850.63	49.66
850.805	-7.68
850.98	59.9
851.155	-15.87
851.33	57.86
851.505	72.19
851.681	143.87
851.856	66.05
852.031	55.81
852.206	64
852.381	20.99
852.556	18.94
852.731	94.72
852.906	8.7
853.081	25.09
853.256	78.33
853.431	25.09
853.606	10.75
853.781	33.28
853.956	10.75
854.131	-3.58
854.305	10.75
854.48	20.99
854.655	25.09
854.83	51.71
855.005	12.8
855.18	16.9
855.354	16.9
855.529	16.9
855.704	64
855.879	59.9
856.053	31.23
856.228	72.19
856.403	-5.63
856.577	57.86
856.752	37.38
856.926	82.43
857.101	49.66
857.276	-24.06
857.45	123.39
857.625	131.58
857.799	78.33
857.974	-17.92
858.148	57.86
858.323	45.57
858.497	-24.06
858.672	74.24
858.846	0.51
859.02	82.43
859.195	-5.63
859.369	53.76
859.543	68.09
859.718	-24.06
859.892	-7.68
860.066	-15.87
860.241	20.99
860.415	31.23
860.589	0.51
860.763	27.14
860.938	-46.59
861.112	27.14
861.286	-11.78
861.46	37.38
861.634	74.24
861.808	43.52
861.982	2.56
862.157	16.9
862.331	-15.87
862.505	-15.87
862.679	-19.97
862.853	51.71
863.027	51.71
863.201	129.53
863.375	37.38
863.549	16.9
863.722	-38.4
863.896	-7.68
864.07	14.85
864.244	0.51
864.418	64
864.592	53.76
864.766	8.7
864.939	4.61
865.113	-5.63
865.287	90.62
865.461	-32.26
865.634	90.62
865.808	-24.06
865.982	-81.41
866.156	45.57
866.329	-15.87
866.503	57.86
866.676	78.33
866.85	-5.63
867.024	102.91
867.197	61.95
867.371	-7.68
867.544	0.51
867.718	-32.26
867.891	33.28
868.065	25.09
868.238	82.43
868.412	25.09
868.585	16.9
868.759	-56.83
868.932	-28.16
869.105	33.28
869.279	25.09
869.452	107.01
869.625	41.47
869.799	0.51
869.972	23.04
870.145	20.99
870.319	78.33
870.492	-85.5
870.665	-32.26
870.838	66.05
871.011	45.57
871.185	49.66
871.358	4.61
871.531	-15.87
871.704	45.57
871.877	20.99
872.05	29.18
872.223	45.57
872.396	51.71
872.569	61.95
872.742	12.8
872.915	27.14
873.088	27.14
873.261	74.24
873.434	-11.78
873.607	43.52
873.78	12.8
873.953	12.8
874.126	66.05
874.299	25.09
874.471	25.09
874.644	64
874.817	43.52
874.99	2.56
875.163	-22.02
875.335	4.61
875.508	27.14
875.681	57.86
875.853	41.47
876.026	57.86
876.199	27.14
876.371	35.33
876.544	-7.68
876.717	-32.26
876.889	43.52
877.062	53.76
877.234	20.99
877.407	107.01
877.579	-44.54
877.752	-32.26
877.924	43.52
878.097	98.81
878.269	-32.26
878.442	57.86
878.614	66.05
878.786	-56.83
878.959	53.76
879.131	66.05
879.303	-15.87
879.476	76.29
879.648	64
879.82	25.09
879.993	-13.82
880.165	68.09
880.337	4.61
880.509	84.48
880.681	-54.78
880.854	6.66
881.026	-52.74
881.198	27.14
881.37	33.28
881.542	78.33
881.714	-28.16
881.886	29.18
882.058	-56.83
882.23	12.8
882.402	-42.5
882.574	10.75
882.746	57.86
882.918	25.09
883.09	57.86
883.262	35.33
883.434	33.28
883.606	0.51
883.778	68.09
883.95	49.66
884.122	-48.64
884.293	53.76
884.465	-22.02
884.637	4.61
884.809	-79.36
884.98	0.51
885.152	-15.87
885.324	76.29
885.496	-13.82
885.667	27.14
885.839	0.51
886.011	33.28
886.182	115.2
886.354	115.2
886.525	39.42
886.697	49.66
886.869	41.47
887.04	53.76
887.212	76.29
887.383	119.29
887.555	27.14
887.726	-30.21
887.897	-5.63
888.069	39.42
888.24	12.8
888.412	20.99
888.583	33.28
888.754	-24.06
888.926	8.7
889.097	66.05
889.268	0.51
889.44	8.7
889.611	-48.64
889.782	8.7
889.953	51.71
890.125	84.48
890.296	-40.45
890.467	-30.21
890.638	-24.06
890.809	8.7
890.98	-32.26
891.151	23.04
891.323	-38.4
891.494	49.66
891.665	-7.68
891.836	20.99
892.007	10.75
892.178	-5.63
892.349	-24.06
892.52	23.04
892.691	-22.02
892.862	4.61
893.032	-48.64
893.203	98.81
893.374	39.42
893.545	47.62
893.716	-48.64
893.887	76.29
894.057	25.09
894.228	23.04
894.399	-3.58
894.57	-48.64
894.74	-36.35
894.911	84.48
895.082	-3.58
895.253	47.62
895.423	-44.54
895.594	39.42
895.764	-30.21
895.935	-40.45
896.106	-19.97
896.276	-24.06
896.447	-44.54
896.617	8.7
896.788	57.86
896.958	2.56
897.129	10.75
897.299	25.09
897.47	49.66
897.64	-7.68
897.81	-5.63
897.981	-15.87
898.151	-60.93
898.322	57.86
898.492	-46.59
898.662	49.66
898.832	-56.83
899.003	-54.78
899.173	104.96
899.343	-65.02
899.513	37.38
