Data from USB4F104151__270__14-23-14-348.txt Node

Date: Thu Mar 13 14:23:14 EDT 2025
User: louis
Spectrometer: USB4F10415
Trigger mode: 4
Integration Time (sec): 2.000000E-2
Scans to average: 1
Electric dark correction enabled: true
Nonlinearity correction enabled: false
Boxcar width: 0
XAxis mode: Wavelengths
Number of Pixels in Spectrum: 3648
>>>>>Begin Spectral Data<<<<<
178.204	-63.66
178.424	-63.66
178.644	-63.66
178.864	-139.43
179.084	-100.52
179.304	-10.41
179.524	-28.84
179.744	-34.99
179.964	57.17
180.184	42.84
180.404	-18.6
180.624	-32.94
180.844	18.26
181.064	-47.27
181.283	1.88
181.503	10.07
181.723	42.84
181.943	32.6
182.163	89.94
182.383	34.64
182.602	1.88
182.822	73.56
183.042	20.31
183.262	-4.27
183.482	-14.51
183.701	61.27
183.921	91.99
184.141	-22.7
184.361	51.03
184.58	14.17
184.8	26.45
185.02	3.93
185.239	24.4
185.459	-16.55
185.679	-26.79
185.898	-51.37
186.118	126.8
186.338	-14.51
186.557	53.08
186.777	83.8
186.997	38.74
187.216	-8.36
187.436	59.22
187.655	-8.36
187.875	67.41
188.095	8.02
188.314	59.22
188.534	98.13
188.753	-14.51
188.973	-0.17
189.192	59.22
189.412	81.75
189.631	1.88
189.851	-30.89
190.07	26.45
190.29	26.45
190.509	16.21
190.729	18.26
190.948	73.56
191.168	202.58
191.387	75.6
191.607	-32.94
191.826	114.52
192.045	42.84
192.265	12.12
192.484	30.55
192.704	-65.71
192.923	12.12
193.142	145.24
193.362	-55.47
193.581	106.32
193.8	65.36
194.02	-4.27
194.239	18.26
194.458	32.6
194.678	24.4
194.897	32.6
195.116	32.6
195.335	28.5
195.555	57.17
195.774	77.65
195.993	16.21
196.212	-32.94
196.432	14.17
196.651	-24.75
196.87	-24.75
197.089	98.13
197.308	130.9
197.528	75.6
197.747	-6.31
197.966	36.69
198.185	81.75
198.404	57.17
198.623	-6.31
198.842	38.74
199.062	51.03
199.281	57.17
199.5	53.08
199.719	48.98
199.938	59.22
200.157	89.94
200.376	-73.9
200.595	34.64
200.814	24.4
201.033	24.4
201.252	75.6
201.471	-24.75
201.69	22.36
201.909	79.7
202.128	44.88
202.347	67.41
202.566	44.88
202.785	1.88
203.004	79.7
203.223	44.88
203.442	28.5
203.661	-39.08
203.879	65.36
204.098	81.75
204.317	-30.89
204.536	51.03
204.755	91.99
204.974	85.84
205.193	24.4
205.411	59.22
205.63	135
205.849	34.64
206.068	-0.17
206.287	26.45
206.505	87.89
206.724	16.21
206.943	40.79
207.162	98.13
207.381	48.98
207.599	20.31
207.818	18.26
208.037	59.22
208.255	16.21
208.474	73.56
208.693	-12.46
208.911	32.6
209.13	18.26
209.349	114.52
209.567	-16.55
209.786	85.84
210.005	1.88
210.223	48.98
210.442	48.98
210.661	69.46
210.879	44.88
211.098	51.03
211.316	57.17
211.535	42.84
211.753	36.69
211.972	30.55
212.191	8.02
212.409	20.31
212.628	71.51
212.846	22.36
213.065	28.5
213.283	65.36
213.502	-53.42
213.72	73.56
213.938	36.69
214.157	32.6
214.375	63.32
214.594	14.17
214.812	89.94
215.031	73.56
215.249	10.07
215.467	-0.17
215.686	24.4
215.904	-10.41
216.122	18.26
216.341	118.61
216.559	-20.65
216.778	67.41
216.996	34.64
217.214	12.12
217.432	-30.89
217.651	24.4
217.869	75.6
218.087	63.32
218.306	18.26
218.524	28.5
218.742	83.8
218.96	20.31
219.179	48.98
219.397	-0.17
219.615	98.13
219.833	-14.51
220.051	-4.27
220.27	73.56
220.488	53.08
220.706	12.12
220.924	24.4
221.142	87.89
221.36	32.6
221.578	-37.03
221.796	83.8
222.015	-45.23
222.233	-30.89
222.451	65.36
222.669	28.5
222.887	79.7
223.105	24.4
223.323	16.21
223.541	65.36
223.759	81.75
223.977	75.6
224.195	89.94
224.413	57.17
224.631	75.6
224.849	32.6
225.067	77.65
225.285	8.02
225.503	114.52
225.721	24.4
225.939	10.07
226.157	-39.08
226.375	143.19
226.592	-37.03
226.81	100.18
227.028	-0.17
227.246	57.17
227.464	12.12
227.682	94.04
227.9	63.32
228.117	89.94
228.335	77.65
228.553	10.07
228.771	24.4
228.989	26.45
229.206	89.94
229.424	65.36
229.642	18.26
229.86	12.12
230.077	18.26
230.295	-14.51
230.513	65.36
230.731	139.09
230.948	24.4
231.166	28.5
231.384	-22.7
231.601	61.27
231.819	61.27
232.037	28.5
232.254	-24.75
232.472	38.74
232.689	-14.51
232.907	24.4
233.125	22.36
233.342	94.04
233.56	-6.31
233.777	44.88
233.995	-32.94
234.213	55.12
234.43	75.6
234.648	-4.27
234.865	-18.6
235.083	91.99
235.3	16.21
235.518	44.88
235.735	61.27
235.953	75.6
236.17	65.36
236.388	-16.55
236.605	30.55
236.822	55.12
237.04	10.07
237.257	71.51
237.475	-6.31
237.692	118.61
237.909	53.08
238.127	44.88
238.344	18.26
238.562	51.03
238.779	143.19
238.996	-6.31
239.214	16.21
239.431	28.5
239.648	-0.17
239.865	98.13
240.083	-2.22
240.3	32.6
240.517	40.79
240.735	83.8
240.952	69.46
241.169	69.46
241.386	51.03
241.603	22.36
241.821	-8.36
242.038	108.37
242.255	5.97
242.472	38.74
242.689	-0.17
242.907	48.98
243.124	81.75
243.341	-65.71
243.558	67.41
243.775	16.21
243.992	1.88
244.209	32.6
244.426	73.56
244.643	36.69
244.86	16.21
245.078	65.36
245.295	34.64
245.512	77.65
245.729	-32.94
245.946	44.88
246.163	75.6
246.38	59.22
246.597	32.6
246.814	28.5
247.031	22.36
247.248	-14.51
247.464	1.88
247.681	65.36
247.898	32.6
248.115	10.07
248.332	34.64
248.549	59.22
248.766	112.47
248.983	46.93
249.2	116.56
249.417	106.32
249.633	-24.75
249.85	65.36
250.067	-12.46
250.284	48.98
250.501	65.36
250.717	51.03
250.934	26.45
251.151	124.76
251.368	44.88
251.585	65.36
251.801	89.94
252.018	24.4
252.235	48.98
252.451	28.5
252.668	24.4
252.885	57.17
253.102	8.02
253.318	67.41
253.535	-12.46
253.752	-0.17
253.968	14.17
254.185	24.4
254.401	24.4
254.618	57.17
254.835	32.6
255.051	34.64
255.268	8.02
255.484	-14.51
255.701	55.12
255.917	28.5
256.134	12.12
256.351	65.36
256.567	102.23
256.784	26.45
257	51.03
257.217	65.36
257.433	87.89
257.65	42.84
257.866	61.27
258.082	-8.36
258.299	-12.46
258.515	91.99
258.732	67.41
258.948	89.94
259.165	16.21
259.381	34.64
259.597	61.27
259.814	28.5
260.03	26.45
260.246	48.98
260.463	59.22
260.679	118.61
260.895	73.56
261.112	102.23
261.328	55.12
261.544	-4.27
261.761	53.08
261.977	26.45
262.193	38.74
262.409	18.26
262.626	51.03
262.842	48.98
263.058	-57.51
263.274	-4.27
263.49	28.5
263.707	8.02
263.923	42.84
264.139	48.98
264.355	36.69
264.571	106.32
264.787	42.84
265.004	42.84
265.22	22.36
265.436	73.56
265.652	57.17
265.868	30.55
266.084	26.45
266.3	44.88
266.516	110.42
266.732	30.55
266.948	24.4
267.164	28.5
267.38	61.27
267.596	-16.55
267.812	69.46
268.028	67.41
268.244	-20.65
268.46	40.79
268.676	61.27
268.892	51.03
269.108	44.88
269.324	89.94
269.54	-34.99
269.756	24.4
269.972	-59.56
270.188	46.93
270.403	26.45
270.619	85.84
270.835	57.17
271.051	20.31
271.267	-8.36
271.483	38.74
271.698	69.46
271.914	81.75
272.13	75.6
272.346	53.08
272.562	89.94
272.777	51.03
272.993	55.12
273.209	28.5
273.425	30.55
273.64	42.84
273.856	147.28
274.072	-37.03
274.287	30.55
274.503	32.6
274.719	51.03
274.934	-8.36
275.15	28.5
275.366	65.36
275.581	26.45
275.797	24.4
276.012	48.98
276.228	36.69
276.444	57.17
276.659	81.75
276.875	-24.75
277.09	89.94
277.306	85.84
277.521	32.6
277.737	81.75
277.952	-39.08
278.168	24.4
278.383	5.97
278.599	32.6
278.814	75.6
279.03	-8.36
279.245	24.4
279.461	94.04
279.676	5.97
279.892	44.88
280.107	61.27
280.322	36.69
280.538	91.99
280.753	-6.31
280.969	14.17
281.184	-24.75
281.399	114.52
281.615	22.36
281.83	24.4
282.045	16.21
282.26	-24.75
282.476	81.75
282.691	42.84
282.906	163.67
283.122	48.98
283.337	65.36
283.552	73.56
283.767	81.75
283.983	57.17
284.198	75.6
284.413	147.28
284.628	-12.46
284.843	-4.27
285.058	46.93
285.274	28.5
285.489	-4.27
285.704	28.5
285.919	116.56
286.134	12.12
286.349	108.37
286.564	42.84
286.779	116.56
286.995	48.98
287.21	46.93
287.425	81.75
287.64	65.36
287.855	61.27
288.07	-16.55
288.285	114.52
288.5	73.56
288.715	-6.31
288.93	18.26
289.145	16.21
289.36	57.17
289.575	3.93
289.79	94.04
290.004	16.21
290.219	32.6
290.434	44.88
290.649	18.26
290.864	-22.7
291.079	73.56
291.294	106.32
291.509	57.17
291.724	57.17
291.938	48.98
292.153	100.18
292.368	18.26
292.583	132.95
292.798	141.14
293.012	81.75
293.227	1.88
293.442	55.12
293.657	65.36
293.871	112.47
294.086	63.32
294.301	135
294.516	16.21
294.73	-51.37
294.945	-28.84
295.16	57.17
295.374	81.75
295.589	32.6
295.804	10.07
296.018	61.27
296.233	42.84
296.447	53.08
296.662	67.41
296.877	114.52
297.091	34.64
297.306	24.4
297.52	73.56
297.735	63.32
297.949	81.75
298.164	32.6
298.378	59.22
298.593	59.22
298.807	42.84
299.022	98.13
299.236	48.98
299.451	-0.17
299.665	126.8
299.88	75.6
300.094	51.03
300.309	8.02
300.523	1.88
300.737	61.27
300.952	59.22
301.166	42.84
301.381	73.56
301.595	79.7
301.809	44.88
302.024	34.64
302.238	89.94
302.452	53.08
302.667	40.79
302.881	28.5
303.095	63.32
303.309	98.13
303.524	-20.65
303.738	48.98
303.952	98.13
304.166	87.89
304.381	30.55
304.595	81.75
304.809	24.4
305.023	69.46
305.237	-18.6
305.452	48.98
305.666	59.22
305.88	-4.27
306.094	110.42
306.308	85.84
306.522	147.28
306.736	73.56
306.95	-41.13
307.164	89.94
307.379	94.04
307.593	51.03
307.807	-8.36
308.021	44.88
308.235	30.55
308.449	-16.55
308.663	40.79
308.877	98.13
309.091	26.45
309.305	89.94
309.519	-0.17
309.733	75.6
309.947	91.99
310.161	57.17
310.374	32.6
310.588	63.32
310.802	-34.99
311.016	40.79
311.23	-24.75
311.444	40.79
311.658	73.56
311.872	98.13
312.085	53.08
312.299	51.03
312.513	120.66
312.727	102.23
312.941	-0.17
313.154	102.23
313.368	-2.22
313.582	55.12
313.796	40.79
314.009	89.94
314.223	106.32
314.437	48.98
314.651	20.31
314.864	1.88
315.078	73.56
315.292	40.79
315.505	20.31
315.719	73.56
315.933	3.93
316.146	24.4
316.36	71.51
316.573	16.21
316.787	20.31
317.001	24.4
317.214	106.32
317.428	77.65
317.641	51.03
317.855	110.42
318.068	-12.46
318.282	65.36
318.495	98.13
318.709	32.6
318.922	-30.89
319.136	57.17
319.349	110.42
319.563	-63.66
319.776	77.65
319.99	-16.55
320.203	106.32
320.417	110.42
320.63	73.56
320.843	55.12
321.057	42.84
321.27	61.27
321.483	12.12
321.697	46.93
321.91	36.69
322.124	48.98
322.337	73.56
322.55	30.55
322.763	40.79
322.977	91.99
323.19	83.8
323.403	61.27
323.617	98.13
323.83	114.52
324.043	1.88
324.256	51.03
324.469	42.84
324.683	114.52
324.896	18.26
325.109	108.37
325.322	-12.46
325.535	32.6
325.748	77.65
325.962	104.28
326.175	40.79
326.388	20.31
326.601	44.88
326.814	98.13
327.027	135
327.24	91.99
327.453	34.64
327.666	75.6
327.879	5.97
328.092	77.65
328.305	32.6
328.518	16.21
328.731	-6.31
328.944	102.23
329.157	81.75
329.37	-8.36
329.583	91.99
329.796	108.37
330.009	75.6
330.222	106.32
330.435	-10.41
330.648	32.6
330.861	26.45
331.073	53.08
331.286	24.4
331.499	48.98
331.712	8.02
331.925	28.5
332.138	26.45
332.35	32.6
332.563	-53.42
332.776	98.13
332.989	18.26
333.202	81.75
333.414	40.79
333.627	75.6
333.84	67.41
334.053	-6.31
334.265	53.08
334.478	67.41
334.691	75.6
334.903	1.88
335.116	71.51
335.329	44.88
335.541	32.6
335.754	24.4
335.966	20.31
336.179	51.03
336.392	61.27
336.604	-32.94
336.817	106.32
337.029	46.93
337.242	-4.27
337.454	73.56
337.667	106.32
337.88	108.37
338.092	59.22
338.305	-10.41
338.517	30.55
338.729	77.65
338.942	24.4
339.154	73.56
339.367	65.36
339.579	91.99
339.792	10.07
340.004	57.17
340.217	34.64
340.429	26.45
340.641	28.5
340.854	89.94
341.066	87.89
341.278	44.88
341.491	96.08
341.703	51.03
341.915	16.21
342.128	91.99
342.34	104.28
342.552	36.69
342.764	79.7
342.977	67.41
343.189	40.79
343.401	38.74
343.613	16.21
343.826	-14.51
344.038	51.03
344.25	-14.51
344.462	24.4
344.674	26.45
344.886	91.99
345.099	96.08
345.311	38.74
345.523	67.41
345.735	8.02
345.947	63.32
346.159	77.65
346.371	46.93
346.583	81.75
346.795	61.27
347.007	63.32
347.219	53.08
347.431	77.65
347.643	139.09
347.855	51.03
348.067	143.19
348.279	40.79
348.491	75.6
348.703	106.32
348.915	61.27
349.127	26.45
349.339	1.88
349.551	5.97
349.763	32.6
349.975	8.02
350.187	98.13
350.399	130.9
350.61	81.75
350.822	83.8
351.034	48.98
351.246	94.04
351.458	26.45
351.669	124.76
351.881	67.41
352.093	59.22
352.305	89.94
352.517	100.18
352.728	71.51
352.94	24.4
353.152	73.56
353.363	94.04
353.575	118.61
353.787	40.79
353.999	120.66
354.21	87.89
354.422	42.84
354.633	51.03
354.845	77.65
355.057	118.61
355.268	112.47
355.48	91.99
355.692	65.36
355.903	8.02
356.115	65.36
356.326	-2.22
356.538	116.56
356.749	10.07
356.961	42.84
357.172	30.55
357.384	108.37
357.595	108.37
357.807	59.22
358.018	24.4
358.23	73.56
358.441	89.94
358.653	116.56
358.864	83.8
359.075	-12.46
359.287	18.26
359.498	46.93
359.709	53.08
359.921	28.5
360.132	114.52
360.344	16.21
360.555	83.8
360.766	73.56
360.977	59.22
361.189	130.9
361.4	69.46
361.611	51.03
361.823	57.17
362.034	65.36
362.245	28.5
362.456	94.04
362.667	94.04
362.879	48.98
363.09	44.88
363.301	73.56
363.512	24.4
363.723	77.65
363.935	57.17
364.146	102.23
364.357	67.41
364.568	73.56
364.779	-14.51
364.99	71.51
365.201	48.98
365.412	53.08
365.623	63.32
365.834	63.32
366.045	34.64
366.256	59.22
366.467	38.74
366.678	-8.36
366.889	81.75
367.1	40.79
367.311	98.13
367.522	32.6
367.733	79.7
367.944	137.04
368.155	100.18
368.366	87.89
368.577	159.57
368.788	-12.46
368.999	28.5
369.209	65.36
369.42	106.32
369.631	114.52
369.842	77.65
370.053	110.42
370.264	-2.22
370.474	59.22
370.685	26.45
370.896	108.37
371.107	118.61
371.317	110.42
371.528	-6.31
371.739	139.09
371.95	106.32
372.16	32.6
372.371	120.66
372.582	110.42
372.792	106.32
373.003	36.69
373.214	71.51
373.424	26.45
373.635	61.27
373.846	16.21
374.056	42.84
374.267	32.6
374.477	42.84
374.688	114.52
374.898	48.98
375.109	122.71
375.319	89.94
375.53	137.04
375.74	91.99
375.951	98.13
376.161	-0.17
376.372	-8.36
376.582	57.17
376.793	48.98
377.003	61.27
377.214	67.41
377.424	65.36
377.635	94.04
377.845	32.6
378.055	48.98
378.266	114.52
378.476	48.98
378.686	12.12
378.897	40.79
379.107	61.27
379.317	71.51
379.528	36.69
379.738	51.03
379.948	110.42
380.158	34.64
380.369	130.9
380.579	77.65
380.789	48.98
380.999	69.46
381.21	89.94
381.42	96.08
381.63	122.71
381.84	85.84
382.05	26.45
382.261	51.03
382.471	91.99
382.681	1.88
382.891	61.27
383.101	81.75
383.311	16.21
383.521	85.84
383.731	46.93
383.941	124.76
384.151	46.93
384.361	69.46
384.571	114.52
384.781	159.57
384.991	89.94
385.201	89.94
385.411	16.21
385.621	85.84
385.831	30.55
386.041	75.6
386.251	8.02
386.461	61.27
386.671	8.02
386.881	89.94
387.091	44.88
387.301	130.9
387.511	42.84
387.72	12.12
387.93	130.9
388.14	67.41
388.35	81.75
388.56	120.66
388.769	73.56
388.979	147.28
389.189	106.32
389.399	91.99
389.609	122.71
389.818	102.23
390.028	89.94
390.238	67.41
390.447	65.36
390.657	108.37
390.867	34.64
391.076	8.02
391.286	51.03
391.496	110.42
391.705	28.5
391.915	116.56
392.125	46.93
392.334	110.42
392.544	135
392.753	77.65
392.963	22.36
393.172	71.51
393.382	40.79
393.591	98.13
393.801	61.27
394.01	126.8
394.22	44.88
394.429	53.08
394.639	79.7
394.848	114.52
395.058	149.33
395.267	112.47
395.477	61.27
395.686	73.56
395.895	141.14
396.105	212.82
396.314	89.94
396.524	67.41
396.733	94.04
396.942	20.31
397.152	161.62
397.361	147.28
397.57	151.38
397.78	180.05
397.989	110.42
398.198	118.61
398.407	81.75
398.617	106.32
398.826	171.86
399.035	85.84
399.244	83.8
399.453	106.32
399.663	132.95
399.872	104.28
400.081	65.36
400.29	190.29
400.499	81.75
400.708	67.41
400.917	116.56
401.127	120.66
401.336	124.76
401.545	145.24
401.754	75.6
401.963	151.38
402.172	91.99
402.381	100.18
402.59	196.43
402.799	118.61
403.008	196.43
403.217	276.31
403.426	106.32
403.635	106.32
403.844	120.66
404.053	192.34
404.262	196.43
404.471	241.49
404.68	190.29
404.888	173.91
405.097	102.23
405.306	159.57
405.515	241.49
405.724	132.95
405.933	173.91
406.142	184.15
406.35	218.96
406.559	182.1
406.768	216.91
406.977	261.97
407.185	237.39
407.394	221.01
407.603	270.16
407.812	266.07
408.02	288.59
408.229	264.02
408.438	294.74
408.646	243.54
408.855	274.26
409.064	255.83
409.272	261.97
409.481	401.23
409.69	288.59
409.898	270.16
410.107	347.98
410.315	438.09
410.524	347.98
410.733	356.18
410.941	380.75
411.15	417.61
411.358	460.62
411.567	442.19
411.775	384.85
411.984	477.01
412.192	454.48
412.401	405.33
412.609	470.86
412.818	616.27
413.026	548.68
413.234	544.59
413.443	554.83
413.651	558.92
413.86	597.84
414.068	644.94
414.276	655.18
414.485	706.38
414.693	722.76
414.901	794.44
415.11	689.99
415.318	741.19
415.526	808.78
415.734	819.02
415.943	917.32
416.151	933.7
416.359	874.31
416.567	921.42
416.776	993.09
416.984	1072.96
417.192	1062.73
417.4	935.75
417.608	1064.77
417.817	974.66
418.025	1181.51
418.233	1167.17
418.441	1283.91
418.649	1249.09
418.857	1335.1
419.065	1310.53
419.273	1402.69
419.481	1468.22
419.689	1490.75
419.897	1500.99
420.105	1589.05
420.313	1638.2
420.521	1658.68
420.729	1756.99
420.937	1804.09
421.145	1810.23
421.353	1861.43
421.561	2164.53
421.769	1945.4
421.977	2080.57
422.185	1974.07
422.393	2131.76
422.601	2393.9
422.809	2350.9
423.017	2369.33
423.224	2477.87
423.432	2588.46
423.64	2588.46
423.848	2811.69
424.056	2727.72
424.263	2948.9
424.471	2989.86
424.679	2907.94
424.887	3096.36
425.094	3206.95
425.302	3161.89
425.51	3362.59
425.718	3540.77
425.925	3653.41
426.133	3680.03
426.341	3909.4
426.548	4048.66
426.756	3940.12
426.964	3968.79
427.171	4388.63
427.379	4392.72
427.586	4527.89
427.794	4624.14
428.001	4726.54
428.209	5082.89
428.417	4826.89
428.624	5168.9
428.832	5351.17
429.039	5185.29
429.247	5168.9
429.454	5828.35
429.662	6211.32
429.869	5834.49
430.076	6321.91
430.284	6004.47
430.491	6301.43
430.699	6608.62
430.906	6512.37
431.114	6676.21
431.321	6981.35
431.528	7216.87
431.736	7538.4
431.943	7941.85
432.15	7692
432.358	7593.7
432.565	8322.77
432.772	7870.17
432.979	8595.15
433.187	8546
433.394	8638.16
433.601	9350.85
433.808	9510.6
434.016	9172.68
434.223	9596.61
434.43	10100.41
434.637	9967.29
434.844	10704.56
435.052	11042.48
435.259	10827.44
435.466	10841.78
435.673	10571.44
435.88	11404.97
436.087	11998.88
436.294	12041.89
436.501	11746.98
436.708	12119.71
436.915	12367.51
437.122	12834.45
437.329	12797.59
437.537	13332.11
437.743	13584.01
437.95	13479.56
438.157	14122.62
438.364	14708.34
438.571	14548.6
438.778	14476.92
438.985	15924.83
439.192	15191.66
439.399	15930.98
439.606	15261.29
439.813	16318.04
440.02	17442.38
440.227	17307.21
440.433	17071.7
440.64	17475.15
440.847	17292.88
441.054	17944.13
441.261	19009.08
441.467	18447.93
441.674	18783.8
441.881	19705.38
442.088	19609.13
442.294	19457.58
442.501	19985.96
442.708	20436.51
442.914	21241.36
443.121	22060.55
443.328	21610
443.534	23066.1
443.741	22267.39
443.948	21902.86
444.154	23621.1
444.361	23645.68
444.568	23369.2
444.774	23621.1
444.981	23739.88
445.187	24829.4
445.394	25374.16
445.6	25251.28
445.807	27452.85
446.013	26488.26
446.22	26807.74
446.426	28054.95
446.633	28048.81
446.839	29175.19
447.046	28118.44
447.252	29590.93
447.459	29523.35
447.665	29353.37
447.871	30688.64
448.078	31540.6
448.284	30418.31
448.491	31501.68
448.697	32716.13
448.903	32890.21
449.11	33168.73
449.316	32591.2
449.522	33158.49
449.728	34231.63
449.935	34045.26
450.141	34215.24
450.347	34766.15
450.553	34209.1
450.76	34344.27
450.966	35605.81
451.172	35597.62
451.378	36281.64
451.584	35536.18
451.791	36365.61
451.997	35847.47
452.203	36762.92
452.409	36896.03
452.615	36560.17
452.821	35331.39
453.027	35097.92
453.233	36881.7
453.44	35157.31
453.646	35749.17
453.852	36293.93
454.058	36838.69
454.264	35294.52
454.47	36205.87
454.676	35218.75
454.882	36681
455.088	33260.89
455.294	33996.11
455.5	34680.13
455.705	34690.37
455.911	33486.17
456.117	32699.75
456.323	32210.28
456.529	30551.43
456.735	32163.18
456.941	31526.26
457.147	30901.63
457.352	29828.49
457.558	29699.47
457.764	29793.68
457.97	29111.71
458.176	28695.97
458.381	28360.1
458.587	26760.64
458.793	27057.59
458.999	25753.04
459.204	27426.23
459.41	26441.15
459.616	25003.48
459.821	25191.89
460.027	24958.42
460.233	24708.57
460.438	23217.65
460.644	23565.81
460.85	22758.91
461.055	22300.16
461.261	21958.15
461.466	20549.15
461.672	20180.51
461.878	21448.21
462.083	19998.24
462.289	19344.94
462.494	19172.91
462.7	18388.54
462.905	18056.77
463.111	18660.92
463.316	18757.18
463.522	18263.61
463.727	18312.77
463.932	18169.41
464.138	17999.43
464.343	18105.92
464.549	17415.76
464.754	18026.05
464.959	17942.08
465.165	17917.51
465.37	17223.25
465.575	16897.62
465.781	17413.71
465.986	17706.57
466.191	17038.93
466.397	16604.76
466.602	15769.19
466.807	16535.13
467.012	16408.15
467.218	16338.52
467.423	16223.84
467.628	15943.27
467.833	16860.76
468.038	16076.38
468.244	15681.13
468.449	16277.08
468.654	15887.97
468.859	15902.31
469.064	15402.6
469.269	15197.81
469.474	15263.34
469.679	15736.42
469.885	14698.1
470.09	15240.81
470.295	15324.78
470.5	14837.36
470.705	14941.81
470.91	14653.05
471.115	14290.56
471.32	14708.34
471.525	14534.26
471.73	14069.37
471.935	14149.25
472.139	13438.6
472.344	14212.73
472.549	13842.05
472.754	13604.49
472.959	13371.02
473.164	12676.76
473.369	12887.7
473.574	13475.46
473.778	13375.11
473.983	13213.32
474.188	13145.74
474.393	12381.85
474.598	12641.94
474.802	12344.98
475.007	12312.22
475.212	12433.05
475.417	11986.59
475.621	12048.03
475.826	11962.01
476.031	11820.7
476.235	11425.45
476.44	11812.51
476.645	11265.71
476.849	11671.2
477.054	11245.23
477.259	11103.92
477.463	10923.69
477.668	10905.26
477.872	10899.12
478.077	10639.03
478.282	10520.24
478.486	10499.77
478.691	10524.34
478.895	10350.26
479.1	10342.07
479.304	10362.55
479.509	9955.01
479.713	10221.24
479.918	9936.57
480.122	9858.75
480.326	10028.73
480.531	10047.16
480.735	9832.13
480.94	9846.46
481.144	10079.93
481.348	9778.88
481.553	9840.32
481.757	9627.33
481.961	9692.87
482.166	9752.26
482.37	9518.79
482.574	9408.2
482.778	9504.45
482.983	9754.3
483.187	9672.39
483.391	9768.64
483.595	9422.53
483.8	9438.92
484.004	9586.37
484.208	9692.87
484.412	9557.7
484.616	9461.44
484.821	9662.15
485.025	9516.74
485.229	9545.41
485.433	9457.35
485.637	9461.44
485.841	9545.41
486.045	9471.68
486.249	9797.31
486.453	9504.45
486.657	9531.08
486.861	9580.23
487.065	9260.74
487.269	9457.35
487.473	9438.92
487.677	9656
487.881	9854.65
488.085	9576.13
488.289	9729.73
488.493	9668.29
488.697	9838.27
488.901	9696.96
489.105	9627.33
489.309	9588.42
489.512	9662.15
489.716	9778.88
489.92	9651.91
490.124	9735.87
490.328	9709.25
490.531	9764.54
490.735	9776.83
490.939	9848.51
491.143	9649.86
491.346	9995.96
491.55	9797.31
491.754	10034.88
491.958	10211
492.161	9922.24
492.365	9944.77
492.569	10028.73
492.772	10084.03
492.976	10227.39
493.18	10274.49
493.383	10397.37
493.587	10546.87
493.79	10522.29
493.994	10397.37
494.197	10688.18
494.401	10473.14
494.605	10587.83
494.808	10849.97
495.012	10886.83
495.215	10829.49
495.419	10935.98
495.622	10946.22
495.825	10913.45
496.029	11183.79
496.232	11431.59
496.436	11390.63
496.639	11536.04
496.843	11814.56
497.046	11767.46
497.249	11828.9
497.453	12013.21
497.656	11931.3
497.859	12248.73
498.063	12238.49
498.266	12332.7
498.469	12506.77
498.673	12545.69
498.876	12719.76
499.079	12643.99
499.282	12775.06
499.485	13160.08
499.689	13147.79
499.892	13467.27
500.095	13491.85
500.298	13688.45
500.501	13672.07
500.705	13917.82
500.908	14061.18
501.111	14163.58
501.314	14337.66
501.517	14724.72
501.72	14730.87
501.923	14847.6
502.126	15142.51
502.329	15255.15
502.532	15339.12
502.735	15341.16
502.938	15570.54
503.141	15777.38
503.344	16070.24
503.547	16180.83
503.75	16346.72
503.953	16619.1
504.156	16533.08
504.359	17075.79
504.562	16655.96
504.765	17323.6
504.968	17579.59
505.17	17577.55
505.373	17618.5
505.576	17921.6
505.779	18308.67
505.982	18224.7
506.185	18636.34
506.387	18601.53
506.59	18837.05
506.793	19363.37
506.996	18949.68
507.198	19676.71
507.401	19658.28
507.604	19666.47
507.807	20305.44
508.009	20409.89
508.212	20325.92
508.415	20809.24
508.617	20788.76
508.82	20790.81
509.022	20909.59
509.225	21499.41
509.428	21814.79
509.63	22042.12
509.833	21976.58
510.035	22576.64
510.238	22543.87
510.44	22746.62
510.643	22998.52
510.845	23363.06
511.048	23297.52
511.25	23664.11
511.453	23748.07
511.655	24841.69
511.858	24149.48
512.06	24569.31
512.262	24817.11
512.465	24991.19
512.667	25198.04
512.87	25296.34
513.072	25746.89
513.274	26041.8
513.477	26215.88
513.679	26349
513.881	26996.15
514.084	27106.74
514.286	27194.81
514.488	26854.84
514.69	27950.51
514.893	27934.12
515.095	28415.4
515.297	28464.55
515.499	28538.27
515.701	29255.06
515.904	29154.71
516.106	29597.07
516.308	29896.08
516.51	29939.08
516.712	30270.86
516.914	30651.78
517.116	31448.44
517.318	31030.65
517.52	31065.47
517.722	31239.54
517.925	31952.24
518.127	32439.65
518.329	32183.66
518.531	32318.82
518.733	33107.29
518.935	33178.97
519.136	33228.12
519.338	33533.27
519.54	33588.56
519.742	34403.66
519.944	34047.31
520.146	34669.89
520.348	34731.33
520.55	35089.73
520.752	35095.87
520.954	35779.89
521.155	35681.59
521.357	36375.85
521.559	36451.63
521.761	37027.1
521.963	37229.85
522.164	37111.07
522.366	37383.45
522.568	37586.2
522.77	37354.78
522.971	38253.84
523.173	38069.52
523.375	38616.33
523.576	38618.38
523.778	38604.04
523.98	39240.96
524.181	39179.52
524.383	39605.5
524.584	39689.46
524.786	40129.78
524.988	39857.4
525.189	40105.2
525.391	40490.22
525.592	40193.26
525.794	40809.7
525.995	41172.19
526.197	40713.45
526.398	41059.55
526.6	41299.17
526.801	41684.19
527.003	41807.06
527.204	41473.24
527.406	41956.57
527.607	41940.18
527.808	41989.33
528.01	41659.61
528.211	41602.27
528.412	42755.27
528.614	42804.42
528.815	42573
529.016	42392.78
529.218	42419.41
529.419	42378.45
529.62	42837.19
529.822	42947.78
530.023	43150.53
530.224	42849.48
530.425	43175.11
530.626	42808.52
530.828	42820.81
531.029	43750.59
531.23	43326.66
531.431	42935.49
531.632	43205.83
531.833	43388.1
532.035	43248.83
532.236	43789.5
532.437	43779.26
532.638	43320.51
532.839	43494.59
533.04	43437.25
533.241	42837.19
533.442	44061.88
533.643	43193.54
533.844	43809.98
534.045	43529.41
534.246	43138.24
534.447	43652.28
534.648	43527.36
534.849	43599.04
535.05	43228.35
535.251	43764.92
535.451	43363.52
535.652	43328.7
535.853	43191.49
536.054	43418.81
536.255	43476.16
536.456	43181.25
536.657	43941.05
536.857	43453.63
537.058	43070.66
537.259	43644.09
537.46	43357.38
537.66	43191.49
537.861	43410.62
538.062	43343.04
538.263	43715.77
538.463	42865.86
538.664	42788.04
538.865	43273.41
539.065	43504.83
539.266	43244.74
539.466	43279.55
539.667	42824.9
539.868	43166.91
540.068	42706.12
540.269	42710.22
540.469	43705.53
540.67	43087.04
540.87	42757.32
541.071	42861.77
541.271	43435.2
541.472	42894.53
541.672	42857.67
541.873	42855.62
542.073	42912.97
542.274	43230.4
542.474	43064.52
542.675	42734.79
542.875	43287.74
543.075	43168.96
543.276	42669.26
543.476	42929.35
543.676	42669.26
543.877	43062.47
544.077	42601.68
544.277	43140.29
544.478	42714.31
544.678	43400.38
544.878	42988.74
545.078	42728.65
545.279	42427.6
545.479	42699.98
545.679	42505.42
545.879	43005.13
546.079	42851.53
546.28	42577.1
546.48	42341.58
546.68	42593.48
546.88	42665.16
547.08	42620.11
547.28	42308.82
547.48	42276.05
547.68	42894.53
547.88	42413.26
548.081	42783.94
548.281	42427.6
548.481	42274
548.681	42351.82
548.881	42476.75
549.081	42495.18
549.28	42136.79
549.48	42464.46
549.68	42419.41
549.88	42628.3
550.08	42210.51
550.28	42718.41
550.48	42073.3
550.68	42519.76
550.88	42018
551.08	42077.4
551.279	42310.86
551.479	42296.53
551.679	42292.43
551.879	42667.21
552.079	42300.62
552.278	42237.14
552.478	42409.17
552.678	42212.56
552.878	42433.74
553.077	42480.85
553.277	42171.6
553.477	42675.4
553.676	42366.16
553.876	42292.43
554.076	42200.27
554.275	42081.49
554.475	42071.25
554.674	41972.95
554.874	42185.94
555.074	42157.27
555.273	42237.14
555.473	42112.21
555.672	42083.54
555.872	42063.06
556.071	42222.8
556.271	42333.39
556.47	42071.25
556.67	41493.72
556.869	41712.86
557.068	41884.89
557.268	41776.34
557.467	41786.58
557.667	41675.99
557.866	41702.62
558.065	41962.71
558.265	41319.65
558.464	41628.89
558.663	42106.07
558.863	41125.09
559.062	42054.87
559.261	41358.56
559.461	41802.97
559.66	41387.23
559.859	41501.92
560.058	41139.43
560.258	41551.07
560.457	41129.19
560.656	41288.93
560.855	41129.19
561.054	41958.61
561.253	40621.29
561.453	41331.93
561.652	41374.94
561.851	41067.75
562.05	41174.24
562.249	40582.38
562.448	41237.73
562.647	40791.27
562.846	40836.33
563.045	40873.19
563.244	40588.52
563.443	40795.37
563.642	40064.24
563.841	40588.52
564.04	40320.24
564.239	40656.1
564.438	40152.3
564.637	40334.57
564.836	40144.11
565.035	39904.5
565.234	40531.18
565.432	40094.96
565.631	39580.92
565.83	40056.05
566.029	39589.11
566.228	39695.61
566.427	39660.79
566.625	39404.8
566.824	38921.48
567.023	39197.95
567.222	38649.1
567.42	39558.39
567.619	38958.34
567.818	39386.36
568.016	38706.44
568.215	39466.24
568.414	38847.75
568.612	38841.6
568.811	38835.46
569.01	38722.82
569.208	38497.55
569.407	38796.55
569.605	38069.52
569.804	38438.15
570.002	38259.98
570.201	38102.29
570.4	37711.13
570.598	37952.79
570.797	37489.95
570.995	37721.37
571.193	37428.51
571.392	37680.41
571.59	37524.76
571.789	37514.52
571.987	37139.74
572.186	37301.53
572.384	36982.05
572.582	37485.85
572.781	37137.69
572.979	36433.19
573.177	36844.84
573.376	36945.19
573.574	36705.57
573.772	36511.02
573.971	36699.43
574.169	36289.84
574.367	36183.34
574.565	36136.24
574.763	35960.11
574.962	35790.13
575.16	35609.91
575.358	35790.13
575.556	35437.88
575.754	35947.82
575.952	35745.08
576.151	35595.57
576.349	35556.66
576.547	35468.6
576.745	35392.83
576.943	34850.11
577.141	35089.73
577.339	34866.5
577.537	34751.81
577.735	34925.89
577.933	34575.69
578.131	34690.37
578.329	34264.39
578.527	34452.81
578.725	34551.11
578.923	34717
579.121	34239.82
579.319	34164.04
579.516	34024.78
579.714	33897.81
579.912	33809.75
580.11	33654.1
580.308	33658.2
580.506	33344.86
580.704	33273.18
580.901	33303.9
581.099	33520.98
581.297	33166.68
581.495	32998.75
581.692	33101.15
581.89	32378.22
582.088	32970.08
582.285	32855.39
582.483	33160.54
582.681	32808.29
582.878	32552.29
583.076	32105.84
583.274	32556.39
583.471	31995.25
583.669	32337.26
583.866	32277.86
584.064	32169.32
584.262	31858.03
584.459	31935.85
584.657	31683.95
584.854	31753.58
585.052	31397.24
585.249	31937.9
585.447	31491.44
585.644	30950.78
585.841	31296.89
586.039	31356.28
586.236	31016.32
586.434	30739.84
586.631	30915.97
586.828	31198.59
587.026	30875.01
587.223	30211.46
587.42	30584.19
587.618	30633.35
587.815	30231.94
588.012	30233.99
588.21	30225.8
588.407	30453.12
588.604	30233.99
588.801	29922.7
588.999	30047.63
589.196	30064.01
589.393	29939.08
589.59	29963.66
589.787	29472.15
589.984	29574.55
590.182	29298.07
590.379	29427.09
590.576	28986.78
590.773	29318.55
590.97	29001.11
591.167	29220.25
591.364	28880.28
591.561	28884.38
591.758	28538.27
591.955	28853.66
592.152	29033.88
592.349	28523.94
592.546	28626.34
592.743	28282.28
592.94	28339.62
593.137	28116.39
593.334	28368.29
593.531	27844.01
593.727	28417.44
593.924	28069.29
594.121	27737.52
594.318	27823.53
594.515	27561.39
594.712	27925.93
594.908	27475.38
595.105	27737.52
595.302	27401.65
595.499	27264.44
595.696	27491.76
595.892	27303.35
596.089	27241.91
596.286	27233.72
596.482	27098.55
596.679	27080.12
596.876	27104.7
597.072	26738.11
597.269	26826.17
597.466	26410.43
597.662	26650.05
597.859	26435.01
598.055	26353.09
598.252	26201.54
598.448	26451.39
598.645	26189.25
598.841	25978.31
599.038	26082.76
599.234	26148.29
599.431	25648.59
599.627	25656.78
599.824	25920.97
600.02	25644.49
600.217	25691.6
600.413	25400.79
600.609	25699.79
600.806	25533.9
601.002	25413.07
601.198	25394.64
601.395	25044.44
601.591	25265.62
601.787	25249.24
601.984	24862.17
602.18	25222.61
602.376	24880.6
602.572	24612.32
602.769	24722.91
602.965	24659.42
603.161	24819.16
603.357	24731.1
603.553	24305.12
603.75	24507.87
603.946	24415.71
604.142	24198.63
604.338	23829.99
604.534	24225.25
604.73	23920.1
604.926	23911.91
605.122	24172
605.318	23690.73
605.514	23582.19
605.71	23258.61
605.906	23799.27
606.102	23350.77
606.298	23901.67
606.494	23666.16
606.69	23408.11
606.886	23358.96
607.082	23092.72
607.278	23475.7
607.474	23102.96
607.67	23186.93
607.866	22685.18
608.062	23270.9
608.257	23072.25
608.453	22799.87
608.649	23102.96
608.845	22650.36
609.041	22531.58
609.236	22842.87
609.432	22853.11
609.628	22789.63
609.824	22586.88
610.019	22535.68
610.215	22801.91
610.411	22990.33
610.606	22509.05
610.802	22353.41
610.998	22289.92
611.193	22281.73
611.389	22439.42
611.584	21933.57
611.78	22109.7
611.976	22105.6
612.171	22322.69
612.367	22003.21
612.562	22066.69
612.758	21696.01
612.953	21460.49
613.149	22154.76
613.344	21726.73
613.539	22070.79
613.735	21798.41
613.93	21886.47
614.126	21884.42
614.321	21872.14
614.517	21530.12
614.712	21548.56
614.907	21526.03
615.103	21650.95
615.298	21392.91
615.493	21786.12
615.688	21192.21
615.884	21708.3
616.079	21231.12
616.274	21499.41
616.47	21337.62
616.665	21098
616.86	20987.41
617.055	21136.91
617.25	20870.68
617.445	21022.23
617.641	20667.93
617.836	20831.77
618.031	20704.79
618.226	20911.64
618.421	20745.75
618.616	20887.06
618.811	20323.87
619.006	20735.51
619.201	20258.34
619.396	20344.35
619.591	19951.14
619.786	20348.45
619.981	19916.33
620.176	20217.38
620.371	19897.89
620.566	19936.81
620.761	19711.53
620.956	19729.96
621.151	19613.23
621.346	19578.41
621.541	19267.12
621.735	19480.11
621.93	18994.74
622.125	19242.54
622.32	18675.26
622.515	19140.15
622.709	19004.98
622.904	18708.02
623.099	18540.09
623.294	18638.39
623.488	18404.92
623.683	18415.16
623.878	18155.07
624.072	18169.41
624.267	18202.18
624.462	17995.33
624.656	17614.41
624.851	17880.64
625.046	17907.27
625.24	17479.24
625.435	17581.64
625.629	17524.3
625.824	17182.29
626.018	17282.64
626.213	16850.52
626.407	17038.93
626.602	16891.48
626.796	16920.15
626.991	16899.67
627.185	16666.2
627.38	16776.79
627.574	16440.92
627.768	16528.99
627.963	16332.38
628.157	15986.27
628.352	16316
628.546	16057.95
628.74	15869.54
628.935	15953.51
629.129	16019.04
629.323	15748.71
629.517	15636.07
629.712	15703.65
629.906	15486.57
630.1	15392.36
630.294	15361.64
630.489	15306.35
630.683	15367.79
630.877	15027.82
631.071	15128.17
631.265	15222.38
631.459	14806.64
631.653	14945.91
631.848	14622.33
632.042	14696.05
632.236	14870.13
632.43	14392.95
632.624	14378.62
632.818	14182.01
633.012	14347.9
633.206	14247.55
633.4	14173.82
633.594	14067.33
633.788	14091.9
633.982	13954.69
634.176	14016.13
634.369	13723.27
634.563	13651.59
634.757	13647.49
634.951	13713.03
635.145	13581.96
635.339	13614.73
635.533	13440.65
635.726	13317.77
635.92	13141.64
636.114	12951.18
636.308	13231.76
636.501	13072.01
636.695	12754.58
636.889	12803.73
637.083	12793.49
637.276	12742.29
637.47	12551.83
637.664	12697.24
637.857	12598.93
638.051	12631.7
638.244	12498.58
638.438	12344.98
638.632	12453.53
638.825	12052.13
639.019	12074.65
639.212	11943.58
639.406	12115.61
639.599	11777.7
639.793	11945.63
639.986	11843.23
640.18	11792.03
640.373	11697.83
640.567	11564.71
640.76	11869.86
640.954	11321
641.147	11435.69
641.34	11386.54
641.534	11323.05
641.727	11364.01
641.92	11216.55
642.114	11140.78
642.307	11069.1
642.5	11065
642.694	10890.93
642.887	10788.53
643.08	11067.05
643.273	10823.34
643.467	10747.57
643.66	10651.31
643.853	10505.91
644.046	10348.22
644.239	10473.14
644.432	10518.2
644.626	10266.3
644.819	10251.96
645.012	10254.01
645.205	10401.46
645.398	10284.73
645.591	10086.08
645.784	10170.04
645.977	9977.53
646.17	9916.09
646.363	9940.67
646.556	9727.68
646.749	9580.23
646.942	9961.15
647.135	9606.85
647.328	9596.61
647.521	9619.14
647.714	9481.92
647.907	9592.51
648.099	9348.81
648.292	9289.42
648.485	9131.72
648.678	9051.85
648.871	9236.17
649.064	8888.01
649.256	9342.66
649.449	8996.56
649.642	8857.29
649.835	8953.55
650.027	8728.27
650.22	8871.63
650.413	8715.98
650.605	8816.33
650.798	8691.41
650.991	8578.77
651.183	8761.04
651.376	8492.76
651.568	8650.45
651.761	8580.82
651.954	8408.79
652.146	8275.67
652.339	8310.49
652.531	8328.92
652.724	8300.25
652.916	8212.18
653.109	7925.47
653.301	7976.67
653.494	7978.72
653.686	8097.5
653.879	8163.03
654.071	7761.63
654.263	7890.65
654.456	7765.73
654.648	7962.33
654.84	7718.62
655.033	7911.13
655.225	7712.48
655.417	7464.68
655.61	7665.38
655.802	7575.27
655.994	7618.27
656.186	7524.07
656.379	7491.3
656.571	7425.76
656.763	7380.71
656.955	7278.31
657.148	7147.24
657.34	7300.84
657.532	7223.02
657.724	7204.58
657.916	7272.17
658.108	7118.57
658.3	7112.42
658.492	7186.15
658.684	6928.11
658.876	6905.58
659.068	6956.78
659.26	6868.72
659.452	6844.14
659.644	6835.95
659.836	6762.22
660.028	6598.38
660.22	6586.1
660.412	6792.94
660.604	6659.82
660.796	6739.69
660.988	6520.56
661.18	6520.56
661.372	6448.88
661.563	6545.14
661.755	6565.62
661.947	6510.32
662.139	6352.63
662.331	6383.35
662.522	6113.02
662.714	6418.16
662.906	6196.98
663.097	6201.08
663.289	6043.39
663.481	6061.82
663.673	6162.17
663.864	5934.84
664.056	6012.67
664.247	6063.86
664.439	5973.75
664.631	6076.15
664.822	6035.19
665.014	5990.14
665.205	5934.84
665.397	5762.81
665.588	5967.61
665.78	5762.81
665.971	5895.93
666.163	5758.72
666.354	5615.36
666.546	5576.45
666.737	5699.33
666.929	5750.53
667.12	5590.78
667.311	5523.2
667.503	5465.86
667.694	5512.96
667.885	5406.47
668.077	5582.59
668.268	5377.8
668.459	5529.34
668.651	5375.75
668.842	5342.98
669.033	5392.13
669.224	5412.61
669.416	5379.84
669.607	5445.38
669.798	5271.3
669.989	5201.67
670.18	5148.42
670.371	5287.68
670.563	5134.09
670.754	5107.46
670.945	5039.88
671.136	5101.32
671.327	5046.02
671.518	5127.94
671.709	5185.29
671.9	4919.05
672.091	5043.98
672.282	4857.61
672.473	4970.25
672.664	5050.12
672.855	4947.72
673.046	4972.3
673.237	4861.71
673.428	4914.95
673.619	4927.24
673.809	4687.63
674	4900.62
674.191	4841.23
674.382	4744.97
674.573	4767.5
674.764	4701.97
674.954	4880.14
675.145	4734.73
675.336	4650.77
675.527	4595.47
675.717	4652.81
675.908	4728.59
676.099	4677.39
676.289	4613.9
676.48	4589.33
676.671	4493.07
676.861	4544.27
677.052	4513.55
677.243	4560.66
677.433	4671.25
677.624	4513.55
677.814	4648.72
678.005	4542.22
678.195	4460.31
678.386	4581.14
678.576	4435.73
678.767	4441.87
678.957	4538.13
679.148	4488.98
679.338	4431.63
679.529	4402.96
679.719	4409.11
679.909	4357.91
680.1	4398.87
680.29	4497.17
680.481	4405.01
680.671	4366.1
680.861	4470.55
681.052	4302.61
681.242	4431.63
681.432	4294.42
681.622	4388.63
681.813	4308.76
682.003	4329.24
682.193	4235.03
682.383	4390.67
682.573	4253.46
682.764	4251.41
682.954	4275.99
683.144	4218.64
683.334	4316.95
683.524	4196.12
683.714	4243.22
683.904	4308.76
684.094	4251.41
684.284	4063
684.474	4237.08
684.664	4300.56
684.854	4181.78
685.044	4196.12
685.234	4073.24
685.424	4099.86
685.614	4032.28
685.804	4216.6
685.994	4038.42
686.184	4103.96
686.374	4058.9
686.564	4114.2
686.753	3972.89
686.943	4009.75
687.133	3876.63
687.323	3815.2
687.513	3899.16
687.702	4007.7
687.892	3964.7
688.082	3942.17
688.272	3942.17
688.461	3950.36
688.651	4071.19
688.841	3921.69
689.03	3880.73
689.22	3915.55
689.41	3835.67
689.599	3786.52
689.789	3813.15
689.979	3819.29
690.168	3745.56
690.358	3772.19
690.547	3606.3
690.737	3866.39
690.926	3764
691.116	3702.56
691.305	3784.48
691.495	3602.21
691.684	3641.12
691.874	3663.65
692.063	3655.45
692.252	3753.76
692.442	3653.41
692.631	3731.23
692.82	3712.8
693.01	3663.65
693.199	3546.91
693.388	3514.14
693.578	3548.96
693.767	3624.73
693.956	3557.15
694.146	3530.53
694.335	3727.13
694.524	3591.97
694.713	3594.01
694.902	3516.19
695.092	3598.11
695.281	3606.3
695.47	3415.84
695.659	3546.91
695.848	3311.39
696.037	3536.67
696.226	3471.14
696.415	3399.46
696.604	3428.13
696.793	3399.46
696.982	3499.81
697.171	3491.62
697.36	3538.72
697.549	3370.79
697.738	3456.8
697.927	3403.55
698.116	3522.34
698.305	3335.97
698.494	3415.84
698.683	3329.83
698.872	3477.28
699.061	3409.7
699.25	3366.69
699.438	3389.22
699.627	3215.14
699.816	3530.53
700.005	3464.99
700.193	3354.4
700.382	3370.79
700.571	3262.24
700.76	3405.6
700.948	3403.55
701.137	3374.88
701.326	3284.77
701.514	3270.44
701.703	3335.97
701.892	3247.91
702.08	3348.26
702.269	3206.95
702.457	3325.73
702.646	3280.68
702.834	3268.39
703.023	3297.06
703.212	3344.16
703.4	3284.77
703.589	3321.63
703.777	3325.73
703.965	3333.92
704.154	3348.26
704.342	3112.74
704.531	3237.67
704.719	3211.04
704.907	3094.31
705.096	3186.47
705.284	3278.63
705.472	3256.1
705.661	3137.32
705.849	3161.89
706.037	3188.52
706.226	3266.34
706.414	3108.65
706.602	3215.14
706.79	3350.31
706.979	3141.41
707.167	3096.36
707.355	3227.43
707.543	3106.6
707.731	3182.37
707.919	3108.65
708.107	3096.36
708.296	3108.65
708.484	3112.74
708.672	3010.34
708.86	3008.3
709.048	3055.4
709.236	3092.26
709.424	2998.06
709.612	3231.52
709.8	3069.73
709.988	3028.78
710.176	3032.87
710.364	3055.4
710.551	3032.87
710.739	2975.53
710.927	2934.57
711.115	2946.86
711.303	2998.06
711.491	2930.47
711.679	2934.57
711.866	2938.66
712.054	2969.38
712.242	2877.23
712.43	2944.81
712.617	2893.61
712.805	2930.47
712.993	2866.99
713.181	2850.6
713.368	2918.18
713.556	2877.23
713.744	2785.07
713.931	2953
714.119	2885.42
714.306	2793.26
714.494	2817.83
714.682	2989.86
714.869	2711.34
715.057	2828.07
715.244	2903.85
715.432	2918.18
715.619	2793.26
715.807	2871.08
715.994	2856.75
716.182	2828.07
716.369	2844.46
716.556	2756.4
716.744	2688.81
716.931	2901.8
717.119	2762.54
717.306	2856.75
717.493	2795.31
717.681	2715.44
717.868	2842.41
718.055	2815.79
718.242	2703.15
718.43	2647.85
718.617	2707.24
718.804	2821.93
718.991	2772.78
719.179	2713.39
719.366	2719.53
719.553	2567.98
719.74	2690.86
719.927	2760.49
720.114	2617.13
720.301	2600.75
720.488	2746.16
720.676	2582.32
720.863	2613.04
721.05	2590.51
721.237	2647.85
721.424	2541.36
721.611	2662.19
721.798	2596.65
721.985	2608.94
722.172	2682.67
722.358	2631.47
722.545	2565.93
722.732	2561.84
722.919	2537.26
723.106	2580.27
723.293	2506.54
723.48	2633.52
723.667	2533.17
723.853	2449.2
724.04	2488.11
724.227	2430.77
724.414	2443.06
724.6	2549.55
724.787	2524.97
724.974	2512.69
725.161	2451.25
725.347	2473.78
725.534	2477.87
725.72	2436.91
725.907	2522.93
726.094	2469.68
726.28	2336.56
726.467	2385.71
726.653	2467.63
726.84	2416.43
727.027	2453.3
727.213	2436.91
727.4	2398
727.586	2498.35
727.773	2502.45
727.959	2416.43
728.145	2369.33
728.332	2311.99
728.518	2385.71
728.705	2377.52
728.891	2402.1
729.077	2309.94
729.264	2334.51
729.45	2363.19
729.636	2402.1
729.823	2350.9
730.009	2367.28
730.195	2367.28
730.382	2402.1
730.568	2318.13
730.754	2342.71
730.94	2322.23
731.126	2228.02
731.313	2369.33
731.499	2330.42
731.685	2260.79
731.871	2324.27
732.057	2346.8
732.243	2367.28
732.429	2264.88
732.615	2322.23
732.801	2295.6
732.987	2262.83
733.173	2330.42
733.359	2213.68
733.545	2082.61
733.731	2287.41
733.917	2228.02
734.103	2223.92
734.289	2195.25
734.475	2223.92
734.661	2236.21
734.847	2279.22
735.033	2354.99
735.219	2189.11
735.404	2232.12
735.59	2193.2
735.776	2197.3
735.962	2133.81
736.148	2062.13
736.333	2158.39
736.519	2215.73
736.705	2172.72
736.89	2182.96
737.076	2187.06
737.262	2103.09
737.447	2252.59
737.633	2160.44
737.819	2162.48
738.004	2076.47
738.19	2099
738.375	2162.48
738.561	2041.65
738.747	2092.85
738.932	2174.77
739.118	2121.52
739.303	2084.66
739.489	2113.33
739.674	2135.86
739.859	2162.48
740.045	1974.07
740.23	1982.26
740.416	2096.95
740.601	2019.13
740.786	1933.11
740.972	2008.89
741.157	1933.11
741.342	2029.37
741.528	1953.59
741.713	2047.8
741.898	1873.72
742.084	2000.69
742.269	1900.34
742.454	2094.9
742.639	1976.12
742.824	1965.88
743.01	1935.16
743.195	1969.98
743.38	1873.72
743.565	1974.07
743.75	1892.15
743.935	1834.81
744.12	1924.92
744.305	1916.73
744.49	1847.1
744.675	1838.91
744.86	1853.24
745.045	1779.51
745.23	1851.19
745.415	1781.56
745.6	1726.27
745.785	1832.76
745.97	1820.47
746.155	1822.52
746.34	1814.33
746.525	1742.65
746.71	1722.17
746.895	1650.49
747.079	1666.88
747.264	1673.02
747.449	1681.21
747.634	1746.75
747.819	1638.2
748.003	1660.73
748.188	1677.12
748.373	1726.27
748.557	1662.78
748.742	1611.58
748.927	1617.72
749.111	1597.24
749.296	1535.81
749.481	1650.49
749.665	1654.59
749.85	1507.13
750.034	1556.29
750.219	1517.37
750.404	1482.56
750.588	1544
750.773	1521.47
750.957	1394.5
751.141	1531.71
751.326	1460.03
751.51	1437.5
751.695	1476.41
751.879	1453.89
752.064	1466.17
752.248	1437.5
752.432	1412.93
752.617	1402.69
752.801	1466.17
752.985	1335.1
753.17	1392.45
753.354	1351.49
753.538	1353.54
753.722	1322.82
753.907	1382.21
754.091	1314.63
754.275	1294.15
754.459	1394.5
754.643	1222.47
754.828	1279.81
755.012	1343.3
755.196	1220.42
755.38	1208.13
755.564	1163.08
755.748	1253.19
755.932	1244.99
756.116	1257.28
756.3	1290.05
756.484	1236.8
756.668	1265.47
756.852	1105.73
757.036	1199.94
757.22	1210.18
757.404	1167.17
757.588	1146.69
757.772	1210.18
757.956	1179.46
758.14	1130.31
758.323	1050.44
758.507	1083.2
758.691	1058.63
758.875	1027.91
759.059	1077.06
759.242	1083.2
759.426	1091.4
759.61	1113.92
759.794	1101.64
759.977	1072.96
760.161	1072.96
760.345	1058.63
760.528	1032.01
760.712	1044.29
760.895	1007.43
761.079	1040.2
761.263	995.14
761.446	941.89
761.63	1027.91
761.813	1040.2
761.997	1032.01
762.18	898.89
762.364	950.09
762.547	933.7
762.731	907.08
762.914	1027.91
763.098	958.28
763.281	986.95
763.464	966.47
763.648	872.26
763.831	933.7
764.015	921.42
764.198	894.79
764.381	931.66
764.564	894.79
764.748	911.18
764.931	919.37
765.114	917.32
765.297	917.32
765.481	886.6
765.664	917.32
765.847	927.56
766.03	859.98
766.213	925.51
766.397	800.59
766.58	841.54
766.763	894.79
766.946	876.36
767.129	859.98
767.312	866.12
767.495	835.4
767.678	827.21
767.861	837.45
768.044	802.63
768.227	851.78
768.41	853.83
768.593	804.68
768.776	900.94
768.959	853.83
769.142	868.17
769.324	859.98
769.507	780.11
769.69	853.83
769.873	737.1
770.056	909.13
770.239	837.45
770.421	962.37
770.604	786.25
770.787	802.63
770.97	804.68
771.152	776.01
771.335	747.34
771.518	819.02
771.7	802.63
771.883	753.48
772.066	737.1
772.248	788.3
772.431	821.06
772.613	784.2
772.796	747.34
772.978	755.53
773.161	804.68
773.343	704.33
773.526	726.86
773.708	714.57
773.891	753.48
774.073	737.1
774.256	659.28
774.438	737.1
774.621	649.04
774.803	698.19
774.985	583.5
775.168	667.47
775.35	655.18
775.532	687.95
775.715	714.57
775.897	761.67
776.079	638.8
776.261	655.18
776.444	614.22
776.626	618.32
776.808	640.84
776.99	687.95
777.173	696.14
777.355	624.46
777.537	644.94
777.719	569.16
777.901	630.6
778.083	583.5
778.265	626.51
778.447	603.98
778.629	575.31
778.811	663.37
778.993	550.73
779.175	616.27
779.357	626.51
779.539	583.5
779.721	520.01
779.903	509.77
780.085	466.77
780.267	485.2
780.449	614.22
780.631	646.99
780.812	589.64
780.994	517.97
781.176	479.05
781.358	491.34
781.54	534.35
781.721	550.73
781.903	534.35
782.085	544.59
782.267	591.69
782.448	444.24
782.63	468.81
782.812	483.15
782.993	493.39
783.175	552.78
783.357	431.95
783.538	425.81
783.72	466.77
783.901	452.43
784.083	436.05
784.264	540.49
784.446	497.49
784.627	483.15
784.809	384.85
784.99	485.2
785.172	462.67
785.353	436.05
785.535	413.52
785.716	507.73
785.897	388.94
786.079	450.38
786.26	376.66
786.441	423.76
786.623	382.8
786.804	450.38
786.985	343.89
787.167	421.71
787.348	427.85
787.529	376.66
787.71	450.38
787.891	290.64
788.073	438.09
788.254	401.23
788.435	380.75
788.616	354.13
788.797	311.12
788.978	393.04
789.159	384.85
789.34	356.18
789.522	388.94
789.703	354.13
789.884	364.37
790.065	319.31
790.246	399.18
790.427	315.22
790.607	368.46
790.788	411.47
790.969	313.17
791.15	386.9
791.331	304.98
791.512	356.18
791.693	296.78
791.874	319.31
792.054	352.08
792.235	259.92
792.416	286.54
792.597	261.97
792.778	292.69
792.958	325.46
793.139	329.55
793.32	323.41
793.5	284.5
793.681	358.22
793.862	231.25
794.042	298.83
794.223	352.08
794.404	319.31
794.584	206.67
794.765	204.63
794.945	214.87
795.126	245.59
795.306	288.59
795.487	261.97
795.667	253.78
795.848	247.63
796.028	247.63
796.209	288.59
796.389	307.02
796.57	397.14
796.75	268.11
796.93	253.78
797.111	229.2
797.291	216.91
797.471	282.45
797.652	253.78
797.832	280.4
798.012	218.96
798.192	171.86
798.373	245.59
798.553	233.3
798.733	229.2
798.913	155.47
799.093	264.02
799.274	245.59
799.454	233.3
799.634	266.07
799.814	253.78
799.994	319.31
800.174	233.3
800.354	257.87
800.534	173.91
800.714	264.02
800.894	274.26
801.074	212.82
801.254	259.92
801.434	276.31
801.614	270.16
801.794	253.78
801.974	814.92
802.154	190.29
802.334	241.49
802.514	159.57
802.693	268.11
802.873	196.43
803.053	196.43
803.233	223.06
803.413	206.67
803.592	223.06
803.772	241.49
803.952	216.91
804.131	259.92
804.311	247.63
804.491	212.82
804.67	229.2
804.85	196.43
805.03	216.91
805.209	243.54
805.389	212.82
805.568	196.43
805.748	241.49
805.928	229.2
806.107	200.53
806.287	216.91
806.466	192.34
806.646	192.34
806.825	155.47
807.004	180.05
807.184	173.91
807.363	241.49
807.543	173.91
807.722	110.42
807.901	184.15
808.081	214.87
808.26	42.84
808.439	186.19
808.619	167.76
808.798	216.91
808.977	169.81
809.156	225.11
809.336	159.57
809.515	221.01
809.694	114.52
809.873	118.61
810.052	192.34
810.231	223.06
810.411	143.19
810.59	188.24
810.769	116.56
810.948	155.47
811.127	114.52
811.306	182.1
811.485	147.28
811.664	214.87
811.843	190.29
812.022	221.01
812.201	188.24
812.38	163.67
812.559	79.7
812.737	175.95
812.916	194.39
813.095	169.81
813.274	114.52
813.453	106.32
813.632	173.91
813.811	167.76
813.989	98.13
814.168	182.1
814.347	114.52
814.526	46.93
814.704	145.24
814.883	163.67
815.062	61.27
815.24	151.38
815.419	151.38
815.598	130.9
815.776	114.52
815.955	139.09
816.133	163.67
816.312	83.8
816.49	132.95
816.669	143.19
816.847	139.09
817.026	229.2
817.204	122.71
817.383	141.14
817.561	59.22
817.74	79.7
817.918	149.33
818.097	114.52
818.275	124.76
818.453	132.95
818.632	196.43
818.81	122.71
818.988	114.52
819.167	98.13
819.345	106.32
819.523	124.76
819.701	36.69
819.879	130.9
820.058	71.51
820.236	118.61
820.414	67.41
820.592	135
820.77	98.13
820.948	91.99
821.127	81.75
821.305	57.17
821.483	40.79
821.661	110.42
821.839	151.38
822.017	61.27
822.195	85.84
822.373	167.76
822.551	143.19
822.729	167.76
822.907	40.79
823.085	132.95
823.262	169.81
823.44	114.52
823.618	51.03
823.796	73.56
823.974	143.19
824.152	85.84
824.329	171.86
824.507	110.42
824.685	214.87
824.863	120.66
825.04	79.7
825.218	110.42
825.396	116.56
825.574	122.71
825.751	98.13
825.929	159.57
826.107	104.28
826.284	81.75
826.462	85.84
826.639	61.27
826.817	96.08
826.994	114.52
827.172	36.69
827.349	155.47
827.527	182.1
827.704	81.75
827.882	36.69
828.059	139.09
828.237	44.88
828.414	87.89
828.591	126.8
828.769	91.99
828.946	159.57
829.124	124.76
829.301	83.8
829.478	94.04
829.655	122.71
829.833	57.17
830.01	67.41
830.187	130.9
830.364	57.17
830.542	106.32
830.719	83.8
830.896	106.32
831.073	106.32
831.25	114.52
831.427	112.47
831.604	81.75
831.782	48.98
831.959	98.13
832.136	69.46
832.313	81.75
832.49	61.27
832.667	122.71
832.844	122.71
833.021	106.32
833.198	114.52
833.374	77.65
833.551	57.17
833.728	114.52
833.905	83.8
834.082	61.27
834.259	124.76
834.436	85.84
834.612	85.84
834.789	61.27
834.966	44.88
835.143	89.94
835.319	79.7
835.496	73.56
835.673	79.7
835.85	63.32
836.026	-20.65
836.203	59.22
836.38	83.8
836.556	48.98
836.733	57.17
836.909	110.42
837.086	98.13
837.262	8.02
837.439	61.27
837.616	69.46
837.792	-8.36
837.968	38.74
838.145	65.36
838.321	16.21
838.498	46.93
838.674	94.04
838.851	116.56
839.027	61.27
839.203	59.22
839.38	83.8
839.556	8.02
839.732	100.18
839.909	85.84
840.085	24.4
840.261	75.6
840.437	114.52
840.614	16.21
840.79	81.75
840.966	98.13
841.142	34.64
841.318	22.36
841.494	94.04
841.671	10.07
841.847	57.17
842.023	81.75
842.199	69.46
842.375	67.41
842.551	48.98
842.727	12.12
842.903	159.57
843.079	36.69
843.255	85.84
843.431	69.46
843.607	106.32
843.783	-16.55
843.959	44.88
844.134	1.88
844.31	87.89
844.486	55.12
844.662	34.64
844.838	-12.46
845.013	53.08
845.189	81.75
845.365	32.6
845.541	63.32
845.716	65.36
845.892	98.13
846.068	16.21
846.244	65.36
846.419	77.65
846.595	28.5
846.77	28.5
846.946	24.4
847.122	48.98
847.297	42.84
847.473	32.6
847.648	53.08
847.824	139.09
847.999	34.64
848.175	153.43
848.35	-6.31
848.526	153.43
848.701	32.6
848.876	61.27
849.052	-0.17
849.227	98.13
849.403	48.98
849.578	10.07
849.753	28.5
849.929	73.56
850.104	63.32
850.279	77.65
850.454	110.42
850.63	40.79
850.805	91.99
850.98	157.52
851.155	-6.31
851.33	40.79
851.505	57.17
851.681	81.75
851.856	40.79
852.031	110.42
852.206	100.18
852.381	26.45
852.556	51.03
852.731	102.23
852.906	85.84
853.081	75.6
853.256	67.41
853.431	48.98
853.606	38.74
853.781	40.79
853.956	3.93
854.131	40.79
854.305	-32.94
854.48	100.18
854.655	3.93
854.83	34.64
855.005	34.64
855.18	30.55
855.354	59.22
855.529	102.23
855.704	18.26
855.879	81.75
856.053	-57.51
856.228	118.61
856.403	-49.32
856.577	28.5
856.752	-57.51
856.926	12.12
857.101	-20.65
857.276	-8.36
857.45	1.88
857.625	73.56
857.799	59.22
857.974	94.04
858.148	-24.75
858.323	24.4
858.497	40.79
858.672	44.88
858.846	-16.55
859.02	24.4
859.195	48.98
859.369	38.74
859.543	81.75
859.718	44.88
859.892	18.26
860.066	24.4
860.241	34.64
860.415	48.98
860.589	24.4
860.763	-8.36
860.938	42.84
861.112	110.42
861.286	8.02
861.46	24.4
861.634	18.26
861.808	48.98
861.982	8.02
862.157	38.74
862.331	-14.51
862.505	-32.94
862.679	-34.99
862.853	32.6
863.027	32.6
863.201	83.8
863.375	32.6
863.549	65.36
863.722	8.02
863.896	30.55
864.07	-30.89
864.244	81.75
864.418	83.8
864.592	73.56
864.766	-24.75
864.939	75.6
865.113	16.21
865.287	122.71
865.461	16.21
865.634	48.98
865.808	14.17
865.982	61.27
866.156	3.93
866.329	26.45
866.503	20.31
866.676	-32.94
866.85	34.64
867.024	73.56
867.197	28.5
867.371	77.65
867.544	65.36
867.718	28.5
867.891	30.55
868.065	-49.32
868.238	-4.27
868.412	20.31
868.585	44.88
868.759	-41.13
868.932	-37.03
869.105	10.07
869.279	32.6
869.452	-16.55
869.625	-45.23
869.799	-4.27
869.972	18.26
870.145	3.93
870.319	79.7
870.492	81.75
870.665	-4.27
870.838	57.17
871.011	36.69
871.185	-2.22
871.358	-28.84
871.531	73.56
871.704	81.75
871.877	5.97
872.05	-26.79
872.223	8.02
872.396	59.22
872.569	32.6
872.742	40.79
872.915	57.17
873.088	53.08
873.261	48.98
873.434	-8.36
873.607	18.26
873.78	106.32
873.953	3.93
874.126	48.98
874.299	-12.46
874.471	3.93
874.644	51.03
874.817	-51.37
874.99	85.84
875.163	87.89
875.335	69.46
875.508	1.88
875.681	24.4
875.853	40.79
876.026	28.5
876.199	-30.89
876.371	81.75
876.544	-0.17
876.717	61.27
876.889	10.07
877.062	73.56
877.234	-14.51
877.407	26.45
877.579	40.79
877.752	-6.31
877.924	18.26
878.097	-12.46
878.269	34.64
878.442	63.32
878.614	-14.51
878.786	79.7
878.959	44.88
879.131	102.23
879.303	22.36
879.476	-41.13
879.648	77.65
879.82	65.36
879.993	-47.27
880.165	3.93
880.337	-22.7
880.509	-4.27
880.681	1.88
880.854	8.02
881.026	48.98
881.198	126.8
881.37	12.12
881.542	-47.27
881.714	65.36
881.886	59.22
882.058	3.93
882.23	44.88
882.402	12.12
882.574	55.12
882.746	-12.46
882.918	32.6
883.09	24.4
883.262	79.7
883.434	28.5
883.606	59.22
883.778	-22.7
883.95	143.19
884.122	44.88
884.293	57.17
884.465	-2.22
884.637	73.56
884.809	48.98
884.98	26.45
885.152	1.88
885.324	51.03
885.496	65.36
885.667	16.21
885.839	42.84
886.011	85.84
886.182	12.12
886.354	28.5
886.525	32.6
886.697	24.4
886.869	59.22
887.04	40.79
887.212	18.26
887.383	77.65
887.555	32.6
887.726	36.69
887.897	-0.17
888.069	40.79
888.24	16.21
888.412	-10.41
888.583	53.08
888.754	89.94
888.926	-12.46
889.097	12.12
889.268	-86.19
889.44	5.97
889.611	28.5
889.782	-14.51
889.953	8.02
890.125	69.46
890.296	30.55
890.467	-8.36
890.638	34.64
890.809	30.55
890.98	8.02
891.151	28.5
891.323	42.84
891.494	-20.65
891.665	-4.27
891.836	51.03
892.007	34.64
892.178	81.75
892.349	-12.46
892.52	-26.79
892.691	77.65
892.862	-6.31
893.032	24.4
893.203	61.27
893.374	53.08
893.545	65.36
893.716	1.88
893.887	18.26
894.057	-14.51
894.228	75.6
894.399	-2.22
894.57	3.93
894.74	53.08
894.911	-0.17
895.082	3.93
895.253	16.21
895.423	-16.55
895.594	94.04
895.764	-0.17
895.935	-28.84
896.106	40.79
896.276	5.97
896.447	16.21
896.617	36.69
896.788	-8.36
896.958	48.98
897.129	34.64
897.299	-41.13
897.47	59.22
897.64	53.08
897.81	-22.7
897.981	63.32
898.151	1.88
898.322	63.32
898.492	14.17
898.662	8.02
898.832	-20.65
899.003	-41.13
899.173	102.23
899.343	-10.41
899.513	10.07
