Data from USB4F104151__135__14-19-07-936.txt Node

Date: Thu Mar 13 14:19:07 EDT 2025
User: louis
Spectrometer: USB4F10415
Trigger mode: 4
Integration Time (sec): 2.000000E-2
Scans to average: 1
Electric dark correction enabled: true
Nonlinearity correction enabled: false
Boxcar width: 0
XAxis mode: Wavelengths
Number of Pixels in Spectrum: 3648
>>>>>Begin Spectral Data<<<<<
178.204	-109.57
178.424	-109.57
178.644	-109.57
178.864	-146.43
179.084	-56.32
179.304	17.41
179.524	1.02
179.744	-27.65
179.964	39.94
180.184	41.98
180.404	-23.55
180.624	-7.17
180.844	-44.03
181.064	-72.7
181.283	74.75
181.503	27.65
181.723	-27.65
181.943	-35.84
182.163	17.41
182.383	35.84
182.602	15.36
182.822	29.7
183.042	33.79
183.262	-56.32
183.482	-44.03
183.701	-35.84
183.921	72.7
184.141	-27.65
184.361	56.32
184.58	-13.31
184.8	5.12
185.02	-39.94
185.239	39.94
185.459	17.41
185.679	-33.79
185.898	-1.02
186.118	101.37
186.338	29.7
186.557	21.5
186.777	-13.31
186.997	-17.41
187.216	-31.74
187.436	91.13
187.655	82.94
187.875	25.6
188.095	66.56
188.314	1.02
188.534	23.55
188.753	11.26
188.973	33.79
189.192	105.47
189.412	-7.17
189.631	27.65
189.851	56.32
190.07	82.94
190.29	29.7
190.509	-19.46
190.729	27.65
190.948	68.61
191.168	84.99
191.387	46.08
191.607	35.84
191.826	21.5
192.045	39.94
192.265	66.56
192.484	1.02
192.704	13.31
192.923	-11.26
193.142	41.98
193.362	-29.7
193.581	37.89
193.8	17.41
194.02	37.89
194.239	48.13
194.458	41.98
194.678	99.33
194.897	41.98
195.116	-39.94
195.335	11.26
195.555	13.31
195.774	15.36
195.993	52.22
196.212	-15.36
196.432	19.46
196.651	7.17
196.87	21.5
197.089	62.46
197.308	-1.02
197.528	-11.26
197.747	1.02
197.966	25.6
198.185	74.75
198.404	52.22
198.623	25.6
198.842	1.02
199.062	11.26
199.281	33.79
199.5	-7.17
199.719	3.07
199.938	74.75
200.157	72.7
200.376	39.94
200.595	17.41
200.814	52.22
201.033	25.6
201.252	48.13
201.471	84.99
201.69	158.72
201.909	41.98
202.128	33.79
202.347	9.22
202.566	-3.07
202.785	60.42
203.004	-3.07
203.223	101.37
203.442	31.74
203.661	19.46
203.879	21.5
204.098	11.26
204.317	72.7
204.536	19.46
204.755	62.46
204.974	74.75
205.193	41.98
205.411	9.22
205.63	1.02
205.849	54.27
206.068	1.02
206.287	17.41
206.505	1.02
206.724	41.98
206.943	-35.84
207.162	-5.12
207.381	-15.36
207.599	48.13
207.818	7.17
208.037	21.5
208.255	-29.7
208.474	3.07
208.693	29.7
208.911	41.98
209.13	-15.36
209.349	44.03
209.567	29.7
209.786	1.02
210.005	44.03
210.223	-64.51
210.442	-29.7
210.661	91.13
210.879	25.6
211.098	25.6
211.316	33.79
211.535	44.03
211.753	33.79
211.972	9.22
212.191	17.41
212.409	-15.36
212.628	39.94
212.846	-87.04
213.065	58.37
213.283	-1.02
213.502	19.46
213.72	21.5
213.938	80.89
214.157	107.52
214.375	33.79
214.594	33.79
214.812	68.61
215.031	115.71
215.249	78.85
215.467	41.98
215.686	68.61
215.904	74.75
216.122	103.42
216.341	91.13
216.559	76.8
216.778	62.46
216.996	39.94
217.214	62.46
217.432	5.12
217.651	35.84
217.869	-23.55
218.087	-19.46
218.306	37.89
218.524	3.07
218.742	25.6
218.96	35.84
219.179	19.46
219.397	99.33
219.615	76.8
219.833	37.89
220.051	-11.26
220.27	74.75
220.488	66.56
220.706	78.85
220.924	-44.03
221.142	33.79
221.36	68.61
221.578	29.7
221.796	17.41
222.015	97.28
222.233	-15.36
222.451	-3.07
222.669	23.55
222.887	54.27
223.105	-13.31
223.323	74.75
223.541	33.79
223.759	-7.17
223.977	35.84
224.195	154.62
224.413	66.56
224.631	66.56
224.849	58.37
225.067	119.81
225.285	-46.08
225.503	-121.85
225.721	-11.26
225.939	97.28
226.157	95.23
226.375	84.99
226.592	-23.55
226.81	54.27
227.028	109.57
227.246	54.27
227.464	27.65
227.682	87.04
227.9	17.41
228.117	35.84
228.335	56.32
228.553	74.75
228.771	27.65
228.989	89.09
229.206	82.94
229.424	-13.31
229.642	31.74
229.86	62.46
230.077	62.46
230.295	54.27
230.513	5.12
230.731	74.75
230.948	31.74
231.166	99.33
231.384	17.41
231.601	13.31
231.819	87.04
232.037	41.98
232.254	9.22
232.472	37.89
232.689	-58.37
232.907	35.84
233.125	9.22
233.342	15.36
233.56	-35.84
233.777	21.5
233.995	13.31
234.213	58.37
234.43	-7.17
234.648	13.31
234.865	29.7
235.083	31.74
235.3	50.18
235.518	23.55
235.735	115.71
235.953	97.28
236.17	-48.13
236.388	13.31
236.605	5.12
236.822	25.6
237.04	93.18
237.257	39.94
237.475	62.46
237.692	11.26
237.909	13.31
238.127	3.07
238.344	70.65
238.562	84.99
238.779	-13.31
238.996	1.02
239.214	82.94
239.431	-3.07
239.648	29.7
239.865	93.18
240.083	13.31
240.3	-44.03
240.517	-52.22
240.735	-9.22
240.952	9.22
241.169	54.27
241.386	-11.26
241.603	33.79
241.821	19.46
242.038	87.04
242.255	66.56
242.472	-19.46
242.689	33.79
242.907	37.89
243.124	-56.32
243.341	37.89
243.558	19.46
243.775	-13.31
243.992	-72.7
244.209	-23.55
244.426	103.42
244.643	62.46
244.86	19.46
245.078	3.07
245.295	1.02
245.512	-21.5
245.729	15.36
245.946	-56.32
246.163	87.04
246.38	60.42
246.597	66.56
246.814	64.51
247.031	29.7
247.248	95.23
247.464	82.94
247.681	39.94
247.898	-15.36
248.115	-3.07
248.332	-66.56
248.549	56.32
248.766	125.95
248.983	68.61
249.2	11.26
249.417	39.94
249.633	21.5
249.85	134.14
250.067	17.41
250.284	-39.94
250.501	64.51
250.717	19.46
250.934	-44.03
251.151	31.74
251.368	7.17
251.585	140.29
251.801	44.03
252.018	1.02
252.235	87.04
252.451	46.08
252.668	41.98
252.885	23.55
253.102	54.27
253.318	-13.31
253.535	35.84
253.752	23.55
253.968	-23.55
254.185	3.07
254.401	52.22
254.618	-3.07
254.835	21.5
255.051	64.51
255.268	50.18
255.484	37.89
255.701	33.79
255.917	70.65
256.134	9.22
256.351	31.74
256.567	50.18
256.784	64.51
257	-54.27
257.217	50.18
257.433	21.5
257.65	11.26
257.866	107.52
258.082	-84.99
258.299	11.26
258.515	-15.36
258.732	21.5
258.948	74.75
259.165	50.18
259.381	21.5
259.597	25.6
259.814	113.66
260.03	-39.94
260.246	-15.36
260.463	91.13
260.679	82.94
260.895	23.55
261.112	105.47
261.328	27.65
261.544	17.41
261.761	84.99
261.977	25.6
262.193	70.65
262.409	50.18
262.626	-44.03
262.842	27.65
263.058	19.46
263.274	19.46
263.49	17.41
263.707	-3.07
263.923	17.41
264.139	27.65
264.355	41.98
264.571	107.52
264.787	41.98
265.004	44.03
265.22	60.42
265.436	35.84
265.652	-1.02
265.868	58.37
266.084	17.41
266.3	-23.55
266.516	19.46
266.732	17.41
266.948	17.41
267.164	87.04
267.38	66.56
267.596	50.18
267.812	95.23
268.028	50.18
268.244	25.6
268.46	50.18
268.676	52.22
268.892	29.7
269.108	-3.07
269.324	39.94
269.54	-48.13
269.756	37.89
269.972	-7.17
270.188	-35.84
270.403	-5.12
270.619	87.04
270.835	-39.94
271.051	-31.74
271.267	-27.65
271.483	5.12
271.698	-33.79
271.914	64.51
272.13	19.46
272.346	37.89
272.562	41.98
272.777	17.41
272.993	82.94
273.209	68.61
273.425	99.33
273.64	-15.36
273.856	76.8
274.072	17.41
274.287	-44.03
274.503	44.03
274.719	70.65
274.934	3.07
275.15	-5.12
275.366	31.74
275.581	52.22
275.797	58.37
276.012	74.75
276.228	54.27
276.444	-39.94
276.659	101.37
276.875	-13.31
277.09	37.89
277.306	-25.6
277.521	78.85
277.737	25.6
277.952	-17.41
278.168	41.98
278.383	144.38
278.599	93.18
278.814	56.32
279.03	-19.46
279.245	25.6
279.461	33.79
279.676	35.84
279.892	-31.74
280.107	35.84
280.322	-44.03
280.538	37.89
280.753	41.98
280.969	-15.36
281.184	41.98
281.399	87.04
281.615	-29.7
281.83	29.7
282.045	44.03
282.26	-13.31
282.476	-1.02
282.691	82.94
282.906	33.79
283.122	-13.31
283.337	84.99
283.552	50.18
283.767	27.65
283.983	115.71
284.198	11.26
284.413	84.99
284.628	35.84
284.843	103.42
285.058	-3.07
285.274	19.46
285.489	21.5
285.704	54.27
285.919	-56.32
286.134	62.46
286.349	95.23
286.564	82.94
286.779	119.81
286.995	3.07
287.21	48.13
287.425	58.37
287.64	-74.75
287.855	66.56
288.07	41.98
288.285	76.8
288.5	-3.07
288.715	35.84
288.93	31.74
289.145	-5.12
289.36	89.09
289.575	33.79
289.79	-48.13
290.004	-31.74
290.219	76.8
290.434	68.61
290.649	70.65
290.864	31.74
291.079	-19.46
291.294	109.57
291.509	11.26
291.724	15.36
291.938	33.79
292.153	115.71
292.368	-64.51
292.583	107.52
292.798	68.61
293.012	48.13
293.227	84.99
293.442	-46.08
293.657	46.08
293.871	46.08
294.086	-15.36
294.301	80.89
294.516	80.89
294.73	3.07
294.945	21.5
295.16	66.56
295.374	146.43
295.589	37.89
295.804	48.13
296.018	15.36
296.233	89.09
296.447	54.27
296.662	17.41
296.877	37.89
297.091	76.8
297.306	82.94
297.52	68.61
297.735	91.13
297.949	74.75
298.164	21.5
298.378	-23.55
298.593	-37.89
298.807	62.46
299.022	33.79
299.236	70.65
299.451	9.22
299.665	-17.41
299.88	37.89
300.094	115.71
300.309	1.02
300.523	64.51
300.737	-3.07
300.952	91.13
301.166	101.37
301.381	-3.07
301.595	66.56
301.809	52.22
302.024	46.08
302.238	-7.17
302.452	80.89
302.667	54.27
302.881	113.66
303.095	58.37
303.309	41.98
303.524	103.42
303.738	-17.41
303.952	33.79
304.166	60.42
304.381	31.74
304.595	46.08
304.809	119.81
305.023	-5.12
305.237	56.32
305.452	97.28
305.666	7.17
305.88	-13.31
306.094	52.22
306.308	64.51
306.522	-17.41
306.736	101.37
306.95	93.18
307.164	23.55
307.379	13.31
307.593	37.89
307.807	52.22
308.021	62.46
308.235	68.61
308.449	-1.02
308.663	82.94
308.877	29.7
309.091	44.03
309.305	39.94
309.519	19.46
309.733	113.66
309.947	-7.17
310.161	84.99
310.374	89.09
310.588	66.56
310.802	37.89
311.016	125.95
311.23	19.46
311.444	17.41
311.658	66.56
311.872	1.02
312.085	25.6
312.299	156.67
312.513	72.7
312.727	64.51
312.941	17.41
313.154	-1.02
313.368	35.84
313.582	-5.12
313.796	-3.07
314.009	17.41
314.223	60.42
314.437	33.79
314.651	-23.55
314.864	62.46
315.078	41.98
315.292	-7.17
315.505	7.17
315.719	35.84
315.933	33.79
316.146	1.02
316.36	33.79
316.573	41.98
316.787	95.23
317.001	5.12
317.214	29.7
317.428	82.94
317.641	78.85
317.855	52.22
318.068	58.37
318.282	37.89
318.495	189.44
318.709	60.42
318.922	50.18
319.136	58.37
319.349	50.18
319.563	44.03
319.776	5.12
319.99	11.26
320.203	70.65
320.417	148.48
320.63	19.46
320.843	74.75
321.057	50.18
321.27	35.84
321.483	97.28
321.697	37.89
321.91	50.18
322.124	66.56
322.337	25.6
322.55	41.98
322.763	31.74
322.977	84.99
323.19	-21.5
323.403	21.5
323.617	-44.03
323.83	5.12
324.043	-29.7
324.256	-29.7
324.469	15.36
324.683	68.61
324.896	25.6
325.109	82.94
325.322	-31.74
325.535	62.46
325.748	91.13
325.962	11.26
326.175	29.7
326.388	64.51
326.601	17.41
326.814	-17.41
327.027	52.22
327.24	33.79
327.453	-11.26
327.666	41.98
327.879	62.46
328.092	52.22
328.305	60.42
328.518	82.94
328.731	17.41
328.944	11.26
329.157	-70.65
329.37	1.02
329.583	39.94
329.796	50.18
330.009	33.79
330.222	44.03
330.435	7.17
330.648	48.13
330.861	-11.26
331.073	76.8
331.286	19.46
331.499	50.18
331.712	-64.51
331.925	46.08
332.138	37.89
332.35	107.52
332.563	29.7
332.776	41.98
332.989	-19.46
333.202	64.51
333.414	31.74
333.627	-19.46
333.84	82.94
334.053	111.61
334.265	23.55
334.478	50.18
334.691	9.22
334.903	70.65
335.116	-37.89
335.329	46.08
335.541	33.79
335.754	128
335.966	31.74
336.179	13.31
336.392	7.17
336.604	33.79
336.817	54.27
337.029	-13.31
337.242	-13.31
337.454	76.8
337.667	52.22
337.88	9.22
338.092	62.46
338.305	62.46
338.517	17.41
338.729	23.55
338.942	5.12
339.154	58.37
339.367	35.84
339.579	58.37
339.792	-1.02
340.004	58.37
340.217	41.98
340.429	101.37
340.641	-7.17
340.854	13.31
341.066	74.75
341.278	68.61
341.491	78.85
341.703	128
341.915	41.98
342.128	68.61
342.34	13.31
342.552	33.79
342.764	-35.84
342.977	109.57
343.189	29.7
343.401	-1.02
343.613	-15.36
343.826	125.95
344.038	-7.17
344.25	76.8
344.462	21.5
344.674	-15.36
344.886	68.61
345.099	39.94
345.311	5.12
345.523	52.22
345.735	25.6
345.947	15.36
346.159	17.41
346.371	25.6
346.583	9.22
346.795	128
347.007	17.41
347.219	37.89
347.431	1.02
347.643	46.08
347.855	60.42
348.067	35.84
348.279	-13.31
348.491	46.08
348.703	125.95
348.915	68.61
349.127	33.79
349.339	68.61
349.551	107.52
349.763	48.13
349.975	35.84
350.187	17.41
350.399	58.37
350.61	-3.07
350.822	-11.26
351.034	52.22
351.246	19.46
351.458	19.46
351.669	60.42
351.881	91.13
352.093	91.13
352.305	99.33
352.517	107.52
352.728	80.89
352.94	115.71
353.152	17.41
353.363	44.03
353.575	82.94
353.787	74.75
353.999	70.65
354.21	29.7
354.422	44.03
354.633	35.84
354.845	31.74
355.057	58.37
355.268	21.5
355.48	-5.12
355.692	15.36
355.903	70.65
356.115	41.98
356.326	37.89
356.538	125.95
356.749	115.71
356.961	33.79
357.172	78.85
357.384	13.31
357.595	68.61
357.807	-15.36
358.018	44.03
358.23	78.85
358.441	134.14
358.653	15.36
358.864	41.98
359.075	21.5
359.287	56.32
359.498	107.52
359.709	17.41
359.921	66.56
360.132	41.98
360.344	39.94
360.555	44.03
360.766	62.46
360.977	52.22
361.189	-19.46
361.4	19.46
361.611	91.13
361.823	-11.26
362.034	66.56
362.245	21.5
362.456	111.61
362.667	80.89
362.879	11.26
363.09	64.51
363.301	5.12
363.512	21.5
363.723	48.13
363.935	27.65
364.146	56.32
364.357	21.5
364.568	15.36
364.779	58.37
364.99	148.48
365.201	15.36
365.412	39.94
365.623	46.08
365.834	27.65
366.045	76.8
366.256	95.23
366.467	1.02
366.678	72.7
366.889	58.37
367.1	17.41
367.311	107.52
367.522	-21.5
367.733	66.56
367.944	66.56
368.155	41.98
368.366	37.89
368.577	27.65
368.788	46.08
368.999	48.13
369.209	58.37
369.42	25.6
369.631	95.23
369.842	25.6
370.053	70.65
370.264	93.18
370.474	17.41
370.685	27.65
370.896	-15.36
371.107	50.18
371.317	50.18
371.528	17.41
371.739	68.61
371.95	91.13
372.16	74.75
372.371	52.22
372.582	52.22
372.792	58.37
373.003	13.31
373.214	23.55
373.424	68.61
373.635	-29.7
373.846	95.23
374.056	25.6
374.267	50.18
374.477	128
374.688	9.22
374.898	50.18
375.109	50.18
375.319	19.46
375.53	68.61
375.74	37.89
375.951	89.09
376.161	70.65
376.372	87.04
376.582	33.79
376.793	140.29
377.003	-13.31
377.214	13.31
377.424	13.31
377.635	17.41
377.845	11.26
378.055	128
378.266	-44.03
378.476	25.6
378.686	9.22
378.897	80.89
379.107	140.29
379.317	29.7
379.528	7.17
379.738	117.76
379.948	-62.46
380.158	101.37
380.369	95.23
380.579	29.7
380.789	78.85
380.999	7.17
381.21	68.61
381.42	58.37
381.63	25.6
381.84	25.6
382.05	-39.94
382.261	115.71
382.471	66.56
382.681	17.41
382.891	113.66
383.101	78.85
383.311	-5.12
383.521	66.56
383.731	50.18
383.941	52.22
384.151	11.26
384.361	66.56
384.571	74.75
384.781	111.61
384.991	9.22
385.201	134.14
385.411	82.94
385.621	58.37
385.831	82.94
386.041	101.37
386.251	29.7
386.461	103.42
386.671	91.13
386.881	78.85
387.091	72.7
387.301	101.37
387.511	78.85
387.72	50.18
387.93	44.03
388.14	5.12
388.35	-15.36
388.56	93.18
388.769	41.98
388.979	39.94
389.189	29.7
389.399	117.76
389.609	111.61
389.818	140.29
390.028	74.75
390.238	54.27
390.447	68.61
390.657	70.65
390.867	117.76
391.076	74.75
391.286	58.37
391.496	-48.13
391.705	82.94
391.915	60.42
392.125	144.38
392.334	82.94
392.544	123.9
392.753	107.52
392.963	82.94
393.172	39.94
393.382	70.65
393.591	93.18
393.801	3.07
394.01	132.09
394.22	115.71
394.429	27.65
394.639	-7.17
394.848	103.42
395.058	70.65
395.267	68.61
395.477	44.03
395.686	105.47
395.895	162.81
396.105	134.14
396.314	111.61
396.524	140.29
396.733	95.23
396.942	152.57
397.152	132.09
397.361	144.38
397.57	154.62
397.78	132.09
397.989	107.52
398.198	95.23
398.407	119.81
398.617	101.37
398.826	89.09
399.035	107.52
399.244	158.72
399.453	103.42
399.663	125.95
399.872	66.56
400.081	64.51
400.29	183.29
400.499	74.75
400.708	50.18
400.917	74.75
401.127	66.56
401.336	5.12
401.545	201.72
401.754	119.81
401.963	123.9
402.172	76.8
402.381	74.75
402.59	105.47
402.799	64.51
403.008	144.38
403.217	140.29
403.426	197.63
403.635	78.85
403.844	123.9
404.053	95.23
404.262	93.18
404.471	183.29
404.68	166.91
404.888	105.47
405.097	99.33
405.306	166.91
405.515	140.29
405.724	166.91
405.933	115.71
406.142	191.49
406.35	140.29
406.559	205.82
406.768	181.25
406.977	216.06
407.185	263.16
407.394	209.92
407.603	214.01
407.812	222.2
408.02	226.3
408.229	179.2
408.438	205.82
408.646	240.64
408.855	328.7
409.064	226.3
409.272	222.2
409.481	263.16
409.69	191.49
409.898	199.68
410.107	242.68
410.315	275.45
410.524	261.12
410.733	312.32
410.941	353.27
411.15	377.85
411.358	332.79
411.567	445.43
411.775	414.71
411.984	386.04
412.192	429.05
412.401	508.92
412.609	459.77
412.818	443.39
413.026	451.58
413.234	445.43
413.443	398.33
413.651	496.63
413.86	533.5
414.068	594.93
414.276	566.26
414.485	564.22
414.693	515.06
414.901	656.37
415.11	642.04
415.318	699.38
415.526	713.72
415.734	625.65
415.943	728.05
416.151	783.35
416.359	750.58
416.567	820.21
416.776	828.4
416.984	852.98
417.192	918.51
417.4	943.09
417.608	838.64
417.817	963.57
418.025	1037.3
418.233	1045.49
418.441	1057.78
418.649	1102.83
418.857	1154.03
419.065	1186.8
419.273	1219.57
419.481	1262.57
419.689	1334.25
419.897	1336.3
420.105	1334.25
420.313	1448.94
420.521	1459.18
420.729	1606.63
420.937	1534.95
421.145	1618.92
421.353	1706.98
421.561	1766.37
421.769	1606.63
421.977	1745.89
422.185	1872.87
422.393	1985.51
422.601	2057.18
422.809	2108.38
423.017	2077.66
423.224	2188.25
423.432	2221.02
423.64	2214.88
423.848	2452.44
424.056	2307.04
424.263	2593.75
424.471	2669.53
424.679	2616.28
424.887	2720.73
425.094	2778.07
425.302	2919.38
425.51	2917.33
425.718	3115.98
425.925	3105.74
426.133	3245.01
426.341	3394.51
426.548	3597.26
426.756	3548.11
426.964	3638.22
427.171	3859.4
427.379	3822.53
427.586	3926.98
427.794	4107.2
428.001	4305.85
428.209	4512.7
428.417	4494.27
428.624	4565.95
428.832	4735.93
429.039	4752.31
429.247	4666.3
429.454	5082.03
429.662	5243.82
429.869	5032.88
430.076	5417.9
430.284	5327.79
430.491	5460.91
430.699	5870.5
430.906	5675.95
431.114	5929.89
431.321	6134.69
431.528	6134.69
431.736	6638.49
431.943	6857.62
432.15	6579.1
432.358	6687.64
432.565	7097.24
432.772	6992.79
432.979	7594.89
433.187	7732.11
433.394	7687.05
433.601	8002.44
433.808	8168.32
434.016	8209.28
434.223	8375.17
434.43	9020.28
434.637	8856.44
434.844	9163.64
435.052	9614.19
435.259	9565.04
435.466	9440.11
435.673	9493.36
435.88	10031.97
436.087	10562.4
436.294	10556.25
436.501	10318.69
436.708	10548.06
436.915	11039.58
437.122	11400.02
437.329	11361.11
437.537	11764.56
437.743	12231.49
437.95	11801.42
438.157	12378.95
438.364	12700.48
438.571	12979
438.778	13067.06
438.985	14240.55
439.192	13351.73
439.399	14109.48
439.606	13792.05
439.813	14347.05
440.02	15315.73
440.227	15276.82
440.433	14940.96
440.64	15340.31
440.847	15479.57
441.054	15852.3
441.261	16507.65
441.467	16530.18
441.674	16788.22
441.881	17396.47
442.088	17496.82
442.294	17083.13
442.501	17691.38
442.708	17902.32
442.914	18733.79
443.121	19428.06
443.328	18901.73
443.534	20202.19
443.741	19718.87
443.948	19436.25
444.154	20636.36
444.361	20595.4
444.568	20904.64
444.774	20904.64
444.981	20925.12
445.187	21840.56
445.394	22215.34
445.6	22231.72
445.807	24672.9
446.013	23567
446.22	23945.87
446.426	24341.13
446.633	24836.74
446.839	25940.6
447.046	24470.15
447.252	25916.02
447.459	25856.63
447.665	26014.32
447.871	27212.38
448.078	28297.81
448.284	26954.34
448.491	27312.74
448.697	28435.02
448.903	29473.34
449.11	29246.02
449.316	28656.2
449.522	29469.25
449.728	30057.01
449.935	30464.56
450.141	30267.95
450.347	31326.75
450.553	30073.4
450.76	30401.07
450.966	31558.17
451.172	30880.3
451.378	31834.65
451.584	31222.31
451.791	31998.49
451.997	31726.11
452.203	32459.28
452.409	32244.24
452.615	32553.49
452.821	30947.88
453.027	30962.22
453.233	32485.9
453.44	31478.3
453.646	31736.35
453.852	31619.61
454.058	32170.52
454.264	31279.65
454.47	32092.69
454.676	31502.88
454.882	32291.35
455.088	29686.33
455.294	29889.08
455.5	30714.41
455.705	31035.94
455.911	29430.33
456.117	29436.48
456.323	28541.52
456.529	27048.55
456.735	28336.72
456.941	27699.8
457.147	27222.62
457.352	26450.54
457.558	25948.79
457.764	26380.91
457.97	25594.49
458.176	25199.23
458.381	25174.66
458.587	24083.09
458.793	23923.35
458.999	22700.71
459.204	24593.03
459.41	23671.45
459.616	22143.66
459.821	21926.58
460.027	22055.6
460.233	21668.53
460.438	20574.92
460.644	20968.13
460.85	20003.53
461.055	19563.22
461.261	19559.13
461.466	18031.34
461.672	17593.08
461.878	18662.12
462.083	17406.71
462.289	17222.39
462.494	16757.5
462.7	16259.85
462.905	15680.27
463.111	16417.54
463.316	16540.42
463.522	15966.99
463.727	16192.26
463.932	15985.42
464.138	15895.31
464.343	15954.7
464.549	15532.82
464.754	16188.17
464.959	15911.69
465.165	15887.12
465.37	15153.94
465.575	14756.64
465.781	15467.28
465.986	15340.31
466.191	14625.57
466.397	14269.22
466.602	13937.45
466.807	14383.91
467.012	14222.12
467.218	14181.16
467.423	13939.5
467.628	14453.54
467.833	14580.51
468.038	14265.13
468.244	13886.25
468.449	14215.98
468.654	13806.38
468.859	13841.2
469.064	13577.01
469.269	13157.18
469.474	13247.29
469.679	13534
469.885	13110.07
470.09	13531.95
470.295	13060.92
470.5	12698.43
470.705	13142.84
470.91	12593.98
471.115	12225.35
471.32	12657.47
471.525	12596.03
471.73	12223.3
471.935	12274.5
472.139	11758.41
472.344	11901.77
472.549	11826
472.754	11780.94
472.959	11754.32
473.164	11373.39
473.369	11207.51
473.574	11623.25
473.778	11455.31
473.983	11307.86
474.188	11316.05
474.393	10740.57
474.598	11068.25
474.802	10734.43
475.007	10634.08
475.212	10705.76
475.417	10486.62
475.621	10519.39
475.826	10261.35
476.031	10197.86
476.235	10019.69
476.44	10136.42
476.645	9962.34
476.849	9937.77
477.054	9825.13
477.259	9722.73
477.463	9913.19
477.668	9493.36
477.872	9538.41
478.077	9321.33
478.282	9167.73
478.486	9186.16
478.691	9257.84
478.895	8885.11
479.1	8909.69
479.304	9083.77
479.509	8702.84
479.713	8934.26
479.918	8596.35
480.122	8721.27
480.326	8637.31
480.531	8655.74
480.735	8508.29
480.94	8274.82
481.144	8795
481.348	8192.9
481.553	8405.89
481.757	8291.2
481.961	8360.83
482.166	8326.02
482.37	8303.49
482.574	8250.24
482.778	8256.39
482.983	8209.28
483.187	8389.5
483.391	8305.54
483.595	8307.59
483.8	8188.8
484.004	8299.39
484.208	8586.11
484.412	8373.12
484.616	8326.02
484.821	8276.87
485.025	7967.62
485.229	8184.71
485.433	8209.28
485.637	8299.39
485.841	8233.86
486.045	8090.5
486.249	8242.05
486.453	8035.21
486.657	8289.15
486.861	8276.87
487.065	8110.98
487.269	8156.04
487.473	8186.76
487.677	8307.59
487.881	8405.89
488.085	8094.6
488.289	8192.9
488.493	8430.46
488.697	8389.5
488.901	8207.23
489.105	8184.71
489.309	8500.09
489.512	8381.31
489.716	8246.15
489.92	8285.06
490.124	8373.12
490.328	8446.85
490.531	8467.33
490.735	8364.93
490.939	8401.79
491.143	8377.22
491.346	8393.6
491.55	8711.04
491.754	8672.12
491.958	8516.48
492.161	8489.85
492.365	8807.29
492.569	8663.93
492.772	8530.81
492.976	8903.54
493.18	8758.14
493.383	8936.31
493.587	8776.57
493.79	8807.29
493.994	8858.49
494.197	8887.16
494.401	9014.13
494.605	9202.55
494.808	9231.22
495.012	9139.06
495.215	9366.39
495.419	9417.58
495.622	9372.53
495.825	9517.93
496.029	9276.27
496.232	9599.85
496.436	9790.31
496.639	9851.75
496.843	9968.49
497.046	10048.36
497.249	10232.68
497.453	10044.26
497.656	10261.35
497.859	10316.64
498.063	10437.47
498.266	10681.18
498.469	10355.55
498.673	10691.42
498.876	10660.7
499.079	11025.24
499.282	10912.6
499.485	11045.72
499.689	11320.15
499.892	11387.73
500.095	11477.84
500.298	11600.72
500.501	11533.14
500.705	11942.73
500.908	12088.14
501.111	12280.64
501.314	12335.94
501.517	12448.58
501.72	12405.57
501.923	12659.52
502.126	12751.68
502.329	13030.2
502.532	13060.92
502.735	12927.8
502.938	13267.77
503.141	13550.39
503.344	13697.84
503.547	13681.46
503.75	13843.24
503.953	14158.63
504.156	14107.43
504.359	14402.34
504.562	14306.09
504.765	14781.21
504.968	14834.46
505.17	15094.55
505.373	14865.18
505.576	15377.17
505.779	15475.48
505.982	15534.87
506.185	15608.59
506.387	15850.25
506.59	16020.24
506.793	16333.57
506.996	16194.31
507.198	16825.09
507.401	16253.7
507.604	16591.62
507.807	17081.08
508.009	17132.28
508.212	17294.07
508.415	17423.09
508.617	17689.33
508.82	17834.74
509.022	17390.33
509.225	18027.24
509.428	18346.73
509.63	18094.83
509.833	18717.41
510.035	19012.32
510.238	19202.78
510.44	19155.68
510.643	19401.43
510.845	19602.13
511.048	19426.01
511.25	19772.11
511.453	20028.11
511.655	20652.74
511.858	20681.41
512.06	20501.19
512.262	20939.46
512.465	20742.85
512.667	21279.42
512.87	21084.86
513.072	21396.15
513.274	21678.77
513.477	21861.04
513.679	22037.17
513.881	22463.15
514.084	22510.25
514.286	22512.3
514.488	22817.44
514.69	23300.76
514.893	23327.39
515.095	23519.9
515.297	23730.84
515.499	23610.01
515.701	24298.13
515.904	24396.43
516.106	24527.5
516.308	24844.93
516.51	25338.49
516.712	25236.09
516.914	25293.44
517.116	25752.18
517.318	25809.53
517.52	26047.09
517.722	25875.06
517.925	26086
518.127	26866.28
518.329	26753.64
518.531	26620.52
518.733	27122.27
518.935	27578.97
519.136	27443.81
519.338	27865.69
519.54	27859.54
519.742	28238.42
519.944	28228.18
520.146	28695.11
520.348	28895.82
520.55	28975.69
520.752	29170.24
520.954	29850.17
521.155	29483.58
521.357	29876.79
521.559	30118.45
521.761	30226.99
521.963	30491.18
522.164	30718.51
522.366	30575.15
522.568	30992.94
522.77	31183.4
522.971	31732.25
523.173	31490.59
523.375	31877.66
523.576	32010.78
523.778	31425.06
523.98	32131.61
524.181	32309.78
524.383	32285.2
524.584	32987.66
524.786	33001.99
524.988	32715.28
525.189	33192.45
525.391	33309.19
525.592	33346.05
525.794	34028.02
525.995	33712.64
526.197	33745.41
526.398	33700.35
526.6	34066.94
526.801	34171.38
527.003	34439.67
527.204	34664.94
527.406	34576.88
527.607	34664.94
527.808	35107.3
528.01	34126.33
528.211	34439.67
528.412	35543.52
528.614	35103.21
528.815	35191.27
529.016	35357.16
529.218	35344.87
529.419	35158.5
529.62	35656.16
529.822	35265
530.023	35750.37
530.224	35652.06
530.425	35426.79
530.626	35551.71
530.828	35383.78
531.029	36303.32
531.23	35514.85
531.431	35750.37
531.632	36059.61
531.833	36207.06
532.035	36008.41
532.236	35781.09
532.437	36446.68
532.638	36129.24
532.839	36448.72
533.04	36139.48
533.241	35844.57
533.442	36608.47
533.643	35949.02
533.844	36260.31
534.045	36446.68
534.246	36131.29
534.447	36329.94
534.648	36458.96
534.849	36551.12
535.05	36282.84
535.251	36331.99
535.451	36413.91
535.652	36450.77
535.853	36116.95
536.054	36069.85
536.255	36782.54
536.456	36061.66
536.657	36790.73
536.857	36149.72
537.058	36405.72
537.259	36362.71
537.46	36157.91
537.66	36260.31
537.861	36346.33
538.062	36131.29
538.263	36547.03
538.463	35987.93
538.664	35801.57
538.865	36307.41
539.065	36733.39
539.266	36196.82
539.466	36772.3
539.667	36196.82
539.868	36483.54
540.068	35983.83
540.269	36305.37
540.469	36577.75
540.67	36135.38
540.87	36108.76
541.071	36270.55
541.271	36239.83
541.472	36116.95
541.672	35940.83
541.873	35695.07
542.073	35568.1
542.274	36483.54
542.474	35869.15
542.675	36026.84
542.875	36016.6
543.075	36389.33
543.276	35537.38
543.476	36209.11
543.676	36106.71
543.877	36123.1
544.077	35879.39
544.277	35893.72
544.478	35946.97
544.678	36073.95
544.878	36102.62
545.078	36231.64
545.279	35490.27
545.479	35693.02
545.679	36051.42
545.879	36090.33
546.079	35676.64
546.28	35869.15
546.48	35912.16
546.68	35967.45
546.88	36055.51
547.08	35875.29
547.28	35742.17
547.48	35379.68
547.68	35477.99
547.88	35760.61
548.081	36037.08
548.281	35910.11
548.481	35512.8
548.681	35742.17
548.881	35797.47
549.081	35912.16
549.28	35443.17
549.48	35684.83
549.68	35473.89
549.88	36243.93
550.08	35150.31
550.28	35774.94
550.48	35281.38
550.68	35684.83
550.88	35439.08
551.08	35437.03
551.279	35574.24
551.479	35533.28
551.679	35357.16
551.879	35545.57
552.079	35781.09
552.278	35183.08
552.478	35420.64
552.678	35596.77
552.878	35820
553.077	35557.86
553.277	35316.2
553.477	35813.85
553.676	35135.98
553.876	35346.92
554.076	34951.66
554.275	35144.17
554.475	34902.51
554.674	35361.25
554.874	34953.71
555.074	35049.96
555.273	35250.66
555.473	35267.05
555.672	34947.56
555.872	34922.99
556.071	35164.65
556.271	35365.35
556.47	34863.6
556.67	34730.48
556.869	34992.62
557.068	34824.68
557.268	34519.54
557.467	34841.07
557.667	34693.61
557.866	34783.73
558.065	35113.45
558.265	34343.41
558.464	34478.58
558.663	34961.9
558.863	34173.43
559.062	34734.57
559.261	34361.84
559.461	34865.64
559.66	34021.88
559.859	34445.81
560.058	34224.63
560.258	34687.47
560.457	33978.87
560.656	34515.44
560.855	34019.83
561.054	34398.71
561.253	33845.76
561.453	34273.78
561.652	33993.21
561.851	34171.38
562.05	34091.51
562.249	33675.77
562.448	34318.84
562.647	34046.46
562.846	33733.12
563.045	33851.9
563.244	33630.72
563.443	33935.87
563.642	32899.59
563.841	33667.58
564.04	33239.56
564.239	33722.88
564.438	33020.42
564.637	33348.1
564.836	33569.28
565.035	32782.86
565.234	32883.21
565.432	33045
565.631	32741.9
565.83	33178.12
566.029	32870.92
566.228	32709.13
566.427	32758.28
566.625	32541.2
566.824	32281.11
567.023	33001.99
567.222	31912.47
567.42	32449.04
567.619	32295.44
567.818	32293.4
568.016	32301.59
568.215	32543.25
568.414	32289.3
568.612	32356.88
568.811	31937.05
569.01	31945.24
569.208	31896.09
569.407	31873.56
569.605	31832.6
569.804	31957.53
570.002	31433.25
570.201	32211.48
570.4	31201.83
570.598	31644.19
570.797	30964.26
570.995	31447.58
571.193	31029.8
571.392	31304.23
571.59	30526
571.789	31046.18
571.987	30542.38
572.186	31076.9
572.384	30665.26
572.582	30857.77
572.781	30994.98
572.979	30745.13
573.177	30556.72
573.376	30806.57
573.574	30382.64
573.772	30781.99
573.971	30003.77
574.169	30218.8
574.367	30272.05
574.565	30104.12
574.763	30003.77
574.962	30044.73
575.16	29749.82
575.358	29870.65
575.556	29487.68
575.754	30028.34
575.952	29600.32
576.151	29635.13
576.349	29454.91
576.547	29172.29
576.745	29387.33
576.943	29526.59
577.141	29258.31
577.339	29198.91
577.537	29020.74
577.735	28922.44
577.933	28744.27
578.131	28889.67
578.329	28889.67
578.527	28555.85
578.725	28514.89
578.923	28914.25
579.121	28645.96
579.319	28652.11
579.516	28719.69
579.714	28547.66
579.912	28246.61
580.11	28402.25
580.308	27974.23
580.506	28023.38
580.704	27918.93
580.901	28095.06
581.099	28310.1
581.297	27947.61
581.495	27802.2
581.692	27830.87
581.89	27634.27
582.088	27714.14
582.285	27695.71
582.483	27550.3
582.681	27361.89
582.878	27333.21
583.076	27189.86
583.274	27382.37
583.471	27126.37
583.669	27220.58
583.866	26593.9
584.064	26923.62
584.262	26741.35
584.459	26708.58
584.657	26526.32
584.854	26964.58
585.052	26458.73
585.249	26544.75
585.447	26262.13
585.644	26387.05
585.841	26192.5
586.039	26514.03
586.236	26264.18
586.434	26260.08
586.631	25913.97
586.828	25901.68
587.026	25950.84
587.223	25873.01
587.42	25834.1
587.618	25905.78
587.815	25371.26
588.012	25309.82
588.21	25655.93
588.407	25817.72
588.604	25498.23
588.801	25064.07
588.999	25383.55
589.196	25289.34
589.393	25139.84
589.59	25102.98
589.787	24937.09
589.984	24795.78
590.182	24992.39
590.379	24916.61
590.576	24322.7
590.773	24732.29
590.97	24535.69
591.167	24806.02
591.364	24105.62
591.561	24199.82
591.758	24353.42
591.955	24181.39
592.152	24453.77
592.349	23820.95
592.546	24058.51
592.743	24191.63
592.94	23526.04
593.137	23855.76
593.334	24177.3
593.531	23452.31
593.727	23898.77
593.924	23661.21
594.121	23108.26
594.318	23442.07
594.515	23268
594.712	23448.22
594.908	23141.02
595.105	23188.13
595.302	23216.8
595.499	23104.16
595.696	23069.34
595.892	22811.3
596.089	23212.7
596.286	22678.18
596.482	22717.09
596.679	22823.59
596.876	22397.61
597.072	22758.05
597.269	22678.18
597.466	22397.61
597.662	22268.59
597.859	22327.98
598.055	22665.89
598.252	22176.43
598.448	22248.11
598.645	22250.16
598.841	22092.46
599.038	22004.4
599.234	22137.52
599.431	21754.55
599.627	21738.16
599.824	21775.03
600.02	21457.59
600.217	21447.35
600.413	21537.46
600.609	21289.66
600.806	21105.34
601.002	21291.71
601.198	21246.65
601.395	21000.9
601.591	20980.42
601.787	21050.05
601.984	21136.06
602.18	21009.09
602.376	21091.01
602.572	20458.18
602.769	20658.88
602.965	20349.64
603.161	20513.48
603.357	20320.97
603.553	20478.66
603.75	20464.33
603.946	20208.33
604.142	20400.84
604.338	19841.75
604.534	20198.09
604.73	20148.94
604.926	19927.76
605.122	20075.21
605.318	20130.51
605.514	20034.25
605.71	19698.39
605.906	19940.05
606.102	19720.92
606.298	19745.49
606.494	19581.65
606.69	19565.27
606.886	19682
607.082	19460.82
607.278	19497.69
607.474	19124.96
607.67	19331.8
607.866	19124.96
608.062	19325.66
608.257	19272.41
608.453	19339.99
608.649	19206.87
608.845	19335.9
609.041	19055.33
609.236	19346.14
609.432	19196.64
609.628	19120.86
609.824	18916.06
610.019	18944.73
610.215	18799.33
610.411	18942.69
610.606	18883.3
610.802	18735.84
610.998	18715.36
611.193	18539.24
611.389	18723.55
611.584	18623.2
611.78	18440.93
611.976	18610.92
612.171	18627.3
612.367	18553.57
612.562	18408.17
612.758	18250.47
612.953	18164.46
613.149	18549.48
613.344	18586.34
613.539	18205.42
613.735	18178.79
613.93	18125.55
614.126	18389.74
614.321	18203.37
614.517	18289.38
614.712	18008.81
614.907	18141.93
615.103	18012.91
615.298	18025.2
615.493	18029.29
615.688	17912.56
615.884	18195.18
616.079	17662.71
616.274	17990.38
616.47	17797.87
616.665	17674.99
616.86	17726.19
617.055	17853.17
617.25	17646.32
617.445	17701.62
617.641	17289.98
617.836	17623.8
618.031	17201.91
618.226	17283.83
618.421	17269.5
618.616	17443.57
618.811	16859.9
619.006	17380.09
619.201	16851.71
619.396	17122.04
619.591	16999.16
619.786	17058.56
619.981	16628.48
620.176	16777.98
620.371	16577.28
620.566	16927.49
620.761	16507.65
620.956	16718.59
621.151	16403.21
621.346	16661.25
621.541	16108.3
621.735	16517.89
621.93	16335.62
622.125	16005.9
622.32	15848.21
622.515	15827.73
622.709	15852.3
622.904	15678.22
623.099	15846.16
623.294	15688.46
623.488	15336.21
623.683	15536.91
623.878	15520.53
624.072	15457.04
624.267	15272.73
624.462	15119.13
624.656	15061.79
624.851	15141.66
625.046	14902.04
625.24	14750.49
625.435	14535.46
625.629	14744.35
625.824	14650.14
626.018	14553.89
626.213	14250.79
626.407	14394.15
626.602	14224.17
626.796	14265.13
626.991	14230.31
627.185	14193.45
627.38	14011.18
627.574	14084.91
627.768	13689.65
627.963	13853.48
628.157	13456.18
628.352	13534
628.546	13437.75
628.74	13624.11
628.935	13239.09
629.129	13374.26
629.323	13069.11
629.517	13087.54
629.712	13114.17
629.906	13091.64
630.1	12753.73
630.294	12956.47
630.489	12653.37
630.683	12843.84
630.877	12538.69
631.071	12389.19
631.265	12849.98
631.459	12544.83
631.653	12575.55
631.848	12288.84
632.042	12231.49
632.236	12428.1
632.43	12143.43
632.624	12301.12
632.818	11944.78
633.012	11934.54
633.206	11873.1
633.4	11936.59
633.594	11750.22
633.788	11889.48
633.982	11830.09
634.176	11809.61
634.369	11526.99
634.563	11381.59
634.757	11434.83
634.951	11742.03
635.145	11463.51
635.339	11217.75
635.533	11354.96
635.726	11141.97
635.92	11070.3
636.114	11047.77
636.308	10955.61
636.501	11027.29
636.695	10922.84
636.889	10779.48
637.083	10867.55
637.276	10691.42
637.47	10595.17
637.664	10699.61
637.857	10724.19
638.051	10734.43
638.244	10416.99
638.438	10347.36
638.632	10398.56
638.825	10259.3
639.019	10183.52
639.212	10134.37
639.406	10126.18
639.599	10249.06
639.793	10138.47
639.986	9900.9
640.18	9882.47
640.373	9868.14
640.567	9845.61
640.76	9739.12
640.954	9665.39
641.147	9683.82
641.34	9585.52
641.534	9470.83
641.727	9724.78
641.92	9470.83
642.114	9399.15
642.307	9378.67
642.5	9364.34
642.694	9190.26
642.887	9315.19
643.08	9175.92
643.273	8983.41
643.467	9280.37
643.66	8784.76
643.853	9151.35
644.046	8962.94
644.239	8881.02
644.432	8862.58
644.626	8745.85
644.819	8956.79
645.012	8573.82
645.205	8625.02
645.398	8686.46
645.591	8536.96
645.784	8409.98
645.977	8420.22
646.17	8446.85
646.363	8414.08
646.556	8186.76
646.749	8389.5
646.942	8397.7
647.135	8332.16
647.328	8133.51
647.521	8203.14
647.714	8053.64
647.907	8129.41
648.099	7957.38
648.292	7891.85
648.485	8102.79
648.678	7799.69
648.871	7814.02
649.064	7756.68
649.256	7701.39
649.449	7783.31
649.642	7664.52
649.835	7652.24
650.027	7605.13
650.22	7498.64
650.413	7545.74
650.605	7500.69
650.798	7523.21
650.991	7521.17
651.183	7242.64
651.376	7308.18
651.568	7312.27
651.761	7406.48
651.954	7271.31
652.146	7205.78
652.339	7213.97
652.531	7207.83
652.724	7080.85
652.916	6994.84
653.109	6884.25
653.301	6892.44
653.494	6998.93
653.686	6824.86
653.879	6884.25
654.071	6787.99
654.263	6699.93
654.456	6962.07
654.648	6624.15
654.84	6712.22
655.033	6609.82
655.225	6523.8
655.417	6767.51
655.61	6589.34
655.802	6478.75
655.994	6374.3
656.186	6433.69
656.379	6431.65
656.571	6407.07
656.763	6181.79
656.955	6284.19
657.148	6423.45
657.34	6366.11
657.532	6138.79
657.724	6167.46
657.916	6241.18
658.108	6030.24
658.3	6204.32
658.492	6103.97
658.684	6005.67
658.876	5878.69
659.068	5831.59
659.26	6089.64
659.452	6032.29
659.644	6007.72
659.836	5960.61
660.028	5673.9
660.22	5735.34
660.412	5759.91
660.604	5725.1
660.796	5788.58
660.988	5663.66
661.18	5559.21
661.372	5639.08
661.563	5551.02
661.755	5632.94
661.947	5475.24
662.139	5440.43
662.331	5417.9
662.522	5407.66
662.714	5360.56
662.906	5401.52
663.097	5366.7
663.289	5149.62
663.481	5432.24
663.673	5335.98
663.864	5137.33
664.056	5090.23
664.247	5172.15
664.439	5194.67
664.631	5168.05
664.822	5104.56
665.014	5125.04
665.205	5022.64
665.397	5047.22
665.588	5108.66
665.78	5110.71
665.971	5104.56
666.163	5053.36
666.354	4936.63
666.546	4838.33
666.737	4744.12
666.929	4885.43
667.12	4934.58
667.311	4772.79
667.503	4600.76
667.694	4737.98
667.885	4651.96
668.077	4744.12
668.268	4604.86
668.459	4514.75
668.651	4621.24
668.842	4750.26
669.033	4598.71
669.224	4539.32
669.416	4746.17
669.607	4492.22
669.798	4484.03
669.989	4539.32
670.18	4570.04
670.371	4553.66
670.563	4522.94
670.754	4471.74
670.945	4441.02
671.136	4510.65
671.327	4461.5
671.518	4422.59
671.709	4420.54
671.9	4250.56
672.091	4234.18
672.282	4371.39
672.473	4309.95
672.664	4340.67
672.855	4268.99
673.046	4189.12
673.237	4432.83
673.428	4254.66
673.619	4148.16
673.809	4156.35
674	4180.93
674.191	4084.67
674.382	4062.15
674.573	4066.24
674.764	4029.38
674.954	4137.92
675.145	4066.24
675.336	4080.58
675.527	3918.79
675.717	4039.62
675.908	3951.56
676.099	4025.28
676.289	3931.08
676.48	3826.63
676.671	3929.03
676.861	4000.71
677.052	3793.86
677.243	3945.41
677.433	3853.25
677.624	3943.36
677.814	3941.32
678.005	3822.53
678.195	4023.23
678.386	3912.64
678.576	3824.58
678.767	3634.12
678.957	3699.66
679.148	3779.53
679.338	3769.29
679.529	3691.46
679.719	3662.79
679.909	3814.34
680.1	3679.18
680.29	3736.52
680.481	3681.22
680.671	3630.02
680.861	3670.98
681.052	3623.88
681.242	3625.93
681.432	3658.7
681.622	3793.86
681.813	3734.47
682.003	3568.59
682.193	3621.83
682.383	3697.61
682.573	3478.47
682.764	3607.5
682.954	3494.86
683.144	3501
683.334	3478.47
683.524	3527.63
683.714	3646.41
683.904	3408.84
684.094	3445.71
684.284	3578.83
684.474	3613.64
684.664	3476.43
684.854	3558.35
685.044	3582.92
685.234	3341.26
685.424	3453.9
685.614	3421.13
685.804	3568.59
685.994	3410.89
686.184	3478.47
686.374	3472.33
686.564	3423.18
686.753	3306.45
686.943	3245.01
687.133	3216.33
687.323	3285.97
687.513	3400.65
687.702	3271.63
687.892	3261.39
688.082	3222.48
688.272	3253.2
688.461	3220.43
688.651	3222.48
688.841	3245.01
689.03	3156.94
689.22	3130.32
689.41	3142.61
689.599	3181.52
689.789	3181.52
689.979	3228.62
690.168	3048.4
690.358	3101.65
690.547	3056.59
690.737	3083.22
690.926	3089.36
691.116	3056.59
691.305	3148.75
691.495	3136.46
691.684	3001.3
691.874	3005.39
692.063	3064.79
692.252	2909.14
692.442	2880.47
692.631	2870.23
692.82	2952.15
693.01	2991.06
693.199	2761.69
693.388	2933.72
693.578	2810.84
693.767	2991.06
693.956	2843.6
694.146	2819.03
694.335	2780.12
694.524	2859.99
694.713	2845.65
694.902	2825.17
695.092	2894.8
695.281	2714.58
695.47	2745.3
695.659	2704.34
695.848	2704.34
696.037	2642.9
696.226	2745.3
696.415	2714.58
696.604	2765.78
696.793	2704.34
696.982	2649.05
697.171	2628.57
697.36	2704.34
697.549	2718.68
697.738	2630.62
697.927	2634.71
698.116	2622.42
698.305	2528.22
698.494	2581.46
698.683	2726.87
698.872	2595.8
699.061	2761.69
699.25	2757.59
699.438	2587.61
699.627	2649.05
699.816	2644.95
700.005	2589.66
700.193	2552.79
700.382	2634.71
700.571	2585.56
700.76	2542.55
700.948	2505.69
701.137	2560.98
701.326	2614.23
701.514	2477.02
701.703	2577.37
701.892	2470.87
702.08	2573.27
702.269	2589.66
702.457	2526.17
702.646	2556.89
702.834	2532.31
703.023	2460.63
703.212	2583.51
703.4	2485.21
703.589	2495.45
703.777	2450.39
703.965	2395.1
704.154	2450.39
704.342	2491.35
704.531	2491.35
704.719	2407.39
704.907	2571.22
705.096	2403.29
705.284	2348
705.472	2438.11
705.661	2446.3
705.849	2403.29
706.037	2458.59
706.226	2444.25
706.414	2501.59
706.602	2401.24
706.79	2358.24
706.979	2440.15
707.167	2370.52
707.355	2384.86
707.543	2448.35
707.731	2417.63
707.919	2360.28
708.107	2358.24
708.296	2368.48
708.484	2466.78
708.672	2431.96
708.86	2323.42
709.048	2335.71
709.236	2401.24
709.424	2360.28
709.612	2345.95
709.8	2253.79
709.988	2403.29
710.176	2323.42
710.364	2362.33
710.551	2356.19
710.739	2368.48
710.927	2278.37
711.115	2288.61
711.303	2454.49
711.491	2296.8
711.679	2315.23
711.866	2335.71
712.054	2348
712.242	2212.83
712.43	2319.32
712.617	2327.52
712.805	2356.19
712.993	2286.56
713.181	2214.88
713.368	2268.13
713.556	2393.05
713.744	2221.02
713.931	2323.42
714.119	2245.6
714.306	2335.71
714.494	2319.32
714.682	2339.8
714.869	2292.7
715.057	2259.93
715.244	2253.79
715.432	2307.04
715.619	2354.14
715.807	2235.36
715.994	2221.02
716.182	2247.65
716.369	2345.95
716.556	2272.22
716.744	2151.39
716.931	2337.76
717.119	2274.27
717.306	2223.07
717.493	2227.17
717.681	2196.45
717.868	2188.25
718.055	2255.84
718.242	2212.83
718.43	2247.65
718.617	2321.37
718.804	2196.45
718.991	2307.04
719.179	2276.32
719.366	2223.07
719.553	2225.12
719.74	2270.17
719.927	2268.13
720.114	2294.75
720.301	2184.16
720.488	2218.97
720.676	2118.62
720.863	2163.68
721.05	2319.32
721.237	2171.87
721.424	2223.07
721.611	2337.76
721.798	2114.53
721.985	2155.49
722.172	2184.16
722.358	2223.07
722.545	2204.64
722.732	2202.59
722.919	2204.64
723.106	2270.17
723.293	2151.39
723.48	2167.77
723.667	2073.57
723.853	2182.11
724.04	2180.06
724.227	2032.61
724.414	2180.06
724.6	2100.19
724.787	2198.49
724.974	2221.02
725.161	2173.92
725.347	2151.39
725.534	2259.93
725.72	2065.38
725.907	2165.73
726.094	2257.89
726.28	2092
726.467	2081.76
726.653	2204.64
726.84	2116.58
727.027	2255.84
727.213	2069.47
727.4	2157.54
727.586	2214.88
727.773	2180.06
727.959	2139.1
728.145	2147.3
728.332	2165.73
728.518	2161.63
728.705	2147.3
728.891	2083.81
729.077	2092
729.264	2063.33
729.45	2018.27
729.636	2122.72
729.823	2239.45
730.009	2112.48
730.195	2202.59
730.382	2167.77
730.568	2098.14
730.754	2069.47
730.94	2055.14
731.126	2198.49
731.313	2077.66
731.499	1971.17
731.685	2126.82
731.871	2167.77
732.057	2221.02
732.243	2204.64
732.429	1975.27
732.615	2130.91
732.801	2135.01
732.987	2100.19
733.173	2157.54
733.359	2130.91
733.545	2051.04
733.731	2077.66
733.917	2175.97
734.103	2110.43
734.289	2024.42
734.475	2122.72
734.661	2184.16
734.847	2063.33
735.033	2147.3
735.219	2010.08
735.404	1999.84
735.59	2010.08
735.776	2106.34
735.962	2096.1
736.148	2132.96
736.333	2114.53
736.519	2008.03
736.705	2010.08
736.89	2038.75
737.076	1985.51
737.262	2122.72
737.447	2053.09
737.633	2026.47
737.819	2130.91
738.004	2118.62
738.19	2120.67
738.375	1979.36
738.561	1973.22
738.747	1969.12
738.932	1973.22
739.118	1983.46
739.303	2034.66
739.489	1975.27
739.674	2012.13
739.859	1991.65
740.045	2016.23
740.23	1956.83
740.416	1868.77
740.601	1991.65
740.786	2036.7
740.972	1975.27
741.157	1942.5
741.342	1905.63
741.528	1934.31
741.713	1960.93
741.898	1858.53
742.084	1993.7
742.269	1913.83
742.454	1903.59
742.639	1879.01
742.824	1985.51
743.01	1995.75
743.195	1911.78
743.38	1909.73
743.565	1883.11
743.75	1889.25
743.935	1844.2
744.12	1844.2
744.305	1797.09
744.49	1848.29
744.675	1887.2
744.86	1774.56
745.045	1764.33
745.23	1772.52
745.415	1770.47
745.6	1807.33
745.785	1813.48
745.97	1827.81
746.155	1819.62
746.34	1700.84
746.525	1770.47
746.71	1817.57
746.895	1688.55
747.079	1737.7
747.264	1766.37
747.449	1729.51
747.634	1661.93
747.819	1623.02
748.003	1655.78
748.188	1504.23
748.373	1563.62
748.557	1655.78
748.742	1672.17
748.927	1690.6
749.111	1625.06
749.296	1602.54
749.481	1561.58
749.665	1569.77
749.85	1549.29
750.034	1563.62
750.219	1537
750.404	1565.67
750.588	1565.67
750.773	1483.75
750.957	1559.53
751.141	1450.99
751.326	1530.86
751.51	1342.44
751.695	1461.23
751.879	1479.66
752.064	1541.1
752.248	1500.14
752.432	1410.03
752.617	1383.4
752.801	1362.92
752.985	1364.97
753.17	1397.74
753.354	1344.49
753.538	1475.56
753.722	1369.07
753.907	1328.11
754.091	1328.11
754.275	1287.15
754.459	1311.72
754.643	1289.2
754.828	1264.62
755.012	1211.37
755.196	1307.63
755.38	1295.34
755.564	1287.15
755.748	1291.24
755.932	1188.85
756.116	1201.13
756.3	1225.71
756.484	1238
756.668	1285.1
756.852	1203.18
757.036	1186.8
757.22	1238
757.404	1090.54
757.588	1229.81
757.772	1233.9
757.956	1215.47
758.14	1172.46
758.323	1123.31
758.507	1111.02
758.691	1176.56
758.875	1088.5
759.059	1174.51
759.242	1104.88
759.426	1065.97
759.61	1014.77
759.794	1123.31
759.977	1125.36
760.161	1141.74
760.345	1147.89
760.528	1065.97
760.712	1084.4
760.895	947.19
761.079	1059.82
761.263	918.51
761.446	1051.63
761.63	1027.06
761.813	992.24
761.997	1020.91
762.18	1000.43
762.364	1025.01
762.547	926.71
762.731	1043.44
762.914	959.47
763.098	963.57
763.281	898.03
763.464	928.75
763.648	943.09
763.831	963.57
764.015	959.47
764.198	838.64
764.381	869.36
764.564	912.37
764.748	914.42
764.931	1016.82
765.114	955.38
765.297	922.61
765.481	877.55
765.664	848.88
765.847	920.56
766.03	986.1
766.213	932.85
766.397	871.41
766.58	885.75
766.763	955.38
766.946	814.07
767.129	836.6
767.312	820.21
767.495	789.49
767.678	910.32
767.861	840.69
768.044	818.16
768.227	844.79
768.41	822.26
768.593	930.8
768.776	842.74
768.959	820.21
769.142	893.94
769.324	760.82
769.507	799.73
769.69	840.69
769.873	750.58
770.056	865.27
770.239	918.51
770.421	824.31
770.604	791.54
770.787	674.81
770.97	812.02
771.152	777.2
771.335	730.1
771.518	711.67
771.7	773.11
771.883	789.49
772.066	789.49
772.248	738.29
772.431	766.96
772.613	668.66
772.796	699.38
772.978	732.15
773.161	750.58
773.343	799.73
773.526	775.16
773.708	705.53
773.891	689.14
774.073	666.61
774.256	611.32
774.438	740.34
774.621	639.99
774.803	750.58
774.985	685.05
775.168	676.85
775.35	670.71
775.532	676.85
775.715	621.56
775.897	580.6
776.079	637.94
776.261	660.47
776.444	662.52
776.626	672.76
776.808	650.23
776.99	660.47
777.173	621.56
777.355	646.13
777.537	609.27
777.719	676.85
777.901	562.17
778.083	713.72
778.265	535.54
778.447	611.32
778.629	562.17
778.811	578.55
778.993	615.41
779.175	627.7
779.357	521.21
779.539	525.3
779.721	570.36
779.903	513.02
780.085	582.65
780.267	531.45
780.449	562.17
780.631	556.02
780.812	510.97
780.994	492.54
781.176	500.73
781.358	465.91
781.54	504.82
781.721	484.34
781.903	515.06
782.085	459.77
782.267	533.5
782.448	433.15
782.63	486.39
782.812	455.67
782.993	451.58
783.175	537.59
783.357	377.85
783.538	461.82
783.72	396.28
783.901	494.58
784.083	445.43
784.264	488.44
784.446	465.91
784.627	369.66
784.809	422.91
784.99	429.05
785.172	320.51
785.353	410.62
785.535	410.62
785.716	402.43
785.897	410.62
786.079	457.72
786.26	394.23
786.441	435.19
786.623	463.86
786.804	379.9
786.985	492.54
787.167	441.34
787.348	394.23
787.529	414.71
787.71	400.38
787.891	408.57
788.073	336.89
788.254	369.66
788.435	402.43
788.616	240.64
788.797	394.23
788.978	322.56
789.159	250.88
789.34	363.51
789.522	402.43
789.703	320.51
789.884	320.51
790.065	443.39
790.246	441.34
790.427	394.23
790.607	345.08
790.788	326.65
790.969	295.93
791.15	343.03
791.331	320.51
791.512	273.4
791.693	281.6
791.874	306.17
792.054	349.18
792.235	328.7
792.416	271.36
792.597	287.74
792.778	340.99
792.958	271.36
793.139	242.68
793.32	257.02
793.5	175.1
793.681	312.32
793.862	214.01
794.042	316.41
794.223	297.98
794.404	224.25
794.584	248.83
794.765	263.16
794.945	240.64
795.126	300.03
795.306	263.16
795.487	371.71
795.667	173.05
795.848	273.4
796.028	259.07
796.209	222.2
796.389	263.16
796.57	259.07
796.75	242.68
796.93	304.12
797.111	197.63
797.291	232.44
797.471	285.69
797.652	279.55
797.832	240.64
798.012	295.93
798.192	168.96
798.373	232.44
798.553	175.1
798.733	254.97
798.913	173.05
799.093	177.15
799.274	230.4
799.454	222.2
799.634	177.15
799.814	238.59
799.994	244.73
800.174	295.93
800.354	230.4
800.534	177.15
800.714	252.92
800.894	156.67
801.074	205.82
801.254	248.83
801.434	183.29
801.614	222.2
801.794	168.96
801.974	738.29
802.154	201.72
802.334	283.64
802.514	173.05
802.693	254.97
802.873	189.44
803.053	222.2
803.233	142.33
803.413	246.78
803.592	224.25
803.772	191.49
803.952	150.53
804.131	238.59
804.311	248.83
804.491	234.49
804.67	95.23
804.85	189.44
805.03	185.34
805.209	187.39
805.389	189.44
805.568	164.86
805.748	130.05
805.928	111.61
806.107	187.39
806.287	164.86
806.466	179.2
806.646	123.9
806.825	199.68
807.004	199.68
807.184	199.68
807.363	230.4
807.543	134.14
807.722	154.62
807.901	175.1
808.081	226.3
808.26	166.91
808.439	181.25
808.619	173.05
808.798	175.1
808.977	226.3
809.156	181.25
809.336	220.16
809.515	189.44
809.694	185.34
809.873	214.01
810.052	144.38
810.231	166.91
810.411	82.94
810.59	181.25
810.769	191.49
810.948	209.92
811.127	130.05
811.306	125.95
811.485	89.09
811.664	173.05
811.843	144.38
812.022	156.67
812.201	74.75
812.38	123.9
812.559	175.1
812.737	76.8
812.916	52.22
813.095	160.77
813.274	117.76
813.453	160.77
813.632	136.19
813.811	175.1
813.989	136.19
814.168	214.01
814.347	66.56
814.526	140.29
814.704	150.53
814.883	277.5
815.062	82.94
815.24	156.67
815.419	80.89
815.598	144.38
815.776	107.52
815.955	211.96
816.133	164.86
816.312	205.82
816.49	41.98
816.669	181.25
816.847	130.05
817.026	119.81
817.204	91.13
817.383	123.9
817.561	109.57
817.74	136.19
817.918	93.18
818.097	164.86
818.275	156.67
818.453	144.38
818.632	140.29
818.81	121.85
818.988	160.77
819.167	150.53
819.345	132.09
819.523	113.66
819.701	109.57
819.879	103.42
820.058	89.09
820.236	105.47
820.414	103.42
820.592	82.94
820.77	123.9
820.948	123.9
821.127	74.75
821.305	60.42
821.483	68.61
821.661	201.72
821.839	119.81
822.017	101.37
822.195	125.95
822.373	123.9
822.551	44.03
822.729	158.72
822.907	62.46
823.085	117.76
823.262	107.52
823.44	33.79
823.618	78.85
823.796	95.23
823.974	154.62
824.152	123.9
824.329	68.61
824.507	123.9
824.685	78.85
824.863	74.75
825.04	37.89
825.218	78.85
825.396	109.57
825.574	103.42
825.751	115.71
825.929	115.71
826.107	29.7
826.284	136.19
826.462	115.71
826.639	115.71
826.817	136.19
826.994	154.62
827.172	111.61
827.349	68.61
827.527	148.48
827.704	76.8
827.882	74.75
828.059	52.22
828.237	29.7
828.414	156.67
828.591	50.18
828.769	140.29
828.946	113.66
829.124	152.57
829.301	74.75
829.478	9.22
829.655	148.48
829.833	76.8
830.01	25.6
830.187	123.9
830.364	132.09
830.542	95.23
830.719	191.49
830.896	136.19
831.073	160.77
831.25	115.71
831.427	58.37
831.604	107.52
831.782	3.07
831.959	41.98
832.136	82.94
832.313	50.18
832.49	54.27
832.667	125.95
832.844	54.27
833.021	76.8
833.198	103.42
833.374	84.99
833.551	107.52
833.728	66.56
833.905	82.94
834.082	19.46
834.259	56.32
834.436	17.41
834.612	46.08
834.789	111.61
834.966	99.33
835.143	9.22
835.319	84.99
835.496	84.99
835.673	41.98
835.85	74.75
836.026	148.48
836.203	89.09
836.38	74.75
836.556	25.6
836.733	-21.5
836.909	41.98
837.086	-39.94
837.262	3.07
837.439	115.71
837.616	115.71
837.792	39.94
837.968	62.46
838.145	-15.36
838.321	50.18
838.498	27.65
838.674	76.8
838.851	60.42
839.027	3.07
839.203	115.71
839.38	95.23
839.556	76.8
839.732	37.89
839.909	54.27
840.085	52.22
840.261	31.74
840.437	78.85
840.614	9.22
840.79	54.27
840.966	48.13
841.142	29.7
841.318	101.37
841.494	1.02
841.671	48.13
841.847	29.7
842.023	17.41
842.199	29.7
842.375	125.95
842.551	11.26
842.727	25.6
842.903	82.94
843.079	29.7
843.255	99.33
843.431	50.18
843.607	93.18
843.783	5.12
843.959	66.56
844.134	9.22
844.31	29.7
844.486	13.31
844.662	115.71
844.838	7.17
845.013	109.57
845.189	99.33
845.365	82.94
845.541	27.65
845.716	17.41
845.892	119.81
846.068	44.03
846.244	33.79
846.419	11.26
846.595	95.23
846.77	91.13
846.946	50.18
847.122	93.18
847.297	76.8
847.473	107.52
847.648	78.85
847.824	113.66
847.999	44.03
848.175	66.56
848.35	54.27
848.526	62.46
848.701	74.75
848.876	64.51
849.052	9.22
849.227	29.7
849.403	27.65
849.578	21.5
849.753	66.56
849.929	74.75
850.104	1.02
850.279	33.79
850.454	41.98
850.63	41.98
850.805	48.13
850.98	44.03
851.155	52.22
851.33	56.32
851.505	76.8
851.681	54.27
851.856	48.13
852.031	29.7
852.206	-7.17
852.381	19.46
852.556	-7.17
852.731	84.99
852.906	19.46
853.081	68.61
853.256	1.02
853.431	9.22
853.606	113.66
853.781	41.98
853.956	13.31
854.131	74.75
854.305	27.65
854.48	52.22
854.655	-60.42
854.83	84.99
855.005	5.12
855.18	19.46
855.354	74.75
855.529	56.32
855.704	-23.55
855.879	19.46
856.053	5.12
856.228	64.51
856.403	5.12
856.577	19.46
856.752	7.17
856.926	-31.74
857.101	37.89
857.276	125.95
857.45	-44.03
857.625	-5.12
857.799	9.22
857.974	58.37
858.148	27.65
858.323	123.9
858.497	9.22
858.672	99.33
858.846	11.26
859.02	33.79
859.195	-39.94
859.369	-5.12
859.543	27.65
859.718	-64.51
859.892	74.75
860.066	97.28
860.241	-15.36
860.415	56.32
860.589	25.6
860.763	29.7
860.938	17.41
861.112	109.57
861.286	19.46
861.46	119.81
861.634	19.46
861.808	66.56
861.982	25.6
862.157	-27.65
862.331	33.79
862.505	21.5
862.679	25.6
862.853	52.22
863.027	-9.22
863.201	91.13
863.375	-64.51
863.549	-11.26
863.722	25.6
863.896	93.18
864.07	37.89
864.244	13.31
864.418	7.17
864.592	11.26
864.766	-23.55
864.939	-31.74
865.113	-17.41
865.287	25.6
865.461	9.22
865.634	9.22
865.808	25.6
865.982	-17.41
866.156	-5.12
866.329	-23.55
866.503	1.02
866.676	60.42
866.85	33.79
867.024	-70.65
867.197	21.5
867.371	50.18
867.544	9.22
867.718	-9.22
867.891	95.23
868.065	-25.6
868.238	5.12
868.412	74.75
868.585	-15.36
868.759	-35.84
868.932	82.94
869.105	17.41
869.279	41.98
869.452	60.42
869.625	44.03
869.799	-15.36
869.972	9.22
870.145	31.74
870.319	-21.5
870.492	21.5
870.665	46.08
870.838	7.17
871.011	-72.7
871.185	-37.89
871.358	-21.5
871.531	66.56
871.704	41.98
871.877	13.31
872.05	82.94
872.223	19.46
872.396	33.79
872.569	41.98
872.742	-80.89
872.915	29.7
873.088	17.41
873.261	52.22
873.434	29.7
873.607	46.08
873.78	7.17
873.953	70.65
874.126	37.89
874.299	76.8
874.471	9.22
874.644	44.03
874.817	13.31
874.99	44.03
875.163	-3.07
875.335	68.61
875.508	-23.55
875.681	27.65
875.853	-3.07
876.026	74.75
876.199	27.65
876.371	62.46
876.544	46.08
876.717	76.8
876.889	11.26
877.062	3.07
877.234	-19.46
877.407	37.89
877.579	-5.12
877.752	1.02
877.924	-39.94
878.097	39.94
878.269	-44.03
878.442	9.22
878.614	-31.74
878.786	-46.08
878.959	60.42
879.131	15.36
879.303	-62.46
879.476	9.22
879.648	132.09
879.82	54.27
879.993	-9.22
880.165	27.65
880.337	-39.94
880.509	68.61
880.681	-37.89
880.854	-23.55
881.026	27.65
881.198	60.42
881.37	-7.17
881.542	-60.42
881.714	50.18
881.886	62.46
882.058	21.5
882.23	19.46
882.402	-33.79
882.574	13.31
882.746	44.03
882.918	-15.36
883.09	-3.07
883.262	27.65
883.434	33.79
883.606	-25.6
883.778	-7.17
883.95	91.13
884.122	-23.55
884.293	52.22
884.465	60.42
884.637	25.6
884.809	-15.36
884.98	52.22
885.152	9.22
885.324	17.41
885.496	68.61
885.667	-64.51
885.839	70.65
886.011	23.55
886.182	17.41
886.354	39.94
886.525	-39.94
886.697	-7.17
886.869	-15.36
887.04	-9.22
887.212	29.7
887.383	13.31
887.555	17.41
887.726	27.65
887.897	-21.5
888.069	41.98
888.24	15.36
888.412	3.07
888.583	3.07
888.754	3.07
888.926	-123.9
889.097	-5.12
889.268	33.79
889.44	9.22
889.611	64.51
889.782	21.5
889.953	-84.99
890.125	17.41
890.296	-9.22
890.467	3.07
890.638	-41.98
890.809	41.98
890.98	-31.74
891.151	99.33
891.323	72.7
891.494	76.8
891.665	37.89
891.836	48.13
892.007	41.98
892.178	11.26
892.349	48.13
892.52	-9.22
892.691	-31.74
892.862	-7.17
893.032	-46.08
893.203	64.51
893.374	-31.74
893.545	70.65
893.716	3.07
893.887	48.13
894.057	-27.65
894.228	9.22
894.399	-52.22
894.57	-31.74
894.74	25.6
894.911	52.22
895.082	21.5
895.253	19.46
895.423	-46.08
895.594	46.08
895.764	-15.36
895.935	-1.02
896.106	-41.98
896.276	17.41
896.447	-48.13
896.617	-15.36
896.788	41.98
896.958	-31.74
897.129	5.12
897.299	84.99
897.47	41.98
897.64	46.08
897.81	-23.55
897.981	7.17
898.151	33.79
898.322	21.5
898.492	-9.22
898.662	39.94
898.832	17.41
899.003	17.41
899.173	62.46
899.343	27.65
899.513	-60.42
