Data from USB4F104151__115__14-18-20-413.txt Node

Date: Thu Mar 13 14:18:20 EDT 2025
User: louis
Spectrometer: USB4F10415
Trigger mode: 4
Integration Time (sec): 2.000000E-2
Scans to average: 1
Electric dark correction enabled: true
Nonlinearity correction enabled: false
Boxcar width: 0
XAxis mode: Wavelengths
Number of Pixels in Spectrum: 3648
>>>>>Begin Spectral Data<<<<<
178.204	-107.69
178.424	-107.69
178.644	-107.69
178.864	-95.4
179.084	-183.46
179.304	-31.91
179.524	-3.24
179.744	33.62
179.964	-5.29
180.184	-52.39
180.404	70.48
180.624	2.9
180.844	13.14
181.064	-101.55
181.283	109.4
181.503	-76.97
181.723	41.81
181.943	31.57
182.163	37.72
182.383	21.33
182.602	45.91
182.822	58.2
183.042	70.48
183.262	13.14
183.482	47.96
183.701	45.91
183.921	19.29
184.141	-66.73
184.361	68.44
184.58	-13.48
184.8	21.33
185.02	62.29
185.239	52.05
185.459	95.06
185.679	50
185.898	72.53
186.118	41.81
186.338	62.29
186.557	41.81
186.777	54.1
186.997	-7.34
187.216	-56.49
187.436	74.58
187.655	33.62
187.875	56.15
188.095	56.15
188.314	78.68
188.534	-9.39
188.753	-27.82
188.973	-33.96
189.192	80.72
189.412	-9.39
189.631	29.52
189.851	111.44
190.07	95.06
190.29	11.09
190.509	86.87
190.729	88.92
190.948	15.19
191.168	131.92
191.387	103.25
191.607	35.67
191.826	-1.19
192.045	15.19
192.265	7
192.484	21.33
192.704	64.34
192.923	21.33
193.142	154.45
193.362	86.87
193.581	136.02
193.8	35.67
194.02	54.1
194.239	-7.34
194.458	64.34
194.678	52.05
194.897	72.53
195.116	54.1
195.335	29.52
195.555	66.39
195.774	62.29
195.993	56.15
196.212	80.72
196.432	-50.35
196.651	-17.58
196.87	64.34
197.089	60.24
197.308	33.62
197.528	21.33
197.747	27.48
197.966	4.95
198.185	60.24
198.404	21.33
198.623	72.53
198.842	21.33
199.062	39.76
199.281	29.52
199.5	-44.2
199.719	23.38
199.938	95.06
200.157	54.1
200.376	138.07
200.595	72.53
200.814	-40.11
201.033	50
201.252	13.14
201.471	-25.77
201.69	4.95
201.909	103.25
202.128	66.39
202.347	-3.24
202.566	64.34
202.785	39.76
203.004	-13.48
203.223	29.52
203.442	47.96
203.661	74.58
203.879	2.9
204.098	82.77
204.317	-56.49
204.536	82.77
204.755	35.67
204.974	70.48
205.193	80.72
205.411	88.92
205.63	101.2
205.849	-15.53
206.068	13.14
206.287	-11.43
206.505	82.77
206.724	43.86
206.943	-3.24
207.162	29.52
207.381	35.67
207.599	47.96
207.818	15.19
208.037	52.05
208.255	80.72
208.474	37.72
208.693	-7.34
208.911	52.05
209.13	29.52
209.349	70.48
209.567	45.91
209.786	119.64
210.005	19.29
210.223	13.14
210.442	37.72
210.661	66.39
210.879	33.62
211.098	56.15
211.316	19.29
211.535	25.43
211.753	84.82
211.972	64.34
212.191	0.85
212.409	13.14
212.628	-7.34
212.846	39.76
213.065	99.16
213.283	45.91
213.502	70.48
213.72	39.76
213.938	60.24
214.157	86.87
214.375	70.48
214.594	105.3
214.812	-5.29
215.031	-3.24
215.249	23.38
215.467	-9.39
215.686	31.57
215.904	119.64
216.122	72.53
216.341	31.57
216.559	119.64
216.778	72.53
216.996	21.33
217.214	37.72
217.432	-25.77
217.651	86.87
217.869	0.85
218.087	13.14
218.306	64.34
218.524	54.1
218.742	4.95
218.96	-9.39
219.179	43.86
219.397	4.95
219.615	33.62
219.833	62.29
220.051	7
220.27	23.38
220.488	-46.25
220.706	54.1
220.924	109.4
221.142	25.43
221.36	60.24
221.578	13.14
221.796	21.33
222.015	74.58
222.233	50
222.451	-9.39
222.669	-7.34
222.887	119.64
223.105	25.43
223.323	15.19
223.541	-1.19
223.759	93.01
223.977	33.62
224.195	47.96
224.413	103.25
224.631	45.91
224.849	95.06
225.067	58.2
225.285	-11.43
225.503	70.48
225.721	-3.24
225.939	50
226.157	58.2
226.375	129.88
226.592	33.62
226.81	62.29
227.028	17.24
227.246	25.43
227.464	31.57
227.682	37.72
227.9	131.92
228.117	-27.82
228.335	4.95
228.553	84.82
228.771	21.33
228.989	86.87
229.206	58.2
229.424	27.48
229.642	-29.87
229.86	66.39
230.077	64.34
230.295	-1.19
230.513	45.91
230.731	103.25
230.948	56.15
231.166	39.76
231.384	-1.19
231.601	56.15
231.819	4.95
232.037	62.29
232.254	4.95
232.472	15.19
232.689	-19.63
232.907	88.92
233.125	17.24
233.342	-42.15
233.56	107.35
233.777	74.58
233.995	144.21
234.213	64.34
234.43	66.39
234.648	-3.24
234.865	29.52
235.083	43.86
235.3	23.38
235.518	54.1
235.735	-21.67
235.953	131.92
236.17	29.52
236.388	9.05
236.605	-9.39
236.822	121.68
237.04	37.72
237.257	25.43
237.475	-5.29
237.692	29.52
237.909	70.48
238.127	19.29
238.344	47.96
238.562	54.1
238.779	41.81
238.996	31.57
239.214	17.24
239.431	144.21
239.648	68.44
239.865	45.91
240.083	39.76
240.3	66.39
240.517	29.52
240.735	56.15
240.952	74.58
241.169	131.92
241.386	37.72
241.603	25.43
241.821	-25.77
242.038	50
242.255	37.72
242.472	-52.39
242.689	29.52
242.907	27.48
243.124	80.72
243.341	86.87
243.558	54.1
243.775	-15.53
243.992	-27.82
244.209	58.2
244.426	25.43
244.643	31.57
244.86	50
245.078	37.72
245.295	13.14
245.512	-3.24
245.729	-3.24
245.946	105.3
246.163	37.72
246.38	90.96
246.597	45.91
246.814	7
247.031	56.15
247.248	76.63
247.464	9.05
247.681	4.95
247.898	-13.48
248.115	19.29
248.332	-15.53
248.549	95.06
248.766	107.35
248.983	45.91
249.2	88.92
249.417	70.48
249.633	90.96
249.85	58.2
250.067	21.33
250.284	-25.77
250.501	35.67
250.717	68.44
250.934	50
251.151	-56.49
251.368	58.2
251.585	54.1
251.801	50
252.018	31.57
252.235	21.33
252.451	19.29
252.668	74.58
252.885	119.64
253.102	-64.68
253.318	29.52
253.535	13.14
253.752	-27.82
253.968	74.58
254.185	-44.2
254.401	4.95
254.618	84.82
254.835	37.72
255.051	74.58
255.268	-31.91
255.484	43.86
255.701	58.2
255.917	39.76
256.134	35.67
256.351	119.64
256.567	-74.92
256.784	-23.72
257	13.14
257.217	41.81
257.433	33.62
257.65	93.01
257.866	31.57
258.082	15.19
258.299	9.05
258.515	103.25
258.732	-91.31
258.948	58.2
259.165	58.2
259.381	15.19
259.597	15.19
259.814	97.11
260.03	68.44
260.246	68.44
260.463	62.29
260.679	107.35
260.895	37.72
261.112	-19.63
261.328	4.95
261.544	-1.19
261.761	78.68
261.977	-3.24
262.193	-56.49
262.409	119.64
262.626	58.2
262.842	95.06
263.058	35.67
263.274	47.96
263.49	4.95
263.707	113.49
263.923	41.81
264.139	72.53
264.355	80.72
264.571	50
264.787	78.68
265.004	93.01
265.22	62.29
265.436	50
265.652	64.34
265.868	58.2
266.084	33.62
266.3	17.24
266.516	2.9
266.732	86.87
266.948	-42.15
267.164	86.87
267.38	82.77
267.596	56.15
267.812	82.77
268.028	115.54
268.244	29.52
268.46	64.34
268.676	58.2
268.892	50
269.108	76.63
269.324	25.43
269.54	58.2
269.756	105.3
269.972	-31.91
270.188	9.05
270.403	23.38
270.619	45.91
270.835	68.44
271.051	19.29
271.267	-5.29
271.483	64.34
271.698	56.15
271.914	86.87
272.13	31.57
272.346	13.14
272.562	13.14
272.777	140.12
272.993	70.48
273.209	70.48
273.425	88.92
273.64	39.76
273.856	103.25
274.072	11.09
274.287	23.38
274.503	4.95
274.719	119.64
274.934	41.81
275.15	-13.48
275.366	64.34
275.581	103.25
275.797	-3.24
276.012	56.15
276.228	62.29
276.444	39.76
276.659	56.15
276.875	-31.91
277.09	21.33
277.306	52.05
277.521	97.11
277.737	9.05
277.952	101.2
278.168	0.85
278.383	50
278.599	52.05
278.814	88.92
279.03	56.15
279.245	131.92
279.461	17.24
279.676	2.9
279.892	-11.43
280.107	23.38
280.322	35.67
280.538	45.91
280.753	86.87
280.969	25.43
281.184	70.48
281.399	29.52
281.615	45.91
281.83	17.24
282.045	31.57
282.26	56.15
282.476	33.62
282.691	66.39
282.906	52.05
283.122	23.38
283.337	25.43
283.552	105.3
283.767	50
283.983	50
284.198	-66.73
284.413	45.91
284.628	2.9
284.843	39.76
285.058	-17.58
285.274	-27.82
285.489	-5.29
285.704	105.3
285.919	64.34
286.134	115.54
286.349	95.06
286.564	70.48
286.779	72.53
286.995	99.16
287.21	-5.29
287.425	66.39
287.64	119.64
287.855	123.73
288.07	-72.87
288.285	52.05
288.5	95.06
288.715	113.49
288.93	37.72
289.145	7
289.36	66.39
289.575	56.15
289.79	127.83
290.004	-9.39
290.219	50
290.434	58.2
290.649	45.91
290.864	50
291.079	-27.82
291.294	54.1
291.509	19.29
291.724	70.48
291.938	78.68
292.153	-19.63
292.368	15.19
292.583	25.43
292.798	121.68
293.012	62.29
293.227	39.76
293.442	41.81
293.657	115.54
293.871	111.44
294.086	9.05
294.301	21.33
294.516	0.85
294.73	29.52
294.945	4.95
295.16	70.48
295.374	37.72
295.589	7
295.804	39.76
296.018	-1.19
296.233	103.25
296.447	86.87
296.662	25.43
296.877	29.52
297.091	4.95
297.306	78.68
297.52	50
297.735	-15.53
297.949	23.38
298.164	60.24
298.378	37.72
298.593	60.24
298.807	21.33
299.022	-11.43
299.236	111.44
299.451	105.3
299.665	35.67
299.88	37.72
300.094	74.58
300.309	62.29
300.523	47.96
300.737	13.14
300.952	-15.53
301.166	35.67
301.381	41.81
301.595	41.81
301.809	66.39
302.024	29.52
302.238	62.29
302.452	103.25
302.667	144.21
302.881	127.83
303.095	39.76
303.309	68.44
303.524	47.96
303.738	-11.43
303.952	4.95
304.166	64.34
304.381	-3.24
304.595	62.29
304.809	70.48
305.023	-48.3
305.237	101.2
305.452	37.72
305.666	86.87
305.88	31.57
306.094	97.11
306.308	70.48
306.522	121.68
306.736	111.44
306.95	23.38
307.164	101.2
307.379	70.48
307.593	97.11
307.807	86.87
308.021	-29.87
308.235	97.11
308.449	4.95
308.663	88.92
308.877	156.5
309.091	54.1
309.305	66.39
309.519	-1.19
309.733	86.87
309.947	-1.19
310.161	88.92
310.374	23.38
310.588	62.29
310.802	31.57
311.016	78.68
311.23	62.29
311.444	111.44
311.658	64.34
311.872	39.76
312.085	41.81
312.299	164.69
312.513	82.77
312.727	78.68
312.941	4.95
313.154	37.72
313.368	54.1
313.582	31.57
313.796	82.77
314.009	97.11
314.223	56.15
314.437	66.39
314.651	25.43
314.864	-66.73
315.078	37.72
315.292	31.57
315.505	47.96
315.719	78.68
315.933	-3.24
316.146	4.95
316.36	41.81
316.573	58.2
316.787	74.58
317.001	47.96
317.214	35.67
317.428	23.38
317.641	50
317.855	144.21
318.068	129.88
318.282	21.33
318.495	86.87
318.709	160.59
318.922	37.72
319.136	95.06
319.349	78.68
319.563	19.29
319.776	86.87
319.99	-11.43
320.203	23.38
320.417	78.68
320.63	4.95
320.843	107.35
321.057	-42.15
321.27	19.29
321.483	19.29
321.697	62.29
321.91	70.48
322.124	56.15
322.337	13.14
322.55	37.72
322.763	50
322.977	62.29
323.19	39.76
323.403	140.12
323.617	7
323.83	54.1
324.043	-1.19
324.256	31.57
324.469	56.15
324.683	37.72
324.896	125.78
325.109	82.77
325.322	25.43
325.535	31.57
325.748	52.05
325.962	13.14
326.175	74.58
326.388	70.48
326.601	45.91
326.814	74.58
327.027	47.96
327.24	97.11
327.453	21.33
327.666	80.72
327.879	80.72
328.092	62.29
328.305	-19.63
328.518	15.19
328.731	13.14
328.944	13.14
329.157	9.05
329.37	78.68
329.583	76.63
329.796	76.63
330.009	33.62
330.222	47.96
330.435	4.95
330.648	19.29
330.861	80.72
331.073	86.87
331.286	76.63
331.499	-27.82
331.712	-27.82
331.925	54.1
332.138	-19.63
332.35	160.59
332.563	41.81
332.776	70.48
332.989	-27.82
333.202	9.05
333.414	-9.39
333.627	78.68
333.84	21.33
334.053	95.06
334.265	37.72
334.478	66.39
334.691	62.29
334.903	-27.82
335.116	33.62
335.329	78.68
335.541	78.68
335.754	187.22
335.966	21.33
336.179	41.81
336.392	13.14
336.604	-7.34
336.817	133.97
337.029	54.1
337.242	56.15
337.454	13.14
337.667	4.95
337.88	111.44
338.092	72.53
338.305	103.25
338.517	-38.06
338.729	80.72
338.942	52.05
339.154	0.85
339.367	9.05
339.579	62.29
339.792	70.48
340.004	103.25
340.217	23.38
340.429	15.19
340.641	52.05
340.854	13.14
341.066	45.91
341.278	82.77
341.491	45.91
341.703	107.35
341.915	33.62
342.128	105.3
342.34	105.3
342.552	4.95
342.764	13.14
342.977	64.34
343.189	80.72
343.401	72.53
343.613	11.09
343.826	127.83
344.038	80.72
344.25	68.44
344.462	62.29
344.674	-5.29
344.886	154.45
345.099	23.38
345.311	97.11
345.523	-15.53
345.735	37.72
345.947	62.29
346.159	33.62
346.371	31.57
346.583	66.39
346.795	105.3
347.007	47.96
347.219	127.83
347.431	-19.63
347.643	144.21
347.855	-11.43
348.067	123.73
348.279	-15.53
348.491	82.77
348.703	68.44
348.915	146.26
349.127	-3.24
349.339	97.11
349.551	47.96
349.763	39.76
349.975	37.72
350.187	113.49
350.399	123.73
350.61	86.87
350.822	111.44
351.034	105.3
351.246	56.15
351.458	47.96
351.669	88.92
351.881	101.2
352.093	39.76
352.305	121.68
352.517	66.39
352.728	88.92
352.94	-1.19
353.152	66.39
353.363	119.64
353.575	78.68
353.787	82.77
353.999	64.34
354.21	148.31
354.422	80.72
354.633	39.76
354.845	29.52
355.057	62.29
355.268	52.05
355.48	129.88
355.692	64.34
355.903	88.92
356.115	62.29
356.326	90.96
356.538	27.48
356.749	35.67
356.961	95.06
357.172	39.76
357.384	47.96
357.595	78.68
357.807	56.15
358.018	37.72
358.23	35.67
358.441	78.68
358.653	95.06
358.864	25.43
359.075	29.52
359.287	103.25
359.498	97.11
359.709	11.09
359.921	0.85
360.132	95.06
360.344	86.87
360.555	-3.24
360.766	50
360.977	9.05
361.189	105.3
361.4	17.24
361.611	109.4
361.823	86.87
362.034	64.34
362.245	-23.72
362.456	62.29
362.667	33.62
362.879	99.16
363.09	62.29
363.301	13.14
363.512	56.15
363.723	45.91
363.935	17.24
364.146	64.34
364.357	-3.24
364.568	133.97
364.779	9.05
364.99	66.39
365.201	4.95
365.412	4.95
365.623	43.86
365.834	37.72
366.045	78.68
366.256	115.54
366.467	47.96
366.678	13.14
366.889	62.29
367.1	119.64
367.311	64.34
367.522	84.82
367.733	103.25
367.944	136.02
368.155	72.53
368.366	9.05
368.577	31.57
368.788	56.15
368.999	50
369.209	56.15
369.42	97.11
369.631	101.2
369.842	82.77
370.053	72.53
370.264	50
370.474	90.96
370.685	21.33
370.896	111.44
371.107	58.2
371.317	86.87
371.528	62.29
371.739	105.3
371.95	66.39
372.16	168.79
372.371	-58.54
372.582	50
372.792	66.39
373.003	119.64
373.214	146.26
373.424	138.07
373.635	119.64
373.846	176.98
374.056	0.85
374.267	54.1
374.477	164.69
374.688	78.68
374.898	2.9
375.109	70.48
375.319	70.48
375.53	82.77
375.74	107.35
375.951	127.83
376.161	50
376.372	105.3
376.582	45.91
376.793	78.68
377.003	109.4
377.214	-42.15
377.424	60.24
377.635	121.68
377.845	21.33
378.055	86.87
378.266	82.77
378.476	62.29
378.686	82.77
378.897	103.25
379.107	54.1
379.317	31.57
379.528	113.49
379.738	140.12
379.948	80.72
380.158	25.43
380.369	37.72
380.579	-7.34
380.789	70.48
380.999	97.11
381.21	84.82
381.42	152.4
381.63	97.11
381.84	88.92
382.05	129.88
382.261	47.96
382.471	41.81
382.681	111.44
382.891	121.68
383.101	88.92
383.311	58.2
383.521	123.73
383.731	138.07
383.941	78.68
384.151	158.55
384.361	95.06
384.571	99.16
384.781	95.06
384.991	172.88
385.201	121.68
385.411	88.92
385.621	150.36
385.831	115.54
386.041	64.34
386.251	15.19
386.461	140.12
386.671	93.01
386.881	93.01
387.091	82.77
387.301	95.06
387.511	158.55
387.72	74.58
387.93	45.91
388.14	90.96
388.35	88.92
388.56	127.83
388.769	115.54
388.979	121.68
389.189	21.33
389.399	70.48
389.609	93.01
389.818	136.02
390.028	80.72
390.238	103.25
390.447	109.4
390.657	103.25
390.867	88.92
391.076	-13.48
391.286	45.91
391.496	111.44
391.705	121.68
391.915	45.91
392.125	103.25
392.334	86.87
392.544	146.26
392.753	127.83
392.963	111.44
393.172	107.35
393.382	86.87
393.591	105.3
393.801	101.2
394.01	123.73
394.22	119.64
394.429	136.02
394.639	123.73
394.848	142.16
395.058	74.58
395.267	111.44
395.477	152.4
395.686	140.12
395.895	129.88
396.105	127.83
396.314	193.36
396.524	144.21
396.733	131.92
396.942	133.97
397.152	162.64
397.361	152.4
397.57	146.26
397.78	176.98
397.989	88.92
398.198	158.55
398.407	115.54
398.617	150.36
398.826	127.83
399.035	99.16
399.244	29.52
399.453	121.68
399.663	127.83
399.872	146.26
400.081	121.68
400.29	160.59
400.499	95.06
400.708	201.55
400.917	185.17
401.127	136.02
401.336	129.88
401.545	211.79
401.754	164.69
401.963	312.14
402.172	170.83
402.381	168.79
402.59	148.31
402.799	144.21
403.008	170.83
403.217	170.83
403.426	226.13
403.635	144.21
403.844	195.41
404.053	234.32
404.262	166.74
404.471	236.37
404.68	213.84
404.888	201.55
405.097	213.84
405.306	252.75
405.515	226.13
405.724	189.27
405.933	162.64
406.142	242.51
406.35	222.03
406.559	267.09
406.768	246.61
406.977	326.48
407.185	293.71
407.394	301.9
407.603	262.99
407.812	318.29
408.02	308.05
408.229	277.33
408.438	365.39
408.646	365.39
408.855	328.53
409.064	324.43
409.272	398.16
409.481	340.82
409.69	488.27
409.898	424.78
410.107	478.03
410.315	455.5
410.524	471.89
410.733	480.08
410.941	459.6
411.15	482.13
411.358	557.9
411.567	557.9
411.775	605
411.984	570.19
412.192	535.37
412.401	584.52
412.609	594.76
412.818	666.44
413.026	719.69
413.234	734.03
413.443	766.79
413.651	748.36
413.86	770.89
414.068	889.67
414.276	834.38
414.485	809.8
414.693	930.63
414.901	1014.6
415.11	1014.6
415.318	889.67
415.526	1080.13
415.734	1110.85
415.943	1096.52
416.151	1205.06
416.359	1024.84
416.567	1172.29
416.776	1196.87
416.984	1295.17
417.192	1334.08
417.4	1391.42
417.608	1448.77
417.817	1422.14
418.025	1585.98
418.233	1528.64
418.441	1557.31
418.649	1669.95
418.857	1813.31
419.065	1788.73
419.273	1743.67
419.481	1942.33
419.689	1936.18
419.897	1968.95
420.105	2054.97
420.313	2210.61
420.521	2163.51
420.729	2339.63
420.937	2327.35
421.145	2403.12
421.353	2673.45
421.561	2601.77
421.769	2759.47
421.977	2808.62
422.185	2790.19
422.393	3029.8
422.601	3140.39
422.809	3130.15
423.017	3224.36
423.224	3392.29
423.432	3351.33
423.64	3359.52
423.848	3857.18
424.056	3736.35
424.263	3996.44
424.471	3949.34
424.679	3959.58
424.887	4291.35
425.094	4311.83
425.302	4326.16
425.51	4524.82
425.718	4580.11
425.925	4623.12
426.133	5008.14
426.341	5196.55
426.548	5468.93
426.756	5477.12
426.964	5544.7
427.171	5792.51
427.379	5853.95
427.586	6003.45
427.794	6107.9
428.001	6454
428.209	6818.54
428.417	6675.18
428.624	7004.91
428.832	7133.93
429.039	7058.15
429.247	6914.8
429.454	7725.79
429.662	8145.63
429.869	7820
430.076	8389.33
430.284	7975.64
430.491	8424.15
430.699	8729.3
430.906	8927.95
431.114	8901.33
431.321	9337.54
431.528	9505.48
431.736	10097.34
431.943	10490.55
432.15	10437.3
432.358	10414.77
432.565	10672.82
432.772	10701.49
432.979	11535.01
433.187	11541.16
433.394	11578.02
433.601	12468.89
433.808	12845.71
434.016	12585.62
434.223	12917.39
434.43	13742.72
434.637	13324.94
434.844	14373.5
435.052	14533.24
435.259	14328.44
435.466	14537.34
435.673	14531.19
435.88	15512.17
436.087	16030.3
436.294	16040.54
436.501	15594.09
436.708	16171.61
436.915	16763.48
437.122	17412.68
437.329	17388.11
437.537	17982.02
437.743	18092.61
437.95	17896
438.157	18809.4
438.364	19780.14
438.571	19419.69
438.778	19558.95
438.985	21119.51
439.192	20388.38
439.399	21445.13
439.606	20574.75
439.813	22168.07
440.02	23202.29
440.227	22700.54
440.433	22878.71
440.64	23294.45
440.847	23319.03
441.054	23828.97
441.261	25166.29
441.467	25067.99
441.674	25377.23
441.881	26106.31
442.088	26327.49
442.294	26038.73
442.501	26827.2
442.708	27134.39
442.914	28098.98
443.121	29581.71
443.328	29057.43
443.534	30583.17
443.741	29884.81
443.948	29409.68
444.154	31715.7
444.361	31621.49
444.568	31668.59
444.774	31451.51
444.981	31619.44
445.187	32995.68
445.394	34142.54
445.6	33984.85
445.807	37089.57
446.013	35391.8
446.22	36133.17
446.426	37368.09
446.633	37468.44
446.839	38824.2
447.046	37349.66
447.252	39399.68
447.459	39442.68
447.665	39209.22
447.871	40700.14
448.078	42445.01
448.284	40538.35
448.491	42139.86
448.697	43370.69
448.903	44273.84
449.11	44253.36
449.316	43573.44
449.522	44050.61
449.728	45238.44
449.935	45316.26
450.141	45695.13
450.347	46774.41
450.553	45203.62
450.76	45488.29
450.966	47073.42
451.172	46680.21
451.378	48169.08
451.584	47038.6
451.791	47978.62
451.997	47958.14
452.203	49125.48
452.409	48613.49
452.615	48484.47
452.821	46803.08
453.027	46686.35
453.233	48621.68
453.44	46692.49
453.646	47456.39
453.852	47800.44
454.058	48683.12
454.264	47011.98
454.47	47741.05
454.676	46868.62
454.882	47964.28
455.088	44179.64
455.294	45121.7
455.5	45361.31
455.705	45754.52
455.911	44007.61
456.117	43194.56
456.323	42754.25
456.529	40390.89
456.735	42477.77
456.941	41187.55
457.147	41023.72
457.352	39332.09
457.558	39332.09
457.764	39500.03
457.97	38639.88
458.176	37542.17
458.381	37742.87
458.587	35817.78
458.793	35617.08
458.999	33968.46
459.204	36481.32
459.41	35520.82
459.616	33007.97
459.821	33071.45
460.027	32690.53
460.233	32405.86
460.438	30808.45
460.644	31041.92
460.85	29671.82
461.055	29393.3
461.261	29376.92
461.466	26997.18
461.672	26483.14
461.878	27828.65
462.083	26266.05
462.289	25962.95
462.494	25440.72
462.7	24207.84
462.905	23693.8
463.111	25029.08
463.316	24715.74
463.522	24211.94
463.727	24271.33
463.932	24211.94
464.138	23970.28
464.343	23874.03
464.549	23042.55
464.754	23874.03
464.959	23998.95
465.165	23497.2
465.37	22776.31
465.575	21854.73
465.781	22682.11
465.986	23017.97
466.191	22178.31
466.397	21631.5
466.602	20656.67
466.807	21402.13
467.012	21537.29
467.218	21264.91
467.423	20724.25
467.628	21387.79
467.833	21969.41
468.038	21438.99
468.244	20857.37
468.449	21332.5
468.654	20924.95
468.859	20703.77
469.064	20560.41
469.269	19814.95
469.474	20019.75
469.679	20275.74
469.885	19788.33
470.09	19913.25
470.295	19759.66
470.5	19409.45
470.705	19403.31
470.91	19028.53
471.115	19069.49
471.32	19450.41
471.525	18979.38
471.73	18678.33
471.935	18799.16
472.139	17754.69
472.344	18446.91
472.549	17807.94
472.754	17660.49
472.959	17424.97
473.164	17080.91
473.369	16781.91
473.574	17744.45
473.778	17181.26
473.983	17199.69
474.188	17109.58
474.393	16450.14
474.598	16278.11
474.802	16241.25
475.007	15970.91
475.212	16144.99
475.417	15405.67
475.621	15690.34
475.826	15741.54
476.031	15440.49
476.235	15078
476.44	15501.93
476.645	14926.45
476.849	15034.99
477.054	14891.63
477.259	14516.86
477.463	14508.66
477.668	14119.55
477.872	14203.52
478.077	14029.44
478.282	13685.38
478.486	13795.97
478.691	13478.54
478.895	13679.24
479.1	13537.93
479.304	13333.13
479.509	13023.89
479.713	13488.78
479.918	12984.98
480.122	12626.58
480.326	13236.88
480.531	13142.67
480.735	12829.33
480.94	12647.06
481.144	13038.22
481.348	12546.71
481.553	12657.3
481.757	12538.52
481.961	12657.3
482.166	12788.37
482.37	12534.42
482.574	12368.54
482.778	12339.87
482.983	12632.72
483.187	12634.77
483.391	12540.57
483.595	12255.9
483.8	12327.58
484.004	12550.81
484.208	12583.57
484.412	12327.58
484.616	12450.46
484.821	12499.61
485.025	12325.53
485.229	12581.53
485.433	12614.29
485.637	12567.19
485.841	12311.19
486.045	12372.63
486.249	12444.31
486.453	12348.06
486.657	12477.08
486.861	12571.29
487.065	12096.16
487.269	12497.56
487.473	12245.66
487.677	12425.88
487.881	12610.2
488.085	12384.92
488.289	12333.72
488.493	12227.23
488.697	12544.66
488.901	12495.51
489.105	12393.11
489.309	12698.26
489.512	12579.48
489.716	12581.53
489.92	12294.81
490.124	12610.2
490.328	12677.78
490.531	12606.1
490.735	12728.98
490.939	12886.67
491.143	12778.13
491.346	12769.94
491.55	12948.11
491.754	13046.41
491.958	12880.53
492.161	12939.92
492.365	13066.89
492.569	12995.22
492.772	13083.28
492.976	13097.61
493.18	13343.37
493.383	13464.2
493.587	13316.75
493.79	13533.83
493.994	13488.78
494.197	13591.17
494.401	13683.33
494.605	13609.61
494.808	13931.14
495.012	14017.15
495.215	13820.55
495.419	14078.59
495.622	14008.96
495.825	14238.33
496.029	14312.06
496.232	14623.35
496.436	14459.51
496.639	15188.59
496.843	14887.54
497.046	15037.04
497.249	15194.73
497.453	15311.47
497.656	15432.3
497.859	15637.09
498.063	15823.46
498.266	16101.98
498.469	15819.36
498.673	16216.67
498.876	16312.92
499.079	16521.82
499.282	16425.56
499.485	16976.47
499.689	16988.75
499.892	16976.47
500.095	17330.76
500.298	17695.3
500.501	17599.05
500.705	17949.25
500.908	18008.64
501.111	18045.51
501.314	18494.01
501.517	18676.28
501.72	18864.69
501.923	18547.26
502.126	19288.62
502.329	19561
502.532	19671.59
502.735	19708.46
502.938	20187.68
503.141	20132.39
503.344	20437.53
503.547	20460.06
503.75	20664.86
503.953	21393.93
504.156	21410.32
504.359	21570.06
504.562	21811.72
504.765	22168.07
504.968	22376.96
505.17	22405.63
505.373	22356.48
505.576	22718.97
505.779	23306.74
505.982	23441.9
506.185	24015.33
506.387	23849.45
506.59	24011.24
506.793	24349.15
506.996	24508.9
507.198	25166.29
507.401	24689.12
507.604	25100.76
507.807	25842.12
508.009	25883.08
508.212	26038.73
508.415	26538.43
508.617	26646.97
508.82	26685.89
509.022	26354.12
509.225	27255.22
509.428	27541.94
509.63	27507.12
509.833	27904.43
510.035	28631.46
510.238	28537.25
510.44	28987.8
510.643	29172.12
510.845	29417.88
511.048	29176.22
511.25	29610.39
511.453	30071.18
511.655	30990.72
511.858	30843.26
512.06	30812.54
512.262	31127.93
512.465	31252.86
512.667	31746.42
512.87	32403.81
513.072	31789.42
513.274	32317.8
513.477	32743.78
513.679	33194.33
513.881	33866.06
514.084	33704.28
514.286	33984.85
514.488	33589.59
514.69	35068.22
514.893	35125.57
515.095	35238.2
515.297	35457.34
515.499	35273.02
515.701	36114.73
515.904	36180.27
516.106	37046.56
516.308	37142.81
516.51	37386.52
516.712	37253.4
516.914	37751.06
517.116	38275.34
517.318	38529.29
517.52	38850.82
517.722	38883.59
517.925	39088.38
518.127	39780.6
518.329	39991.54
518.531	39887.09
518.733	40863.97
518.935	41105.63
519.136	40587.5
519.338	41595.1
519.54	41984.21
519.742	42078.42
519.944	42248.4
520.146	42901.7
520.348	42975.43
520.55	43350.21
520.752	43471.04
520.954	43880.63
521.155	43856.06
521.357	44239.03
521.559	44368.05
521.761	45140.13
521.963	45205.67
522.164	45095.08
522.366	45533.34
522.568	45994.14
522.77	46354.58
522.971	47065.22
523.173	46651.53
523.375	46954.63
523.576	47251.59
523.778	47057.03
523.98	47335.56
524.181	48105.59
524.383	47743.1
524.584	48736.37
524.786	48468.08
524.988	48803.95
525.189	48674.93
525.391	48973.93
525.592	49399.91
525.794	49625.18
525.995	49293.41
526.197	49610.85
526.398	49217.64
526.6	50757.71
526.801	50739.28
527.003	50382.93
527.204	50913.36
527.406	51259.46
527.607	50743.38
527.808	51519.56
528.01	50335.83
528.211	50954.32
528.412	52095.03
528.614	51857.47
528.815	51888.19
529.016	52330.55
529.218	51630.15
529.419	51521.6
529.62	52265.02
529.822	52267.06
530.023	52383.8
530.224	52490.29
530.425	52475.96
530.626	51873.85
530.828	52226.1
531.029	53358.63
531.23	52355.13
531.431	52232.25
531.632	52846.64
531.833	52938.8
532.035	53135.4
532.236	52975.66
532.437	53289
532.638	52699.19
532.839	53137.45
533.04	53471.27
533.241	52119.61
533.442	53608.48
533.643	52971.57
533.844	53014.57
534.045	53092.4
534.246	53008.43
534.447	53501.99
534.648	53012.52
534.849	53278.76
535.05	53069.87
535.251	53346.34
535.451	53250.09
535.652	53028.91
535.853	52998.19
536.054	53407.78
536.255	53573.67
536.456	53291.05
536.657	53729.31
536.857	53026.86
537.058	52893.74
537.259	54003.74
537.46	53082.16
537.66	53276.71
537.861	53415.97
538.062	53076.01
538.263	53475.37
538.463	53190.7
538.664	53076.01
538.865	53170.22
539.065	53577.76
539.266	52926.51
539.466	53348.39
539.667	53024.81
539.868	53506.08
540.068	53100.59
540.269	52836.4
540.469	53635.11
540.67	53069.87
540.87	53045.29
541.071	53207.08
541.271	53463.08
541.472	53471.27
541.672	52627.51
541.873	52654.13
542.073	52332.6
542.274	53346.34
542.474	52850.73
542.675	52537.4
542.875	53012.52
543.075	52846.64
543.276	52422.71
543.476	53258.28
543.676	52789.3
543.877	53151.79
544.077	52944.94
544.277	52772.91
544.478	52842.54
544.678	52615.22
544.878	52903.98
545.078	52977.71
545.279	52490.29
545.479	52461.62
545.679	52686.9
545.879	52746.29
546.079	52633.65
546.28	52713.52
546.48	52463.67
546.68	52699.19
546.88	52670.51
547.08	53086.25
547.28	52729.9
547.48	52127.8
547.68	52566.07
547.88	52226.1
548.081	52693.04
548.281	52621.36
548.481	52166.71
548.681	52406.33
548.881	52365.37
549.081	52633.65
549.28	52176.95
549.48	52654.13
549.68	51935.29
549.88	52672.56
550.08	52351.03
550.28	52310.07
550.48	52174.91
550.68	52844.59
550.88	52144.19
551.08	52035.64
551.279	52125.75
551.479	51767.36
551.679	52133.95
551.879	52254.78
552.079	52449.33
552.278	51816.51
552.478	52060.22
552.678	52127.8
552.878	52365.37
553.077	52078.65
553.277	51607.62
553.477	52561.97
553.676	51877.95
553.876	52127.8
554.076	52170.81
554.275	51955.77
554.475	51458.12
554.674	51658.82
554.874	52312.12
555.074	51732.54
555.273	51804.22
555.473	51984.44
555.672	51396.68
555.872	51474.5
556.071	51298.37
556.271	52510.77
556.47	51558.47
556.67	51142.73
556.869	51529.8
557.068	51693.63
557.268	51390.53
557.467	51619.91
557.667	51662.91
557.866	51292.23
558.065	51210.31
558.265	50978.89
558.464	50661.46
558.663	51177.54
558.863	51034.19
559.062	51378.25
559.261	50344.02
559.461	51316.81
559.66	50571.35
559.859	51267.66
560.058	50608.21
560.258	50790.48
560.457	50141.27
560.656	50765.9
560.855	50487.38
561.054	50479.19
561.253	50065.5
561.453	49993.82
561.652	50626.64
561.851	50456.66
562.05	50071.64
562.249	49846.36
562.448	50327.64
562.647	49821.79
562.846	49909.85
563.045	50012.25
563.244	49561.7
563.443	50309.21
563.642	49270.89
563.841	49723.49
564.04	49533.03
564.239	49285.22
564.438	49389.67
564.637	49614.94
564.836	49221.73
565.035	49416.29
565.234	49432.68
565.432	48423.03
565.631	48654.45
565.83	49094.76
566.029	48793.71
566.228	48638.06
566.427	48371.83
566.625	48375.92
566.824	48011.38
567.023	48658.54
567.222	47976.57
567.42	48758.89
567.619	48408.69
567.818	47974.52
568.016	48138.36
568.215	48474.23
568.414	47802.49
568.612	47794.3
568.811	47493.25
569.01	47628.41
569.208	47118.47
569.407	47841.4
569.605	46940.3
569.804	47499.39
570.002	46719.12
570.201	47478.91
570.4	46573.71
570.598	46258.32
570.797	46485.65
570.995	46528.66
571.193	46524.56
571.392	46766.22
571.59	45926.55
571.789	45850.78
571.987	46112.92
572.186	45908.12
572.384	45713.56
572.582	46246.04
572.781	46229.65
572.979	45242.53
573.177	45267.11
573.376	45521.05
573.574	45144.23
573.772	45701.28
573.971	45279.39
574.169	45187.24
574.367	44927.14
574.565	45686.94
574.763	45140.13
574.962	44867.75
575.16	44540.08
575.358	44902.57
575.556	44284.08
575.754	44957.86
575.952	43966.65
576.151	44673.2
576.349	44060.85
576.547	44302.51
576.745	43733.18
576.943	44095.67
577.141	43583.68
577.339	43962.55
577.537	43960.5
577.735	43690.17
577.933	43223.23
578.131	43530.43
578.329	42944.71
578.527	42811.59
578.725	43000.01
578.923	43149.51
579.121	42625.23
579.319	42502.35
579.516	42827.98
579.714	42664.14
579.912	42254.54
580.11	42193.11
580.308	42584.27
580.506	42633.42
580.704	41658.59
580.901	42270.93
581.099	42240.21
581.297	41791.7
581.495	41810.14
581.692	41648.35
581.89	41416.93
582.088	42014.93
582.285	41414.88
582.483	41701.59
582.681	41253.09
582.878	41023.72
583.076	40538.35
583.274	41001.19
583.471	40628.46
583.669	40896.74
583.866	40534.25
584.064	40935.65
584.262	39901.43
584.459	40534.25
584.657	40057.07
584.854	40204.53
585.052	39258.37
585.249	40077.55
585.447	39801.08
585.644	39205.12
585.841	39596.28
586.039	39723.26
586.236	38899.97
586.434	39201.02
586.631	38754.57
586.828	38807.81
587.026	39137.54
587.223	38783.24
587.42	38580.49
587.618	39207.17
587.815	38285.58
588.012	38328.59
588.21	38224.14
588.407	38336.78
588.604	37906.71
588.801	38177.04
588.999	37845.27
589.196	37845.27
589.393	37712.15
589.59	37800.21
589.787	37773.59
589.984	37302.56
590.182	37054.75
590.379	37611.8
590.576	37212.45
590.773	37007.65
590.97	36868.39
591.167	37306.65
591.364	36489.51
591.561	36802.85
591.758	36423.98
591.955	36469.03
592.152	36712.74
592.349	36348.2
592.546	36507.94
592.743	36014.38
592.94	35424.57
593.137	36200.75
593.334	35989.81
593.531	35410.23
593.727	35991.86
593.924	35739.96
594.121	35404.09
594.318	35414.33
594.515	34963.78
594.712	35430.71
594.908	34859.33
595.105	35060.03
595.302	34957.63
595.499	34652.48
595.696	34801.99
595.892	34236.75
596.089	34584.9
596.286	34517.32
596.482	33882.45
596.679	34242.89
596.876	34316.62
597.072	34011.47
597.269	34040.14
597.466	33534.29
597.662	33577.3
597.859	33638.74
598.055	33712.47
598.252	33349.98
598.448	33519.96
598.645	33161.56
598.841	32883.04
599.038	33048.93
599.234	33235.29
599.431	32403.81
599.627	32430.44
599.824	32545.12
600.02	32659.81
600.217	32618.85
600.413	32495.97
600.609	32366.95
600.806	32348.52
601.002	32602.47
601.198	32178.54
601.395	32100.72
601.591	32149.87
601.787	31529.33
601.984	31770.99
602.18	31881.58
602.376	31285.62
602.572	31224.18
602.769	31160.7
602.965	31095.16
603.161	31222.14
603.357	30792.06
603.553	30736.77
603.75	30835.07
603.946	30626.18
604.142	30824.83
604.338	30192.01
604.534	30740.86
604.73	30144.91
604.926	30099.85
605.122	30161.29
605.318	30073.23
605.514	29907.34
605.71	30026.12
605.906	29966.73
606.102	29909.39
606.298	29876.62
606.494	29538.71
606.69	29720.98
606.886	29774.22
607.082	29067.67
607.278	29307.29
607.474	29198.74
607.67	29591.95
607.866	29000.09
608.062	29309.33
608.257	29192.6
608.453	29039
608.649	29270.42
608.845	28746.14
609.041	28672.42
609.236	29200.79
609.432	28533.15
609.628	28783.01
609.824	28688.8
610.019	28600.74
610.215	28647.84
610.411	28547.49
610.606	28256.68
610.802	28674.46
610.998	28012.97
611.193	28354.98
611.389	28074.41
611.584	28080.55
611.78	27812.27
611.976	27984.3
612.171	28250.53
612.367	28045.74
612.562	27808.17
612.758	27294.13
612.953	27177.4
613.149	27804.08
613.344	27546.03
613.539	27812.27
613.735	27429.3
613.93	27539.89
614.126	27355.57
614.321	27425.2
614.517	27515.31
614.712	27214.26
614.907	27224.5
615.103	27304.37
615.298	27064.76
615.493	27120.06
615.688	26724.8
615.884	27216.31
616.079	26839.48
616.274	26900.92
616.47	26493.38
616.665	26694.08
616.86	26689.98
617.055	26761.66
617.25	26595.78
617.445	26706.37
617.641	26237.38
617.836	26100.17
618.031	26266.05
618.226	26534.34
618.421	26065.35
618.616	26528.19
618.811	25428.43
619.006	26026.44
619.201	25643.47
619.396	25637.33
619.591	25326.03
619.786	26046.92
619.981	25289.17
620.176	25268.69
620.371	24699.36
620.566	25137.62
620.761	25156.05
620.956	24842.71
621.151	24701.4
621.346	24951.26
621.541	24345.06
621.735	24814.04
621.93	24187.36
622.125	24572.38
622.32	24211.94
622.515	24336.87
622.709	23794.15
622.904	23521.77
623.099	23847.4
623.294	23642.6
623.488	23319.03
623.683	23233.01
623.878	22909.43
624.072	23200.24
624.267	23243.25
624.462	22862.33
624.656	22847.99
624.851	22649.34
625.046	22594.04
625.24	22141.44
625.435	22313.47
625.629	22331.9
625.824	22135.3
626.018	22012.42
626.213	21625.36
626.407	21668.36
626.602	21221.91
626.796	21649.93
626.991	21352.98
627.185	21498.38
627.38	21119.51
627.574	20916.76
627.768	20959.77
627.963	20924.95
628.157	20531.74
628.352	20668.95
628.546	20189.73
628.74	20658.71
628.935	20218.4
629.129	20220.45
629.323	20017.7
629.517	19986.98
629.712	19886.63
629.906	19747.37
630.1	19354.16
630.294	19450.41
630.489	19489.32
630.683	19530.28
630.877	19251.76
631.071	18934.32
631.265	19102.26
631.459	18983.48
631.653	18897.46
631.848	18874.93
632.042	18745.91
632.236	18733.62
632.43	18530.87
632.624	18551.35
632.818	18408
633.012	17971.78
633.206	18018.88
633.4	18020.93
633.594	17769.03
633.788	17693.26
633.982	17842.76
634.176	18096.71
634.369	17713.74
634.563	17508.94
634.757	17402.44
634.951	17635.91
635.145	17424.97
635.339	17168.98
635.533	17158.74
635.726	17310.29
635.92	16816.72
636.114	16810.58
636.308	16644.7
636.501	16804.44
636.695	16560.73
636.889	16175.71
637.083	16274.01
637.276	16241.25
637.47	16368.22
637.664	16018.02
637.857	16265.82
638.051	15970.91
638.244	15792.74
638.438	15706.73
638.632	15784.55
638.825	15512.17
639.019	15571.56
639.212	15495.78
639.406	15446.63
639.599	15360.62
639.793	15403.63
639.986	14881.39
640.18	15198.83
640.373	15245.93
640.567	14832.24
640.76	14885.49
640.954	14842.48
641.147	14838.39
641.34	14803.57
641.534	14764.66
641.727	14525.05
641.92	14445.18
642.114	14422.65
642.307	14267
642.5	14045.82
642.694	13955.71
642.887	13992.58
643.08	13886.08
643.273	13892.23
643.467	13781.64
643.66	13779.59
643.853	13675.14
644.046	13275.79
644.239	13537.93
644.432	13476.49
644.626	13226.64
644.819	13509.26
645.012	13566.6
645.205	13361.8
645.398	13032.08
645.591	12907.15
645.784	13193.87
645.977	13030.03
646.17	12712.6
646.363	12614.29
646.556	12987.02
646.749	12806.8
646.942	12708.5
647.135	12669.59
647.328	12583.57
647.521	12411.54
647.714	12489.37
647.907	12047.01
648.099	12251.8
648.292	12384.92
648.485	11938.46
648.678	11872.93
648.871	11924.13
649.064	11907.74
649.256	11956.89
649.449	11604.64
649.642	11623.08
649.835	11451.05
650.027	11430.57
650.22	11494.05
650.413	11518.63
650.605	11704.99
650.798	11229.87
650.991	11055.79
651.183	11231.91
651.376	11125.42
651.568	11049.64
651.761	11152.04
651.954	10963.63
652.146	10998.45
652.339	10937.01
652.531	10773.17
652.724	10721.97
652.916	10515.12
653.109	10615.48
653.301	10836.66
653.494	10732.21
653.686	10494.65
653.879	10662.58
654.071	10433.21
654.263	10076.86
654.456	10189.5
654.648	10308.28
654.84	10132.15
655.033	10132.15
655.225	9919.17
655.417	9933.5
655.61	9927.36
655.802	10083
655.994	9867.97
656.186	9876.16
656.379	9861.82
656.571	9919.17
656.763	9808.58
656.955	9458.37
657.148	9691.84
657.34	9573.06
657.532	9360.07
657.724	9245.38
657.916	9200.33
658.108	9216.71
658.3	9304.78
658.492	9229
658.684	8925.9
658.876	8950.48
659.068	9050.83
659.26	8782.54
659.452	8983.24
659.644	8848.08
659.836	8864.46
660.028	8893.13
660.22	8512.21
660.412	8745.68
660.604	8708.82
660.796	8653.52
660.988	8714.96
661.18	8553.17
661.372	8524.5
661.563	8680.14
661.755	8399.57
661.947	8409.81
662.139	8295.13
662.331	8301.27
662.522	8379.09
662.714	8098.52
662.906	8215.26
663.097	8082.14
663.289	7977.69
663.481	7998.17
663.673	8135.39
663.864	7832.29
664.056	7897.82
664.247	7844.57
664.439	7924.44
664.631	7951.07
664.822	7910.11
665.014	7719.65
665.205	7703.26
665.397	7711.46
665.588	7633.63
665.78	7504.61
665.971	7475.94
666.163	7631.58
666.354	7357.16
666.546	7516.9
666.737	7346.92
666.929	7416.55
667.12	7316.2
667.311	7260.9
667.503	7156.46
667.694	7295.72
667.885	7176.94
668.077	7168.74
668.268	7138.02
668.459	7150.31
668.651	7041.77
668.842	7021.29
669.033	6849.26
669.224	6931.18
669.416	7019.24
669.607	6793.97
669.798	6972.14
669.989	6920.94
670.18	6750.96
670.371	6722.29
670.563	6793.97
670.754	6779.63
670.945	6568.69
671.136	6542.07
671.327	6574.83
671.518	6722.29
671.709	6605.55
671.9	6492.91
672.091	6392.56
672.282	6548.21
672.473	6451.95
672.664	6703.86
672.855	6204.15
673.046	6302.45
673.237	6421.24
673.428	6322.93
673.619	6482.67
673.809	6296.31
674	6208.25
674.191	6312.69
674.382	6185.72
674.573	6202.1
674.764	6288.12
674.954	6128.38
675.145	6155
675.336	6187.77
675.527	6167.29
675.717	6132.47
675.908	6036.22
676.099	5995.26
676.289	6056.7
676.48	5968.63
676.671	5874.43
676.861	5933.82
677.052	5939.96
677.243	5817.08
677.433	5884.67
677.624	5878.52
677.814	5905.15
678.005	5780.22
678.195	5739.26
678.386	5708.54
678.576	5812.99
678.767	5538.56
678.957	5645.06
679.148	5755.65
679.338	5729.02
679.529	5616.38
679.719	5528.32
679.909	5722.88
680.1	5724.93
680.29	5575.42
680.481	5487.36
680.671	5577.47
680.861	5440.26
681.052	5567.23
681.242	5630.72
681.432	5542.66
681.622	5534.46
681.813	5419.78
682.003	5507.84
682.193	5481.22
682.383	5415.68
682.573	5503.75
682.764	5290.76
682.954	5458.69
683.144	5313.28
683.334	5352.2
683.524	5311.24
683.714	5411.59
683.904	5227.27
684.094	5329.67
684.284	5251.85
684.474	5153.54
684.664	5118.73
684.854	5190.41
685.044	5225.22
685.234	5102.34
685.424	5198.6
685.614	5176.07
685.804	5071.62
685.994	4961.03
686.184	5083.91
686.374	5145.35
686.564	5010.18
686.753	5159.69
686.943	5030.66
687.133	4915.98
687.323	4846.35
687.513	5151.49
687.702	4944.65
687.892	4881.16
688.082	4774.67
688.272	4961.03
688.461	4805.39
688.651	4938.51
688.841	4829.96
689.03	4780.81
689.22	4715.28
689.41	4657.93
689.599	4631.31
689.789	4748.04
689.979	4596.5
690.168	4657.93
690.358	4463.38
690.547	4637.45
690.737	4473.62
690.926	4608.78
691.116	4354.83
691.305	4627.21
691.495	4399.89
691.684	4315.92
691.874	4436.75
692.063	4395.79
692.252	4371.22
692.442	4412.18
692.631	4457.23
692.82	4344.6
693.01	4358.93
693.199	4340.5
693.388	4264.72
693.578	4172.57
693.767	4334.36
693.956	4422.42
694.146	4360.98
694.335	4229.91
694.524	4168.47
694.713	4166.42
694.902	4215.57
695.092	4246.29
695.281	4234
695.47	4111.13
695.659	4029.21
695.848	4162.33
696.037	4129.56
696.226	3998.49
696.415	4037.4
696.604	4039.45
696.793	4143.89
696.982	4029.21
697.171	4004.63
697.36	4037.4
697.549	3986.2
697.738	3932.95
697.927	3922.71
698.116	4119.32
698.305	3902.23
698.494	3930.91
698.683	4051.74
698.872	4094.74
699.061	3894.04
699.25	3965.72
699.438	3992.34
699.627	3865.37
699.816	3973.91
700.005	3873.56
700.193	3820.32
700.382	3943.19
700.571	3873.56
700.76	3748.64
700.948	3715.87
701.137	3875.61
701.326	3814.17
701.514	3615.52
701.703	3822.36
701.892	3762.97
702.08	3912.47
702.269	3777.31
702.457	3797.79
702.646	3668.77
702.834	3636
703.023	3529.5
703.212	3765.02
703.4	3597.09
703.589	3519.26
703.777	3689.25
703.965	3732.25
704.154	3658.53
704.342	3560.22
704.531	3699.48
704.719	3621.66
704.907	3621.66
705.096	3488.54
705.284	3695.39
705.472	3539.74
705.661	3549.98
705.849	3592.99
706.037	3513.12
706.226	3552.03
706.414	3549.98
706.602	3595.04
706.79	3595.04
706.979	3468.06
707.167	3552.03
707.355	3500.83
707.543	3490.59
707.731	3644.19
707.919	3564.32
708.107	3418.91
708.296	3478.3
708.484	3437.34
708.672	3343.14
708.86	3543.84
709.048	3470.11
709.236	3355.43
709.424	3431.2
709.612	3463.97
709.8	3468.06
709.988	3380
710.176	3396.39
710.364	3355.43
710.551	3332.9
710.739	3314.47
710.927	3388.19
711.115	3398.43
711.303	3283.75
711.491	3433.25
711.679	3382.05
711.866	3302.18
712.054	3298.08
712.242	3320.61
712.43	3334.95
712.617	3234.6
712.805	3228.45
712.993	3281.7
713.181	3189.54
713.368	3361.57
713.556	3148.58
713.744	3179.3
713.931	3388.19
714.119	3226.4
714.306	3214.12
714.494	3175.2
714.682	3144.49
714.869	3072.81
715.057	3183.4
715.244	3154.73
715.432	3277.6
715.619	3259.17
715.807	3062.57
715.994	3062.57
716.182	3158.82
716.369	3232.55
716.556	2976.55
716.744	3064.61
716.931	3081
717.119	3173.16
717.306	3214.12
717.493	3152.68
717.681	3089.19
717.868	3048.23
718.055	3121.96
718.242	2994.98
718.43	3044.13
718.617	3146.53
718.804	3052.33
718.991	3037.99
719.179	2986.79
719.366	3068.71
719.553	3017.51
719.74	3076.9
719.927	3081
720.114	2999.08
720.301	2984.74
720.488	2935.59
720.676	3068.71
720.863	3093.29
721.05	3107.62
721.237	3048.23
721.424	2954.02
721.611	2962.22
721.798	2913.06
721.985	2911.02
722.172	2896.68
722.358	3037.99
722.545	2865.96
722.732	2937.64
722.919	2915.11
723.106	2868.01
723.293	2921.26
723.48	2841.39
723.667	2863.91
723.853	2896.68
724.04	2833.19
724.227	2827.05
724.414	2978.6
724.6	2851.63
724.787	2888.49
724.974	2851.63
725.161	2806.57
725.347	2800.43
725.534	2863.91
725.72	2716.46
725.907	2798.38
726.094	2786.09
726.28	2675.5
726.467	2757.42
726.653	2855.72
726.84	2745.13
727.027	2929.45
727.213	2857.77
727.4	2741.04
727.586	2726.7
727.773	2732.84
727.959	2784.04
728.145	2863.91
728.332	2890.54
728.518	2718.51
728.705	2712.36
728.891	2771.76
729.077	2642.73
729.264	2671.4
729.45	2751.28
729.636	2718.51
729.823	2755.37
730.009	2757.42
730.195	2732.84
730.382	2702.12
730.568	2571.05
730.754	2671.4
730.94	2730.8
731.126	2732.84
731.313	2808.62
731.499	2630.45
731.685	2609.97
731.871	2530.09
732.057	2691.88
732.243	2601.77
732.429	2784.04
732.615	2728.75
732.801	2722.6
732.987	2677.55
733.173	2503.47
733.359	2618.16
733.545	2515.76
733.731	2708.27
733.917	2601.77
734.103	2609.97
734.289	2540.33
734.475	2491.18
734.661	2519.85
734.847	2540.33
735.033	2659.12
735.219	2593.58
735.404	2526
735.59	2612.01
735.776	2560.81
735.962	2562.86
736.148	2595.63
736.333	2652.97
736.519	2507.57
736.705	2503.47
736.89	2442.03
737.076	2458.42
737.262	2552.62
737.447	2536.24
737.633	2607.92
737.819	2437.94
738.004	2462.51
738.19	2396.98
738.375	2415.41
738.561	2528.05
738.747	2442.03
738.932	2429.74
739.118	2458.42
739.303	2419.5
739.489	2544.43
739.674	2423.6
739.859	2450.22
740.045	2446.13
740.23	2503.47
740.416	2263.86
740.601	2390.83
740.786	2405.17
740.972	2321.2
741.157	2255.67
741.342	2388.78
741.528	2304.82
741.713	2374.45
741.898	2253.62
742.084	2237.24
742.269	2315.06
742.454	2300.72
742.639	2300.72
742.824	2208.56
743.01	2339.63
743.195	2251.57
743.38	2274.1
743.565	2265.91
743.75	2188.08
743.935	2249.52
744.12	2270
744.305	2304.82
744.49	2085.69
744.675	2183.99
744.86	2136.88
745.045	2059.06
745.23	2253.62
745.415	2183.99
745.6	2052.92
745.785	2163.51
745.97	2114.36
746.155	2077.49
746.34	2081.59
746.525	2093.88
746.71	2046.77
746.895	2079.54
747.079	2075.45
747.264	1956.66
747.449	2011.96
747.634	2020.15
747.819	2016.05
748.003	2016.05
748.188	1950.52
748.373	1917.75
748.557	1977.14
748.742	2003.77
748.927	1942.33
749.111	1835.83
749.296	1815.35
749.481	1987.38
749.665	1770.3
749.85	1864.5
750.034	1803.07
750.219	1899.32
750.404	1846.07
750.588	1846.07
750.773	1805.11
750.957	1760.06
751.141	1835.83
751.326	1788.73
751.51	1696.57
751.695	1712.96
751.879	1686.33
752.064	1643.32
752.248	1790.78
752.432	1702.72
752.617	1643.32
752.801	1690.43
752.985	1653.56
753.17	1635.13
753.354	1614.65
753.538	1545.02
753.722	1489.73
753.907	1573.69
754.091	1536.83
754.275	1583.93
754.459	1469.25
754.643	1590.08
754.828	1581.89
755.012	1545.02
755.196	1561.41
755.38	1385.28
755.564	1540.93
755.748	1497.92
755.932	1467.2
756.116	1401.66
756.3	1479.49
756.484	1321.79
756.668	1323.84
756.852	1323.84
757.036	1366.85
757.22	1340.22
757.404	1422.14
757.588	1278.79
757.772	1366.85
757.956	1350.46
758.14	1334.08
758.323	1413.95
758.507	1270.59
758.691	1268.55
758.875	1282.88
759.059	1364.8
759.242	1323.84
759.426	1260.35
759.61	1282.88
759.794	1221.44
759.977	1205.06
760.161	1252.16
760.345	1170.24
760.528	1235.78
760.712	1229.63
760.895	1198.92
761.079	1274.69
761.263	1160
761.446	1203.01
761.63	1174.34
761.813	1227.59
761.997	1227.59
762.18	1188.68
762.364	1182.53
762.547	1145.67
762.731	1078.08
762.914	1102.66
763.098	1139.52
763.281	1088.32
763.464	1049.41
763.648	1088.32
763.831	1069.89
764.015	1053.51
764.198	1119.04
764.381	1088.32
764.564	1086.28
764.748	1024.84
764.931	1135.43
765.114	1078.08
765.297	1012.55
765.481	1098.56
765.664	1053.51
765.847	1037.13
766.03	1039.17
766.213	1018.69
766.397	1016.65
766.58	1041.22
766.763	1000.26
766.946	996.17
767.129	985.93
767.312	983.88
767.495	1010.5
767.678	1012.55
767.861	979.78
768.044	992.07
768.227	975.69
768.41	969.54
768.593	904.01
768.776	971.59
768.959	924.49
769.142	987.97
769.324	920.39
769.507	877.38
769.69	920.39
769.873	926.54
770.056	994.12
770.239	973.64
770.421	938.82
770.604	856.9
770.787	928.58
770.97	971.59
771.152	901.96
771.335	848.71
771.518	953.16
771.7	910.15
771.883	922.44
772.066	885.58
772.248	777.03
772.431	957.25
772.613	826.18
772.796	938.82
772.978	869.19
773.161	879.43
773.343	871.24
773.526	846.66
773.708	770.89
773.891	822.09
774.073	889.67
774.256	799.56
774.438	852.81
774.621	727.88
774.803	807.75
774.985	785.23
775.168	777.03
775.35	820.04
775.532	738.12
775.715	742.22
775.897	807.75
776.079	674.64
776.261	777.03
776.444	783.18
776.626	736.07
776.808	740.17
776.99	684.87
777.173	668.49
777.355	701.26
777.537	670.54
777.719	766.79
777.901	721.74
778.083	727.88
778.265	648.01
778.447	725.83
778.629	662.35
778.811	590.67
778.993	809.8
779.175	631.63
779.357	703.31
779.539	652.11
779.721	627.53
779.903	648.01
780.085	594.76
780.267	650.06
780.449	656.2
780.631	572.24
780.812	652.11
780.994	578.38
781.176	629.58
781.358	686.92
781.54	578.38
781.721	611.15
781.903	557.9
782.085	580.43
782.267	623.44
782.448	551.76
782.63	537.42
782.812	609.1
782.993	504.65
783.175	516.94
783.357	619.34
783.538	549.71
783.72	521.04
783.901	645.96
784.083	598.86
784.264	545.61
784.446	449.36
784.627	443.21
784.809	533.33
784.99	480.08
785.172	605
785.353	375.63
785.535	498.51
785.716	473.93
785.897	506.7
786.079	492.37
786.26	537.42
786.441	510.8
786.623	398.16
786.804	510.8
786.985	426.83
787.167	480.08
787.348	439.12
787.529	480.08
787.71	521.04
787.891	488.27
788.073	441.17
788.254	406.35
788.435	496.46
788.616	527.18
788.797	365.39
788.978	400.21
789.159	443.21
789.34	453.45
789.522	437.07
789.703	383.82
789.884	414.54
790.065	471.89
790.246	389.97
790.427	445.26
790.607	406.35
790.788	451.41
790.969	340.82
791.15	373.58
791.331	344.91
791.512	379.73
791.693	310.1
791.874	367.44
792.054	488.27
792.235	422.73
792.416	383.82
792.597	324.43
792.778	342.86
792.958	373.58
793.139	361.3
793.32	369.49
793.5	349.01
793.681	367.44
793.862	373.58
794.042	340.82
794.223	299.86
794.404	349.01
794.584	267.09
794.765	316.24
794.945	320.34
795.126	316.24
795.306	367.44
795.487	357.2
795.667	310.1
795.848	428.88
796.028	320.34
796.209	363.34
796.389	326.48
796.57	281.43
796.75	295.76
796.93	281.43
797.111	330.58
797.291	363.34
797.471	332.62
797.652	242.51
797.832	262.99
798.012	293.71
798.192	332.62
798.373	271.19
798.553	318.29
798.733	250.71
798.913	312.14
799.093	299.86
799.274	277.33
799.454	312.14
799.634	246.61
799.814	234.32
799.994	185.17
800.174	281.43
800.354	201.55
800.534	258.9
800.714	283.47
800.894	250.71
801.074	289.62
801.254	226.13
801.434	234.32
801.614	238.42
801.794	291.66
801.974	758.6
802.154	226.13
802.334	267.09
802.514	285.52
802.693	252.75
802.873	267.09
803.053	271.19
803.233	265.04
803.413	293.71
803.592	271.19
803.772	228.18
803.952	215.89
804.131	240.47
804.311	244.56
804.491	267.09
804.67	232.27
804.85	193.36
805.03	275.28
805.209	256.85
805.389	215.89
805.568	242.51
805.748	230.23
805.928	271.19
806.107	234.32
806.287	217.94
806.466	217.94
806.646	203.6
806.825	201.55
807.004	193.36
807.184	160.59
807.363	187.22
807.543	209.75
807.722	224.08
807.901	219.99
808.081	209.75
808.26	197.46
808.439	183.12
808.619	269.14
808.798	193.36
808.977	219.99
809.156	193.36
809.336	179.03
809.515	244.56
809.694	197.46
809.873	246.61
810.052	123.73
810.231	197.46
810.411	228.18
810.59	209.75
810.769	119.64
810.948	238.42
811.127	164.69
811.306	138.07
811.485	168.79
811.664	258.9
811.843	142.16
812.022	176.98
812.201	117.59
812.38	240.47
812.559	152.4
812.737	129.88
812.916	158.55
813.095	154.45
813.274	131.92
813.453	129.88
813.632	187.22
813.811	162.64
813.989	179.03
814.168	213.84
814.347	156.5
814.526	168.79
814.704	121.68
814.883	187.22
815.062	70.48
815.24	187.22
815.419	70.48
815.598	193.36
815.776	172.88
815.955	93.01
816.133	160.59
816.312	176.98
816.49	127.83
816.669	146.26
816.847	150.36
817.026	162.64
817.204	82.77
817.383	129.88
817.561	99.16
817.74	252.75
817.918	111.44
818.097	90.96
818.275	179.03
818.453	219.99
818.632	226.13
818.81	168.79
818.988	242.51
819.167	115.54
819.345	181.07
819.523	136.02
819.701	242.51
819.879	193.36
820.058	168.79
820.236	105.3
820.414	111.44
820.592	154.45
820.77	144.21
820.948	152.4
821.127	156.5
821.305	142.16
821.483	62.29
821.661	176.98
821.839	181.07
822.017	107.35
822.195	136.02
822.373	150.36
822.551	113.49
822.729	162.64
822.907	95.06
823.085	99.16
823.262	144.21
823.44	160.59
823.618	131.92
823.796	148.31
823.974	113.49
824.152	95.06
824.329	164.69
824.507	140.12
824.685	144.21
824.863	119.64
825.04	144.21
825.218	119.64
825.396	140.12
825.574	78.68
825.751	115.54
825.929	99.16
826.107	99.16
826.284	50
826.462	117.59
826.639	113.49
826.817	86.87
826.994	152.4
827.172	25.43
827.349	187.22
827.527	166.74
827.704	78.68
827.882	156.5
828.059	43.86
828.237	84.82
828.414	146.26
828.591	131.92
828.769	162.64
828.946	107.35
829.124	62.29
829.301	74.58
829.478	119.64
829.655	45.91
829.833	123.73
830.01	99.16
830.187	170.83
830.364	107.35
830.542	62.29
830.719	84.82
830.896	168.79
831.073	60.24
831.25	168.79
831.427	148.31
831.604	170.83
831.782	62.29
831.959	119.64
832.136	129.88
832.313	103.25
832.49	66.39
832.667	144.21
832.844	121.68
833.021	129.88
833.198	181.07
833.374	160.59
833.551	119.64
833.728	95.06
833.905	113.49
834.082	103.25
834.259	131.92
834.436	121.68
834.612	45.91
834.789	113.49
834.966	107.35
835.143	127.83
835.319	99.16
835.496	86.87
835.673	15.19
835.85	88.92
836.026	97.11
836.203	95.06
836.38	70.48
836.556	115.54
836.733	74.58
836.909	129.88
837.086	72.53
837.262	86.87
837.439	41.81
837.616	74.58
837.792	164.69
837.968	72.53
838.145	66.39
838.321	107.35
838.498	93.01
838.674	70.48
838.851	70.48
839.027	50
839.203	121.68
839.38	95.06
839.556	-3.24
839.732	136.02
839.909	144.21
840.085	43.86
840.261	88.92
840.437	97.11
840.614	54.1
840.79	66.39
840.966	80.72
841.142	66.39
841.318	72.53
841.494	54.1
841.671	66.39
841.847	23.38
842.023	45.91
842.199	58.2
842.375	90.96
842.551	-5.29
842.727	41.81
842.903	45.91
843.079	45.91
843.255	52.05
843.431	64.34
843.607	76.63
843.783	50
843.959	39.76
844.134	17.24
844.31	129.88
844.486	39.76
844.662	35.67
844.838	58.2
845.013	70.48
845.189	35.67
845.365	101.2
845.541	113.49
845.716	-15.53
845.892	168.79
846.068	35.67
846.244	80.72
846.419	90.96
846.595	123.73
846.77	7
846.946	78.68
847.122	50
847.297	76.63
847.473	133.97
847.648	-11.43
847.824	19.29
847.999	103.25
848.175	21.33
848.35	152.4
848.526	50
848.701	113.49
848.876	37.72
849.052	82.77
849.227	54.1
849.403	29.52
849.578	82.77
849.753	33.62
849.929	21.33
850.104	70.48
850.279	60.24
850.454	101.2
850.63	25.43
850.805	33.62
850.98	60.24
851.155	-5.29
851.33	109.4
851.505	-9.39
851.681	72.53
851.856	4.95
852.031	119.64
852.206	-68.78
852.381	23.38
852.556	62.29
852.731	39.76
852.906	74.58
853.081	103.25
853.256	86.87
853.431	-27.82
853.606	19.29
853.781	0.85
853.956	47.96
854.131	13.14
854.305	-58.54
854.48	103.25
854.655	21.33
854.83	47.96
855.005	64.34
855.18	119.64
855.354	70.48
855.529	29.52
855.704	-25.77
855.879	50
856.053	76.63
856.228	39.76
856.403	-25.77
856.577	86.87
856.752	31.57
856.926	-31.91
857.101	80.72
857.276	68.44
857.45	-19.63
857.625	-3.24
857.799	0.85
857.974	95.06
858.148	4.95
858.323	17.24
858.497	54.1
858.672	-19.63
858.846	-13.48
859.02	43.86
859.195	43.86
859.369	31.57
859.543	37.72
859.718	62.29
859.892	0.85
860.066	39.76
860.241	4.95
860.415	70.48
860.589	66.39
860.763	13.14
860.938	-9.39
861.112	-3.24
861.286	29.52
861.46	33.62
861.634	-48.3
861.808	62.29
861.982	-52.39
862.157	17.24
862.331	-11.43
862.505	-36.01
862.679	-1.19
862.853	-7.34
863.027	-17.58
863.201	50
863.375	56.15
863.549	47.96
863.722	70.48
863.896	78.68
864.07	37.72
864.244	50
864.418	54.1
864.592	11.09
864.766	54.1
864.939	9.05
865.113	62.29
865.287	70.48
865.461	-17.58
865.634	64.34
865.808	7
865.982	11.09
866.156	-1.19
866.329	37.72
866.503	58.2
866.676	-33.96
866.85	37.72
867.024	47.96
867.197	25.43
867.371	15.19
867.544	62.29
867.718	-40.11
867.891	2.9
868.065	21.33
868.238	-3.24
868.412	97.11
868.585	13.14
868.759	37.72
868.932	64.34
869.105	15.19
869.279	-7.34
869.452	-27.82
869.625	-5.29
869.799	-15.53
869.972	4.95
870.145	45.91
870.319	68.44
870.492	54.1
870.665	56.15
870.838	50
871.011	7
871.185	7
871.358	21.33
871.531	64.34
871.704	13.14
871.877	21.33
872.05	-1.19
872.223	-27.82
872.396	82.77
872.569	58.2
872.742	-27.82
872.915	56.15
873.088	-9.39
873.261	54.1
873.434	54.1
873.607	-40.11
873.78	78.68
873.953	23.38
874.126	-21.67
874.299	76.63
874.471	35.67
874.644	-36.01
874.817	11.09
874.99	50
875.163	68.44
875.335	56.15
875.508	11.09
875.681	64.34
875.853	13.14
876.026	-74.92
876.199	78.68
876.371	25.43
876.544	-50.35
876.717	15.19
876.889	11.09
877.062	72.53
877.234	-33.96
877.407	-17.58
877.579	17.24
877.752	39.76
877.924	-9.39
878.097	45.91
878.269	95.06
878.442	78.68
878.614	-68.78
878.786	-3.24
878.959	74.58
879.131	4.95
879.303	-27.82
879.476	-11.43
879.648	-36.01
879.82	60.24
879.993	-29.87
880.165	45.91
880.337	27.48
880.509	62.29
880.681	-58.54
880.854	-3.24
881.026	-31.91
881.198	54.1
881.37	50
881.542	-3.24
881.714	50
881.886	-27.82
882.058	45.91
882.23	37.72
882.402	-19.63
882.574	21.33
882.746	74.58
882.918	56.15
883.09	70.48
883.262	21.33
883.434	82.77
883.606	29.52
883.778	7
883.95	-5.29
884.122	-136.36
884.293	33.62
884.465	70.48
884.637	-48.3
884.809	0.85
884.98	13.14
885.152	43.86
885.324	11.09
885.496	29.52
885.667	-9.39
885.839	-21.67
886.011	54.1
886.182	45.91
886.354	29.52
886.525	50
886.697	17.24
886.869	-7.34
887.04	7
887.212	-19.63
887.383	15.19
887.555	9.05
887.726	45.91
887.897	103.25
888.069	11.09
888.24	-19.63
888.412	-1.19
888.583	66.39
888.754	23.38
888.926	13.14
889.097	7
889.268	13.14
889.44	21.33
889.611	-99.5
889.782	25.43
889.953	17.24
890.125	21.33
890.296	0.85
890.467	-3.24
890.638	23.38
890.809	-36.01
890.98	29.52
891.151	66.39
891.323	62.29
891.494	64.34
891.665	58.2
891.836	39.76
892.007	-31.91
892.178	13.14
892.349	-25.77
892.52	-19.63
892.691	54.1
892.862	-33.96
893.032	-27.82
893.203	-19.63
893.374	70.48
893.545	-9.39
893.716	-52.39
893.887	50
894.057	29.52
894.228	-11.43
894.399	-36.01
894.57	-9.39
894.74	37.72
894.911	41.81
895.082	-23.72
895.253	29.52
895.423	37.72
895.594	64.34
895.764	-40.11
895.935	56.15
896.106	31.57
896.276	31.57
896.447	70.48
896.617	39.76
896.788	-23.72
896.958	11.09
897.129	-50.35
897.299	-48.3
897.47	21.33
897.64	17.24
897.81	-50.35
897.981	7
898.151	15.19
898.322	-3.24
898.492	37.72
898.662	39.76
898.832	4.95
899.003	54.1
899.173	-36.01
899.343	17.24
899.513	37.72
