Data from USB4F104151__62__14-17-11-497.txt Node

Date: Thu Mar 13 14:17:11 EDT 2025
User: louis
Spectrometer: USB4F10415
Trigger mode: 4
Integration Time (sec): 2.000000E-2
Scans to average: 1
Electric dark correction enabled: true
Nonlinearity correction enabled: false
Boxcar width: 0
XAxis mode: Wavelengths
Number of Pixels in Spectrum: 3648
>>>>>Begin Spectral Data<<<<<
178.204	-74.41
178.424	-74.41
178.644	-74.41
178.864	-62.12
179.084	-103.08
179.304	1.37
179.524	-0.68
179.744	42.32
179.964	-10.92
180.184	-39.59
180.404	64.85
180.624	-15.02
180.844	3.41
181.064	-6.83
181.283	-17.07
181.503	-10.92
181.723	-10.92
181.943	-27.31
182.163	42.32
182.383	-51.88
182.602	46.42
182.822	17.75
183.042	-0.68
183.262	32.08
183.482	36.18
183.701	68.95
183.921	36.18
184.141	1.37
184.361	11.61
184.58	19.8
184.8	-12.97
185.02	-23.21
185.239	77.14
185.459	62.8
185.679	38.23
185.898	-49.83
186.118	-2.73
186.338	-58.03
186.557	5.46
186.777	-47.79
186.997	68.95
187.216	-15.02
187.436	116.05
187.655	91.48
187.875	25.94
188.095	30.04
188.314	50.52
188.534	36.18
188.753	50.52
188.973	5.46
189.192	79.19
189.412	-4.78
189.631	60.76
189.851	58.71
190.07	99.67
190.29	3.41
190.509	34.13
190.729	40.28
190.948	19.8
191.168	159.06
191.387	58.71
191.607	-47.79
191.826	-0.68
192.045	19.8
192.265	83.28
192.484	50.52
192.704	83.28
192.923	-35.5
193.142	75.09
193.362	21.85
193.581	77.14
193.8	44.37
194.02	34.13
194.239	-0.68
194.458	-23.21
194.678	66.9
194.897	9.56
195.116	44.37
195.335	25.94
195.555	3.41
195.774	56.66
195.993	11.61
196.212	30.04
196.432	-2.73
196.651	25.94
196.87	15.7
197.089	91.48
197.308	-12.97
197.528	77.14
197.747	-55.98
197.966	-17.07
198.185	64.85
198.404	15.7
198.623	64.85
198.842	68.95
199.062	91.48
199.281	122.2
199.5	-39.59
199.719	-6.83
199.938	103.76
200.157	11.61
200.376	-0.68
200.595	42.32
200.814	126.29
201.033	-31.4
201.252	54.61
201.471	62.8
201.69	68.95
201.909	58.71
202.128	17.75
202.347	109.91
202.566	1.37
202.785	34.13
203.004	13.65
203.223	103.76
203.442	27.99
203.661	-6.83
203.879	42.32
204.098	75.09
204.317	-15.02
204.536	42.32
204.755	11.61
204.974	-6.83
205.193	50.52
205.411	68.95
205.63	124.24
205.849	52.56
206.068	34.13
206.287	50.52
206.505	9.56
206.724	34.13
206.943	-12.97
207.162	-2.73
207.381	-6.83
207.599	38.23
207.818	25.94
208.037	-21.16
208.255	-51.88
208.474	25.94
208.693	-27.31
208.911	25.94
209.13	91.48
209.349	50.52
209.567	38.23
209.786	54.61
210.005	83.28
210.223	1.37
210.442	-4.78
210.661	-19.11
210.879	-2.73
211.098	-19.11
211.316	-10.92
211.535	60.76
211.753	21.85
211.972	77.14
212.191	-41.64
212.409	42.32
212.628	38.23
212.846	62.8
213.065	-8.87
213.283	71
213.502	42.32
213.72	-4.78
213.938	-29.35
214.157	-35.5
214.375	3.41
214.594	21.85
214.812	3.41
215.031	17.75
215.249	11.61
215.467	-12.97
215.686	81.24
215.904	17.75
216.122	36.18
216.341	91.48
216.559	42.32
216.778	23.89
216.996	68.95
217.214	32.08
217.432	36.18
217.651	60.76
217.869	-15.02
218.087	27.99
218.306	134.48
218.524	17.75
218.742	-21.16
218.96	-35.5
219.179	46.42
219.397	21.85
219.615	52.56
219.833	-15.02
220.051	-29.35
220.27	36.18
220.488	116.05
220.706	58.71
220.924	-31.4
221.142	-23.21
221.36	66.9
221.578	32.08
221.796	25.94
222.015	17.75
222.233	-27.31
222.451	107.86
222.669	-21.16
222.887	171.35
223.105	-55.98
223.323	-23.21
223.541	50.52
223.759	1.37
223.977	-21.16
224.195	101.72
224.413	36.18
224.631	66.9
224.849	-6.83
225.067	21.85
225.285	68.95
225.503	75.09
225.721	11.61
225.939	30.04
226.157	136.53
226.375	50.52
226.592	60.76
226.81	34.13
227.028	34.13
227.246	42.32
227.464	27.99
227.682	68.95
227.9	58.71
228.117	58.71
228.335	58.71
228.553	23.89
228.771	27.99
228.989	30.04
229.206	54.61
229.424	25.94
229.642	99.67
229.86	-31.4
230.077	89.43
230.295	107.86
230.513	32.08
230.731	5.46
230.948	34.13
231.166	30.04
231.384	71
231.601	-10.92
231.819	48.47
232.037	68.95
232.254	-31.4
232.472	44.37
232.689	17.75
232.907	-15.02
233.125	68.95
233.342	60.76
233.56	21.85
233.777	3.41
233.995	62.8
234.213	32.08
234.43	5.46
234.648	40.28
234.865	-31.4
235.083	38.23
235.3	140.63
235.518	19.8
235.735	19.8
235.953	36.18
236.17	17.75
236.388	87.38
236.605	17.75
236.822	89.43
237.04	85.33
237.257	54.61
237.475	-39.59
237.692	107.86
237.909	36.18
238.127	-10.92
238.344	44.37
238.562	27.99
238.779	50.52
238.996	-21.16
239.214	-4.78
239.431	140.63
239.648	25.94
239.865	30.04
240.083	27.99
240.3	-23.21
240.517	44.37
240.735	44.37
240.952	71
241.169	27.99
241.386	46.42
241.603	17.75
241.821	32.08
242.038	25.94
242.255	-39.59
242.472	-21.16
242.689	46.42
242.907	13.65
243.124	9.56
243.341	99.67
243.558	44.37
243.775	77.14
243.992	1.37
244.209	21.85
244.426	66.9
244.643	9.56
244.86	19.8
245.078	17.75
245.295	21.85
245.512	114
245.729	11.61
245.946	109.91
246.163	-6.83
246.38	11.61
246.597	9.56
246.814	50.52
247.031	52.56
247.248	17.75
247.464	64.85
247.681	-6.83
247.898	50.52
248.115	17.75
248.332	3.41
248.549	83.28
248.766	-31.4
248.983	66.9
249.2	19.8
249.417	34.13
249.633	42.32
249.85	-15.02
250.067	-2.73
250.284	54.61
250.501	71
250.717	91.48
250.934	-88.75
251.151	46.42
251.368	111.96
251.585	54.61
251.801	42.32
252.018	-12.97
252.235	13.65
252.451	81.24
252.668	62.8
252.885	62.8
253.102	40.28
253.318	30.04
253.535	44.37
253.752	46.42
253.968	-4.78
254.185	36.18
254.401	-64.17
254.618	-6.83
254.835	40.28
255.051	120.15
255.268	85.33
255.484	19.8
255.701	-43.69
255.917	32.08
256.134	54.61
256.351	-15.02
256.567	56.66
256.784	40.28
257	81.24
257.217	46.42
257.433	-2.73
257.65	79.19
257.866	40.28
258.082	13.65
258.299	-6.83
258.515	40.28
258.732	27.99
258.948	50.52
259.165	107.86
259.381	9.56
259.597	85.33
259.814	9.56
260.03	-51.88
260.246	42.32
260.463	-2.73
260.679	62.8
260.895	-39.59
261.112	13.65
261.328	5.46
261.544	17.75
261.761	23.89
261.977	-15.02
262.193	25.94
262.409	-4.78
262.626	103.76
262.842	-21.16
263.058	40.28
263.274	50.52
263.49	-19.11
263.707	42.32
263.923	3.41
264.139	9.56
264.355	42.32
264.571	36.18
264.787	68.95
265.004	38.23
265.22	17.75
265.436	3.41
265.652	-2.73
265.868	36.18
266.084	-37.55
266.3	50.52
266.516	40.28
266.732	38.23
266.948	13.65
267.164	19.8
267.38	17.75
267.596	-29.35
267.812	68.95
268.028	50.52
268.244	-15.02
268.46	46.42
268.676	-72.36
268.892	17.75
269.108	9.56
269.324	15.7
269.54	-74.41
269.756	-39.59
269.972	56.66
270.188	109.91
270.403	1.37
270.619	9.56
270.835	34.13
271.051	42.32
271.267	-45.74
271.483	91.48
271.698	40.28
271.914	11.61
272.13	27.99
272.346	40.28
272.562	-27.31
272.777	107.86
272.993	-12.97
273.209	15.7
273.425	52.56
273.64	50.52
273.856	32.08
274.072	19.8
274.287	9.56
274.503	19.8
274.719	68.95
274.934	34.13
275.15	-53.93
275.366	3.41
275.581	-33.45
275.797	-29.35
276.012	11.61
276.228	75.09
276.444	36.18
276.659	126.29
276.875	-4.78
277.09	62.8
277.306	19.8
277.521	77.14
277.737	-12.97
277.952	21.85
278.168	-19.11
278.383	42.32
278.599	13.65
278.814	34.13
279.03	101.72
279.245	32.08
279.461	44.37
279.676	3.41
279.892	3.41
280.107	46.42
280.322	-8.87
280.538	25.94
280.753	19.8
280.969	-37.55
281.184	25.94
281.399	34.13
281.615	71
281.83	25.94
282.045	-21.16
282.26	-31.4
282.476	17.75
282.691	52.56
282.906	38.23
283.122	50.52
283.337	58.71
283.552	38.23
283.767	-6.83
283.983	30.04
284.198	17.75
284.413	13.65
284.628	-4.78
284.843	-6.83
285.058	66.9
285.274	-15.02
285.489	1.37
285.704	25.94
285.919	36.18
286.134	66.9
286.349	81.24
286.564	77.14
286.779	77.14
286.995	30.04
287.21	-80.55
287.425	25.94
287.64	-39.59
287.855	56.66
288.07	5.46
288.285	52.56
288.5	21.85
288.715	3.41
288.93	-15.02
289.145	7.51
289.36	99.67
289.575	-2.73
289.79	58.71
290.004	85.33
290.219	-8.87
290.434	19.8
290.649	17.75
290.864	44.37
291.079	-64.17
291.294	-0.68
291.509	36.18
291.724	107.86
291.938	13.65
292.153	99.67
292.368	-12.97
292.583	62.8
292.798	-6.83
293.012	17.75
293.227	-17.07
293.442	48.47
293.657	66.9
293.871	71
294.086	-55.98
294.301	126.29
294.516	19.8
294.73	19.8
294.945	54.61
295.16	36.18
295.374	-15.02
295.589	25.94
295.804	54.61
296.018	62.8
296.233	-23.21
296.447	-29.35
296.662	-4.78
296.877	19.8
297.091	1.37
297.306	77.14
297.52	36.18
297.735	50.52
297.949	44.37
298.164	-19.11
298.378	42.32
298.593	-15.02
298.807	1.37
299.022	42.32
299.236	42.32
299.451	66.9
299.665	42.32
299.88	9.56
300.094	5.46
300.309	-23.21
300.523	-10.92
300.737	-53.93
300.952	-70.31
301.166	36.18
301.381	40.28
301.595	-12.97
301.809	50.52
302.024	5.46
302.238	32.08
302.452	83.28
302.667	58.71
302.881	58.71
303.095	30.04
303.309	91.48
303.524	-29.35
303.738	85.33
303.952	-66.22
304.166	38.23
304.381	-12.97
304.595	163.15
304.809	-17.07
305.023	68.95
305.237	83.28
305.452	42.32
305.666	27.99
305.88	-2.73
306.094	27.99
306.308	30.04
306.522	40.28
306.736	13.65
306.95	25.94
307.164	1.37
307.379	79.19
307.593	17.75
307.807	40.28
308.021	73.04
308.235	54.61
308.449	13.65
308.663	52.56
308.877	34.13
309.091	7.51
309.305	34.13
309.519	17.75
309.733	13.65
309.947	58.71
310.161	52.56
310.374	3.41
310.588	91.48
310.802	36.18
311.016	1.37
311.23	52.56
311.444	5.46
311.658	-17.07
311.872	38.23
312.085	52.56
312.299	25.94
312.513	116.05
312.727	60.76
312.941	30.04
313.154	109.91
313.368	48.47
313.582	144.72
313.796	62.8
314.009	-15.02
314.223	42.32
314.437	-39.59
314.651	25.94
314.864	-41.64
315.078	-4.78
315.292	107.86
315.505	-51.88
315.719	36.18
315.933	9.56
316.146	38.23
316.36	32.08
316.573	54.61
316.787	75.09
317.001	25.94
317.214	21.85
317.428	-2.73
317.641	-23.21
317.855	30.04
318.068	62.8
318.282	83.28
318.495	126.29
318.709	-29.35
318.922	52.56
319.136	91.48
319.349	75.09
319.563	66.9
319.776	124.24
319.99	107.86
320.203	136.53
320.417	54.61
320.63	64.85
320.843	79.19
321.057	95.57
321.27	62.8
321.483	44.37
321.697	66.9
321.91	36.18
322.124	71
322.337	21.85
322.55	46.42
322.763	58.71
322.977	77.14
323.19	9.56
323.403	44.37
323.617	25.94
323.83	27.99
324.043	30.04
324.256	52.56
324.469	36.18
324.683	95.57
324.896	11.61
325.109	54.61
325.322	34.13
325.535	66.9
325.748	23.89
325.962	44.37
326.175	-39.59
326.388	7.51
326.601	62.8
326.814	111.96
327.027	27.99
327.24	58.71
327.453	-53.93
327.666	25.94
327.879	87.38
328.092	73.04
328.305	27.99
328.518	17.75
328.731	58.71
328.944	75.09
329.157	83.28
329.37	83.28
329.583	124.24
329.796	30.04
330.009	34.13
330.222	34.13
330.435	75.09
330.648	42.32
330.861	1.37
331.073	50.52
331.286	77.14
331.499	50.52
331.712	48.47
331.925	44.37
332.138	17.75
332.35	73.04
332.563	9.56
332.776	116.05
332.989	-4.78
333.202	17.75
333.414	73.04
333.627	56.66
333.84	38.23
334.053	52.56
334.265	-53.93
334.478	-62.12
334.691	58.71
334.903	60.76
335.116	-12.97
335.329	79.19
335.541	19.8
335.754	13.65
335.966	54.61
336.179	71
336.392	-21.16
336.604	-0.68
336.817	111.96
337.029	38.23
337.242	-4.78
337.454	71
337.667	77.14
337.88	-6.83
338.092	44.37
338.305	36.18
338.517	52.56
338.729	-0.68
338.942	25.94
339.154	-4.78
339.367	36.18
339.579	50.52
339.792	36.18
340.004	66.9
340.217	62.8
340.429	30.04
340.641	77.14
340.854	-62.12
341.066	114
341.278	54.61
341.491	140.63
341.703	77.14
341.915	15.7
342.128	75.09
342.34	64.85
342.552	48.47
342.764	-15.02
342.977	25.94
343.189	62.8
343.401	32.08
343.613	-8.87
343.826	-37.55
344.038	-6.83
344.25	42.32
344.462	1.37
344.674	42.32
344.886	40.28
345.099	19.8
345.311	75.09
345.523	27.99
345.735	-39.59
345.947	83.28
346.159	7.51
346.371	-6.83
346.583	66.9
346.795	95.57
347.007	58.71
347.219	95.57
347.431	46.42
347.643	101.72
347.855	27.99
348.067	79.19
348.279	-15.02
348.491	9.56
348.703	25.94
348.915	-2.73
349.127	1.37
349.339	50.52
349.551	19.8
349.763	34.13
349.975	5.46
350.187	27.99
350.399	50.52
350.61	54.61
350.822	13.65
351.034	95.57
351.246	15.7
351.458	118.1
351.669	79.19
351.881	87.38
352.093	58.71
352.305	85.33
352.517	-17.07
352.728	60.76
352.94	52.56
353.152	-19.11
353.363	58.71
353.575	75.09
353.787	91.48
353.999	36.18
354.21	46.42
354.422	111.96
354.633	58.71
354.845	32.08
355.057	19.8
355.268	-19.11
355.48	87.38
355.692	23.89
355.903	15.7
356.115	38.23
356.326	9.56
356.538	50.52
356.749	-4.78
356.961	144.72
357.172	-15.02
357.384	38.23
357.595	13.65
357.807	42.32
358.018	9.56
358.23	27.99
358.441	101.72
358.653	95.57
358.864	140.63
359.075	83.28
359.287	30.04
359.498	191.83
359.709	48.47
359.921	15.7
360.132	5.46
360.344	114
360.555	21.85
360.766	101.72
360.977	99.67
361.189	91.48
361.4	124.24
361.611	91.48
361.823	85.33
362.034	87.38
362.245	9.56
362.456	50.52
362.667	27.99
362.879	58.71
363.09	111.96
363.301	103.76
363.512	5.46
363.723	-23.21
363.935	25.94
364.146	79.19
364.357	-4.78
364.568	66.9
364.779	13.65
364.99	38.23
365.201	36.18
365.412	116.05
365.623	3.41
365.834	44.37
366.045	15.7
366.256	64.85
366.467	206.16
366.678	25.94
366.889	25.94
367.1	52.56
367.311	42.32
367.522	36.18
367.733	30.04
367.944	103.76
368.155	-8.87
368.366	56.66
368.577	11.61
368.788	25.94
368.999	9.56
369.209	99.67
369.42	50.52
369.631	93.52
369.842	58.71
370.053	27.99
370.264	111.96
370.474	27.99
370.685	107.86
370.896	1.37
371.107	50.52
371.317	1.37
371.528	85.33
371.739	32.08
371.95	36.18
372.16	66.9
372.371	5.46
372.582	73.04
372.792	142.68
373.003	58.71
373.214	60.76
373.424	73.04
373.635	42.32
373.846	38.23
374.056	25.94
374.267	66.9
374.477	54.61
374.688	46.42
374.898	91.48
375.109	54.61
375.319	58.71
375.53	58.71
375.74	44.37
375.951	-23.21
376.161	42.32
376.372	44.37
376.582	66.9
376.793	118.1
377.003	34.13
377.214	34.13
377.424	64.85
377.635	105.81
377.845	30.04
378.055	34.13
378.266	-4.78
378.476	95.57
378.686	93.52
378.897	99.67
379.107	-12.97
379.317	13.65
379.528	68.95
379.738	44.37
379.948	60.76
380.158	46.42
380.369	-15.02
380.579	48.47
380.789	3.41
380.999	42.32
381.21	15.7
381.42	126.29
381.63	5.46
381.84	58.71
382.05	34.13
382.261	105.81
382.471	46.42
382.681	9.56
382.891	60.76
383.101	73.04
383.311	44.37
383.521	30.04
383.731	54.61
383.941	68.95
384.151	60.76
384.361	62.8
384.571	19.8
384.781	66.9
384.991	124.24
385.201	116.05
385.411	91.48
385.621	75.09
385.831	85.33
386.041	83.28
386.251	-29.35
386.461	75.09
386.671	5.46
386.881	48.47
387.091	34.13
387.301	83.28
387.511	52.56
387.72	85.33
387.93	114
388.14	134.48
388.35	46.42
388.56	87.38
388.769	32.08
388.979	32.08
389.189	62.8
389.399	-27.31
389.609	30.04
389.818	50.52
390.028	87.38
390.238	42.32
390.447	27.99
390.657	42.32
390.867	-2.73
391.076	23.89
391.286	99.67
391.496	99.67
391.705	73.04
391.915	140.63
392.125	68.95
392.334	-10.92
392.544	19.8
392.753	111.96
392.963	-10.92
393.172	85.33
393.382	23.89
393.591	75.09
393.801	134.48
394.01	62.8
394.22	140.63
394.429	66.9
394.639	83.28
394.848	103.76
395.058	42.32
395.267	122.2
395.477	77.14
395.686	42.32
395.895	50.52
396.105	99.67
396.314	73.04
396.524	64.85
396.733	75.09
396.942	66.9
397.152	118.1
397.361	177.49
397.57	109.91
397.78	68.95
397.989	124.24
398.198	144.72
398.407	50.52
398.617	58.71
398.826	107.86
399.035	42.32
399.244	75.09
399.453	114
399.663	79.19
399.872	99.67
400.081	38.23
400.29	107.86
400.499	136.53
400.708	111.96
400.917	77.14
401.127	103.76
401.336	97.62
401.545	144.72
401.754	128.34
401.963	128.34
402.172	83.28
402.381	103.76
402.59	128.34
402.799	146.77
403.008	144.72
403.217	124.24
403.426	148.82
403.635	134.48
403.844	58.71
404.053	185.68
404.262	116.05
404.471	163.15
404.68	93.52
404.888	132.44
405.097	95.57
405.306	189.78
405.515	150.87
405.724	124.24
405.933	197.97
406.142	148.82
406.35	197.97
406.559	191.83
406.768	222.55
406.977	124.24
407.185	193.87
407.394	173.39
407.603	165.2
407.812	214.35
408.02	249.17
408.229	245.07
408.438	218.45
408.646	195.92
408.855	294.22
409.064	271.7
409.272	275.79
409.481	279.89
409.69	326.99
409.898	245.07
410.107	251.22
410.315	337.23
410.524	355.66
410.733	372.05
410.941	324.94
411.15	296.27
411.358	353.62
411.567	525.65
411.775	460.11
411.984	425.29
412.192	419.15
412.401	343.38
412.609	410.96
412.818	460.11
413.026	437.58
413.234	568.65
413.443	443.73
413.651	492.88
413.86	603.47
414.068	669
414.276	574.8
414.485	664.91
414.693	724.3
414.901	669
415.11	681.29
415.318	714.06
415.526	746.83
415.734	746.83
415.943	761.16
416.151	830.79
416.359	798.03
416.567	886.09
416.776	824.65
416.984	910.66
417.192	988.49
417.4	965.96
417.608	925
417.817	1043.78
418.025	1037.64
418.233	1160.52
418.441	1060.17
418.649	1244.48
418.857	1279.3
419.065	1373.5
419.273	1260.87
419.481	1357.12
419.689	1373.5
419.897	1490.24
420.105	1471.81
420.313	1486.14
420.521	1500.48
420.729	1574.21
420.937	1635.64
421.145	1762.62
421.353	1811.77
421.561	1895.74
421.769	1914.17
421.977	2065.72
422.185	2049.33
422.393	2176.31
422.601	2280.75
422.809	2196.79
423.017	2151.73
423.224	2483.5
423.432	2413.87
423.64	2393.39
423.848	2757.93
424.056	2549.04
424.263	2841.9
424.471	2770.22
424.679	2815.27
424.887	2905.39
425.094	3030.31
425.302	3097.89
425.51	3196.2
425.718	3204.39
425.925	3390.75
426.133	3530.02
426.341	3648.8
426.548	3798.3
426.756	3689.76
426.964	3855.64
427.171	4166.93
427.379	4234.52
427.586	4248.85
427.794	4459.79
428.001	4629.77
428.209	4766.99
428.417	4691.21
428.624	4994.31
428.832	4949.26
429.039	4934.92
429.247	5002.51
429.454	5532.93
429.662	6016.25
429.869	5549.31
430.076	5936.38
430.284	5793.02
430.491	5997.82
430.699	6149.37
430.906	6296.82
431.114	6407.41
431.321	6786.29
431.528	6839.53
431.736	7066.86
431.943	7439.59
432.15	7183.59
432.358	7292.13
432.565	7677.15
432.772	7687.39
432.979	8211.67
433.187	8469.72
433.394	8373.46
433.601	8907.98
433.808	9051.34
434.016	8807.63
434.223	9206.98
434.43	9749.7
434.637	9555.14
434.844	10187.96
435.052	10370.23
435.259	10101.95
435.466	10427.57
435.673	10421.43
435.88	11062.44
436.087	11535.53
436.294	11480.23
436.501	11429.03
436.708	11568.29
436.915	12051.61
437.122	12332.19
437.329	12567.7
437.537	12823.7
437.743	12985.49
437.95	12913.81
438.157	13491.34
438.364	13737.09
438.571	13976.7
438.778	13884.55
438.985	15369.32
439.192	14625.91
439.399	15121.52
439.606	14707.83
439.813	15821.92
440.02	16815.19
440.227	16360.54
440.433	16247.9
440.64	16622.68
440.847	16688.21
441.054	16989.27
441.261	18138.18
441.467	17785.93
441.674	18056.26
441.881	18877.49
442.088	18859.06
442.294	18914.36
442.501	19301.42
442.708	19579.95
442.914	20433.95
443.121	21388.3
443.328	20759.58
443.534	22154.24
443.741	21767.18
443.948	21091.35
444.154	22715.39
444.361	22594.56
444.568	22731.77
444.774	22692.86
444.981	22807.55
445.187	23743.47
445.394	25002.97
445.6	24579.04
445.807	26676.16
446.013	25539.54
446.22	25695.18
446.426	26864.57
446.633	27399.09
446.839	28263.33
447.046	27132.86
447.252	28611.49
447.459	28484.51
447.665	28380.07
447.871	29696.91
448.078	31038.33
448.284	29330.33
448.491	30817.15
448.697	31404.92
448.903	32127.85
449.11	32195.43
449.316	31826.8
449.522	32406.37
449.728	32693.09
449.935	33676.12
450.141	32918.37
450.347	33801.04
450.553	32932.7
450.76	33690.45
450.966	34718.53
451.172	33891.15
451.378	34915.14
451.584	34304.84
451.791	35146.56
451.997	35015.49
452.203	35300.15
452.409	35855.15
452.615	35611.45
452.821	34327.37
453.027	33739.6
453.233	35474.23
453.44	34118.48
453.646	34331.47
453.852	34816.83
454.058	35478.33
454.264	34118.48
454.47	34835.27
454.676	34083.66
454.882	35486.52
455.088	32236.39
455.294	32793.44
455.5	33188.7
455.705	33526.61
455.911	31988.59
456.117	31812.46
456.323	31402.87
456.529	29424.53
456.735	31132.54
456.941	30049.16
457.147	29625.23
457.352	28783.52
457.558	28445.6
457.764	28511.14
457.97	28382.12
458.176	27433.91
458.381	27358.13
458.587	26291.14
458.793	25932.75
458.999	24663
459.204	26461.12
459.41	25385.94
459.616	24089.57
459.821	24116.2
460.027	24093.67
460.233	23673.84
460.438	22332.42
460.644	22580.22
460.85	21496.85
461.055	21093.4
461.261	20941.85
461.466	19663.91
461.672	19063.86
461.878	20452.38
462.083	19254.32
462.289	18687.03
462.494	18555.96
462.7	17804.36
462.905	17181.78
463.111	17605.7
463.316	17847.36
463.522	17417.29
463.727	17466.44
463.932	17341.52
464.138	17194.06
464.343	17476.68
464.549	16905.3
464.754	17222.73
464.959	17394.76
465.165	17298.51
465.37	16356.44
465.575	15963.23
465.781	16483.42
465.986	16700.5
466.191	16163.93
466.397	15633.51
466.602	15025.26
466.807	15486.06
467.012	15578.22
467.218	15289.45
467.423	15357.03
467.628	15381.61
467.833	15952.99
468.038	15469.67
468.244	15197.29
468.449	15506.54
468.654	15144.05
468.859	14943.35
469.064	15039.6
469.269	14251.13
469.474	14124.16
469.679	14722.16
469.885	14347.39
470.09	14597.24
470.295	14476.41
470.5	14111.87
470.705	14224.51
470.91	14042.24
471.115	13608.07
471.32	13958.27
471.525	13845.63
471.73	13745.28
471.935	13487.24
472.139	13198.48
472.344	13321.35
472.549	13022.35
472.754	13063.31
472.959	12620.95
473.164	12457.11
473.369	12201.12
473.574	12776.59
473.778	12573.85
473.983	12467.35
474.188	12602.52
474.393	11764.9
474.598	11998.37
474.802	11871.39
475.007	11615.4
475.212	11668.64
475.417	11265.19
475.621	11379.88
475.826	11461.8
476.031	11125.93
476.235	10923.18
476.44	11150.51
476.645	10962.09
476.849	10937.52
477.054	10738.87
477.259	10464.44
477.463	10572.98
477.668	10658.99
477.872	10513.59
478.077	10450.1
478.282	10161.34
478.486	9909.44
478.691	9845.95
478.895	10024.12
479.1	9776.32
479.304	9979.07
479.509	9440.45
479.713	9704.64
479.918	9626.82
480.122	9364.68
480.326	9594.05
480.531	9626.82
480.735	9434.31
480.94	9319.62
481.144	9641.15
481.348	9231.56
481.553	9237.7
481.757	9059.53
481.961	9104.59
482.166	9376.97
482.37	9290.95
482.574	8918.22
482.778	9344.2
482.983	9301.19
483.187	9145.55
483.391	9129.16
483.595	8948.94
483.8	8789.2
484.004	8961.23
484.208	9190.6
484.412	9034.96
484.616	9080.01
484.821	9225.42
485.025	9073.87
485.229	8996.04
485.433	8758.48
485.637	9116.87
485.841	9061.58
486.045	9020.62
486.249	9272.52
486.453	8950.99
486.657	9172.17
486.861	9131.21
487.065	9024.72
487.269	9204.94
487.473	8914.13
487.677	9104.59
487.881	9118.92
488.085	8979.66
488.289	9241.8
488.493	9131.21
488.697	9213.13
488.901	9237.7
489.105	8914.13
489.309	9274.57
489.512	9077.96
489.716	9270.47
489.92	9245.9
490.124	9231.56
490.328	9293
490.531	9073.87
490.735	9549
490.939	9424.07
491.143	9315.53
491.346	9389.25
491.55	9557.19
491.754	9655.49
491.958	9577.67
492.161	9585.86
492.365	9692.35
492.569	9512.13
492.772	9620.67
492.976	9768.13
493.18	9796.8
493.383	9807.04
493.587	9899.2
493.79	9944.25
493.994	10001.6
494.197	9948.35
494.401	10351.8
494.605	10249.4
494.808	10239.16
495.012	10464.44
495.215	10341.56
495.419	10652.85
495.622	10454.2
495.825	10767.54
496.029	10642.61
496.232	10831.02
496.436	10640.56
496.639	11199.66
496.843	10962.09
497.046	11175.08
497.249	11269.29
497.453	11408.55
497.656	11547.81
497.859	11764.9
498.063	11547.81
498.266	11969.69
498.469	11744.42
498.673	11824.29
498.876	12115.1
499.079	12397.72
499.282	12127.39
499.485	12682.39
499.689	12600.47
499.892	12579.99
500.095	12706.96
500.298	13110.41
500.501	12940.43
500.705	13370.51
500.908	13597.83
501.111	13597.83
501.314	13825.15
501.517	13884.55
501.72	13935.74
501.923	14009.47
502.126	14453.88
502.329	14562.42
502.532	14673.01
502.735	14722.16
502.938	14908.53
503.141	14945.39
503.344	15096.94
503.547	15402.09
503.75	15572.07
503.953	15907.94
504.156	16030.82
504.359	16098.4
504.562	15938.66
504.765	16495.71
504.968	16510.04
505.17	16919.64
505.373	16698.45
505.576	17321.04
505.779	17185.87
505.982	17411.15
506.185	17888.32
506.387	17757.25
506.59	18216
506.793	18424.89
506.996	18197.57
507.198	18717.75
507.401	18662.46
507.604	19070
507.807	19235.89
508.009	19303.47
508.212	19450.92
508.415	19545.13
508.617	20040.74
508.82	20087.84
509.022	19735.59
509.225	20255.78
509.428	20841.5
509.63	20685.85
509.833	20859.93
510.035	21472.27
510.238	21269.52
510.44	21775.37
510.643	21879.82
510.845	22246.4
511.048	21898.25
511.25	22178.82
511.453	22555.65
511.655	23235.57
511.858	23108.6
512.06	23294.96
512.262	23696.36
512.465	23694.32
512.667	23682.03
512.87	24220.64
513.072	24140.77
513.274	24556.51
513.477	24812.51
513.679	25228.24
513.881	25474
514.084	25611.21
514.286	25736.14
514.488	26145.73
514.69	26598.34
514.893	26862.52
515.095	26684.35
515.297	27182.01
515.499	27188.15
515.701	27278.26
515.904	27605.94
516.106	28064.68
516.308	28036.01
516.51	28410.79
516.712	28402.6
516.914	28906.4
517.116	28793.76
517.318	29217.69
517.52	29680.53
517.722	29631.38
517.925	29963.15
518.127	30223.24
518.329	30460.8
518.531	30419.85
518.733	30974.84
518.935	31548.28
519.136	31343.48
519.338	31728.5
519.54	31765.36
519.742	32230.25
519.944	32031.6
520.146	32717.67
520.348	32875.36
520.55	33207.13
520.752	33205.08
520.954	33780.56
521.155	33631.06
521.357	34054.99
521.559	34300.75
521.761	34829.12
521.963	34564.93
522.164	35109.69
522.366	34964.29
522.568	35449.66
522.77	35404.6
522.971	35638.07
523.173	35650.36
523.375	36406.06
523.576	36436.78
523.778	36379.43
523.98	36971.3
524.181	37090.08
524.383	36739.88
524.584	37651.22
524.786	37311.26
524.988	37329.69
525.189	38130.45
525.391	38232.85
525.592	38216.46
525.794	38855.43
525.995	38675.21
526.197	38380.3
526.398	38599.43
526.6	39240.45
526.801	39037.7
527.003	39418.62
527.204	39379.71
527.406	39686.9
527.607	39842.55
527.808	39932.66
528.01	39457.53
528.211	39813.88
528.412	40479.47
528.614	40252.14
528.815	40194.8
529.016	40762.09
529.218	40473.32
529.419	40596.2
529.62	41114.34
529.822	40504.04
530.023	40772.33
530.224	40907.49
530.425	40833.77
530.626	40815.33
530.828	41046.75
531.029	41562.84
531.23	41220.83
531.431	41177.82
531.632	41153.25
531.833	41360.09
532.035	41568.99
532.236	41378.53
532.437	41929.43
532.638	41143.01
532.839	41716.44
533.04	41687.77
533.241	41364.19
533.442	42457.81
533.643	41577.18
533.844	41480.92
534.045	42005.2
534.246	41030.37
534.447	41939.67
534.648	41599.71
534.849	41947.86
535.05	41339.61
535.251	41859.8
535.451	41761.5
535.652	41810.65
535.853	41585.37
536.054	42136.27
536.255	41818.84
536.456	41442.01
536.657	42519.24
536.857	41679.58
537.058	41775.83
537.259	42156.75
537.46	42123.99
537.66	41958.1
537.861	42103.51
538.062	41677.53
538.263	41861.85
538.463	41394.91
538.664	41867.99
538.865	41927.38
539.065	42367.69
539.266	41515.74
539.466	41900.76
539.667	41655
539.868	42074.84
540.068	41659.1
540.269	41509.6
540.469	42048.21
540.67	42056.4
540.87	41687.77
541.071	41884.37
541.271	42089.17
541.472	41695.96
541.672	41429.73
541.873	41497.31
542.073	41517.79
542.274	42023.64
542.474	41693.91
542.675	41528.03
542.875	42005.2
543.075	41845.46
543.276	41370.33
543.476	42117.84
543.676	41423.58
543.877	42013.4
544.077	41591.51
544.277	41253.6
544.478	41956.05
544.678	41882.33
544.878	41874.13
545.078	41630.43
545.279	41536.22
545.479	41257.7
545.679	41343.71
545.879	41372.38
546.079	41728.73
546.28	41186.02
546.48	41294.56
546.68	41835.22
546.88	41337.57
547.08	41593.56
547.28	41317.09
547.48	41259.74
547.68	41673.43
547.88	41331.42
548.081	41853.65
548.281	41396.96
548.481	41386.72
548.681	41581.27
548.881	41599.71
549.081	41253.6
549.28	41325.28
549.48	41652.95
549.68	41282.27
549.88	42015.44
550.08	41345.76
550.28	41341.66
550.48	41523.93
550.68	41566.94
550.88	40927.97
551.08	41212.64
551.279	41849.56
551.479	41136.87
551.679	41308.89
551.879	41034.47
552.079	41261.79
552.278	41255.65
552.478	41331.42
552.678	41323.23
552.878	41163.49
553.077	40874.73
553.277	40770.28
553.477	41810.65
553.676	40760.04
553.876	40833.77
554.076	41100
554.275	41245.41
554.475	40653.54
554.674	41034.47
554.874	40954.6
555.074	40825.57
555.273	40729.32
555.473	40835.81
555.672	40936.16
555.872	40850.15
556.071	40762.09
556.271	40942.31
556.47	40813.29
556.67	40444.65
556.869	40622.83
557.068	40489.71
557.268	40106.74
557.467	40563.43
557.667	39877.36
557.866	40420.08
558.065	40057.59
558.265	40125.17
558.464	40022.77
558.663	40811.24
558.863	40102.64
559.062	40567.53
559.261	40135.41
559.461	40182.51
559.66	39508.73
559.859	40076.02
560.058	39807.73
560.258	39973.62
560.457	39486.2
560.656	40139.5
560.855	39242.49
561.054	40014.58
561.253	39265.02
561.453	39623.42
561.652	39445.24
561.851	39521.02
562.05	39172.86
562.249	39076.61
562.448	39490.3
562.647	39287.55
562.846	38957.83
563.045	39054.08
563.244	38943.49
563.443	38896.39
563.642	38462.22
563.841	38800.13
564.04	38449.93
564.239	39009.03
564.438	38259.47
564.637	38474.51
564.836	38722.31
565.035	38382.35
565.234	38693.64
565.432	37823.25
565.631	38372.11
565.83	38279.95
566.029	37776.15
566.228	37978.9
566.427	37896.98
566.625	38015.76
566.824	37444.38
567.023	37800.72
567.222	37356.32
567.42	37753.62
567.619	37532.44
567.818	38089.49
568.016	37638.93
568.215	37714.71
568.414	37038.88
568.612	37522.2
568.811	37196.57
569.01	37057.31
569.208	36807.46
569.407	37114.65
569.605	36664.1
569.804	37151.52
570.002	36690.73
570.201	36791.08
570.4	36426.54
570.598	36399.91
570.797	36197.17
570.995	36031.28
571.193	35738.42
571.392	36121.39
571.59	36016.94
571.789	36348.71
571.987	36346.67
572.186	35896.11
572.384	35930.93
572.582	35935.02
572.781	35601.21
572.979	34980.67
573.177	35533.62
573.376	35351.35
573.574	35203.9
573.772	35263.29
573.971	35232.57
574.169	34745.16
574.367	34480.97
574.565	34892.61
574.763	34677.57
574.962	34706.24
575.16	34247.5
575.358	34696
575.556	34136.91
575.754	34569.03
575.952	33758.03
576.151	34349.9
576.349	33710.93
576.547	34069.33
576.745	33887.06
576.943	34120.52
577.141	33895.25
577.339	33803.09
577.537	33489.75
577.735	33436.5
577.933	33440.6
578.131	33504.09
578.329	33424.22
578.527	33153.88
578.725	33360.73
578.923	33336.15
579.121	33446.74
579.319	32686.95
579.516	33231.71
579.714	32865.12
579.912	32525.16
580.11	32574.31
580.308	32832.35
580.506	32439.14
580.704	32185.19
580.901	32584.55
581.099	32656.23
581.297	32187.24
581.495	32174.95
581.692	32179.05
581.89	32490.34
582.088	32056.17
582.285	32017.26
582.483	32019.31
582.681	31834.99
582.878	31499.12
583.076	31071.1
583.274	31579
583.471	31120.25
583.669	31308.66
583.866	31257.46
584.064	31464.31
584.262	30864.25
584.459	31241.08
584.657	31075.2
584.854	31153.02
585.052	30512
585.249	30632.83
585.447	30747.52
585.644	30407.56
585.841	30663.55
586.039	30638.98
586.236	30364.55
586.434	30245.77
586.631	30061.45
586.828	30479.24
587.026	30112.65
587.223	30100.36
587.42	29653.9
587.618	29821.84
587.815	29801.36
588.012	29664.14
588.21	29561.75
588.407	29563.79
588.604	29369.24
588.801	29111.19
588.999	29211.54
589.196	29133.72
589.393	29297.56
589.59	29045.66
589.787	29051.8
589.984	28908.44
590.182	28584.87
590.379	28513.19
590.576	28308.39
590.773	28533.67
590.97	28382.12
591.167	28621.73
591.364	27796.4
591.561	28267.43
591.758	27939.75
591.955	27823.02
592.152	27980.71
592.349	27947.95
592.546	27986.86
592.743	27575.22
592.94	27452.34
593.137	27712.43
593.334	27450.29
593.531	27550.64
593.727	27521.97
593.924	27331.51
594.121	26817.47
594.318	27077.56
594.515	26889.15
594.712	27110.33
594.908	26672.06
595.105	26946.49
595.302	26442.69
595.499	26729.41
595.696	26692.54
595.892	26336.2
596.089	26366.91
596.286	26407.87
596.482	26323.91
596.679	26549.18
596.876	26287.04
597.072	26567.62
597.269	26293.19
597.466	25973.7
597.662	25512.91
597.859	25787.34
598.055	26074.06
598.252	25723.85
598.448	25856.97
598.645	25521.1
598.841	25228.24
599.038	25252.82
599.234	25533.39
599.431	24898.52
599.627	25119.7
599.824	25451.47
600.02	25088.98
600.217	25148.37
600.413	24699.87
600.609	24835.03
600.806	24896.47
601.002	24634.33
601.198	24552.41
601.395	24138.72
601.591	24347.62
601.787	24222.69
601.984	24208.36
602.18	24445.92
602.376	23913.45
602.572	24038.37
602.769	24185.83
602.965	23641.07
603.161	24067.05
603.357	23688.17
603.553	23696.36
603.75	23700.46
603.946	23612.4
604.142	23823.34
604.338	23233.52
604.534	23710.7
604.73	23219.19
604.926	23370.74
605.122	23448.56
605.318	22985.72
605.514	22977.53
605.71	23026.68
605.906	22762.49
606.102	22881.27
606.298	22858.74
606.494	22496.25
606.69	22412.29
606.886	23024.63
607.082	22629.37
607.278	22782.97
607.474	22340.61
607.67	22633.47
607.866	22256.64
608.062	22717.43
608.257	22213.63
608.453	22332.42
608.649	22064.13
608.845	21969.93
609.041	21971.97
609.236	21928.97
609.432	21883.91
609.628	21879.82
609.824	21781.51
610.019	21838.86
610.215	21967.88
610.411	21996.55
610.606	21877.77
610.802	21949.45
610.998	21382.16
611.193	21734.41
611.389	21459.98
611.584	21484.56
611.78	21496.85
611.976	21203.99
612.171	21560.33
612.367	21140.5
612.562	21226.51
612.758	21058.58
612.953	21156.88
613.149	21089.3
613.344	20798.49
613.539	21310.48
613.735	20970.52
613.93	21150.74
614.126	21003.28
614.321	21355.54
614.517	20866.07
614.712	20784.15
614.907	20931.61
615.103	20855.83
615.298	20665.37
615.493	21087.25
615.688	20454.43
615.884	21025.81
616.079	20427.81
616.274	20548.64
616.47	20603.93
616.665	20309.02
616.86	20315.17
617.055	20182.05
617.25	20165.67
617.445	20368.41
617.641	19948.58
617.836	19893.29
618.031	19809.32
618.226	20268.06
618.421	19760.17
618.616	20001.83
618.811	19551.27
619.006	19815.46
619.201	19399.73
619.396	19860.52
619.591	19326
619.786	19559.47
619.981	19264.56
620.176	19334.19
620.371	19020.85
620.566	19201.07
620.761	18996.28
620.956	19162.16
621.151	18560.06
621.346	18801.72
621.541	18383.93
621.735	18777.14
621.93	18289.73
622.125	18363.45
622.32	18121.79
622.515	18455.61
622.709	18070.59
622.904	18129.98
623.099	17642.57
623.294	18033.73
623.488	17699.91
623.683	18154.56
623.878	17347.66
624.072	17562.7
624.267	17417.29
624.462	17405
624.656	17304.65
624.851	17296.46
625.046	17509.45
625.24	17255.5
625.435	16843.86
625.629	16702.55
625.824	16618.58
626.018	16770.13
626.213	16507.99
626.407	16528.47
626.602	16303.2
626.796	16188.51
626.991	16417.88
627.185	16213.09
627.38	16073.82
627.574	15959.14
627.768	15887.46
627.963	15840.36
628.157	15688.81
628.352	15598.7
628.546	15606.89
628.74	15590.5
628.935	15271.02
629.129	15273.07
629.323	15019.12
629.517	14892.15
629.712	15346.8
629.906	15037.55
630.1	14840.95
630.294	14646.39
630.489	14836.85
630.683	14732.4
630.877	14521.46
631.071	14765.17
631.265	14292.09
631.459	14324.86
631.653	14439.54
631.848	14183.55
632.042	14124.16
632.236	14378.11
632.43	13808.77
632.624	14087.29
632.818	13952.13
633.012	13683.84
633.206	13649.03
633.4	13737.09
633.594	13452.42
633.788	13511.82
633.982	13509.77
634.176	13425.8
634.369	13116.56
634.563	13245.58
634.757	13124.75
634.951	12924.05
635.145	13163.66
635.339	12993.68
635.533	13186.19
635.726	12940.43
635.92	12747.92
636.114	12776.59
636.308	12395.67
636.501	12723.35
636.695	12610.71
636.889	12485.78
637.083	12461.21
637.276	12317.85
637.47	12162.2
637.664	12041.37
637.857	12217.5
638.051	12266.65
638.244	11973.79
638.438	11979.93
638.632	11824.29
638.825	11791.52
639.019	11852.96
639.212	11873.44
639.406	11660.45
639.599	11537.57
639.793	11463.85
639.986	11199.66
640.18	11377.83
640.373	11373.74
640.567	11136.17
640.76	11257
640.954	11240.62
641.147	11011.25
641.34	11021.49
641.534	10855.6
641.727	11025.58
641.92	10960.05
642.114	10732.72
642.307	10675.38
642.5	10675.38
642.694	10253.5
642.887	10560.69
643.08	10511.54
643.273	10323.13
643.467	10462.39
643.66	10349.75
643.853	10267.83
644.046	10357.94
644.239	10243.26
644.432	10153.15
644.626	10128.57
644.819	9950.4
645.012	10005.69
645.205	10101.95
645.398	10017.98
645.591	9882.81
645.784	9802.94
645.977	9784.51
646.17	9536.71
646.363	9546.95
646.556	9479.36
646.749	9565.38
646.942	9661.63
647.135	9360.58
647.328	9282.76
647.521	9272.52
647.714	9309.38
647.907	9186.51
648.099	8969.42
648.292	9051.34
648.485	8942.8
648.678	8873.17
648.871	9030.86
649.064	8776.91
649.256	8924.37
649.449	8754.38
649.642	8791.25
649.835	8627.41
650.027	8451.28
650.22	8694.99
650.413	8529.11
650.605	8586.45
650.798	8539.35
650.991	8371.41
651.183	8549.59
651.376	8230.1
651.568	8486.1
651.761	8303.83
651.954	8103.13
652.146	8135.9
652.339	8183
652.531	8244.44
652.724	8127.71
652.916	7961.82
653.109	7955.68
653.301	7775.45
653.494	7959.77
653.686	7865.57
653.879	7779.55
654.071	7787.74
654.263	7808.22
654.456	7720.16
654.648	7732.45
654.84	7599.33
655.033	7523.55
655.225	7630.05
655.417	7562.47
655.61	7505.12
655.802	7417.06
655.994	7523.55
656.186	7283.94
656.379	7376.1
656.571	7367.91
656.763	7261.41
656.955	7169.26
657.148	7212.26
657.34	7097.58
657.532	7097.58
657.724	7118.06
657.916	7011.56
658.108	6714.61
658.3	7017.71
658.492	6943.98
658.684	6774
658.876	6759.66
659.068	6917.36
659.26	6751.47
659.452	6841.58
659.644	6657.26
659.836	6720.75
660.028	6630.64
660.22	6657.26
660.412	6532.34
660.604	6458.61
660.796	6470.9
660.988	6364.4
661.18	6466.8
661.372	6554.87
661.563	6466.8
661.755	6407.41
661.947	6384.88
662.139	6219
662.331	6266.1
662.522	6049.02
662.714	6075.64
662.906	6071.54
663.097	6063.35
663.289	6032.63
663.481	6012.15
663.673	5971.19
663.864	6079.74
664.056	5924.09
664.247	6042.87
664.439	5858.56
664.631	5983.48
664.822	5881.08
665.014	5793.02
665.205	5891.32
665.397	5797.12
665.588	5786.88
665.78	5719.29
665.971	5666.05
666.163	5672.19
666.354	5645.57
666.546	5649.66
666.737	5463.3
666.929	5539.07
667.12	5481.73
667.311	5555.46
667.503	5459.2
667.694	5522.69
667.885	5371.14
668.077	5473.54
668.268	5367.04
668.459	5430.53
668.651	5205.25
668.842	5293.32
669.033	5219.59
669.224	5266.69
669.416	5264.64
669.607	5285.12
669.798	5221.64
669.989	5301.51
670.18	5188.87
670.371	5113.1
670.563	4930.83
670.754	5063.94
670.945	5059.85
671.136	5029.13
671.327	4969.74
671.518	4902.15
671.709	4986.12
671.9	5002.51
672.091	4992.27
672.282	4793.61
672.473	4859.15
672.664	4867.34
672.855	4685.07
673.046	4705.55
673.237	4828.43
673.428	4764.94
673.619	4754.7
673.809	4695.31
674	4764.94
674.191	4562.19
674.382	4580.62
674.573	4654.35
674.764	4654.35
674.954	4664.59
675.145	4662.54
675.336	4594.96
675.527	4570.38
675.717	4439.31
675.908	4584.72
676.099	4474.13
676.289	4410.64
676.48	4672.78
676.671	4640.01
676.861	4474.13
677.052	4441.36
677.243	4494.61
677.433	4510.99
677.624	4445.46
677.814	4408.59
678.005	4408.59
678.195	4482.32
678.386	4257.04
678.576	4351.25
678.767	4353.3
678.957	4304.15
679.148	4300.05
679.338	4441.36
679.529	4257.04
679.719	4072.73
679.909	4384.02
680.1	4211.99
680.29	4255
680.481	4183.32
680.671	4205.85
680.861	4191.51
681.052	4259.09
681.242	4230.42
681.432	4125.97
681.622	4207.89
681.813	4195.61
682.003	4183.32
682.193	4201.75
682.383	4154.65
682.573	4013.34
682.764	4214.04
682.954	4097.3
683.144	4203.8
683.334	4076.82
683.524	4093.21
683.714	4242.71
683.904	3951.9
684.094	4179.22
684.284	4080.92
684.474	4064.54
684.664	4203.8
684.854	4035.86
685.044	4113.69
685.234	3966.23
685.424	4015.38
685.614	4003.1
685.804	3890.46
685.994	3968.28
686.184	3841.31
686.374	3896.6
686.564	3859.74
686.753	3949.85
686.943	3960.09
687.133	3955.99
687.323	3872.03
687.513	3833.11
687.702	3802.4
687.892	3841.31
688.082	3706.14
688.272	3917.08
688.461	3673.37
688.651	3855.64
688.841	3745.05
689.03	3689.76
689.22	3714.33
689.41	3671.33
689.599	3673.37
689.789	3622.17
689.979	3558.69
690.168	3646.75
690.358	3704.09
690.547	3667.23
690.737	3716.38
690.926	3523.87
691.116	3628.32
691.305	3568.93
691.495	3599.65
691.684	3532.06
691.874	3556.64
692.063	3429.66
692.252	3421.47
692.442	3470.62
692.631	3286.31
692.82	3429.66
693.01	3349.79
693.199	3384.61
693.388	3351.84
693.578	3267.88
693.767	3347.75
693.956	3280.16
694.146	3261.73
694.335	3200.29
694.524	3173.67
694.713	3362.08
694.902	3251.49
695.092	3261.73
695.281	3257.64
695.47	3329.31
695.659	3376.42
695.848	3226.92
696.037	3210.53
696.226	3255.59
696.415	3200.29
696.604	3216.68
696.793	3247.4
696.982	3122.47
697.171	3208.48
697.36	3163.43
697.549	3165.48
697.738	3171.62
697.927	3081.51
698.116	3183.91
698.305	3147.05
698.494	3061.03
698.683	3087.65
698.872	3089.7
699.061	3128.61
699.25	3081.51
699.438	3013.93
699.627	2932.01
699.816	2997.54
700.005	3007.78
700.193	3046.69
700.382	2938.15
700.571	2975.02
700.76	3165.48
700.948	2968.87
701.137	2985.26
701.326	2958.63
701.514	3007.78
701.703	3024.17
701.892	2983.21
702.08	3061.03
702.269	2934.06
702.457	3007.78
702.646	2964.78
702.834	2962.73
703.023	2950.44
703.212	3073.32
703.4	2983.21
703.589	2962.73
703.777	2911.53
703.965	2835.75
704.154	2954.54
704.342	2889
704.531	2989.35
704.719	2921.77
704.907	2956.58
705.096	2942.25
705.284	3020.07
705.472	2979.11
705.661	2880.81
705.849	2835.75
706.037	2942.25
706.226	2794.79
706.414	2889
706.602	3022.12
706.79	2835.75
706.979	2889
707.167	2782.51
707.355	2762.03
707.543	2835.75
707.731	2864.43
707.919	2772.27
708.107	2843.95
708.296	2712.88
708.484	2860.33
708.672	2811.18
708.86	2745.64
709.048	2780.46
709.236	2798.89
709.424	2802.99
709.612	2755.88
709.8	2698.54
709.988	2655.53
710.176	2798.89
710.364	2782.51
710.551	2766.12
710.739	2702.64
710.927	2680.11
711.115	2616.62
711.303	2678.06
711.491	2583.85
711.679	2614.57
711.866	2714.92
712.054	2624.81
712.242	2821.42
712.43	2794.79
712.617	2753.84
712.805	2680.11
712.993	2745.64
713.181	2624.81
713.368	2647.34
713.556	2813.23
713.744	2600.24
713.931	2792.75
714.119	2698.54
714.306	2635.05
714.494	2606.38
714.682	2587.95
714.869	2575.66
715.057	2590
715.244	2546.99
715.432	2641.2
715.619	2534.7
715.807	2624.81
715.994	2581.81
716.182	2667.82
716.369	2667.82
716.556	2506.03
716.744	2452.78
716.931	2663.72
717.119	2551.09
717.306	2565.42
717.493	2663.72
717.681	2559.28
717.868	2590
718.055	2549.04
718.242	2557.23
718.43	2465.07
718.617	2575.66
718.804	2426.16
718.991	2628.91
719.179	2606.38
719.366	2510.13
719.553	2387.25
719.74	2475.31
719.927	2635.05
720.114	2549.04
720.301	2467.12
720.488	2483.5
720.676	2401.58
720.863	2526.51
721.05	2553.13
721.237	2460.98
721.424	2514.22
721.611	2448.69
721.798	2325.81
721.985	2503.98
722.172	2391.34
722.358	2338.1
722.545	2495.79
722.732	2336.05
722.919	2518.32
723.106	2501.94
723.293	2483.5
723.48	2483.5
723.667	2409.78
723.853	2360.63
724.04	2428.21
724.227	2379.06
724.414	2356.53
724.6	2389.3
724.787	2544.94
724.974	2469.17
725.161	2381.1
725.347	2288.95
725.534	2364.72
725.72	2323.76
725.907	2460.98
726.094	2393.39
726.28	2377.01
726.467	2346.29
726.653	2366.77
726.84	2297.14
727.027	2358.58
727.213	2252.08
727.4	2360.63
727.586	2258.23
727.773	2344.24
727.959	2354.48
728.145	2405.68
728.332	2149.68
728.518	2295.09
728.705	2370.87
728.891	2286.9
729.077	2198.84
729.264	2331.95
729.45	2284.85
729.636	2428.21
729.823	2299.19
730.009	2342.19
730.195	2303.28
730.382	2264.37
730.568	2233.65
730.754	2172.21
730.94	2329.91
731.126	2293.04
731.313	2356.53
731.499	2295.09
731.685	2288.95
731.871	2295.09
732.057	2231.6
732.243	2250.03
732.429	2321.71
732.615	2198.84
732.801	2254.13
732.987	2151.73
733.173	2338.1
733.359	2235.7
733.545	2247.99
733.731	2168.12
733.917	2262.32
734.103	2305.33
734.289	2149.68
734.475	2303.28
734.661	2192.69
734.847	2221.36
735.033	2164.02
735.219	2194.74
735.404	2123.06
735.59	2143.54
735.776	2172.21
735.962	2194.74
736.148	2139.44
736.333	2200.88
736.519	2223.41
736.705	2164.02
736.89	2051.38
737.076	2286.9
737.262	2118.97
737.447	2170.16
737.633	2157.88
737.819	2178.36
738.004	2155.83
738.19	2114.87
738.375	2123.06
738.561	2075.96
738.747	2067.77
738.932	2178.36
739.118	1994.04
739.303	2139.44
739.489	2073.91
739.674	2018.61
739.859	2022.71
740.045	2155.83
740.23	2059.57
740.416	2049.33
740.601	2084.15
740.786	2065.72
740.972	2018.61
741.157	1971.51
741.342	2092.34
741.528	1891.64
741.713	2080.05
741.898	2014.52
742.084	2100.53
742.269	2065.72
742.454	1951.03
742.639	1893.69
742.824	1910.07
743.01	1971.51
743.195	1948.98
743.38	2024.76
743.565	1873.21
743.75	1942.84
743.935	1789.24
744.12	1940.79
744.305	1865.02
744.49	1910.07
744.675	1981.75
744.86	1828.15
745.045	1871.16
745.23	1836.35
745.415	1774.91
745.6	1983.8
745.785	1764.67
745.97	1858.87
746.155	1852.73
746.34	1901.88
746.525	1779
746.71	1748.28
746.895	1787.19
747.079	1729.85
747.264	1666.36
747.449	1742.14
747.634	1779
747.819	1604.92
748.003	1729.85
748.188	1697.08
748.373	1656.12
748.557	1699.13
748.742	1686.84
748.927	1682.75
749.111	1557.82
749.296	1590.59
749.481	1602.88
749.665	1635.64
749.85	1527.1
750.034	1582.4
750.219	1551.68
750.404	1641.79
750.588	1471.81
750.773	1500.48
750.957	1455.42
751.141	1492.29
751.326	1559.87
751.51	1467.71
751.695	1516.86
751.879	1459.52
752.064	1508.67
752.248	1396.03
752.432	1494.33
752.617	1545.53
752.801	1398.08
752.985	1467.71
753.17	1353.02
753.354	1412.42
753.538	1350.98
753.722	1363.26
753.907	1295.68
754.091	1402.18
754.275	1307.97
754.459	1377.6
754.643	1256.77
754.828	1367.36
755.012	1269.06
755.196	1305.92
755.38	1267.01
755.564	1258.82
755.748	1226.05
755.932	1348.93
756.116	1271.11
756.3	1221.95
756.484	1127.75
756.668	1164.61
756.852	1262.91
757.036	1240.39
757.22	1183.04
757.404	1193.28
757.588	1232.19
757.772	1197.38
757.956	1094.98
758.14	1215.81
758.323	1183.04
758.507	1246.53
758.691	1156.42
758.875	988.49
759.059	1160.52
759.242	1058.12
759.426	1062.21
759.61	1082.69
759.794	1008.97
759.977	1025.35
760.161	1164.61
760.345	1011.01
760.528	1019.21
760.712	1049.93
760.895	992.58
761.079	1099.08
761.263	925
761.446	910.66
761.63	1019.21
761.813	1004.87
761.997	1072.45
762.18	988.49
762.364	1058.12
762.547	894.28
762.731	947.53
762.914	1051.97
763.098	927.05
763.281	1004.87
763.464	984.39
763.648	1019.21
763.831	980.29
764.015	910.66
764.198	898.38
764.381	945.48
764.564	968.01
764.748	957.77
764.931	939.33
765.114	918.86
765.297	1000.77
765.481	849.22
765.664	847.18
765.847	947.53
766.03	847.18
766.213	927.05
766.397	824.65
766.58	830.79
766.763	927.05
766.946	869.7
767.129	902.47
767.312	828.74
767.495	836.94
767.678	912.71
767.861	929.1
768.044	836.94
768.227	886.09
768.41	877.9
768.593	853.32
768.776	822.6
768.959	795.98
769.142	843.08
769.324	841.03
769.507	847.18
769.69	816.46
769.873	781.64
770.056	853.32
770.239	814.41
770.421	830.79
770.604	763.21
770.787	826.7
770.97	836.94
771.152	755.02
771.335	783.69
771.518	763.21
771.7	750.92
771.883	841.03
772.066	748.87
772.248	718.15
772.431	712.01
772.613	662.86
772.796	830.79
772.978	779.59
773.161	783.69
773.343	771.4
773.526	734.54
773.708	755.02
773.891	679.24
774.073	777.55
774.256	679.24
774.438	724.3
774.621	632.14
774.803	718.15
774.985	642.38
775.168	763.21
775.35	609.61
775.532	621.9
775.715	681.29
775.897	664.91
776.079	675.15
776.261	685.39
776.444	628.04
776.626	576.84
776.808	585.04
776.99	623.95
777.173	689.48
777.355	599.37
777.537	617.8
777.719	591.18
777.901	593.23
778.083	632.14
778.265	496.97
778.447	593.23
778.629	591.18
778.811	650.57
778.993	593.23
779.175	591.18
779.357	560.46
779.539	533.84
779.721	521.55
779.903	568.65
780.085	572.75
780.267	576.84
780.449	599.37
780.631	560.46
780.812	525.65
780.994	542.03
781.176	531.79
781.358	582.99
781.54	496.97
781.721	429.39
781.903	478.54
782.085	556.36
782.267	492.88
782.448	494.93
782.63	482.64
782.812	550.22
782.993	429.39
783.175	527.69
783.357	437.58
783.538	517.45
783.72	347.47
783.901	501.07
784.083	427.34
784.264	410.96
784.446	382.29
784.627	470.35
784.809	482.64
784.99	427.34
785.172	421.2
785.353	470.35
785.535	453.97
785.716	408.91
785.897	372.05
786.079	435.53
786.26	482.64
786.441	451.92
786.623	378.19
786.804	398.67
786.985	382.29
787.167	363.86
787.348	388.43
787.529	392.53
787.71	392.53
787.891	402.77
788.073	398.67
788.254	329.04
788.435	365.9
788.616	408.91
788.797	365.9
788.978	320.85
789.159	394.58
789.34	394.58
789.522	337.23
789.703	306.51
789.884	333.14
790.065	355.66
790.246	363.86
790.427	410.96
790.607	361.81
790.788	316.75
790.969	347.47
791.15	306.51
791.331	341.33
791.512	318.8
791.693	281.94
791.874	337.23
792.054	421.2
792.235	345.42
792.416	257.36
792.597	312.66
792.778	306.51
792.958	292.18
793.139	265.55
793.32	255.31
793.5	263.51
793.681	400.72
793.862	314.7
794.042	320.85
794.223	226.64
794.404	304.46
794.584	204.11
794.765	263.51
794.945	316.75
795.126	288.08
795.306	308.56
795.487	265.55
795.667	308.56
795.848	361.81
796.028	255.31
796.209	247.12
796.389	296.27
796.57	187.73
796.75	255.31
796.93	269.65
797.111	298.32
797.291	261.46
797.471	259.41
797.652	263.51
797.832	255.31
798.012	363.86
798.192	318.8
798.373	292.18
798.553	271.7
798.733	308.56
798.913	157.01
799.093	206.16
799.274	181.59
799.454	261.46
799.634	322.9
799.814	312.66
799.994	255.31
800.174	216.4
800.354	263.51
800.534	222.55
800.714	202.07
800.894	240.98
801.074	214.35
801.254	193.87
801.434	283.98
801.614	193.87
801.794	200.02
801.974	746.83
802.154	169.3
802.334	255.31
802.514	177.49
802.693	222.55
802.873	181.59
803.053	247.12
803.233	247.12
803.413	163.15
803.592	191.83
803.772	140.63
803.952	281.94
804.131	179.54
804.311	189.78
804.491	159.06
804.67	173.39
804.85	183.63
805.03	228.69
805.209	243.03
805.389	152.91
805.568	165.2
805.748	157.01
805.928	206.16
806.107	273.75
806.287	161.11
806.466	173.39
806.646	167.25
806.825	195.92
807.004	134.48
807.184	208.21
807.363	200.02
807.543	185.68
807.722	181.59
807.901	236.88
808.081	101.72
808.26	140.63
808.439	173.39
808.619	142.68
808.798	173.39
808.977	161.11
809.156	181.59
809.336	23.89
809.515	146.77
809.694	124.24
809.873	165.2
810.052	189.78
810.231	167.25
810.411	122.2
810.59	171.35
810.769	116.05
810.948	165.2
811.127	91.48
811.306	103.76
811.485	177.49
811.664	111.96
811.843	165.2
812.022	126.29
812.201	103.76
812.38	99.67
812.559	185.68
812.737	159.06
812.916	197.97
813.095	93.52
813.274	150.87
813.453	130.39
813.632	152.91
813.811	124.24
813.989	124.24
814.168	150.87
814.347	89.43
814.526	50.52
814.704	116.05
814.883	206.16
815.062	44.37
815.24	134.48
815.419	101.72
815.598	103.76
815.776	91.48
815.955	173.39
816.133	83.28
816.312	169.3
816.49	95.57
816.669	128.34
816.847	132.44
817.026	154.96
817.204	120.15
817.383	99.67
817.561	136.53
817.74	101.72
817.918	146.77
818.097	165.2
818.275	144.72
818.453	132.44
818.632	122.2
818.81	124.24
818.988	60.76
819.167	109.91
819.345	83.28
819.523	77.14
819.701	99.67
819.879	107.86
820.058	97.62
820.236	83.28
820.414	60.76
820.592	83.28
820.77	85.33
820.948	124.24
821.127	148.82
821.305	99.67
821.483	85.33
821.661	152.91
821.839	124.24
822.017	107.86
822.195	101.72
822.373	116.05
822.551	116.05
822.729	118.1
822.907	62.8
823.085	136.53
823.262	50.52
823.44	66.9
823.618	79.19
823.796	75.09
823.974	105.81
824.152	34.13
824.329	105.81
824.507	81.24
824.685	169.3
824.863	79.19
825.04	134.48
825.218	165.2
825.396	9.56
825.574	138.58
825.751	89.43
825.929	50.52
826.107	77.14
826.284	124.24
826.462	195.92
826.639	54.61
826.817	71
826.994	95.57
827.172	25.94
827.349	142.68
827.527	83.28
827.704	95.57
827.882	64.85
828.059	36.18
828.237	73.04
828.414	66.9
828.591	81.24
828.769	68.95
828.946	13.65
829.124	89.43
829.301	116.05
829.478	34.13
829.655	85.33
829.833	36.18
830.01	116.05
830.187	126.29
830.364	126.29
830.542	157.01
830.719	126.29
830.896	157.01
831.073	109.91
831.25	60.76
831.427	60.76
831.604	9.56
831.782	42.32
831.959	95.57
832.136	-19.11
832.313	91.48
832.49	97.62
832.667	83.28
832.844	48.47
833.021	17.75
833.198	36.18
833.374	118.1
833.551	95.57
833.728	87.38
833.905	81.24
834.082	60.76
834.259	95.57
834.436	140.63
834.612	19.8
834.789	83.28
834.966	-12.97
835.143	136.53
835.319	83.28
835.496	134.48
835.673	27.99
835.85	81.24
836.026	-6.83
836.203	85.33
836.38	68.95
836.556	56.66
836.733	75.09
836.909	42.32
837.086	50.52
837.262	42.32
837.439	27.99
837.616	56.66
837.792	40.28
837.968	75.09
838.145	13.65
838.321	165.2
838.498	157.01
838.674	79.19
838.851	60.76
839.027	56.66
839.203	111.96
839.38	89.43
839.556	36.18
839.732	116.05
839.909	-10.92
840.085	40.28
840.261	50.52
840.437	-4.78
840.614	25.94
840.79	75.09
840.966	17.75
841.142	87.38
841.318	66.9
841.494	99.67
841.671	66.9
841.847	-0.68
842.023	21.85
842.199	95.57
842.375	91.48
842.551	52.56
842.727	52.56
842.903	95.57
843.079	48.47
843.255	71
843.431	103.76
843.607	50.52
843.783	48.47
843.959	79.19
844.134	71
844.31	75.09
844.486	-21.16
844.662	52.56
844.838	52.56
845.013	85.33
845.189	89.43
845.365	-10.92
845.541	101.72
845.716	136.53
845.892	71
846.068	27.99
846.244	19.8
846.419	-12.97
846.595	-12.97
846.77	1.37
846.946	48.47
847.122	1.37
847.297	30.04
847.473	42.32
847.648	38.23
847.824	25.94
847.999	7.51
848.175	36.18
848.35	101.72
848.526	91.48
848.701	-29.35
848.876	68.95
849.052	103.76
849.227	25.94
849.403	23.89
849.578	-4.78
849.753	75.09
849.929	54.61
850.104	-25.26
850.279	66.9
850.454	27.99
850.63	30.04
850.805	34.13
850.98	19.8
851.155	9.56
851.33	13.65
851.505	99.67
851.681	66.9
851.856	68.95
852.031	52.56
852.206	25.94
852.381	17.75
852.556	-4.78
852.731	95.57
852.906	-23.21
853.081	-8.87
853.256	85.33
853.431	9.56
853.606	52.56
853.781	-80.55
853.956	5.46
854.131	15.7
854.305	116.05
854.48	58.71
854.655	-12.97
854.83	66.9
855.005	-2.73
855.18	25.94
855.354	25.94
855.529	87.38
855.704	46.42
855.879	-10.92
856.053	52.56
856.228	95.57
856.403	-53.93
856.577	99.67
856.752	71
856.926	25.94
857.101	-12.97
857.276	13.65
857.45	-23.21
857.625	68.95
857.799	-6.83
857.974	5.46
858.148	32.08
858.323	52.56
858.497	42.32
858.672	32.08
858.846	38.23
859.02	130.39
859.195	50.52
859.369	25.94
859.543	23.89
859.718	-15.02
859.892	15.7
860.066	25.94
860.241	11.61
860.415	1.37
860.589	5.46
860.763	-29.35
860.938	23.89
861.112	-41.64
861.286	-47.79
861.46	34.13
861.634	42.32
861.808	-4.78
861.982	-51.88
862.157	36.18
862.331	-21.16
862.505	11.61
862.679	-49.83
862.853	-64.17
863.027	23.89
863.201	9.56
863.375	1.37
863.549	62.8
863.722	48.47
863.896	54.61
864.07	-17.07
864.244	79.19
864.418	15.7
864.592	109.91
864.766	-4.78
864.939	17.75
865.113	-31.4
865.287	25.94
865.461	-12.97
865.634	46.42
865.808	34.13
865.982	42.32
866.156	5.46
866.329	-45.74
866.503	17.75
866.676	19.8
866.85	11.61
867.024	25.94
867.197	46.42
867.371	68.95
867.544	50.52
867.718	1.37
867.891	21.85
868.065	-4.78
868.238	3.41
868.412	54.61
868.585	5.46
868.759	9.56
868.932	44.37
869.105	56.66
869.279	64.85
869.452	-47.79
869.625	60.76
869.799	7.51
869.972	5.46
870.145	21.85
870.319	75.09
870.492	34.13
870.665	36.18
870.838	-27.31
871.011	-51.88
871.185	9.56
871.358	-8.87
871.531	46.42
871.704	-43.69
871.877	13.65
872.05	23.89
872.223	58.71
872.396	36.18
872.569	-17.07
872.742	1.37
872.915	-6.83
873.088	-8.87
873.261	-23.21
873.434	21.85
873.607	1.37
873.78	30.04
873.953	-12.97
874.126	25.94
874.299	-72.36
874.471	7.51
874.644	5.46
874.817	-39.59
874.99	50.52
875.163	-15.02
875.335	34.13
875.508	56.66
875.681	27.99
875.853	-41.64
876.026	52.56
876.199	21.85
876.371	-6.83
876.544	-12.97
876.717	44.37
876.889	5.46
877.062	30.04
877.234	-12.97
877.407	-10.92
877.579	-6.83
877.752	7.51
877.924	52.56
878.097	7.51
878.269	30.04
878.442	-8.87
878.614	-19.11
878.786	87.38
878.959	-31.4
879.131	27.99
879.303	1.37
879.476	9.56
879.648	-2.73
879.82	27.99
879.993	-119.46
880.165	27.99
880.337	-17.07
880.509	66.9
880.681	-37.55
880.854	5.46
881.026	34.13
881.198	36.18
881.37	-43.69
881.542	56.66
881.714	7.51
881.886	58.71
882.058	5.46
882.23	15.7
882.402	-19.11
882.574	-80.55
882.746	52.56
882.918	38.23
883.09	1.37
883.262	23.89
883.434	-10.92
883.606	-27.31
883.778	56.66
883.95	-4.78
884.122	36.18
884.293	15.7
884.465	50.52
884.637	34.13
884.809	13.65
884.98	-2.73
885.152	-23.21
885.324	58.71
885.496	42.32
885.667	44.37
885.839	-35.5
886.011	54.61
886.182	-29.35
886.354	40.28
886.525	1.37
886.697	3.41
886.869	-92.84
887.04	-60.07
887.212	-64.17
887.383	25.94
887.555	44.37
887.726	9.56
887.897	-6.83
888.069	-62.12
888.24	-53.93
888.412	1.37
888.583	-2.73
888.754	-35.5
888.926	-68.27
889.097	3.41
889.268	-45.74
889.44	30.04
889.611	58.71
889.782	44.37
889.953	17.75
890.125	60.76
890.296	-19.11
890.467	-51.88
890.638	62.8
890.809	30.04
890.98	-41.64
891.151	34.13
891.323	7.51
891.494	-55.98
891.665	19.8
891.836	5.46
892.007	-23.21
892.178	13.65
892.349	64.85
892.52	-31.4
892.691	7.51
892.862	32.08
893.032	-68.27
893.203	60.76
893.374	-15.02
893.545	60.76
893.716	-15.02
893.887	132.44
894.057	75.09
894.228	25.94
894.399	-70.31
894.57	54.61
894.74	25.94
894.911	3.41
895.082	44.37
895.253	11.61
895.423	44.37
895.594	-43.69
895.764	19.8
895.935	-27.31
896.106	-12.97
896.276	-6.83
896.447	27.99
896.617	-35.5
896.788	-10.92
896.958	-33.45
897.129	1.37
897.299	-4.78
897.47	50.52
897.64	-23.21
897.81	44.37
897.981	75.09
898.151	3.41
898.322	-12.97
898.492	19.8
898.662	-31.4
898.832	-15.02
899.003	11.61
899.173	3.41
899.343	27.99
899.513	17.75
