Data from USB4F104151__242__14-22-17-548.txt Node

Date: Thu Mar 13 14:22:17 EDT 2025
User: louis
Spectrometer: USB4F10415
Trigger mode: 4
Integration Time (sec): 2.000000E-2
Scans to average: 1
Electric dark correction enabled: true
Nonlinearity correction enabled: false
Boxcar width: 0
XAxis mode: Wavelengths
Number of Pixels in Spectrum: 3648
>>>>>Begin Spectral Data<<<<<
178.204	-105.98
178.424	-105.98
178.644	-105.98
178.864	-108.03
179.084	-130.56
179.304	-44.54
179.524	-3.58
179.744	-36.35
179.964	82.43
180.184	-52.74
180.404	57.86
180.624	-24.06
180.844	70.14
181.064	-79.36
181.283	8.7
181.503	-3.58
181.723	25.09
181.943	-36.35
182.163	107.01
182.383	2.56
182.602	90.62
182.822	66.05
183.042	66.05
183.262	20.99
183.482	43.52
183.701	23.04
183.921	53.76
184.141	33.28
184.361	82.43
184.58	10.75
184.8	25.09
185.02	53.76
185.239	25.09
185.459	94.72
185.679	55.81
185.898	16.9
186.118	45.57
186.338	0.51
186.557	25.09
186.777	29.18
186.997	16.9
187.216	-36.35
187.436	76.29
187.655	43.52
187.875	25.09
188.095	49.66
188.314	25.09
188.534	76.29
188.753	-11.78
188.973	31.23
189.192	80.38
189.412	57.86
189.631	86.53
189.851	72.19
190.07	74.24
190.29	-11.78
190.509	156.16
190.729	14.85
190.948	37.38
191.168	135.68
191.387	49.66
191.607	49.66
191.826	43.52
192.045	-9.73
192.265	45.57
192.484	66.05
192.704	90.62
192.923	-5.63
193.142	115.2
193.362	16.9
193.581	49.66
193.8	49.66
194.02	147.97
194.239	-22.02
194.458	33.28
194.678	57.86
194.897	37.38
195.116	66.05
195.335	35.33
195.555	55.81
195.774	-3.58
195.993	107.01
196.212	12.8
196.432	-24.06
196.651	20.99
196.87	-44.54
197.089	74.24
197.308	76.29
197.528	100.86
197.747	39.42
197.966	43.52
198.185	-26.11
198.404	16.9
198.623	39.42
198.842	74.24
199.062	55.81
199.281	41.47
199.5	8.7
199.719	57.86
199.938	45.57
200.157	115.2
200.376	104.96
200.595	25.09
200.814	-3.58
201.033	14.85
201.252	49.66
201.471	20.99
201.69	33.28
201.909	6.66
202.128	-19.97
202.347	45.57
202.566	2.56
202.785	4.61
203.004	8.7
203.223	72.19
203.442	4.61
203.661	64
203.879	53.76
204.098	35.33
204.317	80.38
204.536	66.05
204.755	33.28
204.974	45.57
205.193	92.67
205.411	121.34
205.63	37.38
205.849	10.75
206.068	-32.26
206.287	4.61
206.505	59.9
206.724	0.51
206.943	-11.78
207.162	33.28
207.381	0.51
207.599	-19.97
207.818	16.9
208.037	20.99
208.255	45.57
208.474	90.62
208.693	98.81
208.911	20.99
209.13	10.75
209.349	55.81
209.567	125.44
209.786	100.86
210.005	74.24
210.223	66.05
210.442	0.51
210.661	72.19
210.879	35.33
211.098	45.57
211.316	-5.63
211.535	96.77
211.753	2.56
211.972	14.85
212.191	76.29
212.409	33.28
212.628	49.66
212.846	49.66
213.065	53.76
213.283	109.05
213.502	49.66
213.72	-56.83
213.938	-3.58
214.157	94.72
214.375	100.86
214.594	-5.63
214.812	35.33
215.031	57.86
215.249	-28.16
215.467	100.86
215.686	-15.87
215.904	84.48
216.122	-50.69
216.341	90.62
216.559	20.99
216.778	72.19
216.996	59.9
217.214	49.66
217.432	-38.4
217.651	23.04
217.869	86.53
218.087	76.29
218.306	47.62
218.524	88.57
218.742	31.23
218.96	0.51
219.179	41.47
219.397	-32.26
219.615	57.86
219.833	25.09
220.051	33.28
220.27	86.53
220.488	94.72
220.706	8.7
220.924	4.61
221.142	23.04
221.36	0.51
221.578	66.05
221.796	74.24
222.015	86.53
222.233	43.52
222.451	49.66
222.669	-30.21
222.887	59.9
223.105	25.09
223.323	31.23
223.541	31.23
223.759	2.56
223.977	20.99
224.195	90.62
224.413	43.52
224.631	-3.58
224.849	47.62
225.067	78.33
225.285	49.66
225.503	-42.5
225.721	-7.68
225.939	0.51
226.157	102.91
226.375	92.67
226.592	-101.89
226.81	68.09
227.028	59.9
227.246	102.91
227.464	72.19
227.682	70.14
227.9	86.53
228.117	25.09
228.335	31.23
228.553	41.47
228.771	76.29
228.989	-3.58
229.206	33.28
229.424	-7.68
229.642	-9.73
229.86	90.62
230.077	51.71
230.295	76.29
230.513	12.8
230.731	0.51
230.948	98.81
231.166	25.09
231.384	49.66
231.601	16.9
231.819	104.96
232.037	33.28
232.254	10.75
232.472	47.62
232.689	82.43
232.907	20.99
233.125	107.01
233.342	41.47
233.56	-1.54
233.777	37.38
233.995	-38.4
234.213	98.81
234.43	127.49
234.648	14.85
234.865	12.8
235.083	72.19
235.3	-13.82
235.518	25.09
235.735	131.58
235.953	-13.82
236.17	35.33
236.388	53.76
236.605	76.29
236.822	25.09
237.04	76.29
237.257	16.9
237.475	61.95
237.692	33.28
237.909	33.28
238.127	16.9
238.344	121.34
238.562	57.86
238.779	16.9
238.996	-13.82
239.214	10.75
239.431	70.14
239.648	51.71
239.865	82.43
240.083	-7.68
240.3	41.47
240.517	-24.06
240.735	39.42
240.952	68.09
241.169	43.52
241.386	49.66
241.603	70.14
241.821	53.76
242.038	49.66
242.255	66.05
242.472	45.57
242.689	4.61
242.907	-19.97
243.124	-7.68
243.341	43.52
243.558	-7.68
243.775	49.66
243.992	-44.54
244.209	82.43
244.426	74.24
244.643	37.38
244.86	-44.54
245.078	64
245.295	82.43
245.512	41.47
245.729	-17.92
245.946	66.05
246.163	82.43
246.38	37.38
246.597	59.9
246.814	-24.06
247.031	35.33
247.248	55.81
247.464	20.99
247.681	57.86
247.898	78.33
248.115	107.01
248.332	16.9
248.549	129.53
248.766	102.91
248.983	90.62
249.2	107.01
249.417	39.42
249.633	59.9
249.85	66.05
250.067	8.7
250.284	8.7
250.501	102.91
250.717	53.76
250.934	-40.45
251.151	-44.54
251.368	8.7
251.585	-3.58
251.801	45.57
252.018	35.33
252.235	66.05
252.451	66.05
252.668	76.29
252.885	90.62
253.102	72.19
253.318	55.81
253.535	39.42
253.752	18.94
253.968	16.9
254.185	35.33
254.401	49.66
254.618	-19.97
254.835	-13.82
255.051	76.29
255.268	20.99
255.484	45.57
255.701	94.72
255.917	94.72
256.134	-36.35
256.351	20.99
256.567	-28.16
256.784	59.9
257	20.99
257.217	84.48
257.433	96.77
257.65	12.8
257.866	51.71
258.082	10.75
258.299	78.33
258.515	41.47
258.732	25.09
258.948	74.24
259.165	-19.97
259.381	47.62
259.597	-58.88
259.814	92.67
260.03	29.18
260.246	82.43
260.463	100.86
260.679	-1.54
260.895	-32.26
261.112	102.91
261.328	66.05
261.544	25.09
261.761	74.24
261.977	-7.68
262.193	25.09
262.409	0.51
262.626	68.09
262.842	117.25
263.058	-11.78
263.274	0.51
263.49	25.09
263.707	113.15
263.923	33.28
264.139	8.7
264.355	-3.58
264.571	43.52
264.787	57.86
265.004	41.47
265.22	51.71
265.436	16.9
265.652	-3.58
265.868	53.76
266.084	61.95
266.3	51.71
266.516	47.62
266.732	27.14
266.948	59.9
267.164	23.04
267.38	61.95
267.596	68.09
267.812	115.2
268.028	-7.68
268.244	102.91
268.46	49.66
268.676	-56.83
268.892	-15.87
269.108	0.51
269.324	49.66
269.54	6.66
269.756	51.71
269.972	33.28
270.188	-5.63
270.403	8.7
270.619	82.43
270.835	53.76
271.051	27.14
271.267	37.38
271.483	35.33
271.698	82.43
271.914	25.09
272.13	45.57
272.346	14.85
272.562	-7.68
272.777	61.95
272.993	43.52
273.209	76.29
273.425	4.61
273.64	57.86
273.856	51.71
274.072	-32.26
274.287	-28.16
274.503	66.05
274.719	20.99
274.934	41.47
275.15	-3.58
275.366	37.38
275.581	27.14
275.797	18.94
276.012	12.8
276.228	98.81
276.444	66.05
276.659	145.92
276.875	55.81
277.09	72.19
277.306	43.52
277.521	147.97
277.737	107.01
277.952	76.29
278.168	39.42
278.383	121.34
278.599	37.38
278.814	115.2
279.03	29.18
279.245	49.66
279.461	-11.78
279.676	43.52
279.892	-24.06
280.107	57.86
280.322	164.35
280.538	68.09
280.753	74.24
280.969	68.09
281.184	92.67
281.399	33.28
281.615	74.24
281.83	53.76
282.045	-11.78
282.26	45.57
282.476	84.48
282.691	70.14
282.906	41.47
283.122	49.66
283.337	-28.16
283.552	127.49
283.767	20.99
283.983	16.9
284.198	0.51
284.413	20.99
284.628	16.9
284.843	45.57
285.058	86.53
285.274	88.57
285.489	-46.59
285.704	74.24
285.919	2.56
286.134	82.43
286.349	74.24
286.564	66.05
286.779	57.86
286.995	41.47
287.21	0.51
287.425	39.42
287.64	-5.63
287.855	-17.92
288.07	20.99
288.285	49.66
288.5	78.33
288.715	53.76
288.93	39.42
289.145	45.57
289.36	51.71
289.575	20.99
289.79	135.68
290.004	109.05
290.219	102.91
290.434	68.09
290.649	-38.4
290.864	43.52
291.079	-9.73
291.294	66.05
291.509	6.66
291.724	10.75
291.938	53.76
292.153	43.52
292.368	72.19
292.583	78.33
292.798	74.24
293.012	16.9
293.227	-7.68
293.442	74.24
293.657	-7.68
293.871	92.67
294.086	27.14
294.301	131.58
294.516	84.48
294.73	49.66
294.945	68.09
295.16	59.9
295.374	27.14
295.589	43.52
295.804	-3.58
296.018	64
296.233	6.66
296.447	35.33
296.662	74.24
296.877	141.82
297.091	23.04
297.306	92.67
297.52	66.05
297.735	12.8
297.949	59.9
298.164	100.86
298.378	33.28
298.593	57.86
298.807	35.33
299.022	41.47
299.236	25.09
299.451	-11.78
299.665	8.7
299.88	49.66
300.094	64
300.309	82.43
300.523	61.95
300.737	66.05
300.952	90.62
301.166	45.57
301.381	10.75
301.595	31.23
301.809	98.81
302.024	0.51
302.238	-24.06
302.452	66.05
302.667	78.33
302.881	41.47
303.095	59.9
303.309	133.63
303.524	37.38
303.738	14.85
303.952	31.23
304.166	37.38
304.381	12.8
304.595	59.9
304.809	29.18
305.023	43.52
305.237	33.28
305.452	70.14
305.666	-3.58
305.88	45.57
306.094	-5.63
306.308	90.62
306.522	49.66
306.736	-5.63
306.95	41.47
307.164	66.05
307.379	94.72
307.593	98.81
307.807	98.81
308.021	41.47
308.235	45.57
308.449	-15.87
308.663	57.86
308.877	102.91
309.091	57.86
309.305	94.72
309.519	25.09
309.733	88.57
309.947	74.24
310.161	43.52
310.374	53.76
310.588	107.01
310.802	20.99
311.016	14.85
311.23	41.47
311.444	70.14
311.658	68.09
311.872	74.24
312.085	-32.26
312.299	18.94
312.513	53.76
312.727	33.28
312.941	8.7
313.154	57.86
313.368	53.76
313.582	107.01
313.796	41.47
314.009	8.7
314.223	35.33
314.437	84.48
314.651	-38.4
314.864	-13.82
315.078	23.04
315.292	-28.16
315.505	29.18
315.719	82.43
315.933	90.62
316.146	109.05
316.36	0.51
316.573	92.67
316.787	119.29
317.001	156.16
317.214	53.76
317.428	76.29
317.641	68.09
317.855	16.9
318.068	70.14
318.282	12.8
318.495	25.09
318.709	82.43
318.922	41.47
319.136	66.05
319.349	37.38
319.563	25.09
319.776	74.24
319.99	51.71
320.203	8.7
320.417	31.23
320.63	66.05
320.843	107.01
321.057	4.61
321.27	35.33
321.483	86.53
321.697	33.28
321.91	143.87
322.124	51.71
322.337	82.43
322.55	68.09
322.763	29.18
322.977	-24.06
323.19	33.28
323.403	68.09
323.617	66.05
323.83	88.57
324.043	82.43
324.256	0.51
324.469	41.47
324.683	150.01
324.896	53.76
325.109	20.99
325.322	25.09
325.535	49.66
325.748	53.76
325.962	10.75
326.175	43.52
326.388	107.01
326.601	74.24
326.814	4.61
327.027	82.43
327.24	82.43
327.453	-3.58
327.666	117.25
327.879	107.01
328.092	168.45
328.305	45.57
328.518	16.9
328.731	33.28
328.944	39.42
329.157	123.39
329.37	53.76
329.583	94.72
329.796	74.24
330.009	51.71
330.222	-32.26
330.435	59.9
330.648	125.44
330.861	-22.02
331.073	66.05
331.286	-48.64
331.499	115.2
331.712	31.23
331.925	51.71
332.138	14.85
332.35	41.47
332.563	-3.58
332.776	66.05
332.989	16.9
333.202	78.33
333.414	45.57
333.627	82.43
333.84	35.33
334.053	35.33
334.265	25.09
334.478	74.24
334.691	-28.16
334.903	68.09
335.116	-40.45
335.329	16.9
335.541	53.76
335.754	131.58
335.966	-13.82
336.179	78.33
336.392	16.9
336.604	135.68
336.817	29.18
337.029	102.91
337.242	6.66
337.454	20.99
337.667	45.57
337.88	100.86
338.092	43.52
338.305	107.01
338.517	27.14
338.729	162.3
338.942	111.1
339.154	49.66
339.367	43.52
339.579	133.63
339.792	84.48
340.004	141.82
340.217	-9.73
340.429	76.29
340.641	45.57
340.854	49.66
341.066	57.86
341.278	80.38
341.491	78.33
341.703	45.57
341.915	115.2
342.128	147.97
342.34	94.72
342.552	92.67
342.764	-1.54
342.977	51.71
343.189	82.43
343.401	78.33
343.613	53.76
343.826	68.09
344.038	57.86
344.25	16.9
344.462	109.05
344.674	-11.78
344.886	35.33
345.099	70.14
345.311	88.57
345.523	29.18
345.735	25.09
345.947	31.23
346.159	74.24
346.371	86.53
346.583	61.95
346.795	174.59
347.007	53.76
347.219	41.47
347.431	33.28
347.643	66.05
347.855	-42.5
348.067	100.86
348.279	10.75
348.491	43.52
348.703	70.14
348.915	-15.87
349.127	68.09
349.339	107.01
349.551	51.71
349.763	66.05
349.975	80.38
350.187	66.05
350.399	76.29
350.61	74.24
350.822	-5.63
351.034	74.24
351.246	82.43
351.458	94.72
351.669	72.19
351.881	152.06
352.093	86.53
352.305	119.29
352.517	33.28
352.728	49.66
352.94	94.72
353.152	57.86
353.363	41.47
353.575	164.35
353.787	66.05
353.999	66.05
354.21	53.76
354.422	41.47
354.633	53.76
354.845	49.66
355.057	113.15
355.268	154.11
355.48	57.86
355.692	82.43
355.903	107.01
356.115	90.62
356.326	49.66
356.538	139.77
356.749	115.2
356.961	129.53
357.172	14.85
357.384	72.19
357.595	121.34
357.807	84.48
358.018	98.81
358.23	109.05
358.441	111.1
358.653	90.62
358.864	57.86
359.075	59.9
359.287	39.42
359.498	84.48
359.709	125.44
359.921	127.49
360.132	57.86
360.344	98.81
360.555	66.05
360.766	86.53
360.977	-32.26
361.189	72.19
361.4	70.14
361.611	88.57
361.823	25.09
362.034	49.66
362.245	20.99
362.456	84.48
362.667	61.95
362.879	29.18
363.09	31.23
363.301	115.2
363.512	33.28
363.723	18.94
363.935	115.2
364.146	72.19
364.357	16.9
364.568	86.53
364.779	41.47
364.99	59.9
365.201	61.95
365.412	90.62
365.623	98.81
365.834	14.85
366.045	66.05
366.256	-11.78
366.467	98.81
366.678	107.01
366.889	57.86
367.1	84.48
367.311	133.63
367.522	2.56
367.733	37.38
367.944	160.25
368.155	31.23
368.366	68.09
368.577	100.86
368.788	84.48
368.999	37.38
369.209	100.86
369.42	154.11
369.631	78.33
369.842	70.14
370.053	78.33
370.264	47.62
370.474	-3.58
370.685	70.14
370.896	76.29
371.107	123.39
371.317	41.47
371.528	55.81
371.739	115.2
371.95	82.43
372.16	133.63
372.371	76.29
372.582	70.14
372.792	109.05
373.003	68.09
373.214	45.57
373.424	102.91
373.635	16.9
373.846	90.62
374.056	57.86
374.267	109.05
374.477	55.81
374.688	66.05
374.898	139.77
375.109	43.52
375.319	109.05
375.53	121.34
375.74	51.71
375.951	74.24
376.161	27.14
376.372	66.05
376.582	-38.4
376.793	82.43
377.003	43.52
377.214	51.71
377.424	111.1
377.635	-5.63
377.845	66.05
378.055	137.73
378.266	-15.87
378.476	49.66
378.686	117.25
378.897	74.24
379.107	160.25
379.317	156.16
379.528	78.33
379.738	16.9
379.948	102.91
380.158	109.05
380.369	135.68
380.579	86.53
380.789	90.62
380.999	41.47
381.21	137.73
381.42	205.31
381.63	98.81
381.84	117.25
382.05	102.91
382.261	59.9
382.471	98.81
382.681	59.9
382.891	131.58
383.101	102.91
383.311	61.95
383.521	66.05
383.731	66.05
383.941	115.2
384.151	8.7
384.361	49.66
384.571	98.81
384.781	115.2
384.991	115.2
385.201	109.05
385.411	59.9
385.621	119.29
385.831	90.62
386.041	164.35
386.251	156.16
386.461	172.54
386.671	45.57
386.881	84.48
387.091	86.53
387.301	107.01
387.511	68.09
387.72	80.38
387.93	143.87
388.14	33.28
388.35	59.9
388.56	133.63
388.769	98.81
388.979	115.2
389.189	45.57
389.399	45.57
389.609	74.24
389.818	123.39
390.028	61.95
390.238	35.33
390.447	115.2
390.657	98.81
390.867	98.81
391.076	64
391.286	127.49
391.496	141.82
391.705	160.25
391.915	143.87
392.125	147.97
392.334	82.43
392.544	152.06
392.753	115.2
392.963	98.81
393.172	92.67
393.382	94.72
393.591	190.97
393.801	117.25
394.01	162.3
394.22	131.58
394.429	123.39
394.639	121.34
394.848	125.44
395.058	133.63
395.267	150.01
395.477	172.54
395.686	172.54
395.895	94.72
396.105	158.21
396.314	147.97
396.524	139.77
396.733	131.58
396.942	147.97
397.152	215.55
397.361	139.77
397.57	135.68
397.78	180.73
397.989	86.53
398.198	199.16
398.407	141.82
398.617	158.21
398.826	117.25
399.035	133.63
399.244	156.16
399.453	160.25
399.663	186.88
399.872	154.11
400.081	143.87
400.29	156.16
400.499	152.06
400.708	178.69
400.917	164.35
401.127	197.12
401.336	205.31
401.545	233.98
401.754	254.46
401.963	156.16
402.172	213.5
402.381	109.05
402.59	184.83
402.799	205.31
403.008	205.31
403.217	201.21
403.426	195.07
403.635	152.06
403.844	131.58
404.053	233.98
404.262	107.01
404.471	240.12
404.68	256.51
404.888	164.35
405.097	250.36
405.306	217.6
405.515	256.51
405.724	258.56
405.933	299.52
406.142	262.65
406.35	295.42
406.559	231.93
406.768	283.13
406.977	326.14
407.185	297.47
407.394	320
407.603	266.75
407.812	352.76
408.02	264.7
408.229	322.04
408.438	401.91
408.646	356.86
408.855	328.19
409.064	410.11
409.272	410.11
409.481	436.73
409.69	430.59
409.898	467.45
410.107	516.6
410.315	416.25
410.524	502.26
410.733	588.28
410.941	487.93
411.15	549.37
411.358	573.94
411.567	666.1
411.775	674.29
411.984	643.57
412.192	657.91
412.401	623.09
412.609	705.01
412.818	748.02
413.026	784.88
413.234	756.21
413.443	903.67
413.651	819.7
413.86	911.86
414.068	905.71
414.276	1051.12
414.485	924.15
414.693	967.15
414.901	1073.65
415.11	1096.18
415.318	1067.5
415.526	1122.8
415.734	1157.61
415.943	1323.5
416.151	1192.43
416.359	1264.11
416.567	1341.93
416.776	1386.99
416.984	1329.64
417.192	1458.67
417.4	1458.67
417.608	1499.63
417.817	1534.44
418.025	1575.4
418.233	1810.92
418.441	1774.05
418.649	1833.44
418.857	1915.36
419.065	2073.06
419.273	1972.71
419.481	1999.33
419.689	2177.5
419.897	2249.18
420.105	2255.33
420.313	2400.73
420.521	2410.97
420.729	2421.21
420.937	2595.29
421.145	2578.9
421.353	2720.21
421.561	2929.11
421.769	2941.4
421.977	3113.42
422.185	3076.56
422.393	3367.37
422.601	3494.35
422.809	3408.33
423.017	3510.73
423.224	3592.65
423.432	3756.49
423.64	3883.46
423.848	4041.15
424.056	4116.93
424.263	4245.95
424.471	4280.77
424.679	4428.22
424.887	4653.5
425.094	4872.63
425.302	4907.45
425.51	4897.21
425.718	5106.1
425.925	5251.5
426.133	5358
426.341	5687.72
426.548	5999.01
426.756	6054.31
426.964	6064.55
427.171	6498.72
427.379	6496.67
427.586	6840.73
427.794	6885.78
428.001	7250.32
428.209	7479.69
428.417	7469.45
428.624	7954.82
428.832	7780.75
429.039	7903.62
429.247	7674.25
429.454	8530.3
429.662	8995.19
429.869	8618.36
430.076	9171.32
430.284	8708.48
430.491	9222.52
430.699	9841
430.906	9587.05
431.114	9853.29
431.321	10344.8
431.528	10512.74
431.736	11217.24
431.943	11727.18
432.15	11317.59
432.358	11436.37
432.565	11979.08
432.772	11950.41
432.979	12656.96
433.187	12794.17
433.394	12880.19
433.601	13730.09
433.808	13816.11
434.016	13791.53
434.223	14246.18
434.43	14973.21
434.637	14801.18
434.844	15819.02
435.052	15962.38
435.259	15802.64
435.466	16171.27
435.673	15862.03
435.88	16980.22
436.087	17907.95
436.294	17930.48
436.501	17340.66
436.708	17725.68
436.915	18346.22
437.122	19304.67
437.329	19189.98
437.537	19820.75
437.743	19921.1
437.95	19923.15
438.157	21252.28
438.364	21670.07
438.571	21405.88
438.778	21817.52
438.985	23312.54
439.192	22833.32
439.399	23394.46
439.606	23058.59
439.813	24459.4
440.02	25819.25
440.227	25639.03
440.433	25059.46
440.64	26058.87
440.847	25895.03
441.054	26521.71
441.261	28350.54
441.467	27820.12
441.674	28487.76
441.881	29478.97
442.088	29532.22
442.294	28921.93
442.501	29732.92
442.708	30210.1
442.914	31490.08
443.121	32522.26
443.328	32020.5
443.534	34179.06
443.741	32956.43
443.948	32370.71
444.154	35078.12
444.361	34555.89
444.568	34873.32
444.774	34967.53
444.981	35493.86
445.187	36376.53
445.394	37959.61
445.6	37171.14
445.807	40347.54
446.013	39006.12
446.22	39770.02
446.426	41392.01
446.633	41561.99
446.839	43167.6
447.046	41023.37
447.252	43349.87
447.459	43603.81
447.665	43134.83
447.871	45510.47
448.078	47003.44
448.284	45102.93
448.491	46344
448.697	47798.05
448.903	48776.98
449.11	48547.61
449.316	47871.78
449.522	48520.99
449.728	50001.67
449.935	50450.17
450.141	50437.89
450.347	51582.7
450.553	49938.18
450.76	50495.23
450.966	52315.87
451.172	51713.77
451.378	53171.92
451.584	51848.94
451.791	52637.4
451.997	52897.5
452.203	53751.5
452.409	53937.86
452.615	53477.07
452.821	51400.43
453.027	51318.51
453.233	53833.42
453.44	52008.68
453.646	52319.97
453.852	52993.75
454.058	53782.22
454.264	51879.66
454.47	52987.61
454.676	51320.56
454.882	53468.88
455.088	49174.29
455.294	49868.55
455.5	50540.28
455.705	51015.41
455.911	49190.67
456.117	48181.02
456.323	47507.24
456.529	45416.27
456.735	47611.69
456.941	45985.6
457.147	45856.58
457.352	43622.25
457.558	43587.43
457.764	43564.9
457.97	43030.38
458.176	41963.39
458.381	42088.32
458.587	39946.14
458.793	40081.31
458.999	38348.73
459.204	40892.3
459.41	39419.81
459.616	37240.78
459.821	37314.5
460.027	37128.14
460.233	36163.54
460.438	34226.17
460.644	34918.38
460.85	33654.78
461.055	32944.14
461.261	33077.26
461.466	30320.69
461.672	29347.9
461.878	31950.87
462.083	29562.94
462.289	29040.71
462.494	28805.19
462.7	27396.19
462.905	26712.17
463.111	27940.95
463.316	27953.24
463.522	27142.24
463.727	27179.11
463.932	27132
464.138	26736.74
464.343	27205.73
464.549	26310.77
464.754	27019.36
464.959	26910.82
465.165	26591.34
465.37	25469.05
465.575	25036.93
465.781	25884.79
465.986	25962.61
466.191	25188.48
466.397	24713.35
466.602	22991.01
466.807	24244.37
467.012	24404.11
467.218	23871.64
467.423	23896.21
467.628	23890.07
467.833	24764.55
468.038	23974.03
468.244	23380.12
468.449	24330.38
468.654	23552.15
468.859	23462.04
469.064	23007.39
469.269	22409.39
469.474	22462.63
469.679	23015.58
469.885	21876.91
470.09	22470.83
470.295	22507.69
470.5	21917.87
470.705	22079.66
470.91	21528.76
471.115	21246.14
471.32	21643.45
471.525	21471.42
471.73	20926.66
471.935	20836.55
472.139	20205.77
472.344	20873.41
472.549	20420.81
472.754	20271.31
472.959	19460.31
473.164	19370.2
473.369	19261.66
473.574	19888.34
473.778	19620.05
473.983	19638.48
474.188	19417.3
474.393	18778.34
474.598	18645.22
474.802	18393.32
475.007	18249.96
475.212	18413.8
475.417	17754.35
475.621	17840.37
475.826	17936.62
476.031	17430.77
476.235	17121.53
476.44	17398.01
476.645	16859.39
476.849	17246.46
477.054	17000.7
477.259	16302.34
477.463	16525.57
477.668	15995.15
477.872	16304.39
478.077	16279.82
478.282	15565.07
478.486	15618.32
478.691	15315.22
478.895	15284.5
479.1	15304.98
479.304	15360.28
479.509	14860.57
479.713	15028.51
479.918	14672.16
480.122	14522.66
480.326	14831.9
480.531	14903.58
480.735	14575.91
480.94	14504.23
481.144	14985.5
481.348	14139.69
481.553	14407.97
481.757	14137.64
481.961	14164.26
482.166	14424.36
482.37	14301.48
482.574	13984.04
482.778	14481.7
482.983	14377.25
483.187	14381.35
483.391	14395.68
483.595	14285.09
483.8	13975.85
484.004	14147.88
484.208	14262.57
484.412	14088.49
484.616	14217.51
484.821	14039.34
485.025	13934.89
485.229	14068.01
485.433	13996.33
485.637	14237.99
485.841	14049.58
486.045	13951.28
486.249	14115.11
486.453	13932.84
486.657	14063.91
486.861	14205.22
487.065	13832.49
487.269	14047.53
487.473	13726
487.677	14123.3
487.881	14018.86
488.085	14090.54
488.289	14070.06
488.493	14317.86
488.697	14301.48
488.901	14313.77
489.105	14100.78
489.309	14379.3
489.512	14418.21
489.716	14176.55
489.92	14336.29
490.124	14475.56
490.328	14688.54
490.531	14577.95
490.735	14715.17
490.939	14741.79
491.143	14457.12
491.346	14493.99
491.55	14551.33
491.754	14868.77
491.958	14725.41
492.161	14846.24
492.365	14727.46
492.569	14924.06
492.772	14784.8
492.976	14981.4
493.18	15163.67
493.383	15311.13
493.587	15341.85
493.79	15255.83
493.994	15337.75
494.197	15372.57
494.401	15671.57
494.605	15651.09
494.808	16115.98
495.012	15937.8
495.215	15864.08
495.419	16175.37
495.622	15859.98
495.825	16431.37
496.029	16533.76
496.232	16484.61
496.436	16523.52
496.639	16990.46
496.843	17099
497.046	17148.15
497.249	17203.45
497.453	17209.59
497.656	17367.29
497.859	17567.99
498.063	17877.23
498.266	18438.37
498.469	17928.43
498.673	18346.22
498.876	18514.15
499.079	18819.3
499.282	19153.12
499.485	19310.81
499.689	19144.92
499.892	19581.14
500.095	19568.85
500.298	20103.37
500.501	19865.81
500.705	20603.08
500.908	20773.06
501.111	20881.6
501.314	20863.17
501.517	21227.71
501.72	21633.21
501.923	21608.63
502.126	22061.23
502.329	22220.97
502.532	22405.29
502.735	22661.29
502.938	22984.87
503.141	23111.84
503.344	23519.39
503.547	23517.34
503.75	24082.58
503.953	24131.73
504.156	24236.17
504.359	24596.62
504.562	24817.8
504.765	25172.1
504.968	25663.61
505.17	25655.42
505.373	25684.09
505.576	26056.82
505.779	26499.18
505.982	26511.47
506.185	27289.7
506.387	27048.04
506.59	27508.83
506.793	28348.5
506.996	27785.3
507.198	28870.73
507.401	28287.06
507.604	28753.99
507.807	29177.92
508.009	29317.18
508.212	29579.32
508.415	29876.28
508.617	30879.78
508.82	30566.45
509.022	30228.53
509.225	31586.33
509.428	31332.39
509.63	32024.6
509.833	31879.19
510.035	32632.85
510.238	32210.96
510.44	32954.38
510.643	33255.43
510.845	33437.7
511.048	33640.45
511.25	33941.5
511.453	34328.56
511.655	35428.32
511.858	35024.87
512.06	35473.38
512.262	35981.27
512.465	35706.85
512.667	36425.68
512.87	36937.68
513.072	36765.65
513.274	37656.51
513.477	37892.03
513.679	38254.52
513.881	38420.41
514.084	39098.28
514.286	38668.21
514.488	38819.76
514.69	40370.07
514.893	39894.94
515.095	40071.07
515.297	40632.21
515.499	40931.22
515.701	41865.09
515.904	41715.59
516.106	42037.12
516.308	42520.44
516.51	42977.14
516.712	43036.53
516.914	43437.93
517.116	43738.98
517.318	43937.63
517.52	44453.72
517.722	44504.92
517.925	45252.43
518.127	45870.92
518.329	46081.86
518.531	45414.22
518.733	46788.41
518.935	46505.79
519.136	47259.44
519.338	47796.01
519.54	47699.75
519.742	48193.31
519.944	48308
520.146	49151.76
520.348	48840.47
520.55	49458.96
520.752	49874.69
520.954	50577.15
521.155	50272
521.357	50728.7
521.559	51279.6
521.761	51412.72
521.963	51662.57
522.164	51750.63
522.366	52258.53
522.568	52672.22
522.77	52965.08
522.971	53415.63
523.173	53194.45
523.375	53657.29
523.576	53548.75
523.778	53997.26
523.98	54269.64
524.181	54779.58
524.383	54961.85
524.584	55209.65
524.786	55778.99
524.988	54890.17
525.189	55957.16
525.391	56024.75
525.592	56399.52
525.794	56497.83
525.995	56508.07
526.197	56661.66
526.398	57159.32
526.6	57075.35
526.801	57343.64
527.003	57224.85
527.204	57679.5
527.406	58338.95
527.607	58267.27
527.808	58349.19
528.01	57880.2
528.211	58064.52
528.412	59100.79
528.614	58404.48
528.815	58857.09
529.016	59252.34
529.218	58836.61
529.419	59332.21
529.62	59225.72
529.822	58918.52
530.023	59203.19
530.224	59207.29
530.425	59401.85
530.626	59043.45
530.828	59135.61
531.029	60098.15
531.23	59659.89
531.431	59420.28
531.632	60044.91
531.833	59715.18
532.035	59846.25
532.236	59819.63
532.437	60225.13
532.638	59930.22
532.839	60079.72
533.04	60399.21
533.241	59305.59
533.442	61273.69
533.643	60446.31
533.844	60061.29
534.045	60593.76
534.246	59543.16
534.447	60712.55
534.648	60124.78
534.849	60479.08
535.05	60175.98
535.251	60235.37
535.451	60012.14
535.652	60448.36
535.853	60180.07
536.054	59926.13
536.255	60540.52
536.456	60069.48
536.657	61167.19
536.857	60425.83
537.058	60165.74
537.259	60739.17
537.46	60513.89
537.66	59930.22
537.861	60266.09
538.062	60546.66
538.263	60796.51
538.463	60239.46
538.664	60345.96
538.865	60309.1
539.065	60634.72
539.266	60323.43
539.466	61001.31
539.667	59909.74
539.868	60651.11
540.068	60073.58
540.269	60036.72
540.469	60479.08
540.67	60126.83
540.87	60061.29
541.071	59674.23
541.271	60196.46
541.472	59846.25
541.672	59684.47
541.873	60012.14
542.073	59203.19
542.274	60122.73
542.474	59805.3
542.675	59692.66
542.875	60579.43
543.075	59647.6
543.276	59418.23
543.476	60046.96
543.676	59602.55
543.877	59885.17
544.077	60034.67
544.277	59840.11
544.478	59680.37
544.678	59913.84
544.878	60188.27
545.078	59774.58
545.279	59287.16
545.479	59618.93
545.679	59983.47
545.879	59790.96
546.079	59733.62
546.28	59770.48
546.48	59395.7
546.68	59346.55
546.88	59831.92
547.08	59561.59
547.28	59326.07
547.48	59274.87
547.68	59709.04
547.88	59270.78
548.081	59674.23
548.281	59285.11
548.481	59469.43
548.681	59817.58
548.881	59061.88
549.081	59174.52
549.28	58824.32
549.48	59768.43
549.68	59025.02
549.88	59668.08
550.08	59233.91
550.28	59405.94
550.48	59274.87
550.68	59340.41
550.88	59151.99
551.08	59043.45
551.279	59135.61
551.479	58742.4
551.679	59344.5
551.879	58955.39
552.079	59348.6
552.278	59076.22
552.478	59356.79
552.678	59033.21
552.878	59190.9
553.077	59139.71
553.277	58619.52
553.477	59317.88
553.676	58873.47
553.876	58689.15
554.076	58842.75
554.275	58975.87
554.475	58248.84
554.674	58640
554.874	58844.8
555.074	58451.59
555.273	58955.39
555.473	58961.53
555.672	58121.87
555.872	58177.16
556.071	58521.22
556.271	58877.57
556.47	58355.33
556.67	58134.15
556.869	58220.17
557.068	58820.22
557.268	58152.58
557.467	58232.46
557.667	57781.9
557.866	58177.16
558.065	58193.54
558.265	57912.97
558.464	57587.35
558.663	58504.84
558.863	57540.24
559.062	58470.02
559.261	57306.77
559.461	58467.97
559.66	56665.76
559.859	57644.69
560.058	57317.01
560.258	57503.38
560.457	57087.64
560.656	57650.83
560.855	57298.58
561.054	57673.36
561.253	56923.8
561.453	57486.99
561.652	57269.91
561.851	57865.87
562.05	57128.6
562.249	56776.35
562.448	57378.45
562.647	57071.26
562.846	57130.65
563.045	56784.54
563.244	56708.77
563.443	56594.08
563.642	56194.73
563.841	56817.31
564.04	56374.95
564.239	56880.8
564.438	56350.37
564.637	56102.57
564.836	56260.26
565.035	55985.83
565.234	56159.91
565.432	56108.71
565.631	55795.37
565.83	55850.67
566.029	56047.27
566.228	55602.86
566.427	56016.55
566.625	55498.42
566.824	55140.02
567.023	55557.81
567.222	54648.51
567.42	55301.81
567.619	54949.56
567.818	54744.76
568.016	54924.99
568.215	55152.31
568.414	55342.77
568.612	55619.25
568.811	54570.69
569.01	54519.49
569.208	54191.81
569.407	54585.02
569.605	54157
569.804	54609.6
570.002	53761.74
570.201	54425.28
570.4	54062.79
570.598	54073.03
570.797	53253.84
570.995	53585.61
571.193	53399.25
571.392	53835.47
571.59	53393.11
571.789	53294.8
571.987	52995.8
572.186	52948.7
572.384	53114.58
572.582	52778.71
572.781	53188.31
572.979	51984.1
573.177	52719.32
573.376	52635.36
573.574	52041.45
573.772	52868.83
573.971	52547.29
574.169	51875.56
574.367	51883.75
574.565	52229.86
574.763	51838.7
574.962	51781.35
575.16	51240.69
575.358	51463.92
575.556	50884.34
575.754	51525.36
575.952	50708.22
576.151	51414.77
576.349	50599.68
576.547	51087.09
576.745	50878.2
576.943	51187.44
577.141	50958.07
577.339	50689.79
577.537	50386.69
577.735	50083.59
577.933	50409.21
578.131	50386.69
578.329	49925.89
578.527	49401.61
578.725	49671.95
578.923	50032.39
579.121	49362.7
579.319	49387.28
579.516	49968.9
579.714	49512.2
579.912	49280.78
580.11	48975.64
580.308	48881.43
580.506	48863
580.704	48400.16
580.901	48701.21
581.099	49231.63
581.297	48041.76
581.495	48240.42
581.692	48574.23
581.89	47703.85
582.088	48242.46
582.285	47816.49
582.483	48023.33
582.681	47912.74
582.878	47761.19
583.076	47304.49
583.274	47384.36
583.471	46774.07
583.669	47562.54
583.866	46520.12
584.064	47363.89
584.262	46618.42
584.459	46616.38
584.657	46350.14
584.854	47036.21
585.052	46022.47
585.249	46567.23
585.447	46247.74
585.644	45827.91
585.841	46178.11
586.039	46151.49
586.236	45809.48
586.434	45541.19
586.631	45487.95
586.828	45467.47
587.026	45119.31
587.223	44603.22
587.42	44978
587.618	44588.89
587.815	44570.46
588.012	44599.13
588.21	44566.36
588.407	44631.89
588.604	44578.65
588.801	44269.4
588.999	44021.6
589.196	43935.59
589.393	44162.91
589.59	43505.51
589.787	43388.78
589.984	43392.87
590.182	43104.11
590.379	43423.59
590.576	42706.8
590.773	43177.84
590.97	43007.86
591.167	43075.44
591.364	42352.51
591.561	42798.96
591.758	42436.47
591.955	42440.57
592.152	42264.44
592.349	41820.03
592.546	42352.51
592.743	41840.51
592.94	41840.51
593.137	42061.69
593.334	41891.71
593.531	40976.27
593.727	41719.68
593.924	41334.67
594.121	40646.55
594.318	41170.83
594.515	40888.21
594.712	41144.2
594.908	40525.72
595.105	40945.55
595.302	40585.11
595.499	40667.03
595.696	40228.76
595.892	39856.03
596.089	40363.93
596.286	40118.17
596.482	39823.26
596.679	39770.02
596.876	39694.24
597.072	39526.31
597.269	39546.79
597.466	38735.79
597.662	39163.82
597.859	39059.37
598.055	38750.13
598.252	38647.73
598.448	38686.64
598.645	38965.17
598.841	38041.53
599.038	37967.8
599.234	38279.1
599.431	37932.99
599.627	38080.44
599.824	38115.26
600.02	37494.72
600.217	37801.92
600.413	37527.49
600.609	37504.96
600.806	37246.92
601.002	37810.11
601.198	37040.07
601.395	36673.49
601.591	37050.31
601.787	37197.77
601.984	36773.84
602.18	37191.62
602.376	36583.38
602.572	36235.22
602.769	36612.05
602.965	35925.98
603.161	36356.05
603.357	35903.45
603.553	35835.87
603.75	35968.99
603.946	35680.22
604.142	36155.35
604.338	35383.27
604.534	35606.5
604.73	34797.55
604.926	34975.72
605.122	35446.76
605.318	34805.74
605.514	34437.11
605.71	34824.17
605.906	34537.46
606.102	34449.39
606.298	34555.89
606.494	34383.86
606.69	34672.62
606.886	34269.17
607.082	33912.83
607.278	34191.35
607.474	33716.22
607.67	34148.34
607.866	33560.58
608.062	34123.77
608.257	33896.44
608.453	33857.53
608.649	33902.59
608.845	33212.42
609.041	33298.44
609.236	33384.45
609.432	33521.66
609.628	33447.94
609.824	33456.13
610.019	32985.1
610.215	32962.57
610.411	33062.92
610.606	32765.96
610.802	32987.14
610.998	32491.54
611.193	32624.65
611.389	32587.79
611.584	31961.11
611.78	32301.08
611.976	32417.81
612.171	32223.25
612.367	32514.06
612.562	32542.74
612.758	31817.75
612.953	31834.14
613.149	32413.71
613.344	31475.74
613.539	32083.99
613.735	31883.29
613.93	31705.12
614.126	31621.15
614.321	32129.05
614.517	31830.04
614.712	31457.31
614.907	31561.76
615.103	31832.09
615.298	31811.61
615.493	31649.82
615.688	31395.87
615.884	31936.54
616.079	31051.81
616.274	31406.11
616.47	30746.67
616.665	30928.94
616.86	30988.33
617.055	30709.8
617.25	31039.53
617.445	31277.09
617.641	30435.38
617.836	30668.84
618.031	30191.67
618.226	30722.09
618.421	30238.77
618.616	30392.37
618.811	30029.88
619.006	30683.18
619.201	29573.18
619.396	30203.96
619.591	29372.48
619.786	29683.77
619.981	29284.42
620.176	29827.13
620.371	29036.61
620.566	28846.15
620.761	28835.91
620.956	29251.65
621.151	28737.61
621.346	29210.69
621.541	28149.84
621.735	28518.48
621.93	28217.43
622.125	28356.69
622.32	27848.79
622.515	28162.13
622.709	27480.16
622.904	27537.5
623.099	27349.09
623.294	27416.67
623.488	27054.18
623.683	27451.49
623.878	26826.85
624.072	26939.49
624.267	26706.02
624.462	26579.05
624.656	26249.33
624.851	25976.95
625.046	25987.19
625.24	26126.45
625.435	25811.06
625.629	25788.53
625.824	25755.77
626.018	25614.46
626.213	25061.51
626.407	25262.21
626.602	24793.22
626.796	25022.59
626.991	24883.33
627.185	24760.45
627.38	24518.79
627.574	24572.04
627.768	24113.3
627.963	24162.45
628.157	24117.39
628.352	23937.17
628.546	23842.96
628.74	23820.44
628.935	23140.51
629.129	23527.58
629.323	23373.98
629.517	23224.48
629.712	22962.34
629.906	22868.13
630.1	22657.19
630.294	22837.41
630.489	22393
630.683	22917.28
630.877	22374.57
631.071	22042.8
631.265	22124.72
631.459	22124.72
631.653	22134.96
631.848	22143.15
632.042	21612.73
632.236	21762.23
632.43	21293.24
632.624	21616.82
632.818	21465.27
633.012	20994.24
633.206	21276.86
633.4	21248.19
633.594	20736.2
633.788	20797.63
633.982	20871.36
634.176	20754.63
634.369	20119.76
634.563	20324.55
634.757	20205.77
634.951	20295.88
635.145	20095.18
635.339	20162.76
635.533	19900.62
635.726	19863.76
635.92	19280.09
636.114	19796.18
636.308	19558.61
636.501	19372.25
636.695	19386.58
636.889	19153.12
637.083	19173.6
637.276	19161.31
637.47	18743.52
637.664	18862.3
637.857	18778.34
638.051	18624.74
638.244	18489.57
638.438	18606.31
638.632	18471.14
638.825	18077.93
639.019	18055.4
639.212	18229.48
639.406	17948.91
639.599	17797.36
639.793	17735.92
639.986	17547.51
640.18	17672.43
640.373	17678.58
640.567	17246.46
640.76	17449.21
640.954	17244.41
641.147	16963.84
641.34	17070.33
641.534	16937.21
641.727	16933.12
641.92	16859.39
642.114	16740.61
642.307	16556.29
642.5	16333.06
642.694	16275.72
642.887	16189.7
643.08	16466.18
643.273	16115.98
643.467	16296.2
643.66	15925.52
643.853	15847.69
644.046	15544.59
644.239	15624.47
644.432	15716.62
644.626	15407.38
644.819	15466.77
645.012	15388.95
645.205	15419.67
645.398	15403.28
645.591	15180.06
645.784	15302.93
645.977	14915.87
646.17	15118.62
646.363	14962.97
646.556	14637.34
646.749	14895.39
646.942	14885.15
647.135	14385.44
647.328	14620.96
647.521	14469.41
647.714	14262.57
647.907	14281
648.099	14336.29
648.292	14086.44
648.485	14131.5
648.678	14039.34
648.871	13977.9
649.064	13560.11
649.256	13893.93
649.449	13885.74
649.642	13682.99
649.835	13515.06
650.027	13607.22
650.22	13410.61
650.413	13336.88
650.605	13367.6
650.798	13271.35
650.991	13148.47
651.183	13025.59
651.376	13046.07
651.568	12843.32
651.761	12861.76
651.954	12857.66
652.146	12896.57
652.339	12894.52
652.531	12552.51
652.724	12570.94
652.916	12216.65
653.109	12443.97
653.301	12384.58
653.494	12476.74
653.686	12155.21
653.879	12366.15
654.071	11940.17
654.263	11936.07
654.456	12362.05
654.648	11974.99
654.84	11536.72
655.033	11872.59
655.225	11903.31
655.417	11770.19
655.61	11667.79
655.802	11534.67
655.994	11471.18
656.186	11551.06
656.379	11473.23
656.571	11338.07
656.763	11256.15
656.955	11112.79
657.148	11262.29
657.34	11098.45
657.532	11032.92
657.724	10977.62
657.916	11102.55
658.108	10854.75
658.3	10842.46
658.492	10647.9
658.684	10690.91
658.876	10637.66
659.068	10531.17
659.26	10463.58
659.452	10426.72
659.644	10426.72
659.836	10541.41
660.028	10234.21
660.22	10168.68
660.412	10117.48
660.604	10174.82
660.796	10396
660.988	10037.61
661.18	9914.73
661.372	10006.89
661.563	9888.11
661.755	9877.87
661.947	9773.42
662.139	9677.16
662.331	9851.24
662.522	9619.82
662.714	9595.25
662.906	9398.64
663.097	9402.74
663.289	9326.96
663.481	9355.63
663.673	9261.43
663.864	9220.47
664.056	9111.92
664.247	9101.69
664.439	9040.25
664.631	9169.27
664.822	9009.53
665.014	9091.45
665.205	9118.07
665.397	8982.9
665.588	8894.84
665.78	8794.49
665.971	8786.3
666.163	8839.55
666.354	8759.67
666.546	8665.47
666.737	8419.71
666.929	8614.27
667.12	8587.64
667.311	8454.53
667.503	8503.68
667.694	8462.72
667.885	8280.45
668.077	8276.35
668.268	8178.05
668.459	8122.76
668.651	8284.55
668.842	8178.05
669.033	8200.58
669.224	8128.9
669.416	8233.35
669.607	7993.73
669.798	7981.45
669.989	8194.43
670.18	7971.21
670.371	7987.59
670.563	7946.63
670.754	7901.58
670.945	7590.28
671.136	7877
671.327	7614.86
671.518	7698.83
671.709	7702.92
671.9	7883.14
672.091	7551.37
672.282	7498.13
672.473	7498.13
672.664	7627.15
672.855	7428.49
673.046	7584.14
673.237	7594.38
673.428	7496.08
673.619	7313.81
673.809	7278.99
674	7367.06
674.191	7487.89
674.382	7078.29
674.573	7260.56
674.764	7102.87
674.954	7238.03
675.145	7059.86
675.336	7027.09
675.527	7045.52
675.717	7066
675.908	6885.78
676.099	6973.85
676.289	6986.13
676.48	6920.6
676.671	6846.87
676.861	7012.76
677.052	6726.04
677.243	6572.44
677.433	6998.42
677.624	6898.07
677.814	6769.05
678.005	6924.69
678.195	6637.98
678.386	6857.11
678.576	6586.78
678.767	6545.82
678.957	6578.59
679.148	6619.55
679.338	6453.66
679.529	6500.76
679.719	6367.65
679.909	6603.16
680.1	6431.13
680.29	6480.29
680.481	6496.67
680.671	6631.83
680.861	6435.23
681.052	6390.17
681.242	6398.37
681.432	6418.85
681.622	6226.34
681.813	6193.57
682.003	6158.75
682.193	6162.85
682.383	6330.78
682.573	6207.91
682.764	6277.54
682.954	6201.76
683.144	6226.34
683.334	6048.16
683.524	6207.91
683.714	6158.75
683.904	5996.96
684.094	6162.85
684.284	6005.16
684.474	6011.3
684.664	5999.01
684.854	5931.43
685.044	5988.77
685.234	5874.09
685.424	5915.05
685.614	5865.89
685.804	5771.69
685.994	5919.14
686.184	5869.99
686.374	5720.49
686.564	5771.69
686.753	5644.71
686.943	5693.87
687.133	5677.48
687.323	5577.13
687.513	5556.65
687.702	5646.76
687.892	5540.27
688.082	5669.29
688.272	5644.71
688.461	5507.5
688.651	5333.42
688.841	5517.74
689.03	5474.73
689.22	5501.36
689.41	5349.81
689.599	5294.51
689.789	5407.15
689.979	5444.01
690.168	5147.06
690.358	5290.42
690.547	5183.92
690.737	5212.59
690.926	5231.02
691.116	4952.5
691.305	5208.5
691.495	5110.19
691.684	5005.75
691.874	5126.58
692.063	5181.87
692.252	5179.82
692.442	5050.8
692.631	4841.91
692.82	4932.02
693.01	4977.08
693.199	4993.46
693.388	4688.31
693.578	4837.81
693.767	4833.72
693.956	4858.29
694.146	4755.9
694.335	4989.36
694.524	4778.42
694.713	4540.86
694.902	4755.9
695.092	4671.93
695.281	4725.18
695.47	4706.74
695.659	4739.51
695.848	4614.59
696.037	4663.74
696.226	4680.12
696.415	4458.94
696.604	4555.19
696.793	4393.4
696.982	4520.38
697.171	4499.9
697.36	4663.74
697.549	4465.08
697.738	4598.2
697.927	4458.94
698.116	4497.85
698.305	4407.74
698.494	4456.89
698.683	4336.06
698.872	4499.9
699.061	4428.22
699.25	4245.95
699.438	4334.01
699.627	4284.86
699.816	4481.47
700.005	4397.5
700.193	4405.69
700.382	4311.49
700.571	4356.54
700.76	4387.26
700.948	4303.29
701.137	4276.67
701.326	4284.86
701.514	4151.74
701.703	4352.45
701.892	4116.93
702.08	4411.84
702.269	4172.22
702.457	4315.58
702.646	4170.18
702.834	4118.98
703.023	4057.54
703.212	4133.31
703.4	4049.35
703.589	4061.63
703.777	4075.97
703.965	4047.3
704.154	3963.33
704.342	4037.06
704.531	4108.74
704.719	4041.15
704.907	4141.5
705.096	3848.65
705.284	4002.24
705.472	3852.74
705.661	3969.48
705.849	4014.53
706.037	3840.45
706.226	3760.58
706.414	3797.45
706.602	3850.69
706.79	3830.21
706.979	3916.23
707.167	3932.61
707.355	3795.4
707.543	3834.31
707.731	3877.32
707.919	3748.29
708.107	3682.76
708.296	3813.83
708.484	3858.89
708.672	3721.67
708.86	3588.55
709.048	3719.62
709.236	3822.02
709.424	3670.47
709.612	3707.34
709.8	3666.38
709.988	3686.86
710.176	3719.62
710.364	3760.58
710.551	3545.55
710.739	3686.86
710.927	3711.43
711.115	3629.51
711.303	3656.14
711.491	3596.75
711.679	3606.98
711.866	3531.21
712.054	3469.77
712.242	3514.83
712.43	3482.06
712.617	3500.49
712.805	3408.33
712.993	3508.68
713.181	3340.75
713.368	3502.54
713.556	3377.61
713.744	3531.21
713.931	3604.94
714.119	3510.73
714.306	3535.31
714.494	3289.55
714.682	3375.56
714.869	3338.7
715.057	3320.27
715.244	3307.98
715.432	3443.15
715.619	3367.37
715.807	3324.37
715.994	3363.28
716.182	3418.57
716.369	3252.69
716.556	3269.07
716.744	3303.89
716.931	3301.84
717.119	3400.14
717.306	3260.88
717.493	3277.26
717.681	3369.42
717.868	3318.22
718.055	3244.49
718.242	3224.01
718.43	3252.69
718.617	3219.92
718.804	3170.77
718.991	3228.11
719.179	3252.69
719.366	3121.62
719.553	3080.66
719.74	3191.25
719.927	3111.38
720.114	3033.55
720.301	3086.8
720.488	3119.57
720.676	3074.51
720.863	3092.94
721.05	3123.66
721.237	3148.24
721.424	3051.99
721.611	3086.8
721.798	2974.16
721.985	3156.43
722.172	3080.66
722.358	3008.98
722.545	3084.75
722.732	2869.72
722.919	3080.66
723.106	2935.25
723.293	2855.38
723.48	3088.85
723.667	3023.31
723.853	2986.45
724.04	2968.02
724.227	2937.3
724.414	3023.31
724.6	2900.44
724.787	2982.35
724.974	2912.72
725.161	2992.59
725.347	2961.87
725.534	2892.24
725.72	3015.12
725.907	2910.68
726.094	2871.76
726.28	2886.1
726.467	2957.78
726.653	2830.8
726.84	2802.13
727.027	2972.11
727.213	2724.31
727.4	2679.26
727.586	2798.04
727.773	2841.04
727.959	2802.13
728.145	2820.56
728.332	2787.8
728.518	2736.6
728.705	2818.52
728.891	2732.5
729.077	2695.64
729.264	2709.97
729.45	2759.13
729.636	2769.37
729.823	2626.01
730.009	2820.56
730.195	2699.73
730.382	2695.64
730.568	2730.45
730.754	2558.42
730.94	2626.01
731.126	2662.87
731.313	2757.08
731.499	2669.02
731.685	2535.9
731.871	2742.74
732.057	2535.9
732.243	2673.11
732.429	2658.78
732.615	2623.96
732.801	2679.26
732.987	2580.95
733.173	2671.06
733.359	2517.47
733.545	2712.02
733.731	2675.16
733.917	2675.16
734.103	2568.66
734.289	2511.32
734.475	2560.47
734.661	2589.14
734.847	2613.72
735.033	2605.53
735.219	2548.19
735.404	2443.74
735.59	2599.38
735.776	2474.46
735.962	2648.54
736.148	2664.92
736.333	2521.56
736.519	2421.21
736.705	2539.99
736.89	2523.61
737.076	2273.76
737.262	2482.65
737.447	2372.06
737.633	2458.07
737.819	2519.51
738.004	2433.5
738.19	2353.63
738.375	2355.68
738.561	2476.51
738.747	2501.08
738.932	2402.78
739.118	2515.42
739.303	2347.48
739.489	2472.41
739.674	2294.24
739.859	2304.48
740.045	2386.4
740.23	2384.35
740.416	2324.96
740.601	2298.33
740.786	2310.62
740.972	2175.45
741.157	2345.44
741.342	2376.16
741.528	2243.04
741.713	2214.37
741.898	2243.04
742.084	2222.56
742.269	2312.67
742.454	2228.7
742.639	2245.09
742.824	2238.94
743.01	2255.33
743.195	2130.4
743.38	2128.35
743.565	2179.55
743.75	2159.07
743.935	2189.79
744.12	2148.83
744.305	2085.34
744.49	2058.72
744.675	2091.49
744.86	2097.63
745.045	2040.29
745.23	2195.93
745.415	2028
745.6	2103.78
745.785	1954.27
745.97	2068.96
746.155	2011.62
746.34	2056.67
746.525	1944.03
746.71	1982.95
746.895	1946.08
747.079	2034.14
747.264	1909.22
747.449	2028
747.634	1878.5
747.819	1917.41
748.003	1872.36
748.188	1915.36
748.373	1911.27
748.557	1903.07
748.742	1851.88
748.927	1882.6
749.111	1739.24
749.296	1792.48
749.481	1780.2
749.665	1700.33
749.85	1829.35
750.034	1735.14
750.219	1647.08
750.404	1761.77
750.588	1761.77
750.773	1659.37
750.957	1716.71
751.141	1757.67
751.326	1704.42
751.51	1602.02
751.695	1685.99
751.879	1657.32
752.064	1653.22
752.248	1630.7
752.432	1569.26
752.617	1640.93
752.801	1589.74
752.985	1579.5
753.17	1475.05
753.354	1542.63
753.538	1466.86
753.722	1559.02
753.907	1538.54
754.091	1638.89
754.275	1495.53
754.459	1446.38
754.643	1362.41
754.828	1403.37
755.012	1286.64
755.196	1356.27
755.38	1323.5
755.564	1380.84
755.748	1335.79
755.932	1421.8
756.116	1372.65
756.3	1378.79
756.484	1380.84
756.668	1407.47
756.852	1286.64
757.036	1294.83
757.22	1305.07
757.404	1296.88
757.588	1350.12
757.772	1208.81
757.956	1327.6
758.14	1307.12
758.323	1270.25
758.507	1241.58
758.691	1221.1
758.875	1241.58
759.059	1337.84
759.242	1274.35
759.426	1286.64
759.61	1165.81
759.794	1204.72
759.977	1212.91
760.161	1282.54
760.345	1229.29
760.528	1171.95
760.712	1141.23
760.895	1096.18
761.079	1151.47
761.263	1139.18
761.446	1081.84
761.63	1225.2
761.813	1100.27
761.997	1122.8
762.18	1081.84
762.364	1145.33
762.547	1100.27
762.731	1092.08
762.914	1171.95
763.098	1126.89
763.281	1085.94
763.464	1073.65
763.648	1116.65
763.831	1081.84
764.015	1085.94
764.198	1126.89
764.381	1069.55
764.564	1034.74
764.748	987.63
764.931	1075.7
765.114	983.54
765.297	1004.02
765.481	999.92
765.664	1024.5
765.847	1014.26
766.03	1092.08
766.213	1053.17
766.397	961.01
766.58	967.15
766.763	1040.88
766.946	887.28
767.129	934.39
767.312	930.29
767.495	934.39
767.678	1006.06
767.861	971.25
768.044	961.01
768.227	887.28
768.41	975.35
768.593	991.73
768.776	901.62
768.959	913.91
769.142	918
769.324	893.43
769.507	1051.12
769.69	940.53
769.873	903.67
770.056	918
770.239	924.15
770.421	969.2
770.604	915.95
770.787	887.28
770.97	948.72
771.152	870.9
771.335	905.71
771.518	887.28
771.7	920.05
771.883	885.23
772.066	862.71
772.248	885.23
772.431	866.8
772.613	786.93
772.796	791.03
772.978	807.41
773.161	903.67
773.343	788.98
773.526	877.04
773.708	719.35
773.891	862.71
774.073	758.26
774.256	778.74
774.438	770.55
774.621	715.25
774.803	866.8
774.985	748.02
775.168	799.22
775.35	723.44
775.532	772.6
775.715	733.68
775.897	829.94
776.079	721.4
776.261	723.44
776.444	827.89
776.626	811.51
776.808	690.68
776.99	723.44
777.173	770.55
777.355	750.07
777.537	684.53
777.719	678.39
777.901	723.44
778.083	674.29
778.265	657.91
778.447	631.29
778.629	598.52
778.811	637.43
778.993	721.4
779.175	657.91
779.357	641.53
779.539	573.94
779.721	643.57
779.903	590.33
780.085	672.25
780.267	590.33
780.449	641.53
780.631	672.25
780.812	584.18
780.994	633.33
781.176	567.8
781.358	520.7
781.54	666.1
781.721	524.79
781.903	594.42
782.085	612.85
782.267	721.4
782.448	561.66
782.63	518.65
782.812	604.66
782.993	627.19
783.175	530.94
783.357	551.42
783.538	516.6
783.72	565.75
783.901	469.5
784.083	487.93
784.264	557.56
784.446	500.22
784.627	489.98
784.809	526.84
784.99	389.63
785.172	559.61
785.353	532.98
785.535	403.96
785.716	526.84
785.897	451.07
786.079	463.35
786.26	463.35
786.441	469.5
786.623	401.91
786.804	449.02
786.985	442.87
787.167	399.87
787.348	477.69
787.529	360.95
787.71	455.16
787.891	520.7
788.073	481.78
788.254	332.28
788.435	477.69
788.616	459.26
788.797	416.25
788.978	363
789.159	367.1
789.34	365.05
789.522	414.2
789.703	408.06
789.884	424.44
790.065	381.43
790.246	344.57
790.427	467.45
790.607	414.2
790.788	379.39
790.969	363
791.15	442.87
791.331	410.11
791.512	303.61
791.693	334.33
791.874	336.38
792.054	393.72
792.235	387.58
792.416	426.49
792.597	344.57
792.778	385.53
792.958	301.56
793.139	363
793.32	408.06
793.5	354.81
793.681	371.19
793.862	338.43
794.042	373.24
794.223	352.76
794.404	358.91
794.584	313.85
794.765	315.9
794.945	356.86
795.126	340.47
795.306	406.01
795.487	338.43
795.667	328.19
795.848	266.75
796.028	262.65
796.209	313.85
796.389	305.66
796.57	291.32
796.75	338.43
796.93	348.67
797.111	262.65
797.291	291.32
797.471	340.47
797.652	285.18
797.832	238.08
798.012	369.15
798.192	283.13
798.373	320
798.553	262.65
798.733	262.65
798.913	193.02
799.093	287.23
799.274	229.88
799.454	217.6
799.634	301.56
799.814	377.34
799.994	295.42
800.174	258.56
800.354	260.6
800.534	240.12
800.714	289.28
800.894	164.35
801.074	176.64
801.254	283.13
801.434	360.95
801.614	250.36
801.794	287.23
801.974	764.4
802.154	287.23
802.334	225.79
802.514	272.89
802.693	233.98
802.873	158.21
803.053	221.69
803.233	291.32
803.413	231.93
803.592	311.8
803.772	147.97
803.952	262.65
804.131	242.17
804.311	238.08
804.491	209.4
804.67	293.37
804.85	139.77
805.03	193.02
805.209	193.02
805.389	188.93
805.568	158.21
805.748	176.64
805.928	238.08
806.107	270.84
806.287	289.28
806.466	209.4
806.646	250.36
806.825	231.93
807.004	172.54
807.184	225.79
807.363	197.12
807.543	147.97
807.722	197.12
807.901	250.36
808.081	233.98
808.26	90.62
808.439	250.36
808.619	207.36
808.798	182.78
808.977	166.4
809.156	207.36
809.336	199.16
809.515	139.77
809.694	174.59
809.873	109.05
810.052	164.35
810.231	182.78
810.411	117.25
810.59	147.97
810.769	184.83
810.948	246.27
811.127	119.29
811.306	221.69
811.485	143.87
811.664	217.6
811.843	180.73
812.022	160.25
812.201	190.97
812.38	147.97
812.559	207.36
812.737	123.39
812.916	125.44
813.095	158.21
813.274	180.73
813.453	195.07
813.632	102.91
813.811	180.73
813.989	113.15
814.168	131.58
814.347	121.34
814.526	156.16
814.704	180.73
814.883	172.54
815.062	64
815.24	164.35
815.419	96.77
815.598	166.4
815.776	109.05
815.955	119.29
816.133	100.86
816.312	174.59
816.49	209.4
816.669	180.73
816.847	207.36
817.026	166.4
817.204	139.77
817.383	158.21
817.561	209.4
817.74	229.88
817.918	137.73
818.097	78.33
818.275	272.89
818.453	117.25
818.632	111.1
818.81	84.48
818.988	180.73
819.167	88.57
819.345	141.82
819.523	209.4
819.701	145.92
819.879	86.53
820.058	166.4
820.236	201.21
820.414	129.53
820.592	74.24
820.77	139.77
820.948	195.07
821.127	156.16
821.305	82.43
821.483	45.57
821.661	168.45
821.839	84.48
822.017	141.82
822.195	84.48
822.373	168.45
822.551	78.33
822.729	98.81
822.907	88.57
823.085	201.21
823.262	111.1
823.44	86.53
823.618	127.49
823.796	139.77
823.974	121.34
824.152	147.97
824.329	162.3
824.507	92.67
824.685	107.01
824.863	51.71
825.04	164.35
825.218	166.4
825.396	59.9
825.574	143.87
825.751	119.29
825.929	131.58
826.107	27.14
826.284	100.86
826.462	107.01
826.639	147.97
826.817	45.57
826.994	90.62
827.172	51.71
827.349	188.93
827.527	119.29
827.704	160.25
827.882	152.06
828.059	49.66
828.237	182.78
828.414	123.39
828.591	74.24
828.769	92.67
828.946	57.86
829.124	201.21
829.301	57.86
829.478	70.14
829.655	115.2
829.833	127.49
830.01	123.39
830.187	61.95
830.364	111.1
830.542	53.76
830.719	123.39
830.896	74.24
831.073	90.62
831.25	80.38
831.427	98.81
831.604	61.95
831.782	-19.97
831.959	150.01
832.136	41.47
832.313	100.86
832.49	74.24
832.667	66.05
832.844	18.94
833.021	154.11
833.198	111.1
833.374	27.14
833.551	139.77
833.728	70.14
833.905	199.16
834.082	35.33
834.259	166.4
834.436	86.53
834.612	141.82
834.789	145.92
834.966	64
835.143	113.15
835.319	88.57
835.496	102.91
835.673	68.09
835.85	29.18
836.026	66.05
836.203	107.01
836.38	66.05
836.556	147.97
836.733	96.77
836.909	70.14
837.086	135.68
837.262	23.04
837.439	139.77
837.616	115.2
837.792	27.14
837.968	51.71
838.145	14.85
838.321	66.05
838.498	66.05
838.674	59.9
838.851	8.7
839.027	43.52
839.203	41.47
839.38	43.52
839.556	111.1
839.732	123.39
839.909	0.51
840.085	139.77
840.261	41.47
840.437	33.28
840.614	0.51
840.79	123.39
840.966	51.71
841.142	49.66
841.318	76.29
841.494	94.72
841.671	70.14
841.847	66.05
842.023	23.04
842.199	82.43
842.375	45.57
842.551	-5.63
842.727	66.05
842.903	145.92
843.079	12.8
843.255	84.48
843.431	31.23
843.607	125.44
843.783	45.57
843.959	82.43
844.134	123.39
844.31	68.09
844.486	-3.58
844.662	74.24
844.838	27.14
845.013	33.28
845.189	16.9
845.365	115.2
845.541	86.53
845.716	82.43
845.892	76.29
846.068	27.14
846.244	25.09
846.419	115.2
846.595	25.09
846.77	-58.88
846.946	51.71
847.122	74.24
847.297	25.09
847.473	90.62
847.648	25.09
847.824	55.81
847.999	51.71
848.175	74.24
848.35	37.38
848.526	100.86
848.701	57.86
848.876	72.19
849.052	74.24
849.227	107.01
849.403	-24.06
849.578	98.81
849.753	100.86
849.929	10.75
850.104	61.95
850.279	18.94
850.454	61.95
850.63	49.66
850.805	117.25
850.98	33.28
851.155	53.76
851.33	-5.63
851.505	43.52
851.681	61.95
851.856	25.09
852.031	68.09
852.206	27.14
852.381	16.9
852.556	78.33
852.731	45.57
852.906	49.66
853.081	51.71
853.256	61.95
853.431	-1.54
853.606	4.61
853.781	25.09
853.956	-93.69
854.131	-13.82
854.305	8.7
854.48	4.61
854.655	25.09
854.83	41.47
855.005	20.99
855.18	33.28
855.354	31.23
855.529	55.81
855.704	45.57
855.879	53.76
856.053	57.86
856.228	70.14
856.403	16.9
856.577	66.05
856.752	2.56
856.926	41.47
857.101	102.91
857.276	61.95
857.45	27.14
857.625	0.51
857.799	2.56
857.974	49.66
858.148	-52.74
858.323	78.33
858.497	43.52
858.672	-17.92
858.846	37.38
859.02	66.05
859.195	41.47
859.369	23.04
859.543	70.14
859.718	41.47
859.892	57.86
860.066	14.85
860.241	61.95
860.415	8.7
860.589	10.75
860.763	31.23
860.938	49.66
861.112	76.29
861.286	107.01
861.46	61.95
861.634	47.62
861.808	31.23
861.982	10.75
862.157	53.76
862.331	-24.06
862.505	-7.68
862.679	16.9
862.853	-7.68
863.027	33.28
863.201	16.9
863.375	8.7
863.549	74.24
863.722	41.47
863.896	27.14
864.07	25.09
864.244	2.56
864.418	107.01
864.592	43.52
864.766	29.18
864.939	37.38
865.113	-32.26
865.287	8.7
865.461	55.81
865.634	-13.82
865.808	-28.16
865.982	0.51
866.156	-11.78
866.329	41.47
866.503	35.33
866.676	10.75
866.85	49.66
867.024	-38.4
867.197	51.71
867.371	41.47
867.544	66.05
867.718	-30.21
867.891	41.47
868.065	-3.58
868.238	29.18
868.412	74.24
868.585	12.8
868.759	57.86
868.932	16.9
869.105	10.75
869.279	59.9
869.452	16.9
869.625	33.28
869.799	-54.78
869.972	-24.06
870.145	-1.54
870.319	111.1
870.492	-28.16
870.665	-7.68
870.838	-7.68
871.011	25.09
871.185	25.09
871.358	12.8
871.531	-11.78
871.704	12.8
871.877	92.67
872.05	25.09
872.223	-5.63
872.396	6.66
872.569	53.76
872.742	-13.82
872.915	33.28
873.088	-54.78
873.261	-7.68
873.434	76.29
873.607	51.71
873.78	43.52
873.953	25.09
874.126	20.99
874.299	100.86
874.471	76.29
874.644	51.71
874.817	59.9
874.99	41.47
875.163	33.28
875.335	-30.21
875.508	59.9
875.681	41.47
875.853	-28.16
876.026	-15.87
876.199	66.05
876.371	72.19
876.544	49.66
876.717	2.56
876.889	-1.54
877.062	4.61
877.234	-36.35
877.407	-44.54
877.579	35.33
877.752	-28.16
877.924	133.63
878.097	74.24
878.269	8.7
878.442	43.52
878.614	20.99
878.786	27.14
878.959	16.9
879.131	-5.63
879.303	-56.83
879.476	92.67
879.648	57.86
879.82	2.56
879.993	84.48
880.165	25.09
880.337	4.61
880.509	18.94
880.681	-44.54
880.854	10.75
881.026	66.05
881.198	55.81
881.37	57.86
881.542	16.9
881.714	-1.54
881.886	78.33
882.058	8.7
882.23	80.38
882.402	-13.82
882.574	25.09
882.746	14.85
882.918	94.72
883.09	-17.92
883.262	49.66
883.434	29.18
883.606	-1.54
883.778	-56.83
883.95	94.72
884.122	47.62
884.293	96.77
884.465	-22.02
884.637	90.62
884.809	51.71
884.98	6.66
885.152	57.86
885.324	27.14
885.496	-46.59
885.667	-1.54
885.839	-28.16
886.011	84.48
886.182	45.57
886.354	104.96
886.525	33.28
886.697	72.19
886.869	-24.06
887.04	18.94
887.212	78.33
887.383	66.05
887.555	-3.58
887.726	23.04
887.897	-7.68
888.069	4.61
888.24	82.43
888.412	35.33
888.583	43.52
888.754	-48.64
888.926	25.09
889.097	-7.68
889.268	33.28
889.44	23.04
889.611	-24.06
889.782	25.09
889.953	66.05
890.125	25.09
890.296	-48.64
890.467	-7.68
890.638	-48.64
890.809	4.61
890.98	10.75
891.151	8.7
891.323	4.61
891.494	10.75
891.665	23.04
891.836	51.71
892.007	-36.35
892.178	-11.78
892.349	74.24
892.52	4.61
892.691	47.62
892.862	20.99
893.032	37.38
893.203	-13.82
893.374	-48.64
893.545	39.42
893.716	20.99
893.887	10.75
894.057	-15.87
894.228	109.05
894.399	2.56
894.57	-7.68
894.74	23.04
894.911	23.04
895.082	23.04
895.253	4.61
895.423	-32.26
895.594	8.7
895.764	78.33
895.935	-28.16
896.106	59.9
896.276	-28.16
896.447	29.18
896.617	16.9
896.788	35.33
896.958	-15.87
897.129	53.76
897.299	33.28
897.47	57.86
897.64	8.7
897.81	41.47
897.981	98.81
898.151	-3.58
898.322	2.56
898.492	-32.26
898.662	33.28
898.832	39.42
899.003	-30.21
899.173	49.66
899.343	18.94
899.513	37.38
