Data from USB4F104151__73__14-17-24-613.txt Node

Date: Thu Mar 13 14:17:24 EDT 2025
User: louis
Spectrometer: USB4F10415
Trigger mode: 4
Integration Time (sec): 2.000000E-2
Scans to average: 1
Electric dark correction enabled: true
Nonlinearity correction enabled: false
Boxcar width: 0
XAxis mode: Wavelengths
Number of Pixels in Spectrum: 3648
>>>>>Begin Spectral Data<<<<<
178.204	-170.32
178.424	-170.32
178.644	-170.32
178.864	-123.22
179.084	-135.51
179.304	22.19
179.524	5.8
179.744	-59.73
179.964	13.99
180.184	40.62
180.404	-47.44
180.624	30.38
180.844	-43.35
181.064	-18.77
181.283	57
181.503	-12.63
181.723	11.95
181.943	-43.35
182.163	73.39
182.383	-20.82
182.602	36.52
182.822	95.91
183.042	46.76
183.262	-2.39
183.482	-6.49
183.701	38.57
183.921	-39.25
184.141	-47.44
184.361	46.76
184.58	57
184.8	-0.34
185.02	38.57
185.239	-10.58
185.459	24.23
185.679	38.57
185.898	24.23
186.118	-2.39
186.338	22.19
186.557	48.81
186.777	-14.68
186.997	-0.34
187.216	13.99
187.436	-6.49
187.655	-35.16
187.875	20.14
188.095	32.43
188.314	71.34
188.534	30.38
188.753	26.28
188.973	9.9
189.192	5.8
189.412	40.62
189.631	79.53
189.851	65.19
190.07	50.86
190.29	46.76
190.509	-49.49
190.729	16.04
190.948	95.91
191.168	116.39
191.387	42.67
191.607	-10.58
191.826	16.04
192.045	30.38
192.265	22.19
192.484	16.04
192.704	1.71
192.923	-88.4
193.142	50.86
193.362	-26.96
193.581	7.85
193.8	13.99
194.02	-35.16
194.239	26.28
194.458	-18.77
194.678	5.8
194.897	54.95
195.116	1.71
195.335	-26.96
195.555	-35.16
195.774	24.23
195.993	73.39
196.212	-0.34
196.432	-26.96
196.651	-4.44
196.87	59.05
197.089	52.91
197.308	-47.44
197.528	-2.39
197.747	20.14
197.966	26.28
198.185	42.67
198.404	81.58
198.623	69.29
198.842	-2.39
199.062	40.62
199.281	46.76
199.5	-18.77
199.719	46.76
199.938	9.9
200.157	42.67
200.376	11.95
200.595	26.28
200.814	11.95
201.033	-8.53
201.252	34.47
201.471	24.23
201.69	13.99
201.909	85.67
202.128	-6.49
202.347	81.58
202.566	34.47
202.785	-22.87
203.004	32.43
203.223	73.39
203.442	36.52
203.661	22.19
203.879	52.91
204.098	36.52
204.317	-2.39
204.536	-26.96
204.755	13.99
204.974	7.85
205.193	13.99
205.411	18.09
205.63	40.62
205.849	46.76
206.068	1.71
206.287	-6.49
206.505	34.47
206.724	-18.77
206.943	-41.3
207.162	-33.11
207.381	26.28
207.599	1.71
207.818	32.43
208.037	-43.35
208.255	42.67
208.474	-10.58
208.693	57
208.911	-63.83
209.13	-57.68
209.349	-4.44
209.567	-41.3
209.786	73.39
210.005	-2.39
210.223	46.76
210.442	-10.58
210.661	75.43
210.879	-29.01
211.098	1.71
211.316	1.71
211.535	18.09
211.753	-76.12
211.972	65.19
212.191	-16.73
212.409	34.47
212.628	7.85
212.846	-18.77
213.065	-76.12
213.283	13.99
213.502	-33.11
213.72	30.38
213.938	26.28
214.157	20.14
214.375	50.86
214.594	-2.39
214.812	-0.34
215.031	-0.34
215.249	63.15
215.467	46.76
215.686	3.75
215.904	67.24
216.122	87.72
216.341	102.06
216.559	54.95
216.778	-31.06
216.996	50.86
217.214	-18.77
217.432	-14.68
217.651	13.99
217.869	81.58
218.087	9.9
218.306	63.15
218.524	83.63
218.742	-18.77
218.96	104.11
219.179	46.76
219.397	-12.63
219.615	9.9
219.833	79.53
220.051	-108.88
220.27	42.67
220.488	-8.53
220.706	67.24
220.924	22.19
221.142	-18.77
221.36	-26.96
221.578	65.19
221.796	-31.06
222.015	-8.53
222.233	7.85
222.451	42.67
222.669	-10.58
222.887	20.14
223.105	-39.25
223.323	-82.26
223.541	-18.77
223.759	-2.39
223.977	-67.92
224.195	26.28
224.413	30.38
224.631	38.57
224.849	40.62
225.067	54.95
225.285	30.38
225.503	79.53
225.721	-29.01
225.939	1.71
226.157	71.34
226.375	65.19
226.592	83.63
226.81	44.71
227.028	87.72
227.246	-57.68
227.464	46.76
227.682	9.9
227.9	32.43
228.117	18.09
228.335	20.14
228.553	20.14
228.771	18.09
228.989	22.19
229.206	22.19
229.424	-0.34
229.642	-4.44
229.86	-10.58
230.077	46.76
230.295	18.09
230.513	24.23
230.731	97.96
230.948	91.82
231.166	73.39
231.384	26.28
231.601	-6.49
231.819	34.47
232.037	-67.92
232.254	-63.83
232.472	30.38
232.689	61.1
232.907	9.9
233.125	-22.87
233.342	-2.39
233.56	22.19
233.777	48.81
233.995	-49.49
234.213	67.24
234.43	54.95
234.648	-6.49
234.865	-8.53
235.083	46.76
235.3	46.76
235.518	30.38
235.735	36.52
235.953	89.77
236.17	7.85
236.388	-8.53
236.605	50.86
236.822	75.43
237.04	54.95
237.257	38.57
237.475	-10.58
237.692	65.19
237.909	40.62
238.127	9.9
238.344	-51.54
238.562	-14.68
238.779	-18.77
238.996	-0.34
239.214	16.04
239.431	1.71
239.648	-72.02
239.865	34.47
240.083	-18.77
240.3	-16.73
240.517	-76.12
240.735	75.43
240.952	-16.73
241.169	5.8
241.386	7.85
241.603	-29.01
241.821	-63.83
242.038	13.99
242.255	59.05
242.472	-26.96
242.689	16.04
242.907	-24.92
243.124	44.71
243.341	40.62
243.558	9.9
243.775	54.95
243.992	-8.53
244.209	104.11
244.426	97.96
244.643	46.76
244.86	-8.53
245.078	40.62
245.295	7.85
245.512	26.28
245.729	9.9
245.946	34.47
246.163	30.38
246.38	-14.68
246.597	-45.4
246.814	32.43
247.031	65.19
247.248	81.58
247.464	57
247.681	104.11
247.898	97.96
248.115	38.57
248.332	32.43
248.549	112.3
248.766	38.57
248.983	87.72
249.2	-10.58
249.417	54.95
249.633	-117.08
249.85	61.1
250.067	-49.49
250.284	38.57
250.501	63.15
250.717	97.96
250.934	-0.34
251.151	-26.96
251.368	13.99
251.585	63.15
251.801	71.34
252.018	5.8
252.235	52.91
252.451	28.33
252.668	16.04
252.885	30.38
253.102	46.76
253.318	38.57
253.535	-8.53
253.752	-8.53
253.968	122.54
254.185	-12.63
254.401	16.04
254.618	73.39
254.835	-43.35
255.051	112.3
255.268	75.43
255.484	7.85
255.701	13.99
255.917	149.16
256.134	42.67
256.351	-26.96
256.567	-2.39
256.784	-57.68
257	-51.54
257.217	11.95
257.433	-2.39
257.65	22.19
257.866	54.95
258.082	32.43
258.299	1.71
258.515	11.95
258.732	16.04
258.948	34.47
259.165	65.19
259.381	9.9
259.597	30.38
259.814	16.04
260.03	-43.35
260.246	40.62
260.463	-31.06
260.679	46.76
260.895	-35.16
261.112	79.53
261.328	-59.73
261.544	34.47
261.761	63.15
261.977	32.43
262.193	9.9
262.409	54.95
262.626	79.53
262.842	40.62
263.058	-53.59
263.274	71.34
263.49	65.19
263.707	50.86
263.923	52.91
264.139	-59.73
264.355	44.71
264.571	13.99
264.787	-18.77
265.004	83.63
265.22	5.8
265.436	5.8
265.652	24.23
265.868	-18.77
266.084	54.95
266.3	38.57
266.516	5.8
266.732	9.9
266.948	20.14
267.164	22.19
267.38	24.23
267.596	-4.44
267.812	42.67
268.028	57
268.244	-33.11
268.46	-33.11
268.676	-10.58
268.892	34.47
269.108	-26.96
269.324	32.43
269.54	65.19
269.756	7.85
269.972	5.8
270.188	-33.11
270.403	-43.35
270.619	-16.73
270.835	24.23
271.051	54.95
271.267	-24.92
271.483	40.62
271.698	-80.21
271.914	67.24
272.13	-26.96
272.346	50.86
272.562	-20.82
272.777	34.47
272.993	18.09
273.209	-39.25
273.425	63.15
273.64	16.04
273.856	28.33
274.072	50.86
274.287	-41.3
274.503	61.1
274.719	28.33
274.934	9.9
275.15	40.62
275.366	75.43
275.581	-43.35
275.797	38.57
276.012	73.39
276.228	-18.77
276.444	20.14
276.659	42.67
276.875	24.23
277.09	5.8
277.306	77.48
277.521	16.04
277.737	-4.44
277.952	52.91
278.168	-14.68
278.383	79.53
278.599	28.33
278.814	-16.73
279.03	5.8
279.245	30.38
279.461	26.28
279.676	89.77
279.892	20.14
280.107	-26.96
280.322	-35.16
280.538	22.19
280.753	34.47
280.969	87.72
281.184	13.99
281.399	65.19
281.615	40.62
281.83	9.9
282.045	-22.87
282.26	-76.12
282.476	9.9
282.691	5.8
282.906	-37.2
283.122	-6.49
283.337	20.14
283.552	32.43
283.767	42.67
283.983	13.99
284.198	63.15
284.413	-2.39
284.628	-6.49
284.843	-10.58
285.058	79.53
285.274	-65.88
285.489	7.85
285.704	-8.53
285.919	-0.34
286.134	1.71
286.349	-26.96
286.564	65.19
286.779	65.19
286.995	63.15
287.21	65.19
287.425	79.53
287.64	48.81
287.855	24.23
288.07	-80.21
288.285	38.57
288.5	116.39
288.715	54.95
288.93	-26.96
289.145	48.81
289.36	34.47
289.575	-22.87
289.79	3.75
290.004	-16.73
290.219	112.3
290.434	54.95
290.649	-47.44
290.864	-51.54
291.079	13.99
291.294	54.95
291.509	42.67
291.724	30.38
291.938	30.38
292.153	57
292.368	3.75
292.583	54.95
292.798	16.04
293.012	38.57
293.227	-33.11
293.442	3.75
293.657	65.19
293.871	104.11
294.086	11.95
294.301	67.24
294.516	81.58
294.73	-14.68
294.945	7.85
295.16	-84.31
295.374	7.85
295.589	46.76
295.804	75.43
296.018	44.71
296.233	54.95
296.447	-57.68
296.662	20.14
296.877	7.85
297.091	34.47
297.306	71.34
297.52	16.04
297.735	22.19
297.949	75.43
298.164	9.9
298.378	-29.01
298.593	-74.07
298.807	-8.53
299.022	95.91
299.236	54.95
299.451	-14.68
299.665	46.76
299.88	71.34
300.094	61.1
300.309	50.86
300.523	-72.02
300.737	30.38
300.952	71.34
301.166	5.8
301.381	-84.31
301.595	22.19
301.809	5.8
302.024	32.43
302.238	16.04
302.452	22.19
302.667	24.23
302.881	116.39
303.095	30.38
303.309	-26.96
303.524	48.81
303.738	13.99
303.952	-20.82
304.166	20.14
304.381	1.71
304.595	36.52
304.809	-4.44
305.023	-41.3
305.237	-0.34
305.452	7.85
305.666	63.15
305.88	87.72
306.094	59.05
306.308	16.04
306.522	1.71
306.736	22.19
306.95	-2.39
307.164	-35.16
307.379	32.43
307.593	28.33
307.807	102.06
308.021	46.76
308.235	77.48
308.449	-14.68
308.663	-31.06
308.877	5.8
309.091	9.9
309.305	89.77
309.519	-98.64
309.733	71.34
309.947	-6.49
310.161	34.47
310.374	32.43
310.588	132.78
310.802	-2.39
311.016	32.43
311.23	91.82
311.444	24.23
311.658	32.43
311.872	48.81
312.085	26.28
312.299	26.28
312.513	18.09
312.727	-35.16
312.941	-63.83
313.154	69.29
313.368	16.04
313.582	13.99
313.796	26.28
314.009	46.76
314.223	61.1
314.437	28.33
314.651	7.85
314.864	13.99
315.078	13.99
315.292	26.28
315.505	32.43
315.719	34.47
315.933	36.52
316.146	-18.77
316.36	5.8
316.573	54.95
316.787	32.43
317.001	34.47
317.214	65.19
317.428	52.91
317.641	-43.35
317.855	7.85
318.068	-10.58
318.282	50.86
318.495	63.15
318.709	-35.16
318.922	57
319.136	46.76
319.349	71.34
319.563	30.38
319.776	93.87
319.99	-55.64
320.203	79.53
320.417	-16.73
320.63	-2.39
320.843	-2.39
321.057	5.8
321.27	13.99
321.483	95.91
321.697	95.91
321.91	30.38
322.124	-6.49
322.337	-12.63
322.55	89.77
322.763	-43.35
322.977	3.75
323.19	38.57
323.403	-76.12
323.617	63.15
323.83	24.23
324.043	104.11
324.256	40.62
324.469	36.52
324.683	20.14
324.896	-57.68
325.109	57
325.322	-14.68
325.535	59.05
325.748	100.01
325.962	1.71
326.175	-18.77
326.388	106.15
326.601	73.39
326.814	24.23
327.027	-63.83
327.24	112.3
327.453	-2.39
327.666	38.57
327.879	73.39
328.092	36.52
328.305	-65.88
328.518	52.91
328.731	13.99
328.944	118.44
329.157	63.15
329.37	7.85
329.583	120.49
329.796	32.43
330.009	5.8
330.222	63.15
330.435	104.11
330.648	-26.96
330.861	16.04
331.073	42.67
331.286	171.69
331.499	28.33
331.712	38.57
331.925	-2.39
332.138	40.62
332.35	34.47
332.563	44.71
332.776	79.53
332.989	-12.63
333.202	5.8
333.414	52.91
333.627	18.09
333.84	5.8
334.053	95.91
334.265	34.47
334.478	9.9
334.691	-92.5
334.903	30.38
335.116	1.71
335.329	9.9
335.541	46.76
335.754	73.39
335.966	-24.92
336.179	79.53
336.392	32.43
336.604	9.9
336.817	-0.34
337.029	104.11
337.242	38.57
337.454	110.25
337.667	83.63
337.88	30.38
338.092	46.76
338.305	1.71
338.517	13.99
338.729	89.77
338.942	108.2
339.154	24.23
339.367	-18.77
339.579	32.43
339.792	13.99
340.004	-2.39
340.217	106.15
340.429	32.43
340.641	-57.68
340.854	11.95
341.066	30.38
341.278	24.23
341.491	65.19
341.703	65.19
341.915	9.9
342.128	63.15
342.34	34.47
342.552	-18.77
342.764	11.95
342.977	32.43
343.189	-26.96
343.401	79.53
343.613	32.43
343.826	65.19
344.038	-51.54
344.25	24.23
344.462	34.47
344.674	22.19
344.886	38.57
345.099	16.04
345.311	46.76
345.523	-0.34
345.735	-31.06
345.947	48.81
346.159	7.85
346.371	30.38
346.583	30.38
346.795	57
347.007	22.19
347.219	24.23
347.431	63.15
347.643	52.91
347.855	1.71
348.067	13.99
348.279	-51.54
348.491	112.3
348.703	28.33
348.915	30.38
349.127	-24.92
349.339	46.76
349.551	26.28
349.763	79.53
349.975	69.29
350.187	42.67
350.399	73.39
350.61	7.85
350.822	40.62
351.034	71.34
351.246	-10.58
351.458	54.95
351.669	40.62
351.881	30.38
352.093	65.19
352.305	5.8
352.517	75.43
352.728	38.57
352.94	-8.53
353.152	59.05
353.363	-35.16
353.575	38.57
353.787	34.47
353.999	40.62
354.21	38.57
354.422	30.38
354.633	-0.34
354.845	-2.39
355.057	36.52
355.268	54.95
355.48	59.05
355.692	-26.96
355.903	7.85
356.115	22.19
356.326	13.99
356.538	91.82
356.749	-2.39
356.961	26.28
357.172	46.76
357.384	-2.39
357.595	52.91
357.807	-26.96
358.018	57
358.23	1.71
358.441	54.95
358.653	18.09
358.864	38.57
359.075	34.47
359.287	52.91
359.498	89.77
359.709	13.99
359.921	50.86
360.132	-6.49
360.344	63.15
360.555	1.71
360.766	102.06
360.977	57
361.189	57
361.4	30.38
361.611	75.43
361.823	91.82
362.034	42.67
362.245	-12.63
362.456	11.95
362.667	42.67
362.879	22.19
363.09	50.86
363.301	71.34
363.512	54.95
363.723	-49.49
363.935	30.38
364.146	40.62
364.357	67.24
364.568	83.63
364.779	44.71
364.99	71.34
365.201	22.19
365.412	71.34
365.623	16.04
365.834	5.8
366.045	-18.77
366.256	42.67
366.467	34.47
366.678	-26.96
366.889	38.57
367.1	24.23
367.311	46.76
367.522	22.19
367.733	-20.82
367.944	65.19
368.155	38.57
368.366	67.24
368.577	46.76
368.788	57
368.999	67.24
369.209	63.15
369.42	93.87
369.631	122.54
369.842	67.24
370.053	75.43
370.264	63.15
370.474	40.62
370.685	36.52
370.896	54.95
371.107	63.15
371.317	-26.96
371.528	20.14
371.739	89.77
371.95	85.67
372.16	71.34
372.371	-84.31
372.582	54.95
372.792	38.57
373.003	-35.16
373.214	-10.58
373.424	46.76
373.635	40.62
373.846	30.38
374.056	46.76
374.267	5.8
374.477	61.1
374.688	13.99
374.898	100.01
375.109	-16.73
375.319	24.23
375.53	46.76
375.74	100.01
375.951	26.28
376.161	-2.39
376.372	59.05
376.582	52.91
376.793	140.97
377.003	-10.58
377.214	26.28
377.424	54.95
377.635	48.81
377.845	-57.68
378.055	153.26
378.266	16.04
378.476	18.09
378.686	79.53
378.897	46.76
379.107	59.05
379.317	50.86
379.528	63.15
379.738	63.15
379.948	20.14
380.158	67.24
380.369	-22.87
380.579	-10.58
380.789	85.67
380.999	48.81
381.21	79.53
381.42	7.85
381.63	26.28
381.84	38.57
382.05	69.29
382.261	91.82
382.471	63.15
382.681	63.15
382.891	122.54
383.101	132.78
383.311	-2.39
383.521	-39.25
383.731	63.15
383.941	16.04
384.151	-0.34
384.361	102.06
384.571	46.76
384.781	46.76
384.991	13.99
385.201	57
385.411	50.86
385.621	18.09
385.831	36.52
386.041	38.57
386.251	61.1
386.461	104.11
386.671	42.67
386.881	40.62
387.091	-35.16
387.301	-0.34
387.511	102.06
387.72	71.34
387.93	100.01
388.14	-2.39
388.35	106.15
388.56	13.99
388.769	46.76
388.979	114.34
389.189	30.38
389.399	104.11
389.609	13.99
389.818	122.54
390.028	54.95
390.238	81.58
390.447	20.14
390.657	-53.59
390.867	63.15
391.076	46.76
391.286	48.81
391.496	87.72
391.705	52.91
391.915	77.48
392.125	161.45
392.334	81.58
392.544	73.39
392.753	40.62
392.963	50.86
393.172	40.62
393.382	42.67
393.591	95.91
393.801	46.76
394.01	110.25
394.22	79.53
394.429	42.67
394.639	71.34
394.848	114.34
395.058	69.29
395.267	120.49
395.477	128.68
395.686	136.87
395.895	81.58
396.105	108.2
396.314	81.58
396.524	52.91
396.733	81.58
396.942	46.76
397.152	30.38
397.361	130.73
397.57	-8.53
397.78	57
397.989	108.2
398.198	114.34
398.407	81.58
398.617	100.01
398.826	97.96
399.035	104.11
399.244	83.63
399.453	42.67
399.663	87.72
399.872	63.15
400.081	81.58
400.29	22.19
400.499	161.45
400.708	85.67
400.917	85.67
401.127	71.34
401.336	136.87
401.545	202.41
401.754	126.63
401.963	128.68
402.172	136.87
402.381	136.87
402.59	128.68
402.799	196.26
403.008	124.58
403.217	161.45
403.426	108.2
403.635	120.49
403.844	136.87
404.053	106.15
404.262	179.88
404.471	161.45
404.68	149.16
404.888	153.26
405.097	140.97
405.306	188.07
405.515	120.49
405.724	145.06
405.933	216.74
406.142	153.26
406.35	198.31
406.559	136.87
406.768	200.36
406.977	188.07
407.185	186.02
407.394	267.94
407.603	159.4
407.812	259.75
408.02	206.5
408.229	245.41
408.438	251.56
408.646	194.22
408.855	214.7
409.064	237.22
409.272	319.14
409.481	390.82
409.69	276.13
409.898	229.03
410.107	347.81
410.315	300.71
410.524	349.86
410.733	341.67
410.941	310.95
411.15	300.71
411.358	374.44
411.567	456.36
411.775	429.73
411.984	521.89
412.192	464.55
412.401	530.08
412.609	509.6
412.818	573.09
413.026	511.65
413.234	581.28
413.443	568.99
413.651	566.95
413.86	624.29
414.068	702.11
414.276	769.69
414.485	630.43
414.693	677.54
414.901	792.22
415.11	769.69
415.318	734.88
415.526	775.84
415.734	827.04
415.943	841.37
416.151	890.53
416.359	964.25
416.567	923.29
416.776	992.92
416.984	1056.41
417.192	1023.64
417.4	1007.26
417.608	1015.45
417.817	1169.05
418.025	1199.77
418.233	1189.53
418.441	1111.71
418.649	1345.17
418.857	1298.07
419.065	1484.44
419.273	1377.94
419.481	1500.82
419.689	1668.75
419.897	1584.79
420.105	1631.89
420.313	1777.3
420.521	1873.55
420.729	1744.53
420.937	1848.97
421.145	1783.44
421.353	2027.15
421.561	2043.53
421.769	2143.88
421.977	2258.57
422.185	2229.9
422.393	2274.95
422.601	2369.16
422.809	2487.94
423.017	2504.32
423.224	2680.45
423.432	2627.2
423.64	2690.69
423.848	2840.19
424.056	2856.58
424.263	3200.63
424.471	2932.35
424.679	3163.77
424.887	3315.32
425.094	3405.43
425.302	3407.48
425.51	3606.13
425.718	3724.91
425.925	3583.6
426.133	3925.61
426.341	4021.87
426.548	4138.6
426.756	4152.94
426.964	4202.09
427.171	4587.11
427.379	4697.7
427.586	4685.41
427.794	4857.44
428.001	5140.06
428.209	5328.47
428.417	5240.41
428.624	5717.59
428.832	5846.61
429.039	5604.95
429.247	5453.4
429.454	6049.36
429.662	6405.7
429.869	6172.24
430.076	6456.9
430.284	6397.51
430.491	6399.56
430.699	6803.01
430.906	6848.07
431.114	6860.35
431.321	7247.42
431.528	7652.92
431.736	7992.88
431.943	8293.93
432.15	7859.76
432.358	8273.45
432.565	8586.79
432.772	8461.87
432.979	9072.16
433.187	9205.28
433.394	9166.37
433.601	9637.4
433.808	9969.17
434.016	9938.45
434.223	10116.62
434.43	10851.85
434.637	10683.91
434.844	11179.52
435.052	11449.85
435.259	11417.08
435.466	11453.95
435.673	11542.01
435.88	12017.14
436.087	12533.23
436.294	12819.94
436.501	12381.68
436.708	12772.84
436.915	12965.35
437.122	13706.71
437.329	13706.71
437.537	13911.51
437.743	14345.68
437.95	14132.69
438.157	15082.95
438.364	15463.87
438.571	15252.93
438.778	15648.19
438.985	16962.98
439.192	16293.3
439.399	16876.97
439.606	16311.73
439.813	17468.83
440.02	18478.48
440.227	18208.15
440.433	18036.12
440.64	18343.31
440.847	18165.14
441.054	18726.28
441.261	20116.86
441.467	19869.05
441.674	20053.37
441.881	21265.77
442.088	20964.71
442.294	20671.86
442.501	21140.84
442.708	21679.46
442.914	22574.42
443.121	23401.8
443.328	22854.99
443.534	24417.59
443.741	23700.8
443.948	23305.54
444.154	25195.82
444.361	25281.83
444.568	25224.49
444.774	25038.12
444.981	25216.3
445.187	25959.71
445.394	27587.85
445.6	26762.51
445.807	29537.51
446.013	28013.82
446.22	28525.82
446.426	29875.43
446.633	29781.22
446.839	31016.15
447.046	29916.39
447.252	31554.76
447.459	31343.82
447.665	31165.65
447.871	32451.77
448.078	34030.76
448.284	32224.45
448.491	33197.23
448.697	34260.13
448.903	35191.95
449.11	35341.46
449.316	34665.63
449.522	35454.09
449.728	36224.13
449.935	36408.45
450.141	36379.78
450.347	37139.57
450.553	36103.3
450.76	36435.07
450.966	37864.55
451.172	37522.54
451.378	38093.93
451.584	37547.12
451.791	38556.77
451.997	38036.58
452.203	38524
452.409	39191.64
452.615	38577.25
452.821	37368.94
453.027	36887.67
453.233	39111.77
453.44	37276.79
453.646	37909.61
453.852	38259.81
454.058	38687.84
454.264	37033.08
454.47	38003.81
454.676	37172.34
454.882	38507.62
455.088	34950.29
455.294	36099.2
455.5	36269.19
455.705	36312.19
455.911	34997.4
456.117	34190.5
456.323	34120.87
456.529	32609.47
456.735	33600.68
456.941	32742.58
457.147	32210.11
457.352	31435.98
457.558	31089.87
457.764	31270.09
457.97	30543.06
458.176	29975.78
458.381	29572.33
458.587	28460.28
458.793	28433.66
458.999	26705.17
459.204	28728.56
459.41	27864.32
459.616	26189.08
459.821	26201.37
460.027	26043.68
460.233	25531.69
460.438	24339.77
460.644	24606
460.85	23381.32
461.055	23156.04
461.261	23035.21
461.466	21204.33
461.672	20669.81
461.878	21955.93
462.083	20927.85
462.289	20526.45
462.494	20231.54
462.7	19318.15
462.905	18797.96
463.111	19615.1
463.316	19238.28
463.522	19105.16
463.727	18916.75
463.932	18945.42
464.138	18697.61
464.343	18828.68
464.549	18271.64
464.754	19019.14
464.959	18855.31
465.165	18623.89
465.37	17812.89
465.575	17348
465.781	18271.64
465.986	18232.72
466.191	17604
466.397	17151.4
466.602	16301.49
466.807	16973.22
467.012	16932.26
467.218	17067.43
467.423	16582.06
467.628	16913.83
467.833	17403.3
468.038	16799.15
468.244	16377.26
468.449	17085.86
468.654	16580.01
468.859	16453.04
469.064	16262.58
469.269	15687.1
469.474	15553.98
469.679	16084.41
469.885	15730.11
470.09	15807.93
470.295	15545.79
470.5	15314.37
470.705	15476.16
470.91	15021.51
471.115	14974.41
471.32	15109.57
471.525	15183.3
471.73	14646.73
471.935	14448.08
472.139	14120.4
472.344	14626.25
472.549	14159.31
472.754	14140.88
472.959	13940.18
473.164	13569.5
473.369	13450.72
473.574	14063.06
473.778	13716.95
473.983	13424.09
474.188	13444.57
474.393	12613.1
474.598	12846.57
474.802	12656.11
475.007	12506.6
475.212	12699.11
475.417	12287.47
475.621	12293.62
475.826	12568.04
476.031	12170.74
476.235	11976.18
476.44	12117.49
476.645	11771.38
476.849	11830.77
477.054	11675.13
477.259	11392.51
477.463	11519.48
477.668	11116.03
477.872	11337.21
478.077	11292.16
478.282	10884.61
478.486	10847.75
478.691	10552.84
478.895	10878.47
479.1	10606.09
479.304	10604.04
479.509	10462.73
479.713	10462.73
479.918	10259.98
480.122	10253.84
480.326	10282.51
480.531	10294.8
480.735	10120.72
480.94	10075.66
481.144	10462.73
481.348	9950.74
481.553	10171.92
481.757	9942.55
481.961	10163.73
482.166	9981.46
482.37	10176.02
482.574	10036.75
482.778	9913.88
482.983	10139.15
483.187	9985.55
483.391	10010.13
483.595	9872.92
483.8	9797.14
484.004	9770.52
484.208	9969.17
484.412	9846.29
484.616	9971.22
484.821	9852.44
485.025	9707.03
485.229	9973.27
485.433	9885.2
485.637	9973.27
485.841	9674.26
486.045	9629.21
486.249	9780.76
486.453	9645.59
486.657	9831.96
486.861	9860.63
487.065	9535
487.269	10061.33
487.473	9647.64
487.677	9680.41
487.881	9870.87
488.085	9889.3
488.289	9911.83
488.493	9846.29
488.697	9877.01
488.901	9893.4
489.105	10098.19
489.309	10245.65
489.512	10018.32
489.716	10063.38
489.92	10024.47
490.124	9983.51
490.328	10081.81
490.531	10030.61
490.735	10116.62
490.939	10112.53
491.143	10280.46
491.346	9920.02
491.55	10417.68
491.754	10321.42
491.958	10374.67
492.161	10341.9
492.365	10425.87
492.569	10276.37
492.772	10464.78
492.976	10571.27
493.18	10782.21
493.383	10769.93
493.587	10573.32
493.79	10690.06
493.994	10698.25
494.197	10878.47
494.401	11159.04
494.605	10905.09
494.808	11296.25
495.012	11152.9
495.215	11283.97
495.419	11417.08
495.622	11240.96
495.825	11412.99
496.029	11365.89
496.232	11755
496.436	11582.97
496.639	12109.3
496.843	11902.45
497.046	12076.53
497.249	12414.45
497.453	12215.79
497.656	12647.91
497.859	12357.1
498.063	12568.04
498.266	13022.69
498.469	12600.81
498.673	13041.12
498.876	13133.28
499.079	13376.99
499.282	13166.05
499.485	13495.77
499.689	13784.54
499.892	13768.15
500.095	13993.43
500.298	14144.98
500.501	14108.12
500.705	14349.78
500.908	14585.29
501.111	14702.03
501.314	15033.8
501.517	14968.26
501.72	15209.92
501.923	15025.61
502.126	15492.54
502.329	15603.13
502.532	16000.44
502.735	16180.66
502.938	16147.89
503.141	16360.88
503.344	16866.73
503.547	16799.15
503.75	16725.42
503.953	17149.35
504.156	17122.73
504.359	17323.43
504.562	17350.05
504.765	17866.14
504.968	18130.33
505.17	18052.5
505.373	18302.36
505.576	18668.94
505.779	18779.53
505.982	18781.58
506.185	19209.61
506.387	19309.96
506.59	19412.35
506.793	19867
506.996	19549.57
507.198	20278.65
507.401	20098.42
507.604	20669.81
507.807	20903.28
508.009	20993.39
508.212	21089.64
508.415	21173.61
508.617	21556.58
508.82	21691.74
509.022	21615.97
509.225	21906.78
509.428	22555.99
509.63	22476.12
509.833	22547.79
510.035	23031.12
510.238	23049.55
510.44	23479.62
510.643	23573.83
510.845	23835.97
511.048	23795.01
511.25	24241.46
511.453	24184.12
511.655	25025.84
511.858	24829.23
512.06	25077.04
512.262	25369.9
512.465	25607.46
512.667	25943.33
512.87	26019.1
513.072	26076.44
513.274	26490.13
513.477	26981.65
513.679	27108.62
513.881	27190.54
514.084	27587.85
514.286	28026.11
514.488	27825.41
514.69	28529.91
514.893	28497.14
515.095	28669.17
515.297	29295.85
515.499	29228.27
515.701	29424.87
515.904	30086.37
516.106	29955.3
516.308	30156
516.51	30551.26
516.712	30657.75
516.914	30936.27
517.116	31249.61
517.318	32001.22
517.52	31653.06
517.722	32126.14
517.925	32273.6
518.127	32816.31
518.329	32701.62
518.531	32824.5
518.733	33526.96
518.935	33936.55
519.136	33643.69
519.338	34370.72
519.54	34399.39
519.742	34540.7
519.944	34616.47
520.146	35509.39
520.348	35554.44
520.55	35751.05
520.752	36086.92
520.954	36209.79
521.155	36127.88
521.357	37065.85
521.559	36908.15
521.761	37586.03
521.963	37340.27
522.164	37493.87
522.366	37817.45
522.568	38057.06
522.77	38259.81
522.971	39238.74
523.173	38659.16
523.375	38900.83
523.576	39310.42
523.778	38759.52
523.98	39777.36
524.181	39691.34
524.383	39933
524.584	40455.23
524.786	40260.68
524.988	40203.33
525.189	40643.65
525.391	41061.43
525.592	41073.72
525.794	41114.68
525.995	41053.24
526.197	41757.74
526.398	41552.94
526.6	41477.17
526.801	42239.01
527.003	42298.41
527.204	42003.5
527.406	42607.65
527.607	42701.86
527.808	42476.58
528.01	42286.12
528.211	42347.56
528.412	43256.85
528.614	43179.03
528.815	43086.87
529.016	43645.97
529.218	43353.11
529.419	43367.44
529.62	43697.17
529.822	43252.76
530.023	43566.1
530.224	43856.91
530.425	44076.04
530.626	44076.04
530.828	43840.53
531.029	44416
531.23	43967.5
531.431	44313.61
531.632	44121.1
531.833	44540.93
532.035	44157.96
532.236	44303.37
532.437	44782.59
532.638	44129.29
532.839	44731.39
533.04	44948.48
533.241	44270.6
533.442	45042.68
533.643	44393.48
533.844	44272.65
534.045	44620.8
534.246	44207.11
534.447	44928
534.648	44751.87
534.849	44643.33
535.05	44469.25
535.251	44880.89
535.451	44606.47
535.652	44753.92
535.853	44753.92
536.054	44899.33
536.255	44930.05
536.456	44434.44
536.657	45175.8
536.857	44635.14
537.058	44942.33
537.259	45173.75
537.46	44692.48
537.66	44598.27
537.861	44690.43
538.062	44477.44
538.263	45259.77
538.463	44205.06
538.664	44821.5
538.865	44432.39
539.065	45394.93
539.266	44393.48
539.466	44727.3
539.667	44321.8
539.868	44934.14
540.068	44774.4
540.269	44575.75
540.469	44915.71
540.67	44565.51
540.87	44491.78
541.071	44250.12
541.271	44651.52
541.472	44815.36
541.672	43856.91
541.873	44397.57
542.073	44391.43
542.274	44735.49
542.474	44239.88
542.675	44207.11
542.875	44766.21
543.075	44653.57
543.276	44444.68
543.476	44907.52
543.676	44155.91
543.877	44485.64
544.077	44655.62
544.277	44612.61
544.478	44622.85
544.678	44346.37
544.878	44411.91
545.078	44303.37
545.279	44426.24
545.479	44106.76
545.679	44792.83
545.879	44229.64
546.079	44413.96
546.28	44592.13
546.48	44043.27
546.68	44569.6
546.88	44362.76
547.08	44635.14
547.28	44196.87
547.48	44076.04
547.68	44454.92
547.88	44223.5
548.081	44215.3
548.281	44272.65
548.481	44149.77
548.681	44538.88
548.881	44162.06
549.081	44223.5
549.28	43756.56
549.48	44317.7
549.68	44143.63
549.88	44307.46
550.08	44030.99
550.28	43924.49
550.48	44000.27
550.68	44084.23
550.88	43783.18
551.08	43959.31
551.279	43920.4
551.479	43867.15
551.679	44272.65
551.879	43484.18
552.079	43908.11
552.278	43861.01
552.478	43996.17
552.678	44008.46
552.878	43998.22
553.077	44039.18
553.277	43656.21
553.477	44133.39
553.676	43627.54
553.876	43777.04
554.076	43605.01
554.275	43478.04
554.475	43344.92
554.674	43762.7
554.874	43729.94
555.074	43338.77
555.273	43777.04
555.473	43951.12
555.672	43279.38
555.872	43506.71
556.071	43330.58
556.271	43664.4
556.47	43150.36
556.67	43330.58
556.869	43320.34
557.068	43240.47
557.268	43119.64
557.467	43146.26
557.667	42882.08
557.866	43375.64
558.065	43039.77
558.265	42662.94
558.464	42701.86
558.663	43193.37
558.863	42615.84
559.062	43002.91
559.261	42130.47
559.461	43291.67
559.66	42349.6
559.859	42794.01
560.058	42218.53
560.258	42585.12
560.457	42484.77
560.656	42390.56
560.855	42462.24
561.054	42824.73
561.253	42224.68
561.453	42130.47
561.652	42542.11
561.851	42191.91
562.05	41933.87
562.249	41708.59
562.448	42140.71
562.647	42263.59
562.846	41851.95
563.045	42327.08
563.244	41731.12
563.443	42017.83
563.642	41280.56
563.841	41702.45
564.04	41129.02
564.239	42079.27
564.438	41346.1
564.637	41714.73
564.836	41278.52
565.035	40715.33
565.234	41354.29
565.432	41112.63
565.631	41079.86
565.83	40956.99
566.029	40657.98
566.228	40756.28
566.427	40807.48
566.625	40569.92
566.824	40117.32
567.023	40948.79
567.222	40043.59
567.42	40598.59
567.619	40254.53
567.818	40322.12
568.016	40178.76
568.215	40461.38
568.414	39910.47
568.612	40391.75
568.811	39949.39
569.01	39994.44
569.208	39533.65
569.407	40051.78
569.605	39642.19
569.804	39576.65
570.002	39425.11
570.201	39451.73
570.4	39007.32
570.598	38753.37
570.797	38675.55
570.995	39140.44
571.193	38278.24
571.392	39220.31
571.59	38816.86
571.789	38653.02
571.987	38669.4
572.186	38392.93
572.384	38575.2
572.582	38437.98
572.781	38427.74
572.979	37803.11
573.177	38392.93
573.376	38253.67
573.574	37936.23
573.772	38356.07
573.971	37973.1
574.169	37799.02
574.367	37229.68
574.565	38118.5
574.763	37485.68
574.962	37225.59
575.16	37110.9
575.358	37055.61
575.556	36643.96
575.754	37323.89
575.952	36983.93
576.151	37035.13
576.349	36684.92
576.547	36830.33
576.745	36480.13
576.943	36664.44
577.141	36580.48
577.339	36248.71
577.537	36447.36
577.735	36390.02
577.933	35898.5
578.131	36265.09
578.329	36207.75
578.527	35964.04
578.725	35898.5
578.923	35988.61
579.121	35570.83
579.319	35464.33
579.516	35835.02
579.714	35376.27
579.912	35374.22
580.11	35341.46
580.308	35499.15
580.506	35513.48
580.704	34661.53
580.901	35015.83
581.099	35107.99
581.297	34278.56
581.495	34806.94
581.692	34522.27
581.89	34503.84
582.088	34796.7
582.285	34401.44
582.483	34434.21
582.681	34071.71
582.878	34124.96
583.076	33840.29
583.274	34428.06
583.471	33932.45
583.669	33922.21
583.866	33846.44
584.064	33721.51
584.262	33164.46
584.459	33801.38
584.657	33027.25
584.854	33543.34
585.052	32859.32
585.249	32980.15
585.447	32924.85
585.644	32652.47
585.841	32935.09
586.039	33240.24
586.236	32318.65
586.434	32562.36
586.631	32236.73
586.828	32466.11
587.026	32357.56
587.223	32298.17
587.42	32353.47
587.618	32140.48
587.815	31878.34
588.012	31796.42
588.21	31575.24
588.407	32095.42
588.604	31741.13
588.801	31780.04
588.999	31798.47
589.196	31382.73
589.393	31548.62
589.59	31462.6
589.787	31093.97
589.984	30942.42
590.182	30782.68
590.379	30682.33
590.576	30862.55
590.773	30584.02
590.97	30592.22
591.167	30508.25
591.364	30313.69
591.561	30160.09
591.758	29885.67
591.955	29951.2
592.152	30305.5
592.349	30268.64
592.546	30225.63
592.743	29893.86
592.94	29496.55
593.137	29848.8
593.334	30102.75
593.531	29500.65
593.727	29828.32
593.924	29302
594.121	29209.84
594.318	29635.81
594.515	29197.55
594.712	29146.35
594.908	28839.15
595.105	29228.27
595.302	28898.55
595.499	28980.46
595.696	28808.44
595.892	28454.14
596.089	28558.58
596.286	28398.84
596.482	28587.25
596.679	28407.03
596.876	28173.56
597.072	28077.31
597.269	28409.08
597.466	27874.56
597.662	28368.12
597.859	28011.78
598.055	27841.79
598.252	27571.46
598.448	27749.64
598.645	27657.48
598.841	27274.51
599.038	27532.55
599.234	27426.06
599.431	26901.78
599.627	26987.79
599.824	27178.25
600.02	27200.78
600.217	27202.83
600.413	26881.3
600.609	26682.64
600.806	26574.1
601.002	26850.58
601.198	26328.34
601.395	26578.2
601.591	26256.67
601.787	26219.8
601.984	26021.15
602.18	26260.76
602.376	25992.48
602.572	25910.56
602.769	26019.1
602.965	25892.13
603.161	26000.67
603.357	25548.07
603.553	25638.18
603.75	25390.38
603.946	25365.8
604.142	25490.73
604.338	25058.6
604.534	25222.44
604.73	25001.26
604.926	25107.76
605.122	25320.74
605.318	24972.59
605.514	24784.18
605.71	24540.47
605.906	24704.31
606.102	24882.48
606.298	24810.8
606.494	24773.94
606.69	24782.13
606.886	24575.28
607.082	24214.84
607.278	24771.89
607.474	23887.17
607.67	24210.75
607.866	23905.6
608.062	24393.01
608.257	23958.85
608.453	23995.71
608.649	23958.85
608.845	23752
609.041	23805.25
609.236	23946.56
609.432	23993.66
609.628	23622.98
609.824	23795.01
610.019	23596.35
610.215	23651.65
610.411	23864.64
610.606	23299.4
610.802	23424.33
610.998	23553.35
611.193	23512.39
611.389	23164.23
611.584	23350.6
611.78	23067.98
611.976	23104.84
612.171	23063.88
612.367	23223.62
612.562	22736.21
612.758	22500.69
612.953	22842.7
613.149	23199.05
613.344	22558.03
613.539	23256.39
613.735	22527.31
613.93	22951.24
614.126	22672.72
614.321	22666.58
614.517	22650.19
614.712	22623.57
614.907	22363.48
615.103	22680.91
615.298	22314.33
615.493	22820.17
615.688	22211.93
615.884	22738.26
616.079	22064.47
616.274	22289.75
616.47	21822.81
616.665	22175.06
616.86	22033.75
617.055	22058.33
617.25	22060.38
617.445	22314.33
617.641	21611.87
617.836	21857.63
618.031	21751.13
618.226	21882.2
618.421	21577.06
618.616	21953.88
618.811	21257.57
619.006	21656.93
619.201	21028.2
619.396	21034.35
619.591	21095.78
619.786	21046.63
619.981	20893.04
620.176	20790.64
620.371	20606.32
620.566	20825.45
620.761	20462.96
620.956	20620.66
621.151	20397.43
621.346	20475.25
621.541	20340.08
621.735	20340.08
621.93	19981.69
622.125	20032.89
622.32	19813.76
622.515	19944.83
622.709	19506.56
622.904	19662.21
623.099	19441.03
623.294	19457.41
623.488	19217.8
623.683	19142.02
623.878	18947.47
624.072	19094.92
624.267	19092.87
624.462	18986.38
624.656	18789.77
624.851	18980.23
625.046	18447.76
625.24	18523.54
625.435	18230.68
625.629	18302.36
625.824	18027.93
626.018	17847.71
626.213	17788.32
626.407	17925.53
626.602	17683.87
626.796	17673.63
626.991	17651.1
627.185	17585.57
627.38	17556.89
627.574	17311.14
627.768	16975.27
627.963	17085.86
628.157	17102.25
628.352	16971.18
628.546	16713.13
628.74	16897.45
628.935	16534.96
629.129	16709.04
629.323	16295.35
629.517	16633.26
629.712	16287.15
629.906	16205.24
630.1	16195
630.294	16020.92
630.489	16027.06
630.683	16217.52
630.877	15744.44
631.071	15728.06
631.265	15791.55
631.459	15470.01
631.653	15697.34
631.848	15592.89
632.042	15361.47
632.236	15435.2
632.43	15048.13
632.624	15134.15
632.818	15103.43
633.012	14992.84
633.206	14779.85
633.4	14966.21
633.594	14595.53
633.788	14929.35
633.982	14697.93
634.176	14656.97
634.369	14450.13
634.563	14312.91
634.757	14284.24
634.951	14208.47
635.145	14214.61
635.339	14284.24
635.533	13979.09
635.726	13864.41
635.92	13833.69
636.114	13878.74
636.308	13866.46
636.501	13598.17
636.695	13706.71
636.889	13413.85
637.083	13563.36
637.276	13354.46
637.47	13428.19
637.664	13309.41
637.857	13284.83
638.051	13186.53
638.244	13051.36
638.438	13063.65
638.632	12819.94
638.825	12887.53
639.019	12983.78
639.212	12918.25
639.406	12582.38
639.599	12813.8
639.793	12559.85
639.986	12375.53
640.18	12568.04
640.373	12381.68
640.567	12252.66
640.76	12209.65
640.954	11929.08
641.147	11863.54
641.34	11836.92
641.534	11818.49
641.727	12113.39
641.92	11802.1
642.114	11675.13
642.307	11589.11
642.5	11679.22
642.694	11408.89
642.887	11367.93
643.08	11556.35
643.273	11308.54
643.467	11175.42
643.66	11030.02
643.853	11359.74
644.046	11027.97
644.239	11140.61
644.432	11068.93
644.626	11001.35
644.819	11032.07
645.012	10946.05
645.205	10788.36
645.398	10923.52
645.591	10585.61
645.784	10585.61
645.977	10642.95
646.17	10642.95
646.363	10569.23
646.556	10640.9
646.749	10354.19
646.942	10294.8
647.135	10346
647.328	10186.26
647.521	10098.19
647.714	9899.54
647.907	10090
648.099	10057.23
648.292	10075.66
648.485	9954.83
648.678	9655.83
648.871	9700.89
649.064	9809.43
649.256	9709.08
649.449	9688.6
649.642	9479.71
649.835	9381.4
650.027	9643.54
650.22	9467.42
650.413	9381.4
650.605	9561.62
650.798	9426.46
650.991	9072.16
651.183	9231.9
651.376	9057.82
651.568	9143.84
651.761	9029.15
651.954	9061.92
652.146	8869.41
652.339	8971.81
652.531	9025.06
652.724	8678.95
652.916	8547.88
653.109	8724.01
653.301	8615.46
653.494	8631.85
653.686	8455.72
653.879	8654.37
654.071	8502.82
654.263	8439.34
654.456	8345.13
654.648	8312.36
654.84	8314.41
655.033	8289.84
655.225	8322.6
655.417	8212.01
655.61	8388.14
655.802	8269.36
655.994	8072.75
656.186	7908.91
656.379	7951.92
656.571	7966.26
656.763	7904.82
656.955	7837.24
657.148	7704.12
657.34	7870
657.532	7859.76
657.724	7687.73
657.916	7685.69
658.108	7800.37
658.3	7593.53
658.492	7536.18
658.684	7433.79
658.876	7650.87
659.068	7296.57
659.26	7312.96
659.452	7419.45
659.644	7378.49
659.836	7198.27
660.028	7153.21
660.22	7038.53
660.412	7198.27
660.604	6999.62
660.796	7099.97
660.988	7214.65
661.18	7056.96
661.372	6899.27
661.563	7059.01
661.755	6852.16
661.947	6960.7
662.139	7028.29
662.331	6932.03
662.522	6811.2
662.714	6762.05
662.906	6725.19
663.097	6514.25
663.289	6669.89
663.481	6450.76
663.673	6563.4
663.864	6407.75
664.056	6387.27
664.247	6395.47
664.439	6387.27
664.631	6532.68
664.822	6303.31
665.014	6340.17
665.205	6235.72
665.397	6182.48
665.588	6278.73
665.78	6358.6
665.971	6274.63
666.163	6100.56
666.354	6205
666.546	6075.98
666.737	5946.96
666.929	6178.38
667.12	6051.41
667.311	5951.06
667.503	6047.31
667.694	5963.34
667.885	5893.71
668.077	5785.17
668.268	5867.09
668.459	5879.38
668.651	5793.36
668.842	5758.55
669.033	5660.24
669.224	5740.12
669.416	5703.25
669.607	5658.2
669.798	5592.66
669.989	5551.7
670.18	5504.6
670.371	5535.32
670.563	5432.92
670.754	5506.65
670.945	5322.33
671.136	5650
671.327	5500.5
671.518	5279.32
671.709	5422.68
671.9	5336.67
672.091	5414.49
672.282	5221.98
672.473	5301.85
672.664	5293.66
672.855	5281.37
673.046	5154.4
673.237	5279.32
673.428	5246.55
673.619	5103.2
673.809	5109.34
674	5117.53
674.191	5109.34
674.382	5019.23
674.573	4988.51
674.764	5025.37
674.954	5092.96
675.145	5015.13
675.336	4920.93
675.527	5045.85
675.717	4845.15
675.908	4888.16
676.099	5039.71
676.289	4873.82
676.48	4916.83
676.671	4824.67
676.861	4861.54
677.052	4834.91
677.243	4939.36
677.433	4830.82
677.624	4832.86
677.814	4664.93
678.005	4601.44
678.195	4699.75
678.386	4779.62
678.576	4773.47
678.767	4656.74
678.957	4724.32
679.148	4779.62
679.338	4654.69
679.529	4712.03
679.719	4619.88
679.909	4720.23
680.1	4609.64
680.29	4576.87
680.481	4691.56
680.671	4857.44
680.861	4601.44
681.052	4572.77
681.242	4527.72
681.432	4626.02
681.622	4421.22
681.813	4540.01
682.003	4437.61
682.193	4406.89
682.383	4453.99
682.573	4331.11
682.764	4474.47
682.954	4486.76
683.144	4415.08
683.334	4427.37
683.524	4355.69
683.714	4345.45
683.904	4163.18
684.094	4447.85
684.284	4251.24
684.474	4257.39
684.664	4267.63
684.854	4312.68
685.044	4320.87
685.234	4181.61
685.424	4122.22
685.614	4212.33
685.804	4290.15
685.994	4204.14
686.184	4259.43
686.374	4183.66
686.564	4193.9
686.753	4071.02
686.943	4081.26
687.133	4154.99
687.323	4216.43
687.513	4159.08
687.702	4200.04
687.892	4046.44
688.082	3970.67
688.272	4052.59
688.461	4068.97
688.651	3896.94
688.841	3972.72
689.03	3847.79
689.22	4081.26
689.41	3909.23
689.599	4030.06
689.789	3827.31
689.979	3866.22
690.168	3901.04
690.358	3776.11
690.547	3729.01
690.737	3798.64
690.926	3874.42
691.116	3673.71
691.305	3661.43
691.495	3794.54
691.684	3636.85
691.874	3718.77
692.063	3616.37
692.252	3630.71
692.442	3655.28
692.631	3788.4
692.82	3632.76
693.01	3636.85
693.199	3651.19
693.388	3536.5
693.578	3421.81
693.767	3569.27
693.956	3536.5
694.146	3579.51
694.335	3391.09
694.524	3532.4
694.713	3503.73
694.902	3577.46
695.092	3430.01
695.281	3339.9
695.47	3470.97
695.659	3536.5
695.848	3503.73
696.037	3407.48
696.226	3348.09
696.415	3303.03
696.604	3425.91
696.793	3339.9
696.982	3374.71
697.171	3378.81
697.36	3339.9
697.549	3360.38
697.738	3221.11
697.927	3309.18
698.116	3341.94
698.305	3376.76
698.494	3370.62
698.683	3294.84
698.872	3348.09
699.061	3352.18
699.25	3184.25
699.438	3292.79
699.627	3276.41
699.816	3262.07
700.005	3161.72
700.193	3268.22
700.382	3143.29
700.571	3233.4
700.76	3276.41
700.948	3210.87
701.137	3217.02
701.326	3112.57
701.514	3290.74
701.703	3180.15
701.892	3124.86
702.08	3202.68
702.269	3219.07
702.457	3128.95
702.646	3163.77
702.834	3116.67
703.023	3118.72
703.212	3180.15
703.4	3149.43
703.589	2999.93
703.777	3204.73
703.965	3069.56
704.154	3163.77
704.342	2891.39
704.531	3067.52
704.719	2985.6
704.907	3208.83
705.096	3071.61
705.284	2956.93
705.472	3049.08
705.661	2963.07
705.849	3049.08
706.037	3047.04
706.226	2905.73
706.414	3028.6
706.602	2895.49
706.79	3092.09
706.979	2897.53
707.167	2827.9
707.355	2856.58
707.543	3012.22
707.731	2985.6
707.919	2954.88
708.107	2905.73
708.296	2715.27
708.484	2973.31
708.672	2881.15
708.86	2872.96
709.048	2864.77
709.236	2846.34
709.424	2778.75
709.612	2961.02
709.8	2875.01
709.988	2928.25
710.176	2985.6
710.364	2825.86
710.551	2868.86
710.739	2862.72
710.927	2866.81
711.115	2709.12
711.303	2829.95
711.491	2864.77
711.679	2797.18
711.866	2768.51
712.054	2801.28
712.242	2643.59
712.43	2758.27
712.617	2780.8
712.805	2729.6
712.993	2702.98
713.181	2743.94
713.368	2766.46
713.556	2838.14
713.744	2653.83
713.931	2885.25
714.119	2750.08
714.306	2727.55
714.494	2860.67
714.682	2872.96
714.869	2705.03
715.057	2885.25
715.244	2672.26
715.432	2586.24
715.619	2604.67
715.807	2729.6
715.994	2576
716.182	2719.36
716.369	2580.1
716.556	2690.69
716.744	2629.25
716.931	2637.44
717.119	2651.78
717.306	2639.49
717.493	2715.27
717.681	2614.91
717.868	2608.77
718.055	2627.2
718.242	2578.05
718.43	2576
718.617	2627.2
718.804	2518.66
718.991	2614.91
719.179	2596.48
719.366	2664.07
719.553	2578.05
719.74	2520.71
719.927	2446.98
720.114	2623.11
720.301	2537.09
720.488	2518.66
720.676	2563.72
720.863	2549.38
721.05	2514.56
721.237	2494.08
721.424	2487.94
721.611	2463.37
721.798	2412.17
721.985	2455.17
722.172	2422.41
722.358	2422.41
722.545	2526.85
722.732	2469.51
722.919	2442.89
723.106	2365.06
723.293	2463.37
723.48	2365.06
723.667	2406.02
723.853	2426.5
724.04	2451.08
724.227	2508.42
724.414	2520.71
724.6	2518.66
724.787	2463.37
724.974	2358.92
725.161	2397.83
725.347	2406.02
725.534	2373.25
725.72	2377.35
725.907	2438.79
726.094	2313.86
726.28	2451.08
726.467	2328.2
726.653	2471.56
726.84	2332.3
727.027	2356.87
727.213	2397.83
727.4	2438.79
727.586	2377.35
727.773	2236.04
727.959	2301.58
728.145	2299.53
728.332	2295.43
728.518	2188.94
728.705	2340.49
728.891	2401.93
729.077	2293.38
729.264	2324.1
729.45	2209.42
729.636	2369.16
729.823	2317.96
730.009	2248.33
730.195	2358.92
730.382	2307.72
730.568	2309.77
730.754	2199.18
730.94	2219.66
731.126	2258.57
731.313	2299.53
731.499	2258.57
731.685	2301.58
731.871	2217.61
732.057	2277
732.243	2326.15
732.429	2225.8
732.615	2246.28
732.801	2217.61
732.987	2225.8
733.173	2258.57
733.359	2162.31
733.545	2193.03
733.731	2113.16
733.917	2135.69
734.103	2205.32
734.289	2111.11
734.475	2279.05
734.661	2248.33
734.847	2190.99
735.033	2195.08
735.219	2252.42
735.404	2111.11
735.59	2227.85
735.776	2164.36
735.962	2211.46
736.148	2285.19
736.333	2199.18
736.519	2176.65
736.705	2104.97
736.89	2160.27
737.076	2123.4
737.262	2145.93
737.447	2170.51
737.633	1939.09
737.819	2197.13
738.004	2096.78
738.19	2061.96
738.375	2033.29
738.561	2125.45
738.747	2061.96
738.932	2064.01
739.118	2023.05
739.303	1994.38
739.489	2231.94
739.674	2051.72
739.859	1916.56
740.045	2061.96
740.23	1939.09
740.416	1922.7
740.601	1930.89
740.786	1969.8
740.972	1945.23
741.157	1990.28
741.342	1900.17
741.528	1902.22
741.713	1967.76
741.898	1869.45
742.084	1848.97
742.269	1957.52
742.454	1982.09
742.639	1920.65
742.824	1922.7
743.01	1955.47
743.195	2000.52
743.38	1887.89
743.565	1851.02
743.75	1865.36
743.935	1910.41
744.12	1875.6
744.305	1816.21
744.49	1826.45
744.675	1834.64
744.86	1824.4
745.045	1873.55
745.23	1826.45
745.415	1891.98
745.6	1881.74
745.785	1736.34
745.97	1742.48
746.155	1722
746.34	1787.54
746.525	1705.62
746.71	1769.1
746.895	1767.06
747.079	1629.84
747.264	1652.37
747.449	1504.92
747.634	1623.7
747.819	1693.33
748.003	1549.97
748.188	1713.81
748.373	1693.33
748.557	1640.08
748.742	1552.02
748.927	1631.89
749.111	1627.79
749.296	1607.31
749.481	1500.82
749.665	1545.88
749.85	1500.82
750.034	1547.92
750.219	1504.92
750.404	1547.92
750.588	1476.24
750.773	1570.45
750.957	1537.68
751.141	1379.99
751.326	1474.2
751.51	1371.8
751.695	1441.43
751.879	1339.03
752.064	1457.81
752.248	1494.68
752.432	1554.07
752.617	1466
752.801	1318.55
752.985	1431.19
753.17	1402.52
753.354	1341.08
753.538	1406.61
753.722	1242.78
753.907	1302.17
754.091	1273.5
754.275	1291.93
754.459	1365.65
754.643	1193.62
754.828	1203.86
755.012	1242.78
755.196	1246.87
755.38	1169.05
755.564	1259.16
755.748	1261.21
755.932	1210.01
756.116	1210.01
756.3	1250.97
756.484	1113.75
756.668	1183.38
756.852	1087.13
757.036	1154.71
757.22	1154.71
757.404	1203.86
757.588	1148.57
757.772	1042.07
757.956	1132.19
758.14	1121.95
758.323	1048.22
758.507	1234.58
758.691	1142.43
758.875	1062.55
759.059	1031.83
759.242	1083.03
759.426	1064.6
759.61	1001.12
759.794	1029.79
759.977	1119.9
760.161	1087.13
760.345	1042.07
760.528	990.88
760.712	949.92
760.895	956.06
761.079	1064.6
761.263	1058.46
761.446	992.92
761.63	913.05
761.813	1017.5
761.997	1013.4
762.18	1111.71
762.364	1033.88
762.547	917.15
762.731	884.38
762.914	970.4
763.098	964.25
763.281	966.3
763.464	1029.79
763.648	843.42
763.831	915.1
764.015	908.96
764.198	884.38
764.381	906.91
764.564	841.37
764.748	900.76
764.931	890.53
765.114	892.57
765.297	833.18
765.481	911
765.664	784.03
765.847	882.33
766.03	878.24
766.213	824.99
766.397	876.19
766.58	868
766.763	849.57
766.946	835.23
767.129	849.57
767.312	843.42
767.495	833.18
767.678	841.37
767.861	878.24
768.044	868
768.227	831.13
768.41	771.74
768.593	794.27
768.776	958.11
768.959	784.03
769.142	804.51
769.324	878.24
769.507	775.84
769.69	749.22
769.873	792.22
770.056	824.99
770.239	902.81
770.421	790.17
770.604	763.55
770.787	718.5
770.97	853.66
771.152	728.74
771.335	775.84
771.518	714.4
771.7	765.6
771.883	784.03
772.066	714.4
772.248	747.17
772.431	827.04
772.613	769.69
772.796	720.54
772.978	683.68
773.161	743.07
773.343	714.4
773.526	691.87
773.708	681.63
773.891	661.15
774.073	644.77
774.256	650.91
774.438	704.16
774.621	689.82
774.803	677.54
774.985	698.02
775.168	673.44
775.35	562.85
775.532	624.29
775.715	669.34
775.897	595.62
776.079	614.05
776.261	628.39
776.444	677.54
776.626	616.1
776.808	628.39
776.99	642.72
777.173	679.58
777.355	493.22
777.537	652.96
777.719	673.44
777.901	593.57
778.083	612
778.265	564.9
778.447	530.08
778.629	534.18
778.811	587.43
778.993	581.28
779.175	558.75
779.357	554.66
779.539	564.9
779.721	571.04
779.903	591.52
780.085	540.32
780.267	515.75
780.449	521.89
780.631	532.13
780.812	530.08
780.994	517.79
781.176	552.61
781.358	503.46
781.54	448.16
781.721	472.74
781.903	530.08
782.085	505.51
782.267	532.13
782.448	411.3
782.63	505.51
782.812	456.36
782.993	482.98
783.175	439.97
783.357	456.36
783.538	431.78
783.72	431.78
783.901	415.4
784.083	482.98
784.264	444.07
784.446	462.5
784.627	407.2
784.809	388.77
784.99	388.77
785.172	386.72
785.353	444.07
785.535	374.44
785.716	358.05
785.897	368.29
786.079	480.93
786.26	433.83
786.441	394.92
786.623	366.25
786.804	409.25
786.985	278.18
787.167	335.53
787.348	333.48
787.529	325.29
787.71	366.25
787.891	325.29
788.073	386.72
788.254	308.9
788.435	356.01
788.616	290.47
788.797	300.71
788.978	390.82
789.159	310.95
789.34	366.25
789.522	323.24
789.703	349.86
789.884	284.33
790.065	313
790.246	364.2
790.427	343.72
790.607	349.86
790.788	388.77
790.969	335.53
791.15	353.96
791.331	349.86
791.512	317.09
791.693	226.98
791.874	257.7
792.054	315.05
792.235	302.76
792.416	333.48
792.597	358.05
792.778	323.24
792.958	298.66
793.139	325.29
793.32	304.81
793.5	186.02
793.681	341.67
793.862	274.09
794.042	302.76
794.223	259.75
794.404	280.23
794.584	212.65
794.765	284.33
794.945	284.33
795.126	263.85
795.306	257.7
795.487	226.98
795.667	224.94
795.848	317.09
796.028	212.65
796.209	202.41
796.389	253.61
796.57	226.98
796.75	173.74
796.93	284.33
797.111	218.79
797.291	177.83
797.471	251.56
797.652	263.85
797.832	161.45
798.012	222.89
798.192	226.98
798.373	249.51
798.553	210.6
798.733	239.27
798.913	173.74
799.093	210.6
799.274	243.37
799.454	179.88
799.634	231.08
799.814	220.84
799.994	177.83
800.174	229.03
800.354	224.94
800.534	97.96
800.714	231.08
800.894	239.27
801.074	138.92
801.254	210.6
801.434	100.01
801.614	218.79
801.794	181.93
801.974	738.98
802.154	177.83
802.334	210.6
802.514	186.02
802.693	243.37
802.873	143.02
803.053	235.18
803.233	222.89
803.413	202.41
803.592	165.54
803.772	128.68
803.952	153.26
804.131	192.17
804.311	151.21
804.491	229.03
804.67	122.54
804.85	163.5
805.03	181.93
805.209	235.18
805.389	235.18
805.568	192.17
805.748	128.68
805.928	175.78
806.107	171.69
806.287	218.79
806.466	212.65
806.646	136.87
806.825	100.01
807.004	218.79
807.184	159.4
807.363	239.27
807.543	155.3
807.722	136.87
807.901	194.22
808.081	194.22
808.26	89.77
808.439	171.69
808.619	241.32
808.798	194.22
808.977	116.39
809.156	183.98
809.336	188.07
809.515	128.68
809.694	145.06
809.873	175.78
810.052	145.06
810.231	198.31
810.411	89.77
810.59	179.88
810.769	124.58
810.948	214.7
811.127	169.64
811.306	153.26
811.485	136.87
811.664	181.93
811.843	116.39
812.022	118.44
812.201	138.92
812.38	110.25
812.559	130.73
812.737	114.34
812.916	106.15
813.095	136.87
813.274	71.34
813.453	157.35
813.632	136.87
813.811	226.98
813.989	104.11
814.168	147.11
814.347	95.91
814.526	128.68
814.704	169.64
814.883	136.87
815.062	54.95
815.24	171.69
815.419	112.3
815.598	171.69
815.776	136.87
815.955	126.63
816.133	93.87
816.312	114.34
816.49	171.69
816.669	159.4
816.847	145.06
817.026	108.2
817.204	169.64
817.383	177.83
817.561	91.82
817.74	104.11
817.918	13.99
818.097	116.39
818.275	77.48
818.453	177.83
818.632	114.34
818.81	97.96
818.988	104.11
819.167	71.34
819.345	87.72
819.523	128.68
819.701	63.15
819.879	46.76
820.058	57
820.236	194.22
820.414	91.82
820.592	57
820.77	57
820.948	67.24
821.127	97.96
821.305	100.01
821.483	140.97
821.661	97.96
821.839	147.11
822.017	48.81
822.195	106.15
822.373	104.11
822.551	73.39
822.729	128.68
822.907	48.81
823.085	63.15
823.262	124.58
823.44	89.77
823.618	104.11
823.796	89.77
823.974	81.58
824.152	138.92
824.329	69.29
824.507	95.91
824.685	38.57
824.863	87.72
825.04	73.39
825.218	102.06
825.396	38.57
825.574	81.58
825.751	153.26
825.929	93.87
826.107	-6.49
826.284	91.82
826.462	100.01
826.639	67.24
826.817	71.34
826.994	126.63
827.172	97.96
827.349	77.48
827.527	79.53
827.704	138.92
827.882	75.43
828.059	20.14
828.237	85.67
828.414	91.82
828.591	54.95
828.769	136.87
828.946	30.38
829.124	116.39
829.301	120.49
829.478	48.81
829.655	77.48
829.833	100.01
830.01	54.95
830.187	65.19
830.364	83.63
830.542	122.54
830.719	71.34
830.896	128.68
831.073	36.52
831.25	61.1
831.427	63.15
831.604	50.86
831.782	83.63
831.959	71.34
832.136	73.39
832.313	22.19
832.49	75.43
832.667	65.19
832.844	100.01
833.021	28.33
833.198	63.15
833.374	38.57
833.551	118.44
833.728	87.72
833.905	40.62
834.082	-18.77
834.259	83.63
834.436	18.09
834.612	32.43
834.789	97.96
834.966	-2.39
835.143	63.15
835.319	24.23
835.496	81.58
835.673	54.95
835.85	130.73
836.026	-14.68
836.203	87.72
836.38	71.34
836.556	22.19
836.733	71.34
836.909	48.81
837.086	22.19
837.262	46.76
837.439	3.75
837.616	79.53
837.792	50.86
837.968	46.76
838.145	-14.68
838.321	-8.53
838.498	38.57
838.674	54.95
838.851	71.34
839.027	18.09
839.203	22.19
839.38	24.23
839.556	13.99
839.732	-0.34
839.909	-14.68
840.085	42.67
840.261	30.38
840.437	13.99
840.614	-0.34
840.79	89.77
840.966	13.99
841.142	71.34
841.318	83.63
841.494	40.62
841.671	59.05
841.847	11.95
842.023	26.28
842.199	38.57
842.375	38.57
842.551	13.99
842.727	73.39
842.903	100.01
843.079	54.95
843.255	22.19
843.431	-8.53
843.607	7.85
843.783	-29.01
843.959	30.38
844.134	5.8
844.31	79.53
844.486	-18.77
844.662	54.95
844.838	44.71
845.013	-51.54
845.189	34.47
845.365	57
845.541	7.85
845.716	30.38
845.892	40.62
846.068	24.23
846.244	-18.77
846.419	13.99
846.595	30.38
846.77	59.05
846.946	95.91
847.122	5.8
847.297	-39.25
847.473	130.73
847.648	-41.3
847.824	46.76
847.999	-14.68
848.175	-26.96
848.35	34.47
848.526	67.24
848.701	5.8
848.876	-4.44
849.052	69.29
849.227	26.28
849.403	13.99
849.578	71.34
849.753	30.38
849.929	5.8
850.104	-39.25
850.279	-26.96
850.454	22.19
850.63	32.43
850.805	13.99
850.98	-29.01
851.155	110.25
851.33	71.34
851.505	-2.39
851.681	71.34
851.856	42.67
852.031	26.28
852.206	67.24
852.381	11.95
852.556	48.81
852.731	73.39
852.906	3.75
853.081	46.76
853.256	48.81
853.431	-76.12
853.606	13.99
853.781	36.52
853.956	-0.34
854.131	42.67
854.305	-51.54
854.48	38.57
854.655	48.81
854.83	44.71
855.005	16.04
855.18	34.47
855.354	18.09
855.529	63.15
855.704	-16.73
855.879	44.71
856.053	9.9
856.228	54.95
856.403	-16.73
856.577	48.81
856.752	30.38
856.926	22.19
857.101	-35.16
857.276	114.34
857.45	54.95
857.625	73.39
857.799	18.09
857.974	79.53
858.148	57
858.323	22.19
858.497	-12.63
858.672	30.38
858.846	-4.44
859.02	9.9
859.195	11.95
859.369	34.47
859.543	-6.49
859.718	48.81
859.892	24.23
860.066	46.76
860.241	59.05
860.415	-69.97
860.589	-96.6
860.763	-2.39
860.938	-18.77
861.112	20.14
861.286	-22.87
861.46	-43.35
861.634	-18.77
861.808	-0.34
861.982	-72.02
862.157	54.95
862.331	-22.87
862.505	38.57
862.679	22.19
862.853	-117.08
863.027	44.71
863.201	73.39
863.375	26.28
863.549	-18.77
863.722	34.47
863.896	32.43
864.07	-8.53
864.244	5.8
864.418	-2.39
864.592	30.38
864.766	13.99
864.939	-2.39
865.113	-43.35
865.287	63.15
865.461	1.71
865.634	-24.92
865.808	73.39
865.982	-31.06
866.156	-8.53
866.329	-35.16
866.503	-37.2
866.676	-6.49
866.85	13.99
867.024	79.53
867.197	-2.39
867.371	61.1
867.544	-59.73
867.718	11.95
867.891	13.99
868.065	18.09
868.238	-35.16
868.412	30.38
868.585	20.14
868.759	-59.73
868.932	-20.82
869.105	-18.77
869.279	54.95
869.452	-49.49
869.625	-16.73
869.799	-16.73
869.972	-12.63
870.145	-16.73
870.319	71.34
870.492	79.53
870.665	3.75
870.838	-59.73
871.011	-49.49
871.185	-59.73
871.358	-6.49
871.531	16.04
871.704	-8.53
871.877	75.43
872.05	16.04
872.223	-10.58
872.396	20.14
872.569	104.11
872.742	7.85
872.915	28.33
873.088	-18.77
873.261	-33.11
873.434	-26.96
873.607	-31.06
873.78	132.78
873.953	-18.77
874.126	30.38
874.299	30.38
874.471	18.09
874.644	-20.82
874.817	-57.68
874.99	63.15
875.163	67.24
875.335	22.19
875.508	-57.68
875.681	-2.39
875.853	-0.34
876.026	-10.58
876.199	-8.53
876.371	-10.58
876.544	30.38
876.717	-92.5
876.889	-16.73
877.062	57
877.234	-43.35
877.407	-24.92
877.579	28.33
877.752	48.81
877.924	-12.63
878.097	-37.2
878.269	-10.58
878.442	-31.06
878.614	5.8
878.786	13.99
878.959	-59.73
879.131	30.38
879.303	22.19
879.476	40.62
879.648	28.33
879.82	-31.06
879.993	20.14
880.165	5.8
880.337	-45.4
880.509	-20.82
880.681	-12.63
880.854	-31.06
881.026	48.81
881.198	138.92
881.37	34.47
881.542	-8.53
881.714	-18.77
881.886	9.9
882.058	-29.01
882.23	30.38
882.402	22.19
882.574	34.47
882.746	63.15
882.918	-49.49
883.09	38.57
883.262	-16.73
883.434	-41.3
883.606	-90.45
883.778	42.67
883.95	89.77
884.122	-18.77
884.293	63.15
884.465	-84.31
884.637	-8.53
884.809	1.71
884.98	7.85
885.152	44.71
885.324	18.09
885.496	-65.88
885.667	-24.92
885.839	-33.11
886.011	57
886.182	54.95
886.354	26.28
886.525	-8.53
886.697	7.85
886.869	9.9
887.04	9.9
887.212	-14.68
887.383	24.23
887.555	71.34
887.726	5.8
887.897	-74.07
888.069	-100.69
888.24	18.09
888.412	-29.01
888.583	-31.06
888.754	26.28
888.926	-35.16
889.097	13.99
889.268	-137.56
889.44	22.19
889.611	-84.31
889.782	-37.2
889.953	-59.73
890.125	5.8
890.296	18.09
890.467	22.19
890.638	5.8
890.809	-39.25
890.98	52.91
891.151	59.05
891.323	-35.16
891.494	79.53
891.665	-43.35
891.836	-14.68
892.007	40.62
892.178	42.67
892.349	-0.34
892.52	16.04
892.691	-2.39
892.862	13.99
893.032	-31.06
893.203	-2.39
893.374	-63.83
893.545	28.33
893.716	24.23
893.887	-18.77
894.057	18.09
894.228	-33.11
894.399	-4.44
894.57	-0.34
894.74	30.38
894.911	71.34
895.082	-41.3
895.253	-18.77
895.423	-31.06
895.594	34.47
895.764	22.19
895.935	-84.31
896.106	-16.73
896.276	-18.77
896.447	-59.73
896.617	-59.73
896.788	-63.83
896.958	-43.35
897.129	-96.6
897.299	-88.4
897.47	38.57
897.64	40.62
897.81	18.09
897.981	5.8
898.151	-59.73
898.322	26.28
898.492	-2.39
898.662	-12.63
898.832	9.9
899.003	-6.49
899.173	-41.3
899.343	-31.06
899.513	-18.77
