Data from USB4F104151__94__14-17-58-621.txt Node

Date: Thu Mar 13 14:17:58 EDT 2025
User: louis
Spectrometer: USB4F10415
Trigger mode: 4
Integration Time (sec): 2.000000E-2
Scans to average: 1
Electric dark correction enabled: true
Nonlinearity correction enabled: false
Boxcar width: 0
XAxis mode: Wavelengths
Number of Pixels in Spectrum: 3648
>>>>>Begin Spectral Data<<<<<
178.204	-95.23
178.424	-95.23
178.644	-95.23
178.864	-132.09
179.084	-146.43
179.304	-25.6
179.524	-60.42
179.744	84.99
179.964	-41.98
180.184	7.17
180.404	66.56
180.624	-3.07
180.844	-21.5
181.064	3.07
181.283	-7.17
181.503	23.55
181.723	-25.6
181.943	-27.65
182.163	52.22
182.383	33.79
182.602	27.65
182.822	84.99
183.042	-25.6
183.262	-17.41
183.482	-33.79
183.701	-17.41
183.921	-39.94
184.141	60.42
184.361	-15.36
184.58	87.04
184.8	-17.41
185.02	-1.02
185.239	35.84
185.459	29.7
185.679	33.79
185.898	-17.41
186.118	31.74
186.338	7.17
186.557	-33.79
186.777	-5.12
186.997	-9.22
187.216	-39.94
187.436	31.74
187.655	19.46
187.875	101.37
188.095	-1.02
188.314	50.18
188.534	91.13
188.753	19.46
188.973	27.65
189.192	9.22
189.412	52.22
189.631	11.26
189.851	-37.89
190.07	115.71
190.29	29.7
190.509	-1.02
190.729	62.46
190.948	84.99
191.168	125.95
191.387	7.17
191.607	-15.36
191.826	31.74
192.045	37.89
192.265	39.94
192.484	-17.41
192.704	25.6
192.923	-48.13
193.142	56.32
193.362	78.85
193.581	62.46
193.8	72.7
194.02	70.65
194.239	-66.56
194.458	19.46
194.678	44.03
194.897	80.89
195.116	-15.36
195.335	7.17
195.555	-33.79
195.774	72.7
195.993	-17.41
196.212	-25.6
196.432	89.09
196.651	-33.79
196.87	-29.7
197.089	70.65
197.308	66.56
197.528	17.41
197.747	-37.89
197.966	60.42
198.185	-19.46
198.404	35.84
198.623	23.55
198.842	109.57
199.062	21.5
199.281	33.79
199.5	-25.6
199.719	56.32
199.938	-29.7
200.157	31.74
200.376	50.18
200.595	39.94
200.814	105.47
201.033	-41.98
201.252	158.72
201.471	52.22
201.69	-9.22
201.909	7.17
202.128	25.6
202.347	68.61
202.566	97.28
202.785	23.55
203.004	-23.55
203.223	68.61
203.442	58.37
203.661	-9.22
203.879	-1.02
204.098	33.79
204.317	23.55
204.536	37.89
204.755	93.18
204.974	50.18
205.193	48.13
205.411	44.03
205.63	-1.02
205.849	25.6
206.068	3.07
206.287	48.13
206.505	27.65
206.724	39.94
206.943	7.17
207.162	-31.74
207.381	25.6
207.599	39.94
207.818	46.08
208.037	39.94
208.255	-23.55
208.474	72.7
208.693	107.52
208.911	33.79
209.13	-19.46
209.349	48.13
209.567	-25.6
209.786	48.13
210.005	89.09
210.223	17.41
210.442	1.02
210.661	56.32
210.879	-27.65
211.098	50.18
211.316	84.99
211.535	11.26
211.753	7.17
211.972	3.07
212.191	-58.37
212.409	35.84
212.628	29.7
212.846	-1.02
213.065	93.18
213.283	-9.22
213.502	-7.17
213.72	23.55
213.938	70.65
214.157	-17.41
214.375	7.17
214.594	-25.6
214.812	35.84
215.031	41.98
215.249	13.31
215.467	50.18
215.686	33.79
215.904	-68.61
216.122	27.65
216.341	27.65
216.559	-33.79
216.778	80.89
216.996	25.6
217.214	7.17
217.432	33.79
217.651	5.12
217.869	9.22
218.087	68.61
218.306	-70.65
218.524	58.37
218.742	11.26
218.96	5.12
219.179	-5.12
219.397	56.32
219.615	48.13
219.833	19.46
220.051	58.37
220.27	23.55
220.488	111.61
220.706	39.94
220.924	25.6
221.142	66.56
221.36	5.12
221.578	78.85
221.796	-1.02
222.015	23.55
222.233	72.7
222.451	21.5
222.669	-23.55
222.887	64.51
223.105	-50.18
223.323	50.18
223.541	1.02
223.759	64.51
223.977	5.12
224.195	21.5
224.413	101.37
224.631	-7.17
224.849	23.55
225.067	111.61
225.285	39.94
225.503	31.74
225.721	-9.22
225.939	-41.98
226.157	35.84
226.375	74.75
226.592	-41.98
226.81	-23.55
227.028	84.99
227.246	103.42
227.464	23.55
227.682	70.65
227.9	31.74
228.117	33.79
228.335	21.5
228.553	-21.5
228.771	-21.5
228.989	60.42
229.206	-9.22
229.424	82.94
229.642	-25.6
229.86	68.61
230.077	23.55
230.295	23.55
230.513	11.26
230.731	9.22
230.948	19.46
231.166	84.99
231.384	3.07
231.601	-37.89
231.819	31.74
232.037	-17.41
232.254	15.36
232.472	27.65
232.689	-1.02
232.907	48.13
233.125	52.22
233.342	89.09
233.56	56.32
233.777	1.02
233.995	33.79
234.213	72.7
234.43	56.32
234.648	19.46
234.865	-56.32
235.083	76.8
235.3	97.28
235.518	39.94
235.735	19.46
235.953	66.56
236.17	13.31
236.388	-1.02
236.605	25.6
236.822	99.33
237.04	48.13
237.257	60.42
237.475	74.75
237.692	35.84
237.909	13.31
238.127	37.89
238.344	-7.17
238.562	-33.79
238.779	48.13
238.996	-25.6
239.214	31.74
239.431	9.22
239.648	-54.27
239.865	62.46
240.083	82.94
240.3	101.37
240.517	-15.36
240.735	72.7
240.952	15.36
241.169	-11.26
241.386	97.28
241.603	19.46
241.821	11.26
242.038	21.5
242.255	128
242.472	7.17
242.689	39.94
242.907	97.28
243.124	64.51
243.341	33.79
243.558	-91.13
243.775	17.41
243.992	-37.89
244.209	39.94
244.426	9.22
244.643	56.32
244.86	15.36
245.078	3.07
245.295	-13.31
245.512	-17.41
245.729	-23.55
245.946	99.33
246.163	15.36
246.38	41.98
246.597	-13.31
246.814	101.37
247.031	13.31
247.248	39.94
247.464	23.55
247.681	13.31
247.898	60.42
248.115	-17.41
248.332	-56.32
248.549	31.74
248.766	9.22
248.983	31.74
249.2	58.37
249.417	27.65
249.633	29.7
249.85	17.41
250.067	-3.07
250.284	64.51
250.501	82.94
250.717	29.7
250.934	-41.98
251.151	35.84
251.368	46.08
251.585	44.03
251.801	-56.32
252.018	33.79
252.235	41.98
252.451	35.84
252.668	52.22
252.885	-17.41
253.102	19.46
253.318	80.89
253.535	48.13
253.752	-7.17
253.968	-9.22
254.185	39.94
254.401	44.03
254.618	15.36
254.835	50.18
255.051	5.12
255.268	50.18
255.484	68.61
255.701	23.55
255.917	52.22
256.134	-58.37
256.351	54.27
256.567	-21.5
256.784	21.5
257	7.17
257.217	9.22
257.433	35.84
257.65	-3.07
257.866	19.46
258.082	11.26
258.299	9.22
258.515	68.61
258.732	11.26
258.948	35.84
259.165	-41.98
259.381	-37.89
259.597	-23.55
259.814	9.22
260.03	-13.31
260.246	-7.17
260.463	15.36
260.679	72.7
260.895	62.46
261.112	101.37
261.328	41.98
261.544	-7.17
261.761	132.09
261.977	70.65
262.193	-21.5
262.409	101.37
262.626	-33.79
262.842	121.85
263.058	23.55
263.274	89.09
263.49	48.13
263.707	13.31
263.923	121.85
264.139	7.17
264.355	56.32
264.571	56.32
264.787	13.31
265.004	72.7
265.22	-13.31
265.436	39.94
265.652	19.46
265.868	80.89
266.084	3.07
266.3	66.56
266.516	15.36
266.732	23.55
266.948	-1.02
267.164	7.17
267.38	41.98
267.596	76.8
267.812	64.51
268.028	99.33
268.244	-52.22
268.46	9.22
268.676	23.55
268.892	23.55
269.108	-29.7
269.324	41.98
269.54	11.26
269.756	130.05
269.972	66.56
270.188	-17.41
270.403	-31.74
270.619	87.04
270.835	41.98
271.051	-19.46
271.267	23.55
271.483	99.33
271.698	27.65
271.914	101.37
272.13	-9.22
272.346	17.41
272.562	25.6
272.777	78.85
272.993	-1.02
273.209	5.12
273.425	41.98
273.64	48.13
273.856	80.89
274.072	-19.46
274.287	35.84
274.503	29.7
274.719	76.8
274.934	25.6
275.15	-56.32
275.366	-31.74
275.581	-25.6
275.797	-25.6
276.012	70.65
276.228	-9.22
276.444	15.36
276.659	-17.41
276.875	15.36
277.09	27.65
277.306	-23.55
277.521	19.46
277.737	23.55
277.952	44.03
278.168	-17.41
278.383	15.36
278.599	17.41
278.814	11.26
279.03	48.13
279.245	76.8
279.461	11.26
279.676	23.55
279.892	-11.26
280.107	-33.79
280.322	11.26
280.538	78.85
280.753	-5.12
280.969	-25.6
281.184	-29.7
281.399	58.37
281.615	-52.22
281.83	60.42
282.045	15.36
282.26	17.41
282.476	-48.13
282.691	31.74
282.906	23.55
283.122	76.8
283.337	-7.17
283.552	31.74
283.767	56.32
283.983	25.6
284.198	99.33
284.413	23.55
284.628	41.98
284.843	48.13
285.058	95.23
285.274	7.17
285.489	-25.6
285.704	27.65
285.919	44.03
286.134	54.27
286.349	48.13
286.564	23.55
286.779	46.08
286.995	50.18
287.21	-41.98
287.425	84.99
287.64	35.84
287.855	41.98
288.07	-48.13
288.285	72.7
288.5	31.74
288.715	27.65
288.93	70.65
289.145	-74.75
289.36	27.65
289.575	-29.7
289.79	50.18
290.004	-1.02
290.219	66.56
290.434	-5.12
290.649	17.41
290.864	58.37
291.079	-1.02
291.294	31.74
291.509	117.76
291.724	37.89
291.938	41.98
292.153	-17.41
292.368	1.02
292.583	44.03
292.798	11.26
293.012	31.74
293.227	37.89
293.442	11.26
293.657	27.65
293.871	142.33
294.086	29.7
294.301	15.36
294.516	33.79
294.73	27.65
294.945	-33.79
295.16	-33.79
295.374	175.1
295.589	56.32
295.804	58.37
296.018	23.55
296.233	52.22
296.447	-44.03
296.662	23.55
296.877	15.36
297.091	27.65
297.306	72.7
297.52	27.65
297.735	56.32
297.949	-9.22
298.164	39.94
298.378	66.56
298.593	-17.41
298.807	66.56
299.022	1.02
299.236	52.22
299.451	13.31
299.665	-9.22
299.88	-15.36
300.094	70.65
300.309	125.95
300.523	-37.89
300.737	50.18
300.952	-13.31
301.166	39.94
301.381	15.36
301.595	68.61
301.809	7.17
302.024	39.94
302.238	17.41
302.452	23.55
302.667	27.65
302.881	9.22
303.095	-39.94
303.309	50.18
303.524	-7.17
303.738	-21.5
303.952	-9.22
304.166	13.31
304.381	-78.85
304.595	107.52
304.809	29.7
305.023	64.51
305.237	-5.12
305.452	66.56
305.666	7.17
305.88	58.37
306.094	21.5
306.308	15.36
306.522	7.17
306.736	31.74
306.95	23.55
307.164	19.46
307.379	101.37
307.593	33.79
307.807	41.98
308.021	48.13
308.235	15.36
308.449	25.6
308.663	31.74
308.877	35.84
309.091	7.17
309.305	37.89
309.519	37.89
309.733	56.32
309.947	17.41
310.161	52.22
310.374	-15.36
310.588	95.23
310.802	11.26
311.016	113.66
311.23	48.13
311.444	-33.79
311.658	-25.6
311.872	64.51
312.085	56.32
312.299	56.32
312.513	3.07
312.727	72.7
312.941	35.84
313.154	48.13
313.368	80.89
313.582	21.5
313.796	7.17
314.009	35.84
314.223	82.94
314.437	39.94
314.651	99.33
314.864	-33.79
315.078	-37.89
315.292	15.36
315.505	-27.65
315.719	23.55
315.933	23.55
316.146	7.17
316.36	60.42
316.573	17.41
316.787	23.55
317.001	35.84
317.214	50.18
317.428	103.42
317.641	15.36
317.855	82.94
318.068	7.17
318.282	52.22
318.495	15.36
318.709	41.98
318.922	41.98
319.136	27.65
319.349	97.28
319.563	-54.27
319.776	109.57
319.99	-48.13
320.203	121.85
320.417	50.18
320.63	35.84
320.843	164.86
321.057	35.84
321.27	-13.31
321.483	-17.41
321.697	21.5
321.91	-25.6
322.124	-76.8
322.337	93.18
322.55	39.94
322.763	5.12
322.977	-50.18
323.19	-41.98
323.403	91.13
323.617	76.8
323.83	17.41
324.043	-15.36
324.256	41.98
324.469	-3.07
324.683	7.17
324.896	11.26
325.109	138.24
325.322	-44.03
325.535	41.98
325.748	44.03
325.962	1.02
326.175	1.02
326.388	60.42
326.601	113.66
326.814	44.03
327.027	31.74
327.24	82.94
327.453	-64.51
327.666	72.7
327.879	89.09
328.092	66.56
328.305	9.22
328.518	-41.98
328.731	70.65
328.944	11.26
329.157	80.89
329.37	-5.12
329.583	-25.6
329.796	82.94
330.009	-21.5
330.222	39.94
330.435	46.08
330.648	101.37
330.861	19.46
331.073	58.37
331.286	105.47
331.499	31.74
331.712	41.98
331.925	23.55
332.138	48.13
332.35	25.6
332.563	-7.17
332.776	66.56
332.989	33.79
333.202	19.46
333.414	-9.22
333.627	103.42
333.84	60.42
334.053	72.7
334.265	-25.6
334.478	-25.6
334.691	33.79
334.903	7.17
335.116	13.31
335.329	48.13
335.541	89.09
335.754	97.28
335.966	-17.41
336.179	13.31
336.392	19.46
336.604	72.7
336.817	44.03
337.029	89.09
337.242	19.46
337.454	76.8
337.667	1.02
337.88	54.27
338.092	-21.5
338.305	56.32
338.517	21.5
338.729	97.28
338.942	52.22
339.154	17.41
339.367	27.65
339.579	52.22
339.792	-33.79
340.004	5.12
340.217	-1.02
340.429	39.94
340.641	-25.6
340.854	7.17
341.066	-9.22
341.278	89.09
341.491	82.94
341.703	-23.55
341.915	-9.22
342.128	-11.26
342.34	33.79
342.552	-13.31
342.764	17.41
342.977	3.07
343.189	-1.02
343.401	39.94
343.613	64.51
343.826	70.65
344.038	17.41
344.25	48.13
344.462	-5.12
344.674	48.13
344.886	52.22
345.099	62.46
345.311	-11.26
345.523	93.18
345.735	15.36
345.947	-11.26
346.159	35.84
346.371	-46.08
346.583	39.94
346.795	52.22
347.007	-27.65
347.219	-9.22
347.431	11.26
347.643	72.7
347.855	60.42
348.067	31.74
348.279	89.09
348.491	-54.27
348.703	33.79
348.915	-21.5
349.127	15.36
349.339	-1.02
349.551	33.79
349.763	54.27
349.975	103.42
350.187	87.04
350.399	48.13
350.61	97.28
350.822	7.17
351.034	66.56
351.246	7.17
351.458	11.26
351.669	44.03
351.881	66.56
352.093	-1.02
352.305	144.38
352.517	64.51
352.728	82.94
352.94	70.65
353.152	23.55
353.363	41.98
353.575	9.22
353.787	89.09
353.999	-1.02
354.21	60.42
354.422	113.66
354.633	23.55
354.845	25.6
355.057	56.32
355.268	-5.12
355.48	97.28
355.692	-21.5
355.903	46.08
356.115	-33.79
356.326	-7.17
356.538	99.33
356.749	-1.02
356.961	72.7
357.172	105.47
357.384	74.75
357.595	109.57
357.807	21.5
358.018	-5.12
358.23	72.7
358.441	58.37
358.653	-1.02
358.864	23.55
359.075	23.55
359.287	35.84
359.498	-7.17
359.709	70.65
359.921	39.94
360.132	37.89
360.344	72.7
360.555	-5.12
360.766	78.85
360.977	-17.41
361.189	41.98
361.4	84.99
361.611	87.04
361.823	89.09
362.034	52.22
362.245	-17.41
362.456	39.94
362.667	113.66
362.879	29.7
363.09	101.37
363.301	54.27
363.512	1.02
363.723	-19.46
363.935	56.32
364.146	72.7
364.357	95.23
364.568	76.8
364.779	54.27
364.99	48.13
365.201	-25.6
365.412	-11.26
365.623	-1.02
365.834	76.8
366.045	80.89
366.256	72.7
366.467	41.98
366.678	11.26
366.889	11.26
367.1	80.89
367.311	68.61
367.522	11.26
367.733	107.52
367.944	93.18
368.155	23.55
368.366	33.79
368.577	64.51
368.788	72.7
368.999	64.51
369.209	48.13
369.42	101.37
369.631	72.7
369.842	23.55
370.053	72.7
370.264	97.28
370.474	29.7
370.685	121.85
370.896	17.41
371.107	50.18
371.317	48.13
371.528	35.84
371.739	3.07
371.95	23.55
372.16	76.8
372.371	-21.5
372.582	70.65
372.792	25.6
373.003	60.42
373.214	93.18
373.424	-9.22
373.635	-15.36
373.846	-25.6
374.056	-1.02
374.267	58.37
374.477	50.18
374.688	56.32
374.898	62.46
375.109	31.74
375.319	84.99
375.53	-9.22
375.74	78.85
375.951	-21.5
376.161	58.37
376.372	56.32
376.582	64.51
376.793	70.65
377.003	11.26
377.214	39.94
377.424	78.85
377.635	82.94
377.845	80.89
378.055	56.32
378.266	-25.6
378.476	89.09
378.686	56.32
378.897	-25.6
379.107	52.22
379.317	58.37
379.528	52.22
379.738	37.89
379.948	37.89
380.158	87.04
380.369	56.32
380.579	56.32
380.789	19.46
380.999	46.08
381.21	64.51
381.42	80.89
381.63	41.98
381.84	46.08
382.05	7.17
382.261	62.46
382.471	39.94
382.681	33.79
382.891	7.17
383.101	27.65
383.311	-37.89
383.521	1.02
383.731	46.08
383.941	89.09
384.151	23.55
384.361	-9.22
384.571	11.26
384.781	119.81
384.991	78.85
385.201	-7.17
385.411	46.08
385.621	154.62
385.831	-7.17
386.041	-82.94
386.251	64.51
386.461	31.74
386.671	17.41
386.881	97.28
387.091	138.24
387.301	64.51
387.511	84.99
387.72	82.94
387.93	89.09
388.14	99.33
388.35	17.41
388.56	101.37
388.769	91.13
388.979	80.89
389.189	13.31
389.399	31.74
389.609	93.18
389.818	74.75
390.028	72.7
390.238	103.42
390.447	72.7
390.657	9.22
390.867	84.99
391.076	25.6
391.286	72.7
391.496	48.13
391.705	130.05
391.915	62.46
392.125	78.85
392.334	164.86
392.544	115.71
392.753	97.28
392.963	80.89
393.172	66.56
393.382	25.6
393.591	64.51
393.801	52.22
394.01	121.85
394.22	50.18
394.429	-17.41
394.639	35.84
394.848	52.22
395.058	160.77
395.267	72.7
395.477	19.46
395.686	128
395.895	84.99
396.105	138.24
396.314	87.04
396.524	142.33
396.733	39.94
396.942	39.94
397.152	91.13
397.361	107.52
397.57	-1.02
397.78	76.8
397.989	121.85
398.198	91.13
398.407	60.42
398.617	97.28
398.826	80.89
399.035	44.03
399.244	93.18
399.453	119.81
399.663	58.37
399.872	58.37
400.081	97.28
400.29	89.09
400.499	68.61
400.708	121.85
400.917	160.77
401.127	60.42
401.336	76.8
401.545	138.24
401.754	138.24
401.963	60.42
402.172	138.24
402.381	23.55
402.59	60.42
402.799	58.37
403.008	44.03
403.217	103.42
403.426	44.03
403.635	23.55
403.844	121.85
404.053	84.99
404.262	52.22
404.471	175.1
404.68	142.33
404.888	205.82
405.097	70.65
405.306	97.28
405.515	103.42
405.724	148.48
405.933	138.24
406.142	238.59
406.35	103.42
406.559	134.14
406.768	134.14
406.977	218.11
407.185	105.47
407.394	185.34
407.603	185.34
407.812	211.96
408.02	252.92
408.229	109.57
408.438	207.87
408.646	197.63
408.855	244.73
409.064	216.06
409.272	177.15
409.481	304.12
409.69	205.82
409.898	236.54
410.107	216.06
410.315	269.31
410.524	152.57
410.733	300.03
410.941	318.46
411.15	375.8
411.358	289.79
411.567	318.46
411.775	338.94
411.984	312.32
412.192	279.55
412.401	410.62
412.609	332.79
412.818	390.14
413.026	351.23
413.234	414.71
413.443	474.1
413.651	375.8
413.86	543.74
414.068	549.88
414.276	459.77
414.485	461.82
414.693	494.58
414.901	537.59
415.11	478.2
415.318	551.93
415.526	556.02
415.734	623.61
415.943	517.11
416.151	672.76
416.359	654.33
416.567	713.72
416.776	639.99
416.984	785.4
417.192	680.95
417.4	828.4
417.608	736.24
417.817	867.31
418.025	893.94
418.233	910.32
418.441	865.27
418.649	961.52
418.857	941.04
419.065	998.38
419.273	951.28
419.481	1068.02
419.689	1156.08
419.897	1162.22
420.105	1168.37
420.313	1252.33
420.521	1188.85
420.729	1395.69
420.937	1340.4
421.145	1375.21
421.353	1424.36
421.561	1641.45
421.769	1524.71
421.977	1647.59
422.185	1620.97
422.393	1670.12
422.601	1780.71
422.809	1862.63
423.017	1844.2
423.224	1860.58
423.432	1926.11
423.64	1915.87
423.848	2096.1
424.056	2057.18
424.263	2212.83
424.471	2270.17
424.679	2423.77
424.887	2450.39
425.094	2376.67
425.302	2472.92
425.51	2593.75
425.718	2515.93
425.925	2620.38
426.133	2743.25
426.341	2943.96
426.548	2968.53
426.756	3058.64
426.964	3146.7
427.171	3406.8
427.379	3349.45
427.586	3455.95
427.794	3441.61
428.001	3668.94
428.209	3922.88
428.417	3701.7
428.624	4070.34
428.832	3974.08
429.039	4121.54
429.247	4142.02
429.454	4488.12
429.662	4746.17
429.869	4510.65
430.076	4754.36
430.284	4621.24
430.491	4895.67
430.699	5090.23
430.906	4991.92
431.114	5184.43
431.321	5282.74
431.528	5417.9
431.736	5841.83
431.943	6034.34
432.15	5921.7
432.358	5880.74
432.565	6046.63
432.772	6038.44
432.979	6568.86
433.187	6626.2
433.394	6589.34
433.601	7068.56
433.808	7166.87
434.016	7150.48
434.223	7353.23
434.43	7936.9
434.637	7719.82
434.844	8231.81
435.052	8424.32
435.259	8305.54
435.466	8627.07
435.673	8272.77
435.88	8903.54
436.087	9395.06
436.294	9376.62
436.501	9151.35
436.708	9321.33
436.915	9610.09
437.122	9919.34
437.329	9962.34
437.537	10339.17
437.743	10488.67
437.95	10371.94
438.157	11101.01
438.364	11316.05
438.571	11445.07
438.778	11307.86
438.985	12331.84
439.192	11905.87
439.399	11991.88
439.606	11989.83
439.813	12772.16
440.02	13536.05
440.227	13343.54
440.433	13048.63
440.64	13452.08
440.847	13562.67
441.054	13882.16
441.261	14760.73
441.467	14498.59
441.674	14824.22
441.881	15262.49
442.088	15219.48
442.294	15115.03
442.501	15405.84
442.708	15975.18
442.914	16431.88
443.121	17050.36
443.328	16558.85
443.534	17844.98
443.741	17056.51
443.948	17126.14
444.154	18365.16
444.361	18529
444.568	18492.13
444.774	18344.68
444.981	18500.33
445.187	19006.17
445.394	20130.51
445.6	19669.72
445.807	21492.41
446.013	20662.98
446.22	20796.1
446.426	21709.49
446.633	22067.89
446.839	22708.9
447.046	21942.96
447.252	22985.38
447.459	23120.54
447.665	22962.85
447.871	23747.22
448.078	24902.28
448.284	23478.94
448.491	24414.86
448.697	25180.8
448.903	25956.98
449.11	25827.96
449.316	25676.41
449.522	26073.71
449.728	26442.35
449.935	26616.43
450.141	26538.6
450.347	27146.85
450.553	26530.41
450.76	26880.61
450.966	27927.13
451.172	27466.33
451.378	28041.81
451.584	27486.81
451.791	28189.27
451.997	28568.14
452.203	29002.31
452.409	28422.73
452.615	28709.45
452.821	27427.42
453.027	27351.65
453.233	28750.41
453.44	27425.37
453.646	27763.29
453.852	28039.76
454.058	28564.04
454.264	27458.14
454.47	28242.51
454.676	27034.21
454.882	28209.75
455.088	25827.96
455.294	26409.58
455.5	26950.24
455.705	26759.78
455.911	26069.62
456.117	25514.62
456.323	25057.92
456.529	23700.12
456.735	24812.17
456.941	24263.31
457.147	23956.11
457.352	23335.58
457.558	22536.87
457.764	23034.53
457.97	22528.68
458.176	21988.02
458.381	22076.08
458.587	20818.63
458.793	20968.13
458.999	19917.52
459.204	21222.08
459.41	20615.88
459.616	19407.58
459.821	19407.58
460.027	19360.47
460.233	18993.89
460.438	18074.35
460.644	18166.51
460.85	17283.83
461.055	17281.78
461.261	16966.4
461.466	15960.84
461.672	15483.67
461.878	16481.03
462.083	15260.44
462.289	15092.51
462.494	14940.96
462.7	14353.19
462.905	13976.36
463.111	14388
463.316	14609.19
463.522	14041.9
463.727	14203.69
463.932	14256.93
464.138	13976.36
464.343	14142.25
464.549	13550.39
464.754	13974.31
464.959	13884.2
465.165	13822.77
465.37	13130.55
465.575	12878.65
465.781	13644.59
465.986	13648.69
466.191	13036.35
466.397	12858.17
466.602	12153.67
466.807	12612.42
467.012	12641.09
467.218	12462.91
467.423	12505.92
467.628	12643.14
467.833	12983.1
468.038	12481.35
468.244	12153.67
468.449	12704.57
468.654	12362.56
468.859	12311.36
469.064	12239.69
469.269	11635.53
469.474	11762.51
469.679	12137.29
469.885	11774.8
470.09	11881.29
470.295	11797.32
470.5	11565.9
470.705	11664.21
470.91	11221.84
471.115	11332.44
471.32	11350.87
471.525	11350.87
471.73	10971.99
471.935	10861.4
472.139	10621.79
472.344	10742.62
472.549	10376.03
472.754	10636.13
472.959	10249.06
473.164	10093.41
473.369	10064.74
473.574	10359.65
473.778	10177.38
473.983	10099.56
474.188	10074.98
474.393	9610.09
474.598	9673.58
474.802	9577.33
475.007	9616.24
475.212	9622.38
475.417	9175.92
475.621	9034.61
475.826	9366.39
476.031	9106.29
476.235	8792.95
476.44	9192.31
476.645	8985.46
476.849	8858.49
477.054	8717.18
477.259	8649.6
477.463	8760.19
477.668	8436.61
477.872	8676.22
478.077	8422.27
478.282	8436.61
478.486	8252.29
478.691	8178.56
478.895	8270.72
479.1	8176.52
479.304	8194.95
479.509	7947.14
479.713	8014.73
479.918	7848.84
480.122	7682.95
480.326	7936.9
480.531	7635.85
480.735	7670.67
480.94	7758.73
481.144	7781.26
481.348	7633.8
481.553	7678.86
481.757	7576.46
481.961	7652.24
482.166	7873.42
482.37	7596.94
482.574	7400.34
482.778	7408.53
482.983	7674.76
483.187	7617.42
483.391	7584.65
483.595	7564.17
483.8	7254.93
484.004	7490.45
484.208	7519.12
484.412	7508.88
484.616	7455.63
484.821	7445.39
485.025	7340.94
485.229	7613.32
485.433	7558.03
485.637	7297.94
485.841	7502.73
486.045	7443.34
486.249	7416.72
486.453	7480.21
486.657	7605.13
486.861	7623.56
487.065	7529.36
487.269	7580.56
487.473	7285.65
487.677	7566.22
487.881	7699.34
488.085	7523.21
488.289	7463.82
488.493	7611.28
488.697	7588.75
488.901	7635.85
489.105	7433.1
489.309	7695.24
489.512	7709.58
489.716	7515.02
489.92	7592.84
490.124	7547.79
490.328	7738.25
490.531	7564.17
490.735	7848.84
490.939	7848.84
491.143	7816.07
491.346	7566.22
491.55	7916.42
491.754	7861.13
491.958	8084.36
492.161	7914.38
492.365	7912.33
492.569	7801.74
492.772	7975.81
492.976	7936.9
493.18	8203.14
493.383	8242.05
493.587	8006.53
493.79	8317.83
493.994	8248.19
494.197	8340.35
494.401	8313.73
494.605	8358.78
494.808	8706.94
495.012	8661.88
495.215	8627.07
495.419	8641.4
495.622	8549.25
495.825	8803.19
496.029	8827.77
496.232	8895.35
496.436	9094.01
496.639	9206.64
496.843	9112.44
497.046	9280.37
497.249	9188.21
497.453	9294.71
497.656	9583.47
497.859	9720.68
498.063	9601.9
498.266	9665.39
498.469	9982.82
498.673	9870.19
498.876	10234.72
499.079	10214.24
499.282	10281.83
499.485	10351.46
499.689	10529.63
499.892	10767.2
500.095	10703.71
500.298	10939.23
500.501	10738.52
500.705	11199.32
500.908	11187.03
501.111	11289.43
501.314	11404.11
501.517	11498.32
501.72	11838.28
501.923	11760.46
502.126	11832.14
502.329	12268.36
502.532	12182.34
502.735	12151.62
502.938	12510.02
503.141	12393.28
503.344	12671.81
503.547	12581.7
503.75	13122.36
503.953	12995.39
504.156	13179.7
504.359	13298.49
504.562	13474.61
504.765	13820.72
504.968	13810.48
505.17	13857.58
505.373	13941.55
505.576	14213.93
505.779	14639.9
505.982	14611.23
506.185	15069.98
506.387	14955.29
506.59	14895.9
506.793	15409.94
506.996	15121.18
507.198	15776.53
507.401	15622.93
507.604	15807.25
507.807	16204.55
508.009	16247.56
508.212	16468.74
508.415	16407.3
508.617	16827.14
508.82	17060.6
509.022	16749.31
509.225	17083.13
509.428	17527.54
509.63	17474.29
509.833	17685.23
510.035	18186.99
510.238	17822.45
510.44	18131.69
510.643	18309.86
510.845	18567.91
511.048	18703.07
511.25	18729.7
511.453	18989.79
511.655	19862.22
511.858	19344.09
512.06	19602.13
512.262	19798.74
512.465	19841.75
512.667	20253.39
512.87	20232.91
513.072	20466.38
513.274	20777.67
513.477	20931.26
513.679	21215.93
513.881	21232.32
514.084	21603
514.286	21437.11
514.488	21660.34
514.69	22475.43
514.893	22375.08
515.095	22389.42
515.297	22827.68
515.499	22885.03
515.701	23091.87
515.904	23136.93
516.106	23605.91
516.308	23464.6
516.51	24058.51
516.712	23915.16
516.914	24373.9
517.116	24619.66
517.318	24666.76
517.52	24756.87
517.722	25041.54
517.925	25389.69
518.127	25602.68
518.329	25969.27
518.531	25725.56
518.733	26036.85
518.935	26331.76
519.136	26143.35
519.338	26837.61
519.54	26964.58
519.742	27345.5
519.944	27298.4
520.146	27939.41
520.348	27927.13
520.55	27847.26
520.752	28234.32
520.954	28607.05
521.155	28426.83
521.357	28916.29
521.559	29039.17
521.761	29387.33
521.963	29289.03
522.164	29553.21
522.366	29719.1
522.568	29966.9
522.77	30007.86
522.971	30323.25
523.173	30466.61
523.375	30614.06
523.576	31001.13
523.778	30724.65
523.98	31291.94
524.181	31218.21
524.383	31429.15
524.584	32072.21
524.786	31887.9
524.988	31664.67
525.189	32191
525.391	32240.15
525.592	32637.45
525.794	32510.48
525.995	32891.4
526.197	32889.35
526.398	32811.53
526.6	32920.07
526.801	33321.48
527.003	33118.73
527.204	33288.71
527.406	33737.21
527.607	33790.46
527.808	33923.58
528.01	33542.66
528.211	33733.12
528.412	34038.26
528.614	34038.26
528.815	34015.74
529.016	34697.71
529.218	34116.09
529.419	34537.97
529.62	34253.3
529.822	34431.47
530.023	34722.29
530.224	34550.26
530.425	34802.16
530.626	34384.37
530.828	34511.35
531.029	34978.28
531.23	34247.16
531.431	34965.99
531.632	35017.19
531.833	35123.69
532.035	35148.26
532.236	34992.62
532.437	35299.81
532.638	35170.79
532.839	35160.55
533.04	35367.4
533.241	35070.44
533.442	35582.43
533.643	35013.1
533.844	35058.15
534.045	35181.03
534.246	34951.66
534.447	35512.8
534.648	35365.35
534.849	35455.46
535.05	35287.53
535.251	35502.56
535.451	34918.89
535.652	35355.11
535.853	35482.08
536.054	35248.61
536.255	35498.47
536.456	35115.5
536.657	35598.82
536.857	35258.85
537.058	35058.15
537.259	35502.56
537.46	35424.74
537.66	35539.43
537.861	35441.12
538.062	35246.57
538.263	35447.27
538.463	35066.34
538.664	35277.29
538.865	35334.63
539.065	35715.55
539.266	35215.85
539.466	35457.51
539.667	35082.73
539.868	35625.44
540.068	35217.89
540.269	35482.08
540.469	35604.96
540.67	35287.53
540.87	35215.85
541.071	35129.83
541.271	35332.58
541.472	35807.71
541.672	35406.31
541.873	35123.69
542.073	35095.02
542.274	35635.68
542.474	35273.19
542.675	35101.16
542.875	35656.16
543.075	35195.37
543.276	34802.16
543.476	35631.58
543.676	35031.53
543.877	35707.36
544.077	35326.44
544.277	35262.95
544.478	35320.29
544.678	35531.23
544.878	35455.46
545.078	35351.01
545.279	34841.07
545.479	34886.12
545.679	35342.82
545.879	35412.45
546.079	35138.02
546.28	34965.99
546.48	34769.39
546.68	35363.3
546.88	35115.5
547.08	35199.46
547.28	34597.36
547.48	34773.49
547.68	35422.69
547.88	35013.1
548.081	35211.75
548.281	35072.49
548.481	34898.41
548.681	35441.12
548.881	35107.3
549.081	35265
549.28	34808.3
549.48	35107.3
549.68	35410.4
549.88	35308.01
550.08	35076.58
550.28	35320.29
550.48	34703.85
550.68	35086.82
550.88	34687.47
551.08	34933.23
551.279	35086.82
551.479	34851.31
551.679	35041.77
551.879	35047.91
552.079	35185.13
552.278	35166.7
552.478	34830.83
552.678	35119.59
552.878	35119.59
553.077	34978.28
553.277	34570.74
553.477	35181.03
553.676	35142.12
553.876	34798.06
554.076	34920.94
554.275	34748.91
554.475	34302.45
554.674	34701.81
554.874	34879.98
555.074	34529.78
555.273	35133.93
555.473	34851.31
555.672	34470.39
555.872	34761.2
556.071	34863.6
556.271	34955.75
556.47	34443.76
556.67	34308.6
556.869	34572.78
557.068	34621.94
557.268	34204.15
557.467	34222.58
557.667	34726.38
557.866	34599.41
558.065	34329.08
558.265	34406.9
558.464	34206.2
558.663	34628.08
558.863	34023.93
559.062	34734.57
559.261	34222.58
559.461	34441.71
559.66	34034.17
559.859	34109.94
560.058	33980.92
560.258	33872.38
560.457	33714.69
560.656	34298.36
560.855	33935.87
561.054	34331.12
561.253	33776.12
561.453	33925.63
561.652	34032.12
561.851	33634.81
562.05	33802.75
562.249	33729.02
562.448	34155
562.647	33964.54
562.846	33843.71
563.045	33962.49
563.244	33657.34
563.443	33780.22
563.642	33145.35
563.841	33442.31
564.04	33047.05
564.239	33462.79
564.438	33178.12
564.637	33188.36
564.836	33427.97
565.035	32885.26
565.234	33165.83
565.432	33063.43
565.631	33120.77
565.83	33280.52
566.029	32834.06
566.228	33012.23
566.427	32522.77
566.625	33139.21
566.824	32354.83
567.023	32899.59
567.222	32152.09
567.42	32598.54
567.619	32547.34
567.818	32473.62
568.016	31988.25
568.215	32659.98
568.414	32113.17
568.612	32424.47
568.811	32018.97
569.01	32068.12
569.208	31742.49
569.407	32109.08
569.605	31726.11
569.804	32487.95
570.002	31707.68
570.201	31771.16
570.4	31715.87
570.598	31472.16
570.797	31568.41
570.995	31363.62
571.193	31449.63
571.392	31496.74
571.59	30990.89
571.789	31216.16
571.987	31195.68
572.186	31185.44
572.384	31302.18
572.582	31128.1
572.781	31144.48
572.979	30773.8
573.177	31017.51
573.376	31271.46
573.574	30603.82
573.772	30915.11
573.971	30536.24
574.169	30337.59
574.367	30396.98
574.565	30564.91
574.763	30442.03
574.962	30341.68
575.16	30050.87
575.358	30337.59
575.556	29821.5
575.754	30597.68
575.952	29798.97
576.151	29829.69
576.349	29735.48
576.547	29549.12
576.745	29919.8
576.943	29725.24
577.141	29538.88
577.339	29297.22
577.537	29420.1
577.735	29653.56
577.933	29291.07
578.131	29422.14
578.329	28785.22
578.527	28826.18
578.725	28875.34
578.923	29094.47
579.121	28822.09
579.319	28772.94
579.516	28838.47
579.714	28965.45
579.912	28574.28
580.11	28740.17
580.308	28891.72
580.506	28650.06
580.704	27931.22
580.901	28562
581.099	28754.51
581.297	28219.99
581.495	28287.57
581.692	28107.35
581.89	28076.63
582.088	28138.07
582.285	27794.01
582.483	28164.69
582.681	28043.86
582.878	27767.38
583.076	27449.95
583.274	27933.27
583.471	27411.04
583.669	27495
583.866	27265.63
584.064	27712.09
584.262	27173.47
584.459	27261.54
584.657	27253.34
584.854	27521.63
585.052	26927.72
585.249	27130.47
585.447	27017.83
585.644	26464.88
585.841	26700.39
586.039	27069.03
586.236	26425.96
586.434	26597.99
586.631	26163.82
586.828	26370.67
587.026	26763.88
587.223	26391.15
587.42	26311.28
587.618	26272.37
587.815	25772.66
588.012	26063.47
588.21	25819.77
588.407	26159.73
588.604	25528.95
588.801	25619.07
588.999	25762.42
589.196	25653.88
589.393	25492.09
589.59	25524.86
589.787	25488
589.984	25045.63
590.182	25019.01
590.379	25518.71
590.576	24928.9
590.773	25117.31
590.97	24560.27
591.167	24971.91
591.364	24502.92
591.561	24935.04
591.758	24433.29
591.955	24668.81
592.152	24933
592.349	24711.81
592.546	24701.58
592.743	24404.62
592.94	23962.26
593.137	24242.83
593.334	24449.67
593.531	24140.43
593.727	24355.47
593.924	23947.92
594.121	23681.69
594.318	24341.13
594.515	23845.52
594.712	23943.83
594.908	23743.13
595.105	23626.39
595.302	23487.13
595.499	23468.7
595.696	23487.13
595.892	23220.89
596.089	23407.26
596.286	23417.5
596.482	23472.79
596.679	23487.13
596.876	23288.48
597.072	23157.41
597.269	23143.07
597.466	23239.33
597.662	22592.17
597.859	22780.58
598.055	23224.99
598.252	22749.86
598.448	22661.8
598.645	22565.54
598.841	22620.84
599.038	22416.04
599.234	22579.88
599.431	22350.51
599.627	22123.18
599.824	22186.67
600.02	22143.66
600.217	22235.82
600.413	22340.27
600.609	22119.09
600.806	22155.95
601.002	22151.85
601.198	21834.42
601.395	21748.4
601.591	21643.96
601.787	21738.16
601.984	21488.31
602.18	21791.41
602.376	21603
602.572	21457.59
602.769	21148.35
602.965	21191.36
603.161	21316.28
603.357	20890.31
603.553	20947.65
603.75	20941.5
603.946	21136.06
604.142	21172.92
604.338	20675.27
604.534	20652.74
604.73	20875.97
604.926	21021.38
605.122	20611.78
605.318	20544.2
605.514	20347.59
605.71	20591.3
605.906	20587.21
606.102	20200.14
606.298	20523.72
606.494	20484.81
606.69	20165.32
606.886	20218.57
607.082	19917.52
607.278	20443.85
607.474	19811.03
607.67	20280.01
607.866	19743.44
608.062	20097.74
608.257	19729.11
608.453	20056.78
608.649	19940.05
608.845	19882.7
609.041	19622.61
609.236	19815.12
609.432	19702.48
609.628	19702.48
609.824	19481.3
610.019	19362.52
610.215	19477.21
610.411	19657.43
610.606	19466.97
610.802	19204.83
610.998	19299.03
611.193	19462.87
611.389	19309.27
611.584	19321.56
611.78	19385.05
611.976	18803.43
612.171	19286.75
612.367	19163.87
612.562	18744.03
612.758	18653.92
612.953	18909.92
613.149	18995.93
613.344	18741.99
613.539	18969.31
613.735	18819.81
613.93	18682.59
614.126	18764.51
614.321	18733.79
614.517	18668.26
614.712	18741.99
614.907	18580.2
615.103	18881.25
615.298	18567.91
615.493	18817.76
615.688	18399.98
615.884	18746.08
616.079	18301.67
616.274	18399.98
616.47	18127.6
616.665	18381.54
616.86	18408.17
617.055	17955.57
617.25	18262.76
617.445	18053.87
617.641	17947.37
617.836	17842.93
618.031	17834.74
618.226	17922.8
618.421	17732.34
618.616	18322.15
618.811	17738.48
619.006	17814.26
619.201	17709.81
619.396	17386.23
619.591	17203.96
619.786	17746.67
619.981	17298.17
620.176	17285.88
620.371	17193.72
620.566	17371.89
620.761	17152.76
620.956	17150.71
621.151	17027.84
621.346	16950.01
621.541	16941.82
621.735	16941.82
621.93	16612.1
622.125	16501.51
622.32	16204.55
622.515	16808.7
622.709	16534.28
622.904	16286.47
623.099	16411.4
623.294	16196.36
623.488	16155.4
623.683	16233.22
623.878	15809.29
624.072	15932.17
624.267	15743.76
624.462	15563.54
624.656	15645.46
624.851	15553.3
625.046	15547.15
625.24	15520.53
625.435	15500.05
625.629	14973.72
625.824	15153.94
626.018	15155.99
626.213	14992.16
626.407	15178.52
626.602	14736.16
626.796	14981.92
626.991	14721.82
627.185	14609.19
627.38	14551.84
627.574	14547.75
627.768	14179.11
627.963	14095.14
628.157	14140.2
628.352	14097.19
628.546	13945.64
628.74	14177.06
628.935	13916.97
629.129	14220.07
629.323	13710.13
629.517	13896.49
629.712	13617.97
629.906	13572.91
630.1	13247.29
630.294	13353.78
630.489	13298.49
630.683	13538.1
630.877	12892.99
631.071	13361.97
631.265	13198.13
631.459	13163.32
631.653	12895.04
631.848	12905.28
632.042	12704.57
632.236	12870.46
632.43	12788.54
632.624	12604.22
632.818	12512.07
633.012	12278.6
633.206	12544.83
633.4	12467.01
633.594	12327.75
633.788	12395.33
633.982	12200.77
634.176	12231.49
634.369	12223.3
634.563	12147.53
634.757	11934.54
634.951	11967.31
635.145	12006.22
635.339	11756.36
635.533	11758.41
635.726	11836.24
635.92	11500.37
636.114	11754.32
636.308	11445.07
636.501	11680.59
636.695	11522.9
636.889	11395.92
637.083	11367.25
637.276	11225.94
637.47	11127.64
637.664	11017.05
637.857	11101.01
638.051	11074.39
638.244	10871.64
638.438	11008.86
638.632	10703.71
638.825	10849.11
639.019	10687.32
639.212	10537.82
639.406	10650.46
639.599	10730.33
639.793	10525.54
639.986	10347.36
640.18	10361.7
640.373	10533.73
640.567	10146.66
640.76	10144.61
640.954	10105.7
641.147	10091.37
641.34	9878.38
641.534	9902.95
641.727	9849.71
641.92	9945.96
642.114	9831.27
642.307	9855.85
642.5	9890.67
642.694	9479.02
642.887	9573.23
643.08	9935.72
643.273	9515.89
643.467	9388.91
643.66	9421.68
643.853	9161.59
644.046	9130.87
644.239	9229.17
644.432	9397.1
644.626	9145.2
644.819	9053.05
645.012	9003.89
645.205	9237.36
645.398	8954.74
645.591	8756.09
645.784	9010.04
645.977	8784.76
646.17	8674.17
646.363	8643.45
646.556	8625.02
646.749	8655.74
646.942	8721.27
647.135	8571.77
647.328	8536.96
647.521	8598.4
647.714	8418.18
647.907	8444.8
648.099	8391.55
648.292	8321.92
648.485	8266.63
648.678	8287.11
648.871	8354.69
649.064	8037.25
649.256	8248.19
649.449	7988.1
649.642	7938.95
649.835	7742.35
650.027	7988.1
650.22	7914.38
650.413	7701.39
650.605	7809.93
650.798	7902.09
650.991	7682.95
651.183	7699.34
651.376	7551.88
651.568	7500.69
651.761	7547.79
651.954	7453.58
652.146	7410.57
652.339	7422.86
652.531	7496.59
652.724	7170.96
652.916	7175.06
653.109	7154.58
653.301	7322.51
653.494	7125.91
653.686	7025.56
653.879	7119.76
654.071	6957.97
654.263	7078.8
654.456	6988.69
654.648	7197.59
654.84	6914.97
655.033	6837.14
655.225	6820.76
655.417	6869.91
655.61	6869.91
655.802	6734.75
655.994	6648.73
656.186	6853.53
656.379	6777.75
656.571	6667.16
656.763	6468.51
656.955	6519.71
657.148	6636.44
657.34	6517.66
657.532	6261.66
657.724	6425.5
657.916	6257.57
658.108	6273.95
658.3	6294.43
658.492	6355.87
658.684	6288.29
658.876	6183.84
659.068	6185.89
659.26	6204.32
659.452	6124.45
659.644	6173.6
659.836	5948.33
660.028	6235.04
660.22	5876.65
660.412	5993.38
660.604	5749.67
660.796	5968.8
660.988	5831.59
661.18	5682.09
661.372	5956.52
661.563	5809.06
661.755	5581.74
661.947	5634.99
662.139	5741.48
662.331	5651.37
662.522	5686.19
662.714	5553.07
662.906	5528.49
663.097	5653.42
663.289	5561.26
663.481	5626.79
663.673	5360.56
663.864	5401.52
664.056	5307.31
664.247	5436.33
664.439	5374.89
664.631	5313.45
664.822	5348.27
665.014	5335.98
665.205	5280.69
665.397	5243.82
665.588	5268.4
665.78	5067.7
665.971	5196.72
666.163	5247.92
666.354	5266.35
666.546	5110.71
666.737	4963.25
666.929	4971.44
667.12	4930.48
667.311	5082.03
667.503	5004.21
667.694	4817.85
667.885	4930.48
668.077	4793.27
668.268	4862.9
668.459	4998.07
668.651	4848.57
668.842	4783.03
669.033	4697.02
669.224	4740.02
669.416	4651.96
669.607	4639.67
669.798	4627.39
669.989	4711.35
670.18	4508.6
670.371	4613.05
670.563	4529.08
670.754	4488.12
670.945	4549.56
671.136	4447.16
671.327	4449.21
671.518	4582.33
671.709	4539.32
671.9	4424.64
672.091	4506.56
672.282	4438.97
672.473	4201.41
672.664	4408.25
672.855	4318.14
673.046	4340.67
673.237	4266.94
673.428	4139.97
673.619	4365.25
673.809	4240.32
674	4228.03
674.191	4215.74
674.382	3990.47
674.573	4307.9
674.764	4119.49
674.954	4162.5
675.145	4168.64
675.336	3998.66
675.527	4021.19
675.717	4115.39
675.908	3980.23
676.099	3914.69
676.289	4119.49
676.48	4027.33
676.671	3963.84
676.861	4068.29
677.052	3879.88
677.243	3967.94
677.433	3931.08
677.624	3912.64
677.814	3922.88
678.005	3869.64
678.195	3765.19
678.386	3812.29
678.576	3750.85
678.767	3810.25
678.957	3787.72
679.148	3675.08
679.338	3861.45
679.529	3728.33
679.719	3730.38
679.909	3722.18
680.1	3677.13
680.29	3716.04
680.481	3845.06
680.671	3767.24
680.861	3853.25
681.052	3718.09
681.242	3519.43
681.432	3787.72
681.622	3587.02
681.813	3726.28
682.003	3777.48
682.193	3525.58
682.383	3611.59
682.573	3718.09
682.764	3548.11
682.954	3621.83
683.144	3611.59
683.334	3443.66
683.524	3589.07
683.714	3642.31
683.904	3541.96
684.094	3484.62
684.284	3505.1
684.474	3529.67
684.664	3451.85
684.854	3546.06
685.044	3464.14
685.234	3333.07
685.424	3216.33
685.614	3324.88
685.804	3419.08
685.994	3382.22
686.184	3408.84
686.374	3218.38
686.564	3292.11
686.753	3308.49
686.943	3398.6
687.133	3376.08
687.323	3195.86
687.513	3328.97
687.702	3324.88
687.892	3185.62
688.082	3216.33
688.272	3306.45
688.461	3251.15
688.651	3331.02
688.841	3199.95
689.03	3197.9
689.22	3212.24
689.41	3066.83
689.599	3095.5
689.789	3163.09
689.979	3175.38
690.168	3097.55
690.358	3111.89
690.547	2997.2
690.737	3097.55
690.926	3083.22
691.116	3005.39
691.305	3038.16
691.495	3007.44
691.684	3001.3
691.874	3079.12
692.063	2935.76
692.252	2882.52
692.442	2976.72
692.631	2997.2
692.82	2905.04
693.01	2870.23
693.199	2890.71
693.388	2900.95
693.578	2931.67
693.767	2913.24
693.956	2874.32
694.146	2816.98
694.335	2784.21
694.524	2876.37
694.713	2880.47
694.902	2835.41
695.092	2810.84
695.281	2800.6
695.47	2712.53
695.659	2712.53
695.848	2808.79
696.037	2716.63
696.226	2800.6
696.415	2812.89
696.604	2722.77
696.793	2735.06
696.982	2757.59
697.171	2720.73
697.36	2696.15
697.549	2581.46
697.738	2663.38
697.927	2765.78
698.116	2624.47
698.305	2687.96
698.494	2714.58
698.683	2663.38
698.872	2692.05
699.061	2563.03
699.25	2649.05
699.438	2630.62
699.627	2644.95
699.816	2624.47
700.005	2558.94
700.193	2591.7
700.382	2675.67
700.571	2597.85
700.76	2575.32
700.948	2538.46
701.137	2530.27
701.326	2620.38
701.514	2505.69
701.703	2663.38
701.892	2499.55
702.08	2483.16
702.269	2513.88
702.457	2669.53
702.646	2464.73
702.834	2546.65
703.023	2571.22
703.212	2587.61
703.4	2466.78
703.589	2415.58
703.777	2452.44
703.965	2489.31
704.154	2464.73
704.342	2515.93
704.531	2415.58
704.719	2393.05
704.907	2517.98
705.096	2431.96
705.284	2221.02
705.472	2407.39
705.661	2407.39
705.849	2423.77
706.037	2423.77
706.226	2366.43
706.414	2378.72
706.602	2384.86
706.79	2497.5
706.979	2407.39
707.167	2243.55
707.355	2374.62
707.543	2440.15
707.731	2345.95
707.919	2294.75
708.107	2311.13
708.296	2270.17
708.484	2329.56
708.672	2374.62
708.86	2300.89
709.048	2382.81
709.236	2278.37
709.424	2264.03
709.612	2309.08
709.8	2296.8
709.988	2192.35
710.176	2290.65
710.364	2264.03
710.551	2241.5
710.739	2296.8
710.927	2227.17
711.115	2145.25
711.303	2317.28
711.491	2239.45
711.679	2155.49
711.866	2255.84
712.054	2190.3
712.242	2208.73
712.43	2188.25
712.617	2284.51
712.805	2145.25
712.993	2202.59
713.181	2202.59
713.368	2218.97
713.556	2059.23
713.744	2137.06
713.931	2178.01
714.119	2163.68
714.306	2094.05
714.494	2067.42
714.682	2055.14
714.869	2030.56
715.057	2067.42
715.244	2096.1
715.432	2155.49
715.619	2098.14
715.807	2079.71
715.994	2005.99
716.182	2042.85
716.369	2132.96
716.556	2079.71
716.744	1940.45
716.931	2014.18
717.119	2112.48
717.306	2063.33
717.493	2038.75
717.681	2075.62
717.868	1926.11
718.055	1973.22
718.242	1981.41
718.43	1944.55
718.617	1985.51
718.804	1999.84
718.991	1924.07
719.179	1909.73
719.366	1952.74
719.553	2051.04
719.74	2001.89
719.927	1868.77
720.114	1915.87
720.301	1956.83
720.488	1944.55
720.676	1924.07
720.863	1893.35
721.05	1993.7
721.237	1842.15
721.424	1891.3
721.611	1911.78
721.798	1858.53
721.985	1850.34
722.172	1799.14
722.358	1850.34
722.545	1797.09
722.732	1879.01
722.919	1891.3
723.106	1739.75
723.293	1836
723.48	1754.09
723.667	1788.9
723.853	1858.53
724.04	1817.57
724.227	1829.86
724.414	1678.31
724.6	1788.9
724.787	1762.28
724.974	1780.71
725.161	1811.43
725.347	1713.13
725.534	1768.42
725.72	1678.31
725.907	1815.52
726.094	1754.09
726.28	1717.22
726.467	1682.41
726.653	1666.02
726.84	1793
727.027	1854.44
727.213	1758.18
727.4	1672.17
727.586	1680.36
727.773	1719.27
727.959	1647.59
728.145	1784.8
728.332	1659.88
728.518	1686.5
728.705	1709.03
728.891	1659.88
729.077	1743.85
729.264	1706.98
729.45	1616.87
729.636	1647.59
729.823	1604.58
730.009	1637.35
730.195	1600.49
730.382	1616.87
730.568	1776.61
730.754	1590.25
730.94	1631.21
731.126	1620.97
731.313	1760.23
731.499	1557.48
731.685	1721.32
731.871	1686.5
732.057	1604.58
732.243	1715.17
732.429	1596.39
732.615	1612.78
732.801	1651.69
732.987	1489.9
733.173	1680.36
733.359	1592.3
733.545	1571.82
733.731	1610.73
733.917	1643.49
734.103	1584.1
734.289	1555.43
734.475	1559.53
734.661	1575.91
734.847	1498.09
735.033	1545.19
735.219	1504.23
735.404	1457.13
735.59	1491.95
735.776	1586.15
735.962	1584.1
736.148	1539.05
736.333	1575.91
736.519	1502.19
736.705	1371.12
736.89	1489.9
737.076	1520.62
737.262	1518.57
737.447	1483.75
737.633	1510.38
737.819	1412.07
738.004	1457.13
738.19	1440.75
738.375	1436.65
738.561	1518.57
738.747	1420.27
738.932	1340.4
739.118	1526.76
739.303	1426.41
739.489	1496.04
739.674	1387.5
739.859	1401.83
740.045	1440.75
740.23	1440.75
740.416	1342.44
740.601	1434.6
740.786	1414.12
740.972	1297.39
741.157	1338.35
741.342	1340.4
741.528	1391.59
741.713	1387.5
741.898	1391.59
742.084	1289.2
742.269	1285.1
742.454	1410.03
742.639	1367.02
742.824	1295.34
743.01	1303.53
743.195	1293.29
743.38	1276.91
743.565	1303.53
743.75	1188.85
743.935	1289.2
744.12	1197.04
744.305	1108.98
744.49	1303.53
744.675	1164.27
744.86	1272.81
745.045	1172.46
745.23	1207.28
745.415	1281
745.6	1227.76
745.785	1244.14
745.97	1256.43
746.155	1194.99
746.34	1190.89
746.525	1178.61
746.71	1211.37
746.895	1131.5
747.079	1197.04
747.264	1074.16
747.449	1121.26
747.634	1092.59
747.819	1162.22
748.003	1113.07
748.188	1123.31
748.373	1186.8
748.557	1176.56
748.742	1092.59
748.927	1117.17
749.111	1086.45
749.296	1141.74
749.481	1092.59
749.665	1076.21
749.85	1049.58
750.034	1063.92
750.219	1045.49
750.404	977.91
750.588	1080.3
750.773	945.14
750.957	1033.2
751.141	1121.26
751.326	1031.15
751.51	1031.15
751.695	1033.2
751.879	1074.16
752.064	967.67
752.248	961.52
752.432	1008.62
752.617	965.62
752.801	900.08
752.985	871.41
753.17	891.89
753.354	883.7
753.538	1033.2
753.722	908.27
753.907	973.81
754.091	879.6
754.275	961.52
754.459	924.66
754.643	852.98
754.828	797.68
755.012	895.99
755.196	791.54
755.38	861.17
755.564	795.64
755.748	932.85
755.932	836.6
756.116	844.79
756.3	871.41
756.484	777.2
756.668	873.46
756.852	793.59
757.036	742.39
757.22	781.3
757.404	769.01
757.588	877.55
757.772	752.63
757.956	781.3
758.14	797.68
758.323	826.36
758.507	799.73
758.691	703.48
758.875	756.72
759.059	752.63
759.242	674.81
759.426	654.33
759.61	762.87
759.794	769.01
759.977	754.68
760.161	814.07
760.345	726
760.528	828.4
760.712	707.57
760.895	707.57
761.079	711.67
761.263	769.01
761.446	658.42
761.63	629.75
761.813	773.11
761.997	637.94
762.18	717.81
762.364	697.33
762.547	709.62
762.731	750.58
762.914	711.67
763.098	670.71
763.281	664.57
763.464	678.9
763.648	662.52
763.831	680.95
764.015	644.09
764.198	648.18
764.381	656.37
764.564	584.7
764.748	609.27
764.931	615.41
765.114	646.13
765.297	582.65
765.481	662.52
765.664	652.28
765.847	674.81
766.03	705.53
766.213	687.09
766.397	650.23
766.58	613.37
766.763	609.27
766.946	535.54
767.129	629.75
767.312	568.31
767.495	654.33
767.678	596.98
767.861	578.55
768.044	609.27
768.227	596.98
768.41	580.6
768.593	668.66
768.776	523.26
768.959	586.74
769.142	596.98
769.324	533.5
769.507	572.41
769.69	588.79
769.873	633.85
770.056	613.37
770.239	541.69
770.421	547.83
770.604	523.26
770.787	605.17
770.97	531.45
771.152	558.07
771.335	592.89
771.518	547.83
771.7	556.02
771.883	656.37
772.066	539.64
772.248	558.07
772.431	625.65
772.613	646.13
772.796	433.15
772.978	570.36
773.161	494.58
773.343	515.06
773.526	588.79
773.708	531.45
773.891	459.77
774.073	547.83
774.256	474.1
774.438	486.39
774.621	525.3
774.803	465.91
774.985	453.63
775.168	515.06
775.35	412.67
775.532	588.79
775.715	400.38
775.897	494.58
776.079	412.67
776.261	459.77
776.444	367.61
776.626	459.77
776.808	490.49
776.99	453.63
777.173	449.53
777.355	453.63
777.537	412.67
777.719	363.51
777.901	424.95
778.083	367.61
778.265	443.39
778.447	427
778.629	453.63
778.811	484.34
778.993	457.72
779.175	424.95
779.357	388.09
779.539	408.57
779.721	408.57
779.903	457.72
780.085	361.47
780.267	410.62
780.449	437.24
780.631	400.38
780.812	420.86
780.994	386.04
781.176	416.76
781.358	416.76
781.54	396.28
781.721	492.54
781.903	345.08
782.085	367.61
782.267	361.47
782.448	381.95
782.63	351.23
782.812	363.51
782.993	353.27
783.175	338.94
783.357	365.56
783.538	293.88
783.72	345.08
783.901	273.4
784.083	295.93
784.264	328.7
784.446	287.74
784.627	336.89
784.809	408.57
784.99	306.17
785.172	371.71
785.353	269.31
785.535	334.84
785.716	293.88
785.897	318.46
786.079	269.31
786.26	257.02
786.441	394.23
786.623	271.36
786.804	228.35
786.985	334.84
787.167	226.3
787.348	287.74
787.529	254.97
787.71	355.32
787.891	252.92
788.073	287.74
788.254	293.88
788.435	383.99
788.616	277.5
788.797	234.49
788.978	289.79
789.159	285.69
789.34	293.88
789.522	242.68
789.703	244.73
789.884	285.69
790.065	228.35
790.246	312.32
790.427	261.12
790.607	263.16
790.788	304.12
790.969	240.64
791.15	285.69
791.331	220.16
791.512	216.06
791.693	203.77
791.874	312.32
792.054	289.79
792.235	248.83
792.416	171.01
792.597	226.3
792.778	146.43
792.958	261.12
793.139	261.12
793.32	179.2
793.5	195.58
793.681	285.69
793.862	230.4
794.042	183.29
794.223	183.29
794.404	209.92
794.584	164.86
794.765	230.4
794.945	224.25
795.126	220.16
795.306	156.67
795.487	244.73
795.667	164.86
795.848	220.16
796.028	89.09
796.209	222.2
796.389	168.96
796.57	232.44
796.75	168.96
796.93	263.16
797.111	246.78
797.291	150.53
797.471	252.92
797.652	197.63
797.832	164.86
798.012	199.68
798.192	158.72
798.373	142.33
798.553	238.59
798.733	203.77
798.913	209.92
799.093	74.75
799.274	152.57
799.454	254.97
799.634	195.58
799.814	232.44
799.994	228.35
800.174	216.06
800.354	164.86
800.534	152.57
800.714	195.58
800.894	64.51
801.074	224.25
801.254	195.58
801.434	156.67
801.614	138.24
801.794	152.57
801.974	699.38
802.154	175.1
802.334	183.29
802.514	113.66
802.693	205.82
802.873	115.71
803.053	246.78
803.233	236.54
803.413	134.14
803.592	150.53
803.772	158.72
803.952	134.14
804.131	168.96
804.311	164.86
804.491	175.1
804.67	162.81
804.85	144.38
805.03	132.09
805.209	146.43
805.389	171.01
805.568	130.05
805.748	185.34
805.928	64.51
806.107	93.18
806.287	248.83
806.466	117.76
806.646	91.13
806.825	117.76
807.004	105.47
807.184	89.09
807.363	119.81
807.543	91.13
807.722	150.53
807.901	121.85
808.081	80.89
808.26	181.25
808.439	150.53
808.619	60.42
808.798	58.37
808.977	97.28
809.156	115.71
809.336	179.2
809.515	138.24
809.694	113.66
809.873	148.48
810.052	136.19
810.231	189.44
810.411	123.9
810.59	130.05
810.769	87.04
810.948	107.52
811.127	60.42
811.306	111.61
811.485	144.38
811.664	150.53
811.843	84.99
812.022	130.05
812.201	93.18
812.38	89.09
812.559	109.57
812.737	228.35
812.916	-13.31
813.095	111.61
813.274	113.66
813.453	82.94
813.632	72.7
813.811	107.52
813.989	121.85
814.168	160.77
814.347	56.32
814.526	125.95
814.704	130.05
814.883	113.66
815.062	105.47
815.24	115.71
815.419	78.85
815.598	87.04
815.776	82.94
815.955	146.43
816.133	99.33
816.312	138.24
816.49	82.94
816.669	93.18
816.847	119.81
817.026	123.9
817.204	52.22
817.383	93.18
817.561	46.08
817.74	189.44
817.918	66.56
818.097	44.03
818.275	99.33
818.453	154.62
818.632	93.18
818.81	56.32
818.988	44.03
819.167	97.28
819.345	101.37
819.523	115.71
819.701	89.09
819.879	134.14
820.058	136.19
820.236	56.32
820.414	66.56
820.592	84.99
820.77	60.42
820.948	89.09
821.127	144.38
821.305	130.05
821.483	72.7
821.661	134.14
821.839	33.79
822.017	95.23
822.195	3.07
822.373	58.37
822.551	62.46
822.729	130.05
822.907	97.28
823.085	64.51
823.262	64.51
823.44	19.46
823.618	25.6
823.796	48.13
823.974	76.8
824.152	123.9
824.329	78.85
824.507	72.7
824.685	27.65
824.863	56.32
825.04	48.13
825.218	64.51
825.396	68.61
825.574	35.84
825.751	72.7
825.929	132.09
826.107	44.03
826.284	17.41
826.462	82.94
826.639	46.08
826.817	84.99
826.994	64.51
827.172	48.13
827.349	66.56
827.527	64.51
827.704	23.55
827.882	91.13
828.059	72.7
828.237	-37.89
828.414	35.84
828.591	23.55
828.769	105.47
828.946	74.75
829.124	41.98
829.301	56.32
829.478	76.8
829.655	138.24
829.833	95.23
830.01	27.65
830.187	50.18
830.364	25.6
830.542	21.5
830.719	144.38
830.896	48.13
831.073	54.27
831.25	44.03
831.427	107.52
831.604	76.8
831.782	27.65
831.959	68.61
832.136	27.65
832.313	99.33
832.49	66.56
832.667	41.98
832.844	56.32
833.021	115.71
833.198	25.6
833.374	89.09
833.551	-13.31
833.728	72.7
833.905	93.18
834.082	39.94
834.259	89.09
834.436	103.42
834.612	89.09
834.789	80.89
834.966	97.28
835.143	76.8
835.319	23.55
835.496	-9.22
835.673	109.57
835.85	33.79
836.026	56.32
836.203	87.04
836.38	58.37
836.556	-5.12
836.733	-33.79
836.909	44.03
837.086	91.13
837.262	80.89
837.439	17.41
837.616	27.65
837.792	35.84
837.968	66.56
838.145	-50.18
838.321	41.98
838.498	39.94
838.674	41.98
838.851	48.13
839.027	41.98
839.203	23.55
839.38	103.42
839.556	5.12
839.732	109.57
839.909	-37.89
840.085	48.13
840.261	-21.5
840.437	87.04
840.614	35.84
840.79	66.56
840.966	72.7
841.142	15.36
841.318	31.74
841.494	-5.12
841.671	48.13
841.847	29.7
842.023	-17.41
842.199	68.61
842.375	60.42
842.551	-74.75
842.727	58.37
842.903	50.18
843.079	64.51
843.255	132.09
843.431	44.03
843.607	60.42
843.783	19.46
843.959	64.51
844.134	7.17
844.31	48.13
844.486	58.37
844.662	19.46
844.838	7.17
845.013	44.03
845.189	89.09
845.365	39.94
845.541	101.37
845.716	-1.02
845.892	74.75
846.068	3.07
846.244	35.84
846.419	13.31
846.595	-9.22
846.77	33.79
846.946	33.79
847.122	11.26
847.297	-17.41
847.473	68.61
847.648	-5.12
847.824	-58.37
847.999	7.17
848.175	-13.31
848.35	21.5
848.526	15.36
848.701	66.56
848.876	44.03
849.052	87.04
849.227	15.36
849.403	-35.84
849.578	70.65
849.753	11.26
849.929	66.56
850.104	-1.02
850.279	-23.55
850.454	80.89
850.63	37.89
850.805	25.6
850.98	31.74
851.155	9.22
851.33	-21.5
851.505	9.22
851.681	39.94
851.856	82.94
852.031	39.94
852.206	19.46
852.381	84.99
852.556	52.22
852.731	44.03
852.906	31.74
853.081	48.13
853.256	-39.94
853.431	27.65
853.606	39.94
853.781	15.36
853.956	-3.07
854.131	23.55
854.305	5.12
854.48	50.18
854.655	91.13
854.83	-25.6
855.005	56.32
855.18	-54.27
855.354	17.41
855.529	76.8
855.704	-25.6
855.879	11.26
856.053	9.22
856.228	35.84
856.403	-25.6
856.577	-9.22
856.752	-9.22
856.926	82.94
857.101	101.37
857.276	-33.79
857.45	31.74
857.625	33.79
857.799	46.08
857.974	-37.89
858.148	-33.79
858.323	23.55
858.497	33.79
858.672	39.94
858.846	25.6
859.02	39.94
859.195	-37.89
859.369	11.26
859.543	-5.12
859.718	33.79
859.892	44.03
860.066	11.26
860.241	-87.04
860.415	50.18
860.589	82.94
860.763	-1.02
860.938	3.07
861.112	35.84
861.286	-25.6
861.46	17.41
861.634	25.6
861.808	66.56
861.982	-64.51
862.157	-1.02
862.331	31.74
862.505	33.79
862.679	89.09
862.853	-11.26
863.027	11.26
863.201	58.37
863.375	-37.89
863.549	23.55
863.722	15.36
863.896	64.51
864.07	27.65
864.244	15.36
864.418	23.55
864.592	68.61
864.766	-41.98
864.939	107.52
865.113	-5.12
865.287	19.46
865.461	-82.94
865.634	3.07
865.808	48.13
865.982	-7.17
866.156	-54.27
866.329	-25.6
866.503	31.74
866.676	-1.02
866.85	48.13
867.024	48.13
867.197	15.36
867.371	23.55
867.544	-70.65
867.718	-17.41
867.891	121.85
868.065	-91.13
868.238	23.55
868.412	60.42
868.585	46.08
868.759	39.94
868.932	23.55
869.105	-58.37
869.279	39.94
869.452	-64.51
869.625	64.51
869.799	1.02
869.972	19.46
870.145	21.5
870.319	-9.22
870.492	-21.5
870.665	46.08
870.838	-64.51
871.011	-44.03
871.185	27.65
871.358	91.13
871.531	68.61
871.704	-58.37
871.877	-41.98
872.05	17.41
872.223	-64.51
872.396	19.46
872.569	-39.94
872.742	-23.55
872.915	-23.55
873.088	-5.12
873.261	7.17
873.434	33.79
873.607	54.27
873.78	-5.12
873.953	-15.36
874.126	-13.31
874.299	-25.6
874.471	-44.03
874.644	23.55
874.817	39.94
874.99	23.55
875.163	-17.41
875.335	76.8
875.508	60.42
875.681	68.61
875.853	31.74
876.026	-1.02
876.199	29.7
876.371	13.31
876.544	-13.31
876.717	15.36
876.889	-7.17
877.062	39.94
877.234	33.79
877.407	1.02
877.579	-25.6
877.752	66.56
877.924	11.26
878.097	60.42
878.269	-17.41
878.442	113.66
878.614	64.51
878.786	70.65
878.959	-11.26
879.131	-15.36
879.303	-7.17
879.476	25.6
879.648	-70.65
879.82	31.74
879.993	7.17
880.165	-9.22
880.337	-64.51
880.509	91.13
880.681	-33.79
880.854	23.55
881.026	35.84
881.198	35.84
881.37	-7.17
881.542	58.37
881.714	-33.79
881.886	25.6
882.058	-5.12
882.23	64.51
882.402	-13.31
882.574	-48.13
882.746	7.17
882.918	41.98
883.09	23.55
883.262	-70.65
883.434	7.17
883.606	97.28
883.778	13.31
883.95	3.07
884.122	35.84
884.293	-25.6
884.465	1.02
884.637	23.55
884.809	-9.22
884.98	7.17
885.152	11.26
885.324	66.56
885.496	7.17
885.667	-17.41
885.839	-54.27
886.011	99.33
886.182	56.32
886.354	7.17
886.525	27.65
886.697	66.56
886.869	-9.22
887.04	-9.22
887.212	13.31
887.383	123.9
887.555	-1.02
887.726	56.32
887.897	9.22
888.069	72.7
888.24	17.41
888.412	-15.36
888.583	-62.46
888.754	1.02
888.926	-27.65
889.097	-1.02
889.268	33.79
889.44	91.13
889.611	1.02
889.782	-21.5
889.953	7.17
890.125	-33.79
890.296	-33.79
890.467	35.84
890.638	-52.22
890.809	58.37
890.98	-54.27
891.151	7.17
891.323	48.13
891.494	-5.12
891.665	-19.46
891.836	23.55
892.007	84.99
892.178	64.51
892.349	-33.79
892.52	27.65
892.691	48.13
892.862	-39.94
893.032	-15.36
893.203	17.41
893.374	-7.17
893.545	-25.6
893.716	-25.6
893.887	58.37
894.057	7.17
894.228	-15.36
894.399	-31.74
894.57	5.12
894.74	3.07
894.911	33.79
895.082	-58.37
895.253	68.61
895.423	-37.89
895.594	-9.22
895.764	48.13
895.935	-33.79
896.106	-33.79
896.276	-74.75
896.447	-17.41
896.617	1.02
896.788	-23.55
896.958	-9.22
897.129	-37.89
897.299	11.26
897.47	19.46
897.64	54.27
897.81	-1.02
897.981	-37.89
898.151	-31.74
898.322	-33.79
898.492	31.74
898.662	-48.13
898.832	62.46
899.003	-17.41
899.173	39.94
899.343	-3.07
899.513	58.37
