Data from USB4F104151__229__14-21-49-738.txt Node

Date: Thu Mar 13 14:21:49 EDT 2025
User: louis
Spectrometer: USB4F10415
Trigger mode: 4
Integration Time (sec): 2.000000E-2
Scans to average: 1
Electric dark correction enabled: true
Nonlinearity correction enabled: false
Boxcar width: 0
XAxis mode: Wavelengths
Number of Pixels in Spectrum: 3648
>>>>>Begin Spectral Data<<<<<
178.204	-52.22
178.424	-52.22
178.644	-52.22
178.864	-160.77
179.084	-171.01
179.304	31.74
179.524	-3.07
179.744	-46.08
179.964	35.84
180.184	21.5
180.404	70.65
180.624	9.22
180.844	-17.41
181.064	-64.51
181.283	5.12
181.503	-60.42
181.723	17.41
181.943	-56.32
182.163	31.74
182.383	-44.03
182.602	19.46
182.822	50.18
183.042	62.46
183.262	-31.74
183.482	44.03
183.701	15.36
183.921	21.5
184.141	46.08
184.361	68.61
184.58	35.84
184.8	-7.17
185.02	-21.5
185.239	58.37
185.459	1.02
185.679	-33.79
185.898	13.31
186.118	-23.55
186.338	3.07
186.557	46.08
186.777	-19.46
186.997	25.6
187.216	15.36
187.436	80.89
187.655	-3.07
187.875	70.65
188.095	-99.33
188.314	91.13
188.534	23.55
188.753	-11.26
188.973	-56.32
189.192	60.42
189.412	-15.36
189.631	-19.46
189.851	33.79
190.07	50.18
190.29	-11.26
190.509	23.55
190.729	13.31
190.948	119.81
191.168	125.95
191.387	29.7
191.607	-23.55
191.826	31.74
192.045	41.98
192.265	70.65
192.484	29.7
192.704	39.94
192.923	66.56
193.142	15.36
193.362	84.99
193.581	-1.02
193.8	74.75
194.02	97.28
194.239	29.7
194.458	-7.17
194.678	33.79
194.897	52.22
195.116	-50.18
195.335	13.31
195.555	3.07
195.774	-15.36
195.993	7.17
196.212	23.55
196.432	62.46
196.651	72.7
196.87	-3.07
197.089	46.08
197.308	-50.18
197.528	21.5
197.747	17.41
197.966	-54.27
198.185	74.75
198.404	23.55
198.623	29.7
198.842	64.51
199.062	72.7
199.281	17.41
199.5	-41.98
199.719	17.41
199.938	27.65
200.157	84.99
200.376	27.65
200.595	39.94
200.814	62.46
201.033	37.89
201.252	64.51
201.471	78.85
201.69	56.32
201.909	21.5
202.128	15.36
202.347	9.22
202.566	-48.13
202.785	23.55
203.004	-35.84
203.223	68.61
203.442	50.18
203.661	9.22
203.879	68.61
204.098	87.04
204.317	-27.65
204.536	91.13
204.755	46.08
204.974	25.6
205.193	-15.36
205.411	136.19
205.63	41.98
205.849	13.31
206.068	5.12
206.287	-7.17
206.505	89.09
206.724	23.55
206.943	37.89
207.162	-35.84
207.381	-25.6
207.599	21.5
207.818	1.02
208.037	9.22
208.255	17.41
208.474	7.17
208.693	-9.22
208.911	62.46
209.13	13.31
209.349	39.94
209.567	54.27
209.786	31.74
210.005	-11.26
210.223	15.36
210.442	-31.74
210.661	5.12
210.879	13.31
211.098	-1.02
211.316	-39.94
211.535	29.7
211.753	-17.41
211.972	-35.84
212.191	-35.84
212.409	13.31
212.628	-3.07
212.846	-19.46
213.065	48.13
213.283	50.18
213.502	41.98
213.72	5.12
213.938	46.08
214.157	48.13
214.375	44.03
214.594	66.56
214.812	15.36
215.031	37.89
215.249	-7.17
215.467	-33.79
215.686	60.42
215.904	78.85
216.122	27.65
216.341	82.94
216.559	-23.55
216.778	68.61
216.996	46.08
217.214	91.13
217.432	-60.42
217.651	74.75
217.869	87.04
218.087	-9.22
218.306	41.98
218.524	76.8
218.742	-31.74
218.96	-3.07
219.179	29.7
219.397	19.46
219.615	58.37
219.833	13.31
220.051	23.55
220.27	60.42
220.488	-37.89
220.706	46.08
220.924	-27.65
221.142	21.5
221.36	70.65
221.578	-9.22
221.796	46.08
222.015	46.08
222.233	17.41
222.451	87.04
222.669	46.08
222.887	87.04
223.105	-25.6
223.323	-41.98
223.541	-39.94
223.759	29.7
223.977	44.03
224.195	68.61
224.413	21.5
224.631	46.08
224.849	5.12
225.067	138.24
225.285	17.41
225.503	21.5
225.721	-7.17
225.939	95.23
226.157	-11.26
226.375	-15.36
226.592	9.22
226.81	89.09
227.028	72.7
227.246	74.75
227.464	15.36
227.682	103.42
227.9	78.85
228.117	52.22
228.335	15.36
228.553	-25.6
228.771	11.26
228.989	78.85
229.206	13.31
229.424	-9.22
229.642	-37.89
229.86	-54.27
230.077	-17.41
230.295	-7.17
230.513	41.98
230.731	29.7
230.948	25.6
231.166	-15.36
231.384	-3.07
231.601	-44.03
231.819	44.03
232.037	46.08
232.254	27.65
232.472	-41.98
232.689	60.42
232.907	31.74
233.125	-19.46
233.342	33.79
233.56	-11.26
233.777	-39.94
233.995	-25.6
234.213	93.18
234.43	13.31
234.648	21.5
234.865	-19.46
235.083	-3.07
235.3	7.17
235.518	-33.79
235.735	62.46
235.953	95.23
236.17	-48.13
236.388	117.76
236.605	-9.22
236.822	103.42
237.04	5.12
237.257	99.33
237.475	-27.65
237.692	-33.79
237.909	21.5
238.127	72.7
238.344	80.89
238.562	41.98
238.779	21.5
238.996	-60.42
239.214	15.36
239.431	95.23
239.648	-27.65
239.865	25.6
240.083	72.7
240.3	62.46
240.517	9.22
240.735	-7.17
240.952	-1.02
241.169	66.56
241.386	37.89
241.603	-7.17
241.821	-33.79
242.038	62.46
242.255	70.65
242.472	13.31
242.689	-19.46
242.907	17.41
243.124	-56.32
243.341	-11.26
243.558	15.36
243.775	78.85
243.992	-3.07
244.209	23.55
244.426	23.55
244.643	64.51
244.86	21.5
245.078	-7.17
245.295	11.26
245.512	23.55
245.729	-35.84
245.946	78.85
246.163	23.55
246.38	1.02
246.597	62.46
246.814	13.31
247.031	54.27
247.248	15.36
247.464	5.12
247.681	-31.74
247.898	-27.65
248.115	-27.65
248.332	-46.08
248.549	70.65
248.766	156.67
248.983	9.22
249.2	35.84
249.417	7.17
249.633	46.08
249.85	105.47
250.067	31.74
250.284	21.5
250.501	15.36
250.717	21.5
250.934	-3.07
251.151	31.74
251.368	21.5
251.585	29.7
251.801	54.27
252.018	17.41
252.235	54.27
252.451	54.27
252.668	-3.07
252.885	54.27
253.102	11.26
253.318	-17.41
253.535	-15.36
253.752	15.36
253.968	13.31
254.185	-35.84
254.401	-21.5
254.618	-27.65
254.835	-25.6
255.051	105.47
255.268	-64.51
255.484	39.94
255.701	19.46
255.917	87.04
256.134	33.79
256.351	70.65
256.567	21.5
256.784	41.98
257	-39.94
257.217	29.7
257.433	17.41
257.65	64.51
257.866	17.41
258.082	-58.37
258.299	7.17
258.515	-1.02
258.732	56.32
258.948	35.84
259.165	-35.84
259.381	33.79
259.597	21.5
259.814	7.17
260.03	64.51
260.246	84.99
260.463	3.07
260.679	136.19
260.895	1.02
261.112	7.17
261.328	15.36
261.544	5.12
261.761	89.09
261.977	3.07
262.193	48.13
262.409	101.37
262.626	37.89
262.842	33.79
263.058	1.02
263.274	-3.07
263.49	5.12
263.707	58.37
263.923	1.02
264.139	-17.41
264.355	35.84
264.571	101.37
264.787	95.23
265.004	58.37
265.22	-15.36
265.436	29.7
265.652	-33.79
265.868	39.94
266.084	7.17
266.3	3.07
266.516	-9.22
266.732	5.12
266.948	95.23
267.164	17.41
267.38	56.32
267.596	7.17
267.812	-21.5
268.028	72.7
268.244	-11.26
268.46	15.36
268.676	5.12
268.892	35.84
269.108	-50.18
269.324	-91.13
269.54	15.36
269.756	66.56
269.972	-48.13
270.188	9.22
270.403	-68.61
270.619	21.5
270.835	33.79
271.051	25.6
271.267	-44.03
271.483	60.42
271.698	15.36
271.914	-50.18
272.13	-13.31
272.346	19.46
272.562	5.12
272.777	78.85
272.993	-41.98
273.209	-41.98
273.425	7.17
273.64	-11.26
273.856	46.08
274.072	7.17
274.287	72.7
274.503	48.13
274.719	62.46
274.934	19.46
275.15	31.74
275.366	9.22
275.581	-39.94
275.797	29.7
276.012	48.13
276.228	91.13
276.444	44.03
276.659	13.31
276.875	23.55
277.09	9.22
277.306	-13.31
277.521	13.31
277.737	74.75
277.952	27.65
278.168	-1.02
278.383	80.89
278.599	-17.41
278.814	15.36
279.03	46.08
279.245	76.8
279.461	7.17
279.676	29.7
279.892	-27.65
280.107	54.27
280.322	54.27
280.538	5.12
280.753	21.5
280.969	-1.02
281.184	-7.17
281.399	48.13
281.615	-1.02
281.83	70.65
282.045	7.17
282.26	-27.65
282.476	13.31
282.691	9.22
282.906	41.98
283.122	13.31
283.337	56.32
283.552	37.89
283.767	-46.08
283.983	-29.7
284.198	91.13
284.413	-19.46
284.628	-25.6
284.843	-11.26
285.058	27.65
285.274	25.6
285.489	-25.6
285.704	70.65
285.919	25.6
286.134	25.6
286.349	13.31
286.564	46.08
286.779	60.42
286.995	-48.13
287.21	17.41
287.425	3.07
287.64	25.6
287.855	-29.7
288.07	-27.65
288.285	101.37
288.5	-7.17
288.715	103.42
288.93	-3.07
289.145	25.6
289.36	64.51
289.575	-15.36
289.79	58.37
290.004	-7.17
290.219	70.65
290.434	13.31
290.649	115.71
290.864	17.41
291.079	25.6
291.294	29.7
291.509	37.89
291.724	31.74
291.938	-48.13
292.153	-9.22
292.368	-35.84
292.583	64.51
292.798	140.29
293.012	-19.46
293.227	-25.6
293.442	23.55
293.657	41.98
293.871	72.7
294.086	19.46
294.301	91.13
294.516	-7.17
294.73	87.04
294.945	-72.7
295.16	-58.37
295.374	5.12
295.589	87.04
295.804	25.6
296.018	70.65
296.233	103.42
296.447	7.17
296.662	9.22
296.877	39.94
297.091	23.55
297.306	5.12
297.52	50.18
297.735	54.27
297.949	-44.03
298.164	9.22
298.378	-1.02
298.593	7.17
298.807	-29.7
299.022	-21.5
299.236	76.8
299.451	21.5
299.665	13.31
299.88	35.84
300.094	-21.5
300.309	13.31
300.523	50.18
300.737	23.55
300.952	25.6
301.166	1.02
301.381	-3.07
301.595	-1.02
301.809	37.89
302.024	3.07
302.238	29.7
302.452	62.46
302.667	25.6
302.881	89.09
303.095	95.23
303.309	13.31
303.524	68.61
303.738	-72.7
303.952	17.41
304.166	13.31
304.381	29.7
304.595	29.7
304.809	-15.36
305.023	33.79
305.237	37.89
305.452	41.98
305.666	48.13
305.88	29.7
306.094	-3.07
306.308	21.5
306.522	60.42
306.736	89.09
306.95	46.08
307.164	17.41
307.379	-1.02
307.593	74.75
307.807	21.5
308.021	19.46
308.235	31.74
308.449	25.6
308.663	-5.12
308.877	54.27
309.091	21.5
309.305	7.17
309.519	5.12
309.733	78.85
309.947	-11.26
310.161	70.65
310.374	52.22
310.588	132.09
310.802	-19.46
311.016	11.26
311.23	31.74
311.444	-11.26
311.658	62.46
311.872	95.23
312.085	46.08
312.299	39.94
312.513	56.32
312.727	-25.6
312.941	7.17
313.154	87.04
313.368	11.26
313.582	50.18
313.796	80.89
314.009	-66.56
314.223	56.32
314.437	105.47
314.651	48.13
314.864	-11.26
315.078	60.42
315.292	17.41
315.505	46.08
315.719	48.13
315.933	-11.26
316.146	23.55
316.36	-35.84
316.573	54.27
316.787	80.89
317.001	50.18
317.214	21.5
317.428	62.46
317.641	-52.22
317.855	15.36
318.068	21.5
318.282	54.27
318.495	144.38
318.709	111.61
318.922	7.17
319.136	31.74
319.349	23.55
319.563	-11.26
319.776	29.7
319.99	-13.31
320.203	17.41
320.417	-7.17
320.63	66.56
320.843	181.25
321.057	64.51
321.27	-25.6
321.483	7.17
321.697	35.84
321.91	-15.36
322.124	-44.03
322.337	-35.84
322.55	-25.6
322.763	7.17
322.977	19.46
323.19	31.74
323.403	-19.46
323.617	60.42
323.83	9.22
324.043	-19.46
324.256	-1.02
324.469	-56.32
324.683	5.12
324.896	31.74
325.109	115.71
325.322	5.12
325.535	23.55
325.748	33.79
325.962	44.03
326.175	29.7
326.388	23.55
326.601	46.08
326.814	5.12
327.027	15.36
327.24	-15.36
327.453	-48.13
327.666	13.31
327.879	-3.07
328.092	48.13
328.305	-15.36
328.518	13.31
328.731	54.27
328.944	5.12
329.157	13.31
329.37	27.65
329.583	11.26
329.796	78.85
330.009	13.31
330.222	50.18
330.435	60.42
330.648	-1.02
330.861	7.17
331.073	29.7
331.286	37.89
331.499	70.65
331.712	-41.98
331.925	74.75
332.138	17.41
332.35	11.26
332.563	-27.65
332.776	97.28
332.989	-1.02
333.202	111.61
333.414	39.94
333.627	19.46
333.84	37.89
334.053	62.46
334.265	111.61
334.478	54.27
334.691	-9.22
334.903	54.27
335.116	-19.46
335.329	39.94
335.541	-3.07
335.754	64.51
335.966	50.18
336.179	48.13
336.392	66.56
336.604	9.22
336.817	5.12
337.029	46.08
337.242	-3.07
337.454	15.36
337.667	-29.7
337.88	17.41
338.092	31.74
338.305	1.02
338.517	-46.08
338.729	33.79
338.942	48.13
339.154	15.36
339.367	39.94
339.579	7.17
339.792	-82.94
340.004	23.55
340.217	56.32
340.429	7.17
340.641	29.7
340.854	-35.84
341.066	113.66
341.278	128
341.491	74.75
341.703	-3.07
341.915	95.23
342.128	74.75
342.34	1.02
342.552	-25.6
342.764	62.46
342.977	50.18
343.189	-31.74
343.401	35.84
343.613	50.18
343.826	64.51
344.038	29.7
344.25	99.33
344.462	29.7
344.674	37.89
344.886	74.75
345.099	140.29
345.311	103.42
345.523	68.61
345.735	31.74
345.947	39.94
346.159	17.41
346.371	-25.6
346.583	13.31
346.795	134.14
347.007	35.84
347.219	11.26
347.431	15.36
347.643	107.52
347.855	-17.41
348.067	41.98
348.279	31.74
348.491	-23.55
348.703	56.32
348.915	-19.46
349.127	31.74
349.339	-11.26
349.551	87.04
349.763	41.98
349.975	64.51
350.187	113.66
350.399	17.41
350.61	19.46
350.822	111.61
351.034	70.65
351.246	91.13
351.458	31.74
351.669	17.41
351.881	70.65
352.093	48.13
352.305	44.03
352.517	39.94
352.728	46.08
352.94	13.31
353.152	76.8
353.363	48.13
353.575	31.74
353.787	80.89
353.999	46.08
354.21	37.89
354.422	-27.65
354.633	17.41
354.845	-3.07
355.057	-9.22
355.268	56.32
355.48	84.99
355.692	-27.65
355.903	80.89
356.115	97.28
356.326	-58.37
356.538	70.65
356.749	21.5
356.961	93.18
357.172	91.13
357.384	31.74
357.595	78.85
357.807	107.52
358.018	15.36
358.23	80.89
358.441	-9.22
358.653	31.74
358.864	115.71
359.075	66.56
359.287	7.17
359.498	78.85
359.709	5.12
359.921	48.13
360.132	29.7
360.344	25.6
360.555	37.89
360.766	21.5
360.977	101.37
361.189	66.56
361.4	48.13
361.611	-39.94
361.823	7.17
362.034	66.56
362.245	46.08
362.456	-62.46
362.667	29.7
362.879	5.12
363.09	-9.22
363.301	56.32
363.512	13.31
363.723	66.56
363.935	-9.22
364.146	78.85
364.357	48.13
364.568	62.46
364.779	13.31
364.99	105.47
365.201	37.89
365.412	17.41
365.623	15.36
365.834	99.33
366.045	56.32
366.256	72.7
366.467	41.98
366.678	21.5
366.889	11.26
367.1	15.36
367.311	95.23
367.522	54.27
367.733	-3.07
367.944	70.65
368.155	44.03
368.366	29.7
368.577	66.56
368.788	21.5
368.999	54.27
369.209	50.18
369.42	13.31
369.631	25.6
369.842	56.32
370.053	21.5
370.264	-17.41
370.474	-21.5
370.685	54.27
370.896	64.51
371.107	37.89
371.317	54.27
371.528	-13.31
371.739	25.6
371.95	37.89
372.16	154.62
372.371	50.18
372.582	-35.84
372.792	-1.02
373.003	50.18
373.214	29.7
373.424	5.12
373.635	41.98
373.846	60.42
374.056	25.6
374.267	89.09
374.477	64.51
374.688	35.84
374.898	95.23
375.109	-7.17
375.319	23.55
375.53	48.13
375.74	25.6
375.951	46.08
376.161	66.56
376.372	89.09
376.582	-1.02
376.793	76.8
377.003	-3.07
377.214	119.81
377.424	64.51
377.635	78.85
377.845	-27.65
378.055	95.23
378.266	33.79
378.476	-3.07
378.686	35.84
378.897	82.94
379.107	54.27
379.317	-9.22
379.528	82.94
379.738	56.32
379.948	15.36
380.158	78.85
380.369	66.56
380.579	23.55
380.789	64.51
380.999	113.66
381.21	78.85
381.42	58.37
381.63	25.6
381.84	64.51
382.05	107.52
382.261	-9.22
382.471	-1.02
382.681	46.08
382.891	121.85
383.101	103.42
383.311	3.07
383.521	54.27
383.731	41.98
383.941	58.37
384.151	84.99
384.361	39.94
384.571	87.04
384.781	74.75
384.991	82.94
385.201	70.65
385.411	39.94
385.621	15.36
385.831	70.65
386.041	3.07
386.251	54.27
386.461	-11.26
386.671	113.66
386.881	46.08
387.091	62.46
387.301	105.47
387.511	39.94
387.72	54.27
387.93	66.56
388.14	23.55
388.35	82.94
388.56	84.99
388.769	29.7
388.979	123.9
389.189	19.46
389.399	35.84
389.609	97.28
389.818	-15.36
390.028	41.98
390.238	25.6
390.447	-35.84
390.657	33.79
390.867	33.79
391.076	78.85
391.286	48.13
391.496	48.13
391.705	46.08
391.915	154.62
392.125	62.46
392.334	93.18
392.544	56.32
392.753	78.85
392.963	37.89
393.172	95.23
393.382	-15.36
393.591	87.04
393.801	-35.84
394.01	144.38
394.22	-27.65
394.429	89.09
394.639	56.32
394.848	74.75
395.058	117.76
395.267	103.42
395.477	23.55
395.686	132.09
395.895	121.85
396.105	56.32
396.314	101.37
396.524	78.85
396.733	70.65
396.942	48.13
397.152	128
397.361	209.92
397.57	29.7
397.78	62.46
397.989	107.52
398.198	144.38
398.407	37.89
398.617	95.23
398.826	93.18
399.035	121.85
399.244	173.05
399.453	70.65
399.663	84.99
399.872	119.81
400.081	97.28
400.29	74.75
400.499	46.08
400.708	152.57
400.917	113.66
401.127	87.04
401.336	130.05
401.545	179.2
401.754	111.61
401.963	226.3
402.172	152.57
402.381	128
402.59	111.61
402.799	91.13
403.008	132.09
403.217	113.66
403.426	140.29
403.635	52.22
403.844	113.66
404.053	162.81
404.262	70.65
404.471	179.2
404.68	146.43
404.888	179.2
405.097	46.08
405.306	99.33
405.515	199.68
405.724	136.19
405.933	259.07
406.142	228.35
406.35	193.53
406.559	146.43
406.768	128
406.977	234.49
407.185	211.96
407.394	211.96
407.603	113.66
407.812	191.49
408.02	236.54
408.229	238.59
408.438	242.68
408.646	265.21
408.855	252.92
409.064	252.92
409.272	277.5
409.481	297.98
409.69	234.49
409.898	259.07
410.107	185.34
410.315	349.18
410.524	316.41
410.733	373.75
410.941	312.32
411.15	383.99
411.358	392.19
411.567	388.09
411.775	363.51
411.984	394.23
412.192	439.29
412.401	435.19
412.609	492.54
412.818	521.21
413.026	564.22
413.234	525.3
413.443	451.58
413.651	517.11
413.86	564.22
414.068	639.99
414.276	683
414.485	588.79
414.693	693.24
414.901	711.67
415.11	709.62
415.318	726
415.526	744.44
415.734	826.36
415.943	777.2
416.151	840.69
416.359	910.32
416.567	898.03
416.776	926.71
416.984	807.92
417.192	977.91
417.4	996.34
417.608	984.05
417.817	1108.98
418.025	1086.45
418.233	1162.22
418.441	1186.8
418.649	1129.45
418.857	1250.28
419.065	1364.97
419.273	1297.39
419.481	1344.49
419.689	1496.04
419.897	1422.31
420.105	1483.75
420.313	1598.44
420.521	1596.39
420.729	1631.21
420.937	1684.45
421.145	1815.52
421.353	1827.81
421.561	1973.22
421.769	1944.55
421.977	2077.66
422.185	2098.14
422.393	2157.54
422.601	2350.04
422.809	2358.24
423.017	2307.04
423.224	2388.96
423.432	2515.93
423.64	2536.41
423.848	2741.21
424.056	2548.7
424.263	2886.61
424.471	2800.6
424.679	2855.89
424.887	3034.07
425.094	3208.14
425.302	3126.22
425.51	3199.95
425.718	3347.4
425.925	3490.76
426.133	3535.82
426.341	3707.85
426.548	3978.18
426.756	3972.04
426.964	4043.71
427.171	4203.46
427.379	4363.2
427.586	4400.06
427.794	4543.42
428.001	4688.82
428.209	4955.06
428.417	4789.17
428.624	5190.58
428.832	5075.89
429.039	4967.35
429.247	5026.74
429.454	5604.27
429.662	5899.17
429.869	5639.08
430.076	5907.37
430.284	5823.4
430.491	6149.03
430.699	6550.43
430.906	6448.03
431.114	6411.17
431.321	6912.92
431.528	6843.29
431.736	7189.39
431.943	7760.78
432.15	7492.49
432.358	7574.41
432.565	7926.66
432.772	7979.91
432.979	8156.04
433.187	8387.46
433.394	8436.61
433.601	9061.24
433.808	8977.27
434.016	9022.33
434.223	9374.58
434.43	9802.6
434.637	9749.36
434.844	10341.22
435.052	10548.06
435.259	10388.32
435.466	10558.3
435.673	10390.37
435.88	11109.21
436.087	11670.35
436.294	11744.08
436.501	11678.54
436.708	11680.59
436.915	12010.31
437.122	12901.18
437.329	12493.63
437.537	12960.57
437.743	13361.97
437.95	13026.11
438.157	14050.09
438.364	14238.5
438.571	14152.49
438.778	14545.7
438.985	15713.04
439.192	14936.86
439.399	15633.17
439.606	15086.36
439.813	16030.48
440.02	16694.02
440.227	16612.1
440.433	16626.43
440.64	16966.4
440.847	17079.04
441.054	17373.94
441.261	18201.32
441.467	18100.97
441.674	18719.46
441.881	19331.8
442.088	19360.47
442.294	18877.15
442.501	19536.6
442.708	19903.18
442.914	20531.91
443.121	21672.63
443.328	21058.24
443.534	22735.53
443.741	22016.69
443.948	21392.06
444.154	22903.46
444.361	22868.64
444.568	23335.58
444.774	23098.02
444.981	23433.88
445.187	24197.77
445.394	25113.22
445.6	25006.72
445.807	27114.08
446.013	26018.42
446.22	26608.23
446.426	27214.43
446.633	27519.58
446.839	28899.91
447.046	27234.91
447.252	28867.14
447.459	29006.41
447.665	28770.89
447.871	30069.3
448.078	31097.38
448.284	29776.44
448.491	30716.46
448.697	32055.83
448.903	32385.55
449.11	32442.9
449.316	32174.61
449.522	32696.85
449.728	33284.61
449.935	33556.99
450.141	33819.13
450.347	34646.51
450.553	33583.62
450.76	33927.67
450.966	35002.86
451.172	34548.21
451.378	35060.2
451.584	34740.72
451.791	35432.93
451.997	35531.23
452.203	35873.24
452.409	35725.79
452.615	36041.18
452.821	34480.63
453.027	34136.57
453.233	35938.78
453.44	34738.67
453.646	35115.5
453.852	35230.18
454.058	36010.46
454.264	34535.92
454.47	35688.93
454.676	34480.63
454.882	35752.41
455.088	32668.17
455.294	33272.32
455.5	33561.09
455.705	34003.45
455.911	32528.91
456.117	32223.76
456.323	32158.23
456.529	30157.36
456.735	31324.71
456.941	30304.82
457.147	30048.82
457.352	29028.93
457.558	28850.76
457.764	28914.25
457.97	28265.04
458.176	27914.84
458.381	27767.38
458.587	26624.62
458.793	26548.84
458.999	25279.1
459.204	26864.23
459.41	26255.98
459.616	24457.87
459.821	24677
460.027	24527.5
460.233	23788.18
460.438	23032.48
460.644	23241.37
460.85	21955.25
461.055	21930.67
461.261	21783.22
461.466	20054.73
461.672	19563.22
461.878	20845.25
462.083	19569.37
462.289	18989.79
462.494	18989.79
462.7	18105.07
462.905	17443.57
463.111	18025.2
463.316	18090.73
463.522	18074.35
463.727	17842.93
463.932	17804.02
464.138	17703.67
464.343	17928.94
464.549	17294.07
464.754	17851.12
464.959	17777.39
465.165	17425.14
465.37	16704.26
465.575	16304.9
465.781	17148.67
465.986	17011.45
466.191	16569.09
466.397	16306.95
466.602	15256.34
466.807	15893.26
467.012	16112.39
467.218	16149.26
467.423	15635.22
467.628	15989.52
467.833	16505.6
468.038	15864.59
468.244	15520.53
468.449	15921.93
468.654	15786.77
468.859	15258.39
469.064	15307.54
469.269	14654.24
469.474	14836.51
469.679	14924.57
469.885	14603.04
470.09	14777.12
470.295	14803.74
470.5	14289.7
470.705	14439.2
470.91	14089
471.115	14093.1
471.32	14492.45
471.525	14154.54
471.73	14011.18
471.935	13724.46
472.139	13431.6
472.344	13740.85
472.549	13241.14
472.754	13294.39
472.959	12911.42
473.164	12780.35
473.369	12651.33
473.574	13019.96
473.778	12933.95
473.983	12593.98
474.188	12733.25
474.393	12178.25
474.598	12276.55
474.802	12108.62
475.007	11965.26
475.212	11938.63
475.417	11586.38
475.621	11709.26
475.826	11750.22
476.031	11271
476.235	11395.92
476.44	11420.5
476.645	11144.02
476.849	11350.87
477.054	11015
477.259	10773.34
477.463	11162.45
477.668	10548.06
477.872	10617.69
478.077	10537.82
478.282	10451.81
478.486	10394.47
478.691	10281.83
478.895	10285.92
479.1	10074.98
479.304	10302.31
479.509	9851.75
479.713	10072.93
479.918	9827.18
480.122	9694.06
480.326	9630.57
480.531	9747.31
480.735	9747.31
480.94	9583.47
481.144	9802.6
481.348	9440.11
481.553	9491.31
481.757	9380.72
481.961	9593.71
482.166	9565.04
482.37	9573.23
482.574	9325.43
482.778	9241.46
482.983	9562.99
483.187	9366.39
483.391	9485.17
483.595	9571.18
483.8	9253.75
484.004	9476.98
484.208	9323.38
484.412	9347.95
484.616	9458.54
484.821	9327.47
485.025	9180.02
485.229	9360.24
485.433	9261.94
485.637	9436.02
485.841	9358.19
486.045	9370.48
486.249	9358.19
486.453	9274.23
486.657	9403.25
486.861	9444.21
487.065	9278.32
487.269	9206.64
487.473	9141.11
487.677	9558.89
487.881	9513.84
488.085	9507.69
488.289	9360.24
488.493	9413.49
488.697	9466.74
488.901	9294.71
489.105	9610.09
489.309	9528.17
489.512	9499.5
489.716	9575.28
489.92	9501.55
490.124	9429.87
490.328	9673.58
490.531	9562.99
490.735	9745.26
490.939	9694.06
491.143	9595.76
491.346	9661.29
491.55	9814.89
491.754	9659.24
491.958	9976.68
492.161	9780.07
492.365	9876.33
492.569	9911.14
492.772	9882.47
492.976	10005.35
493.18	10150.76
493.383	9958.25
493.587	10210.15
493.79	10285.92
493.994	10115.94
494.197	10343.27
494.401	10290.02
494.605	10582.88
494.808	10597.21
495.012	10617.69
495.215	10629.98
495.419	10642.27
495.622	10558.3
495.825	10894.17
496.029	10912.6
496.232	11236.18
496.436	11236.18
496.639	11443.03
496.843	11400.02
497.046	11440.98
497.249	11670.35
497.453	11647.82
497.656	11787.08
497.859	11674.45
498.063	12014.41
498.266	12143.43
498.469	12065.61
498.673	12231.49
498.876	12546.88
499.079	12577.6
499.282	12550.98
499.485	12960.57
499.689	12927.8
499.892	13065.02
500.095	13042.49
500.298	13562.67
500.501	13243.19
500.705	13585.2
500.908	13841.2
501.111	13962.03
501.314	14164.78
501.517	14474.02
501.72	14408.48
501.923	14553.89
502.126	14701.34
502.329	14770.97
502.532	15033.11
502.735	14963.48
502.938	15217.43
503.141	15317.78
503.344	15594.26
503.547	15749.9
503.75	15876.88
503.953	16106.25
504.156	16345.86
504.359	16229.13
504.562	16409.35
504.765	16751.36
504.968	16921.34
505.17	17046.27
505.373	16882.43
505.576	17470.2
505.779	17515.25
505.982	17978.09
506.185	17994.48
506.387	18017.01
506.59	18438.89
506.793	18961.12
506.996	19010.27
507.198	19237.59
507.401	19051.23
507.604	19321.56
507.807	19894.99
508.009	19682
508.212	20245.2
508.415	20449.99
508.617	20357.83
508.82	20427.46
509.022	20153.04
509.225	21334.71
509.428	21244.6
509.63	21306.04
509.833	21385.91
510.035	21818.04
510.238	21682.87
510.44	22041.26
510.643	22762.15
510.845	22491.82
511.048	22659.75
511.25	22981.28
511.453	23087.78
511.655	23745.17
511.858	23593.62
512.06	23820.95
512.262	24033.94
512.465	24029.84
512.667	24343.18
512.87	24736.39
513.072	24832.65
513.274	25287.29
513.477	25369.21
513.679	25756.28
513.881	25999.99
514.084	26225.26
514.286	26364.53
514.488	26210.93
514.69	26815.08
514.893	27349.6
515.095	27333.21
515.297	27624.03
515.499	27675.23
515.701	28035.67
515.904	28289.62
516.106	28490.32
516.308	28656.2
516.51	28990.02
516.712	28949.06
516.914	29604.41
517.116	29909.56
517.318	29745.72
517.52	30259.76
517.722	30712.36
517.925	30726.7
518.127	31113.77
518.329	31162.92
518.531	31169.06
518.733	31984.15
518.935	32133.65
519.136	32375.31
519.338	32440.85
519.54	32461.33
519.742	32952.84
519.944	33016.33
520.146	33552.9
520.348	33548.8
520.55	33827.32
520.752	33958.39
520.954	34687.47
521.155	34400.76
521.357	34861.55
521.559	35037.67
521.761	35639.78
521.963	35764.7
522.164	36035.03
522.366	36145.62
522.568	36252.12
522.77	36542.93
522.971	37011.92
523.173	36596.18
523.375	37071.31
523.576	36784.59
523.778	37128.65
523.98	38089.15
524.181	38072.76
524.383	38171.07
524.584	38640.05
524.786	38568.37
524.988	38339
525.189	38699.44
525.391	39174.57
525.592	39098.8
525.794	39262.63
525.995	39561.64
526.197	39653.79
526.398	39639.46
526.6	40118.68
526.801	39881.12
527.003	40034.72
527.204	40501.65
527.406	40827.28
527.607	40565.14
527.808	41261.45
528.01	40038.81
528.211	40616.34
528.412	41480.58
528.614	41410.95
528.815	41109.9
529.016	41984.38
529.218	41433.48
529.419	41304.46
529.62	41642.37
529.822	41558.41
530.023	41916.8
530.224	41585.03
530.425	41609.61
530.626	41728.39
530.828	41625.99
531.029	42713.46
531.23	42029.44
531.431	41791.87
531.632	42172.8
531.833	42097.02
532.035	42219.9
532.236	42484.09
532.437	42459.51
532.638	42580.34
532.839	42914.16
533.04	42387.83
533.241	42051.97
533.442	43237.74
533.643	42451.32
533.844	42541.43
534.045	42516.86
534.246	42205.56
534.447	42787.19
534.648	42549.62
534.849	43204.97
535.05	42508.66
535.251	42848.63
535.451	42508.66
535.652	42944.88
535.853	42387.83
536.054	42625.4
536.255	42762.61
536.456	42424.7
536.657	43305.32
536.857	42989.94
537.058	42455.42
537.259	43133.29
537.46	42938.74
537.66	42312.06
537.861	43227.5
538.062	42539.38
538.263	43157.87
538.463	42877.3
538.664	42674.55
538.865	43014.51
539.065	42908.02
539.266	42142.08
539.466	43129.2
539.667	42400.12
539.868	43420.01
540.068	42699.12
540.269	42834.29
540.469	42934.64
540.67	42643.83
540.87	42633.59
541.071	42961.26
541.271	42807.67
541.472	42910.07
541.672	42471.8
541.873	42813.81
542.073	42287.48
542.274	43078
542.474	42606.97
542.675	42109.31
542.875	43198.83
543.075	42934.64
543.276	41963.9
543.476	43028.85
543.676	42557.81
543.877	43008.37
544.077	42887.54
544.277	42742.13
544.478	42518.9
544.678	42756.47
544.878	42770.8
545.078	42385.79
545.279	42455.42
545.479	42652.02
545.679	43018.61
545.879	42318.2
546.079	42512.76
546.28	42283.39
546.48	42006.91
546.68	42383.74
546.88	42549.62
547.08	42527.1
547.28	42269.05
547.48	41922.94
547.68	42172.8
547.88	42027.39
548.081	42604.92
548.281	42180.99
548.481	42389.88
548.681	42279.29
548.881	42563.96
549.081	42269.05
549.28	41986.43
549.48	42330.49
549.68	41906.56
549.88	42600.82
550.08	41836.93
550.28	42314.11
550.48	42408.31
550.68	42633.59
550.88	42037.63
551.08	42004.86
551.279	42172.8
551.479	42195.32
551.679	42228.09
551.879	42047.87
552.079	42226.04
552.278	42248.57
552.478	41845.12
552.678	41986.43
552.878	42283.39
553.077	42033.53
553.277	41691.52
553.477	42150.27
553.676	41574.79
553.876	41771.39
554.076	41505.16
554.275	41832.83
554.475	40972.69
554.674	42232.19
554.874	41847.17
555.074	41619.84
555.273	41886.08
555.473	41998.72
555.672	41337.23
555.872	41509.25
556.071	41476.49
556.271	41443.72
556.47	41372.04
556.67	41208.2
556.869	41550.21
557.068	41771.39
557.268	41202.06
557.467	41314.7
557.667	41359.75
557.866	41257.35
558.065	41255.31
558.265	41249.16
558.464	40903.06
558.663	41218.44
558.863	40577.43
559.062	41480.58
559.261	40386.97
559.461	41163.15
559.66	40313.24
559.859	40925.58
560.058	40489.37
560.258	40853.9
560.457	40499.61
560.656	40952.21
560.855	40493.46
561.054	40782.23
561.253	40257.95
561.453	40487.32
561.652	40323.48
561.851	40427.93
562.05	40094.11
562.249	39647.65
562.448	40337.82
562.647	39825.82
562.846	39797.15
563.045	40001.95
563.244	39621.03
563.443	40253.85
563.642	39340.46
563.841	39287.21
564.04	39471.53
564.239	40219.03
564.438	39405.99
564.637	39678.37
564.836	39281.06
565.035	39063.98
565.234	39602.6
565.432	39170.47
565.631	38797.74
565.83	39115.18
566.029	39104.94
566.228	39143.85
566.427	38666.67
566.625	38742.45
566.824	38506.93
567.023	38535.6
567.222	38312.38
567.42	39027.12
567.619	38660.53
567.818	38351.29
568.016	38595
568.215	38580.66
568.414	38156.73
568.612	38504.88
568.811	37859.77
569.01	37915.07
569.208	37781.95
569.407	37919.17
569.605	37640.64
569.804	38021.56
570.002	37190.09
570.201	37757.38
570.4	37482.95
570.598	37405.13
570.797	37032.39
570.995	37251.53
571.193	36868.56
571.392	36880.85
571.59	36717.01
571.789	36876.75
571.987	36942.28
572.186	37104.07
572.384	36489.68
572.582	36831.69
572.781	36919.76
572.979	35996.12
573.177	36018.65
573.376	36708.82
573.574	36018.65
573.772	36340.18
573.971	35914.2
574.169	36000.22
574.367	35584.48
574.565	36012.51
574.763	35570.15
574.962	35582.43
575.16	35285.48
575.358	35578.34
575.556	35117.54
575.754	35414.5
575.952	35105.26
576.151	35158.5
576.349	34771.44
576.547	35150.31
576.745	35221.99
576.943	34871.79
577.141	34644.46
577.339	34666.99
577.537	34601.46
577.735	34806.25
577.933	34370.04
578.131	34662.9
578.329	34173.43
578.527	34032.12
578.725	34259.45
578.923	34236.92
579.121	34001.4
579.319	33864.19
579.516	34019.83
579.714	34109.94
579.912	33729.02
580.11	33708.54
580.308	33530.37
580.506	33499.65
580.704	32803.34
580.901	33518.08
581.099	33413.63
581.297	32911.88
581.495	32905.74
581.692	33102.34
581.89	32817.68
582.088	33155.59
582.285	32293.4
582.483	33131.01
582.681	32530.96
582.878	32408.08
583.076	32418.32
583.274	32756.24
583.471	32227.86
583.669	32336.4
583.866	31932.95
584.064	32289.3
584.262	31984.15
584.459	32066.07
584.657	31787.55
584.854	32174.61
585.052	31095.33
585.249	31793.69
585.447	31695.39
585.644	31420.96
585.841	31341.09
586.039	31492.64
586.236	31074.85
586.434	31253.03
586.631	30968.36
586.828	30984.74
587.026	30941.74
587.223	30886.44
587.42	30792.23
587.618	30706.22
587.815	30700.08
588.012	30126.64
588.21	30353.97
588.407	30618.16
588.604	30366.26
588.801	30081.59
588.999	29942.33
589.196	30046.77
589.393	29899.32
589.59	29766.2
589.787	29614.65
589.984	29796.92
590.182	29256.26
590.379	29549.12
590.576	29073.99
590.773	29590.08
590.97	29315.65
591.167	29798.97
591.364	29313.6
591.561	29213.25
591.758	29135.43
591.955	29178.43
592.152	29028.93
592.349	28813.9
592.546	28484.17
592.743	28564.04
592.94	28330.58
593.137	28435.02
593.334	28820.04
593.531	28267.09
593.727	28320.34
593.924	28148.31
594.121	28013.14
594.318	27845.21
594.515	27484.76
594.712	28125.78
594.908	27546.2
595.105	27753.05
595.302	27533.92
595.499	27353.69
595.696	27388.51
595.892	27415.13
596.089	27433.57
596.286	27116.13
596.482	27365.98
596.679	27075.17
596.876	27202.14
597.072	26661.48
597.269	27017.83
597.466	26853.99
597.662	26792.55
597.859	26446.44
598.055	26634.86
598.252	26294.89
598.448	26540.65
598.645	26157.68
598.841	26169.97
599.038	26137.2
599.234	26083.95
599.431	25977.46
599.627	25870.97
599.824	26030.71
600.02	25856.63
600.217	25852.53
600.413	25533.05
600.609	25682.55
600.806	25506.43
601.002	25600.63
601.198	25252.48
601.395	25289.34
601.591	25471.61
601.787	25188.99
601.984	25410.17
602.18	24814.21
602.376	24779.4
602.572	24861.32
602.769	24429.2
602.965	24613.51
603.161	24783.49
603.357	24418.96
603.553	24494.73
603.75	24246.93
603.946	24081.04
604.142	24513.16
604.338	24220.3
604.534	24183.44
604.73	24003.22
604.926	23923.35
605.122	24078.99
605.318	23915.16
605.514	23655.06
605.71	23718.55
605.906	23470.75
606.102	23655.06
606.298	23667.35
606.494	23636.63
606.69	23669.4
606.886	23435.93
607.082	23083.68
607.278	23317.15
607.474	23098.02
607.67	23317.15
607.866	22942.37
608.062	23194.27
608.257	23083.68
608.453	22891.17
608.649	23065.25
608.845	22672.04
609.041	22710.95
609.236	22710.95
609.432	22776.48
609.628	22622.89
609.824	22489.77
610.019	22450.86
610.215	22530.73
610.411	22637.22
610.606	22389.42
610.802	22434.47
610.998	22434.47
611.193	22246.06
611.389	22215.34
611.584	21979.82
611.78	21895.86
611.976	22049.46
612.171	22213.29
612.367	21998.26
612.562	22000.3
612.758	21584.57
612.953	21611.19
613.149	21850.8
613.344	21672.63
613.539	22049.46
613.735	21734.07
613.93	22125.23
614.126	21172.92
614.321	21697.2
614.517	21815.99
614.712	21510.84
614.907	21490.36
615.103	21402.3
615.298	21273.28
615.493	21398.2
615.688	21070.53
615.884	21447.35
616.079	20929.22
616.274	21328.57
616.47	21076.67
616.665	20961.98
616.86	20835.01
617.055	20863.68
617.25	20816.58
617.445	20843.2
617.641	20765.38
617.836	20800.19
618.031	20738.76
618.226	20652.74
618.421	20523.72
618.616	20642.5
618.811	20325.07
619.006	20591.3
619.201	20386.5
619.396	20214.48
619.591	19987.15
619.786	20251.34
619.981	19636.95
620.176	19991.25
620.371	19991.25
620.566	19688.15
620.761	19682
620.956	19876.56
621.151	19540.69
621.346	19704.53
621.541	19282.65
621.735	19497.69
621.93	19184.35
622.125	19190.49
622.32	18748.13
622.515	18916.06
622.709	18920.16
622.904	18832.1
623.099	18678.5
623.294	18483.94
623.488	18209.51
623.683	18371.3
623.878	18014.96
624.072	18393.83
624.267	18123.5
624.462	18166.51
624.656	17912.56
624.851	17879.79
625.046	17677.04
625.24	17674.99
625.435	17535.73
625.629	17277.69
625.824	17175.29
626.018	17353.46
626.213	16827.14
626.407	17234.68
626.602	16706.31
626.796	16945.92
626.991	16890.62
627.185	16712.45
627.38	16288.52
627.574	16399.11
627.768	16374.53
627.963	16198.41
628.157	16227.08
628.352	16055.05
628.546	16143.11
628.74	16022.28
628.935	15956.75
629.129	16005.9
629.323	15495.96
629.517	15858.45
629.712	15563.54
629.906	15491.86
630.1	15289.11
630.294	15297.3
630.489	15184.66
630.683	15350.55
630.877	14940.96
631.071	15010.59
631.265	14971.68
631.459	14820.13
631.653	14869.28
631.848	14631.71
632.042	14889.76
632.236	14517.03
632.43	14398.24
632.624	14418.72
632.818	14312.23
633.012	14187.3
633.206	14218.02
633.4	14306.09
633.594	14033.71
633.788	13953.84
633.982	13712.17
634.176	13849.39
634.369	13730.61
634.563	13853.48
634.757	13628.21
634.951	13687.6
635.145	13382.45
635.339	13572.91
635.533	13206.33
635.726	13169.46
635.92	12989.24
636.114	13050.68
636.308	13097.78
636.501	13105.98
636.695	12997.43
636.889	12694.33
637.083	12809.02
637.276	12663.61
637.47	12518.21
637.664	12579.65
637.857	12573.5
638.051	12522.3
638.244	12335.94
638.438	12411.71
638.632	12168.01
638.825	12100.42
639.019	12196.68
639.212	12041.03
639.406	12067.66
639.599	11801.42
639.793	11946.83
639.986	11762.51
640.18	11895.63
640.373	11735.88
640.567	11473.74
640.76	11557.71
640.954	11428.69
641.147	11547.47
641.34	11359.06
641.534	11350.87
641.727	11170.65
641.92	11221.84
642.114	11268.95
642.307	10986.33
642.5	11074.39
642.694	10838.87
642.887	10750.81
643.08	10982.23
643.273	11019.1
643.467	10920.79
643.66	10810.2
643.853	10498.91
644.046	10546.02
644.239	10722.14
644.432	10457.95
644.626	10507.1
644.819	10275.68
645.012	10367.84
645.205	10548.06
645.398	10277.73
645.591	10003.3
645.784	9982.82
645.977	10216.29
646.17	9857.9
646.363	9925.48
646.556	9962.34
646.749	9806.7
646.942	9909.1
647.135	9855.85
647.328	9704.3
647.521	9730.92
647.714	9558.89
647.907	9587.57
648.099	9548.65
648.292	9519.98
648.485	9266.03
648.678	9321.33
648.871	9261.94
649.064	9192.31
649.256	9454.45
649.449	9075.57
649.642	9229.17
649.835	8909.69
650.027	9112.44
650.22	9118.58
650.413	8919.93
650.605	8805.24
650.798	8989.56
650.991	8919.93
651.183	8700.8
651.376	8774.52
651.568	8833.91
651.761	8702.84
651.954	8588.16
652.146	8364.93
652.339	8418.18
652.531	8557.44
652.724	8393.6
652.916	8338.3
653.109	8219.52
653.301	8326.02
653.494	8205.19
653.686	7877.51
653.879	8262.53
654.071	8057.73
654.263	7947.14
654.456	8061.83
654.648	7826.31
654.84	7873.42
655.033	7779.21
655.225	7838.6
655.417	7783.31
655.61	7877.51
655.802	7689.1
655.994	7732.11
656.186	7568.27
656.379	7664.52
656.571	7594.89
656.763	7445.39
656.955	7461.77
657.148	7369.62
657.34	7345.04
657.532	7306.13
657.724	7555.98
657.916	7332.75
658.108	7424.91
658.3	7353.23
658.492	7273.36
658.684	7121.81
658.876	7060.37
659.068	7123.86
659.26	7142.29
659.452	6843.29
659.644	6914.97
659.836	6943.64
660.028	7035.8
660.22	6902.68
660.412	6808.47
660.604	6689.69
660.796	6888.34
660.988	6763.42
661.18	6640.54
661.372	6611.87
661.563	6740.89
661.755	6654.87
661.947	6663.07
662.139	6509.47
662.331	6515.61
662.522	6425.5
662.714	6386.59
662.906	6308.77
663.097	6314.91
663.289	6237.09
663.481	6343.58
663.673	6405.02
663.864	6263.71
664.056	6276
664.247	6206.37
664.439	6114.21
664.631	5993.38
664.822	6218.66
665.014	5974.95
665.205	5981.09
665.397	6083.49
665.588	5948.33
665.78	5972.9
665.971	5886.89
666.163	6042.53
666.354	5870.5
666.546	5952.42
666.737	5694.38
666.929	5856.17
667.12	5651.37
667.311	5634.99
667.503	5749.67
667.694	5665.71
667.885	5698.47
668.077	5706.66
668.268	5510.06
668.459	5534.64
668.651	5448.62
668.842	5624.75
669.033	5462.96
669.224	5395.37
669.416	5436.33
669.607	5366.7
669.798	5356.46
669.989	5477.29
670.18	5501.87
670.371	5370.8
670.563	5247.92
670.754	5460.91
670.945	5206.96
671.136	5163.95
671.327	5235.63
671.518	5108.66
671.709	5258.16
671.9	5209.01
672.091	5198.77
672.282	5172.15
672.473	5055.41
672.664	5043.12
672.855	4996.02
673.046	5075.89
673.237	5118.9
673.428	4946.87
673.619	4953.01
673.809	4940.72
674	4889.53
674.191	5022.64
674.382	4776.89
674.573	5012.4
674.764	4807.61
674.954	4807.61
675.145	4832.18
675.336	4895.67
675.527	4836.28
675.717	4725.69
675.908	4756.41
676.099	4680.63
676.289	4465.6
676.48	4760.5
676.671	4496.32
676.861	4764.6
677.052	4658.1
677.243	4529.08
677.433	4637.63
677.624	4594.62
677.814	4551.61
678.005	4694.97
678.195	4500.41
678.386	4473.79
678.576	4498.36
678.767	4563.9
678.957	4373.44
679.148	4473.79
679.338	4600.76
679.529	4539.32
679.719	4299.71
679.909	4518.84
680.1	4502.46
680.29	4436.92
680.481	4412.35
680.671	4465.6
680.861	4350.91
681.052	4438.97
681.242	4326.33
681.432	4535.23
681.622	4293.57
681.813	4223.94
682.003	4336.57
682.193	4338.62
682.383	4314.05
682.573	4373.44
682.764	4187.07
682.954	4338.62
683.144	4285.37
683.334	4334.53
683.524	4332.48
683.714	4260.8
683.904	4266.94
684.094	4258.75
684.284	4301.76
684.474	4402.11
684.664	4281.28
684.854	4174.78
685.044	4119.49
685.234	4084.67
685.424	4191.17
685.614	4191.17
685.804	4082.63
685.994	4103.11
686.184	4215.74
686.374	4158.4
686.564	4156.35
686.753	4008.9
686.943	4002.75
687.133	3980.23
687.323	3881.92
687.513	4117.44
687.702	3931.08
687.892	4086.72
688.082	3974.08
688.272	3892.16
688.461	4019.14
688.651	3939.27
688.841	3859.4
689.03	3783.62
689.22	3812.29
689.41	3744.71
689.599	3685.32
689.789	3763.14
689.979	3748.81
690.168	3777.48
690.358	3666.89
690.547	3599.31
690.737	3748.81
690.926	3773.38
691.116	3638.22
691.305	3617.74
691.495	3580.87
691.684	3603.4
691.874	3568.59
692.063	3568.59
692.252	3550.15
692.442	3644.36
692.631	3570.63
692.82	3443.66
693.01	3693.51
693.199	3564.49
693.388	3546.06
693.578	3435.47
693.767	3437.52
693.956	3441.61
694.146	3441.61
694.335	3396.56
694.524	3433.42
694.713	3347.4
694.902	3453.9
695.092	3437.52
695.281	3371.98
695.47	3341.26
695.659	3290.06
695.848	3431.37
696.037	3224.53
696.226	3283.92
696.415	3249.1
696.604	3204.05
696.793	3331.02
696.982	3285.97
697.171	3322.83
697.36	3275.73
697.549	3175.38
697.738	3322.83
697.927	3111.89
698.116	3189.71
698.305	3189.71
698.494	3218.38
698.683	3177.42
698.872	3212.24
699.061	3169.23
699.25	3202
699.438	3025.87
699.627	3167.18
699.816	3253.2
700.005	3136.46
700.193	3064.79
700.382	3210.19
700.571	3130.32
700.76	3120.08
700.948	3027.92
701.137	3021.78
701.326	3128.27
701.514	3046.35
701.703	2986.96
701.892	2946
702.08	3087.31
702.269	3046.35
702.457	3029.97
702.646	3148.75
702.834	2931.67
703.023	3070.93
703.212	3054.55
703.4	3036.11
703.589	3060.69
703.777	2999.25
703.965	3023.83
704.154	2911.19
704.342	2972.63
704.531	3070.93
704.719	2929.62
704.907	2954.19
705.096	2931.67
705.284	2933.72
705.472	2986.96
705.661	3042.26
705.849	2966.48
706.037	3019.73
706.226	2868.18
706.414	2851.8
706.602	2855.89
706.79	2845.65
706.979	2776.02
707.167	2839.51
707.355	2898.9
707.543	2903
707.731	2888.66
707.919	2806.74
708.107	2833.36
708.296	2804.69
708.484	2933.72
708.672	2948.05
708.86	2859.99
709.048	2855.89
709.236	2786.26
709.424	2851.8
709.612	2778.07
709.8	2769.88
709.988	2778.07
710.176	2747.35
710.364	2823.12
710.551	2716.63
710.739	2866.13
710.927	2749.4
711.115	2835.41
711.303	2831.32
711.491	2790.36
711.679	2677.72
711.866	2759.64
712.054	2733.01
712.242	2710.49
712.43	2759.64
712.617	2683.86
712.805	2595.8
712.993	2636.76
713.181	2692.05
713.368	2847.7
713.556	2706.39
713.744	2614.23
713.931	2788.31
714.119	2630.62
714.306	2792.41
714.494	2640.86
714.682	2634.71
714.869	2573.27
715.057	2733.01
715.244	2397.15
715.432	2692.05
715.619	2614.23
715.807	2628.57
715.994	2530.27
716.182	2630.62
716.369	2685.91
716.556	2610.14
716.744	2536.41
716.931	2540.51
717.119	2673.62
717.306	2601.94
717.493	2501.59
717.681	2489.31
717.868	2601.94
718.055	2634.71
718.242	2513.88
718.43	2616.28
718.617	2532.31
718.804	2556.89
718.991	2563.03
719.179	2448.35
719.366	2560.98
719.553	2503.64
719.74	2515.93
719.927	2372.57
720.114	2546.65
720.301	2530.27
720.488	2431.96
720.676	2460.63
720.863	2431.96
721.05	2563.03
721.237	2466.78
721.424	2448.35
721.611	2536.41
721.798	2399.2
721.985	2431.96
722.172	2397.15
722.358	2407.39
722.545	2454.49
722.732	2339.8
722.919	2405.34
723.106	2350.04
723.293	2393.05
723.48	2446.3
723.667	2388.96
723.853	2391
724.04	2479.07
724.227	2464.73
724.414	2470.87
724.6	2409.44
724.787	2341.85
724.974	2464.73
725.161	2450.39
725.347	2339.8
725.534	2405.34
725.72	2378.72
725.907	2284.51
726.094	2382.81
726.28	2419.68
726.467	2362.33
726.653	2393.05
726.84	2448.35
727.027	2364.38
727.213	2192.35
727.4	2307.04
727.586	2339.8
727.773	2315.23
727.959	2266.08
728.145	2386.91
728.332	2323.42
728.518	2329.56
728.705	2292.7
728.891	2282.46
729.077	2282.46
729.264	2282.46
729.45	2188.25
729.636	2356.19
729.823	2253.79
730.009	2319.32
730.195	2235.36
730.382	2276.32
730.568	2235.36
730.754	2356.19
730.94	2364.38
731.126	2307.04
731.313	2284.51
731.499	2216.93
731.685	2356.19
731.871	2370.52
732.057	2325.47
732.243	2241.5
732.429	2358.24
732.615	2247.65
732.801	2331.61
732.987	2241.5
733.173	2212.83
733.359	2288.61
733.545	2268.13
733.731	2182.11
733.917	2323.42
734.103	2221.02
734.289	2139.1
734.475	2315.23
734.661	2112.48
734.847	2235.36
735.033	2259.93
735.219	2259.93
735.404	2243.55
735.59	2276.32
735.776	2165.73
735.962	2151.39
736.148	2210.78
736.333	2053.09
736.519	2190.3
736.705	2102.24
736.89	2235.36
737.076	2149.34
737.262	2071.52
737.447	2075.62
737.633	2157.54
737.819	2089.95
738.004	2147.3
738.19	2116.58
738.375	2139.1
738.561	2085.86
738.747	2024.42
738.932	2028.51
739.118	2055.14
739.303	2118.62
739.489	2122.72
739.674	2008.03
739.859	2069.47
740.045	2110.43
740.23	2065.38
740.416	2061.28
740.601	2053.09
740.786	1987.55
740.972	1987.55
741.157	1956.83
741.342	2124.77
741.528	1991.65
741.713	2059.23
741.898	1965.03
742.084	2014.18
742.269	1946.59
742.454	1938.4
742.639	1897.44
742.824	1932.26
743.01	1940.45
743.195	1971.17
743.38	1936.35
743.565	1934.31
743.75	1872.87
743.935	1954.79
744.12	1924.07
744.305	1891.3
744.49	1872.87
744.675	1905.63
744.86	1854.44
745.045	1840.1
745.23	1836
745.415	1739.75
745.6	1864.68
745.785	1743.85
745.97	1793
746.155	1831.91
746.34	1831.91
746.525	1725.41
746.71	1807.33
746.895	1809.38
747.079	1692.65
747.264	1637.35
747.449	1717.22
747.634	1692.65
747.819	1778.66
748.003	1545.19
748.188	1571.82
748.373	1737.7
748.557	1692.65
748.742	1620.97
748.927	1666.02
749.111	1692.65
749.296	1528.81
749.481	1643.49
749.665	1563.62
749.85	1573.86
750.034	1600.49
750.219	1612.78
750.404	1545.19
750.588	1549.29
750.773	1391.59
750.957	1438.7
751.141	1510.38
751.326	1543.14
751.51	1498.09
751.695	1571.82
751.879	1373.16
752.064	1487.85
752.248	1534.95
752.432	1455.08
752.617	1428.46
752.801	1440.75
752.985	1367.02
753.17	1426.41
753.354	1356.78
753.538	1373.16
753.722	1354.73
753.907	1311.72
754.091	1242.09
754.275	1360.88
754.459	1289.2
754.643	1375.21
754.828	1248.24
755.012	1379.31
755.196	1242.09
755.38	1168.37
755.564	1205.23
755.748	1315.82
755.932	1139.69
756.116	1147.89
756.3	1143.79
756.484	1217.52
756.668	1250.28
756.852	1113.07
757.036	1244.14
757.22	1276.91
757.404	1190.89
757.588	1137.65
757.772	1139.69
757.956	1225.71
758.14	1180.65
758.323	1086.45
758.507	1094.64
758.691	1143.79
758.875	1106.93
759.059	1164.27
759.242	1192.94
759.426	1049.58
759.61	1143.79
759.794	979.95
759.977	1133.55
760.161	1209.33
760.345	1055.73
760.528	1123.31
760.712	1025.01
760.895	963.57
761.079	1072.11
761.263	818.16
761.446	1029.1
761.63	947.19
761.813	1049.58
761.997	1070.06
762.18	955.38
762.364	910.32
762.547	1014.77
762.731	961.52
762.914	1096.69
763.098	1000.43
763.281	889.84
763.464	1002.48
763.648	1086.45
763.831	936.95
764.015	904.18
764.198	992.24
764.381	926.71
764.564	951.28
764.748	947.19
764.931	889.84
765.114	865.27
765.297	797.68
765.481	898.03
765.664	898.03
765.847	943.09
766.03	934.9
766.213	914.42
766.397	928.75
766.58	928.75
766.763	932.85
766.946	857.07
767.129	848.88
767.312	832.5
767.495	850.93
767.678	867.31
767.861	766.96
768.044	867.31
768.227	818.16
768.41	848.88
768.593	883.7
768.776	824.31
768.959	883.7
769.142	760.82
769.324	775.16
769.507	855.03
769.69	695.29
769.873	848.88
770.056	908.27
770.239	769.01
770.421	783.35
770.604	705.53
770.787	816.12
770.97	752.63
771.152	760.82
771.335	750.58
771.518	746.48
771.7	752.63
771.883	812.02
772.066	740.34
772.248	758.77
772.431	818.16
772.613	736.24
772.796	642.04
772.978	717.81
773.161	762.87
773.343	711.67
773.526	703.48
773.708	750.58
773.891	668.66
774.073	629.75
774.256	744.44
774.438	717.81
774.621	693.24
774.803	672.76
774.985	695.29
775.168	623.61
775.35	711.67
775.532	705.53
775.715	633.85
775.897	627.7
776.079	644.09
776.261	660.47
776.444	609.27
776.626	586.74
776.808	693.24
776.99	613.37
777.173	644.09
777.355	670.71
777.537	578.55
777.719	553.98
777.901	592.89
778.083	648.18
778.265	574.46
778.447	623.61
778.629	535.54
778.811	566.26
778.993	519.16
779.175	556.02
779.357	570.36
779.539	472.06
779.721	617.46
779.903	529.4
780.085	547.83
780.267	613.37
780.449	523.26
780.631	592.89
780.812	545.78
780.994	467.96
781.176	549.88
781.358	474.1
781.54	427
781.721	553.98
781.903	476.15
782.085	472.06
782.267	506.87
782.448	394.23
782.63	611.32
782.812	441.34
782.993	449.53
783.175	383.99
783.357	402.43
783.538	480.25
783.72	488.44
783.901	492.54
784.083	429.05
784.264	390.14
784.446	463.86
784.627	373.75
784.809	435.19
784.99	406.52
785.172	445.43
785.353	474.1
785.535	431.1
785.716	369.66
785.897	398.33
786.079	443.39
786.26	441.34
786.441	414.71
786.623	390.14
786.804	406.52
786.985	308.22
787.167	365.56
787.348	398.33
787.529	386.04
787.71	449.53
787.891	365.56
788.073	383.99
788.254	349.18
788.435	340.99
788.616	414.71
788.797	349.18
788.978	324.6
789.159	343.03
789.34	302.08
789.522	306.17
789.703	338.94
789.884	343.03
790.065	318.46
790.246	328.7
790.427	390.14
790.607	324.6
790.788	347.13
790.969	355.32
791.15	312.32
791.331	316.41
791.512	320.51
791.693	277.5
791.874	263.16
792.054	343.03
792.235	308.22
792.416	295.93
792.597	308.22
792.778	238.59
792.958	308.22
793.139	211.96
793.32	295.93
793.5	326.65
793.681	357.37
793.862	410.62
794.042	250.88
794.223	250.88
794.404	254.97
794.584	257.02
794.765	226.3
794.945	259.07
795.126	320.51
795.306	277.5
795.487	291.84
795.667	269.31
795.848	242.68
796.028	259.07
796.209	211.96
796.389	207.87
796.57	308.22
796.75	207.87
796.93	211.96
797.111	224.25
797.291	236.54
797.471	238.59
797.652	189.44
797.832	261.12
798.012	250.88
798.192	242.68
798.373	138.24
798.553	183.29
798.733	259.07
798.913	201.72
799.093	218.11
799.274	254.97
799.454	119.81
799.634	283.64
799.814	259.07
799.994	257.02
800.174	238.59
800.354	267.26
800.534	158.72
800.714	162.81
800.894	173.05
801.074	193.53
801.254	226.3
801.434	304.12
801.614	211.96
801.794	226.3
801.974	668.66
802.154	87.04
802.334	193.53
802.514	234.49
802.693	164.86
802.873	154.62
803.053	267.26
803.233	228.35
803.413	228.35
803.592	160.77
803.772	226.3
803.952	201.72
804.131	113.66
804.311	154.62
804.491	138.24
804.67	220.16
804.85	162.81
805.03	107.52
805.209	168.96
805.389	142.33
805.568	103.42
805.748	152.57
805.928	187.39
806.107	144.38
806.287	162.81
806.466	130.05
806.646	154.62
806.825	142.33
807.004	207.87
807.184	187.39
807.363	144.38
807.543	175.1
807.722	218.11
807.901	136.19
808.081	148.48
808.26	189.44
808.439	203.77
808.619	175.1
808.798	197.63
808.977	121.85
809.156	160.77
809.336	211.96
809.515	136.19
809.694	113.66
809.873	183.29
810.052	140.29
810.231	136.19
810.411	125.95
810.59	173.05
810.769	146.43
810.948	263.16
811.127	95.23
811.306	123.9
811.485	134.14
811.664	201.72
811.843	177.15
812.022	105.47
812.201	95.23
812.38	148.48
812.559	113.66
812.737	144.38
812.916	103.42
813.095	97.28
813.274	68.61
813.453	214.01
813.632	132.09
813.811	197.63
813.989	87.04
814.168	136.19
814.347	68.61
814.526	95.23
814.704	138.24
814.883	166.91
815.062	87.04
815.24	138.24
815.419	115.71
815.598	140.29
815.776	46.08
815.955	187.39
816.133	154.62
816.312	82.94
816.49	121.85
816.669	162.81
816.847	115.71
817.026	54.27
817.204	121.85
817.383	70.65
817.561	89.09
817.74	78.85
817.918	74.75
818.097	87.04
818.275	58.37
818.453	78.85
818.632	160.77
818.81	130.05
818.988	111.61
819.167	105.47
819.345	64.51
819.523	66.56
819.701	80.89
819.879	160.77
820.058	168.96
820.236	191.49
820.414	48.13
820.592	128
820.77	82.94
820.948	89.09
821.127	121.85
821.305	119.81
821.483	105.47
821.661	158.72
821.839	107.52
822.017	33.79
822.195	87.04
822.373	123.9
822.551	66.56
822.729	89.09
822.907	56.32
823.085	117.76
823.262	87.04
823.44	107.52
823.618	37.89
823.796	162.81
823.974	66.56
824.152	177.15
824.329	99.33
824.507	48.13
824.685	93.18
824.863	128
825.04	99.33
825.218	62.46
825.396	58.37
825.574	70.65
825.751	25.6
825.929	58.37
826.107	78.85
826.284	121.85
826.462	56.32
826.639	31.74
826.817	111.61
826.994	39.94
827.172	-31.74
827.349	173.05
827.527	119.81
827.704	103.42
827.882	87.04
828.059	125.95
828.237	54.27
828.414	121.85
828.591	62.46
828.769	142.33
828.946	87.04
829.124	64.51
829.301	46.08
829.478	181.25
829.655	33.79
829.833	56.32
830.01	25.6
830.187	58.37
830.364	89.09
830.542	70.65
830.719	74.75
830.896	48.13
831.073	70.65
831.25	7.17
831.427	148.48
831.604	-33.79
831.782	29.7
831.959	121.85
832.136	91.13
832.313	78.85
832.49	13.31
832.667	60.42
832.844	54.27
833.021	121.85
833.198	7.17
833.374	66.56
833.551	62.46
833.728	29.7
833.905	111.61
834.082	44.03
834.259	148.48
834.436	95.23
834.612	97.28
834.789	48.13
834.966	107.52
835.143	107.52
835.319	-50.18
835.496	37.89
835.673	87.04
835.85	31.74
836.026	-1.02
836.203	93.18
836.38	70.65
836.556	82.94
836.733	60.42
836.909	162.81
837.086	46.08
837.262	54.27
837.439	66.56
837.616	-35.84
837.792	56.32
837.968	13.31
838.145	7.17
838.321	99.33
838.498	1.02
838.674	80.89
838.851	117.76
839.027	-33.79
839.203	46.08
839.38	87.04
839.556	80.89
839.732	156.67
839.909	37.89
840.085	109.57
840.261	39.94
840.437	144.38
840.614	39.94
840.79	95.23
840.966	33.79
841.142	50.18
841.318	58.37
841.494	128
841.671	39.94
841.847	72.7
842.023	29.7
842.199	144.38
842.375	74.75
842.551	21.5
842.727	29.7
842.903	93.18
843.079	27.65
843.255	58.37
843.431	54.27
843.607	74.75
843.783	-17.41
843.959	19.46
844.134	58.37
844.31	109.57
844.486	23.55
844.662	74.75
844.838	54.27
845.013	31.74
845.189	1.02
845.365	64.51
845.541	33.79
845.716	87.04
845.892	48.13
846.068	37.89
846.244	41.98
846.419	39.94
846.595	-3.07
846.77	-44.03
846.946	54.27
847.122	37.89
847.297	21.5
847.473	27.65
847.648	-21.5
847.824	62.46
847.999	1.02
848.175	74.75
848.35	31.74
848.526	62.46
848.701	-9.22
848.876	91.13
849.052	25.6
849.227	39.94
849.403	-3.07
849.578	-11.26
849.753	-3.07
849.929	5.12
850.104	-52.22
850.279	54.27
850.454	62.46
850.63	-19.46
850.805	-17.41
850.98	19.46
851.155	-19.46
851.33	15.36
851.505	7.17
851.681	70.65
851.856	-1.02
852.031	-5.12
852.206	58.37
852.381	56.32
852.556	46.08
852.731	15.36
852.906	87.04
853.081	29.7
853.256	29.7
853.431	33.79
853.606	25.6
853.781	5.12
853.956	-19.46
854.131	66.56
854.305	-5.12
854.48	17.41
854.655	-9.22
854.83	21.5
855.005	33.79
855.18	-17.41
855.354	56.32
855.529	68.61
855.704	-11.26
855.879	25.6
856.053	-60.42
856.228	46.08
856.403	44.03
856.577	70.65
856.752	19.46
856.926	37.89
857.101	-11.26
857.276	23.55
857.45	5.12
857.625	99.33
857.799	-9.22
857.974	50.18
858.148	37.89
858.323	68.61
858.497	31.74
858.672	21.5
858.846	-33.79
859.02	23.55
859.195	13.31
859.369	-48.13
859.543	-35.84
859.718	-3.07
859.892	82.94
860.066	80.89
860.241	66.56
860.415	29.7
860.589	33.79
860.763	-39.94
860.938	7.17
861.112	-7.17
861.286	23.55
861.46	62.46
861.634	35.84
861.808	-3.07
861.982	56.32
862.157	5.12
862.331	21.5
862.505	29.7
862.679	-3.07
862.853	-11.26
863.027	89.09
863.201	72.7
863.375	-13.31
863.549	-7.17
863.722	7.17
863.896	41.98
864.07	-9.22
864.244	48.13
864.418	37.89
864.592	-33.79
864.766	21.5
864.939	37.89
865.113	-17.41
865.287	17.41
865.461	-62.46
865.634	-21.5
865.808	-27.65
865.982	13.31
866.156	-50.18
866.329	-60.42
866.503	82.94
866.676	48.13
866.85	31.74
867.024	39.94
867.197	37.89
867.371	9.22
867.544	74.75
867.718	19.46
867.891	46.08
868.065	29.7
868.238	5.12
868.412	50.18
868.585	-21.5
868.759	-11.26
868.932	-19.46
869.105	-3.07
869.279	21.5
869.452	54.27
869.625	-19.46
869.799	13.31
869.972	-21.5
870.145	3.07
870.319	11.26
870.492	74.75
870.665	-31.74
870.838	13.31
871.011	-37.89
871.185	-3.07
871.358	-33.79
871.531	21.5
871.704	-1.02
871.877	21.5
872.05	-19.46
872.223	-68.61
872.396	29.7
872.569	58.37
872.742	-64.51
872.915	-1.02
873.088	-93.18
873.261	84.99
873.434	-27.65
873.607	23.55
873.78	62.46
873.953	1.02
874.126	5.12
874.299	-48.13
874.471	-5.12
874.644	46.08
874.817	48.13
874.99	17.41
875.163	-29.7
875.335	-7.17
875.508	-35.84
875.681	37.89
875.853	46.08
876.026	78.85
876.199	11.26
876.371	56.32
876.544	-13.31
876.717	-19.46
876.889	-1.02
877.062	13.31
877.234	62.46
877.407	-39.94
877.579	19.46
877.752	74.75
877.924	-39.94
878.097	3.07
878.269	-3.07
878.442	-15.36
878.614	-9.22
878.786	5.12
878.959	-33.79
879.131	74.75
879.303	-23.55
879.476	58.37
879.648	-3.07
879.82	50.18
879.993	1.02
880.165	-50.18
880.337	-44.03
880.509	-3.07
880.681	-7.17
880.854	-25.6
881.026	25.6
881.198	11.26
881.37	-33.79
881.542	-27.65
881.714	-17.41
881.886	-31.74
882.058	-31.74
882.23	15.36
882.402	23.55
882.574	64.51
882.746	23.55
882.918	48.13
883.09	-15.36
883.262	-50.18
883.434	-11.26
883.606	-5.12
883.778	13.31
883.95	-48.13
884.122	-23.55
884.293	-29.7
884.465	17.41
884.637	3.07
884.809	-97.28
884.98	41.98
885.152	50.18
885.324	39.94
885.496	-25.6
885.667	-19.46
885.839	-56.32
886.011	70.65
886.182	-19.46
886.354	29.7
886.525	-9.22
886.697	60.42
886.869	-52.22
887.04	-52.22
887.212	-11.26
887.383	54.27
887.555	-33.79
887.726	-11.26
887.897	13.31
888.069	-31.74
888.24	13.31
888.412	35.84
888.583	80.89
888.754	27.65
888.926	-13.31
889.097	21.5
889.268	13.31
889.44	-66.56
889.611	-91.13
889.782	-29.7
889.953	-35.84
890.125	78.85
890.296	-31.74
890.467	-74.75
890.638	-52.22
890.809	-23.55
890.98	-3.07
891.151	11.26
891.323	5.12
891.494	25.6
891.665	-52.22
891.836	-23.55
892.007	-35.84
892.178	13.31
892.349	48.13
892.52	-48.13
892.691	5.12
892.862	35.84
893.032	-64.51
893.203	37.89
893.374	13.31
893.545	5.12
893.716	-62.46
893.887	-7.17
894.057	-44.03
894.228	17.41
894.399	-56.32
894.57	5.12
894.74	-60.42
894.911	5.12
895.082	-52.22
895.253	-56.32
895.423	-19.46
895.594	-11.26
895.764	-1.02
895.935	-17.41
896.106	-60.42
896.276	-25.6
896.447	-11.26
896.617	37.89
896.788	-70.65
896.958	-13.31
897.129	-7.17
897.299	-7.17
897.47	-29.7
897.64	19.46
897.81	23.55
897.981	-50.18
898.151	7.17
898.322	-15.36
898.492	-35.84
898.662	74.75
898.832	-25.6
899.003	44.03
899.173	25.6
899.343	7.17
899.513	62.46
