Data from USB4F104151__70__14-17-23-173.txt Node

Date: Thu Mar 13 14:17:23 EDT 2025
User: louis
Spectrometer: USB4F10415
Trigger mode: 4
Integration Time (sec): 2.000000E-2
Scans to average: 1
Electric dark correction enabled: true
Nonlinearity correction enabled: false
Boxcar width: 0
XAxis mode: Wavelengths
Number of Pixels in Spectrum: 3648
>>>>>Begin Spectral Data<<<<<
178.204	-74.92
178.424	-74.92
178.644	-74.92
178.864	-58.54
179.084	-101.55
179.304	-42.15
179.524	-11.43
179.744	0.85
179.964	43.86
180.184	-29.87
180.404	-68.78
180.624	52.05
180.844	35.67
181.064	-56.49
181.283	15.19
181.503	7
181.723	54.1
181.943	29.52
182.163	52.05
182.383	-7.34
182.602	60.24
182.822	52.05
183.042	68.44
183.262	-17.58
183.482	13.14
183.701	45.91
183.921	50
184.141	43.86
184.361	62.29
184.58	-21.67
184.8	21.33
185.02	-9.39
185.239	11.09
185.459	41.81
185.679	-13.48
185.898	25.43
186.118	11.09
186.338	-1.19
186.557	43.86
186.777	17.24
186.997	19.29
187.216	37.72
187.436	54.1
187.655	56.15
187.875	78.68
188.095	45.91
188.314	47.96
188.534	70.48
188.753	-25.77
188.973	-13.48
189.192	25.43
189.412	-15.53
189.631	19.29
189.851	72.53
190.07	117.59
190.29	-29.87
190.509	19.29
190.729	62.29
190.948	72.53
191.168	115.54
191.387	52.05
191.607	13.14
191.826	101.2
192.045	-9.39
192.265	-19.63
192.484	-5.29
192.704	80.72
192.923	-76.97
193.142	166.74
193.362	52.05
193.581	29.52
193.8	4.95
194.02	-29.87
194.239	62.29
194.458	-3.24
194.678	-15.53
194.897	2.9
195.116	23.38
195.335	-1.19
195.555	19.29
195.774	-54.44
195.993	52.05
196.212	105.3
196.432	-17.58
196.651	54.1
196.87	-7.34
197.089	39.76
197.308	72.53
197.528	23.38
197.747	-36.01
197.966	7
198.185	52.05
198.404	-13.48
198.623	25.43
198.842	64.34
199.062	45.91
199.281	-19.63
199.5	2.9
199.719	19.29
199.938	19.29
200.157	68.44
200.376	45.91
200.595	-21.67
200.814	-9.39
201.033	7
201.252	93.01
201.471	82.77
201.69	21.33
201.909	-29.87
202.128	19.29
202.347	64.34
202.566	-5.29
202.785	27.48
203.004	-11.43
203.223	37.72
203.442	-5.29
203.661	60.24
203.879	15.19
204.098	37.72
204.317	39.76
204.536	68.44
204.755	-29.87
204.974	74.58
205.193	47.96
205.411	64.34
205.63	23.38
205.849	39.76
206.068	-23.72
206.287	117.59
206.505	35.67
206.724	-9.39
206.943	7
207.162	-1.19
207.381	-11.43
207.599	86.87
207.818	72.53
208.037	-79.02
208.255	-13.48
208.474	19.29
208.693	15.19
208.911	88.92
209.13	68.44
209.349	27.48
209.567	-13.48
209.786	68.44
210.005	-3.24
210.223	41.81
210.442	-5.29
210.661	72.53
210.879	84.82
211.098	35.67
211.316	-9.39
211.535	62.29
211.753	-23.72
211.972	-1.19
212.191	31.57
212.409	-33.96
212.628	58.2
212.846	-21.67
213.065	-15.53
213.283	23.38
213.502	4.95
213.72	86.87
213.938	64.34
214.157	21.33
214.375	35.67
214.594	-36.01
214.812	66.39
215.031	62.29
215.249	29.52
215.467	21.33
215.686	-5.29
215.904	62.29
216.122	-17.58
216.341	68.44
216.559	19.29
216.778	-21.67
216.996	-7.34
217.214	-5.29
217.432	35.67
217.651	-54.44
217.869	-5.29
218.087	-36.01
218.306	19.29
218.524	31.57
218.742	35.67
218.96	39.76
219.179	64.34
219.397	43.86
219.615	43.86
219.833	33.62
220.051	-1.19
220.27	52.05
220.488	-3.24
220.706	117.59
220.924	56.15
221.142	-42.15
221.36	50
221.578	62.29
221.796	21.33
222.015	-31.91
222.233	2.9
222.451	-25.77
222.669	33.62
222.887	29.52
223.105	2.9
223.323	-3.24
223.541	-29.87
223.759	9.05
223.977	-29.87
224.195	103.25
224.413	31.57
224.631	-17.58
224.849	-29.87
225.067	95.06
225.285	27.48
225.503	-17.58
225.721	-66.73
225.939	7
226.157	84.82
226.375	109.4
226.592	17.24
226.81	13.14
227.028	54.1
227.246	21.33
227.464	76.63
227.682	-21.67
227.9	60.24
228.117	72.53
228.335	-13.48
228.553	84.82
228.771	29.52
228.989	93.01
229.206	-58.54
229.424	-5.29
229.642	-13.48
229.86	17.24
230.077	-33.96
230.295	-5.29
230.513	-9.39
230.731	47.96
230.948	86.87
231.166	70.48
231.384	-42.15
231.601	37.72
231.819	-21.67
232.037	-11.43
232.254	-27.82
232.472	27.48
232.689	-46.25
232.907	56.15
233.125	70.48
233.342	43.86
233.56	45.91
233.777	23.38
233.995	-15.53
234.213	19.29
234.43	-5.29
234.648	29.52
234.865	35.67
235.083	23.38
235.3	-9.39
235.518	45.91
235.735	25.43
235.953	7
236.17	-66.73
236.388	90.96
236.605	-7.34
236.822	-11.43
237.04	-21.67
237.257	33.62
237.475	-27.82
237.692	52.05
237.909	93.01
238.127	4.95
238.344	19.29
238.562	7
238.779	-97.45
238.996	19.29
239.214	4.95
239.431	72.53
239.648	-38.06
239.865	13.14
240.083	33.62
240.3	-36.01
240.517	29.52
240.735	-5.29
240.952	11.09
241.169	25.43
241.386	-3.24
241.603	-1.19
241.821	-1.19
242.038	84.82
242.255	66.39
242.472	0.85
242.689	-13.48
242.907	60.24
243.124	31.57
243.341	86.87
243.558	-11.43
243.775	68.44
243.992	19.29
244.209	13.14
244.426	21.33
244.643	35.67
244.86	25.43
245.078	52.05
245.295	-38.06
245.512	-54.44
245.729	35.67
245.946	45.91
246.163	66.39
246.38	-29.87
246.597	-11.43
246.814	11.09
247.031	56.15
247.248	31.57
247.464	50
247.681	15.19
247.898	103.25
248.115	101.2
248.332	-33.96
248.549	43.86
248.766	62.29
248.983	68.44
249.2	70.48
249.417	54.1
249.633	19.29
249.85	62.29
250.067	64.34
250.284	33.62
250.501	17.24
250.717	11.09
250.934	45.91
251.151	27.48
251.368	-54.44
251.585	19.29
251.801	-15.53
252.018	19.29
252.235	80.72
252.451	-36.01
252.668	19.29
252.885	35.67
253.102	17.24
253.318	-42.15
253.535	-27.82
253.752	9.05
253.968	13.14
254.185	-15.53
254.401	72.53
254.618	2.9
254.835	39.76
255.051	127.83
255.268	70.48
255.484	-27.82
255.701	90.96
255.917	-5.29
256.134	-33.96
256.351	-25.77
256.567	2.9
256.784	-60.59
257	-5.29
257.217	58.2
257.433	31.57
257.65	27.48
257.866	54.1
258.082	-5.29
258.299	-56.49
258.515	7
258.732	70.48
258.948	-29.87
259.165	52.05
259.381	-21.67
259.597	7
259.814	27.48
260.03	4.95
260.246	62.29
260.463	19.29
260.679	-5.29
260.895	60.24
261.112	47.96
261.328	-5.29
261.544	82.77
261.761	29.52
261.977	41.81
262.193	9.05
262.409	19.29
262.626	2.9
262.842	-5.29
263.058	-81.07
263.274	68.44
263.49	27.48
263.707	43.86
263.923	11.09
264.139	-31.91
264.355	74.58
264.571	21.33
264.787	17.24
265.004	95.06
265.22	-5.29
265.436	82.77
265.652	43.86
265.868	-13.48
266.084	43.86
266.3	-70.83
266.516	0.85
266.732	39.76
266.948	45.91
267.164	54.1
267.38	23.38
267.596	60.24
267.812	21.33
268.028	33.62
268.244	-9.39
268.46	-9.39
268.676	33.62
268.892	-50.35
269.108	37.72
269.324	41.81
269.54	2.9
269.756	78.68
269.972	-27.82
270.188	35.67
270.403	-9.39
270.619	-11.43
270.835	47.96
271.051	-5.29
271.267	-15.53
271.483	27.48
271.698	19.29
271.914	33.62
272.13	31.57
272.346	76.63
272.562	-27.82
272.777	142.16
272.993	19.29
273.209	11.09
273.425	-3.24
273.64	68.44
273.856	68.44
274.072	-29.87
274.287	37.72
274.503	-25.77
274.719	23.38
274.934	29.52
275.15	11.09
275.366	68.44
275.581	-1.19
275.797	62.29
276.012	25.43
276.228	15.19
276.444	105.3
276.659	142.16
276.875	-11.43
277.09	68.44
277.306	2.9
277.521	47.96
277.737	-5.29
277.952	43.86
278.168	37.72
278.383	103.25
278.599	-42.15
278.814	-11.43
279.03	31.57
279.245	4.95
279.461	-23.72
279.676	-5.29
279.892	23.38
280.107	21.33
280.322	-3.24
280.538	43.86
280.753	60.24
280.969	74.58
281.184	21.33
281.399	-13.48
281.615	17.24
281.83	-36.01
282.045	-54.44
282.26	60.24
282.476	-38.06
282.691	29.52
282.906	-15.53
283.122	43.86
283.337	88.92
283.552	27.48
283.767	7
283.983	43.86
284.198	47.96
284.413	52.05
284.628	-13.48
284.843	-11.43
285.058	52.05
285.274	19.29
285.489	68.44
285.704	-3.24
285.919	105.3
286.134	-36.01
286.349	64.34
286.564	23.38
286.779	-3.24
286.995	33.62
287.21	-7.34
287.425	31.57
287.64	21.33
287.855	31.57
288.07	-17.58
288.285	43.86
288.5	52.05
288.715	54.1
288.93	41.81
289.145	15.19
289.36	-13.48
289.575	13.14
289.79	60.24
290.004	-46.25
290.219	23.38
290.434	62.29
290.649	45.91
290.864	37.72
291.079	52.05
291.294	11.09
291.509	52.05
291.724	41.81
291.938	-23.72
292.153	-11.43
292.368	2.9
292.583	68.44
292.798	109.4
293.012	62.29
293.227	-70.83
293.442	52.05
293.657	80.72
293.871	125.78
294.086	19.29
294.301	27.48
294.516	47.96
294.73	52.05
294.945	17.24
295.16	-7.34
295.374	78.68
295.589	-1.19
295.804	58.2
296.018	-66.73
296.233	4.95
296.447	54.1
296.662	-46.25
296.877	74.58
297.091	45.91
297.306	-21.67
297.52	50
297.735	101.2
297.949	-13.48
298.164	23.38
298.378	56.15
298.593	72.53
298.807	19.29
299.022	103.25
299.236	31.57
299.451	23.38
299.665	80.72
299.88	93.01
300.094	17.24
300.309	-52.39
300.523	78.68
300.737	35.67
300.952	39.76
301.166	-5.29
301.381	-25.77
301.595	7
301.809	52.05
302.024	39.76
302.238	0.85
302.452	27.48
302.667	27.48
302.881	-5.29
303.095	43.86
303.309	43.86
303.524	45.91
303.738	43.86
303.952	60.24
304.166	52.05
304.381	-38.06
304.595	93.01
304.809	35.67
305.023	109.4
305.237	-21.67
305.452	11.09
305.666	64.34
305.88	52.05
306.094	17.24
306.308	52.05
306.522	78.68
306.736	27.48
306.95	25.43
307.164	72.53
307.379	2.9
307.593	56.15
307.807	31.57
308.021	97.11
308.235	82.77
308.449	56.15
308.663	21.33
308.877	37.72
309.091	-29.87
309.305	17.24
309.519	117.59
309.733	29.52
309.947	-36.01
310.161	68.44
310.374	86.87
310.588	43.86
310.802	-62.63
311.016	19.29
311.23	-11.43
311.444	68.44
311.658	23.38
311.872	101.2
312.085	39.76
312.299	70.48
312.513	62.29
312.727	19.29
312.941	23.38
313.154	64.34
313.368	4.95
313.582	47.96
313.796	-19.63
314.009	144.21
314.223	62.29
314.437	60.24
314.651	70.48
314.864	19.29
315.078	37.72
315.292	-11.43
315.505	27.48
315.719	95.06
315.933	33.62
316.146	-29.87
316.36	9.05
316.573	78.68
316.787	66.39
317.001	43.86
317.214	-3.24
317.428	11.09
317.641	-9.39
317.855	50
318.068	17.24
318.282	125.78
318.495	88.92
318.709	56.15
318.922	11.09
319.136	95.06
319.349	25.43
319.563	7
319.776	41.81
319.99	-56.49
320.203	56.15
320.417	95.06
320.63	80.72
320.843	78.68
321.057	78.68
321.27	58.2
321.483	-31.91
321.697	84.82
321.91	17.24
322.124	11.09
322.337	43.86
322.55	58.2
322.763	119.64
322.977	78.68
323.19	43.86
323.403	23.38
323.617	2.9
323.83	109.4
324.043	2.9
324.256	47.96
324.469	19.29
324.683	52.05
324.896	43.86
325.109	23.38
325.322	11.09
325.535	35.67
325.748	-25.77
325.962	47.96
326.175	58.2
326.388	76.63
326.601	43.86
326.814	4.95
327.027	27.48
327.24	13.14
327.453	27.48
327.666	-7.34
327.879	31.57
328.092	29.52
328.305	23.38
328.518	64.34
328.731	41.81
328.944	45.91
329.157	17.24
329.37	58.2
329.583	31.57
329.796	101.2
330.009	-19.63
330.222	45.91
330.435	35.67
330.648	-54.44
330.861	2.9
331.073	47.96
331.286	2.9
331.499	35.67
331.712	41.81
331.925	107.35
332.138	60.24
332.35	68.44
332.563	39.76
332.776	35.67
332.989	-40.11
333.202	29.52
333.414	-44.2
333.627	2.9
333.84	80.72
334.053	115.54
334.265	76.63
334.478	62.29
334.691	80.72
334.903	-9.39
335.116	54.1
335.329	52.05
335.541	33.62
335.754	133.97
335.966	-21.67
336.179	54.1
336.392	62.29
336.604	25.43
336.817	45.91
337.029	35.67
337.242	-17.58
337.454	45.91
337.667	84.82
337.88	60.24
338.092	90.96
338.305	70.48
338.517	-3.24
338.729	84.82
338.942	54.1
339.154	35.67
339.367	-3.24
339.579	35.67
339.792	11.09
340.004	66.39
340.217	29.52
340.429	74.58
340.641	-25.77
340.854	11.09
341.066	-17.58
341.278	27.48
341.491	54.1
341.703	27.48
341.915	15.19
342.128	84.82
342.34	-1.19
342.552	101.2
342.764	76.63
342.977	62.29
343.189	54.1
343.401	13.14
343.613	-25.77
343.826	68.44
344.038	4.95
344.25	56.15
344.462	41.81
344.674	25.43
344.886	17.24
345.099	27.48
345.311	39.76
345.523	-13.48
345.735	-46.25
345.947	43.86
346.159	29.52
346.371	7
346.583	-9.39
346.795	144.21
347.007	41.81
347.219	136.02
347.431	21.33
347.643	4.95
347.855	17.24
348.067	68.44
348.279	7
348.491	58.2
348.703	95.06
348.915	54.1
349.127	62.29
349.339	39.76
349.551	11.09
349.763	39.76
349.975	-1.19
350.187	84.82
350.399	41.81
350.61	64.34
350.822	62.29
351.034	68.44
351.246	52.05
351.458	7
351.669	68.44
351.881	45.91
352.093	25.43
352.305	39.76
352.517	2.9
352.728	56.15
352.94	33.62
353.152	33.62
353.363	7
353.575	25.43
353.787	60.24
353.999	37.72
354.21	62.29
354.422	11.09
354.633	52.05
354.845	70.48
355.057	39.76
355.268	95.06
355.48	84.82
355.692	-66.73
355.903	54.1
356.115	23.38
356.326	25.43
356.538	93.01
356.749	-17.58
356.961	78.68
357.172	99.16
357.384	27.48
357.595	95.06
357.807	68.44
358.018	97.11
358.23	29.52
358.441	-11.43
358.653	31.57
358.864	31.57
359.075	45.91
359.287	39.76
359.498	2.9
359.709	52.05
359.921	52.05
360.132	11.09
360.344	66.39
360.555	23.38
360.766	52.05
360.977	29.52
361.189	39.76
361.4	13.14
361.611	72.53
361.823	2.9
362.034	60.24
362.245	-29.87
362.456	27.48
362.667	60.24
362.879	52.05
363.09	25.43
363.301	37.72
363.512	43.86
363.723	2.9
363.935	52.05
364.146	54.1
364.357	58.2
364.568	93.01
364.779	37.72
364.99	23.38
365.201	-5.29
365.412	82.77
365.623	80.72
365.834	95.06
366.045	15.19
366.256	50
366.467	82.77
366.678	58.2
366.889	64.34
367.1	23.38
367.311	-17.58
367.522	103.25
367.733	109.4
367.944	93.01
368.155	-1.19
368.366	39.76
368.577	19.29
368.788	43.86
368.999	78.68
369.209	45.91
369.42	103.25
369.631	86.87
369.842	-23.72
370.053	11.09
370.264	23.38
370.474	19.29
370.685	11.09
370.896	93.01
371.107	27.48
371.317	72.53
371.528	56.15
371.739	86.87
371.95	19.29
372.16	72.53
372.371	80.72
372.582	54.1
372.792	21.33
373.003	76.63
373.214	35.67
373.424	31.57
373.635	62.29
373.846	78.68
374.056	-1.19
374.267	4.95
374.477	19.29
374.688	31.57
374.898	17.24
375.109	19.29
375.319	78.68
375.53	39.76
375.74	21.33
375.951	68.44
376.161	-7.34
376.372	39.76
376.582	19.29
376.793	60.24
377.003	23.38
377.214	35.67
377.424	35.67
377.635	95.06
377.845	43.86
378.055	90.96
378.266	27.48
378.476	82.77
378.686	19.29
378.897	76.63
379.107	64.34
379.317	64.34
379.528	2.9
379.738	37.72
379.948	15.19
380.158	93.01
380.369	99.16
380.579	78.68
380.789	31.57
380.999	-5.29
381.21	80.72
381.42	60.24
381.63	78.68
381.84	84.82
382.05	101.2
382.261	125.78
382.471	93.01
382.681	47.96
382.891	-1.19
383.101	43.86
383.311	54.1
383.521	23.38
383.731	56.15
383.941	86.87
384.151	2.9
384.361	23.38
384.571	39.76
384.781	70.48
384.991	95.06
385.201	43.86
385.411	35.67
385.621	56.15
385.831	84.82
386.041	35.67
386.251	-27.82
386.461	111.44
386.671	-50.35
386.881	136.02
387.091	113.49
387.301	84.82
387.511	56.15
387.72	43.86
387.93	93.01
388.14	72.53
388.35	95.06
388.56	72.53
388.769	54.1
388.979	64.34
389.189	11.09
389.399	43.86
389.609	74.58
389.818	129.88
390.028	35.67
390.238	62.29
390.447	52.05
390.657	82.77
390.867	113.49
391.076	45.91
391.286	-3.24
391.496	93.01
391.705	15.19
391.915	74.58
392.125	76.63
392.334	-5.29
392.544	56.15
392.753	33.62
392.963	93.01
393.172	68.44
393.382	25.43
393.591	97.11
393.801	52.05
394.01	113.49
394.22	84.82
394.429	95.06
394.639	23.38
394.848	117.59
395.058	121.68
395.267	19.29
395.477	119.64
395.686	35.67
395.895	115.54
396.105	154.45
396.314	160.59
396.524	78.68
396.733	95.06
396.942	117.59
397.152	103.25
397.361	117.59
397.57	93.01
397.78	68.44
397.989	93.01
398.198	45.91
398.407	105.3
398.617	133.97
398.826	101.2
399.035	187.22
399.244	121.68
399.453	136.02
399.663	158.55
399.872	93.01
400.081	58.2
400.29	84.82
400.499	76.63
400.708	136.02
400.917	74.58
401.127	142.16
401.336	80.72
401.545	136.02
401.754	93.01
401.963	93.01
402.172	125.78
402.381	84.82
402.59	142.16
402.799	129.88
403.008	37.72
403.217	119.64
403.426	183.12
403.635	39.76
403.844	113.49
404.053	109.4
404.262	127.83
404.471	146.26
404.68	152.4
404.888	142.16
405.097	47.96
405.306	111.44
405.515	150.36
405.724	203.6
405.933	179.03
406.142	146.26
406.35	162.64
406.559	201.55
406.768	136.02
406.977	226.13
407.185	250.71
407.394	269.14
407.603	189.27
407.812	209.75
408.02	297.81
408.229	248.66
408.438	289.62
408.646	336.72
408.855	285.52
409.064	316.24
409.272	293.71
409.481	373.58
409.69	322.38
409.898	334.67
410.107	314.19
410.315	330.58
410.524	369.49
410.733	361.3
410.941	418.64
411.15	381.78
411.358	389.97
411.567	359.25
411.775	389.97
411.984	453.45
412.192	428.88
412.401	506.7
412.609	471.89
412.818	502.61
413.026	518.99
413.234	500.56
413.443	510.8
413.651	553.8
413.86	590.67
414.068	723.79
414.276	656.2
414.485	666.44
414.693	740.17
414.901	740.17
415.11	756.55
415.318	748.36
415.526	736.07
415.734	813.9
415.943	867.14
416.151	920.39
416.359	961.35
416.567	906.06
416.776	1006.41
416.984	1051.46
417.192	1026.89
417.4	990.02
417.608	1037.13
417.817	1063.75
418.025	1190.72
418.233	1190.72
418.441	1186.63
418.649	1243.97
418.857	1346.37
419.065	1483.58
419.273	1329.99
419.481	1424.19
419.689	1518.4
419.897	1534.78
420.105	1678.14
420.313	1674.04
420.521	1772.35
420.729	1723.2
420.937	1837.88
421.145	1862.46
421.353	2001.72
421.561	2157.36
421.769	2157.36
421.977	2263.86
422.185	2253.62
422.393	2360.11
422.601	2466.61
422.809	2491.18
423.017	2485.04
423.224	2566.96
423.432	2818.86
423.64	2667.31
423.848	3091.24
424.056	2865.96
424.263	3015.46
424.471	2976.55
424.679	3126.05
424.887	3339.04
425.094	3435.3
425.302	3502.88
425.51	3545.89
425.718	3656.48
425.925	3537.7
426.133	3791.64
426.341	3935
426.548	4272.92
426.756	4143.89
426.964	4295.44
427.171	4463.38
427.379	4623.12
427.586	4713.23
427.794	4756.24
428.001	4840.2
428.209	5176.07
428.417	4999.95
428.624	5495.55
428.832	5532.42
429.039	5520.13
429.247	5372.68
429.454	5991.16
429.662	6367.99
429.869	6146.81
430.076	6503.15
430.284	6294.26
430.491	6566.64
430.699	6808.3
430.906	6982.38
431.114	6884.08
431.321	7340.77
431.528	7385.83
431.736	7705.31
431.943	8223.45
432.15	8028.89
432.358	8096.47
432.565	8579.79
432.772	8432.34
432.979	8745.68
433.187	9142.99
433.394	9145.03
433.601	9683.65
433.808	9933.5
434.016	9624.26
434.223	10007.23
434.43	10793.65
434.637	10601.14
434.844	11119.28
435.052	11313.83
435.259	11242.15
435.466	11440.81
435.673	11135.66
435.88	12067.49
436.087	12747.41
436.294	12716.69
436.501	12540.57
436.708	12626.58
436.915	13044.37
437.122	13589.13
437.329	13634.18
437.537	13912.71
437.743	14140.03
437.95	14185.08
438.157	14703.22
438.364	15329.9
438.571	15252.08
438.778	15393.39
438.985	16970.32
439.192	16052.83
439.399	16845.4
439.606	16374.36
439.813	17168.98
440.02	18229.82
440.227	17789.51
440.433	17580.62
440.64	18256.45
440.847	18436.67
441.054	18711.1
441.261	19968.55
441.467	19327.53
441.674	19831.33
441.881	20636.19
442.088	20863.51
442.294	20830.74
442.501	21060.12
442.708	21299.73
442.914	21971.46
443.121	23079.41
443.328	22227.46
443.534	24138.21
443.741	23038.45
443.948	23099.89
444.154	24881.63
444.361	24783.32
444.568	24605.15
444.774	24988.12
444.981	25231.83
445.187	25479.63
445.394	26788.28
445.6	26651.07
445.807	28991.9
446.013	27822.51
446.22	28076.46
446.426	29464.98
446.633	29493.65
446.839	30800.26
447.046	29305.24
447.252	30847.36
447.459	30984.57
447.665	30742.91
447.871	32029.04
448.078	33638.74
448.284	32113
448.491	32768.35
448.697	34111.82
448.903	34589
449.11	34709.83
449.316	34165.07
449.522	34769.22
449.728	36139.31
449.935	35813.68
450.141	35938.61
450.347	36735.27
450.553	35615.03
450.76	36200.75
450.966	37523.74
451.172	36907.3
451.378	37810.45
451.584	37153.05
451.791	37663
451.997	37822.74
452.203	38277.39
452.409	38750.47
452.615	37861.65
452.821	36845.86
453.027	36407.59
453.233	38420.75
453.44	36757.8
453.646	37271.84
453.852	37738.77
454.058	38021.39
454.264	36862.24
454.47	37697.81
454.676	36276.52
454.882	37886.23
455.088	35088.7
455.294	35365.18
455.5	35680.56
455.705	36239.66
455.911	34398.54
456.117	34009.42
456.323	33700.18
456.529	31852.91
456.735	33505.62
456.941	32307.56
457.147	31949.17
457.352	30966.14
457.558	30843.26
457.764	30423.43
457.97	30101.9
458.176	29618.58
458.381	29159.83
458.587	27914.67
458.793	27896.24
458.999	26175.94
459.204	27926.96
459.41	27505.07
459.616	26302.92
459.821	26143.17
460.027	26255.81
460.233	25471.44
460.438	24201.7
460.644	24271.33
460.85	23185.91
461.055	22852.09
461.261	22811.13
461.466	20994.58
461.672	20410.91
461.878	21838.34
462.083	20474.4
462.289	19919.4
462.494	19642.92
462.7	18741.82
462.905	18567.74
463.111	18997.81
463.316	19225.14
463.522	18657.85
463.727	18889.27
463.932	18768.44
464.138	18485.82
464.343	18909.75
464.549	18025.03
464.754	18750.01
464.959	18725.43
465.165	18303.55
465.37	17629.77
465.575	17101.39
465.781	17871.43
465.986	17941.06
466.191	17406.54
466.397	16998.99
466.602	16136.8
466.807	16689.75
467.012	16845.4
467.218	16474.71
467.423	16452.19
467.628	16835.16
467.833	17326.67
468.038	16550.49
468.244	15981.15
468.449	16869.97
468.654	16077.41
468.859	16341.6
469.064	15788.64
469.269	15575.66
469.474	15710.82
469.679	15686.25
469.885	15526.5
470.09	15485.55
470.295	15719.01
470.5	15039.09
470.705	15372.91
470.91	14973.55
471.115	14920.31
471.32	14977.65
471.525	14901.87
471.73	14451.32
471.935	14531.19
472.139	13900.42
472.344	14391.93
472.549	13996.67
472.754	13951.62
472.959	13740.68
473.164	13398.66
473.369	13243.02
473.574	13685.38
473.778	13337.23
473.983	13734.53
474.188	13374.09
474.393	12526.23
474.598	12987.02
474.802	12511.89
475.007	12487.32
475.212	12438.17
475.417	12274.33
475.621	12270.23
475.826	12182.17
476.031	11842.21
476.235	11692.71
476.44	12018.33
476.645	11733.67
476.849	11733.67
477.054	11475.62
477.259	11346.6
477.463	11274.92
477.668	10971.82
477.872	11246.25
478.077	10998.45
478.282	10748.59
478.486	10666.67
478.691	10742.45
478.895	10771.12
479.1	10490.55
479.304	10525.36
479.509	10310.33
479.713	10474.17
479.918	10134.2
480.122	10048.19
480.326	10195.64
480.531	10281.66
480.735	9845.44
480.94	9986.75
481.144	10197.69
481.348	9902.78
481.553	10066.62
481.757	9779.9
481.961	9841.34
482.166	9857.73
482.37	9947.84
482.574	9706.18
482.778	9671.36
482.983	9863.87
483.187	9802.43
483.391	9933.5
483.595	9687.75
483.8	9917.12
484.004	9743.04
484.208	9841.34
484.412	9763.52
484.616	9974.46
484.821	9824.96
485.025	9671.36
485.229	9827.01
485.433	9691.84
485.637	9784
485.841	9523.91
486.045	9804.48
486.249	9880.25
486.453	9568.96
486.657	9792.19
486.861	9857.73
487.065	9581.25
487.269	9736.9
487.473	9640.64
487.677	9867.97
487.881	9941.69
488.085	9638.59
488.289	9824.96
488.493	9728.7
488.697	9933.5
488.901	9700.03
489.105	9829.06
489.309	9943.74
489.512	9990.84
489.716	9933.5
489.92	9865.92
490.124	9833.15
490.328	10273.46
490.531	10050.24
490.735	10072.76
490.939	9970.37
491.143	9829.06
491.346	10029.76
491.55	10410.68
491.754	10275.51
491.958	10183.35
492.161	10189.5
492.365	10222.27
492.569	10261.18
492.772	10255.03
492.976	10369.72
493.18	10324.66
493.383	10414.77
493.587	10513.08
493.79	10742.45
493.994	10615.48
494.197	10656.43
494.401	10865.33
494.605	10883.76
494.808	10875.57
495.012	11135.66
495.215	11131.56
495.419	11121.32
495.622	11193
495.825	11416.23
496.029	11279.02
496.232	11559.59
496.436	11586.21
496.639	11750.05
496.843	11825.82
497.046	12028.57
497.249	12169.88
497.453	12034.72
497.656	12034.72
497.859	12360.34
498.063	12532.37
498.266	12866.19
498.469	12573.33
498.673	12890.77
498.876	12974.74
499.079	13234.83
499.282	13046.41
499.485	13417.1
499.689	13404.81
499.892	13752.96
500.095	13546.12
500.298	14264.96
500.501	13990.53
500.705	14355.07
500.908	14355.07
501.111	14412.41
501.314	14783.09
501.517	14789.24
501.72	15002.22
501.923	15008.37
502.126	15047.28
502.329	15628.9
502.532	15790.69
502.735	15690.34
502.938	16136.8
503.141	16058.98
503.344	16439.9
503.547	16579.16
503.75	16740.95
503.953	16900.69
504.156	16880.21
504.359	17082.96
504.562	16966.23
504.765	17664.58
504.968	17824.33
505.17	18180.67
505.373	18031.17
505.576	18192.96
505.779	18592.31
505.982	18723.38
506.185	19046.96
506.387	19132.98
506.59	19092.02
506.793	19315.25
506.996	19409.45
507.198	20218.4
507.401	20175.39
507.604	20130.34
507.807	20654.62
508.009	20810.26
508.212	20625.95
508.415	21226
508.617	21484.05
508.82	21547.53
509.022	21350.93
509.225	21672.46
509.428	21950.98
509.63	22278.66
509.833	22616.57
510.035	22964.73
510.238	22888.95
510.44	23450.1
510.643	23605.74
510.845	23392.75
511.048	23818.73
511.25	23886.31
511.453	23867.88
511.655	24977.88
511.858	24707.55
512.06	24736.22
512.262	25299.41
512.465	25332.18
512.667	25616.85
512.87	25792.97
513.072	25792.97
513.274	26307.01
513.477	26483.14
513.679	26776
513.881	27212.21
514.084	27410.87
514.286	27537.84
514.488	27486.64
514.69	27890.09
514.893	27845.04
515.095	28590.5
515.297	28809.63
515.499	28817.82
515.701	29256.09
515.904	29444.5
516.106	29866.38
516.308	29936.01
516.51	30282.12
516.712	30312.84
516.914	30566.79
517.116	31271.29
517.318	31142.27
517.52	31238.52
517.722	31519.09
517.925	31926.64
518.127	32450.92
518.329	32471.4
518.531	32639.33
518.733	33016.16
518.935	33382.74
519.136	33114.46
519.338	33778
519.54	33841.49
519.742	34380.1
519.944	34470.22
520.146	34838.85
520.348	35187
520.55	35084.61
520.752	35502.39
520.954	36227.37
521.155	35496.25
521.357	36282.67
521.559	36667.69
521.761	36645.16
521.963	36911.39
522.164	37249.31
522.366	37443.87
522.568	37427.48
522.77	38076.69
522.971	38353.16
523.173	37794.07
523.375	38107.41
523.576	38652.17
523.778	38811.91
523.98	39207.17
524.181	39395.58
524.383	39133.44
524.584	39735.54
524.786	40093.94
524.988	39487.74
525.189	40177.9
525.391	41087.2
525.592	40587.5
525.794	40794.34
525.995	40974.56
526.197	41079.01
526.398	41097.44
526.6	41554.14
526.801	41457.88
527.003	41898.2
527.204	41994.45
527.406	42096.85
527.607	41951.45
527.808	42477.77
528.01	41887.96
528.211	42555.6
528.412	42836.17
528.614	43002.05
528.815	42830.02
529.016	43053.25
529.218	42862.79
529.419	43272.39
529.62	43071.68
529.822	43059.4
530.023	43221.19
530.224	43524.29
530.425	43495.61
530.626	42903.75
530.828	43227.33
531.029	44200.11
531.23	43350.21
531.431	43348.16
531.632	43923.64
531.833	44005.56
532.035	43952.31
532.236	43872.44
532.437	43931.83
532.638	43313.34
532.839	43835.58
533.04	44118.2
533.241	43811
533.442	44587.18
533.643	43915.45
533.844	44169.4
534.045	44073.14
534.246	43641.02
534.447	44691.63
534.648	43958.45
534.849	44404.91
535.05	43610.3
535.251	44259.51
535.451	43862.2
535.652	44150.96
535.853	44296.37
536.054	44316.85
536.255	44421.3
536.456	43671.74
536.657	44683.44
536.857	44056.76
537.058	43647.16
537.259	44366
537.46	44243.12
537.66	44546.22
537.861	44351.66
538.062	44185.78
538.263	44650.67
538.463	44193.97
538.664	44148.92
538.865	43993.27
539.065	44560.56
539.266	43780.28
539.466	44257.46
539.667	43978.93
539.868	44837.03
540.068	44099.76
540.269	43974.84
540.469	44495.02
540.67	43952.31
540.87	43989.17
541.071	44193.97
541.271	44105.91
541.472	44095.67
541.672	44093.62
541.873	44118.2
542.073	43468.99
542.274	44298.42
542.474	43813.05
542.675	43731.13
542.875	44357.81
543.075	44341.42
543.276	43696.31
543.476	44402.86
543.676	44052.66
543.877	43894.97
544.077	44050.61
544.277	44245.17
544.478	43886.78
544.678	44032.18
544.878	44013.75
545.078	43987.13
545.279	43706.55
545.479	43976.89
545.679	44030.13
545.879	43688.12
546.079	43606.2
546.28	43919.54
546.48	43892.92
546.68	43741.37
546.88	44040.37
547.08	44138.68
547.28	43694.27
547.48	43337.92
547.68	44081.33
547.88	43575.48
548.081	43929.78
548.281	43720.89
548.481	43366.59
548.681	43786.43
548.881	43802.81
549.081	43616.44
549.28	43684.03
549.48	43786.43
549.68	43700.41
549.88	43870.39
550.08	43147.46
550.28	43800.76
550.48	43626.68
550.68	43796.67
550.88	43544.76
551.08	43335.87
551.279	43688.12
551.479	43178.18
551.679	43763.9
551.879	43524.29
552.079	43368.64
552.278	43380.93
552.478	43434.17
552.678	43659.45
552.878	44155.06
553.077	43487.42
553.277	43139.27
553.477	44032.18
553.676	43763.9
553.876	43280.58
554.076	43360.45
554.275	42936.52
554.475	43108.55
554.674	43006.15
554.874	43274.43
555.074	42975.43
555.273	43212.99
555.473	43190.47
555.672	42653.9
555.872	42756.3
556.071	43006.15
556.271	43155.65
556.47	43106.5
556.67	42776.78
556.869	42647.75
557.068	42981.57
557.268	42434.77
557.467	42385.61
557.667	42819.78
557.866	42711.24
558.065	42627.27
558.265	42297.55
558.464	42547.4
558.663	42959.05
558.863	42164.43
559.062	42975.43
559.261	42170.58
559.461	42698.95
559.66	41855.19
559.859	42649.8
560.058	42084.56
560.258	42201.3
560.457	42129.62
560.656	42524.88
560.855	41949.4
561.054	42123.47
561.253	41918.68
561.453	41773.27
561.652	42113.23
561.851	41650.39
562.05	41556.19
562.249	41416.93
562.448	42051.8
562.647	41480.41
562.846	41408.73
563.045	41287.9
563.244	41128.16
563.443	41654.49
563.642	40524.01
563.841	41251.04
564.04	40706.28
564.239	41214.18
564.438	41310.43
564.637	41009.38
564.836	41177.31
565.035	40790.25
565.234	40620.27
565.432	40233.2
565.631	40610.03
565.83	40773.86
566.029	40218.86
566.228	40323.31
566.427	40384.75
566.625	39809.27
566.824	39899.38
567.023	40198.38
567.222	39643.38
567.42	40345.84
567.619	39874.8
567.818	39573.75
568.016	39575.8
568.215	40161.52
568.414	39397.63
568.612	39889.14
568.811	39559.42
569.01	39473.4
569.208	39153.92
569.407	39461.12
569.605	39153.92
569.804	39332.09
570.002	38678.79
570.201	39153.92
570.4	38607.11
570.598	38414.6
570.797	38353.16
570.995	38754.57
571.193	38383.88
571.392	38502.67
571.59	38295.82
571.789	38181.13
571.987	38181.13
572.186	38150.42
572.384	37988.63
572.582	38086.93
572.781	38297.87
572.979	37419.29
573.177	37685.53
573.376	37638.42
573.574	37433.63
573.772	37505.31
573.971	37335.32
574.169	37114.14
574.367	36858.15
574.565	37443.87
574.763	37026.08
574.962	37081.38
575.16	36555.05
575.358	36673.83
575.556	36700.45
575.754	36913.44
575.952	36034.86
576.151	37153.05
576.349	36399.4
576.547	36393.26
576.745	36305.2
576.943	36221.23
577.141	36133.17
577.339	36110.64
577.537	35793.2
577.735	35854.64
577.933	35557.69
578.131	35479.86
578.329	35649.85
578.527	35340.6
578.725	35094.85
578.923	35500.34
579.121	35281.21
579.319	35225.92
579.516	35385.66
579.714	34998.59
579.912	34933.06
580.11	35080.51
580.308	34824.51
580.506	35051.84
580.704	34038.09
580.901	34689.35
581.099	34605.38
581.297	34294.09
581.495	34181.45
581.692	34203.98
581.89	34079.05
582.088	34457.93
582.285	34023.76
582.483	34091.34
582.681	34017.61
582.878	33704.28
583.076	33618.26
583.274	33638.74
583.471	33034.59
583.669	33806.67
583.866	33212.76
584.064	33464.66
584.262	32942.43
584.459	33149.28
584.657	32964.96
584.854	33200.47
585.052	32219.5
585.249	32827.74
585.447	32868.7
585.644	32467.3
585.841	32524.65
586.039	32612.71
586.236	32151.91
586.434	32223.59
586.631	31766.9
586.828	32233.83
587.026	31875.44
587.223	32162.15
587.42	31730.03
587.618	32061.8
587.815	31592.82
588.012	31390.07
588.21	31338.87
588.407	31443.32
588.604	31244.66
588.801	31129.98
588.999	31117.69
589.196	31105.4
589.393	30890.37
589.59	30882.17
589.787	30769.54
589.984	30787.97
590.182	30390.66
590.379	30820.74
590.576	30413.19
590.773	30458.24
590.97	30546.31
591.167	30228.87
591.364	29942.16
591.561	30163.34
591.758	29890.96
591.955	30038.41
592.152	30122.38
592.349	29680.02
592.546	29720.98
592.743	29780.37
592.94	29237.66
593.137	29616.53
593.334	29671.82
593.531	29235.61
593.727	29174.17
593.924	29190.55
594.121	28574.11
594.318	28971.42
594.515	28711.33
594.712	28993.95
594.908	28555.68
595.105	28678.56
595.302	28391.84
595.499	28326.31
595.696	28291.49
595.892	28088.74
596.089	28291.49
596.286	28463.52
596.482	27924.91
596.679	28180.9
596.876	28150.18
597.072	27914.67
597.269	28082.6
597.466	27640.24
597.662	27632.05
597.859	27558.32
598.055	27857.32
598.252	27255.22
598.448	27111.86
598.645	27195.83
598.841	26978.75
599.038	27136.44
599.234	26853.82
599.431	26534.34
599.627	26479.04
599.824	27054.52
600.02	26505.66
600.217	26681.79
600.413	26466.75
600.609	26315.2
600.806	26241.48
601.002	26182.09
601.198	26350.02
601.395	25999.82
601.591	25909.71
601.787	25973.19
601.984	25725.39
602.18	25967.05
602.376	25500.11
602.572	25774.54
602.769	25868.75
602.965	25690.57
603.161	25485.78
603.357	25215.44
603.553	25393.62
603.75	25272.79
603.946	24783.32
604.142	25170.39
604.338	24791.52
604.534	25094.61
604.73	24850.91
604.926	24642.01
605.122	24844.76
605.318	24617.44
605.514	24766.94
605.71	24512.99
605.906	24695.26
606.102	24394.21
606.298	24418.78
606.494	24488.42
606.69	24447.46
606.886	24426.98
607.082	24107.49
607.278	24353.25
607.474	24175.08
607.67	24150.5
607.866	23642.6
608.062	23890.41
608.257	23820.78
608.453	23804.39
608.649	23609.84
608.845	23468.53
609.041	23441.9
609.236	23362.03
609.432	23437.81
609.628	23575.02
609.824	23437.81
610.019	23290.35
610.215	23308.79
610.411	23523.82
610.606	23372.27
610.802	23245.3
610.998	23120.37
611.193	23034.36
611.389	22940.15
611.584	22942.2
611.78	23212.53
611.976	23101.94
612.171	23331.31
612.367	22731.26
612.562	22620.67
612.758	22649.34
612.953	22696.44
613.149	22774.27
613.344	22407.68
613.539	22819.32
613.735	22571.52
613.93	22327.81
614.126	22454.78
614.321	22741.5
614.517	22039.05
614.712	22379.01
614.907	21957.13
615.103	22325.76
615.298	22256.13
615.493	22569.47
615.688	21842.44
615.884	22200.83
616.079	21877.26
616.274	22245.89
616.47	21676.55
616.665	22071.81
616.86	21965.32
617.055	21707.27
617.25	21809.67
617.445	21783.05
617.641	21522.96
617.836	21649.93
618.031	21398.03
618.226	21588.49
618.421	21455.37
618.616	21477.9
618.811	21244.43
619.006	21531.15
619.201	20832.79
619.396	21019.16
619.591	20879.89
619.786	20965.91
619.981	20732.44
620.176	20888.09
620.371	20646.43
620.566	20603.42
620.761	20468.25
620.956	20830.74
621.151	20101.67
621.346	20228.64
621.541	19954.21
621.735	19933.73
621.93	19642.92
622.125	19714.6
622.32	19444.27
622.515	19843.62
622.709	19685.93
622.904	19360.3
623.099	19282.48
623.294	19096.11
623.488	19132.98
623.683	19063.35
623.878	18610.75
624.072	18741.82
624.267	19071.54
624.462	18575.93
624.656	18256.45
624.851	18489.92
625.046	18246.21
625.24	18152
625.435	18211.39
625.629	18025.03
625.824	17965.64
626.018	17871.43
626.213	17400.4
626.407	17642.06
626.602	17535.56
626.796	17607.24
626.991	17558.09
627.185	17175.12
627.38	17164.88
627.574	16941.65
627.768	16861.78
627.963	16943.7
628.157	16880.21
628.352	16849.49
628.546	16407.13
628.74	16738.9
628.935	16568.92
629.129	16517.72
629.323	16319.07
629.517	16306.78
629.712	16392.8
629.906	16269.92
630.1	16083.55
630.294	15790.69
630.489	15696.49
630.683	16108.13
630.877	15667.81
631.071	15526.5
631.265	15506.02
631.459	15549.03
631.653	15170.16
631.848	15329.9
632.042	15141.49
632.236	15114.86
632.43	15116.91
632.624	15102.57
632.818	14797.43
633.012	14856.82
633.206	14658.17
633.4	14725.75
633.594	14434.94
633.788	14406.27
633.982	14432.89
634.176	14248.57
634.369	14383.74
634.563	14133.89
634.757	14109.31
634.951	14226.04
635.145	14154.37
635.339	14002.82
635.533	13685.38
635.726	13830.79
635.92	13666.95
636.114	13777.54
636.308	13562.5
636.501	13615.75
636.695	13394.57
636.889	13331.08
637.083	13208.2
637.276	13240.97
637.47	13181.58
637.664	13148.81
637.857	12974.74
638.051	13136.52
638.244	13099.66
638.438	12677.78
638.632	12679.83
638.825	12677.78
639.019	12692.12
639.212	12526.23
639.406	12626.58
639.599	12585.62
639.793	12528.28
639.986	12147.36
640.18	12251.8
640.373	12317.34
640.567	12106.4
640.76	12186.27
640.954	11995.81
641.147	11770.53
641.34	11893.41
641.534	11856.54
641.727	11733.67
641.92	11840.16
642.114	11645.6
642.307	11586.21
642.5	11580.07
642.694	11344.55
642.887	11352.74
643.08	11424.42
643.273	11344.55
643.467	11201.19
643.66	11139.76
643.853	11020.97
644.046	10910.38
644.239	10736.31
644.432	11084.46
644.626	10896.05
644.819	10832.56
645.012	10726.07
645.205	10803.89
645.398	10617.52
645.591	10574.52
645.784	10398.39
645.977	10410.68
646.17	10459.83
646.363	10390.2
646.556	10205.88
646.749	10308.28
646.942	10218.17
647.135	9980.61
647.328	10111.68
647.521	10017.47
647.714	9851.58
647.907	9890.49
648.099	9638.59
648.292	9898.69
648.485	9878.21
648.678	9718.47
648.871	9677.51
649.064	9595.59
649.256	9718.47
649.449	9521.86
649.642	9581.25
649.835	9337.54
650.027	9349.83
650.22	9290.44
650.413	9265.86
650.605	9304.78
650.798	9173.71
650.991	8975.05
651.183	9071.31
651.376	8854.22
651.568	8909.52
651.761	8874.7
651.954	9034.44
652.146	8975.05
652.339	8864.46
652.531	8483.54
652.724	8768.21
652.916	8532.69
653.109	8678.1
653.301	8702.67
653.494	8665.81
653.686	8399.57
653.879	8637.14
654.071	8350.42
654.263	8426.2
654.456	8387.29
654.648	8321.75
654.84	8200.92
655.033	8106.71
655.225	8301.27
655.417	7873.25
655.61	7971.55
655.802	8055.51
655.994	8051.42
656.186	7953.12
656.379	8032.99
656.571	7889.63
656.763	7795.42
656.955	7801.57
657.148	7828.19
657.34	7924.44
657.532	7598.82
657.724	7707.36
657.916	7748.32
658.108	7441.12
658.3	7467.75
658.492	7385.83
658.684	7293.67
658.876	7340.77
659.068	7461.6
659.26	7342.82
659.452	7219.94
659.644	7359.21
659.836	6984.43
660.028	7168.74
660.22	7189.22
660.412	7211.75
660.604	6982.38
660.796	7045.87
660.988	7113.45
661.18	6970.09
661.372	6918.89
661.563	6820.59
661.755	6787.82
661.947	6720.24
662.139	6744.81
662.331	6712.05
662.522	6683.38
662.714	6664.94
662.906	6648.56
663.097	6621.94
663.289	6560.5
663.481	6431.48
663.673	6546.16
663.864	6511.35
664.056	6339.32
664.247	6535.92
664.439	6257.4
664.631	6288.12
664.822	6261.49
665.014	6185.72
665.205	6195.96
665.397	6146.81
665.588	6044.41
665.78	6052.6
665.971	6058.74
666.163	5987.07
666.354	5985.02
666.546	5999.35
666.737	6042.36
666.929	5999.35
667.12	5995.26
667.311	6048.51
667.503	5763.84
667.694	6071.03
667.885	5839.61
668.077	5815.04
668.268	5810.94
668.459	5800.7
668.651	5839.61
668.842	5749.5
669.033	5681.92
669.224	5636.86
669.416	5679.87
669.607	5712.64
669.798	5671.68
669.989	5638.91
670.18	5516.03
670.371	5499.65
670.563	5417.73
670.754	5352.2
670.945	5368.58
671.136	5403.39
671.327	5315.33
671.518	5333.76
671.709	5356.29
671.9	5315.33
672.091	5245.7
672.282	5217.03
672.473	5206.79
672.664	5280.52
672.855	5272.32
673.046	5255.94
673.237	5278.47
673.428	5217.03
673.619	5053.19
673.809	5165.83
674	5004.04
674.191	5081.86
674.382	4987.66
674.573	5071.62
674.764	4975.37
674.954	5114.63
675.145	4950.79
675.336	4997.9
675.527	4969.23
675.717	5032.71
675.908	4891.4
676.099	4786.96
676.289	4958.99
676.48	4827.92
676.671	4803.34
676.861	4709.13
677.052	4770.57
677.243	4694.8
677.433	4758.28
677.624	4762.38
677.814	4713.23
678.005	4633.36
678.195	4786.96
678.386	4776.72
678.576	4729.61
678.767	4659.98
678.957	4578.06
679.148	4780.81
679.338	4621.07
679.529	4549.39
679.719	4721.42
679.909	4649.74
680.1	4434.71
680.29	4551.44
680.481	4643.6
680.671	4344.6
680.861	4510.48
681.052	4512.53
681.242	4535.06
681.432	4463.38
681.622	4414.23
681.813	4457.23
682.003	4524.82
682.193	4422.42
682.383	4498.19
682.573	4305.68
682.764	4483.86
682.954	4352.79
683.144	4322.07
683.334	4436.75
683.524	4420.37
683.714	4356.88
683.904	4330.26
684.094	4277.01
684.284	4426.51
684.474	4434.71
684.664	4328.21
684.854	4385.55
685.044	4451.09
685.234	4248.34
685.424	4172.57
685.614	4164.37
685.804	4434.71
685.994	4215.57
686.184	4213.53
686.374	4160.28
686.564	4117.27
686.753	4100.89
686.943	4213.53
687.133	4027.16
687.323	3943.19
687.513	4053.78
687.702	3990.3
687.892	4035.35
688.082	4059.93
688.272	4152.09
688.461	3955.48
688.651	4064.02
688.841	3885.85
689.03	3951.39
689.22	3955.48
689.41	3955.48
689.599	3822.36
689.789	3922.71
689.979	3889.95
690.168	3756.83
690.358	3664.67
690.547	3654.43
690.737	3750.68
690.926	3599.13
691.116	3558.18
691.305	3724.06
691.495	3572.51
691.684	3615.52
691.874	3693.34
692.063	3615.52
692.252	3617.57
692.442	3601.18
692.631	3660.57
692.82	3681.05
693.01	3689.25
693.199	3513.12
693.388	3486.5
693.578	3535.65
693.767	3586.85
693.956	3492.64
694.146	3466.02
694.335	3490.59
694.524	3320.61
694.713	3423.01
694.902	3531.55
695.092	3369.76
695.281	3304.23
695.47	3433.25
695.659	3414.82
695.848	3275.56
696.037	3296.04
696.226	3461.92
696.415	3418.91
696.604	3404.58
696.793	3412.77
696.982	3355.43
697.171	3332.9
697.36	3423.01
697.549	3197.73
697.738	3300.13
697.927	3224.36
698.116	3304.23
698.305	3205.92
698.494	3316.51
698.683	3328.8
698.872	3330.85
699.061	3326.75
699.25	3250.98
699.438	3312.42
699.627	3347.23
699.816	3267.36
700.005	3203.88
700.193	3144.49
700.382	3322.66
700.571	3199.78
700.76	3277.6
700.948	3173.16
701.137	3070.76
701.326	3142.44
701.514	3132.2
701.703	3081
701.892	2992.94
702.08	3152.68
702.269	2978.6
702.457	3060.52
702.646	3058.47
702.834	3009.32
703.023	3185.44
703.212	3222.31
703.4	3171.11
703.589	2925.35
703.777	3105.57
703.965	3017.51
704.154	3070.76
704.342	3009.32
704.531	3009.32
704.719	3107.62
704.907	3007.27
705.096	2986.79
705.284	2951.98
705.472	2863.91
705.661	2872.11
705.849	3132.2
706.037	3042.09
706.226	2997.03
706.414	3001.13
706.602	3033.9
706.79	2919.21
706.979	3033.9
707.167	3007.27
707.355	2984.74
707.543	3033.9
707.731	3033.9
707.919	2966.31
708.107	2841.39
708.296	2978.6
708.484	2751.28
708.672	2927.4
708.86	2857.77
709.048	2829.1
709.236	2773.8
709.424	2913.06
709.612	2857.77
709.8	2857.77
709.988	2808.62
710.176	2798.38
710.364	2761.52
710.551	2882.35
710.739	2726.7
710.927	2853.67
711.115	2736.94
711.303	2978.6
711.491	2825
711.679	2816.81
711.866	2755.37
712.054	2683.69
712.242	2759.47
712.43	2757.42
712.617	2773.8
712.805	2698.03
712.993	2720.56
713.181	2771.76
713.368	2802.47
713.556	2800.43
713.744	2573.1
713.931	2804.52
714.119	2704.17
714.306	2710.32
714.494	2796.33
714.682	2575.15
714.869	2710.32
715.057	2659.12
715.244	2595.63
715.432	2812.71
715.619	2689.84
715.807	2753.32
715.994	2644.78
716.182	2622.25
716.369	2607.92
716.556	2722.6
716.744	2566.96
716.931	2626.35
717.119	2597.68
717.306	2544.43
717.493	2591.53
717.681	2536.24
717.868	2675.5
718.055	2599.73
718.242	2642.73
718.43	2681.64
718.617	2728.75
718.804	2652.97
718.991	2526
719.179	2546.48
719.366	2534.19
719.553	2691.88
719.74	2569.01
719.927	2425.65
720.114	2472.75
720.301	2517.81
720.488	2452.27
720.676	2550.57
720.863	2536.24
721.05	2644.78
721.237	2478.9
721.424	2427.7
721.611	2476.85
721.798	2419.5
721.985	2468.66
722.172	2507.57
722.358	2528.05
722.545	2396.98
722.732	2501.42
722.919	2536.24
723.106	2509.62
723.293	2394.93
723.48	2476.85
723.667	2362.16
723.853	2327.35
724.04	2411.31
724.227	2396.98
724.414	2433.84
724.6	2353.97
724.787	2480.94
724.974	2427.7
725.161	2452.27
725.347	2204.47
725.534	2458.42
725.72	2341.68
725.907	2437.94
726.094	2460.46
726.28	2370.35
726.467	2364.21
726.653	2368.31
726.84	2339.63
727.027	2378.55
727.213	2231.09
727.4	2403.12
727.586	2345.78
727.773	2298.67
727.959	2339.63
728.145	2437.94
728.332	2386.74
728.518	2288.43
728.705	2372.4
728.891	2206.52
729.077	2298.67
729.264	2272.05
729.45	2296.63
729.636	2362.16
729.823	2282.29
730.009	2362.16
730.195	2183.99
730.382	2192.18
730.568	2337.59
730.754	2196.28
730.94	2321.2
731.126	2298.67
731.313	2323.25
731.499	2329.39
731.685	2235.19
731.871	2061.11
732.057	2212.66
732.243	2145.08
732.429	2259.76
732.615	2286.39
732.801	2198.32
732.987	2206.52
733.173	2263.86
733.359	2251.57
733.545	2257.71
733.731	2206.52
733.917	2143.03
734.103	2163.51
734.289	2235.19
734.475	2124.6
734.661	2229.04
734.847	2130.74
735.033	2169.65
735.219	2132.79
735.404	2046.77
735.59	2249.52
735.776	2118.45
735.962	2118.45
736.148	2239.28
736.333	2175.8
736.519	2153.27
736.705	2018.1
736.89	2073.4
737.076	2167.6
737.262	2112.31
737.447	2169.65
737.633	2032.44
737.819	2118.45
738.004	2110.26
738.19	2036.53
738.375	2114.36
738.561	2145.08
738.747	2083.64
738.932	1987.38
739.118	2093.88
739.303	1973.05
739.489	1940.28
739.674	2018.1
739.859	2011.96
740.045	2116.41
740.23	2083.64
740.416	1807.16
740.601	2120.5
740.786	1907.51
740.972	1895.22
741.157	1930.04
741.342	1930.04
741.528	1907.51
741.713	1905.46
741.898	1985.34
742.084	1936.18
742.269	1891.13
742.454	1991.48
742.639	1917.75
742.824	1950.52
743.01	1956.66
743.195	1936.18
743.38	1864.5
743.565	1860.41
743.75	1821.5
743.935	1862.46
744.12	1977.14
744.305	1854.27
744.49	1817.4
744.675	1715
744.86	1837.88
745.045	1760.06
745.23	1762.11
745.415	1792.83
745.6	1839.93
745.785	1723.2
745.97	1749.82
746.155	1776.44
746.34	1780.54
746.525	1631.04
746.71	1645.37
746.895	1729.34
747.079	1665.85
747.264	1616.7
747.449	1628.99
747.634	1663.8
747.819	1708.86
748.003	1690.43
748.188	1618.75
748.373	1669.95
748.557	1637.18
748.742	1573.69
748.927	1610.56
749.111	1485.63
749.296	1559.36
749.481	1538.88
749.665	1551.17
749.85	1524.54
750.034	1538.88
750.219	1495.87
750.404	1452.86
750.588	1551.17
750.773	1383.23
750.957	1436.48
751.141	1438.53
751.326	1481.53
751.51	1522.49
751.695	1346.37
751.879	1389.38
752.064	1440.58
752.248	1381.18
752.432	1334.08
752.617	1395.52
752.801	1393.47
752.985	1346.37
753.17	1346.37
753.354	1295.17
753.538	1295.17
753.722	1461.06
753.907	1196.87
754.091	1256.26
754.275	1383.23
754.459	1250.11
754.643	1289.03
754.828	1329.99
755.012	1282.88
755.196	1180.48
755.38	1174.34
755.564	1200.96
755.748	1223.49
755.932	1254.21
756.116	1209.15
756.3	1176.39
756.484	1174.34
756.668	1123.14
756.852	1215.3
757.036	1102.66
757.22	1166.15
757.404	1137.48
757.588	1170.24
757.772	1090.37
757.956	1125.19
758.14	1123.14
758.323	1086.28
758.507	1100.61
758.691	1035.08
758.875	1125.19
759.059	1121.09
759.242	1104.71
759.426	1076.04
759.61	1051.46
759.794	985.93
759.977	1020.74
760.161	1076.04
760.345	1078.08
760.528	990.02
760.712	1012.55
760.895	1018.69
761.079	891.72
761.263	1037.13
761.446	1053.51
761.63	928.58
761.813	1002.31
761.997	1026.89
762.18	961.35
762.364	977.73
762.547	949.06
762.731	1010.5
762.914	973.64
763.098	990.02
763.281	990.02
763.464	940.87
763.648	832.33
763.831	936.78
764.015	887.62
764.198	922.44
764.381	1043.27
764.564	871.24
764.748	865.1
764.931	955.21
765.114	832.33
765.297	858.95
765.481	949.06
765.664	904.01
765.847	832.33
766.03	961.35
766.213	944.97
766.397	807.75
766.58	871.24
766.763	752.46
766.946	869.19
767.129	791.37
767.312	799.56
767.495	805.71
767.678	717.64
767.861	895.82
768.044	906.06
768.227	770.89
768.41	774.99
768.593	904.01
768.776	801.61
768.959	740.17
769.142	883.53
769.324	744.27
769.507	746.31
769.69	772.94
769.873	805.71
770.056	793.42
770.239	699.21
770.421	813.9
770.604	731.98
770.787	809.8
770.97	781.13
771.152	801.61
771.335	731.98
771.518	781.13
771.7	758.6
771.883	781.13
772.066	631.63
772.248	736.07
772.431	723.79
772.613	766.79
772.796	774.99
772.978	693.07
773.161	715.59
773.343	742.22
773.526	658.25
773.708	717.64
773.891	674.64
774.073	709.45
774.256	703.31
774.438	731.98
774.621	641.87
774.803	701.26
774.985	709.45
775.168	713.55
775.35	650.06
775.532	785.23
775.715	600.91
775.897	691.02
776.079	650.06
776.261	699.21
776.444	625.48
776.626	615.24
776.808	662.35
776.99	553.8
777.173	545.61
777.355	623.44
777.537	586.57
777.719	605
777.901	568.14
778.083	576.33
778.265	504.65
778.447	584.52
778.629	543.57
778.811	578.38
778.993	508.75
779.175	576.33
779.357	545.61
779.539	432.97
779.721	512.85
779.903	562
780.085	551.76
780.267	484.17
780.449	482.13
780.631	527.18
780.812	555.85
780.994	559.95
781.176	510.8
781.358	461.65
781.54	543.57
781.721	475.98
781.903	455.5
782.085	480.08
782.267	467.79
782.448	478.03
782.63	449.36
782.812	486.22
782.993	523.09
783.175	486.22
783.357	465.74
783.538	478.03
783.72	498.51
783.901	469.84
784.083	422.73
784.264	461.65
784.446	416.59
784.627	357.2
784.809	355.15
784.99	392.02
785.172	400.21
785.353	371.54
785.535	441.17
785.716	414.54
785.897	416.59
786.079	383.82
786.26	441.17
786.441	373.58
786.623	367.44
786.804	428.88
786.985	412.5
787.167	349.01
787.348	373.58
787.529	342.86
787.71	412.5
787.891	338.77
788.073	353.1
788.254	392.02
788.435	383.82
788.616	338.77
788.797	324.43
788.978	367.44
789.159	351.06
789.34	299.86
789.522	359.25
789.703	349.01
789.884	365.39
790.065	342.86
790.246	367.44
790.427	283.47
790.607	344.91
790.788	373.58
790.969	314.19
791.15	316.24
791.331	334.67
791.512	281.43
791.693	351.06
791.874	316.24
792.054	359.25
792.235	310.1
792.416	363.34
792.597	291.66
792.778	314.19
792.958	340.82
793.139	273.23
793.32	271.19
793.5	346.96
793.681	306
793.862	299.86
794.042	371.54
794.223	215.89
794.404	265.04
794.584	312.14
794.765	265.04
794.945	213.84
795.126	260.95
795.306	260.95
795.487	248.66
795.667	226.13
795.848	271.19
796.028	209.75
796.209	254.8
796.389	301.9
796.57	262.99
796.75	248.66
796.93	324.43
797.111	346.96
797.291	297.81
797.471	201.55
797.652	252.75
797.832	260.95
798.012	226.13
798.192	234.32
798.373	248.66
798.553	201.55
798.733	289.62
798.913	236.37
799.093	185.17
799.274	273.23
799.454	213.84
799.634	242.51
799.814	256.85
799.994	215.89
800.174	338.77
800.354	189.27
800.534	232.27
800.714	224.08
800.894	170.83
801.074	179.03
801.254	176.98
801.434	232.27
801.614	189.27
801.794	252.75
801.974	766.79
802.154	183.12
802.334	174.93
802.514	248.66
802.693	183.12
802.873	230.23
803.053	250.71
803.233	230.23
803.413	125.78
803.592	150.36
803.772	232.27
803.952	222.03
804.131	232.27
804.311	162.64
804.491	287.57
804.67	158.55
804.85	142.16
805.03	187.22
805.209	166.74
805.389	217.94
805.568	109.4
805.748	154.45
805.928	211.79
806.107	244.56
806.287	207.7
806.466	183.12
806.646	133.97
806.825	84.82
807.004	191.31
807.184	213.84
807.363	174.93
807.543	183.12
807.722	119.64
807.901	197.46
808.081	232.27
808.26	146.26
808.439	164.69
808.619	103.25
808.798	193.36
808.977	127.83
809.156	154.45
809.336	166.74
809.515	240.47
809.694	144.21
809.873	117.59
810.052	174.93
810.231	219.99
810.411	170.83
810.59	170.83
810.769	117.59
810.948	154.45
811.127	84.82
811.306	146.26
811.485	162.64
811.664	269.14
811.843	211.79
812.022	181.07
812.201	78.68
812.38	101.2
812.559	70.48
812.737	179.03
812.916	76.63
813.095	207.7
813.274	35.67
813.453	158.55
813.632	138.07
813.811	187.22
813.989	117.59
814.168	111.44
814.347	109.4
814.526	125.78
814.704	140.12
814.883	68.44
815.062	162.64
815.24	215.89
815.419	27.48
815.598	131.92
815.776	158.55
815.955	168.79
816.133	84.82
816.312	109.4
816.49	47.96
816.669	174.93
816.847	160.59
817.026	150.36
817.204	88.92
817.383	95.06
817.561	125.78
817.74	39.76
817.918	68.44
818.097	76.63
818.275	152.4
818.453	156.5
818.632	166.74
818.81	64.34
818.988	82.77
819.167	117.59
819.345	127.83
819.523	133.97
819.701	119.64
819.879	127.83
820.058	97.11
820.236	109.4
820.414	103.25
820.592	21.33
820.77	86.87
820.948	103.25
821.127	35.67
821.305	123.73
821.483	101.2
821.661	74.58
821.839	129.88
822.017	119.64
822.195	103.25
822.373	93.01
822.551	170.83
822.729	86.87
822.907	103.25
823.085	29.52
823.262	88.92
823.44	31.57
823.618	80.72
823.796	133.97
823.974	76.63
824.152	93.01
824.329	111.44
824.507	138.07
824.685	99.16
824.863	117.59
825.04	105.3
825.218	103.25
825.396	88.92
825.574	37.72
825.751	121.68
825.929	84.82
826.107	68.44
826.284	60.24
826.462	39.76
826.639	117.59
826.817	-1.19
826.994	95.06
827.172	-38.06
827.349	117.59
827.527	68.44
827.704	64.34
827.882	117.59
828.059	33.62
828.237	39.76
828.414	109.4
828.591	70.48
828.769	142.16
828.946	50
829.124	52.05
829.301	97.11
829.478	58.2
829.655	47.96
829.833	86.87
830.01	60.24
830.187	29.52
830.364	84.82
830.542	107.35
830.719	70.48
830.896	11.09
831.073	78.68
831.25	52.05
831.427	127.83
831.604	45.91
831.782	64.34
831.959	119.64
832.136	72.53
832.313	37.72
832.49	7
832.667	35.67
832.844	68.44
833.021	109.4
833.198	105.3
833.374	117.59
833.551	56.15
833.728	45.91
833.905	84.82
834.082	21.33
834.259	50
834.436	97.11
834.612	64.34
834.789	117.59
834.966	11.09
835.143	68.44
835.319	72.53
835.496	54.1
835.673	-21.67
835.85	52.05
836.026	125.78
836.203	37.72
836.38	80.72
836.556	78.68
836.733	54.1
836.909	111.44
837.086	29.52
837.262	103.25
837.439	21.33
837.616	39.76
837.792	72.53
837.968	60.24
838.145	60.24
838.321	52.05
838.498	31.57
838.674	88.92
838.851	43.86
839.027	37.72
839.203	27.48
839.38	15.19
839.556	-1.19
839.732	68.44
839.909	21.33
840.085	103.25
840.261	27.48
840.437	58.2
840.614	4.95
840.79	123.73
840.966	64.34
841.142	-46.25
841.318	-46.25
841.494	97.11
841.671	88.92
841.847	27.48
842.023	72.53
842.199	93.01
842.375	103.25
842.551	23.38
842.727	-5.29
842.903	64.34
843.079	-3.24
843.255	97.11
843.431	39.76
843.607	115.54
843.783	4.95
843.959	50
844.134	39.76
844.31	80.72
844.486	72.53
844.662	19.29
844.838	27.48
845.013	19.29
845.189	27.48
845.365	60.24
845.541	43.86
845.716	-19.63
845.892	60.24
846.068	27.48
846.244	13.14
846.419	56.15
846.595	-5.29
846.77	13.14
846.946	47.96
847.122	35.67
847.297	50
847.473	117.59
847.648	-9.39
847.824	7
847.999	33.62
848.175	58.2
848.35	43.86
848.526	72.53
848.701	76.63
848.876	-7.34
849.052	19.29
849.227	19.29
849.403	11.09
849.578	66.39
849.753	93.01
849.929	2.9
850.104	-5.29
850.279	41.81
850.454	52.05
850.63	-13.48
850.805	-11.43
850.98	52.05
851.155	-1.19
851.33	25.43
851.505	4.95
851.681	95.06
851.856	13.14
852.031	-44.2
852.206	-5.29
852.381	45.91
852.556	-15.53
852.731	64.34
852.906	0.85
853.081	43.86
853.256	17.24
853.431	56.15
853.606	19.29
853.781	9.05
853.956	39.76
854.131	-5.29
854.305	37.72
854.48	35.67
854.655	2.9
854.83	76.63
855.005	47.96
855.18	4.95
855.354	-46.25
855.529	21.33
855.704	13.14
855.879	31.57
856.053	2.9
856.228	35.67
856.403	-58.54
856.577	27.48
856.752	-13.48
856.926	45.91
857.101	13.14
857.276	41.81
857.45	-9.39
857.625	-19.63
857.799	-19.63
857.974	52.05
858.148	11.09
858.323	68.44
858.497	35.67
858.672	9.05
858.846	7
859.02	80.72
859.195	-5.29
859.369	93.01
859.543	29.52
859.718	13.14
859.892	-3.24
860.066	39.76
860.241	19.29
860.415	45.91
860.589	-38.06
860.763	-17.58
860.938	-62.63
861.112	29.52
861.286	27.48
861.46	13.14
861.634	17.24
861.808	56.15
861.982	17.24
862.157	-7.34
862.331	19.29
862.505	11.09
862.679	29.52
862.853	41.81
863.027	62.29
863.201	70.48
863.375	27.48
863.549	27.48
863.722	-9.39
863.896	31.57
864.07	-21.67
864.244	23.38
864.418	90.96
864.592	-87.21
864.766	43.86
864.939	31.57
865.113	-11.43
865.287	78.68
865.461	-29.87
865.634	43.86
865.808	-3.24
865.982	-46.25
866.156	19.29
866.329	-21.67
866.503	-62.63
866.676	39.76
866.85	-33.96
867.024	4.95
867.197	47.96
867.371	43.86
867.544	-15.53
867.718	-25.77
867.891	33.62
868.065	-7.34
868.238	7
868.412	31.57
868.585	86.87
868.759	-44.2
868.932	-36.01
869.105	41.81
869.279	-31.91
869.452	0.85
869.625	64.34
869.799	25.43
869.972	29.52
870.145	-3.24
870.319	39.76
870.492	7
870.665	-3.24
870.838	27.48
871.011	-5.29
871.185	47.96
871.358	39.76
871.531	62.29
871.704	35.67
871.877	39.76
872.05	-5.29
872.223	19.29
872.396	19.29
872.569	66.39
872.742	19.29
872.915	-25.77
873.088	-42.15
873.261	15.19
873.434	-17.58
873.607	4.95
873.78	43.86
873.953	29.52
874.126	-25.77
874.299	31.57
874.471	39.76
874.644	-27.82
874.817	-44.2
874.99	80.72
875.163	-46.25
875.335	-89.26
875.508	-17.58
875.681	27.48
875.853	21.33
876.026	19.29
876.199	-38.06
876.371	-19.63
876.544	52.05
876.717	13.14
876.889	0.85
877.062	4.95
877.234	-81.07
877.407	35.67
877.579	21.33
877.752	2.9
877.924	52.05
878.097	27.48
878.269	-33.96
878.442	138.07
878.614	7
878.786	54.1
878.959	58.2
879.131	2.9
879.303	-46.25
879.476	-11.43
879.648	72.53
879.82	60.24
879.993	2.9
880.165	-9.39
880.337	27.48
880.509	70.48
880.681	-11.43
880.854	2.9
881.026	25.43
881.198	60.24
881.37	-36.01
881.542	-38.06
881.714	-36.01
881.886	-7.34
882.058	76.63
882.23	2.9
882.402	-62.63
882.574	-46.25
882.746	80.72
882.918	41.81
883.09	76.63
883.262	2.9
883.434	66.39
883.606	47.96
883.778	7
883.95	27.48
884.122	-38.06
884.293	-21.67
884.465	7
884.637	19.29
884.809	-11.43
884.98	7
885.152	7
885.324	4.95
885.496	-11.43
885.667	23.38
885.839	-23.72
886.011	7
886.182	-11.43
886.354	35.67
886.525	56.15
886.697	43.86
886.869	-44.2
887.04	-13.48
887.212	-13.48
887.383	64.34
887.555	-23.72
887.726	27.48
887.897	2.9
888.069	-19.63
888.24	13.14
888.412	97.11
888.583	35.67
888.754	-11.43
888.926	-54.44
889.097	70.48
889.268	-111.78
889.44	-1.19
889.611	-46.25
889.782	2.9
889.953	-109.74
890.125	76.63
890.296	-7.34
890.467	52.05
890.638	-3.24
890.809	-1.19
890.98	-70.83
891.151	33.62
891.323	52.05
891.494	13.14
891.665	7
891.836	35.67
892.007	33.62
892.178	33.62
892.349	15.19
892.52	-93.35
892.691	66.39
892.862	-13.48
893.032	13.14
893.203	15.19
893.374	35.67
893.545	27.48
893.716	-29.87
893.887	-5.29
894.057	-27.82
894.228	43.86
894.399	-33.96
894.57	35.67
894.74	-33.96
894.911	37.72
895.082	-11.43
895.253	-62.63
895.423	2.9
895.594	35.67
895.764	21.33
895.935	19.29
896.106	-50.35
896.276	-15.53
896.447	9.05
896.617	-23.72
896.788	-13.48
896.958	11.09
897.129	23.38
897.299	-15.53
897.47	-5.29
897.64	43.86
897.81	2.9
897.981	-23.72
898.151	-3.24
898.322	-38.06
898.492	52.05
898.662	-52.39
898.832	-7.34
899.003	-1.19
899.173	-3.24
899.343	15.19
899.513	23.38
