Data from USB4F104151__55__14-17-05-000.txt Node

Date: Thu Mar 13 14:17:05 EDT 2025
User: louis
Spectrometer: USB4F10415
Trigger mode: 4
Integration Time (sec): 2.000000E-2
Scans to average: 1
Electric dark correction enabled: true
Nonlinearity correction enabled: false
Boxcar width: 0
XAxis mode: Wavelengths
Number of Pixels in Spectrum: 3648
>>>>>Begin Spectral Data<<<<<
178.204	-51.71
178.424	-51.71
178.644	-51.71
178.864	-133.63
179.084	-111.1
179.304	13.82
179.524	-27.14
179.744	-47.62
179.964	83.45
180.184	7.68
180.404	-80.38
180.624	-12.8
180.844	15.87
181.064	-74.24
181.283	62.98
181.503	42.5
181.723	15.87
181.943	-4.61
182.163	87.55
182.383	13.82
182.602	105.98
182.822	34.3
183.042	11.78
183.262	-18.94
183.482	-6.66
183.701	46.59
183.921	71.17
184.141	-25.09
184.361	73.21
184.58	26.11
184.8	67.07
185.02	15.87
185.239	108.03
185.459	5.63
185.679	15.87
185.898	22.02
186.118	-33.28
186.338	52.74
186.557	15.87
186.777	-4.61
186.997	22.02
187.216	30.21
187.436	77.31
187.655	122.37
187.875	81.41
188.095	-39.42
188.314	128.51
188.534	85.5
188.753	-10.75
188.973	89.6
189.192	134.65
189.412	-35.33
189.631	79.36
189.851	67.07
190.07	58.88
190.29	-31.23
190.509	112.13
190.729	44.54
190.948	77.31
191.168	196.09
191.387	62.98
191.607	-47.62
191.826	24.06
192.045	32.26
192.265	65.02
192.484	75.26
192.704	-27.14
192.923	-2.56
193.142	120.32
193.362	36.35
193.581	-2.56
193.8	87.55
194.02	85.5
194.239	-18.94
194.458	30.21
194.678	62.98
194.897	26.11
195.116	-10.75
195.335	67.07
195.555	40.45
195.774	79.36
195.993	40.45
196.212	-18.94
196.432	28.16
196.651	54.78
196.87	1.54
197.089	103.93
197.308	56.83
197.528	93.69
197.747	73.21
197.966	48.64
198.185	183.81
198.404	9.73
198.623	54.78
198.842	93.69
199.062	46.59
199.281	54.78
199.5	73.21
199.719	54.78
199.938	65.02
200.157	38.4
200.376	56.83
200.595	30.21
200.814	67.07
201.033	11.78
201.252	42.5
201.471	38.4
201.69	103.93
201.909	40.45
202.128	54.78
202.347	28.16
202.566	-6.66
202.785	-16.9
203.004	7.68
203.223	91.65
203.442	17.92
203.661	-18.94
203.879	13.82
204.098	24.06
204.317	-74.24
204.536	40.45
204.755	75.26
204.974	56.83
205.193	22.02
205.411	89.6
205.63	71.17
205.849	54.78
206.068	-18.94
206.287	62.98
206.505	36.35
206.724	26.11
206.943	42.5
207.162	28.16
207.381	42.5
207.599	79.36
207.818	97.79
208.037	62.98
208.255	40.45
208.474	9.73
208.693	9.73
208.911	17.92
209.13	34.3
209.349	89.6
209.567	22.02
209.786	46.59
210.005	48.64
210.223	-12.8
210.442	46.59
210.661	15.87
210.879	62.98
211.098	-6.66
211.316	3.58
211.535	67.07
211.753	24.06
211.972	48.64
212.191	-4.61
212.409	-12.8
212.628	40.45
212.846	5.63
213.065	77.31
213.283	95.74
213.502	93.69
213.72	13.82
213.938	65.02
214.157	-18.94
214.375	67.07
214.594	17.92
214.812	105.98
215.031	62.98
215.249	50.69
215.467	-2.56
215.686	22.02
215.904	46.59
216.122	48.64
216.341	79.36
216.559	-16.9
216.778	46.59
216.996	93.69
217.214	22.02
217.432	65.02
217.651	46.59
217.869	48.64
218.087	7.68
218.306	-16.9
218.524	95.74
218.742	28.16
218.96	38.4
219.179	73.21
219.397	5.63
219.615	87.55
219.833	15.87
220.051	-2.56
220.27	44.54
220.488	79.36
220.706	81.41
220.924	75.26
221.142	-10.75
221.36	-23.04
221.578	15.87
221.796	46.59
222.015	-39.42
222.233	28.16
222.451	69.12
222.669	11.78
222.887	13.82
223.105	9.73
223.323	19.97
223.541	46.59
223.759	112.13
223.977	19.97
224.195	9.73
224.413	99.84
224.631	65.02
224.849	26.11
225.067	75.26
225.285	17.92
225.503	38.4
225.721	7.68
225.939	-35.33
226.157	32.26
226.375	103.93
226.592	17.92
226.81	69.12
227.028	38.4
227.246	97.79
227.464	-8.7
227.682	157.18
227.9	81.41
228.117	52.74
228.335	-10.75
228.553	48.64
228.771	50.69
228.989	30.21
229.206	58.88
229.424	-16.9
229.642	73.21
229.86	40.45
230.077	52.74
230.295	13.82
230.513	52.74
230.731	52.74
230.948	71.17
231.166	22.02
231.384	46.59
231.601	30.21
231.819	73.21
232.037	5.63
232.254	22.02
232.472	34.3
232.689	-0.51
232.907	52.74
233.125	62.98
233.342	-12.8
233.56	42.5
233.777	-16.9
233.995	40.45
234.213	103.93
234.43	79.36
234.648	73.21
234.865	-29.18
235.083	81.41
235.3	40.45
235.518	85.5
235.735	91.65
235.953	46.59
236.17	91.65
236.388	32.26
236.605	99.84
236.822	128.51
237.04	136.7
237.257	56.83
237.475	116.22
237.692	81.41
237.909	65.02
238.127	1.54
238.344	56.83
238.562	32.26
238.779	9.73
238.996	28.16
239.214	34.3
239.431	118.27
239.648	67.07
239.865	32.26
240.083	71.17
240.3	38.4
240.517	24.06
240.735	38.4
240.952	73.21
241.169	42.5
241.386	65.02
241.603	38.4
241.821	32.26
242.038	71.17
242.255	34.3
242.472	85.5
242.689	65.02
242.907	54.78
243.124	40.45
243.341	11.78
243.558	9.73
243.775	7.68
243.992	46.59
244.209	26.11
244.426	73.21
244.643	52.74
244.86	50.69
245.078	-10.75
245.295	75.26
245.512	-18.94
245.729	56.83
245.946	75.26
246.163	91.65
246.38	17.92
246.597	40.45
246.814	22.02
247.031	140.8
247.248	103.93
247.464	103.93
247.681	40.45
247.898	13.82
248.115	89.6
248.332	-18.94
248.549	46.59
248.766	118.27
248.983	124.41
249.2	26.11
249.417	122.37
249.633	138.75
249.85	62.98
250.067	50.69
250.284	99.84
250.501	50.69
250.717	22.02
250.934	-8.7
251.151	3.58
251.368	50.69
251.585	71.17
251.801	48.64
252.018	48.64
252.235	108.03
252.451	83.45
252.668	42.5
252.885	17.92
253.102	17.92
253.318	15.87
253.535	46.59
253.752	71.17
253.968	138.75
254.185	-6.66
254.401	32.26
254.618	62.98
254.835	5.63
255.051	97.79
255.268	38.4
255.484	69.12
255.701	50.69
255.917	42.5
256.134	1.54
256.351	36.35
256.567	5.63
256.784	112.13
257	7.68
257.217	73.21
257.433	30.21
257.65	54.78
257.866	15.87
258.082	17.92
258.299	-14.85
258.515	67.07
258.732	-10.75
258.948	24.06
259.165	48.64
259.381	54.78
259.597	24.06
259.814	71.17
260.03	56.83
260.246	42.5
260.463	105.98
260.679	56.83
260.895	48.64
261.112	-0.51
261.328	50.69
261.544	79.36
261.761	65.02
261.977	34.3
262.193	-41.47
262.409	54.78
262.626	95.74
262.842	79.36
263.058	56.83
263.274	81.41
263.49	-33.28
263.707	95.74
263.923	73.21
264.139	-51.71
264.355	67.07
264.571	95.74
264.787	81.41
265.004	67.07
265.22	32.26
265.436	34.3
265.652	26.11
265.868	26.11
266.084	22.02
266.3	30.21
266.516	-20.99
266.732	99.84
266.948	11.78
267.164	99.84
267.38	52.74
267.596	65.02
267.812	30.21
268.028	38.4
268.244	46.59
268.46	81.41
268.676	38.4
268.892	9.73
269.108	-8.7
269.324	65.02
269.54	9.73
269.756	99.84
269.972	-45.57
270.188	62.98
270.403	-8.7
270.619	17.92
270.835	-2.56
271.051	-16.9
271.267	46.59
271.483	38.4
271.698	54.78
271.914	-8.7
272.13	46.59
272.346	1.54
272.562	30.21
272.777	32.26
272.993	48.64
273.209	-10.75
273.425	7.68
273.64	17.92
273.856	42.5
274.072	138.75
274.287	44.54
274.503	83.45
274.719	54.78
274.934	13.82
275.15	-0.51
275.366	95.74
275.581	30.21
275.797	54.78
276.012	54.78
276.228	22.02
276.444	-25.09
276.659	52.74
276.875	5.63
277.09	79.36
277.306	-6.66
277.521	136.7
277.737	79.36
277.952	112.13
278.168	62.98
278.383	-6.66
278.599	71.17
278.814	120.32
279.03	7.68
279.245	75.26
279.461	24.06
279.676	42.5
279.892	5.63
280.107	22.02
280.322	75.26
280.538	24.06
280.753	87.55
280.969	9.73
281.184	7.68
281.399	157.18
281.615	132.61
281.83	110.08
282.045	62.98
282.26	24.06
282.476	7.68
282.691	-16.9
282.906	40.45
283.122	13.82
283.337	-27.14
283.552	52.74
283.767	26.11
283.983	13.82
284.198	42.5
284.413	112.13
284.628	65.02
284.843	46.59
285.058	-14.85
285.274	28.16
285.489	-8.7
285.704	105.98
285.919	24.06
286.134	58.88
286.349	22.02
286.564	54.78
286.779	1.54
286.995	40.45
287.21	42.5
287.425	13.82
287.64	58.88
287.855	56.83
288.07	-6.66
288.285	99.84
288.5	52.74
288.715	40.45
288.93	128.51
289.145	75.26
289.36	42.5
289.575	42.5
289.79	54.78
290.004	71.17
290.219	62.98
290.434	-27.14
290.649	103.93
290.864	22.02
291.079	54.78
291.294	62.98
291.509	30.21
291.724	155.13
291.938	46.59
292.153	40.45
292.368	46.59
292.583	40.45
292.798	130.56
293.012	81.41
293.227	46.59
293.442	-23.04
293.657	67.07
293.871	52.74
294.086	9.73
294.301	122.37
294.516	38.4
294.73	71.17
294.945	11.78
295.16	-2.56
295.374	38.4
295.589	79.36
295.804	-10.75
296.018	134.65
296.233	46.59
296.447	7.68
296.662	81.41
296.877	3.58
297.091	34.3
297.306	5.63
297.52	22.02
297.735	36.35
297.949	15.87
298.164	136.7
298.378	50.69
298.593	44.54
298.807	136.7
299.022	71.17
299.236	112.13
299.451	91.65
299.665	28.16
299.88	-2.56
300.094	22.02
300.309	87.55
300.523	9.73
300.737	95.74
300.952	81.41
301.166	32.26
301.381	75.26
301.595	54.78
301.809	34.3
302.024	95.74
302.238	56.83
302.452	99.84
302.667	22.02
302.881	60.93
303.095	79.36
303.309	138.75
303.524	22.02
303.738	32.26
303.952	101.89
304.166	116.22
304.381	15.87
304.595	91.65
304.809	89.6
305.023	79.36
305.237	22.02
305.452	99.84
305.666	24.06
305.88	99.84
306.094	99.84
306.308	62.98
306.522	73.21
306.736	38.4
306.95	56.83
307.164	54.78
307.379	5.63
307.593	75.26
307.807	75.26
308.021	62.98
308.235	71.17
308.449	-31.23
308.663	7.68
308.877	87.55
309.091	22.02
309.305	130.56
309.519	71.17
309.733	71.17
309.947	-18.94
310.161	46.59
310.374	-10.75
310.588	155.13
310.802	46.59
311.016	-59.9
311.23	62.98
311.444	44.54
311.658	22.02
311.872	114.17
312.085	34.3
312.299	30.21
312.513	79.36
312.727	36.35
312.941	65.02
313.154	30.21
313.368	34.3
313.582	50.69
313.796	60.93
314.009	32.26
314.223	56.83
314.437	48.64
314.651	71.17
314.864	73.21
315.078	-12.8
315.292	120.32
315.505	17.92
315.719	60.93
315.933	44.54
316.146	13.82
316.36	-57.86
316.573	65.02
316.787	103.93
317.001	38.4
317.214	24.06
317.428	-16.9
317.641	58.88
317.855	-33.28
318.068	67.07
318.282	124.41
318.495	112.13
318.709	13.82
318.922	54.78
319.136	65.02
319.349	32.26
319.563	38.4
319.776	136.7
319.99	-8.7
320.203	62.98
320.417	40.45
320.63	24.06
320.843	101.89
321.057	-23.04
321.27	65.02
321.483	38.4
321.697	81.41
321.91	89.6
322.124	38.4
322.337	-8.7
322.55	22.02
322.763	-2.56
322.977	26.11
323.19	-0.51
323.403	114.17
323.617	99.84
323.83	36.35
324.043	40.45
324.256	32.26
324.469	13.82
324.683	110.08
324.896	79.36
325.109	11.78
325.322	-18.94
325.535	38.4
325.748	120.32
325.962	-45.57
326.175	95.74
326.388	36.35
326.601	101.89
326.814	48.64
327.027	79.36
327.24	79.36
327.453	101.89
327.666	5.63
327.879	65.02
328.092	128.51
328.305	89.6
328.518	46.59
328.731	17.92
328.944	71.17
329.157	-18.94
329.37	24.06
329.583	30.21
329.796	124.41
330.009	-41.47
330.222	75.26
330.435	38.4
330.648	17.92
330.861	69.12
331.073	28.16
331.286	65.02
331.499	103.93
331.712	-23.04
331.925	11.78
332.138	95.74
332.35	56.83
332.563	22.02
332.776	-2.56
332.989	38.4
333.202	101.89
333.414	38.4
333.627	79.36
333.84	38.4
334.053	91.65
334.265	-12.8
334.478	46.59
334.691	-10.75
334.903	65.02
335.116	46.59
335.329	5.63
335.541	65.02
335.754	22.02
335.966	46.59
336.179	38.4
336.392	67.07
336.604	77.31
336.817	46.59
337.029	24.06
337.242	75.26
337.454	97.79
337.667	22.02
337.88	103.93
338.092	32.26
338.305	24.06
338.517	-14.85
338.729	69.12
338.942	79.36
339.154	-0.51
339.367	34.3
339.579	52.74
339.792	-16.9
340.004	87.55
340.217	79.36
340.429	58.88
340.641	-0.51
340.854	13.82
341.066	42.5
341.278	91.65
341.491	26.11
341.703	75.26
341.915	71.17
342.128	79.36
342.34	22.02
342.552	54.78
342.764	48.64
342.977	13.82
343.189	79.36
343.401	89.6
343.613	11.78
343.826	30.21
344.038	79.36
344.25	65.02
344.462	1.54
344.674	116.22
344.886	28.16
345.099	142.85
345.311	142.85
345.523	17.92
345.735	50.69
345.947	58.88
346.159	38.4
346.371	48.64
346.583	132.61
346.795	144.89
347.007	-4.61
347.219	89.6
347.431	-12.8
347.643	54.78
347.855	89.6
348.067	99.84
348.279	5.63
348.491	48.64
348.703	91.65
348.915	30.21
349.127	77.31
349.339	40.45
349.551	79.36
349.763	77.31
349.975	87.55
350.187	103.93
350.399	112.13
350.61	62.98
350.822	77.31
351.034	5.63
351.246	32.26
351.458	103.93
351.669	71.17
351.881	87.55
352.093	108.03
352.305	26.11
352.517	-10.75
352.728	99.84
352.94	9.73
353.152	103.93
353.363	-10.75
353.575	120.32
353.787	136.7
353.999	50.69
354.21	87.55
354.422	56.83
354.633	30.21
354.845	46.59
355.057	48.64
355.268	79.36
355.48	46.59
355.692	75.26
355.903	42.5
356.115	120.32
356.326	30.21
356.538	99.84
356.749	122.37
356.961	91.65
357.172	67.07
357.384	32.26
357.595	177.66
357.807	38.4
358.018	13.82
358.23	77.31
358.441	153.09
358.653	75.26
358.864	101.89
359.075	9.73
359.287	91.65
359.498	126.46
359.709	99.84
359.921	11.78
360.132	-10.75
360.344	24.06
360.555	32.26
360.766	103.93
360.977	75.26
361.189	122.37
361.4	87.55
361.611	38.4
361.823	71.17
362.034	60.93
362.245	-20.99
362.456	83.45
362.667	13.82
362.879	-35.33
363.09	81.41
363.301	67.07
363.512	-51.71
363.723	-10.75
363.935	38.4
364.146	144.89
364.357	54.78
364.568	77.31
364.779	79.36
364.99	56.83
365.201	87.55
365.412	99.84
365.623	24.06
365.834	91.65
366.045	50.69
366.256	122.37
366.467	73.21
366.678	44.54
366.889	46.59
367.1	1.54
367.311	79.36
367.522	87.55
367.733	3.58
367.944	136.7
368.155	89.6
368.366	67.07
368.577	30.21
368.788	91.65
368.999	67.07
369.209	60.93
369.42	28.16
369.631	89.6
369.842	91.65
370.053	87.55
370.264	38.4
370.474	50.69
370.685	108.03
370.896	62.98
371.107	69.12
371.317	97.79
371.528	140.8
371.739	105.98
371.95	112.13
372.16	103.93
372.371	-0.51
372.582	87.55
372.792	103.93
373.003	54.78
373.214	26.11
373.424	9.73
373.635	91.65
373.846	50.69
374.056	-39.42
374.267	103.93
374.477	7.68
374.688	50.69
374.898	67.07
375.109	36.35
375.319	114.17
375.53	120.32
375.74	108.03
375.951	93.69
376.161	-16.9
376.372	153.09
376.582	-2.56
376.793	99.84
377.003	11.78
377.214	60.93
377.424	30.21
377.635	62.98
377.845	103.93
378.055	116.22
378.266	24.06
378.476	95.74
378.686	71.17
378.897	75.26
379.107	77.31
379.317	40.45
379.528	-2.56
379.738	130.56
379.948	83.45
380.158	46.59
380.369	-18.94
380.579	110.08
380.789	69.12
380.999	50.69
381.21	146.94
381.42	46.59
381.63	105.98
381.84	87.55
382.05	87.55
382.261	138.75
382.471	69.12
382.681	79.36
382.891	112.13
383.101	48.64
383.311	17.92
383.521	110.08
383.731	124.41
383.941	114.17
384.151	112.13
384.361	56.83
384.571	138.75
384.781	79.36
384.991	140.8
385.201	189.95
385.411	151.04
385.621	67.07
385.831	60.93
386.041	91.65
386.251	65.02
386.461	24.06
386.671	58.88
386.881	165.37
387.091	48.64
387.301	114.17
387.511	30.21
387.72	97.79
387.93	32.26
388.14	105.98
388.35	163.33
388.56	75.26
388.769	103.93
388.979	56.83
389.189	77.31
389.399	46.59
389.609	54.78
389.818	54.78
390.028	112.13
390.238	132.61
390.447	48.64
390.657	120.32
390.867	93.69
391.076	-29.18
391.286	126.46
391.496	114.17
391.705	56.83
391.915	136.7
392.125	114.17
392.334	48.64
392.544	105.98
392.753	110.08
392.963	58.88
393.172	146.94
393.382	165.37
393.591	60.93
393.801	7.68
394.01	95.74
394.22	124.41
394.429	124.41
394.639	38.4
394.848	136.7
395.058	163.33
395.267	116.22
395.477	165.37
395.686	112.13
395.895	214.52
396.105	161.28
396.314	132.61
396.524	181.76
396.733	132.61
396.942	171.52
397.152	105.98
397.361	148.99
397.57	83.45
397.78	126.46
397.989	83.45
398.198	198.14
398.407	97.79
398.617	140.8
398.826	153.09
399.035	71.17
399.244	173.57
399.453	183.81
399.663	77.31
399.872	132.61
400.081	97.79
400.29	124.41
400.499	95.74
400.708	196.09
400.917	81.41
401.127	79.36
401.336	132.61
401.545	226.81
401.754	189.95
401.963	128.51
402.172	165.37
402.381	44.54
402.59	226.81
402.799	185.85
403.008	136.7
403.217	81.41
403.426	112.13
403.635	97.79
403.844	79.36
404.053	148.99
404.262	105.98
404.471	163.33
404.68	177.66
404.888	196.09
405.097	196.09
405.306	235
405.515	202.24
405.724	171.52
405.933	155.13
406.142	185.85
406.35	232.96
406.559	165.37
406.768	148.99
406.977	271.87
407.185	226.81
407.394	228.86
407.603	247.29
407.812	204.28
408.02	290.3
408.229	286.2
408.438	228.86
408.646	237.05
408.855	280.06
409.064	327.16
409.272	316.92
409.481	296.44
409.69	247.29
409.898	306.68
410.107	292.35
410.315	364.03
410.524	372.22
410.733	472.57
410.941	368.12
411.15	382.46
411.358	491
411.567	468.47
411.775	441.85
411.984	433.66
412.192	534.01
412.401	548.34
412.609	611.83
412.818	529.91
413.026	587.26
413.234	660.98
413.443	630.26
413.651	548.34
413.86	703.99
414.068	751.09
414.276	687.61
414.485	693.75
414.693	740.85
414.901	810.48
415.11	794.1
415.318	845.3
415.526	853.49
415.734	974.32
415.943	921.07
416.151	947.7
416.359	949.75
416.567	1005.04
416.776	1062.38
416.984	1054.19
417.192	1078.77
417.4	1025.52
417.608	1127.92
417.817	1189.36
418.025	1318.38
418.233	1324.52
418.441	1244.65
418.649	1416.68
418.857	1422.83
419.065	1439.21
419.273	1484.27
419.481	1512.94
419.689	1570.28
419.897	1725.93
420.105	1756.65
420.313	1674.73
420.521	1807.84
420.729	1983.97
420.937	1889.76
421.145	2057.7
421.353	1963.49
421.561	2106.85
421.769	2168.29
421.977	2237.92
422.185	2217.44
422.393	2475.48
422.601	2598.36
422.809	2579.93
423.017	2620.89
423.224	2661.85
423.432	2858.45
423.64	2790.87
423.848	3007.95
424.056	2997.71
424.263	3136.98
424.471	3192.27
424.679	3315.15
424.887	3497.42
425.094	3556.81
425.302	3554.76
425.51	3694.02
425.718	3769.8
425.925	3765.7
426.133	4060.61
426.341	4296.13
426.548	4416.96
426.756	4386.24
426.964	4412.86
427.171	4570.55
427.379	4857.27
427.586	4912.57
427.794	5225.9
428.001	5217.71
428.209	5520.81
428.417	5547.44
428.624	5846.44
428.832	5903.78
429.039	5821.86
429.247	5860.77
429.454	6428.06
429.662	6739.35
429.869	6167.97
430.076	6770.07
430.284	6493.6
430.491	7118.23
430.699	7265.68
430.906	7370.13
431.114	7210.39
431.321	7564.68
431.528	7624.08
431.736	8197.51
431.943	8439.17
432.15	8379.78
432.358	8404.35
432.565	8983.93
432.772	8836.47
432.979	9213.3
433.187	9520.49
433.394	9745.77
433.601	10194.28
433.808	10220.9
434.016	10257.76
434.223	10618.21
434.43	11183.45
434.637	11058.52
434.844	11613.52
435.052	11867.47
435.259	11826.51
435.466	12027.21
435.673	11662.67
435.88	12657.98
436.087	13266.23
436.294	13333.81
436.501	12887.36
436.708	13323.57
436.915	13702.45
437.122	14363.94
437.329	14120.23
437.537	14712.1
437.743	14689.57
437.95	14949.66
438.157	15668.5
438.364	16102.67
438.571	16037.13
438.778	16317.7
438.985	17859.82
439.192	16659.71
439.399	17597.68
439.606	16971.01
439.813	18117.87
440.02	19145.95
440.227	18848.99
440.433	18848.99
440.64	19352.79
440.847	19393.75
441.054	19848.4
441.261	20729.03
441.467	20604.1
441.674	20966.59
441.881	21667
442.088	21730.48
442.294	21302.46
442.501	22090.93
442.708	22166.7
442.914	23291.04
443.121	24429.71
443.328	24048.79
443.534	25474.17
443.741	24796.29
443.948	24165.52
444.154	26211.44
444.361	25674.87
444.568	26219.63
444.774	25830.52
444.981	26389.61
445.187	27407.45
445.394	28318.8
445.6	27966.55
445.807	30637.1
446.013	29303.87
446.22	29584.44
446.426	31159.33
446.633	31138.85
446.839	32218.13
447.046	31151.14
447.252	32242.71
447.459	32484.37
447.665	32390.16
447.871	34051.06
448.078	35017.71
448.284	33831.93
448.491	34563.06
448.697	35933.15
448.903	36791.25
449.11	36838.35
449.316	36078.55
449.522	36316.12
449.728	37542.85
449.935	37911.49
450.141	37837.76
450.347	39023.53
450.553	37702.59
450.76	38226.87
450.966	39420.84
451.172	38937.52
451.378	39551.91
451.584	38960.05
451.791	40250.27
451.997	39496.61
452.203	40280.99
452.409	40242.07
452.615	40246.17
452.821	38732.72
453.027	38200.25
453.233	40289.18
453.44	39127.98
453.646	39261.1
453.852	39486.37
454.058	40123.29
454.264	38607.79
454.47	39777.19
454.676	38437.81
454.882	39908.26
455.088	36471.76
455.294	37045.19
455.5	37923.77
455.705	37983.16
455.911	36328.41
456.117	35781.6
456.323	35589.09
456.529	33211.4
456.735	35308.52
456.941	34020.34
457.147	33500.16
457.352	32740.36
457.558	32295.96
457.764	32082.97
457.97	31726.62
458.176	31274.02
458.381	30985.26
458.587	29781.05
458.793	29713.47
458.999	27952.21
459.204	30288.95
459.41	29389.89
459.616	27546.72
459.821	27386.97
460.027	27481.18
460.233	26772.58
460.438	25607.29
460.644	25814.13
460.85	24585.35
461.055	24261.77
461.261	23901.33
461.466	22445.23
461.672	21769.4
461.878	23221.41
462.083	21697.72
462.289	21228.73
462.494	20964.54
462.7	19920.08
462.905	19553.49
463.111	20002
463.316	20446.41
463.522	19858.64
463.727	19711.19
463.932	20042.96
464.138	19576.02
464.343	19993.81
464.549	19221.72
464.754	19903.7
464.959	19797.2
465.165	19512.53
465.37	18638.05
465.575	18293.99
465.781	18877.66
465.986	19156.19
466.191	18371.82
466.397	18042.09
466.602	16958.72
466.807	17853.68
467.012	17929.45
467.218	17515.76
467.423	17538.29
467.628	17497.33
467.833	18144.49
468.038	17462.52
468.244	17210.62
468.449	18097.39
468.654	17329.4
468.859	17132.79
469.064	17341.69
469.269	16342.28
469.474	16475.4
469.679	16899.33
469.885	16446.73
470.09	16635.14
470.295	16438.53
470.5	15930.64
470.705	16284.94
470.91	15969.55
471.115	15727.89
471.32	16039.18
471.525	15574.29
471.73	15410.45
471.935	15367.45
472.139	14769.44
472.344	15015.19
472.549	14822.69
472.754	14894.36
472.959	14538.02
473.164	14101.8
473.369	13780.27
473.574	14437.67
473.778	14269.73
473.983	14236.97
474.188	13995.31
474.393	13378.87
474.598	13702.45
474.802	13487.41
475.007	13563.19
475.212	13460.79
475.417	13116.73
475.621	12993.85
475.826	13147.45
476.031	12670.27
476.235	12598.59
476.44	12744
476.645	12234.05
476.849	12440.9
477.054	12229.96
477.259	12127.56
477.463	12137.8
477.668	11687.25
477.872	12074.31
478.077	11713.87
478.282	11496.78
478.486	11312.47
478.691	11117.91
478.895	11306.32
479.1	11310.42
479.304	11236.69
479.509	10833.24
479.713	11074.9
479.918	10925.4
480.122	10636.64
480.326	10863.96
480.531	10759.52
480.735	10720.6
480.94	10534.24
481.144	11158.87
481.348	10431.84
481.553	10610.01
481.757	10327.39
481.961	10483.04
482.166	10681.69
482.37	10421.6
482.574	10462.56
482.778	10460.51
482.983	10626.4
483.187	10657.12
483.391	10446.18
483.595	10593.63
483.8	10345.83
484.004	10364.26
484.208	10390.88
484.412	10265.96
484.616	10315.11
484.821	10560.86
485.025	10272.1
485.229	10669.41
485.433	10304.87
485.637	10296.67
485.841	10251.62
486.045	10235.24
486.249	10370.4
486.453	10102.12
486.657	10610.01
486.861	10351.97
487.065	10220.9
487.269	10280.29
487.473	10286.44
487.677	10249.57
487.881	10364.26
488.085	10358.11
488.289	10212.71
488.493	10282.34
488.697	10474.85
488.901	10401.12
489.105	10526.05
489.309	10331.49
489.512	10603.87
489.716	10501.47
489.92	10456.42
490.124	10399.07
490.328	10634.59
490.531	10499.42
490.735	10802.52
490.939	10614.11
491.143	10575.2
491.346	10538.34
491.55	10802.52
491.754	10784.09
491.958	11050.33
492.161	10689.88
492.365	10806.62
492.569	10673.5
492.772	10962.26
492.976	11175.25
493.18	11056.47
493.383	11193.69
493.587	11279.7
493.79	11523.41
493.994	11412.82
494.197	11478.35
494.401	11490.64
494.605	11646.29
494.808	11650.38
495.012	11853.13
495.215	11861.32
495.419	11844.94
495.622	11642.19
495.825	12154.18
496.029	12035.4
496.232	12074.31
496.436	12178.76
496.639	12461.38
496.843	12285.25
497.046	12809.53
497.249	12848.44
497.453	12856.64
497.656	13145.4
497.859	13169.98
498.063	13307.19
498.266	13450.55
498.469	13409.59
498.673	13632.82
498.876	13673.78
499.079	14030.12
499.282	13962.54
499.485	14359.84
499.689	14169.38
499.892	14378.28
500.095	14693.66
500.298	15058.2
500.501	14808.35
500.705	15107.35
500.908	15334.68
501.111	15369.49
501.314	15508.76
501.517	15664.4
501.72	15717.65
501.923	15707.41
502.126	16221.45
502.329	16246.02
502.532	16622.85
502.735	16659.71
502.938	17057.02
503.141	17106.17
503.344	17394.93
503.547	17210.62
503.75	17573.11
503.953	17886.45
504.156	18013.42
504.359	17872.11
504.562	18332.9
504.765	18588.9
504.968	18590.95
505.17	19004.64
505.373	19004.64
505.576	19338.46
505.779	19518.68
505.982	19834.07
506.185	20399.3
506.387	20135.12
506.59	20380.87
506.793	20784.32
506.996	20597.96
507.198	21183.68
507.401	21116.09
507.604	21265.6
507.807	21585.08
508.009	21992.62
508.212	22013.1
508.415	22127.79
508.617	22721.7
508.82	22629.54
509.022	22553.77
509.225	23026.85
509.428	23329.95
509.63	23463.07
509.833	23682.2
510.035	24099.98
510.238	23792.79
510.44	24222.86
510.643	25017.47
510.845	25064.58
511.048	24958.08
511.25	25310.33
511.453	25379.96
511.655	26449
511.858	25953.4
512.06	26274.93
512.262	26526.83
512.465	26348.65
512.667	26883.17
512.87	27532.38
513.072	27255.9
513.274	28048.47
513.477	27937.88
513.679	28189.78
513.881	28705.87
514.084	28808.26
514.286	28941.38
514.488	29293.63
514.69	29723.71
514.893	29961.27
515.095	29953.08
515.297	30432.3
515.499	30614.57
515.701	31001.64
515.904	31317.03
516.106	31376.42
516.308	31550.49
516.51	31861.79
516.712	32097.3
516.914	32605.2
517.116	32902.15
517.318	33020.94
517.52	33051.66
517.722	33438.72
517.925	34276.34
518.127	34044.92
518.329	34366.45
518.531	33969.15
518.733	35048.43
518.935	35017.71
519.136	35255.27
519.338	35541.99
519.54	35363.81
519.742	36176.86
519.944	36266.97
520.146	36967.37
520.348	36934.6
520.55	37028.81
520.752	37196.74
520.954	37743.55
521.155	37415.88
521.357	38247.35
521.559	38491.06
521.761	38769.58
521.963	39166.89
522.164	38962.09
522.366	39687.07
522.568	39746.47
522.77	40037.28
522.971	40569.75
523.173	40068
523.375	40430.49
523.576	40729.49
523.778	40936.34
523.98	41468.81
524.181	41683.84
524.383	41538.44
524.584	41968.51
524.786	42042.24
524.988	41636.74
525.189	42331
525.391	42425.21
525.592	42908.53
525.794	43146.09
525.995	43172.72
526.197	42959.73
526.398	43287.4
526.6	43742.05
526.801	43799.4
527.003	43885.41
527.204	43989.86
527.406	44172.13
527.607	44378.97
527.808	44663.64
528.01	44004.19
528.211	44407.64
528.412	45529.93
528.614	45165.39
528.815	44784.47
529.016	45394.76
529.218	44770.13
529.419	44878.68
529.62	45288.27
529.822	45302.6
530.023	45640.52
530.224	45613.9
530.425	45730.63
530.626	45353.8
530.828	45253.45
531.029	46637.88
531.23	45828.93
531.431	45714.25
531.632	46240.57
531.833	45919.04
532.035	45994.82
532.236	45976.39
532.437	46480.19
532.638	45935.43
532.839	46512.95
533.04	46293.82
533.241	45630.28
533.442	46852.92
533.643	46650.17
533.844	46091.07
534.045	46920.5
534.246	46113.6
534.447	46447.42
534.648	46177.09
534.849	46619.45
535.05	46048.07
535.251	46351.16
535.451	46265.15
535.652	46443.32
535.853	46523.19
536.054	46625.59
536.255	46658.36
536.456	46445.37
536.657	47323.95
536.857	46742.33
537.058	46383.93
537.259	46830.39
537.46	46762.81
537.66	46695.22
537.861	46902.07
538.062	46529.34
538.263	46539.58
538.463	46359.36
538.664	46304.06
538.865	46531.39
539.065	46863.16
539.266	46187.33
539.466	46648.12
539.667	46127.94
539.868	47022.9
540.068	46486.33
540.269	46547.77
540.469	46818.1
540.67	46267.2
540.87	46304.06
541.071	46527.29
541.271	46607.16
541.472	46627.64
541.672	46402.36
541.873	46402.36
542.073	45808.45
542.274	46580.54
542.474	46017.35
542.675	46265.15
542.875	46635.83
543.075	46299.97
543.276	45943.62
543.476	46752.57
543.676	45732.68
543.877	46631.74
544.077	46523.19
544.277	45933.38
544.478	45996.87
544.678	46363.45
544.878	46523.19
545.078	46179.14
545.279	45757.25
545.479	46287.68
545.679	46355.26
545.879	45736.77
546.079	46207.81
546.28	45968.19
546.48	45927.24
546.68	45968.19
546.88	46687.03
547.08	46082.88
547.28	45687.62
547.48	45620.04
547.68	46287.68
547.88	45646.66
548.081	46299.97
548.281	45810.5
548.481	45591.37
548.681	45798.21
548.881	45976.39
549.081	45720.39
549.28	45777.73
549.48	46400.32
549.68	45732.68
549.88	46402.36
550.08	45728.58
550.28	45927.24
550.48	45663.05
550.68	46183.23
550.88	45470.54
551.08	45749.06
551.279	45790.02
551.479	45177.68
551.679	45824.84
551.879	45667.14
552.079	45818.69
552.278	45689.67
552.478	45431.63
552.678	45615.94
552.878	45654.86
553.077	45777.73
553.277	45292.36
553.477	45632.33
553.676	45480.78
553.876	45650.76
554.076	45249.36
554.275	45396.81
554.475	44936.02
554.674	45292.36
554.874	45560.65
555.074	45077.33
555.273	45615.94
555.473	45278.03
555.672	44956.5
555.872	45382.48
556.071	45687.62
556.271	45149.01
556.47	44952.4
556.67	44663.64
556.869	44946.26
557.068	45058.9
557.268	44866.39
557.467	44995.41
557.667	44985.17
557.866	44741.46
558.065	44690.26
558.265	44475.23
558.464	44395.35
558.663	44852.05
558.863	44327.77
559.062	44948.31
559.261	44151.65
559.461	44565.34
559.66	44067.68
559.859	44393.31
560.058	44190.56
560.258	44116.83
560.457	43889.51
560.656	44387.16
560.855	43848.55
561.054	44043.1
561.253	43850.59
561.453	44112.73
561.652	44092.26
561.851	44090.21
562.05	43834.21
562.249	43068.27
562.448	43977.57
562.647	43266.92
562.846	43451.24
563.045	43295.6
563.244	43430.76
563.443	43840.36
563.642	43078.51
563.841	43389.8
564.04	42961.78
564.239	43629.41
564.438	42679.16
564.637	43051.89
564.836	43033.46
565.035	42601.33
565.234	43397.99
565.432	42541.94
565.631	42670.96
565.83	42707.83
566.029	42503.03
566.228	42201.98
566.427	42601.33
566.625	42191.74
566.824	41972.61
567.023	42204.03
567.222	41393.03
567.42	42322.81
567.619	42124.16
567.818	42150.78
568.016	41642.88
568.215	42046.33
568.414	41978.75
568.612	41984.9
568.811	41595.78
569.01	41855.87
569.208	41454.47
569.407	41845.63
569.605	41003.92
569.804	41487.24
570.002	40657.81
570.201	41208.72
570.4	40641.43
570.598	40840.08
570.797	40448.92
570.995	40575.89
571.193	40283.03
571.392	40473.49
571.59	40287.13
571.789	40618.9
571.987	40364.95
572.186	40514.45
572.384	40160.16
572.582	40094.62
572.781	39631.78
572.979	39420.84
573.177	39596.96
573.376	39738.27
573.574	39377.83
573.772	39584.68
573.971	39383.98
574.169	39279.53
574.367	38996.91
574.565	39404.45
574.763	39056.3
574.962	39009.2
575.16	38859.7
575.358	38951.85
575.556	38306.74
575.754	38958
575.952	38333.37
576.151	38943.66
576.349	38233.02
576.547	38306.74
576.745	38325.18
576.943	38409.14
577.141	38267.83
577.339	38458.29
577.537	38515.64
577.735	37735.36
577.933	38067.13
578.131	37841.85
578.329	37780.42
578.527	37520.32
578.725	37522.37
578.923	37745.6
579.121	36981.71
579.319	37247.94
579.516	37587.91
579.714	36944.84
579.912	36774.86
580.11	36692.94
580.308	36627.41
580.506	36484.05
580.704	36217.82
580.901	36721.62
581.099	36705.23
581.297	36496.34
581.495	36234.2
581.692	36336.6
581.89	36094.94
582.088	36244.44
582.285	35810.27
582.483	36301.78
582.681	36123.61
582.878	35771.36
583.076	35369.96
583.274	35785.69
583.471	35455.97
583.669	35306.47
583.866	35431.4
584.064	35734.49
584.262	35167.21
584.459	35357.67
584.657	35034.09
584.854	35079.14
585.052	34558.96
585.249	34671.6
585.447	35011.56
585.644	34741.23
585.841	34628.59
586.039	34456.56
586.236	34216.95
586.434	34059.26
586.631	34171.89
586.828	34225.14
587.026	33819.64
587.223	33735.68
587.42	33545.22
587.618	33750.01
587.815	33567.74
588.012	33410.05
588.21	33035.27
588.407	33549.31
588.604	33436.67
588.801	33305.6
588.999	33154.05
589.196	33109
589.393	32885.77
589.59	32795.66
589.787	32994.31
589.984	32695.31
590.182	32275.48
590.379	32629.77
590.576	32134.17
590.773	32228.37
590.97	32007.19
591.167	32345.11
591.364	31656.99
591.561	32222.23
591.758	31763.48
591.955	31493.15
592.152	31970.33
592.349	31278.11
592.546	31478.82
592.743	31790.11
592.94	31110.18
593.137	31484.96
593.334	31284.26
593.531	31083.56
593.727	31177.76
593.924	31110.18
594.121	30843.95
594.318	30944.3
594.515	30600.24
594.712	30962.73
594.908	30334
595.105	30837.8
595.302	30116.92
595.499	30215.22
595.696	30151.73
595.892	30016.57
596.089	30196.79
596.286	30065.72
596.482	29881.4
596.679	30372.91
596.876	29561.92
597.072	29789.24
597.269	29664.32
597.466	29242.43
597.662	29428.8
597.859	29475.9
598.055	28978.25
598.252	29049.92
598.448	28943.43
598.645	28927.05
598.841	28767.31
599.038	28785.74
599.234	28521.55
599.431	28300.37
599.627	28531.79
599.824	28558.41
600.02	28478.54
600.217	28234.83
600.413	28324.94
600.609	27825.24
600.806	27790.42
601.002	28013.65
601.198	27708.51
601.395	27798.62
601.591	27941.97
601.787	27577.44
601.984	27612.25
602.18	27516
602.376	27421.79
602.572	27632.73
602.769	27303.01
602.965	27077.73
603.161	26944.61
603.357	27085.92
603.553	27106.4
603.75	27083.87
603.946	26864.74
604.142	26498.16
604.338	26762.34
604.534	26844.26
604.73	26461.29
604.926	26512.49
605.122	26508.4
605.318	26188.91
605.514	26094.71
605.71	26119.28
605.906	26006.64
606.102	26025.07
606.298	25971.83
606.494	25920.63
606.69	25881.72
606.886	25785.46
607.082	25349.25
607.278	25715.83
607.474	25439.36
607.67	25437.31
607.866	25085.06
608.062	25218.18
608.257	25351.29
608.453	25109.63
608.649	25365.63
608.845	25181.31
609.041	25136.26
609.236	25384.06
609.432	25173.12
609.628	24749.19
609.824	24784.01
610.019	24718.47
610.215	25025.67
610.411	24722.57
610.606	24657.03
610.802	24630.41
610.998	24497.29
611.193	24575.11
611.389	24460.43
611.584	24411.28
611.78	24415.37
611.976	24364.17
612.171	24114.32
612.367	24239.25
612.562	24122.51
612.758	23458.97
612.953	24069.26
613.149	24362.12
613.344	23663.77
613.539	24343.69
613.735	23940.24
613.93	23747.73
614.126	23831.7
614.321	23858.32
614.517	24056.98
614.712	23575.7
614.907	23288.99
615.103	23475.35
615.298	23694.49
615.493	23708.82
615.688	23258.27
615.884	23866.52
616.079	23329.95
616.274	23303.32
616.47	23323.8
616.665	22963.36
616.86	23057.57
617.055	23073.95
617.25	23270.56
617.445	23069.86
617.641	22635.69
617.836	23000.23
618.031	22865.06
618.226	22815.91
618.421	22477.99
618.616	22848.68
618.811	22566.06
619.006	22826.15
619.201	22142.13
619.396	22484.14
619.591	22009.01
619.786	22336.68
619.981	21871.79
620.176	22025.39
620.371	22109.36
620.566	22011.06
620.761	21673.14
620.956	21785.78
621.151	21494.97
621.346	21597.37
621.541	21402.81
621.735	21329.08
621.93	20870.34
622.125	21064.89
622.32	21107.9
622.515	21075.13
622.709	20491.46
622.904	20579.53
623.099	20301
623.294	20413.64
623.488	20266.19
623.683	20315.34
623.878	19991.76
624.072	19958.99
624.267	19971.28
624.462	19903.7
624.656	19885.26
624.851	20053.2
625.046	19545.3
625.24	19586.26
625.435	19487.96
625.629	19078.36
625.824	19100.89
626.018	19098.84
626.213	18820.32
626.407	18939.1
626.602	18756.83
626.796	18711.78
626.991	18425.06
627.185	18461.93
627.38	18756.83
627.574	18232.55
627.768	17945.84
627.963	18031.85
628.157	17779.95
628.352	18007.28
628.546	17730.8
628.74	17769.71
628.935	17536.24
629.129	17700.08
629.323	17257.72
629.517	17155.32
629.712	17196.28
629.906	17161.47
630.1	16819.46
630.294	17001.72
630.489	16862.46
630.683	16825.6
630.877	16542.98
631.071	16686.34
631.265	16692.48
631.459	16452.87
631.653	16450.82
631.848	16274.7
632.042	16200.97
632.236	16049.42
632.43	16131.34
632.624	16153.87
632.818	15770.9
633.012	15895.82
633.206	15523.09
633.4	15756.56
633.594	15613.2
633.788	15750.42
633.982	15486.23
634.176	15625.49
634.369	15383.83
634.563	14888.22
634.757	14953.76
634.951	15435.03
635.145	15193.37
635.339	14859.55
635.533	14974.24
635.726	14574.88
635.92	14771.49
636.114	14867.74
636.308	14490.91
636.501	14560.55
636.695	14472.48
636.889	14177.58
637.083	14097.7
637.276	13884.72
637.47	13927.72
637.664	13978.92
637.857	14136.62
638.051	14161.19
638.244	14132.52
638.438	13661.49
638.632	13641.01
638.825	13702.45
639.019	13604.14
639.212	13387.06
639.406	13311.28
639.599	13313.33
639.793	13307.19
639.986	13241.65
640.18	13247.8
640.373	12836.16
640.567	12797.24
640.76	12975.42
640.954	12739.9
641.147	12715.33
641.34	12485.95
641.534	12506.43
641.727	12522.82
641.92	12713.28
642.114	12373.32
642.307	12651.84
642.5	12252.49
642.694	12442.95
642.887	12078.41
643.08	12213.57
643.273	12037.45
643.467	11973.96
643.66	11969.87
643.853	11978.06
644.046	11568.46
644.239	11836.75
644.432	11541.84
644.626	11660.62
644.819	11513.17
645.012	11627.85
645.205	11701.58
645.398	11492.69
645.591	11273.56
645.784	11435.35
645.977	11203.93
646.17	11523.41
646.363	10949.98
646.556	10945.88
646.749	11060.57
646.942	10958.17
647.135	10782.04
647.328	10823
647.521	10958.17
647.714	10679.65
647.907	10730.84
648.099	10646.88
648.292	10792.28
648.485	10505.57
648.678	10263.91
648.871	10362.21
649.064	10462.56
649.256	10208.61
649.449	10020.2
649.642	10208.61
649.835	10042.73
650.027	10149.22
650.22	9958.76
650.413	9956.71
650.605	9987.43
650.798	9975.14
650.991	9803.11
651.183	9667.95
651.376	9766.25
651.568	9807.21
651.761	9522.54
651.954	9565.55
652.146	9778.54
652.339	9538.93
652.531	9528.69
652.724	9547.12
652.916	9201.01
653.109	9217.4
653.301	9295.22
653.494	9475.44
653.686	8934.78
653.879	9231.73
654.071	9127.28
654.263	9119.09
654.456	9071.99
654.648	9102.71
654.84	8813.95
655.033	8854.9
655.225	8904.06
655.417	8772.99
655.61	8594.81
655.802	8813.95
655.994	8600.96
656.186	8592.76
656.379	8705.4
656.571	8402.3
656.763	8330.62
656.955	8371.58
657.148	8443.26
657.34	8453.5
657.532	8197.51
657.724	8217.99
657.916	8387.97
658.108	8201.6
658.3	8076.68
658.492	8148.36
658.684	8000.9
658.876	7972.23
659.068	7935.37
659.26	7980.42
659.452	7939.46
659.644	7894.41
659.836	7904.65
660.028	7878.02
660.22	7695.75
660.412	7675.27
660.604	7804.3
660.796	7669.13
660.988	7853.45
661.18	7585.16
661.372	7388.56
661.563	7382.42
661.755	7413.13
661.947	7515.53
662.139	7277.97
662.331	7374.22
662.522	7257.49
662.714	7390.61
662.906	7132.56
663.097	7136.66
663.289	7087.51
663.481	7126.42
663.673	7091.6
663.864	6981.01
664.056	6897.05
664.247	7163.28
664.439	6964.63
664.631	6813.08
664.822	7034.26
665.014	6698.39
665.205	7001.49
665.397	6876.57
665.588	6841.75
665.78	6755.74
665.971	6514.08
666.163	6888.85
666.354	6602.14
666.546	6520.22
666.737	6530.46
666.929	6552.99
667.12	6421.92
667.311	6485.41
667.503	6305.18
667.694	6477.21
667.885	6430.11
668.077	6278.56
668.268	6219.17
668.459	6176.16
668.651	6376.86
668.842	6288.8
669.033	6028.71
669.224	6161.83
669.416	6370.72
669.607	6030.76
669.798	6024.61
669.989	5989.8
670.18	6059.43
670.371	6174.11
670.563	5950.89
670.754	5934.5
670.945	5938.6
671.136	5997.99
671.327	5911.97
671.518	5899.69
671.709	5862.82
671.9	5957.03
672.091	5864.87
672.282	5711.27
672.473	5670.31
672.664	5924.26
672.855	5690.79
673.046	5621.16
673.237	5725.61
673.428	5746.09
673.619	5543.34
673.809	5592.49
674	5615.02
674.191	5645.74
674.382	5551.53
674.573	5692.84
674.764	5758.38
674.954	5594.54
675.145	5440.94
675.336	5463.47
675.527	5375.41
675.717	5494.19
675.908	5342.64
676.099	5363.12
676.289	5375.41
676.48	5236.14
676.671	5285.3
676.861	5313.97
677.052	5307.82
677.243	5322.16
677.433	5289.39
677.624	5330.35
677.814	5207.47
678.005	5139.89
678.195	5125.55
678.386	5252.53
678.576	5131.7
678.767	5133.75
678.957	5150.13
679.148	5043.64
679.338	5125.55
679.529	5223.86
679.719	4978.1
679.909	5203.38
680.1	4896.18
680.29	5051.83
680.481	5023.16
680.671	5184.94
680.861	4963.76
681.052	4969.91
681.242	5023.16
681.432	5037.49
681.622	4974
681.813	4838.84
682.003	4943.28
682.193	4855.22
682.383	4990.39
682.573	4871.61
682.764	4908.47
682.954	4935.09
683.144	4918.71
683.334	4789.69
683.524	4838.84
683.714	4785.59
683.904	4761.02
684.094	4904.37
684.284	4824.5
684.474	4965.81
684.664	4773.3
684.854	4814.26
685.044	4601.27
685.234	4650.43
685.424	4593.08
685.614	4707.77
685.804	4715.96
685.994	4570.55
686.184	4621.75
686.374	4691.38
686.564	4564.41
686.753	4595.13
686.943	4634.04
687.133	4474.3
687.323	4560.31
687.513	4609.47
687.702	4427.2
687.892	4580.79
688.082	4347.33
688.272	4545.98
688.461	4281.79
688.651	4445.63
688.841	4287.93
689.03	4332.99
689.22	4285.89
689.41	4324.8
689.599	4349.37
689.789	4380.09
689.979	4167.1
690.168	4199.87
690.358	4339.13
690.547	4183.49
690.737	4271.55
690.926	4132.29
691.116	3980.74
691.305	4208.06
691.495	4253.12
691.684	4056.51
691.874	4033.99
692.063	4150.72
692.252	4056.51
692.442	4122.05
692.631	3835.33
692.82	4029.89
693.01	3972.55
693.199	3997.12
693.388	3939.78
693.578	3921.35
693.767	3868.1
693.956	3990.98
694.146	3904.96
694.335	3882.44
694.524	3847.62
694.713	3761.61
694.902	3894.72
695.092	3964.36
695.281	3716.55
695.47	3775.94
695.659	3798.47
695.848	3661.26
696.037	3788.23
696.226	3763.65
696.415	3716.55
696.604	3741.13
696.793	3642.82
696.982	3796.42
697.171	3782.09
697.36	3786.18
697.549	3651.02
697.738	3634.63
697.927	3618.25
698.116	3624.39
698.305	3577.29
698.494	3599.82
698.683	3538.38
698.872	3790.28
699.061	3669.45
699.25	3724.74
699.438	3497.42
699.627	3683.78
699.816	3603.91
700.005	3593.67
700.193	3624.39
700.382	3528.14
700.571	3528.14
700.76	3554.76
700.948	3478.99
701.137	3507.66
701.326	3468.75
701.514	3429.84
701.703	3538.38
701.892	3331.53
702.08	3413.45
702.269	3446.22
702.457	3397.07
702.646	3356.11
702.834	3255.76
703.023	3329.49
703.212	3368.4
703.4	3333.58
703.589	3231.18
703.777	3415.5
703.965	3255.76
704.154	3286.48
704.342	3249.61
704.531	3476.94
704.719	3294.67
704.907	3395.02
705.096	3272.14
705.284	3403.21
705.472	3323.34
705.661	3212.75
705.849	3372.49
706.037	3354.06
706.226	3194.32
706.414	3274.19
706.602	3208.66
706.79	3179.98
706.979	3222.99
707.167	3200.46
707.355	3237.33
707.543	3075.54
707.731	3225.04
707.919	3272.14
708.107	3294.67
708.296	2995.67
708.484	3128.78
708.672	3194.32
708.86	3253.71
709.048	3120.59
709.236	3118.54
709.424	3214.8
709.612	3153.36
709.8	3184.08
709.988	3163.6
710.176	3069.39
710.364	3120.59
710.551	3085.78
710.739	3122.64
710.927	2997.71
711.115	3067.35
711.303	3069.39
711.491	2995.67
711.679	3155.41
711.866	3055.06
712.054	3093.97
712.242	3061.2
712.43	3106.26
712.617	3169.74
712.805	3079.63
712.993	3046.87
713.181	3001.81
713.368	3122.64
713.556	3096.02
713.744	2985.43
713.931	3036.63
714.119	2997.71
714.306	3003.86
714.494	3028.43
714.682	3106.26
714.869	3026.39
715.057	3077.59
715.244	2952.66
715.432	2997.71
715.619	2792.92
715.807	2928.08
715.994	2977.23
716.182	2889.17
716.369	2932.18
716.556	3046.87
716.744	3020.24
716.931	2774.49
717.119	2975.19
717.306	2938.32
717.493	2932.18
717.681	2893.27
717.868	2833.88
718.055	2930.13
718.242	2938.32
718.43	2909.65
718.617	2805.21
718.804	2913.75
718.991	2844.12
719.179	2803.16
719.366	2786.77
719.553	2899.41
719.74	2856.4
719.927	3005.91
720.114	2823.64
720.301	2784.73
720.488	2850.26
720.676	2848.21
720.863	2966.99
721.05	2842.07
721.237	2694.61
721.424	2778.58
721.611	2708.95
721.798	2817.49
721.985	2780.63
722.172	2799.06
722.358	2850.26
722.545	2760.15
722.732	2721.24
722.919	2751.96
723.106	2880.98
723.293	2766.29
723.48	2807.25
723.667	2792.92
723.853	2758.1
724.04	2790.87
724.227	2754.01
724.414	2629.08
724.6	2643.42
724.787	2674.14
724.974	2809.3
725.161	2741.72
725.347	2704.85
725.534	2586.07
725.72	2696.66
725.907	2794.97
726.094	2610.65
726.28	2766.29
726.467	2713.05
726.653	2661.85
726.84	2790.87
727.027	2604.5
727.213	2635.22
727.4	2713.05
727.586	2711
727.773	2680.28
727.959	2663.9
728.145	2694.61
728.332	2719.19
728.518	2672.09
728.705	2676.18
728.891	2661.85
729.077	2602.46
729.264	2555.35
729.45	2667.99
729.636	2592.22
729.823	2608.6
730.009	2622.94
730.195	2602.46
730.382	2647.51
730.568	2610.65
730.754	2538.97
730.94	2686.42
731.126	2622.94
731.313	2653.66
731.499	2565.59
731.685	2516.44
731.871	2586.07
732.057	2581.98
732.243	2590.17
732.429	2586.07
732.615	2629.08
732.801	2647.51
732.987	2596.31
733.173	2493.91
733.359	2612.7
733.545	2536.92
733.731	2463.19
733.917	2592.22
734.103	2606.55
734.289	2514.39
734.475	2481.63
734.661	2512.35
734.847	2651.61
735.033	2516.44
735.219	2483.67
735.404	2573.78
735.59	2586.07
735.776	2500.06
735.962	2547.16
736.148	2489.82
736.333	2516.44
736.519	2536.92
736.705	2522.59
736.89	2524.63
737.076	2426.33
737.262	2346.46
737.447	2512.35
737.633	2495.96
737.819	2467.29
738.004	2332.12
738.19	2512.35
738.375	2266.59
738.561	2477.53
738.747	2446.81
738.932	2368.99
739.118	2358.75
739.303	2389.47
739.489	2383.32
739.674	2307.55
739.859	2338.27
740.045	2309.6
740.23	2311.64
740.416	2270.69
740.601	2262.49
740.786	2307.55
740.972	2364.89
741.157	2170.33
741.342	2250.21
741.528	2289.12
741.713	2348.51
741.898	2393.56
742.084	2299.36
742.269	2242.01
742.454	2315.74
742.639	2285.02
742.824	2307.55
743.01	2383.32
743.195	2266.59
743.38	2209.25
743.565	2237.92
743.75	2194.91
743.935	2201.05
744.12	2219.49
744.305	2131.42
744.49	2133.47
744.675	2184.67
744.86	2067.94
745.045	2086.37
745.23	2096.61
745.415	2084.32
745.6	2127.33
745.785	2100.7
745.97	2119.14
746.155	2119.14
746.34	2112.99
746.525	1990.11
746.71	1963.49
746.895	1867.24
747.079	2094.56
747.264	1857
747.449	2004.45
747.634	1906.15
747.819	1877.48
748.003	1914.34
748.188	1924.58
748.373	1910.24
748.557	1852.9
748.742	1922.53
748.927	1951.2
749.111	1910.24
749.296	1832.42
749.481	1818.08
749.665	1842.66
749.85	1773.03
750.034	1832.42
750.219	1766.89
750.404	1787.36
750.588	1746.41
750.773	1693.16
750.957	1738.21
751.141	1820.13
751.326	1709.54
751.51	1650.15
751.695	1666.53
751.879	1721.83
752.064	1717.73
752.248	1676.77
752.432	1758.69
752.617	1703.4
752.801	1551.85
752.985	1578.47
753.17	1588.71
753.354	1588.71
753.538	1543.66
753.722	1611.24
753.907	1504.75
754.091	1533.42
754.275	1484.27
754.459	1441.26
754.643	1437.16
754.828	1441.26
755.012	1463.79
755.196	1494.51
755.38	1457.64
755.564	1385.96
755.748	1467.88
755.932	1383.91
756.116	1469.93
756.3	1449.45
756.484	1492.46
756.668	1482.22
756.852	1302
757.036	1406.44
757.22	1408.49
757.404	1390.06
757.588	1285.61
757.772	1357.29
757.956	1334.76
758.14	1304.04
758.323	1342.96
758.507	1246.7
758.691	1240.56
758.875	1285.61
759.059	1316.33
759.242	1310.19
759.426	1236.46
759.61	1244.65
759.794	1283.56
759.977	1340.91
760.161	1314.28
760.345	1258.99
760.528	1222.13
760.712	1148.4
760.895	1254.89
761.079	1304.04
761.263	1121.77
761.446	1154.54
761.63	1152.49
761.813	1103.34
761.997	1203.69
762.18	1193.45
762.364	1162.73
762.547	1170.93
762.731	1234.41
762.914	1082.86
763.098	1154.54
763.281	1017.33
763.464	1142.25
763.648	1058.29
763.831	1031.66
764.015	1056.24
764.198	1027.57
764.381	1107.44
764.564	1113.58
764.748	1078.77
764.931	1160.69
765.114	1005.04
765.297	1033.71
765.481	988.66
765.664	1005.04
765.847	962.03
766.03	1050.1
766.213	906.74
766.397	1089.01
766.58	1046
766.763	943.6
766.946	1000.94
767.129	1066.48
767.312	941.55
767.495	923.12
767.678	1054.19
767.861	1023.47
768.044	878.07
768.227	990.7
768.41	980.47
768.593	1058.29
768.776	951.79
768.959	966.13
769.142	1046
769.324	902.64
769.507	978.42
769.69	1021.42
769.873	888.31
770.056	888.31
770.239	873.97
770.421	880.11
770.604	830.96
770.787	953.84
770.97	931.31
771.152	835.06
771.335	945.65
771.518	779.76
771.7	876.02
771.883	896.5
772.066	843.25
772.248	783.86
772.431	845.3
772.613	861.68
772.796	902.64
772.978	906.74
773.161	914.93
773.343	873.97
773.526	814.58
773.708	826.87
773.891	816.63
774.073	935.41
774.256	841.2
774.438	824.82
774.621	865.78
774.803	837.11
774.985	742.9
775.168	790
775.35	804.34
775.532	812.53
775.715	677.37
775.897	771.57
776.079	675.32
776.261	751.09
776.444	777.72
776.626	744.95
776.808	730.61
776.99	628.21
777.173	736.76
777.355	683.51
777.537	669.17
777.719	785.91
777.901	685.56
778.083	599.54
778.265	628.21
778.447	677.37
778.629	699.89
778.811	644.6
778.993	632.31
779.175	648.69
779.357	650.74
779.539	591.35
779.721	679.41
779.903	656.89
780.085	693.75
780.267	579.06
780.449	624.12
780.631	660.98
780.812	562.68
780.994	577.02
781.176	650.74
781.358	527.86
781.54	615.93
781.721	574.97
781.903	646.65
782.085	572.92
782.267	568.82
782.448	521.72
782.63	550.39
782.812	560.63
782.993	597.49
783.175	546.3
783.357	603.64
783.538	579.06
783.72	513.53
783.901	484.86
784.083	525.82
784.264	390.65
784.446	515.58
784.627	423.42
784.809	466.42
784.99	542.2
785.172	523.77
785.353	441.85
785.535	511.48
785.716	409.08
785.897	456.19
786.079	488.95
786.26	486.9
786.441	521.72
786.623	415.23
786.804	407.03
786.985	474.62
787.167	480.76
787.348	495.1
787.529	435.71
787.71	482.81
787.891	480.76
788.073	392.7
788.254	423.42
788.435	439.8
788.616	480.76
788.797	404.99
788.978	364.03
789.159	337.4
789.34	441.85
789.522	423.42
789.703	390.65
789.884	310.78
790.065	407.03
790.246	456.19
790.427	378.36
790.607	421.37
790.788	376.31
790.969	245.24
791.15	384.51
791.331	415.23
791.512	353.79
791.693	347.64
791.874	337.4
792.054	374.27
792.235	359.93
792.416	325.12
792.597	300.54
792.778	321.02
792.958	355.83
793.139	396.79
793.32	343.55
793.5	341.5
793.681	382.46
793.862	308.73
794.042	378.36
794.223	288.25
794.404	349.69
794.584	267.77
794.765	402.94
794.945	296.44
795.126	343.55
795.306	333.31
795.487	265.72
795.667	280.06
795.848	384.51
796.028	308.73
796.209	361.98
796.389	337.4
796.57	374.27
796.75	333.31
796.93	345.59
797.111	341.5
797.291	312.83
797.471	316.92
797.652	284.16
797.832	349.69
798.012	329.21
798.192	273.92
798.373	318.97
798.553	230.91
798.733	308.73
798.913	294.4
799.093	267.77
799.274	323.07
799.454	251.39
799.634	327.16
799.814	353.79
799.994	265.72
800.174	278.01
800.354	286.2
800.534	230.91
800.714	226.81
800.894	255.48
801.074	243.2
801.254	286.2
801.434	239.1
801.614	251.39
801.794	187.9
801.974	824.82
802.154	271.87
802.334	220.67
802.514	235
802.693	179.71
802.873	218.62
803.053	325.12
803.233	241.15
803.413	292.35
803.592	259.58
803.772	210.43
803.952	210.43
804.131	192
804.311	220.67
804.491	261.63
804.67	224.76
804.85	235
805.03	196.09
805.209	243.2
805.389	226.81
805.568	189.95
805.748	241.15
805.928	269.82
806.107	200.19
806.287	173.57
806.466	175.61
806.646	243.2
806.825	245.24
807.004	179.71
807.184	290.3
807.363	194.05
807.543	189.95
807.722	202.24
807.901	226.81
808.081	185.85
808.26	54.78
808.439	210.43
808.619	183.81
808.798	192
808.977	134.65
809.156	200.19
809.336	194.05
809.515	239.1
809.694	214.52
809.873	267.77
810.052	226.81
810.231	161.28
810.411	232.96
810.59	179.71
810.769	148.99
810.948	292.35
811.127	214.52
811.306	108.03
811.485	206.33
811.664	226.81
811.843	194.05
812.022	130.56
812.201	103.93
812.38	263.68
812.559	204.28
812.737	222.72
812.916	185.85
813.095	144.89
813.274	278.01
813.453	132.61
813.632	179.71
813.811	220.67
813.989	151.04
814.168	220.67
814.347	185.85
814.526	132.61
814.704	85.5
814.883	138.75
815.062	144.89
815.24	128.51
815.419	130.56
815.598	173.57
815.776	128.51
815.955	146.94
816.133	179.71
816.312	226.81
816.49	157.18
816.669	110.08
816.847	161.28
817.026	161.28
817.204	132.61
817.383	177.66
817.561	95.74
817.74	214.52
817.918	175.61
818.097	120.32
818.275	189.95
818.453	226.81
818.632	136.7
818.81	155.13
818.988	138.75
819.167	95.74
819.345	75.26
819.523	171.52
819.701	177.66
819.879	97.79
820.058	187.9
820.236	120.32
820.414	155.13
820.592	128.51
820.77	187.9
820.948	169.47
821.127	75.26
821.305	202.24
821.483	163.33
821.661	175.61
821.839	148.99
822.017	179.71
822.195	112.13
822.373	220.67
822.551	194.05
822.729	179.71
822.907	116.22
823.085	155.13
823.262	142.85
823.44	89.6
823.618	42.5
823.796	91.65
823.974	155.13
824.152	85.5
824.329	46.59
824.507	93.69
824.685	165.37
824.863	105.98
825.04	103.93
825.218	122.37
825.396	138.75
825.574	79.36
825.751	144.89
825.929	169.47
826.107	136.7
826.284	112.13
826.462	134.65
826.639	114.17
826.817	42.5
826.994	83.45
827.172	136.7
827.349	128.51
827.527	67.07
827.704	103.93
827.882	173.57
828.059	161.28
828.237	110.08
828.414	171.52
828.591	122.37
828.769	67.07
828.946	81.41
829.124	120.32
829.301	99.84
829.478	173.57
829.655	181.76
829.833	120.32
830.01	36.35
830.187	30.21
830.364	118.27
830.542	105.98
830.719	151.04
830.896	91.65
831.073	136.7
831.25	95.74
831.427	71.17
831.604	67.07
831.782	38.4
831.959	114.17
832.136	97.79
832.313	71.17
832.49	7.68
832.667	75.26
832.844	71.17
833.021	71.17
833.198	62.98
833.374	62.98
833.551	75.26
833.728	30.21
833.905	93.69
834.082	42.5
834.259	103.93
834.436	71.17
834.612	62.98
834.789	105.98
834.966	79.36
835.143	138.75
835.319	36.35
835.496	54.78
835.673	112.13
835.85	81.41
836.026	116.22
836.203	73.21
836.38	42.5
836.556	34.3
836.733	75.26
836.909	146.94
837.086	5.63
837.262	58.88
837.439	95.74
837.616	22.02
837.792	34.3
837.968	67.07
838.145	73.21
838.321	62.98
838.498	105.98
838.674	83.45
838.851	17.92
839.027	1.54
839.203	58.88
839.38	112.13
839.556	77.31
839.732	120.32
839.909	65.02
840.085	128.51
840.261	17.92
840.437	75.26
840.614	71.17
840.79	87.55
840.966	95.74
841.142	93.69
841.318	60.93
841.494	134.65
841.671	116.22
841.847	71.17
842.023	81.41
842.199	40.45
842.375	138.75
842.551	67.07
842.727	44.54
842.903	153.09
843.079	42.5
843.255	38.4
843.431	17.92
843.607	67.07
843.783	48.64
843.959	67.07
844.134	13.82
844.31	93.69
844.486	54.78
844.662	32.26
844.838	97.79
845.013	151.04
845.189	99.84
845.365	95.74
845.541	58.88
845.716	3.58
845.892	95.74
846.068	54.78
846.244	60.93
846.419	140.8
846.595	54.78
846.77	32.26
846.946	83.45
847.122	71.17
847.297	99.84
847.473	120.32
847.648	122.37
847.824	87.55
847.999	52.74
848.175	46.59
848.35	95.74
848.526	128.51
848.701	-27.14
848.876	73.21
849.052	89.6
849.227	89.6
849.403	65.02
849.578	22.02
849.753	65.02
849.929	65.02
850.104	91.65
850.279	71.17
850.454	-35.33
850.63	93.69
850.805	71.17
850.98	83.45
851.155	17.92
851.33	83.45
851.505	65.02
851.681	112.13
851.856	97.79
852.031	114.17
852.206	97.79
852.381	56.83
852.556	105.98
852.731	81.41
852.906	62.98
853.081	79.36
853.256	112.13
853.431	116.22
853.606	22.02
853.781	87.55
853.956	48.64
854.131	79.36
854.305	91.65
854.48	87.55
854.655	1.54
854.83	110.08
855.005	-16.9
855.18	83.45
855.354	60.93
855.529	36.35
855.704	36.35
855.879	38.4
856.053	-33.28
856.228	46.59
856.403	-43.52
856.577	71.17
856.752	-0.51
856.926	73.21
857.101	54.78
857.276	79.36
857.45	-14.85
857.625	9.73
857.799	24.06
857.974	9.73
858.148	24.06
858.323	73.21
858.497	17.92
858.672	83.45
858.846	95.74
859.02	40.45
859.195	24.06
859.369	62.98
859.543	65.02
859.718	65.02
859.892	3.58
860.066	75.26
860.241	62.98
860.415	40.45
860.589	71.17
860.763	13.82
860.938	-27.14
861.112	5.63
861.286	26.11
861.46	87.55
861.634	77.31
861.808	103.93
861.982	67.07
862.157	-2.56
862.331	69.12
862.505	-51.71
862.679	26.11
862.853	38.4
863.027	-10.75
863.201	32.26
863.375	62.98
863.549	58.88
863.722	56.83
863.896	56.83
864.07	-10.75
864.244	30.21
864.418	9.73
864.592	62.98
864.766	38.4
864.939	48.64
865.113	13.82
865.287	124.41
865.461	7.68
865.634	15.87
865.808	-12.8
865.982	32.26
866.156	5.63
866.329	11.78
866.503	-10.75
866.676	13.82
866.85	73.21
867.024	42.5
867.197	71.17
867.371	46.59
867.544	-6.66
867.718	91.65
867.891	85.5
868.065	17.92
868.238	-2.56
868.412	32.26
868.585	-53.76
868.759	-10.75
868.932	30.21
869.105	17.92
869.279	67.07
869.452	30.21
869.625	71.17
869.799	56.83
869.972	-18.94
870.145	19.97
870.319	-41.47
870.492	24.06
870.665	40.45
870.838	3.58
871.011	-27.14
871.185	-35.33
871.358	48.64
871.531	22.02
871.704	13.82
871.877	-27.14
872.05	9.73
872.223	22.02
872.396	89.6
872.569	32.26
872.742	40.45
872.915	30.21
873.088	15.87
873.261	-0.51
873.434	11.78
873.607	42.5
873.78	38.4
873.953	22.02
874.126	73.21
874.299	-10.75
874.471	-20.99
874.644	11.78
874.817	1.54
874.99	13.82
875.163	19.97
875.335	108.03
875.508	56.83
875.681	-16.9
875.853	-33.28
876.026	22.02
876.199	146.94
876.371	15.87
876.544	5.63
876.717	54.78
876.889	38.4
877.062	36.35
877.234	42.5
877.407	22.02
877.579	9.73
877.752	24.06
877.924	87.55
878.097	54.78
878.269	36.35
878.442	-57.86
878.614	52.74
878.786	30.21
878.959	-29.18
879.131	71.17
879.303	-64
879.476	-43.52
879.648	-27.14
879.82	83.45
879.993	9.73
880.165	46.59
880.337	-59.9
880.509	44.54
880.681	-16.9
880.854	79.36
881.026	48.64
881.198	71.17
881.37	15.87
881.542	13.82
881.714	54.78
881.886	30.21
882.058	17.92
882.23	52.74
882.402	34.3
882.574	46.59
882.746	54.78
882.918	22.02
883.09	56.83
883.262	54.78
883.434	-4.61
883.606	-6.66
883.778	13.82
883.95	24.06
884.122	-31.23
884.293	108.03
884.465	-6.66
884.637	75.26
884.809	56.83
884.98	67.07
885.152	22.02
885.324	34.3
885.496	97.79
885.667	42.5
885.839	5.63
886.011	-2.56
886.182	-27.14
886.354	24.06
886.525	5.63
886.697	67.07
886.869	-20.99
887.04	11.78
887.212	38.4
887.383	79.36
887.555	-33.28
887.726	32.26
887.897	-59.9
888.069	22.02
888.24	71.17
888.412	19.97
888.583	-10.75
888.754	40.45
888.926	-14.85
889.097	-16.9
889.268	3.58
889.44	-0.51
889.611	126.46
889.782	26.11
889.953	-57.86
890.125	38.4
890.296	7.68
890.467	7.68
890.638	24.06
890.809	26.11
890.98	-35.33
891.151	89.6
891.323	73.21
891.494	-33.28
891.665	-4.61
891.836	5.63
892.007	50.69
892.178	120.32
892.349	26.11
892.52	17.92
892.691	-16.9
892.862	-41.47
893.032	26.11
893.203	50.69
893.374	26.11
893.545	-6.66
893.716	-8.7
893.887	30.21
894.057	-64
894.228	-6.66
894.399	71.17
894.57	38.4
894.74	58.88
894.911	58.88
895.082	36.35
895.253	-59.9
895.423	32.26
895.594	58.88
895.764	24.06
895.935	-41.47
896.106	9.73
896.276	60.93
896.447	77.31
896.617	7.68
896.788	-25.09
896.958	40.45
897.129	38.4
897.299	103.93
897.47	40.45
897.64	15.87
897.81	26.11
897.981	42.5
898.151	7.68
898.322	81.41
898.492	32.26
898.662	79.36
898.832	65.02
899.003	54.78
899.173	81.41
899.343	30.21
899.513	-43.52
