Data from USB4F104151__124__14-18-54-940.txt Node

Date: Thu Mar 13 14:18:54 EDT 2025
User: louis
Spectrometer: USB4F10415
Trigger mode: 4
Integration Time (sec): 2.000000E-2
Scans to average: 1
Electric dark correction enabled: true
Nonlinearity correction enabled: false
Boxcar width: 0
XAxis mode: Wavelengths
Number of Pixels in Spectrum: 3648
>>>>>Begin Spectral Data<<<<<
178.204	-171.69
178.424	-171.69
178.644	-171.69
178.864	-57
179.084	-122.54
179.304	24.92
179.524	4.44
179.744	0.34
179.964	55.64
180.184	-32.43
180.404	33.11
180.624	-9.9
180.844	-52.91
181.064	-48.81
181.283	53.59
181.503	-52.91
181.723	24.92
181.943	12.63
182.163	63.83
182.383	49.49
182.602	33.11
182.822	63.83
183.042	-5.8
183.262	-36.52
183.482	-44.71
183.701	-87.72
183.921	41.3
184.141	-16.04
184.361	4.44
184.58	37.2
184.8	59.73
185.02	2.39
185.239	84.31
185.459	59.73
185.679	-22.19
185.898	-67.24
186.118	20.82
186.338	84.31
186.557	33.11
186.777	102.74
186.997	-7.85
187.216	-11.95
187.436	-1.71
187.655	-20.14
187.875	8.53
188.095	20.82
188.314	74.07
188.534	59.73
188.753	33.11
188.973	43.35
189.192	43.35
189.412	43.35
189.631	65.88
189.851	-9.9
190.07	45.4
190.29	20.82
190.509	94.55
190.729	26.96
190.948	98.64
191.168	57.68
191.387	-22.19
191.607	-28.33
191.826	18.77
192.045	12.63
192.265	16.73
192.484	-22.19
192.704	2.39
192.923	-13.99
193.142	115.03
193.362	12.63
193.581	53.59
193.8	41.3
194.02	-7.85
194.239	43.35
194.458	4.44
194.678	-13.99
194.897	-13.99
195.116	49.49
195.335	12.63
195.555	6.49
195.774	0.34
195.993	59.73
196.212	24.92
196.432	-7.85
196.651	94.55
196.87	-5.8
197.089	2.39
197.308	0.34
197.528	20.82
197.747	33.11
197.966	51.54
198.185	57.68
198.404	4.44
198.623	-16.04
198.842	-11.95
199.062	0.34
199.281	37.2
199.5	18.77
199.719	47.44
199.938	-3.75
200.157	51.54
200.376	57.68
200.595	57.68
200.814	45.4
201.033	-36.52
201.252	59.73
201.471	18.77
201.69	41.3
201.909	6.49
202.128	8.53
202.347	0.34
202.566	-28.33
202.785	35.16
203.004	8.53
203.223	94.55
203.442	0.34
203.661	-11.95
203.879	35.16
204.098	59.73
204.317	20.82
204.536	108.88
204.755	47.44
204.974	33.11
205.193	47.44
205.411	24.92
205.63	-16.04
205.849	-89.77
206.068	0.34
206.287	0.34
206.505	51.54
206.724	-28.33
206.943	-32.43
207.162	31.06
207.381	-7.85
207.599	4.44
207.818	72.02
208.037	0.34
208.255	-3.75
208.474	49.49
208.693	61.78
208.911	16.73
209.13	24.92
209.349	45.4
209.567	-1.71
209.786	20.82
210.005	-13.99
210.223	0.34
210.442	37.2
210.661	78.16
210.879	33.11
211.098	-18.09
211.316	24.92
211.535	98.64
211.753	51.54
211.972	-18.09
212.191	-32.43
212.409	24.92
212.628	-13.99
212.846	82.26
213.065	39.25
213.283	65.88
213.502	18.77
213.72	-24.23
213.938	-5.8
214.157	59.73
214.375	20.82
214.594	-57
214.812	37.2
215.031	-16.04
215.249	22.87
215.467	2.39
215.686	55.64
215.904	2.39
216.122	74.07
216.341	-48.81
216.559	-65.19
216.778	102.74
216.996	-5.8
217.214	76.12
217.432	49.49
217.651	-16.04
217.869	24.92
218.087	-44.71
218.306	14.68
218.524	57.68
218.742	0.34
218.96	49.49
219.179	-16.04
219.397	-30.38
219.615	49.49
219.833	98.64
220.051	33.11
220.27	20.82
220.488	98.64
220.706	43.35
220.924	-5.8
221.142	41.3
221.36	-32.43
221.578	65.88
221.796	0.34
222.015	8.53
222.233	-36.52
222.451	26.96
222.669	39.25
222.887	24.92
223.105	-48.81
223.323	51.54
223.541	-24.23
223.759	51.54
223.977	76.12
224.195	-24.23
224.413	74.07
224.631	24.92
224.849	33.11
225.067	49.49
225.285	108.88
225.503	-32.43
225.721	-7.85
225.939	-16.04
226.157	88.4
226.375	69.97
226.592	-22.19
226.81	41.3
227.028	8.53
227.246	8.53
227.464	35.16
227.682	16.73
227.9	43.35
228.117	43.35
228.335	-24.23
228.553	-7.85
228.771	-7.85
228.989	31.06
229.206	53.59
229.424	35.16
229.642	-7.85
229.86	57.68
230.077	45.4
230.295	-32.43
230.513	-7.85
230.731	35.16
230.948	45.4
231.166	84.31
231.384	31.06
231.601	33.11
231.819	65.88
232.037	-20.14
232.254	-13.99
232.472	96.6
232.689	67.92
232.907	35.16
233.125	8.53
233.342	-5.8
233.56	47.44
233.777	-16.04
233.995	45.4
234.213	106.84
234.43	10.58
234.648	-5.8
234.865	-16.04
235.083	-57
235.3	24.92
235.518	43.35
235.735	96.6
235.953	78.16
236.17	29.01
236.388	-13.99
236.605	-16.04
236.822	82.26
237.04	29.01
237.257	8.53
237.475	-13.99
237.692	76.12
237.909	0.34
238.127	12.63
238.344	12.63
238.562	47.44
238.779	39.25
238.996	-13.99
239.214	22.87
239.431	2.39
239.648	-16.04
239.865	84.31
240.083	51.54
240.3	-18.09
240.517	-20.14
240.735	65.88
240.952	49.49
241.169	24.92
241.386	8.53
241.603	35.16
241.821	-7.85
242.038	98.64
242.255	100.69
242.472	-20.14
242.689	63.83
242.907	-1.71
243.124	51.54
243.341	-5.8
243.558	-102.06
243.775	-7.85
243.992	-24.23
244.209	55.64
244.426	43.35
244.643	-13.99
244.86	-16.04
245.078	43.35
245.295	4.44
245.512	-7.85
245.729	-7.85
245.946	-5.8
246.163	-5.8
246.38	20.82
246.597	0.34
246.814	53.59
247.031	65.88
247.248	57.68
247.464	-52.91
247.681	45.4
247.898	53.59
248.115	29.01
248.332	6.49
248.549	67.92
248.766	41.3
248.983	43.35
249.2	2.39
249.417	63.83
249.633	33.11
249.85	49.49
250.067	-46.76
250.284	86.36
250.501	67.92
250.717	20.82
250.934	-87.72
251.151	74.07
251.368	-5.8
251.585	-46.76
251.801	61.78
252.018	8.53
252.235	6.49
252.451	-5.8
252.668	31.06
252.885	43.35
253.102	0.34
253.318	-22.19
253.535	-38.57
253.752	33.11
253.968	-20.14
254.185	-13.99
254.401	18.77
254.618	86.36
254.835	-3.75
255.051	65.88
255.268	24.92
255.484	24.92
255.701	18.77
255.917	82.26
256.134	12.63
256.351	-16.04
256.567	16.73
256.784	43.35
257	10.58
257.217	-26.28
257.433	-28.33
257.65	98.64
257.866	16.73
258.082	-30.38
258.299	16.73
258.515	41.3
258.732	-69.29
258.948	35.16
259.165	39.25
259.381	8.53
259.597	20.82
259.814	69.97
260.03	-9.9
260.246	33.11
260.463	110.93
260.679	-5.8
260.895	-75.43
261.112	-20.14
261.328	-13.99
261.544	14.68
261.761	86.36
261.977	6.49
262.193	-7.85
262.409	43.35
262.626	18.77
262.842	45.4
263.058	51.54
263.274	72.02
263.49	-11.95
263.707	53.59
263.923	-7.85
264.139	-32.43
264.355	-28.33
264.571	82.26
264.787	-32.43
265.004	90.45
265.22	-40.62
265.436	4.44
265.652	2.39
265.868	24.92
266.084	98.64
266.3	31.06
266.516	43.35
266.732	51.54
266.948	18.77
267.164	90.45
267.38	16.73
267.596	-9.9
267.812	65.88
268.028	74.07
268.244	-32.43
268.46	12.63
268.676	35.16
268.892	57.68
269.108	-9.9
269.324	-40.62
269.54	-48.81
269.756	33.11
269.972	-34.47
270.188	57.68
270.403	43.35
270.619	67.92
270.835	47.44
271.051	10.58
271.267	0.34
271.483	0.34
271.698	4.44
271.914	12.63
272.13	65.88
272.346	-3.75
272.562	10.58
272.777	49.49
272.993	-30.38
273.209	0.34
273.425	106.84
273.64	8.53
273.856	0.34
274.072	-3.75
274.287	-36.52
274.503	74.07
274.719	8.53
274.934	20.82
275.15	-120.49
275.366	16.73
275.581	41.3
275.797	16.73
276.012	8.53
276.228	33.11
276.444	4.44
276.659	31.06
276.875	-44.71
277.09	-24.23
277.306	65.88
277.521	106.84
277.737	37.2
277.952	0.34
278.168	29.01
278.383	2.39
278.599	10.58
278.814	65.88
279.03	57.68
279.245	76.12
279.461	57.68
279.676	35.16
279.892	-16.04
280.107	-9.9
280.322	-13.99
280.538	-54.95
280.753	-9.9
280.969	-61.1
281.184	10.58
281.399	-20.14
281.615	76.12
281.83	16.73
282.045	37.2
282.26	16.73
282.476	10.58
282.691	49.49
282.906	8.53
283.122	14.68
283.337	-34.47
283.552	37.2
283.767	26.96
283.983	37.2
284.198	-1.71
284.413	26.96
284.628	20.82
284.843	51.54
285.058	33.11
285.274	53.59
285.489	-22.19
285.704	92.5
285.919	29.01
286.134	108.88
286.349	82.26
286.564	24.92
286.779	53.59
286.995	16.73
287.21	51.54
287.425	-30.38
287.64	51.54
287.855	10.58
288.07	-30.38
288.285	84.31
288.5	104.79
288.715	78.16
288.93	-7.85
289.145	12.63
289.36	65.88
289.575	26.96
289.79	92.5
290.004	22.87
290.219	41.3
290.434	33.11
290.649	-13.99
290.864	4.44
291.079	-18.09
291.294	41.3
291.509	45.4
291.724	57.68
291.938	-30.38
292.153	-38.57
292.368	18.77
292.583	-5.8
292.798	82.26
293.012	10.58
293.227	35.16
293.442	53.59
293.657	4.44
293.871	35.16
294.086	0.34
294.301	33.11
294.516	-7.85
294.73	104.79
294.945	-83.63
295.16	88.4
295.374	84.31
295.589	53.59
295.804	-9.9
296.018	43.35
296.233	98.64
296.447	-24.23
296.662	35.16
296.877	29.01
297.091	-61.1
297.306	49.49
297.52	-48.81
297.735	29.01
297.949	-40.62
298.164	-13.99
298.378	-24.23
298.593	-11.95
298.807	14.68
299.022	0.34
299.236	24.92
299.451	41.3
299.665	-32.43
299.88	45.4
300.094	26.96
300.309	2.39
300.523	33.11
300.737	0.34
300.952	-11.95
301.166	4.44
301.381	6.49
301.595	4.44
301.809	67.92
302.024	45.4
302.238	8.53
302.452	65.88
302.667	57.68
302.881	18.77
303.095	-5.8
303.309	41.3
303.524	20.82
303.738	24.92
303.952	33.11
304.166	8.53
304.381	-28.33
304.595	76.12
304.809	65.88
305.023	33.11
305.237	-46.76
305.452	26.96
305.666	8.53
305.88	26.96
306.094	2.39
306.308	-3.75
306.522	92.5
306.736	108.88
306.95	59.73
307.164	39.25
307.379	-63.15
307.593	8.53
307.807	61.78
308.021	-5.8
308.235	37.2
308.449	-16.04
308.663	-32.43
308.877	90.45
309.091	-7.85
309.305	35.16
309.519	-61.1
309.733	-3.75
309.947	2.39
310.161	69.97
310.374	65.88
310.588	12.63
310.802	-24.23
311.016	12.63
311.23	98.64
311.444	26.96
311.658	35.16
311.872	18.77
312.085	-28.33
312.299	37.2
312.513	26.96
312.727	-3.75
312.941	39.25
313.154	61.78
313.368	-16.04
313.582	35.16
313.796	-9.9
314.009	45.4
314.223	80.21
314.437	65.88
314.651	8.53
314.864	84.31
315.078	16.73
315.292	18.77
315.505	29.01
315.719	65.88
315.933	16.73
316.146	90.45
316.36	-1.71
316.573	16.73
316.787	20.82
317.001	33.11
317.214	-26.28
317.428	33.11
317.641	45.4
317.855	-36.52
318.068	-5.8
318.282	8.53
318.495	24.92
318.709	39.25
318.922	86.36
319.136	94.55
319.349	14.68
319.563	2.39
319.776	-48.81
319.99	33.11
320.203	22.87
320.417	86.36
320.63	53.59
320.843	55.64
321.057	41.3
321.27	35.16
321.483	6.49
321.697	65.88
321.91	22.87
322.124	53.59
322.337	61.78
322.55	-30.38
322.763	69.97
322.977	53.59
323.19	16.73
323.403	24.92
323.617	43.35
323.83	0.34
324.043	16.73
324.256	94.55
324.469	59.73
324.683	-16.04
324.896	78.16
325.109	18.77
325.322	-54.95
325.535	16.73
325.748	78.16
325.962	-32.43
326.175	-42.67
326.388	10.58
326.601	37.2
326.814	16.73
327.027	49.49
327.24	84.31
327.453	49.49
327.666	92.5
327.879	69.97
328.092	47.44
328.305	4.44
328.518	10.58
328.731	-1.71
328.944	65.88
329.157	-3.75
329.37	26.96
329.583	76.12
329.796	22.87
330.009	24.92
330.222	41.3
330.435	65.88
330.648	18.77
330.861	57.68
331.073	65.88
331.286	-1.71
331.499	39.25
331.712	-38.57
331.925	59.73
332.138	72.02
332.35	12.63
332.563	-89.77
332.776	-13.99
332.989	26.96
333.202	33.11
333.414	88.4
333.627	35.16
333.84	-5.8
334.053	-24.23
334.265	69.97
334.478	45.4
334.691	-13.99
334.903	45.4
335.116	-3.75
335.329	8.53
335.541	55.64
335.754	31.06
335.966	-28.33
336.179	37.2
336.392	59.73
336.604	102.74
336.817	37.2
337.029	29.01
337.242	26.96
337.454	92.5
337.667	47.44
337.88	65.88
338.092	63.83
338.305	29.01
338.517	12.63
338.729	4.44
338.942	98.64
339.154	-65.19
339.367	47.44
339.579	31.06
339.792	-44.71
340.004	115.03
340.217	26.96
340.429	-1.71
340.641	0.34
340.854	-9.9
341.066	16.73
341.278	61.78
341.491	78.16
341.703	26.96
341.915	4.44
342.128	33.11
342.34	65.88
342.552	47.44
342.764	82.26
342.977	51.54
343.189	29.01
343.401	53.59
343.613	69.97
343.826	26.96
344.038	-5.8
344.25	-54.95
344.462	61.78
344.674	31.06
344.886	33.11
345.099	61.78
345.311	43.35
345.523	16.73
345.735	-52.91
345.947	47.44
346.159	-32.43
346.371	-3.75
346.583	-95.91
346.795	102.74
347.007	57.68
347.219	53.59
347.431	0.34
347.643	78.16
347.855	4.44
348.067	47.44
348.279	-7.85
348.491	74.07
348.703	20.82
348.915	8.53
349.127	29.01
349.339	12.63
349.551	-3.75
349.763	35.16
349.975	82.26
350.187	51.54
350.399	16.73
350.61	-38.57
350.822	18.77
351.034	20.82
351.246	37.2
351.458	55.64
351.669	8.53
351.881	123.22
352.093	57.68
352.305	35.16
352.517	57.68
352.728	31.06
352.94	55.64
353.152	49.49
353.363	12.63
353.575	82.26
353.787	35.16
353.999	51.54
354.21	43.35
354.422	20.82
354.633	72.02
354.845	49.49
355.057	49.49
355.268	39.25
355.48	-16.04
355.692	18.77
355.903	-3.75
356.115	-65.19
356.326	37.2
356.538	51.54
356.749	69.97
356.961	59.73
357.172	37.2
357.384	12.63
357.595	98.64
357.807	18.77
358.018	41.3
358.23	14.68
358.441	37.2
358.653	74.07
358.864	6.49
359.075	-11.95
359.287	43.35
359.498	86.36
359.709	59.73
359.921	16.73
360.132	47.44
360.344	-36.52
360.555	-54.95
360.766	6.49
360.977	67.92
361.189	59.73
361.4	53.59
361.611	59.73
361.823	61.78
362.034	63.83
362.245	18.77
362.456	8.53
362.667	-13.99
362.879	33.11
363.09	78.16
363.301	33.11
363.512	18.77
363.723	16.73
363.935	-57
364.146	65.88
364.357	69.97
364.568	57.68
364.779	-54.95
364.99	69.97
365.201	53.59
365.412	16.73
365.623	31.06
365.834	16.73
366.045	-5.8
366.256	51.54
366.467	55.64
366.678	24.92
366.889	0.34
367.1	-13.99
367.311	-61.1
367.522	29.01
367.733	98.64
367.944	16.73
368.155	0.34
368.366	10.58
368.577	108.88
368.788	-11.95
368.999	8.53
369.209	-22.19
369.42	82.26
369.631	125.27
369.842	88.4
370.053	84.31
370.264	65.88
370.474	-30.38
370.685	74.07
370.896	20.82
371.107	74.07
371.317	29.01
371.528	69.97
371.739	115.03
371.95	67.92
372.16	-1.71
372.371	4.44
372.582	84.31
372.792	41.3
373.003	63.83
373.214	72.02
373.424	18.77
373.635	-16.04
373.846	24.92
374.056	90.45
374.267	12.63
374.477	31.06
374.688	10.58
374.898	-3.75
375.109	115.03
375.319	90.45
375.53	147.8
375.74	117.08
375.951	-24.23
376.161	33.11
376.372	164.18
376.582	53.59
376.793	45.4
377.003	53.59
377.214	90.45
377.424	65.88
377.635	82.26
377.845	49.49
378.055	51.54
378.266	-18.09
378.476	86.36
378.686	100.69
378.897	-32.43
379.107	65.88
379.317	49.49
379.528	31.06
379.738	74.07
379.948	-77.48
380.158	29.01
380.369	-65.19
380.579	-22.19
380.789	-28.33
380.999	8.53
381.21	49.49
381.42	72.02
381.63	49.49
381.84	26.96
382.05	117.08
382.261	112.98
382.471	-7.85
382.681	41.3
382.891	57.68
383.101	57.68
383.311	127.32
383.521	-13.99
383.731	86.36
383.941	65.88
384.151	33.11
384.361	-9.9
384.571	29.01
384.781	51.54
384.991	47.44
385.201	41.3
385.411	80.21
385.621	57.68
385.831	43.35
386.041	41.3
386.251	-1.71
386.461	106.84
386.671	22.87
386.881	10.58
387.091	16.73
387.301	24.92
387.511	-18.09
387.72	22.87
387.93	69.97
388.14	12.63
388.35	-13.99
388.56	43.35
388.769	117.08
388.979	-24.23
389.189	43.35
389.399	4.44
389.609	98.64
389.818	69.97
390.028	57.68
390.238	57.68
390.447	51.54
390.657	16.73
390.867	-5.8
391.076	8.53
391.286	6.49
391.496	86.36
391.705	29.01
391.915	51.54
392.125	51.54
392.334	35.16
392.544	76.12
392.753	22.87
392.963	-7.85
393.172	45.4
393.382	57.68
393.591	18.77
393.801	35.16
394.01	164.18
394.22	94.55
394.429	86.36
394.639	57.68
394.848	55.64
395.058	29.01
395.267	61.78
395.477	-7.85
395.686	57.68
395.895	74.07
396.105	131.41
396.314	74.07
396.524	88.4
396.733	33.11
396.942	117.08
397.152	47.44
397.361	131.41
397.57	63.83
397.78	65.88
397.989	-5.8
398.198	94.55
398.407	41.3
398.617	65.88
398.826	78.16
399.035	41.3
399.244	59.73
399.453	131.41
399.663	65.88
399.872	51.54
400.081	26.96
400.29	92.5
400.499	90.45
400.708	35.16
400.917	4.44
401.127	92.5
401.336	100.69
401.545	213.33
401.754	8.53
401.963	131.41
402.172	100.69
402.381	57.68
402.59	49.49
402.799	84.31
403.008	141.65
403.217	98.64
403.426	55.64
403.635	88.4
403.844	131.41
404.053	106.84
404.262	82.26
404.471	172.37
404.68	67.92
404.888	155.99
405.097	190.8
405.306	86.36
405.515	147.8
405.724	115.03
405.933	139.6
406.142	155.99
406.35	141.65
406.559	186.71
406.768	162.13
406.977	149.84
407.185	102.74
407.394	174.42
407.603	149.84
407.812	131.41
408.02	258.39
408.229	235.86
408.438	158.03
408.646	139.6
408.855	180.56
409.064	133.46
409.272	237.91
409.481	186.71
409.69	237.91
409.898	213.33
410.107	239.95
410.315	203.09
410.524	256.34
410.733	270.67
410.941	186.71
411.15	348.5
411.358	346.45
411.567	315.73
411.775	303.44
411.984	344.4
412.192	360.78
412.401	315.73
412.609	418.13
412.818	383.31
413.026	391.5
413.234	354.64
413.443	493.9
413.651	366.93
413.86	426.32
414.068	454.99
414.276	500.05
414.485	495.95
414.693	532.81
414.901	581.96
415.11	590.16
415.318	565.58
415.526	510.29
415.734	575.82
415.943	575.82
416.151	647.5
416.359	665.93
416.567	688.46
416.776	733.51
416.984	645.45
417.192	792.91
417.4	721.23
417.608	704.84
417.817	760.14
418.025	893.26
418.233	840.01
418.441	854.34
418.649	897.35
418.857	966.98
419.065	1024.33
419.273	1057.09
419.481	971.08
419.689	1077.57
419.897	1098.05
420.105	1038.66
420.313	1212.74
420.521	1302.85
420.729	1265.99
420.937	1253.7
421.145	1331.52
421.353	1401.15
421.561	1540.41
421.769	1497.41
421.977	1507.65
422.185	1478.97
422.393	1503.55
422.601	1665.34
422.809	1751.35
423.017	1720.64
423.224	1814.84
423.432	1839.42
423.64	1847.61
423.848	2128.18
424.056	1870.14
424.263	2134.32
424.471	2199.86
424.679	2210.1
424.887	2275.63
425.094	2337.07
425.302	2468.14
425.51	2490.67
425.718	2476.34
425.925	2535.73
426.133	2609.45
426.341	2844.97
426.548	2857.26
426.756	3017
426.964	2914.6
427.171	3111.21
427.379	3117.35
427.586	3303.71
427.794	3285.28
428.001	3649.82
428.209	3793.18
428.417	3612.96
428.624	3811.61
428.832	3866.91
429.039	3801.37
429.247	3823.9
429.454	4276.5
429.662	4507.92
429.869	4262.16
430.076	4540.69
430.284	4319.51
430.491	4540.69
430.699	4829.45
430.906	4768.01
431.114	4800.78
431.321	5030.15
431.528	5171.46
431.736	5513.47
431.943	5804.28
432.15	5472.51
432.358	5603.58
432.565	6000.89
432.772	5925.11
432.979	6287.61
433.187	6269.17
433.394	6244.6
433.601	6643.95
433.808	6607.09
434.016	6697.2
434.223	7008.49
434.43	7338.21
434.637	7192.81
434.844	7678.18
435.052	7874.78
435.259	7688.42
435.466	8046.81
435.673	7864.54
435.88	8528.08
436.087	8716.5
436.294	8722.64
436.501	8505.56
436.708	8728.78
436.915	9070.79
437.122	9478.34
437.329	9347.27
437.537	9668.8
437.743	9873.6
437.95	9955.52
438.157	10342.58
438.364	10772.66
438.571	10404.02
438.778	10571.96
438.985	11909.28
439.192	11165.87
439.399	11626.66
439.606	11184.3
439.813	11874.46
440.02	12552.34
440.227	12509.33
440.433	12378.26
440.64	12578.97
440.847	12757.14
441.054	13025.42
441.261	13854.85
441.467	13475.98
441.674	13867.14
441.881	14549.11
442.088	14147.71
442.294	14459
442.501	14522.49
442.708	15052.91
442.914	15515.75
443.121	16281.69
443.328	15937.63
443.534	16846.93
443.741	16222.3
443.948	16267.36
444.154	17244.24
444.361	17039.44
444.568	17432.65
444.774	17223.76
444.981	17385.55
445.187	17811.53
445.394	18772.02
445.6	18475.07
445.807	20144.16
446.013	19327.02
446.22	19904.55
446.426	20584.48
446.633	20494.36
446.839	21540.88
447.046	20670.49
447.252	21590.03
447.459	21413.9
447.665	21825.54
447.871	22515.71
448.078	23422.96
448.284	22298.63
448.491	22835.19
448.697	24008.68
448.903	24459.23
449.11	24418.27
449.316	23850.99
449.522	24176.61
449.728	25075.67
449.935	25522.13
450.141	25264.08
450.347	26081.22
450.553	25137.11
450.76	25180.12
450.966	25622.48
451.172	25960.39
451.378	26714.05
451.584	26066.89
451.791	26759.1
451.997	26322.88
452.203	27566
452.409	27289.52
452.615	27092.92
452.821	25880.52
453.027	25847.75
453.233	27209.65
453.44	26087.37
453.646	26484.67
453.852	26677.18
454.058	27060.15
454.264	26070.98
454.47	26572.74
454.676	26023.88
454.882	27185.08
455.088	24819.67
455.294	25100.25
455.5	25362.39
455.705	25923.53
455.911	24659.93
456.117	24264.68
456.323	23635.95
456.529	22538.24
456.735	23601.13
456.941	23132.15
457.147	22652.92
457.352	22163.46
457.558	21743.63
457.764	21868.55
457.97	21411.85
458.176	21180.43
458.381	20989.97
458.587	20191.27
458.793	20187.17
458.999	18939.96
459.204	20363.29
459.41	19728.42
459.616	18663.48
459.821	18681.91
460.027	18362.43
460.233	18106.43
460.438	17117.26
460.644	17403.98
460.85	16461.91
461.055	16564.31
461.261	16261.21
461.466	14884.98
461.672	14682.23
461.878	15990.88
462.083	14813.3
462.289	14512.25
462.494	14385.27
462.7	13668.48
462.905	13459.59
463.111	13658.24
463.316	13598.85
463.522	13475.98
463.727	13369.48
463.932	13361.29
464.138	13269.13
464.343	13422.73
464.549	12886.16
464.754	13246.6
464.959	13123.73
465.165	12992.66
465.37	12658.84
465.575	12296.35
465.781	12877.97
465.986	12640.4
466.191	12431.51
466.397	12181.66
466.602	11616.42
466.807	12069.02
467.012	11974.81
467.218	11841.7
467.423	11788.45
467.628	11706.53
467.833	12312.73
468.038	11784.35
468.244	11385
468.449	12013.73
468.654	11737.25
468.859	11673.76
469.064	11518.12
469.269	11024.56
469.474	11053.23
469.679	11376.81
469.885	10856.62
470.09	11184.3
470.295	11172.01
470.5	10797.23
470.705	10936.49
470.91	10578.1
471.115	10410.17
471.32	10404.02
471.525	10315.96
471.73	10193.08
471.935	10248.38
472.139	9883.84
472.344	9973.95
472.549	10105.02
472.754	9789.63
472.959	9746.62
473.164	9543.88
473.369	9259.21
473.574	9838.78
473.778	9623.75
473.983	9423.05
474.188	9457.86
474.393	9064.65
474.598	9232.58
474.802	9015.5
475.007	9019.6
475.212	9109.71
475.417	8575.19
475.621	8562.9
475.826	8640.72
476.031	8607.95
476.235	8462.55
476.44	8458.45
476.645	8315.09
476.849	8343.77
477.054	8253.66
477.259	8106.2
477.463	8063.19
477.668	7905.5
477.872	7889.12
478.077	7676.13
478.282	7602.4
478.486	7696.61
478.691	7514.34
478.895	7551.2
479.1	7370.98
479.304	7579.87
479.509	7344.36
479.713	7491.81
479.918	7373.03
480.122	7031.02
480.326	7121.13
480.531	7399.65
480.735	6879.47
480.94	7135.46
481.144	7407.84
481.348	6955.24
481.553	6947.05
481.757	6867.18
481.961	7098.6
482.166	7069.93
482.37	6932.72
482.574	6973.67
482.778	6951.15
482.983	7028.97
483.187	6930.67
483.391	7016.68
483.595	6967.53
483.8	7057.64
484.004	7037.16
484.208	7100.65
484.412	6932.72
484.616	7018.73
484.821	7082.22
485.025	7006.44
485.229	6936.81
485.433	6856.94
485.637	7145.7
485.841	6947.05
486.045	6910.19
486.249	7031.02
486.453	6887.66
486.657	6877.42
486.861	6945
487.065	6807.79
487.269	6844.65
487.473	6797.55
487.677	6996.2
487.881	7096.55
488.085	6920.43
488.289	7057.64
488.493	6852.84
488.697	7020.78
488.901	6963.44
489.105	6852.84
489.309	6928.62
489.512	7069.93
489.716	6897.9
489.92	6848.75
490.124	6945
490.328	7053.55
490.531	7028.97
490.735	7121.13
490.939	6934.76
491.143	6996.2
491.346	7094.51
491.55	7356.65
491.754	7203.05
491.958	7141.61
492.161	7201
492.365	7278.82
492.569	7250.15
492.772	7239.91
492.976	7543.01
493.18	7344.36
493.383	7592.16
493.587	7579.87
493.79	7534.82
493.994	7467.24
494.197	7612.64
494.401	7766.24
494.605	7669.98
494.808	7889.12
495.012	7762.14
495.215	7659.74
495.419	8001.76
495.622	7770.33
495.825	8085.72
496.029	7799.01
496.232	8227.03
496.436	8085.72
496.639	8202.46
496.843	8433.88
497.046	8462.55
497.249	8333.53
497.453	8589.52
497.656	8569.04
497.859	8583.38
498.063	8734.93
498.266	8839.37
498.469	8847.57
498.673	9044.17
498.876	9119.95
499.079	9365.7
499.282	9109.71
499.485	9726.14
499.689	9373.89
499.892	9531.59
500.095	9642.18
500.298	9818.3
500.501	9685.19
500.705	10043.58
500.908	10076.35
501.111	10143.93
501.314	10227.9
501.517	10487.99
501.72	10547.38
501.923	10586.29
502.126	10715.31
502.329	11049.13
502.532	10905.77
502.735	11075.76
502.938	11448.49
503.141	11215.02
503.344	11421.86
503.547	11509.93
503.75	11673.76
503.953	11813.03
504.156	12066.97
504.359	11966.62
504.562	11974.81
504.765	12263.58
504.968	12357.78
505.17	12431.51
505.373	12779.67
505.576	12935.31
505.779	12982.42
505.982	13033.61
506.185	13199.5
506.387	13357.19
506.59	13215.88
506.793	13533.32
506.996	13678.72
507.198	13953.15
507.401	13846.66
507.604	14098.56
507.807	14342.27
508.009	14385.27
508.212	14368.89
508.415	14948.47
508.617	14887.03
508.82	14868.59
509.022	14884.98
509.225	15444.07
509.428	15626.34
509.63	15679.59
509.833	15427.69
510.035	16029.79
510.238	15945.83
510.44	16169.05
510.643	16390.24
510.845	16625.75
511.048	16547.93
511.25	16552.02
511.453	16648.28
511.655	17369.16
511.858	17297.49
512.06	17170.51
512.262	17551.43
512.465	17721.41
512.667	17989.7
512.87	18100.29
513.072	18124.86
513.274	18344
513.477	18577.47
513.679	18640.95
513.881	18784.31
514.084	19220.53
514.286	19253.3
514.488	19048.5
514.69	19972.13
514.893	19894.31
515.095	19767.34
515.297	20232.22
515.499	20457.5
515.701	20293.66
515.904	20631.58
516.106	20668.44
516.308	21217.3
516.51	21080.08
516.712	21293.07
516.914	21381.14
517.116	21594.12
517.318	21958.66
517.52	22036.49
517.722	22145.03
517.925	22564.86
518.127	22677.5
518.329	22972.41
518.531	22536.19
518.733	23148.53
518.935	23306.23
519.136	23216.12
519.338	23783.4
519.54	23642.09
519.742	23891.94
519.944	24166.37
520.146	24414.18
520.348	24641.5
520.55	24733.66
520.752	24960.98
520.954	25276.37
521.155	25237.46
521.357	25544.66
521.559	25651.15
521.761	26148.81
521.963	25776.08
522.164	26138.57
522.366	26193.86
522.568	26560.45
522.77	26644.41
522.971	27017.15
523.173	26783.68
523.375	27207.61
523.576	27312.05
523.778	27074.49
523.98	27609.01
524.181	27688.88
524.383	27996.07
524.584	27770.8
524.786	28288.93
524.988	28311.46
525.189	28520.35
525.391	28540.83
525.592	28770.21
525.794	28802.97
525.995	28938.14
526.197	29216.66
526.398	29071.26
526.6	29304.73
526.801	29134.74
527.003	29323.16
527.204	29364.12
527.406	29761.42
527.607	29960.08
527.808	30250.89
528.01	29652.88
528.211	29988.75
528.412	30455.68
528.614	30300.04
528.815	30123.91
529.016	30459.78
529.218	30205.83
529.419	30467.97
529.62	30566.27
529.822	30373.77
530.023	30957.44
530.224	30582.66
530.425	30756.74
530.626	30648.19
530.828	30261.13
531.029	31342.46
531.23	30961.53
531.431	31106.94
531.632	31006.59
531.833	31233.91
532.035	30982.01
532.236	31004.54
532.437	31448.95
532.638	31078.27
532.839	31446.9
533.04	31623.03
533.241	30951.29
533.442	31676.27
533.643	31399.8
533.844	31414.13
534.045	31465.33
534.246	31235.96
534.447	31694.71
534.648	31348.6
534.849	31369.08
535.05	31041.4
535.251	31514.48
535.451	31358.84
535.652	31455.09
535.853	31326.07
536.054	31461.24
536.255	31754.1
536.456	31129.47
536.657	31975.28
536.857	31309.69
537.058	31502.2
537.259	31422.33
537.46	31965.04
537.66	31254.39
537.861	31655.79
538.062	31416.18
538.263	31436.66
538.463	31172.47
538.664	31274.87
538.865	31682.42
539.065	31680.37
539.266	31223.67
539.466	31412.09
539.667	31137.66
539.868	31438.71
540.068	31270.78
540.269	31264.63
540.469	31663.99
540.67	31403.89
540.87	31252.34
541.071	31506.29
541.271	31590.26
541.472	31369.08
541.672	31315.83
541.873	31170.43
542.073	30465.92
542.274	31713.14
542.474	31213.43
542.675	30963.58
542.875	31227.77
543.075	31475.57
543.276	31274.87
543.476	31541.11
543.676	31020.92
543.877	31698.8
544.077	31547.25
544.277	31199.1
544.478	31006.59
544.678	31377.27
544.878	31162.23
545.078	31307.64
545.279	30949.25
545.479	30922.62
545.679	30912.38
545.879	30769.02
546.079	31197.05
546.28	31389.56
546.48	30662.53
546.68	30951.29
546.88	31285.11
547.08	31442.81
547.28	30787.46
547.48	30945.15
547.68	31068.03
547.88	30826.37
548.081	31184.76
548.281	31170.43
548.481	30633.86
548.681	31645.55
548.881	30742.4
549.081	31051.64
549.28	30885.76
549.48	30877.57
549.68	30717.82
549.88	31074.17
550.08	31047.55
550.28	30668.67
550.48	30662.53
550.68	31018.88
550.88	30734.21
551.08	30834.56
551.279	30979.96
551.479	30603.14
551.679	30855.04
551.879	30857.09
552.079	30918.53
552.278	30883.71
552.478	30812.03
552.678	30599.04
552.878	30775.17
553.077	30523.27
553.277	30531.46
553.477	31055.74
553.676	30332.81
553.876	30412.68
554.076	30701.44
554.275	30324.61
554.475	29910.92
554.674	30683.01
554.874	30617.47
555.074	30543.75
555.273	30691.2
555.473	30513.03
555.672	30318.47
555.872	30625.67
556.071	30334.85
556.271	30431.11
556.47	30402.44
556.67	30447.49
556.869	30226.31
557.068	30644.1
557.268	30285.7
557.467	30359.43
557.667	29998.99
557.866	30021.52
558.065	30355.33
558.265	30064.52
558.464	29724.56
558.663	30422.92
558.863	29665.17
559.062	30257.03
559.261	29738.9
559.461	30128.01
559.66	29824.91
559.859	29683.6
560.058	29265.81
560.258	29847.44
560.457	29538.19
560.656	29857.68
560.855	29378.45
561.054	29710.22
561.253	29261.72
561.453	29665.17
561.652	29372.31
561.851	29132.7
562.05	29349.78
562.249	29259.67
562.448	29566.87
562.647	29177.75
562.846	29116.31
563.045	29517.71
563.244	28630.94
563.443	29147.03
563.642	28546.98
563.841	29067.16
564.04	28872.6
564.239	29288.34
564.438	28733.34
564.637	28911.52
564.836	28764.06
565.035	28440.48
565.234	28610.46
565.432	28563.36
565.631	28331.94
565.83	28428.2
566.029	28366.76
566.228	28323.75
566.427	28407.72
566.625	28010.41
566.824	28170.15
567.023	28288.93
567.222	27721.65
567.42	28174.25
567.619	27934.64
567.818	27860.91
568.016	27766.7
568.215	27717.55
568.414	27858.86
568.612	27877.29
568.811	27533.23
569.01	27752.37
569.208	27353.01
569.407	27566
569.605	27277.24
569.804	27701.17
570.002	27482.03
570.201	27553.71
570.4	27142.07
570.598	26957.75
570.797	27164.6
570.995	27152.31
571.193	26779.58
571.392	26933.18
571.59	26851.26
571.789	26927.03
571.987	26552.26
572.186	26595.26
572.384	26533.82
572.582	26759.1
572.781	26828.73
572.979	26390.47
573.177	26458.05
573.376	26599.36
573.574	26132.42
573.772	26382.27
573.971	26136.52
574.169	26228.68
574.367	25774.03
574.565	26386.37
574.763	25982.92
574.962	26079.18
575.16	25458.64
575.358	25915.34
575.556	25563.09
575.754	25720.78
575.952	25393.11
576.151	25657.29
576.349	25317.33
576.547	25491.41
576.745	25438.16
576.943	25225.17
577.141	25372.63
577.339	25401.3
577.537	24901.59
577.735	25173.97
577.933	24940.5
578.131	24782.81
578.329	25022.42
578.527	24735.71
578.725	25057.24
578.923	24844.25
579.121	24526.82
579.319	24537.05
579.516	24682.46
579.714	24600.54
579.912	24498.14
580.11	24240.1
580.308	24565.73
580.506	24248.29
580.704	23945.19
580.901	24254.44
581.099	24369.12
581.297	23994.34
581.495	24059.88
581.692	24432.61
581.89	23570.41
582.088	23949.29
582.285	23810.03
582.483	24117.22
582.681	23875.56
582.878	23554.03
583.076	23439.34
583.274	23627.76
583.471	23240.69
583.669	23455.73
583.866	23246.83
584.064	23496.69
584.262	23158.77
584.459	22960.12
584.657	23011.32
584.854	23386.1
585.052	22732.79
585.249	22966.26
585.447	22781.95
585.644	22693.88
585.841	22700.03
586.039	22966.26
586.236	22575.1
586.434	22417.41
586.631	22677.5
586.828	22493.18
587.026	22636.54
587.223	22347.78
587.42	22263.81
587.618	22194.18
587.815	22378.5
588.012	22120.45
588.21	22079.49
588.407	21968.9
588.604	21514.25
588.801	21766.15
588.999	21991.43
589.196	21903.37
589.393	21882.89
589.59	21704.71
589.787	21768.2
589.984	21395.47
590.182	21198.87
590.379	21254.16
590.576	21282.83
590.773	21463.05
590.97	21282.83
591.167	21458.96
591.364	20926.49
591.561	21143.57
591.758	20893.72
591.955	20881.43
592.152	20916.25
592.349	20607
592.546	21041.17
592.743	20527.13
592.94	20512.8
593.137	20615.19
593.334	20607
593.531	20357.15
593.727	20455.45
593.924	20103.2
594.121	20176.93
594.318	20193.31
594.515	20080.67
594.712	20248.61
594.908	20271.14
595.105	20002.85
595.302	19877.93
595.499	20066.34
595.696	20209.7
595.892	19619.88
596.089	20043.81
596.286	20101.15
596.482	19781.67
596.679	19724.33
596.876	19740.71
597.072	19607.59
597.269	19304.49
597.466	19308.59
597.662	19157.04
597.859	19320.88
598.055	19462.19
598.252	19265.58
598.448	19378.22
598.645	18964.53
598.841	18919.48
599.038	19150.9
599.234	19028.02
599.431	18858.04
599.627	18776.12
599.824	18888.76
600.02	18808.89
600.217	18647.1
600.413	18577.47
600.609	18659.38
600.806	18401.34
601.002	18702.39
601.198	18387
601.395	18384.96
601.591	18325.57
601.787	18180.16
601.984	17952.84
602.18	17915.97
602.376	17950.79
602.572	18243.65
602.769	17940.55
602.965	17610.82
603.161	17768.52
603.357	17707.08
603.553	17516.62
603.75	17817.67
603.946	17608.78
604.142	17569.87
604.338	17270.86
604.534	17322.06
604.73	17387.6
604.926	17131.6
605.122	17311.82
605.318	17264.72
605.514	17307.73
605.71	17193.04
605.906	17475.66
606.102	17080.4
606.298	17027.15
606.494	17129.55
606.69	16955.47
606.886	16851.03
607.082	16695.38
607.278	16865.36
607.474	16314.46
607.67	16834.64
607.866	16717.91
608.062	16906.32
608.257	16509.02
608.453	16687.19
608.649	16541.78
608.845	16324.7
609.041	16423
609.236	16310.36
609.432	16267.36
609.628	16124
609.824	16443.48
610.019	16367.71
610.215	16175.2
610.411	16369.76
610.606	16150.62
610.802	16158.81
610.998	15892.58
611.193	16244.83
611.389	15974.5
611.584	15900.77
611.78	15954.02
611.976	16099.42
612.171	16052.32
612.367	15984.74
612.562	15695.97
612.758	15437.93
612.953	15474.79
613.149	15894.63
613.344	15687.78
613.539	15994.98
613.735	15876.2
613.93	15638.63
614.126	15695.97
614.321	15499.37
614.517	15712.36
614.712	15579.24
614.907	15456.36
615.103	15851.62
615.298	15388.78
615.493	15503.46
615.688	15712.36
615.884	15749.22
616.079	15145.07
616.274	15155.31
616.47	15300.72
616.665	15134.83
616.86	15407.21
617.055	14852.21
617.25	15196.27
617.445	15327.34
617.641	14786.68
617.836	14987.38
618.031	14706.8
618.226	15270
618.421	14823.54
618.616	15028.34
618.811	14663.8
619.006	14868.59
619.201	14532.73
619.396	14798.96
619.591	14387.32
619.786	14671.99
619.981	14418.04
620.176	14471.29
620.371	14184.57
620.566	14385.27
620.761	14401.66
620.956	14477.43
621.151	14225.53
621.346	13994.11
621.541	13990.02
621.735	14319.74
621.93	13731.97
622.125	13967.49
622.32	13551.75
622.515	13688.96
622.709	13566.09
622.904	13516.94
623.099	13605
623.294	13633.67
623.488	13469.83
623.683	13506.7
623.878	13119.63
624.072	13283.47
624.267	13086.86
624.462	13002.89
624.656	12757.14
624.851	12976.27
625.046	12841.11
625.24	12818.58
625.435	12705.94
625.629	12837.01
625.824	12648.6
626.018	12423.32
626.213	12345.5
626.407	12447.9
626.602	12331.16
626.796	12335.26
626.991	12183.71
627.185	12107.93
627.38	11997.34
627.574	12050.59
627.768	11829.41
627.963	11874.46
628.157	11815.07
628.352	11907.23
628.546	11530.41
628.74	11649.19
628.935	11647.14
629.129	11522.21
629.323	11337.9
629.517	11505.83
629.712	11395.24
629.906	11350.18
630.1	11102.38
630.294	11024.56
630.489	11155.63
630.683	11153.58
630.877	10985.65
631.071	11073.71
631.265	10971.31
631.459	10924.21
631.653	10557.62
631.848	10797.23
632.042	10641.59
632.236	10617.01
632.43	10537.14
632.624	10576.05
632.818	10348.73
633.012	10260.66
633.206	10313.91
633.4	10406.07
633.594	10342.58
633.788	10162.36
633.982	10117.31
634.176	10043.58
634.369	10160.31
634.563	9969.85
634.757	9855.17
634.951	9928.89
635.145	9881.79
635.339	10084.54
635.533	9889.98
635.726	9728.19
635.92	9601.22
636.114	9722.05
636.308	9486.53
636.501	9537.73
636.695	9498.82
636.889	9494.72
637.083	9205.96
637.276	9191.63
637.47	9400.52
637.664	9216.2
637.857	9167.05
638.051	9085.13
638.244	9150.67
638.438	9052.36
638.632	8900.81
638.825	8800.46
639.019	8788.18
639.212	8900.81
639.406	8702.16
639.599	8556.75
639.793	8736.98
639.986	8687.82
640.18	8706.26
640.373	8636.63
640.567	8517.84
640.76	8603.86
640.954	8505.56
641.147	8483.03
641.34	8372.44
641.534	8265.94
641.727	8194.26
641.92	8200.41
642.114	8204.5
642.307	8290.52
642.5	7958.75
642.694	8055
642.887	7973.08
643.08	8106.2
643.273	8069.34
643.467	7975.13
643.66	7846.11
643.853	7817.44
644.046	7700.7
644.239	7743.71
644.432	7799.01
644.626	7694.56
644.819	7534.82
645.012	7489.76
645.205	7672.03
645.398	7389.41
645.591	7405.8
645.784	7399.65
645.977	7332.07
646.17	7469.28
646.363	7258.34
646.556	7182.57
646.749	7244.01
646.942	7471.33
647.135	7178.47
647.328	7106.79
647.521	7143.66
647.714	7078.12
647.907	6889.71
648.099	6973.67
648.292	6889.71
648.485	6891.76
648.678	6807.79
648.871	6832.37
649.064	6783.21
649.256	6697.2
649.449	6834.41
649.642	6631.66
649.835	6562.03
650.027	6598.9
650.22	6619.38
650.413	6539.51
650.605	6519.03
650.798	6576.37
650.991	6476.02
651.183	6367.48
651.376	6357.24
651.568	6430.96
651.761	6213.88
651.954	6287.61
652.146	6152.44
652.339	6351.09
652.531	6197.49
652.724	6013.18
652.916	6310.13
653.109	6033.66
653.301	5980.41
653.494	6056.18
653.686	5949.69
653.879	5906.68
654.071	6023.42
654.263	5857.53
654.456	5886.2
654.648	5906.68
654.84	5662.97
655.033	5775.61
655.225	5767.42
655.417	5523.71
655.61	5693.69
655.802	5765.37
655.994	5589.25
656.186	5652.74
656.379	5558.53
656.571	5560.58
656.763	5458.18
656.955	5636.35
657.148	5488.9
657.34	5449.99
657.532	5443.84
657.724	5277.96
657.916	5415.17
658.108	5415.17
658.3	5398.79
658.492	5294.34
658.684	5177.61
658.876	5259.53
659.068	5366.02
659.26	5118.22
659.452	5009.67
659.644	5118.22
659.836	5038.34
660.028	5181.7
660.22	5042.44
660.412	5005.58
660.604	4972.81
660.796	4944.14
660.988	4757.77
661.18	4886.79
661.372	4845.84
661.563	4899.08
661.755	4868.36
661.947	4894.99
662.139	4776.2
662.331	4776.2
662.522	4817.16
662.714	4612.37
662.906	4686.09
663.097	4649.23
663.289	4638.99
663.481	4514.06
663.673	4669.71
663.864	4538.64
664.056	4571.41
664.247	4522.26
664.439	4448.53
664.631	4555.02
664.822	4466.96
665.014	4563.22
665.205	4399.38
665.397	4477.2
665.588	4432.15
665.78	4239.64
665.971	4294.93
666.163	4327.7
666.354	4237.59
666.546	4333.84
666.737	4180.25
666.929	4182.29
667.12	4112.66
667.311	4182.29
667.503	4163.86
667.694	4210.97
667.885	3957.02
668.077	4274.45
668.268	4147.48
668.459	3952.92
668.651	4163.86
668.842	4034.84
669.033	3940.63
669.224	3942.68
669.416	3952.92
669.607	3954.97
669.798	3916.06
669.989	4057.37
670.18	3924.25
670.371	3817.76
670.563	3823.9
670.754	3733.79
670.945	3832.09
671.136	3895.58
671.327	3752.22
671.518	3834.14
671.709	3858.71
671.9	3639.58
672.091	3729.69
672.282	3717.4
672.473	3662.11
672.664	3588.38
672.855	3586.33
673.046	3621.15
673.237	3612.96
673.428	3578.14
673.619	3658.01
673.809	3426.59
674	3477.79
674.191	3531.04
674.382	3547.42
674.573	3696.92
674.764	3477.79
674.954	3576.09
675.145	3436.83
675.336	3424.55
675.527	3463.46
675.717	3381.54
675.908	3346.72
676.099	3461.41
676.289	3350.82
676.48	3264.8
676.671	3301.67
676.861	3506.46
677.052	3332.39
677.243	3227.94
677.433	3320.1
677.624	3402.02
677.814	3264.8
678.005	3240.23
678.195	3273
678.386	3270.95
678.576	3148.07
678.767	3146.02
678.957	3248.42
679.148	3254.56
679.338	3178.79
679.529	3195.17
679.719	3264.8
679.909	3262.76
680.1	3229.99
680.29	3150.12
680.481	2969.9
680.671	3211.56
680.861	3045.67
681.052	3172.64
681.242	3105.06
681.432	3115.3
681.622	3076.39
681.813	2955.56
682.003	3010.86
682.193	3121.45
682.383	2998.57
682.573	3045.67
682.764	3031.34
682.954	2933.03
683.144	2953.51
683.334	2959.66
683.524	2883.88
683.714	2953.51
683.904	2844.97
684.094	2896.17
684.284	3019.05
684.474	2926.89
684.664	2918.7
684.854	2797.87
685.044	3006.76
685.234	2926.89
685.424	2869.55
685.614	2945.32
685.804	2890.03
685.994	2711.85
686.184	2806.06
686.374	2887.98
686.564	2738.48
686.753	2728.24
686.943	2853.16
687.133	2896.17
687.323	2740.52
687.513	2804.01
687.702	2740.52
687.892	2631.98
688.082	2638.13
688.272	2668.84
688.461	2621.74
688.651	2769.2
688.841	2666.8
689.03	2744.62
689.22	2605.36
689.41	2654.51
689.599	2619.69
689.789	2556.21
689.979	2513.2
690.168	2701.61
690.358	2531.63
690.547	2531.63
690.737	2476.34
690.926	2445.62
691.116	2476.34
691.305	2564.4
691.495	2597.17
691.684	2449.71
691.874	2380.08
692.063	2535.73
692.252	2500.91
692.442	2498.86
692.631	2296.11
692.82	2466.1
693.01	2386.22
693.199	2314.55
693.388	2416.94
693.578	2390.32
693.767	2418.99
693.956	2294.07
694.146	2375.99
694.335	2410.8
694.524	2449.71
694.713	2400.56
694.902	2353.46
695.092	2298.16
695.281	2277.68
695.47	2232.63
695.659	2240.82
695.848	2273.59
696.037	2285.87
696.226	2343.22
696.415	2298.16
696.604	2195.76
696.793	2306.35
696.982	2171.19
697.171	2199.86
697.36	2212.15
697.549	2169.14
697.738	2158.9
697.927	2140.47
698.116	2126.13
698.305	2191.67
698.494	2070.84
698.683	2249.01
698.872	2302.26
699.061	2214.2
699.25	2081.08
699.438	2148.66
699.627	2111.8
699.816	2171.19
700.005	2105.65
700.193	2187.57
700.382	2099.51
700.571	2054.45
700.76	2199.86
700.948	2222.39
701.137	2150.71
701.326	2033.97
701.514	2091.32
701.703	2083.13
701.892	2156.85
702.08	2007.35
702.269	1988.92
702.457	2111.8
702.646	2111.8
702.834	2036.02
703.023	2156.85
703.212	2107.7
703.4	2136.37
703.589	2031.93
703.777	2068.79
703.965	2025.78
704.154	2142.52
704.342	2033.97
704.531	2064.69
704.719	2001.21
704.907	2103.61
705.096	2089.27
705.284	2036.02
705.472	2038.07
705.661	2097.46
705.849	1986.87
706.037	2068.79
706.226	1917.24
706.414	1993.01
706.602	2036.02
706.79	2005.3
706.979	2060.6
707.167	2027.83
707.355	1999.16
707.543	2050.36
707.731	1976.63
707.919	2007.35
708.107	1976.63
708.296	1972.54
708.484	2036.02
708.672	1993.01
708.86	1966.39
709.048	1950.01
709.236	1970.49
709.424	1954.1
709.612	1952.06
709.8	2040.12
709.988	1950.01
710.176	1993.01
710.364	1984.82
710.551	1913.14
710.739	1980.73
710.927	1960.25
711.115	1945.91
711.303	1923.38
711.491	2044.21
711.679	1935.67
711.866	1925.43
712.054	1917.24
712.242	1929.53
712.43	1919.29
712.617	1995.06
712.805	1958.2
712.993	1868.09
713.181	1913.14
713.368	1933.62
713.556	1890.62
713.744	1911.1
713.931	1947.96
714.119	1945.91
714.306	1892.66
714.494	1870.14
714.682	1999.16
714.869	1808.7
715.057	1861.94
715.244	1907
715.432	1802.55
715.619	1859.9
715.807	1937.72
715.994	2007.35
716.182	1876.28
716.369	1923.38
716.556	1941.82
716.744	1927.48
716.931	1888.57
717.119	1880.38
717.306	1794.36
717.493	1929.53
717.681	1929.53
717.868	1917.24
718.055	1839.42
718.242	1798.46
718.43	1937.72
718.617	1921.34
718.804	1847.61
718.991	1974.58
719.179	1843.51
719.366	1804.6
719.553	1935.67
719.74	1730.87
719.927	1851.71
720.114	1894.71
720.301	1784.12
720.488	1823.03
720.676	1851.71
720.863	1802.55
721.05	1792.31
721.237	1835.32
721.424	1868.09
721.611	1878.33
721.798	1843.51
721.985	1851.71
722.172	1802.55
722.358	1806.65
722.545	1806.65
722.732	1753.4
722.919	1837.37
723.106	1923.38
723.293	1812.79
723.48	1825.08
723.667	1835.32
723.853	1839.42
724.04	1818.94
724.227	1888.57
724.414	1941.82
724.6	1919.29
724.787	1835.32
724.974	1767.74
725.161	1829.18
725.347	1872.18
725.534	1841.47
725.72	1777.98
725.907	1829.18
726.094	1876.28
726.28	1888.57
726.467	1790.27
726.653	1771.83
726.84	1851.71
727.027	1907
727.213	1788.22
727.4	1788.22
727.586	1861.94
727.773	1755.45
727.959	1816.89
728.145	1818.94
728.332	1761.59
728.518	1859.9
728.705	1812.79
728.891	1878.33
729.077	1878.33
729.264	1708.35
729.45	1780.03
729.636	1749.31
729.823	1712.44
730.009	1759.55
730.195	1714.49
730.382	1777.98
730.568	1675.58
730.754	1802.55
730.94	1780.03
731.126	1796.41
731.313	1823.03
731.499	1786.17
731.685	1847.61
731.871	1823.03
732.057	1745.21
732.243	1706.3
732.429	1708.35
732.615	1788.22
732.801	1851.71
732.987	1773.88
733.173	1681.72
733.359	1696.06
733.545	1704.25
733.731	1751.35
733.917	1771.83
734.103	1732.92
734.289	1720.64
734.475	1767.74
734.661	1765.69
734.847	1712.44
735.033	1638.72
735.219	1694.01
735.404	1769.79
735.59	1687.87
735.776	1648.96
735.962	1745.21
736.148	1777.98
736.333	1702.2
736.519	1657.15
736.705	1745.21
736.89	1665.34
737.076	1653.05
737.262	1669.44
737.447	1712.44
737.633	1722.68
737.819	1673.53
738.004	1532.22
738.19	1687.87
738.375	1669.44
738.561	1689.92
738.747	1780.03
738.932	1614.14
739.118	1622.33
739.303	1653.05
739.489	1605.95
739.674	1614.14
739.859	1663.29
740.045	1626.43
740.23	1663.29
740.416	1567.04
740.601	1622.33
740.786	1657.15
740.972	1712.44
741.157	1450.3
741.342	1601.85
741.528	1610.04
741.713	1689.92
741.898	1597.76
742.084	1575.23
742.269	1534.27
742.454	1501.5
742.639	1657.15
742.824	1630.52
743.01	1435.97
743.195	1749.31
743.38	1515.84
743.565	1521.98
743.75	1569.09
743.935	1560.89
744.12	1517.89
744.305	1489.21
744.49	1458.5
744.675	1433.92
744.86	1401.15
745.045	1452.35
745.23	1524.03
745.415	1497.41
745.6	1483.07
745.785	1476.93
745.97	1446.21
746.155	1341.76
746.34	1452.35
746.525	1339.71
746.71	1474.88
746.895	1397.06
747.079	1413.44
747.264	1425.73
747.449	1425.73
747.634	1360.19
747.819	1347.9
748.003	1292.61
748.188	1323.33
748.373	1302.85
748.557	1352
748.742	1276.23
748.927	1304.9
749.111	1171.78
749.296	1292.61
749.481	1169.73
749.665	1231.17
749.85	1220.93
750.034	1261.89
750.219	1196.36
750.404	1280.32
750.588	1231.17
750.773	1173.83
750.957	1202.5
751.141	1179.97
751.326	1253.7
751.51	1196.36
751.695	1225.03
751.879	1182.02
752.064	1212.74
752.248	1229.12
752.432	1220.93
752.617	1149.25
752.801	1159.49
752.985	1114.44
753.17	1196.36
753.354	1077.57
753.538	1149.25
753.722	1116.48
753.907	1089.86
754.091	987.46
754.275	1089.86
754.459	1165.64
754.643	1059.14
754.828	1012.04
755.012	1040.71
755.196	958.79
755.38	1036.61
755.564	1032.52
755.748	977.22
755.932	981.32
756.116	966.98
756.3	993.61
756.484	969.03
756.668	1016.13
756.852	1040.71
757.036	956.74
757.22	964.93
757.404	905.54
757.588	952.65
757.772	911.69
757.956	938.31
758.14	874.82
758.323	887.11
758.507	934.22
758.691	893.26
758.875	870.73
759.059	852.3
759.242	907.59
759.426	880.97
759.61	864.58
759.794	893.26
759.977	897.35
760.161	909.64
760.345	803.15
760.528	872.78
760.712	954.69
760.895	837.96
761.079	794.95
761.263	848.2
761.446	852.3
761.63	887.11
761.813	895.3
761.997	731.47
762.18	809.29
762.364	856.39
762.547	803.15
762.731	762.19
762.914	733.51
763.098	756.04
763.281	809.29
763.464	778.57
763.648	729.42
763.831	682.31
764.015	762.19
764.198	803.15
764.381	745.8
764.564	739.66
764.748	762.19
764.931	778.57
765.114	729.42
765.297	848.2
765.481	641.36
765.664	758.09
765.847	657.74
766.03	727.37
766.213	655.69
766.397	762.19
766.58	635.21
766.763	715.08
766.946	667.98
767.129	725.32
767.312	678.22
767.495	633.16
767.678	690.51
767.861	627.02
768.044	665.93
768.227	708.94
768.41	672.08
768.593	704.84
768.776	659.79
768.959	700.75
769.142	686.41
769.324	616.78
769.507	672.08
769.69	622.92
769.873	655.69
770.056	788.81
770.239	631.12
770.421	676.17
770.604	606.54
770.787	706.89
770.97	606.54
771.152	622.92
771.335	590.16
771.518	635.21
771.7	629.07
771.883	674.12
772.066	602.44
772.248	569.68
772.431	659.79
772.613	633.16
772.796	563.53
772.978	639.31
773.161	627.02
773.343	577.87
773.526	577.87
773.708	553.29
773.891	565.58
774.073	592.2
774.256	647.5
774.438	663.88
774.621	569.68
774.803	612.68
774.985	532.81
775.168	633.16
775.35	561.48
775.532	563.53
775.715	594.25
775.897	649.55
776.079	510.29
776.261	569.68
776.444	477.52
776.626	504.14
776.808	489.81
776.99	481.61
777.173	506.19
777.355	569.68
777.537	520.53
777.719	528.72
777.901	500.05
778.083	495.95
778.265	508.24
778.447	575.82
778.629	522.57
778.811	495.95
778.993	516.43
779.175	508.24
779.357	506.19
779.539	403.79
779.721	442.7
779.903	409.94
780.085	381.26
780.267	418.13
780.449	448.85
780.631	401.74
780.812	434.51
780.994	360.78
781.176	454.99
781.358	452.94
781.54	524.62
781.721	436.56
781.903	414.03
782.085	457.04
782.267	436.56
782.448	418.13
782.63	389.46
782.812	438.61
782.993	510.29
783.175	409.94
783.357	373.07
783.538	438.61
783.72	411.98
783.901	313.68
784.083	442.7
784.264	354.64
784.446	323.92
784.627	387.41
784.809	332.11
784.99	350.54
785.172	309.58
785.353	381.26
785.535	368.98
785.716	330.06
785.897	291.15
786.079	338.26
786.26	371.02
786.441	362.83
786.623	282.96
786.804	336.21
786.985	301.39
787.167	303.44
787.348	395.6
787.529	360.78
787.71	364.88
787.891	311.63
788.073	340.3
788.254	227.67
788.435	360.78
788.616	344.4
788.797	340.3
788.978	387.41
789.159	319.82
789.34	274.77
789.522	237.91
789.703	311.63
789.884	264.53
790.065	256.34
790.246	338.26
790.427	336.21
790.607	278.87
790.788	287.06
790.969	254.29
791.15	287.06
791.331	287.06
791.512	250.19
791.693	211.28
791.874	287.06
792.054	287.06
792.235	209.23
792.416	303.44
792.597	237.91
792.778	268.63
792.958	282.96
793.139	285.01
793.32	207.19
793.5	246.1
793.681	258.39
793.862	254.29
794.042	246.1
794.223	184.66
794.404	205.14
794.584	231.76
794.765	237.91
794.945	215.38
795.126	221.52
795.306	196.95
795.487	278.87
795.667	237.91
795.848	270.67
796.028	180.56
796.209	217.43
796.389	201.04
796.57	248.15
796.75	203.09
796.93	198.99
797.111	205.14
797.291	168.27
797.471	225.62
797.652	147.8
797.832	180.56
798.012	293.2
798.192	250.19
798.373	141.65
798.553	225.62
798.733	198.99
798.913	188.75
799.093	166.23
799.274	239.95
799.454	239.95
799.634	282.96
799.814	209.23
799.994	227.67
800.174	192.85
800.354	102.74
800.534	237.91
800.714	182.61
800.894	252.24
801.074	98.64
801.254	139.6
801.434	258.39
801.614	147.8
801.794	90.45
801.974	706.89
802.154	201.04
802.334	164.18
802.514	147.8
802.693	221.52
802.873	135.51
803.053	192.85
803.233	129.36
803.413	174.42
803.592	131.41
803.772	125.27
803.952	231.76
804.131	153.94
804.311	176.47
804.491	162.13
804.67	51.54
804.85	188.75
805.03	194.9
805.209	176.47
805.389	188.75
805.568	123.22
805.748	137.56
805.928	149.84
806.107	137.56
806.287	143.7
806.466	151.89
806.646	115.03
806.825	155.99
807.004	155.99
807.184	127.32
807.363	196.95
807.543	125.27
807.722	98.64
807.901	133.46
808.081	205.14
808.26	125.27
808.439	115.03
808.619	139.6
808.798	203.09
808.977	49.49
809.156	147.8
809.336	102.74
809.515	233.81
809.694	112.98
809.873	98.64
810.052	164.18
810.231	131.41
810.411	135.51
810.59	201.04
810.769	106.84
810.948	137.56
811.127	90.45
811.306	139.6
811.485	82.26
811.664	223.57
811.843	37.2
812.022	106.84
812.201	127.32
812.38	31.06
812.559	133.46
812.737	164.18
812.916	94.55
813.095	90.45
813.274	176.47
813.453	147.8
813.632	119.12
813.811	125.27
813.989	37.2
814.168	151.89
814.347	115.03
814.526	133.46
814.704	151.89
814.883	198.99
815.062	164.18
815.24	164.18
815.419	98.64
815.598	53.59
815.776	-13.99
815.955	123.22
816.133	33.11
816.312	74.07
816.49	108.88
816.669	26.96
816.847	92.5
817.026	104.79
817.204	43.35
817.383	92.5
817.561	125.27
817.74	49.49
817.918	53.59
818.097	155.99
818.275	57.68
818.453	67.92
818.632	90.45
818.81	141.65
818.988	24.92
819.167	63.83
819.345	65.88
819.523	55.64
819.701	102.74
819.879	84.31
820.058	65.88
820.236	78.16
820.414	108.88
820.592	117.08
820.77	-3.75
820.948	117.08
821.127	178.51
821.305	102.74
821.483	74.07
821.661	59.73
821.839	80.21
822.017	57.68
822.195	8.53
822.373	78.16
822.551	55.64
822.729	141.65
822.907	65.88
823.085	76.12
823.262	145.75
823.44	51.54
823.618	47.44
823.796	100.69
823.974	92.5
824.152	76.12
824.329	33.11
824.507	41.3
824.685	82.26
824.863	92.5
825.04	117.08
825.218	74.07
825.396	74.07
825.574	84.31
825.751	49.49
825.929	59.73
826.107	74.07
826.284	51.54
826.462	76.12
826.639	82.26
826.817	57.68
826.994	49.49
827.172	20.82
827.349	84.31
827.527	51.54
827.704	121.17
827.882	100.69
828.059	147.8
828.237	82.26
828.414	-3.75
828.591	24.92
828.769	35.16
828.946	31.06
829.124	162.13
829.301	117.08
829.478	78.16
829.655	24.92
829.833	76.12
830.01	39.25
830.187	49.49
830.364	149.84
830.542	84.31
830.719	57.68
830.896	67.92
831.073	26.96
831.25	26.96
831.427	74.07
831.604	33.11
831.782	26.96
831.959	12.63
832.136	49.49
832.313	117.08
832.49	106.84
832.667	67.92
832.844	12.63
833.021	100.69
833.198	65.88
833.374	18.77
833.551	41.3
833.728	43.35
833.905	33.11
834.082	-48.81
834.259	33.11
834.436	41.3
834.612	29.01
834.789	26.96
834.966	74.07
835.143	57.68
835.319	31.06
835.496	74.07
835.673	10.58
835.85	-16.04
836.026	26.96
836.203	106.84
836.38	4.44
836.556	-44.71
836.733	43.35
836.909	76.12
837.086	18.77
837.262	33.11
837.439	8.53
837.616	53.59
837.792	41.3
837.968	141.65
838.145	16.73
838.321	37.2
838.498	29.01
838.674	90.45
838.851	47.44
839.027	16.73
839.203	33.11
839.38	84.31
839.556	57.68
839.732	78.16
839.909	65.88
840.085	63.83
840.261	-46.76
840.437	98.64
840.614	-13.99
840.79	78.16
840.966	4.44
841.142	67.92
841.318	-16.04
841.494	39.25
841.671	29.01
841.847	-22.19
842.023	43.35
842.199	82.26
842.375	49.49
842.551	49.49
842.727	-7.85
842.903	61.78
843.079	37.2
843.255	53.59
843.431	61.78
843.607	51.54
843.783	-20.14
843.959	57.68
844.134	18.77
844.31	51.54
844.486	2.39
844.662	39.25
844.838	-11.95
845.013	57.68
845.189	39.25
845.365	18.77
845.541	35.16
845.716	33.11
845.892	24.92
846.068	-48.81
846.244	61.78
846.419	74.07
846.595	49.49
846.77	-3.75
846.946	-5.8
847.122	8.53
847.297	26.96
847.473	65.88
847.648	-30.38
847.824	65.88
847.999	-50.86
848.175	65.88
848.35	49.49
848.526	69.97
848.701	90.45
848.876	10.58
849.052	61.78
849.227	22.87
849.403	45.4
849.578	57.68
849.753	-3.75
849.929	10.58
850.104	65.88
850.279	-22.19
850.454	33.11
850.63	33.11
850.805	31.06
850.98	47.44
851.155	-42.67
851.33	92.5
851.505	-26.28
851.681	51.54
851.856	-38.57
852.031	61.78
852.206	59.73
852.381	-3.75
852.556	-24.23
852.731	-24.23
852.906	-36.52
853.081	51.54
853.256	84.31
853.431	2.39
853.606	-22.19
853.781	55.64
853.956	4.44
854.131	29.01
854.305	-28.33
854.48	2.39
854.655	24.92
854.83	82.26
855.005	33.11
855.18	125.27
855.354	0.34
855.529	24.92
855.704	-40.62
855.879	76.12
856.053	-20.14
856.228	51.54
856.403	4.44
856.577	24.92
856.752	16.73
856.926	43.35
857.101	-46.76
857.276	10.58
857.45	90.45
857.625	33.11
857.799	20.82
857.974	-38.57
858.148	-71.34
858.323	-9.9
858.497	-26.28
858.672	-69.29
858.846	-11.95
859.02	49.49
859.195	16.73
859.369	2.39
859.543	-34.47
859.718	51.54
859.892	-18.09
860.066	18.77
860.241	-20.14
860.415	0.34
860.589	16.73
860.763	33.11
860.938	57.68
861.112	72.02
861.286	-57
861.46	88.4
861.634	-40.62
861.808	76.12
861.982	-1.71
862.157	-22.19
862.331	12.63
862.505	-16.04
862.679	59.73
862.853	53.59
863.027	90.45
863.201	76.12
863.375	4.44
863.549	-24.23
863.722	72.02
863.896	6.49
864.07	-54.95
864.244	-28.33
864.418	61.78
864.592	59.73
864.766	100.69
864.939	33.11
865.113	31.06
865.287	51.54
865.461	-69.29
865.634	10.58
865.808	59.73
865.982	4.44
866.156	-32.43
866.329	-73.39
866.503	24.92
866.676	-3.75
866.85	10.58
867.024	59.73
867.197	110.93
867.371	59.73
867.544	10.58
867.718	-1.71
867.891	16.73
868.065	-7.85
868.238	29.01
868.412	-54.95
868.585	-3.75
868.759	53.59
868.932	-16.04
869.105	-5.8
869.279	0.34
869.452	49.49
869.625	78.16
869.799	41.3
869.972	-7.85
870.145	18.77
870.319	29.01
870.492	0.34
870.665	24.92
870.838	-13.99
871.011	-9.9
871.185	8.53
871.358	4.44
871.531	24.92
871.704	-38.57
871.877	2.39
872.05	0.34
872.223	-32.43
872.396	0.34
872.569	110.93
872.742	-67.24
872.915	-52.91
873.088	-3.75
873.261	16.73
873.434	29.01
873.607	20.82
873.78	16.73
873.953	-22.19
874.126	24.92
874.299	61.78
874.471	18.77
874.644	-24.23
874.817	-7.85
874.99	16.73
875.163	-38.57
875.335	-7.85
875.508	-7.85
875.681	-38.57
875.853	0.34
876.026	-38.57
876.199	-26.28
876.371	41.3
876.544	2.39
876.717	18.77
876.889	-7.85
877.062	-18.09
877.234	-20.14
877.407	26.96
877.579	-40.62
877.752	57.68
877.924	59.73
878.097	18.77
878.269	-18.09
878.442	24.92
878.614	-44.71
878.786	53.59
878.959	10.58
879.131	49.49
879.303	-40.62
879.476	41.3
879.648	4.44
879.82	26.96
879.993	-52.91
880.165	-22.19
880.337	-73.39
880.509	26.96
880.681	-38.57
880.854	29.01
881.026	43.35
881.198	37.2
881.37	65.88
881.542	-5.8
881.714	-69.29
881.886	-44.71
882.058	-13.99
882.23	33.11
882.402	-9.9
882.574	10.58
882.746	4.44
882.918	51.54
883.09	-32.43
883.262	-32.43
883.434	-9.9
883.606	-73.39
883.778	24.92
883.95	59.73
884.122	-7.85
884.293	6.49
884.465	18.77
884.637	135.51
884.809	-57
884.98	-16.04
885.152	20.82
885.324	20.82
885.496	-13.99
885.667	-20.14
885.839	-24.23
886.011	84.31
886.182	8.53
886.354	0.34
886.525	-3.75
886.697	-5.8
886.869	-32.43
887.04	20.82
887.212	16.73
887.383	78.16
887.555	-9.9
887.726	-57
887.897	-81.58
888.069	74.07
888.24	69.97
888.412	0.34
888.583	-13.99
888.754	12.63
888.926	-5.8
889.097	-5.8
889.268	0.34
889.44	14.68
889.611	-32.43
889.782	16.73
889.953	26.96
890.125	49.49
890.296	-38.57
890.467	-48.81
890.638	-32.43
890.809	-22.19
890.98	-48.81
891.151	61.78
891.323	4.44
891.494	-95.91
891.665	-20.14
891.836	4.44
892.007	29.01
892.178	-22.19
892.349	37.2
892.52	-18.09
892.691	47.44
892.862	-38.57
893.032	-28.33
893.203	-22.19
893.374	-24.23
893.545	20.82
893.716	26.96
893.887	4.44
894.057	-16.04
894.228	0.34
894.399	-7.85
894.57	12.63
894.74	-13.99
894.911	8.53
895.082	53.59
895.253	-13.99
895.423	-30.38
895.594	49.49
895.764	41.3
895.935	-54.95
896.106	18.77
896.276	10.58
896.447	-50.86
896.617	-18.09
896.788	-40.62
896.958	12.63
897.129	-81.58
897.299	-22.19
897.47	41.3
897.64	-52.91
897.81	0.34
897.981	16.73
898.151	0.34
898.322	-38.57
898.492	-59.05
898.662	-11.95
898.832	0.34
899.003	-18.09
899.173	47.44
899.343	-59.05
899.513	-81.58
