Data from USB4F104151__196__14-20-26-088.txt Node

Date: Thu Mar 13 14:20:26 EDT 2025
User: louis
Spectrometer: USB4F10415
Trigger mode: 4
Integration Time (sec): 2.000000E-2
Scans to average: 1
Electric dark correction enabled: true
Nonlinearity correction enabled: false
Boxcar width: 0
XAxis mode: Wavelengths
Number of Pixels in Spectrum: 3648
>>>>>Begin Spectral Data<<<<<
178.204	-83.11
178.424	-83.11
178.644	-83.11
178.864	-111.78
179.084	-158.89
179.304	27.48
179.524	-13.48
179.744	15.19
179.964	15.19
180.184	-74.92
180.404	19.29
180.624	-11.43
180.844	-42.15
181.064	-27.82
181.283	60.24
181.503	-3.24
181.723	35.67
181.943	-89.26
182.163	29.52
182.383	23.38
182.602	7
182.822	31.57
183.042	-38.06
183.262	-21.67
183.482	-29.87
183.701	-9.39
183.921	58.2
184.141	-1.19
184.361	-5.29
184.58	45.91
184.8	21.33
185.02	-33.96
185.239	39.76
185.459	35.67
185.679	2.9
185.898	66.39
186.118	41.81
186.338	52.05
186.557	11.09
186.777	-7.34
186.997	21.33
187.216	-46.25
187.436	33.62
187.655	17.24
187.875	76.63
188.095	52.05
188.314	45.91
188.534	117.59
188.753	2.9
188.973	-38.06
189.192	84.82
189.412	0.85
189.631	15.19
189.851	4.95
190.07	11.09
190.29	-60.59
190.509	4.95
190.729	52.05
190.948	35.67
191.168	176.98
191.387	74.58
191.607	17.24
191.826	88.92
192.045	-36.01
192.265	-9.39
192.484	19.29
192.704	-3.24
192.923	-5.29
193.142	62.29
193.362	37.72
193.581	15.19
193.8	52.05
194.02	47.96
194.239	-15.53
194.458	-3.24
194.678	-64.68
194.897	-9.39
195.116	31.57
195.335	27.48
195.555	35.67
195.774	-11.43
195.993	37.72
196.212	45.91
196.432	37.72
196.651	2.9
196.87	-5.29
197.089	131.92
197.308	56.15
197.528	-3.24
197.747	-87.21
197.966	9.05
198.185	150.36
198.404	31.57
198.623	72.53
198.842	25.43
199.062	43.86
199.281	43.86
199.5	35.67
199.719	70.48
199.938	95.06
200.157	117.59
200.376	103.25
200.595	54.1
200.814	52.05
201.033	-40.11
201.252	-13.48
201.471	45.91
201.69	74.58
201.909	43.86
202.128	58.2
202.347	70.48
202.566	72.53
202.785	-5.29
203.004	-50.35
203.223	80.72
203.442	33.62
203.661	-3.24
203.879	70.48
204.098	54.1
204.317	2.9
204.536	111.44
204.755	52.05
204.974	-25.77
205.193	-9.39
205.411	54.1
205.63	25.43
205.849	62.29
206.068	0.85
206.287	101.2
206.505	50
206.724	35.67
206.943	-87.21
207.162	7
207.381	56.15
207.599	52.05
207.818	35.67
208.037	19.29
208.255	-48.3
208.474	47.96
208.693	-15.53
208.911	39.76
209.13	2.9
209.349	45.91
209.567	-13.48
209.786	45.91
210.005	19.29
210.223	27.48
210.442	23.38
210.661	37.72
210.879	15.19
211.098	-3.24
211.316	-5.29
211.535	37.72
211.753	-62.63
211.972	-21.67
212.191	4.95
212.409	60.24
212.628	62.29
212.846	-52.39
213.065	68.44
213.283	13.14
213.502	11.09
213.72	43.86
213.938	-23.72
214.157	-3.24
214.375	39.76
214.594	-29.87
214.812	4.95
215.031	19.29
215.249	52.05
215.467	11.09
215.686	-5.29
215.904	56.15
216.122	27.48
216.341	-9.39
216.559	50
216.778	62.29
216.996	27.48
217.214	-9.39
217.432	25.43
217.651	-87.21
217.869	-1.19
218.087	19.29
218.306	35.67
218.524	45.91
218.742	-1.19
218.96	-5.29
219.179	54.1
219.397	68.44
219.615	41.81
219.833	4.95
220.051	15.19
220.27	52.05
220.488	-5.29
220.706	37.72
220.924	-5.29
221.142	66.39
221.36	29.52
221.578	43.86
221.796	-1.19
222.015	27.48
222.233	7
222.451	-1.19
222.669	11.09
222.887	109.4
223.105	-46.25
223.323	19.29
223.541	-52.39
223.759	13.14
223.977	7
224.195	7
224.413	54.1
224.631	19.29
224.849	39.76
225.067	11.09
225.285	17.24
225.503	47.96
225.721	21.33
225.939	35.67
226.157	15.19
226.375	136.02
226.592	-36.01
226.81	19.29
227.028	27.48
227.246	21.33
227.464	58.2
227.682	68.44
227.9	-46.25
228.117	7
228.335	21.33
228.553	43.86
228.771	-7.34
228.989	72.53
229.206	37.72
229.424	-58.54
229.642	0.85
229.86	4.95
230.077	62.29
230.295	43.86
230.513	-13.48
230.731	-52.39
230.948	2.9
231.166	86.87
231.384	-60.59
231.601	-5.29
231.819	68.44
232.037	33.62
232.254	-9.39
232.472	25.43
232.689	27.48
232.907	60.24
233.125	-11.43
233.342	2.9
233.56	-31.91
233.777	76.63
233.995	47.96
234.213	45.91
234.43	29.52
234.648	76.63
234.865	33.62
235.083	-42.15
235.3	-13.48
235.518	11.09
235.735	33.62
235.953	-15.53
236.17	2.9
236.388	60.24
236.605	11.09
236.822	66.39
237.04	37.72
237.257	78.68
237.475	-27.82
237.692	29.52
237.909	45.91
238.127	90.96
238.344	-13.48
238.562	-72.87
238.779	2.9
238.996	0.85
239.214	19.29
239.431	25.43
239.648	7
239.865	54.1
240.083	27.48
240.3	21.33
240.517	7
240.735	66.39
240.952	37.72
241.169	2.9
241.386	31.57
241.603	-19.63
241.821	56.15
242.038	-1.19
242.255	-5.29
242.472	-11.43
242.689	27.48
242.907	31.57
243.124	52.05
243.341	35.67
243.558	-25.77
243.775	-27.82
243.992	-66.73
244.209	37.72
244.426	37.72
244.643	31.57
244.86	-11.43
245.078	21.33
245.295	121.68
245.512	-1.19
245.729	2.9
245.946	2.9
246.163	70.48
246.38	13.14
246.597	54.1
246.814	21.33
247.031	47.96
247.248	29.52
247.464	64.34
247.681	-62.63
247.898	11.09
248.115	-17.58
248.332	-76.97
248.549	111.44
248.766	133.97
248.983	-15.53
249.2	2.9
249.417	60.24
249.633	13.14
249.85	31.57
250.067	4.95
250.284	23.38
250.501	47.96
250.717	52.05
250.934	-7.34
251.151	60.24
251.368	21.33
251.585	43.86
251.801	-13.48
252.018	-52.39
252.235	45.91
252.451	-19.63
252.668	29.52
252.885	60.24
253.102	2.9
253.318	-3.24
253.535	2.9
253.752	2.9
253.968	-19.63
254.185	21.33
254.401	4.95
254.618	-29.87
254.835	-21.67
255.051	35.67
255.268	68.44
255.484	35.67
255.701	52.05
255.917	31.57
256.134	31.57
256.351	33.62
256.567	-25.77
256.784	41.81
257	27.48
257.217	123.73
257.433	-13.48
257.65	60.24
257.866	52.05
258.082	39.76
258.299	-3.24
258.515	101.2
258.732	2.9
258.948	43.86
259.165	-9.39
259.381	21.33
259.597	39.76
259.814	27.48
260.03	45.91
260.246	47.96
260.463	56.15
260.679	15.19
260.895	19.29
261.112	68.44
261.328	60.24
261.544	88.92
261.761	95.06
261.977	68.44
262.193	0.85
262.409	37.72
262.626	-25.77
262.842	45.91
263.058	7
263.274	-9.39
263.49	19.29
263.707	11.09
263.923	-3.24
264.139	-44.2
264.355	117.59
264.571	43.86
264.787	11.09
265.004	80.72
265.22	-5.29
265.436	27.48
265.652	66.39
265.868	-33.96
266.084	29.52
266.3	93.01
266.516	-9.39
266.732	84.82
266.948	21.33
267.164	25.43
267.38	70.48
267.596	29.52
267.812	45.91
268.028	4.95
268.244	-17.58
268.46	-5.29
268.676	-11.43
268.892	-42.15
269.108	-11.43
269.324	-7.34
269.54	11.09
269.756	11.09
269.972	11.09
270.188	11.09
270.403	43.86
270.619	39.76
270.835	27.48
271.051	11.09
271.267	25.43
271.483	-13.48
271.698	39.76
271.914	21.33
272.13	4.95
272.346	11.09
272.562	54.1
272.777	52.05
272.993	2.9
273.209	-15.53
273.425	29.52
273.64	-27.82
273.856	50
274.072	-33.96
274.287	7
274.503	52.05
274.719	9.05
274.934	4.95
275.15	-9.39
275.366	15.19
275.581	-13.48
275.797	80.72
276.012	37.72
276.228	-21.67
276.444	-5.29
276.659	27.48
276.875	-42.15
277.09	-38.06
277.306	-21.67
277.521	86.87
277.737	-11.43
277.952	-11.43
278.168	45.91
278.383	68.44
278.599	21.33
278.814	7
279.03	88.92
279.245	39.76
279.461	-54.44
279.676	27.48
279.892	35.67
280.107	-9.39
280.322	-15.53
280.538	23.38
280.753	45.91
280.969	43.86
281.184	70.48
281.399	35.67
281.615	86.87
281.83	-29.87
282.045	21.33
282.26	-103.59
282.476	105.3
282.691	31.57
282.906	70.48
283.122	39.76
283.337	-48.3
283.552	29.52
283.767	103.25
283.983	54.1
284.198	39.76
284.413	11.09
284.628	39.76
284.843	29.52
285.058	-19.63
285.274	88.92
285.489	29.52
285.704	-19.63
285.919	4.95
286.134	64.34
286.349	-5.29
286.564	68.44
286.779	-38.06
286.995	-27.82
287.21	4.95
287.425	19.29
287.64	13.14
287.855	117.59
288.07	2.9
288.285	133.97
288.5	-29.87
288.715	58.2
288.93	11.09
289.145	-5.29
289.36	29.52
289.575	-5.29
289.79	66.39
290.004	11.09
290.219	68.44
290.434	11.09
290.649	27.48
290.864	-3.24
291.079	2.9
291.294	43.86
291.509	-52.39
291.724	25.43
291.938	-38.06
292.153	74.58
292.368	-54.44
292.583	93.01
292.798	43.86
293.012	-1.19
293.227	76.63
293.442	-7.34
293.657	68.44
293.871	64.34
294.086	39.76
294.301	50
294.516	86.87
294.73	105.3
294.945	29.52
295.16	60.24
295.374	2.9
295.589	56.15
295.804	50
296.018	21.33
296.233	111.44
296.447	27.48
296.662	11.09
296.877	39.76
297.091	11.09
297.306	33.62
297.52	-54.44
297.735	19.29
297.949	-54.44
298.164	11.09
298.378	27.48
298.593	7
298.807	-9.39
299.022	29.52
299.236	19.29
299.451	60.24
299.665	-40.11
299.88	-21.67
300.094	52.05
300.309	-9.39
300.523	7
300.737	-1.19
300.952	39.76
301.166	35.67
301.381	-19.63
301.595	2.9
301.809	-3.24
302.024	11.09
302.238	-36.01
302.452	35.67
302.667	-36.01
302.881	13.14
303.095	60.24
303.309	11.09
303.524	78.68
303.738	27.48
303.952	-97.45
304.166	-13.48
304.381	-25.77
304.595	27.48
304.809	-29.87
305.023	52.05
305.237	7
305.452	93.01
305.666	11.09
305.88	31.57
306.094	19.29
306.308	80.72
306.522	15.19
306.736	72.53
306.95	39.76
307.164	31.57
307.379	-36.01
307.593	-1.19
307.807	45.91
308.021	95.06
308.235	21.33
308.449	27.48
308.663	-52.39
308.877	62.29
309.091	23.38
309.305	0.85
309.519	-21.67
309.733	64.34
309.947	-33.96
310.161	-5.29
310.374	-29.87
310.588	56.15
310.802	-21.67
311.016	39.76
311.23	47.96
311.444	23.38
311.658	68.44
311.872	68.44
312.085	84.82
312.299	86.87
312.513	78.68
312.727	43.86
312.941	-21.67
313.154	-13.48
313.368	70.48
313.582	41.81
313.796	-21.67
314.009	7
314.223	84.82
314.437	68.44
314.651	80.72
314.864	47.96
315.078	17.24
315.292	19.29
315.505	-23.72
315.719	50
315.933	52.05
316.146	68.44
316.36	-1.19
316.573	60.24
316.787	-1.19
317.001	68.44
317.214	9.05
317.428	35.67
317.641	13.14
317.855	84.82
318.068	13.14
318.282	133.97
318.495	52.05
318.709	60.24
318.922	68.44
319.136	27.48
319.349	47.96
319.563	19.29
319.776	50
319.99	-70.83
320.203	-13.48
320.417	33.62
320.63	41.81
320.843	52.05
321.057	31.57
321.27	-15.53
321.483	-11.43
321.697	56.15
321.91	7
322.124	76.63
322.337	58.2
322.55	2.9
322.763	62.29
322.977	7
323.19	68.44
323.403	45.91
323.617	-29.87
323.83	7
324.043	29.52
324.256	-62.63
324.469	35.67
324.683	-5.29
324.896	-13.48
325.109	76.63
325.322	-5.29
325.535	60.24
325.748	-17.58
325.962	-60.59
326.175	43.86
326.388	-70.83
326.601	0.85
326.814	-40.11
327.027	-58.54
327.24	21.33
327.453	-56.49
327.666	82.77
327.879	0.85
328.092	2.9
328.305	-11.43
328.518	-17.58
328.731	19.29
328.944	66.39
329.157	19.29
329.37	35.67
329.583	68.44
329.796	45.91
330.009	88.92
330.222	60.24
330.435	-25.77
330.648	2.9
330.861	15.19
331.073	64.34
331.286	43.86
331.499	84.82
331.712	-38.06
331.925	41.81
332.138	31.57
332.35	56.15
332.563	41.81
332.776	25.43
332.989	37.72
333.202	37.72
333.414	54.1
333.627	-33.96
333.84	-5.29
334.053	68.44
334.265	52.05
334.478	2.9
334.691	29.52
334.903	97.11
335.116	47.96
335.329	29.52
335.541	66.39
335.754	-27.82
335.966	-21.67
336.179	54.1
336.392	-7.34
336.604	17.24
336.817	70.48
337.029	21.33
337.242	119.64
337.454	35.67
337.667	76.63
337.88	31.57
338.092	58.2
338.305	27.48
338.517	31.57
338.729	58.2
338.942	17.24
339.154	76.63
339.367	-29.87
339.579	23.38
339.792	-27.82
340.004	97.11
340.217	11.09
340.429	70.48
340.641	76.63
340.854	11.09
341.066	84.82
341.278	109.4
341.491	74.58
341.703	50
341.915	-31.91
342.128	76.63
342.34	60.24
342.552	13.14
342.764	60.24
342.977	43.86
343.189	76.63
343.401	54.1
343.613	43.86
343.826	68.44
344.038	52.05
344.25	29.52
344.462	23.38
344.674	7
344.886	45.91
345.099	72.53
345.311	-5.29
345.523	37.72
345.735	37.72
345.947	66.39
346.159	31.57
346.371	43.86
346.583	39.76
346.795	70.48
347.007	-9.39
347.219	23.38
347.431	17.24
347.643	76.63
347.855	62.29
348.067	58.2
348.279	17.24
348.491	37.72
348.703	-23.72
348.915	35.67
349.127	-25.77
349.339	60.24
349.551	-9.39
349.763	54.1
349.975	25.43
350.187	9.05
350.399	54.1
350.61	21.33
350.822	-33.96
351.034	37.72
351.246	-9.39
351.458	56.15
351.669	2.9
351.881	62.29
352.093	33.62
352.305	13.14
352.517	21.33
352.728	62.29
352.94	27.48
353.152	62.29
353.363	11.09
353.575	4.95
353.787	43.86
353.999	146.26
354.21	80.72
354.422	-19.63
354.633	78.68
354.845	21.33
355.057	90.96
355.268	11.09
355.48	93.01
355.692	60.24
355.903	-15.53
356.115	97.11
356.326	-33.96
356.538	50
356.749	11.09
356.961	66.39
357.172	76.63
357.384	62.29
357.595	111.44
357.807	-11.43
358.018	-3.24
358.23	15.19
358.441	62.29
358.653	11.09
358.864	68.44
359.075	35.67
359.287	21.33
359.498	-13.48
359.709	64.34
359.921	76.63
360.132	11.09
360.344	11.09
360.555	-7.34
360.766	80.72
360.977	4.95
361.189	-3.24
361.4	60.24
361.611	43.86
361.823	52.05
362.034	60.24
362.245	-29.87
362.456	52.05
362.667	23.38
362.879	-38.06
363.09	27.48
363.301	21.33
363.512	9.05
363.723	-5.29
363.935	47.96
364.146	82.77
364.357	39.76
364.568	60.24
364.779	43.86
364.99	103.25
365.201	47.96
365.412	19.29
365.623	93.01
365.834	60.24
366.045	64.34
366.256	80.72
366.467	45.91
366.678	-1.19
366.889	39.76
367.1	-9.39
367.311	58.2
367.522	7
367.733	64.34
367.944	80.72
368.155	-76.97
368.366	97.11
368.577	54.1
368.788	35.67
368.999	54.1
369.209	-21.67
369.42	60.24
369.631	88.92
369.842	0.85
370.053	-52.39
370.264	80.72
370.474	4.95
370.685	43.86
370.896	35.67
371.107	90.96
371.317	56.15
371.528	41.81
371.739	93.01
371.95	25.43
372.16	23.38
372.371	-13.48
372.582	-29.87
372.792	-3.24
373.003	78.68
373.214	103.25
373.424	31.57
373.635	7
373.846	-3.24
374.056	60.24
374.267	84.82
374.477	52.05
374.688	35.67
374.898	133.97
375.109	13.14
375.319	11.09
375.53	54.1
375.74	11.09
375.951	68.44
376.161	37.72
376.372	31.57
376.582	56.15
376.793	125.78
377.003	-11.43
377.214	60.24
377.424	76.63
377.635	50
377.845	35.67
378.055	72.53
378.266	-38.06
378.476	82.77
378.686	17.24
378.897	4.95
379.107	56.15
379.317	13.14
379.528	-11.43
379.738	23.38
379.948	-13.48
380.158	7
380.369	60.24
380.579	35.67
380.789	-13.48
380.999	7
381.21	54.1
381.42	121.68
381.63	80.72
381.84	47.96
382.05	68.44
382.261	76.63
382.471	37.72
382.681	43.86
382.891	56.15
383.101	68.44
383.311	35.67
383.521	103.25
383.731	60.24
383.941	27.48
384.151	82.77
384.361	62.29
384.571	43.86
384.781	31.57
384.991	125.78
385.201	70.48
385.411	35.67
385.621	144.21
385.831	68.44
386.041	60.24
386.251	76.63
386.461	113.49
386.671	117.59
386.881	4.95
387.091	-44.2
387.301	68.44
387.511	2.9
387.72	101.2
387.93	41.81
388.14	37.72
388.35	47.96
388.56	27.48
388.769	-7.34
388.979	43.86
389.189	78.68
389.399	54.1
389.609	54.1
389.818	64.34
390.028	52.05
390.238	80.72
390.447	19.29
390.657	35.67
390.867	27.48
391.076	68.44
391.286	97.11
391.496	54.1
391.705	-19.63
391.915	29.52
392.125	123.73
392.334	11.09
392.544	-3.24
392.753	35.67
392.963	54.1
393.172	19.29
393.382	31.57
393.591	82.77
393.801	19.29
394.01	62.29
394.22	90.96
394.429	47.96
394.639	125.78
394.848	52.05
395.058	-15.53
395.267	86.87
395.477	33.62
395.686	43.86
395.895	174.93
396.105	119.64
396.314	148.31
396.524	105.3
396.733	119.64
396.942	93.01
397.152	109.4
397.361	37.72
397.57	93.01
397.78	60.24
397.989	105.3
398.198	144.21
398.407	62.29
398.617	123.73
398.826	101.2
399.035	111.44
399.244	119.64
399.453	43.86
399.663	76.63
399.872	203.6
400.081	88.92
400.29	119.64
400.499	101.2
400.708	78.68
400.917	39.76
401.127	176.98
401.336	-3.24
401.545	152.4
401.754	97.11
401.963	119.64
402.172	107.35
402.381	121.68
402.59	82.77
402.799	174.93
403.008	127.83
403.217	80.72
403.426	168.79
403.635	80.72
403.844	84.82
404.053	93.01
404.262	142.16
404.471	162.64
404.68	203.6
404.888	195.41
405.097	93.01
405.306	162.64
405.515	140.12
405.724	103.25
405.933	170.83
406.142	144.21
406.35	179.03
406.559	156.5
406.768	252.75
406.977	254.8
407.185	197.46
407.394	166.74
407.603	166.74
407.812	215.89
408.02	349.01
408.229	142.16
408.438	195.41
408.646	199.51
408.855	254.8
409.064	236.37
409.272	203.6
409.481	242.51
409.69	262.99
409.898	310.1
410.107	334.67
410.315	248.66
410.524	355.15
410.733	365.39
410.941	373.58
411.15	371.54
411.358	334.67
411.567	385.87
411.775	365.39
411.984	420.69
412.192	463.69
412.401	383.82
412.609	529.23
412.818	432.97
413.026	502.61
413.234	441.17
413.443	531.28
413.651	578.38
413.86	609.1
414.068	631.63
414.276	600.91
414.485	502.61
414.693	607.05
414.901	734.03
415.11	699.21
415.318	668.49
415.526	805.71
415.734	793.42
415.943	760.65
416.151	863.05
416.359	830.28
416.567	815.94
416.776	838.47
416.984	971.59
417.192	867.14
417.4	1051.46
417.608	955.21
417.817	1028.93
418.025	1053.51
418.233	1176.39
418.441	1141.57
418.649	1139.52
418.857	1211.2
419.065	1190.72
419.273	1164.1
419.481	1338.18
419.689	1397.57
419.897	1473.34
420.105	1362.75
420.313	1583.93
420.521	1524.54
420.729	1534.78
420.937	1641.28
421.145	1684.28
421.353	1837.88
421.561	1864.5
421.769	1985.34
421.977	2028.34
422.185	1989.43
422.393	2087.73
422.601	2177.84
422.809	2263.86
423.017	2280.24
423.224	2366.26
423.432	2478.9
423.64	2476.85
423.848	2669.36
424.056	2738.99
424.263	2747.18
424.471	2757.42
424.679	2822.95
424.887	3035.94
425.094	3126.05
425.302	3175.2
425.51	3232.55
425.718	3312.42
425.925	3543.84
426.133	3423.01
426.341	3687.2
426.548	3795.74
426.756	3816.22
426.964	3951.39
427.171	4041.5
427.379	4195.09
427.586	4184.85
427.794	4471.57
428.001	4719.37
428.209	4848.4
428.417	4936.46
428.624	5114.63
428.832	5073.67
429.039	4999.95
429.247	4930.31
429.454	5520.13
429.662	6054.65
429.869	5559.04
430.076	5876.48
430.284	5688.06
430.491	5827.32
430.699	6269.69
430.906	6355.7
431.114	6474.48
431.321	6603.5
431.528	6843.12
431.736	7097.07
431.943	7490.28
432.15	7193.32
432.358	7295.72
432.565	7746.27
432.772	7619.3
432.979	8037.08
433.187	8311.51
433.394	8291.03
433.601	8678.1
433.808	8975.05
434.016	8809.17
434.223	9210.57
434.43	9568.96
434.637	9726.66
434.844	10218.17
435.052	10273.46
435.259	10214.07
435.466	10572.47
435.673	10295.99
435.88	11164.33
436.087	11803.3
436.294	11467.43
436.501	11131.56
436.708	11416.23
436.915	12028.57
437.122	12401.3
437.329	12257.95
437.537	12851.86
437.743	12921.49
437.95	12794.51
438.157	13568.65
438.364	13904.51
438.571	13875.84
438.778	13738.63
438.985	15262.32
439.192	14621.3
439.399	15022.7
439.606	14690.93
439.813	15655.53
440.02	16462.43
440.227	16206.43
440.433	16065.12
440.64	16745.05
440.847	16525.91
441.054	17078.86
441.261	17977.92
441.467	17873.48
441.674	18418.24
441.881	18750.01
442.088	18752.06
442.294	18657.85
442.501	18995.76
442.708	19452.46
442.914	20474.4
443.121	21244.43
443.328	20541.98
443.534	21840.39
443.741	21293.58
443.948	20793.88
444.154	22645.24
444.361	22499.84
444.568	22436.35
444.774	22751.74
444.981	22669.82
445.187	23298.55
445.394	24326.63
445.6	24068.58
445.807	26536.38
446.013	25233.88
446.22	25897.42
446.426	26880.44
446.633	26870.2
446.839	28006.83
447.046	26505.66
447.252	28154.28
447.459	28475.81
447.665	28027.31
447.871	29331.86
448.078	30517.64
448.284	29260.18
448.491	30134.67
448.697	31187.32
448.903	31603.06
449.11	31791.47
449.316	31043.96
449.522	31805.81
449.728	32913.76
449.935	32717.15
450.141	32981.34
450.347	33700.18
450.553	32524.65
450.76	33204.57
450.966	34148.68
451.172	33669.46
451.378	34371.91
451.584	33782.1
451.791	34726.21
451.997	34793.79
452.203	34957.63
452.409	35240.25
452.615	35137.85
452.821	33759.57
453.027	33300.83
453.233	34943.3
453.44	33691.99
453.646	33958.22
453.852	34318.67
454.058	35027.26
454.264	33683.8
454.47	34515.27
454.676	33575.25
454.882	35066.17
455.088	31617.39
455.294	32340.33
455.5	32702.82
455.705	33145.18
455.911	31820.14
456.117	30962.04
456.323	30634.37
456.529	29274.52
456.735	30505.35
456.941	29295
457.147	29557.14
457.352	28314.02
457.558	28281.25
457.764	28258.73
457.97	27619.76
458.176	26905.02
458.381	27066.81
458.587	25657.81
458.793	25498.06
458.999	24302.05
459.204	26208.71
459.41	25264.6
459.616	23810.54
459.821	23681.52
460.027	23702
460.233	23130.61
460.438	21756.43
460.644	22274.56
460.85	21535.24
461.055	21328.4
461.261	20621.85
461.466	19372.59
461.672	18680.38
461.878	20070.95
462.083	18672.18
462.289	18473.53
462.494	18412.09
462.7	17414.73
462.905	16894.55
463.111	17619.53
463.316	17558.09
463.522	17373.77
463.727	17136.21
463.932	17261.13
464.138	16878.16
464.343	16949.84
464.549	16454.23
464.754	17128.02
464.959	17074.77
465.165	16923.22
465.37	16157.28
465.575	15743.59
465.781	16628.31
465.986	16493.15
466.191	15796.84
466.397	15649.38
466.602	15078
466.807	15495.78
467.012	15415.91
467.218	15315.56
467.423	15014.51
467.628	15096.43
467.833	15856.23
468.038	15108.72
468.244	14914.16
468.449	15297.13
468.654	14809.72
468.859	14731.89
469.064	14600.82
469.269	14021.25
469.474	14250.62
469.679	14453.37
469.885	13888.13
470.09	14410.36
470.295	14176.89
470.5	13834.88
470.705	13853.31
470.91	13470.34
471.115	13511.3
471.32	13687.43
471.525	13812.35
471.73	13456.01
471.935	13441.67
472.139	13054.61
472.344	12843.67
472.549	12991.12
472.754	12751.51
472.959	12255.9
473.164	12173.98
473.369	12069.53
473.574	12329.63
473.778	12325.53
473.983	12286.62
474.188	12053.15
474.393	11725.47
474.598	11717.28
474.802	11492.01
475.007	11516.58
475.212	11524.77
475.417	11156.14
475.621	11227.82
475.826	11233.96
476.031	10885.81
476.235	10775.22
476.44	11020.97
476.645	10709.68
476.849	10824.37
477.054	10558.13
477.259	10408.63
477.463	10332.86
477.668	9945.79
477.872	10316.47
478.077	10040
478.282	9937.6
478.486	9839.3
478.691	9751.23
478.895	9587.4
479.1	9552.58
479.304	9530.05
479.509	9333.45
479.713	9366.21
479.918	9263.82
480.122	9181.9
480.326	9321.16
480.531	9272.01
480.735	9104.07
480.94	9097.93
481.144	9386.69
481.348	8946.38
481.553	9173.71
481.757	8917.71
481.961	9026.25
482.166	9065.16
482.37	8903.37
482.574	8893.13
482.778	8985.29
482.983	9046.73
483.187	9153.23
483.391	8850.13
483.595	8948.43
483.8	8743.63
484.004	9071.31
484.208	9048.78
484.412	8800.98
484.616	8975.05
484.821	9009.87
485.025	8747.73
485.229	8891.09
485.433	8839.89
485.637	8825.55
485.841	8889.04
486.045	8714.96
486.249	9040.59
486.453	8792.78
486.657	8753.87
486.861	8833.74
487.065	8774.35
487.269	8843.98
487.473	8813.26
487.677	9175.75
487.881	9069.26
488.085	8741.58
488.289	9016.01
488.493	8776.4
488.697	8944.33
488.901	9020.11
489.105	9032.4
489.309	9085.64
489.512	8973
489.716	9075.4
489.92	9063.12
490.124	9073.35
490.328	9253.58
490.531	8909.52
490.735	8964.81
490.939	9255.62
491.143	9032.4
491.346	9056.97
491.55	9226.95
491.754	9382.6
491.958	9472.71
492.161	9116.36
492.365	9591.49
492.569	9329.35
492.772	9444.04
492.976	9497.28
493.18	9405.13
493.383	9661.12
493.587	9685.7
493.79	9824.96
493.994	9611.97
494.197	9706.18
494.401	9878.21
494.605	9818.82
494.808	9994.94
495.012	10160.83
495.215	10121.91
495.419	10154.68
495.622	10246.84
495.825	10318.52
496.029	10285.75
496.232	10504.89
496.436	10433.21
496.639	10891.95
496.843	10810.03
497.046	10775.22
497.249	11117.23
497.453	11070.12
497.656	11072.17
497.859	11170.47
498.063	11250.35
498.266	11483.81
498.469	11543.21
498.673	11518.63
498.876	11936.42
499.079	11899.55
499.282	11782.82
499.485	12167.84
499.689	12503.7
499.892	12462.74
500.095	12559
500.298	12679.83
500.501	12817.04
500.705	13161.1
500.908	13019.79
501.111	13177.48
501.314	13320.84
501.517	13468.3
501.72	13492.87
501.923	13556.36
502.126	13757.06
502.329	14152.32
502.532	14252.67
502.735	14076.54
502.938	14287.48
503.141	14551.67
503.344	14746.23
503.547	14799.48
503.75	14979.7
503.953	14961.27
504.156	15497.83
504.359	15506.02
504.562	15897.19
504.765	15911.52
504.968	15991.39
505.17	16222.81
505.373	16577.11
505.576	16609.88
505.779	16745.05
505.982	16882.26
506.185	17205.84
506.387	17117.78
506.59	17179.22
506.793	17642.06
506.996	17486.41
507.198	18127.42
507.401	17955.4
507.604	18102.85
507.807	18647.61
508.009	18416.19
508.212	18833.97
508.415	19319.34
508.617	19190.32
508.82	19280.43
509.022	19266.1
509.225	19532.33
509.428	20230.69
509.63	20300.32
509.833	19927.59
510.035	20740.63
510.238	20202.02
510.44	20623.9
510.643	21101.08
510.845	21482
511.048	21088.79
511.25	21721.61
511.453	21826.06
511.655	22270.47
511.858	22200.83
512.06	22727.16
512.262	22616.57
512.465	22694.4
512.667	22731.26
512.87	23210.48
513.072	23400.94
513.274	23702
513.477	23982.57
513.679	23749.1
513.881	24484.32
514.084	24748.51
514.286	24818.14
514.488	24711.64
514.69	25371.09
514.893	25405.91
515.095	25657.81
515.297	25778.64
515.499	25776.59
515.701	25979.34
515.904	26407.36
516.106	26749.37
516.308	26722.75
516.51	27201.97
516.712	27158.97
516.914	27574.7
517.116	27793.84
517.318	28150.18
517.52	28146.09
517.722	28506.53
517.925	28768.67
518.127	29184.41
518.329	29282.71
518.531	28967.32
518.733	29669.78
518.935	29825.42
519.136	29512.08
519.338	30587.27
519.54	30208.39
519.742	30732.67
519.944	30945.66
520.146	31129.98
520.348	31383.93
520.55	31531.38
520.752	31431.03
520.954	32115.05
521.155	31936.88
521.357	32434.53
521.559	32678.24
521.761	33298.78
521.963	32971.1
522.164	33110.36
522.366	33331.54
522.568	33755.47
522.77	33753.43
522.971	34326.86
523.173	33988.94
523.375	34496.84
523.576	34449.74
523.778	34531.65
523.98	35025.21
524.181	35488.06
524.383	35119.42
524.584	35754.29
524.786	35619.13
524.988	35445.05
525.189	36022.58
525.391	36221.23
525.592	36403.5
525.794	36159.79
525.995	36374.83
526.197	36600.1
526.398	36895.01
526.6	36962.59
526.801	36917.54
527.003	37165.34
527.204	37275.93
527.406	37337.37
527.607	37576.98
527.808	37626.14
528.01	37214.49
528.211	37386.52
528.412	38187.28
528.614	38103.31
528.815	38121.74
529.016	38494.47
529.218	38086.93
529.419	38238.48
529.62	38236.43
529.822	38220.05
530.023	38248.72
530.224	38541.58
530.425	38422.8
530.626	38091.02
530.828	37968.15
531.029	38942.98
531.23	38734.09
531.431	38478.09
531.632	38754.57
531.833	39239.93
532.035	38543.63
532.236	38836.48
532.437	39039.23
532.638	38936.84
532.839	39192.83
533.04	39379.2
533.241	38631.69
533.442	39567.61
533.643	39053.57
533.844	39315.71
534.045	39393.53
534.246	38750.47
534.447	39328
534.648	38934.79
534.849	39323.9
535.05	38826.24
535.251	38988.03
535.451	39246.08
535.652	39573.75
535.853	39336.19
536.054	39368.96
536.255	39780.6
536.456	38891.78
536.657	39311.61
536.857	38887.68
537.058	38813.96
537.259	39366.91
537.46	38871.3
537.66	38854.92
537.861	38992.13
538.062	39074.05
538.263	39299.33
538.463	38883.59
538.664	38809.86
538.865	39049.47
539.065	39172.35
539.266	38435.08
539.466	39213.31
539.667	38693.13
539.868	39426.3
540.068	39411.96
540.269	38928.64
540.469	39385.34
540.67	38996.23
540.87	38639.88
541.071	38967.55
541.271	39174.4
541.472	38529.29
541.672	38934.79
541.873	38422.8
542.073	38359.31
542.274	38932.74
542.474	39018.75
542.675	38871.3
542.875	38914.31
543.075	38789.38
543.276	38549.77
543.476	38895.88
543.676	38564.1
543.877	39069.95
544.077	38670.6
544.277	38934.79
544.478	38308.11
544.678	38947.08
544.878	38994.18
545.078	39033.09
545.279	38824.2
545.479	38295.82
545.679	38856.96
545.879	38754.57
546.079	38422.8
546.28	38562.06
546.48	38084.88
546.68	38961.41
546.88	38674.7
547.08	38680.84
547.28	38750.47
547.48	38056.21
547.68	38355.21
547.88	38527.24
548.081	38646.02
548.281	38361.36
548.481	38234.38
548.681	38177.04
548.881	38185.23
549.081	38168.85
549.28	38373.64
549.48	38459.66
549.68	38289.68
549.88	38762.76
550.08	38162.7
550.28	38412.56
550.48	38359.31
550.68	38428.94
550.88	37857.56
551.08	38367.5
551.279	38476.04
551.479	37718.29
551.679	37994.77
551.879	38076.69
552.079	38349.07
552.278	38349.07
552.478	38082.83
552.678	38420.75
552.878	38117.65
553.077	38383.88
553.277	37531.93
553.477	38586.63
553.676	38076.69
553.876	38205.71
554.076	38058.26
554.275	38027.54
554.475	37619.99
554.674	38007.06
554.874	37706.01
555.074	37603.61
555.273	38308.11
555.473	38142.22
555.672	37749.01
555.872	37789.97
556.071	37900.56
556.271	38236.43
556.47	37816.6
556.67	37572.89
556.869	37898.52
557.068	37820.69
557.268	37241.12
557.467	37312.8
557.667	37454.11
557.866	37644.57
558.065	37540.12
558.265	37554.46
558.464	37402.91
558.663	37298.46
558.863	37071.14
559.062	37900.56
559.261	36989.22
559.461	37441.82
559.66	37093.66
559.859	37212.45
560.058	36636.97
560.258	37044.51
560.457	37198.11
560.656	37372.19
560.855	36780.32
561.054	37259.55
561.253	36389.16
561.453	36774.18
561.652	37105.95
561.851	37024.03
562.05	36571.43
562.249	36411.69
562.448	37026.08
562.647	36475.18
562.846	36362.54
563.045	36391.21
563.244	35977.52
563.443	36653.35
563.642	35879.22
563.841	36092.21
564.04	36380.97
564.239	36550.95
564.438	35891.51
564.637	36598.05
564.836	36153.65
565.035	36112.69
565.234	36016.43
565.432	35774.77
565.631	35795.25
565.83	35608.89
566.029	35592.5
566.228	35197.24
566.427	35391.8
566.625	35344.7
566.824	34869.57
567.023	35748.15
567.222	35115.33
567.42	35461.43
567.619	35309.88
567.818	35402.04
568.016	34898.24
568.215	35373.37
568.414	35047.74
568.612	35148.09
568.811	34709.83
569.01	34881.86
569.208	34761.03
569.407	34799.94
569.605	34316.62
569.804	34924.86
570.002	34601.29
570.201	34343.24
570.4	34312.52
570.598	33925.46
570.797	34122.06
570.995	33909.07
571.193	33808.72
571.392	34226.51
571.59	33894.74
571.789	33814.87
571.987	34046.29
572.186	33845.58
572.384	33626.45
572.582	33517.91
572.781	33579.35
572.979	33294.68
573.177	33411.42
573.376	33620.31
573.574	32915.81
573.772	33634.64
573.971	33130.84
574.169	33220.95
574.367	32899.42
574.565	33134.94
574.763	33114.46
574.962	32829.79
575.16	32186.73
575.358	32782.69
575.556	32178.54
575.754	32717.15
575.952	32080.24
576.151	32661.86
576.349	32213.35
576.547	31859.06
576.745	32184.68
576.943	31977.84
577.141	31736.18
577.339	31957.36
577.537	31648.11
577.735	31938.93
577.933	31502.71
578.131	32010.6
578.329	31220.09
578.527	31478.13
578.725	31570.29
578.923	31443.32
579.121	31254.9
579.319	30925.18
579.516	31322.49
579.714	31357.3
579.912	31070.59
580.11	31013.24
580.308	31500.66
580.506	30816.64
580.704	30525.83
580.901	30873.98
581.099	30945.66
581.297	30443.91
581.495	30159.24
581.692	30634.37
581.89	30423.43
582.088	30339.46
582.285	30161.29
582.483	30431.62
582.681	30169.48
582.878	30249.35
583.076	29874.57
583.274	30200.2
583.471	29321.62
583.669	29596.05
583.866	29585.81
584.064	29886.86
584.262	29071.77
584.459	29710.74
584.657	29249.94
584.854	29647.25
585.052	28912.03
585.249	28973.47
585.447	29086.11
585.644	29030.81
585.841	28750.24
586.039	29112.73
586.236	28754.33
586.434	28455.33
586.631	28561.83
586.828	28658.08
587.026	28645.79
587.223	28178.86
587.42	28441
587.618	28291.49
587.815	28092.84
588.012	28307.88
588.21	27779.5
588.407	28031.4
588.604	28084.65
588.801	27828.65
588.999	27990.44
589.196	27537.84
589.393	27529.65
589.59	27677.1
589.787	27507.12
589.984	27050.42
590.182	27273.65
590.379	27287.99
590.576	27007.42
590.773	27118.01
590.97	26816.96
591.167	27138.49
591.364	26665.41
591.561	27251.13
591.758	26870.2
591.955	26593.73
592.152	26954.17
592.349	26239.43
592.546	26649.02
592.743	26323.4
592.94	25856.46
593.137	26194.37
593.334	26368.45
593.531	25698.77
593.727	25907.66
593.924	26202.57
594.121	25938.38
594.318	25737.68
594.515	25295.32
594.712	25666
594.908	25735.63
595.105	25668.05
595.302	25297.36
595.499	25252.31
595.696	25332.18
595.892	25264.6
596.089	25557.46
596.286	25033.18
596.482	25227.73
596.679	24834.52
596.876	24912.35
597.072	24742.36
597.269	24658.4
597.466	24601.05
597.662	24541.66
597.859	24465.89
598.055	24359.39
598.252	24261.09
598.448	24474.08
598.645	24543.71
598.841	24162.79
599.038	24338.91
599.234	23970.28
599.431	24044.01
599.627	23828.97
599.824	23865.83
600.02	23955.94
600.217	24044.01
600.413	23749.1
600.609	23745
600.806	23779.82
601.002	23601.65
601.198	23030.26
601.395	23181.81
601.591	23362.03
601.787	23284.21
601.984	23114.23
602.18	23091.7
602.376	23122.42
602.572	22981.11
602.769	22823.42
602.965	22807.03
603.161	23099.89
603.357	22319.62
603.553	22780.41
603.75	22796.79
603.946	22174.21
604.142	22686.2
604.338	22174.21
604.534	22600.19
604.73	22192.64
604.926	22430.21
605.122	22243.84
605.318	21998.09
605.514	22114.82
605.71	21971.46
605.906	21850.63
606.102	21576.2
606.298	21701.13
606.494	21828.1
606.69	21934.6
606.886	21856.78
607.082	21371.41
607.278	21506.57
607.474	21303.82
607.67	21774.86
607.866	21004.82
608.062	21830.15
608.257	21639.69
608.453	21318.16
608.649	21627.4
608.845	21262.86
609.041	21015.06
609.236	20961.81
609.432	21082.64
609.628	20976.15
609.824	20974.1
610.019	20918.81
610.215	20810.26
610.411	20781.59
610.606	20806.17
610.802	21127.7
610.998	20711.96
611.193	20734.49
611.389	20337.18
611.584	20791.83
611.78	20412.96
611.976	20386.33
612.171	20580.89
612.367	20552.22
612.562	20202.02
612.758	20101.67
612.953	19937.83
613.149	20443.68
613.344	19962.4
613.539	20308.51
613.735	20353.57
613.93	20220.45
614.126	20015.65
614.321	20077.09
614.517	20179.49
614.712	20445.73
614.907	20007.46
615.103	20062.76
615.298	19642.92
615.493	20087.33
615.688	19708.46
615.884	19880.49
616.079	19853.86
616.274	19630.63
616.47	19755.56
616.665	19796.52
616.86	19620.39
617.055	19593.77
617.25	19536.43
617.445	19464.75
617.641	19247.66
617.836	19477.04
618.031	19286.58
618.226	19171.89
618.421	19360.3
618.616	19286.58
618.811	18973.24
619.006	19161.65
619.201	18754.1
619.396	18967.09
619.591	18731.58
619.786	18854.45
619.981	18594.36
620.176	18797.11
620.371	18530.87
620.566	18342.46
620.761	18358.85
620.956	18336.32
621.151	18020.93
621.346	18188.86
621.541	18022.98
621.735	18297.41
621.93	17832.52
622.125	17809.99
622.32	17455.69
622.515	17838.66
622.709	17537.61
622.904	17637.96
623.099	17424.97
623.294	17306.19
623.488	17128.02
623.683	17183.31
623.878	16855.64
624.072	17080.91
624.267	16947.79
624.462	16616.02
624.656	16421.47
624.851	16689.75
625.046	16454.23
625.24	16579.16
625.435	16345.69
625.629	16136.8
625.824	16085.6
626.018	16171.61
626.213	15716.97
626.407	15872.61
626.602	15569.51
626.796	15899.23
626.991	15854.18
627.185	15542.89
627.38	15671.91
627.574	15272.56
627.768	15252.08
627.963	15417.96
628.157	14961.27
628.352	15225.45
628.546	14789.24
628.74	15125.1
628.935	14815.86
629.129	15026.8
629.323	14535.29
629.517	14602.87
629.712	14625.4
629.906	14590.58
630.1	14439.03
630.294	14584.44
630.489	14045.82
630.683	14566.01
630.877	14189.18
631.071	13771.4
631.265	13863.55
631.459	13914.75
631.653	13808.26
631.848	13669
632.042	13679.24
632.236	13777.54
632.43	13570.69
632.624	13619.85
632.818	13482.63
633.012	13257.36
633.206	13216.4
633.4	13546.12
633.594	13021.84
633.788	13173.39
633.982	12937.87
634.176	13130.38
634.369	12804.75
634.563	12761.75
634.757	12739.22
634.951	12833.43
635.145	12700.31
635.339	12720.79
635.533	12407.45
635.726	12454.55
635.92	12423.83
636.114	12149.4
636.308	12014.24
636.501	12255.9
636.695	12102.3
636.889	11922.08
637.083	12057.25
637.276	11754.15
637.47	11936.42
637.664	11651.75
637.857	11610.79
638.051	11811.49
638.244	11704.99
638.438	11487.91
638.632	11412.14
638.825	11281.07
639.019	11238.06
639.212	11399.85
639.406	11309.74
639.599	11236.01
639.793	11287.21
639.986	10865.33
640.18	11162.28
640.373	10842.8
640.567	11029.17
640.76	10908.33
640.954	10873.52
641.147	10850.99
641.34	10703.54
641.534	10558.13
641.727	10457.78
641.92	10752.69
642.114	10416.82
642.307	10568.37
642.5	10449.59
642.694	10230.46
642.887	10177.21
643.08	10349.24
643.273	10259.13
643.467	10199.74
643.66	10066.62
643.853	10109.63
644.046	9843.39
644.239	9781.95
644.432	9794.24
644.626	9747.14
644.819	9718.47
645.012	9659.07
645.205	9566.92
645.398	9730.75
645.591	9671.36
645.784	9583.3
645.977	9398.98
646.17	9435.85
646.363	9366.21
646.556	9423.56
646.749	9243.34
646.942	9335.49
647.135	9229
647.328	9056.97
647.521	8948.43
647.714	8731.34
647.907	8940.24
648.099	9194.19
648.292	8944.33
648.485	8737.49
648.678	8739.54
648.871	8925.9
649.064	8788.69
649.256	8688.34
649.449	8686.29
649.642	8475.35
649.835	8372.95
650.027	8354.52
650.22	8164.06
650.413	8399.57
650.605	8141.53
650.798	8491.73
650.991	8172.25
651.183	8280.79
651.376	8096.47
651.568	8090.33
651.761	7992.03
651.954	8014.56
652.146	8022.75
652.339	7858.91
652.531	8137.43
652.724	8063.71
652.916	7850.72
653.109	7672.54
653.301	7811.81
653.494	7881.44
653.686	7516.9
653.879	7721.7
654.071	7660.26
654.263	7443.17
654.456	7684.83
654.648	7506.66
654.84	7633.63
655.033	7342.82
655.225	7355.11
655.417	7389.92
655.61	7330.53
655.802	7271.14
655.994	7256.81
656.186	7168.74
656.379	7316.2
656.571	7080.68
656.763	7068.39
656.955	7017.19
657.148	6943.47
657.34	7248.61
657.532	6796.01
657.724	6943.47
657.916	6851.31
658.108	6855.4
658.3	6861.55
658.492	6748.91
658.684	6705.9
658.876	6728.43
659.068	6623.98
659.26	6712.05
659.452	6613.74
659.644	6689.52
659.836	6509.3
660.028	6466.29
660.22	6460.15
660.412	6359.8
660.604	6318.84
660.796	6413.04
660.988	6304.5
661.18	6234.87
661.372	6367.99
661.563	6390.52
661.755	6128.38
661.947	6433.52
662.139	6105.85
662.331	6105.85
662.522	6116.09
662.714	6060.79
662.906	6066.94
663.097	5995.26
663.289	5919.48
663.481	5901.05
663.673	5929.72
663.864	5763.84
664.056	5649.15
664.247	5833.47
664.439	5802.75
664.631	5929.72
664.822	5913.34
665.014	5733.12
665.205	5606.14
665.397	5763.84
665.588	5772.03
665.78	5626.62
665.971	5503.75
666.163	5620.48
666.354	5534.46
666.546	5468.93
666.737	5454.59
666.929	5468.93
667.12	5479.17
667.311	5479.17
667.503	5387.01
667.694	5268.23
667.885	5311.24
668.077	5368.58
668.268	5303.04
668.459	5241.61
668.651	5253.89
668.842	5225.22
669.033	5061.38
669.224	5090.06
669.416	5077.77
669.607	4975.37
669.798	5135.11
669.989	4877.07
670.18	5225.22
670.371	4905.74
670.563	4958.99
670.754	4899.59
670.945	4961.03
671.136	4930.31
671.327	4954.89
671.518	4844.3
671.709	5004.04
671.9	4780.81
672.091	4881.16
672.282	4807.44
672.473	4690.7
672.664	4619.02
672.855	4682.51
673.046	4715.28
673.237	4635.41
673.428	4713.23
673.619	4801.29
673.809	4668.17
674	4614.93
674.191	4647.69
674.382	4619.02
674.573	4510.48
674.764	4625.17
674.954	4614.93
675.145	4565.78
675.336	4545.3
675.527	4477.71
675.717	4571.92
675.908	4573.97
676.099	4500.24
676.289	4311.83
676.48	4391.7
676.671	4328.21
676.861	4383.51
677.052	4475.67
677.243	4387.6
677.433	4479.76
677.624	4471.57
677.814	4320.02
678.005	4369.17
678.195	4356.88
678.386	4225.81
678.576	4213.53
678.767	4221.72
678.957	4330.26
679.148	4428.56
679.338	4264.72
679.529	4277.01
679.719	4320.02
679.909	4172.57
680.1	4188.95
680.29	4272.92
680.481	4205.33
680.671	4205.33
680.861	4045.59
681.052	4057.88
681.242	4086.55
681.432	4213.53
681.622	4152.09
681.813	4016.92
682.003	4172.57
682.193	4016.92
682.383	4043.54
682.573	3955.48
682.764	4057.88
682.954	4051.74
683.144	3988.25
683.334	4047.64
683.524	4039.45
683.714	4076.31
683.904	4127.51
684.094	4057.88
684.284	3851.03
684.474	3996.44
684.664	3826.46
684.854	3857.18
685.044	3910.43
685.234	3924.76
685.424	3937.05
685.614	3922.71
685.804	3908.38
685.994	3846.94
686.184	3748.64
686.374	3832.6
686.564	3896.09
686.753	3855.13
686.943	3738.4
687.133	3771.16
687.323	3711.77
687.513	3697.44
687.702	3762.97
687.892	3812.12
688.082	3826.46
688.272	3642.14
688.461	3799.84
688.651	3687.2
688.841	3695.39
689.03	3580.7
689.22	3412.77
689.41	3560.22
689.599	3689.25
689.789	3504.93
689.979	3601.18
690.168	3451.68
690.358	3578.65
690.547	3447.58
690.737	3373.86
690.926	3463.97
691.116	3437.34
691.305	3472.16
691.495	3402.53
691.684	3468.06
691.874	3332.9
692.063	3308.32
692.252	3279.65
692.442	3185.44
692.631	3246.88
692.82	3296.04
693.01	3343.14
693.199	3306.27
693.388	3279.65
693.578	3402.53
693.767	3281.7
693.956	3369.76
694.146	3308.32
694.335	3066.66
694.524	3238.69
694.713	3218.21
694.902	3148.58
695.092	3197.73
695.281	3201.83
695.47	3189.54
695.659	3037.99
695.848	3070.76
696.037	3042.09
696.226	3150.63
696.415	3037.99
696.604	3169.06
696.793	3052.33
696.982	3074.85
697.171	3052.33
697.36	2947.88
697.549	2990.89
697.738	2958.12
697.927	2888.49
698.116	2892.59
698.305	3078.95
698.494	2927.4
698.683	2898.73
698.872	3105.57
699.061	3019.56
699.25	2931.5
699.438	2851.63
699.627	2878.25
699.816	2880.3
700.005	2861.87
700.193	3025.7
700.382	2892.59
700.571	2851.63
700.76	2896.68
700.948	2933.54
701.137	2822.95
701.326	2839.34
701.514	2843.43
701.703	3035.94
701.892	2853.67
702.08	2988.84
702.269	2880.3
702.457	2853.67
702.646	2882.35
702.834	2911.02
703.023	2855.72
703.212	2749.23
703.4	2792.23
703.589	2849.58
703.777	2796.33
703.965	2738.99
704.154	2843.43
704.342	2759.47
704.531	2802.47
704.719	2786.09
704.907	2845.48
705.096	2790.19
705.284	2779.95
705.472	2845.48
705.661	2644.78
705.849	2771.76
706.037	2669.36
706.226	2730.8
706.414	2724.65
706.602	2773.8
706.79	2777.9
706.979	2605.87
707.167	2861.87
707.355	2714.41
707.543	2681.64
707.731	2724.65
707.919	2597.68
708.107	2669.36
708.296	2636.59
708.484	2597.68
708.672	2566.96
708.86	2640.69
709.048	2704.17
709.236	2591.53
709.424	2728.75
709.612	2671.4
709.8	2566.96
709.988	2687.79
710.176	2665.26
710.364	2595.63
710.551	2499.38
710.739	2665.26
710.927	2579.25
711.115	2550.57
711.303	2519.85
711.491	2616.11
711.679	2511.66
711.866	2554.67
712.054	2513.71
712.242	2577.2
712.43	2593.58
712.617	2632.49
712.805	2431.79
712.993	2583.34
713.181	2503.47
713.368	2569.01
713.556	2601.77
713.744	2489.14
713.931	2622.25
714.119	2597.68
714.306	2464.56
714.494	2517.81
714.682	2593.58
714.869	2530.09
715.057	2530.09
715.244	2583.34
715.432	2526
715.619	2560.81
715.807	2513.71
715.994	2534.19
716.182	2495.28
716.369	2577.2
716.556	2306.87
716.744	2372.4
716.931	2579.25
717.119	2677.55
717.306	2446.13
717.493	2489.14
717.681	2511.66
717.868	2452.27
718.055	2427.7
718.242	2437.94
718.43	2425.65
718.617	2544.43
718.804	2476.85
718.991	2409.26
719.179	2515.76
719.366	2411.31
719.553	2411.31
719.74	2403.12
719.927	2345.78
720.114	2417.46
720.301	2405.17
720.488	2423.6
720.676	2487.09
720.863	2433.84
721.05	2427.7
721.237	2501.42
721.424	2474.8
721.611	2413.36
721.798	2364.21
721.985	2331.44
722.172	2421.55
722.358	2448.18
722.545	2407.22
722.732	2366.26
722.919	2331.44
723.106	2444.08
723.293	2370.35
723.48	2511.66
723.667	2482.99
723.853	2321.2
724.04	2497.33
724.227	2263.86
724.414	2331.44
724.6	2409.26
724.787	2382.64
724.974	2399.02
725.161	2362.16
725.347	2202.42
725.534	2331.44
725.72	2487.09
725.907	2331.44
726.094	2444.08
726.28	2384.69
726.467	2290.48
726.653	2341.68
726.84	2325.3
727.027	2415.41
727.213	2200.37
727.4	2353.97
727.586	2405.17
727.773	2300.72
727.959	2239.28
728.145	2349.87
728.332	2341.68
728.518	2380.59
728.705	2333.49
728.891	2296.63
729.077	2319.15
729.264	2317.11
729.45	2294.58
729.636	2267.95
729.823	2427.7
730.009	2255.67
730.195	2265.91
730.382	2284.34
730.568	2358.07
730.754	2249.52
730.94	2200.37
731.126	2341.68
731.313	2261.81
731.499	2247.48
731.685	2255.67
731.871	2345.78
732.057	2292.53
732.243	2231.09
732.429	2292.53
732.615	2247.48
732.801	2282.29
732.987	2284.34
733.173	2321.2
733.359	2243.38
733.545	2192.18
733.731	2247.48
733.917	2183.99
734.103	2304.82
734.289	2405.17
734.475	2280.24
734.661	2321.2
734.847	2292.53
735.033	2222.9
735.219	2239.28
735.404	2188.08
735.59	2147.12
735.776	2159.41
735.962	2286.39
736.148	2284.34
736.333	2145.08
736.519	2067.25
736.705	2233.14
736.89	2313.01
737.076	2231.09
737.262	2214.71
737.447	2136.88
737.633	2204.47
737.819	2298.67
738.004	2132.79
738.19	2059.06
738.375	2132.79
738.561	2087.73
738.747	2140.98
738.932	2075.45
739.118	2110.26
739.303	2097.97
739.489	2280.24
739.674	2136.88
739.859	2224.95
740.045	2097.97
740.23	2206.52
740.416	2077.49
740.601	2190.13
740.786	2120.5
740.972	2050.87
741.157	1958.71
741.342	2026.29
741.528	2036.53
741.713	2083.64
741.898	2038.58
742.084	2059.06
742.269	2093.88
742.454	2097.97
742.639	2104.12
742.824	1995.57
743.01	2048.82
743.195	1946.42
743.38	1930.04
743.565	1905.46
743.75	2032.44
743.935	1964.86
744.12	1971
744.305	1927.99
744.49	1938.23
744.675	1766.2
744.86	1895.22
745.045	1882.94
745.23	1868.6
745.415	1854.27
745.6	1839.93
745.785	1825.59
745.97	1782.59
746.155	1825.59
746.34	1907.51
746.525	1753.91
746.71	1796.92
746.895	1706.81
747.079	1741.63
747.264	1776.44
747.449	1831.74
747.634	1747.77
747.819	1829.69
748.003	1796.92
748.188	1710.91
748.373	1780.54
748.557	1647.42
748.742	1729.34
748.927	1723.2
749.111	1690.43
749.296	1686.33
749.481	1665.85
749.665	1610.56
749.85	1622.84
750.034	1651.52
750.219	1600.32
750.404	1567.55
750.588	1698.62
750.773	1559.36
750.957	1583.93
751.141	1452.86
751.326	1569.6
751.51	1497.92
751.695	1594.17
751.879	1555.26
752.064	1528.64
752.248	1499.97
752.432	1504.06
752.617	1434.43
752.801	1446.72
752.985	1409.86
753.17	1471.29
753.354	1436.48
753.538	1485.63
753.722	1383.23
753.907	1424.19
754.091	1436.48
754.275	1422.14
754.459	1436.48
754.643	1323.84
754.828	1495.87
755.012	1403.71
755.196	1364.8
755.38	1436.48
755.564	1289.03
755.748	1346.37
755.932	1291.07
756.116	1348.42
756.3	1313.6
756.484	1282.88
756.668	1297.22
756.852	1223.49
757.036	1266.5
757.22	1215.3
757.404	1264.45
757.588	1231.68
757.772	1186.63
757.956	1215.3
758.14	1205.06
758.323	1127.24
758.507	1207.11
758.691	1135.43
758.875	1086.28
759.059	1174.34
759.242	1100.61
759.426	1166.15
759.61	1028.93
759.794	1133.38
759.977	1153.86
760.161	1153.86
760.345	1102.66
760.528	1203.01
760.712	1035.08
760.895	1149.76
761.079	1018.69
761.263	1061.7
761.446	1035.08
761.63	1076.04
761.813	1071.94
761.997	1153.86
762.18	1059.65
762.364	1002.31
762.547	1020.74
762.731	1010.5
762.914	912.2
763.098	1014.6
763.281	936.78
763.464	965.45
763.648	1033.03
763.831	975.69
764.015	922.44
764.198	1000.26
764.381	955.21
764.564	942.92
764.748	944.97
764.931	944.97
765.114	932.68
765.297	924.49
765.481	936.78
765.664	895.82
765.847	969.54
766.03	940.87
766.213	846.66
766.397	840.52
766.58	938.82
766.763	889.67
766.946	822.09
767.129	912.2
767.312	822.09
767.495	897.86
767.678	908.1
767.861	842.57
768.044	861
768.227	895.82
768.41	752.46
768.593	940.87
768.776	799.56
768.959	944.97
769.142	824.14
769.324	893.77
769.507	807.75
769.69	772.94
769.873	777.03
770.056	887.62
770.239	805.71
770.421	760.65
770.604	850.76
770.787	731.98
770.97	734.03
771.152	752.46
771.335	777.03
771.518	707.4
771.7	789.32
771.883	840.52
772.066	758.6
772.248	783.18
772.431	715.59
772.613	871.24
772.796	678.73
772.978	725.83
773.161	711.5
773.343	656.2
773.526	725.83
773.708	650.06
773.891	682.83
774.073	752.46
774.256	752.46
774.438	705.35
774.621	635.72
774.803	650.06
774.985	760.65
775.168	631.63
775.35	633.68
775.532	752.46
775.715	662.35
775.897	643.92
776.079	711.5
776.261	731.98
776.444	654.16
776.626	641.87
776.808	635.72
776.99	652.11
777.173	658.25
777.355	588.62
777.537	586.57
777.719	580.43
777.901	643.92
778.083	500.56
778.265	564.04
778.447	600.91
778.629	562
778.811	543.57
778.993	588.62
779.175	695.11
779.357	523.09
779.539	486.22
779.721	619.34
779.903	594.76
780.085	568.14
780.267	527.18
780.449	506.7
780.631	531.28
780.812	600.91
780.994	586.57
781.176	570.19
781.358	527.18
781.54	463.69
781.721	551.76
781.903	469.84
782.085	453.45
782.267	484.17
782.448	512.85
782.63	494.41
782.812	500.56
782.993	480.08
783.175	469.84
783.357	420.69
783.538	506.7
783.72	432.97
783.901	461.65
784.083	453.45
784.264	453.45
784.446	473.93
784.627	459.6
784.809	389.97
784.99	432.97
785.172	506.7
785.353	459.6
785.535	414.54
785.716	461.65
785.897	412.5
786.079	478.03
786.26	379.73
786.441	486.22
786.623	424.78
786.804	379.73
786.985	406.35
787.167	461.65
787.348	373.58
787.529	371.54
787.71	443.21
787.891	369.49
788.073	351.06
788.254	381.78
788.435	396.11
788.616	363.34
788.797	316.24
788.978	414.54
789.159	281.43
789.34	349.01
789.522	252.75
789.703	385.87
789.884	338.77
790.065	389.97
790.246	355.15
790.427	412.5
790.607	373.58
790.788	328.53
790.969	322.38
791.15	379.73
791.331	361.3
791.512	306
791.693	332.62
791.874	267.09
792.054	420.69
792.235	297.81
792.416	340.82
792.597	242.51
792.778	308.05
792.958	326.48
793.139	322.38
793.32	381.78
793.5	338.77
793.681	316.24
793.862	308.05
794.042	275.28
794.223	191.31
794.404	224.08
794.584	203.6
794.765	346.96
794.945	310.1
795.126	351.06
795.306	326.48
795.487	176.98
795.667	199.51
795.848	301.9
796.028	275.28
796.209	248.66
796.389	287.57
796.57	207.7
796.75	301.9
796.93	183.12
797.111	277.33
797.291	283.47
797.471	289.62
797.652	195.41
797.832	215.89
798.012	334.67
798.192	191.31
798.373	320.34
798.553	215.89
798.733	269.14
798.913	226.13
799.093	287.57
799.274	281.43
799.454	240.47
799.634	226.13
799.814	209.75
799.994	248.66
800.174	217.94
800.354	236.37
800.534	195.41
800.714	324.43
800.894	158.55
801.074	150.36
801.254	174.93
801.434	306
801.614	213.84
801.794	260.95
801.974	643.92
802.154	258.9
802.334	166.74
802.514	199.51
802.693	152.4
802.873	203.6
803.053	224.08
803.233	197.46
803.413	232.27
803.592	176.98
803.772	201.55
803.952	195.41
804.131	133.97
804.311	275.28
804.491	185.17
804.67	152.4
804.85	267.09
805.03	183.12
805.209	156.5
805.389	207.7
805.568	254.8
805.748	156.5
805.928	84.82
806.107	176.98
806.287	201.55
806.466	170.83
806.646	156.5
806.825	217.94
807.004	119.64
807.184	158.55
807.363	191.31
807.543	189.27
807.722	154.45
807.901	203.6
808.081	217.94
808.26	150.36
808.439	193.36
808.619	150.36
808.798	185.17
808.977	205.65
809.156	215.89
809.336	219.99
809.515	138.07
809.694	189.27
809.873	150.36
810.052	119.64
810.231	168.79
810.411	156.5
810.59	109.4
810.769	168.79
810.948	131.92
811.127	50
811.306	166.74
811.485	152.4
811.664	234.32
811.843	111.44
812.022	150.36
812.201	144.21
812.38	183.12
812.559	117.59
812.737	172.88
812.916	133.97
813.095	166.74
813.274	193.36
813.453	187.22
813.632	142.16
813.811	183.12
813.989	101.2
814.168	62.29
814.347	101.2
814.526	140.12
814.704	136.02
814.883	119.64
815.062	47.96
815.24	148.31
815.419	62.29
815.598	72.53
815.776	119.64
815.955	56.15
816.133	136.02
816.312	129.88
816.49	76.63
816.669	160.59
816.847	142.16
817.026	142.16
817.204	109.4
817.383	111.44
817.561	187.22
817.74	148.31
817.918	68.44
818.097	93.01
818.275	66.39
818.453	86.87
818.632	136.02
818.81	121.68
818.988	88.92
819.167	109.4
819.345	43.86
819.523	189.27
819.701	115.54
819.879	136.02
820.058	103.25
820.236	115.54
820.414	93.01
820.592	127.83
820.77	52.05
820.948	88.92
821.127	52.05
821.305	93.01
821.483	43.86
821.661	121.68
821.839	125.78
822.017	103.25
822.195	68.44
822.373	136.02
822.551	113.49
822.729	43.86
822.907	50
823.085	60.24
823.262	80.72
823.44	68.44
823.618	93.01
823.796	62.29
823.974	72.53
824.152	43.86
824.329	150.36
824.507	76.63
824.685	113.49
824.863	99.16
825.04	105.3
825.218	109.4
825.396	72.53
825.574	121.68
825.751	103.25
825.929	31.57
826.107	27.48
826.284	103.25
826.462	86.87
826.639	78.68
826.817	76.63
826.994	90.96
827.172	86.87
827.349	158.55
827.527	86.87
827.704	56.15
827.882	174.93
828.059	90.96
828.237	90.96
828.414	109.4
828.591	74.58
828.769	35.67
828.946	56.15
829.124	93.01
829.301	113.49
829.478	70.48
829.655	50
829.833	37.72
830.01	19.29
830.187	119.64
830.364	90.96
830.542	84.82
830.719	80.72
830.896	78.68
831.073	109.4
831.25	35.67
831.427	76.63
831.604	109.4
831.782	39.76
831.959	93.01
832.136	-13.48
832.313	52.05
832.49	68.44
832.667	82.77
832.844	93.01
833.021	52.05
833.198	27.48
833.374	70.48
833.551	47.96
833.728	119.64
833.905	138.07
834.082	23.38
834.259	7
834.436	90.96
834.612	37.72
834.789	93.01
834.966	70.48
835.143	99.16
835.319	21.33
835.496	84.82
835.673	-3.24
835.85	103.25
836.026	52.05
836.203	60.24
836.38	56.15
836.556	35.67
836.733	35.67
836.909	152.4
837.086	66.39
837.262	19.29
837.439	15.19
837.616	33.62
837.792	35.67
837.968	41.81
838.145	50
838.321	-56.49
838.498	62.29
838.674	86.87
838.851	74.58
839.027	43.86
839.203	86.87
839.38	2.9
839.556	-5.29
839.732	76.63
839.909	105.3
840.085	58.2
840.261	-13.48
840.437	25.43
840.614	-5.29
840.79	70.48
840.966	52.05
841.142	15.19
841.318	11.09
841.494	45.91
841.671	109.4
841.847	27.48
842.023	52.05
842.199	146.26
842.375	47.96
842.551	35.67
842.727	25.43
842.903	158.55
843.079	117.59
843.255	93.01
843.431	-36.01
843.607	-9.39
843.783	-21.67
843.959	15.19
844.134	70.48
844.31	54.1
844.486	56.15
844.662	39.76
844.838	15.19
845.013	68.44
845.189	62.29
845.365	60.24
845.541	93.01
845.716	101.2
845.892	45.91
846.068	64.34
846.244	-3.24
846.419	93.01
846.595	11.09
846.77	-38.06
846.946	103.25
847.122	35.67
847.297	21.33
847.473	27.48
847.648	68.44
847.824	-9.39
847.999	-13.48
848.175	7
848.35	52.05
848.526	95.06
848.701	84.82
848.876	50
849.052	107.35
849.227	54.1
849.403	19.29
849.578	97.11
849.753	43.86
849.929	60.24
850.104	-15.53
850.279	11.09
850.454	52.05
850.63	43.86
850.805	29.52
850.98	35.67
851.155	82.77
851.33	68.44
851.505	-23.72
851.681	54.1
851.856	52.05
852.031	105.3
852.206	41.81
852.381	-19.63
852.556	-19.63
852.731	2.9
852.906	37.72
853.081	-11.43
853.256	19.29
853.431	68.44
853.606	-13.48
853.781	101.2
853.956	0.85
854.131	68.44
854.305	78.68
854.48	43.86
854.655	31.57
854.83	43.86
855.005	29.52
855.18	-21.67
855.354	2.9
855.529	-46.25
855.704	23.38
855.879	35.67
856.053	88.92
856.228	-27.82
856.403	15.19
856.577	74.58
856.752	-5.29
856.926	-42.15
857.101	31.57
857.276	52.05
857.45	-42.15
857.625	52.05
857.799	19.29
857.974	2.9
858.148	-1.19
858.323	140.12
858.497	74.58
858.672	62.29
858.846	-27.82
859.02	45.91
859.195	0.85
859.369	19.29
859.543	68.44
859.718	-54.44
859.892	-23.72
860.066	52.05
860.241	23.38
860.415	29.52
860.589	-11.43
860.763	31.57
860.938	56.15
861.112	60.24
861.286	27.48
861.46	9.05
861.634	-29.87
861.808	45.91
861.982	-17.58
862.157	7
862.331	43.86
862.505	-85.16
862.679	-76.97
862.853	19.29
863.027	23.38
863.201	31.57
863.375	-23.72
863.549	-19.63
863.722	31.57
863.896	39.76
864.07	-36.01
864.244	62.29
864.418	76.63
864.592	29.52
864.766	4.95
864.939	56.15
865.113	-11.43
865.287	25.43
865.461	-3.24
865.634	88.92
865.808	-7.34
865.982	56.15
866.156	-17.58
866.329	21.33
866.503	15.19
866.676	-33.96
866.85	-5.29
867.024	31.57
867.197	11.09
867.371	19.29
867.544	-17.58
867.718	60.24
867.891	84.82
868.065	7
868.238	-17.58
868.412	-60.59
868.585	-5.29
868.759	43.86
868.932	-9.39
869.105	-31.91
869.279	43.86
869.452	-3.24
869.625	19.29
869.799	19.29
869.972	54.1
870.145	-19.63
870.319	47.96
870.492	-29.87
870.665	13.14
870.838	15.19
871.011	54.1
871.185	-5.29
871.358	2.9
871.531	78.68
871.704	7
871.877	-29.87
872.05	-15.53
872.223	-19.63
872.396	39.76
872.569	19.29
872.742	56.15
872.915	-5.29
873.088	-27.82
873.261	52.05
873.434	60.24
873.607	-21.67
873.78	-9.39
873.953	-13.48
874.126	-1.19
874.299	47.96
874.471	-5.29
874.644	19.29
874.817	60.24
874.99	97.11
875.163	39.76
875.335	50
875.508	-40.11
875.681	56.15
875.853	-15.53
876.026	-13.48
876.199	-15.53
876.371	-66.73
876.544	45.91
876.717	-25.77
876.889	31.57
877.062	-1.19
877.234	-21.67
877.407	-17.58
877.579	45.91
877.752	60.24
877.924	-9.39
878.097	23.38
878.269	-9.39
878.442	-13.48
878.614	19.29
878.786	-52.39
878.959	27.48
879.131	54.1
879.303	-50.35
879.476	37.72
879.648	33.62
879.82	45.91
879.993	4.95
880.165	27.48
880.337	43.86
880.509	-76.97
880.681	-17.58
880.854	-50.35
881.026	27.48
881.198	88.92
881.37	-13.48
881.542	-11.43
881.714	15.19
881.886	19.29
882.058	-1.19
882.23	-68.78
882.402	4.95
882.574	27.48
882.746	-19.63
882.918	-27.82
883.09	2.9
883.262	-38.06
883.434	-1.19
883.606	2.9
883.778	13.14
883.95	2.9
884.122	-60.59
884.293	74.58
884.465	-46.25
884.637	-11.43
884.809	-52.39
884.98	43.86
885.152	21.33
885.324	76.63
885.496	2.9
885.667	17.24
885.839	37.72
886.011	13.14
886.182	-17.58
886.354	-38.06
886.525	-52.39
886.697	-5.29
886.869	9.05
887.04	21.33
887.212	-23.72
887.383	62.29
887.555	41.81
887.726	41.81
887.897	-5.29
888.069	-21.67
888.24	-29.87
888.412	19.29
888.583	2.9
888.754	-19.63
888.926	9.05
889.097	-1.19
889.268	-17.58
889.44	101.2
889.611	11.09
889.782	-3.24
889.953	-13.48
890.125	27.48
890.296	-54.44
890.467	-17.58
890.638	-29.87
890.809	13.14
890.98	-5.29
891.151	39.76
891.323	-29.87
891.494	-25.77
891.665	-13.48
891.836	-60.59
892.007	2.9
892.178	35.67
892.349	84.82
892.52	-76.97
892.691	4.95
892.862	-15.53
893.032	-79.02
893.203	11.09
893.374	-76.97
893.545	7
893.716	-54.44
893.887	103.25
894.057	-5.29
894.228	0.85
894.399	-42.15
894.57	-3.24
894.74	27.48
894.911	33.62
895.082	-93.35
895.253	35.67
895.423	-21.67
895.594	47.96
895.764	11.09
895.935	-79.02
896.106	-19.63
896.276	37.72
896.447	-38.06
896.617	7
896.788	-5.29
896.958	-29.87
897.129	-33.96
897.299	11.09
897.47	-13.48
897.64	33.62
897.81	13.14
897.981	19.29
898.151	7
898.322	62.29
898.492	11.09
898.662	7
898.832	-3.24
899.003	-1.19
899.173	-3.24
899.343	-11.43
899.513	-27.82
