Data from USB4F104151__133__14-19-07-016.txt Node

Date: Thu Mar 13 14:19:07 EDT 2025
User: louis
Spectrometer: USB4F10415
Trigger mode: 4
Integration Time (sec): 2.000000E-2
Scans to average: 1
Electric dark correction enabled: true
Nonlinearity correction enabled: false
Boxcar width: 0
XAxis mode: Wavelengths
Number of Pixels in Spectrum: 3648
>>>>>Begin Spectral Data<<<<<
178.204	-100.86
178.424	-100.86
178.644	-100.86
178.864	-88.57
179.084	-82.43
179.304	-98.81
179.524	32.26
179.744	15.87
179.964	67.07
180.184	19.97
180.404	-64
180.624	32.26
180.844	-12.8
181.064	17.92
181.283	-6.66
181.503	36.35
181.723	-39.42
181.943	7.68
182.163	69.12
182.383	17.92
182.602	75.26
182.822	42.5
183.042	9.73
183.262	24.06
183.482	36.35
183.701	69.12
183.921	69.12
184.141	73.21
184.361	62.98
184.58	40.45
184.8	11.78
185.02	-12.8
185.239	60.93
185.459	60.93
185.679	26.11
185.898	17.92
186.118	24.06
186.338	48.64
186.557	46.59
186.777	28.16
186.997	-41.47
187.216	-12.8
187.436	93.69
187.655	22.02
187.875	85.5
188.095	52.74
188.314	32.26
188.534	75.26
188.753	50.69
188.973	30.21
189.192	69.12
189.412	32.26
189.631	42.5
189.851	36.35
190.07	44.54
190.29	75.26
190.509	15.87
190.729	-10.75
190.948	60.93
191.168	73.21
191.387	77.31
191.607	-74.24
191.826	-23.04
192.045	-6.66
192.265	36.35
192.484	48.64
192.704	-16.9
192.923	-6.66
193.142	97.79
193.362	17.92
193.581	58.88
193.8	73.21
194.02	42.5
194.239	-0.51
194.458	65.02
194.678	83.45
194.897	50.69
195.116	50.69
195.335	97.79
195.555	19.97
195.774	15.87
195.993	52.74
196.212	56.83
196.432	11.78
196.651	7.68
196.87	13.82
197.089	26.11
197.308	52.74
197.528	52.74
197.747	114.17
197.966	24.06
198.185	77.31
198.404	60.93
198.623	48.64
198.842	26.11
199.062	32.26
199.281	114.17
199.5	15.87
199.719	13.82
199.938	77.31
200.157	46.59
200.376	1.54
200.595	42.5
200.814	32.26
201.033	26.11
201.252	40.45
201.471	-16.9
201.69	50.69
201.909	-0.51
202.128	30.21
202.347	48.64
202.566	15.87
202.785	40.45
203.004	52.74
203.223	118.27
203.442	118.27
203.661	32.26
203.879	17.92
204.098	24.06
204.317	-25.09
204.536	5.63
204.755	60.93
204.974	114.17
205.193	3.58
205.411	122.37
205.63	34.3
205.849	75.26
206.068	62.98
206.287	34.3
206.505	24.06
206.724	103.93
206.943	3.58
207.162	26.11
207.381	32.26
207.599	-41.47
207.818	50.69
208.037	50.69
208.255	-16.9
208.474	58.88
208.693	-2.56
208.911	30.21
209.13	56.83
209.349	24.06
209.567	-35.33
209.786	42.5
210.005	19.97
210.223	48.64
210.442	-25.09
210.661	42.5
210.879	50.69
211.098	7.68
211.316	54.78
211.535	108.03
211.753	32.26
211.972	15.87
212.191	-25.09
212.409	17.92
212.628	65.02
212.846	32.26
213.065	112.13
213.283	26.11
213.502	24.06
213.72	7.68
213.938	15.87
214.157	28.16
214.375	3.58
214.594	24.06
214.812	79.36
215.031	28.16
215.249	28.16
215.467	60.93
215.686	77.31
215.904	54.78
216.122	7.68
216.341	3.58
216.559	73.21
216.778	112.13
216.996	42.5
217.214	24.06
217.432	-8.7
217.651	50.69
217.869	73.21
218.087	81.41
218.306	15.87
218.524	48.64
218.742	110.08
218.96	65.02
219.179	60.93
219.397	-53.76
219.615	124.41
219.833	44.54
220.051	48.64
220.27	48.64
220.488	69.12
220.706	73.21
220.924	-0.51
221.142	32.26
221.36	97.79
221.578	3.58
221.796	48.64
222.015	116.22
222.233	62.98
222.451	34.3
222.669	77.31
222.887	-33.28
223.105	93.69
223.323	24.06
223.541	-16.9
223.759	1.54
223.977	-14.85
224.195	112.13
224.413	89.6
224.631	3.58
224.849	26.11
225.067	89.6
225.285	42.5
225.503	-8.7
225.721	15.87
225.939	-8.7
226.157	5.63
226.375	108.03
226.592	-74.24
226.81	-31.23
227.028	58.88
227.246	155.13
227.464	34.3
227.682	75.26
227.9	75.26
228.117	-23.04
228.335	-8.7
228.553	30.21
228.771	48.64
228.989	83.45
229.206	114.17
229.424	79.36
229.642	38.4
229.86	30.21
230.077	-33.28
230.295	101.89
230.513	32.26
230.731	81.41
230.948	48.64
231.166	60.93
231.384	11.78
231.601	-4.61
231.819	85.5
232.037	17.92
232.254	48.64
232.472	24.06
232.689	-0.51
232.907	44.54
233.125	7.68
233.342	-0.51
233.56	11.78
233.777	15.87
233.995	50.69
234.213	77.31
234.43	97.79
234.648	11.78
234.865	13.82
235.083	136.7
235.3	56.83
235.518	58.88
235.735	48.64
235.953	-8.7
236.17	32.26
236.388	17.92
236.605	60.93
236.822	91.65
237.04	32.26
237.257	1.54
237.475	-27.14
237.692	-0.51
237.909	-31.23
238.127	-64
238.344	-61.95
238.562	50.69
238.779	24.06
238.996	3.58
239.214	28.16
239.431	75.26
239.648	1.54
239.865	7.68
240.083	17.92
240.3	3.58
240.517	67.07
240.735	40.45
240.952	75.26
241.169	65.02
241.386	32.26
241.603	40.45
241.821	75.26
242.038	81.41
242.255	67.07
242.472	42.5
242.689	50.69
242.907	42.5
243.124	-6.66
243.341	38.4
243.558	19.97
243.775	65.02
243.992	-6.66
244.209	81.41
244.426	32.26
244.643	81.41
244.86	28.16
245.078	-74.24
245.295	81.41
245.512	50.69
245.729	1.54
245.946	24.06
246.163	7.68
246.38	9.73
246.597	-25.09
246.814	85.5
247.031	44.54
247.248	3.58
247.464	73.21
247.681	26.11
247.898	19.97
248.115	60.93
248.332	-8.7
248.549	36.35
248.766	89.6
248.983	58.88
249.2	81.41
249.417	-8.7
249.633	-16.9
249.85	26.11
250.067	-35.33
250.284	17.92
250.501	32.26
250.717	58.88
250.934	24.06
251.151	65.02
251.368	67.07
251.585	40.45
251.801	7.68
252.018	-33.28
252.235	13.82
252.451	-6.66
252.668	5.63
252.885	81.41
253.102	60.93
253.318	-6.66
253.535	36.35
253.752	65.02
253.968	-39.42
254.185	28.16
254.401	-0.51
254.618	34.3
254.835	67.07
255.051	24.06
255.268	50.69
255.484	24.06
255.701	56.83
255.917	65.02
256.134	44.54
256.351	81.41
256.567	-27.14
256.784	-31.23
257	7.68
257.217	108.03
257.433	48.64
257.65	42.5
257.866	48.64
258.082	-47.62
258.299	67.07
258.515	110.08
258.732	7.68
258.948	34.3
259.165	42.5
259.381	1.54
259.597	24.06
259.814	22.02
260.03	91.65
260.246	105.98
260.463	97.79
260.679	89.6
260.895	-14.85
261.112	58.88
261.328	-18.94
261.544	-6.66
261.761	24.06
261.977	-4.61
262.193	-4.61
262.409	24.06
262.626	50.69
262.842	-23.04
263.058	44.54
263.274	95.74
263.49	48.64
263.707	81.41
263.923	-8.7
264.139	36.35
264.355	73.21
264.571	97.79
264.787	62.98
265.004	62.98
265.22	3.58
265.436	83.45
265.652	-14.85
265.868	85.5
266.084	50.69
266.3	36.35
266.516	-16.9
266.732	-16.9
266.948	13.82
267.164	-10.75
267.38	103.93
267.596	15.87
267.812	44.54
268.028	65.02
268.244	7.68
268.46	58.88
268.676	30.21
268.892	81.41
269.108	67.07
269.324	71.17
269.54	-41.47
269.756	91.65
269.972	-6.66
270.188	60.93
270.403	36.35
270.619	120.32
270.835	83.45
271.051	-4.61
271.267	24.06
271.483	17.92
271.698	40.45
271.914	-8.7
272.13	32.26
272.346	122.37
272.562	50.69
272.777	38.4
272.993	-4.61
273.209	110.08
273.425	15.87
273.64	24.06
273.856	120.32
274.072	50.69
274.287	28.16
274.503	28.16
274.719	30.21
274.934	60.93
275.15	9.73
275.366	65.02
275.581	42.5
275.797	-41.47
276.012	40.45
276.228	3.58
276.444	38.4
276.659	48.64
276.875	40.45
277.09	-25.09
277.306	15.87
277.521	79.36
277.737	46.59
277.952	-12.8
278.168	60.93
278.383	46.59
278.599	44.54
278.814	1.54
279.03	-8.7
279.245	36.35
279.461	77.31
279.676	24.06
279.892	3.58
280.107	48.64
280.322	17.92
280.538	89.6
280.753	9.73
280.969	48.64
281.184	26.11
281.399	52.74
281.615	40.45
281.83	69.12
282.045	-25.09
282.26	50.69
282.476	34.3
282.691	95.74
282.906	93.69
283.122	24.06
283.337	75.26
283.552	91.65
283.767	-39.42
283.983	83.45
284.198	50.69
284.413	-4.61
284.628	1.54
284.843	28.16
285.058	85.5
285.274	36.35
285.489	-8.7
285.704	7.68
285.919	-20.99
286.134	67.07
286.349	44.54
286.564	-23.04
286.779	3.58
286.995	19.97
287.21	-80.38
287.425	22.02
287.64	3.58
287.855	48.64
288.07	-23.04
288.285	103.93
288.5	81.41
288.715	99.84
288.93	17.92
289.145	-39.42
289.36	56.83
289.575	7.68
289.79	71.17
290.004	-39.42
290.219	65.02
290.434	50.69
290.649	36.35
290.864	19.97
291.079	52.74
291.294	108.03
291.509	52.74
291.724	48.64
291.938	26.11
292.153	56.83
292.368	56.83
292.583	26.11
292.798	110.08
293.012	42.5
293.227	-90.62
293.442	40.45
293.657	65.02
293.871	32.26
294.086	26.11
294.301	56.83
294.516	32.26
294.73	22.02
294.945	58.88
295.16	7.68
295.374	48.64
295.589	67.07
295.804	-2.56
296.018	7.68
296.233	83.45
296.447	138.75
296.662	3.58
296.877	52.74
297.091	9.73
297.306	5.63
297.52	44.54
297.735	-8.7
297.949	-6.66
298.164	34.3
298.378	-0.51
298.593	56.83
298.807	-2.56
299.022	52.74
299.236	56.83
299.451	32.26
299.665	-41.47
299.88	30.21
300.094	81.41
300.309	93.69
300.523	38.4
300.737	56.83
300.952	44.54
301.166	56.83
301.381	83.45
301.595	56.83
301.809	48.64
302.024	3.58
302.238	40.45
302.452	40.45
302.667	69.12
302.881	81.41
303.095	114.17
303.309	9.73
303.524	34.3
303.738	48.64
303.952	38.4
304.166	40.45
304.381	11.78
304.595	122.37
304.809	32.26
305.023	73.21
305.237	-25.09
305.452	65.02
305.666	58.88
305.88	48.64
306.094	1.54
306.308	58.88
306.522	118.27
306.736	34.3
306.95	79.36
307.164	69.12
307.379	116.22
307.593	83.45
307.807	85.5
308.021	69.12
308.235	15.87
308.449	42.5
308.663	22.02
308.877	81.41
309.091	-16.9
309.305	42.5
309.519	-16.9
309.733	44.54
309.947	-61.95
310.161	36.35
310.374	124.41
310.588	75.26
310.802	7.68
311.016	99.84
311.23	24.06
311.444	-6.66
311.658	24.06
311.872	83.45
312.085	116.22
312.299	77.31
312.513	56.83
312.727	-23.04
312.941	71.17
313.154	62.98
313.368	71.17
313.582	19.97
313.796	65.02
314.009	40.45
314.223	71.17
314.437	36.35
314.651	44.54
314.864	40.45
315.078	24.06
315.292	22.02
315.505	46.59
315.719	97.79
315.933	73.21
316.146	24.06
316.36	60.93
316.573	73.21
316.787	42.5
317.001	-6.66
317.214	69.12
317.428	48.64
317.641	-18.94
317.855	83.45
318.068	22.02
318.282	19.97
318.495	89.6
318.709	-8.7
318.922	118.27
319.136	118.27
319.349	97.79
319.563	-16.9
319.776	132.61
319.99	-23.04
320.203	83.45
320.417	105.98
320.63	3.58
320.843	122.37
321.057	28.16
321.27	34.3
321.483	56.83
321.697	-2.56
321.91	34.3
322.124	15.87
322.337	30.21
322.55	75.26
322.763	81.41
322.977	108.03
323.19	17.92
323.403	32.26
323.617	48.64
323.83	34.3
324.043	67.07
324.256	99.84
324.469	67.07
324.683	36.35
324.896	52.74
325.109	40.45
325.322	54.78
325.535	58.88
325.748	95.74
325.962	-29.18
326.175	1.54
326.388	65.02
326.601	17.92
326.814	-74.24
327.027	-2.56
327.24	32.26
327.453	40.45
327.666	83.45
327.879	95.74
328.092	19.97
328.305	81.41
328.518	50.69
328.731	-6.66
328.944	46.59
329.157	85.5
329.37	132.61
329.583	44.54
329.796	-47.62
330.009	58.88
330.222	1.54
330.435	83.45
330.648	22.02
330.861	-10.75
331.073	32.26
331.286	67.07
331.499	75.26
331.712	75.26
331.925	138.75
332.138	89.6
332.35	77.31
332.563	91.65
332.776	60.93
332.989	17.92
333.202	81.41
333.414	15.87
333.627	11.78
333.84	56.83
334.053	48.64
334.265	-4.61
334.478	105.98
334.691	17.92
334.903	19.97
335.116	9.73
335.329	15.87
335.541	26.11
335.754	132.61
335.966	3.58
336.179	89.6
336.392	28.16
336.604	40.45
336.817	105.98
337.029	-27.14
337.242	7.68
337.454	42.5
337.667	77.31
337.88	91.65
338.092	99.84
338.305	7.68
338.517	73.21
338.729	48.64
338.942	77.31
339.154	46.59
339.367	48.64
339.579	97.79
339.792	32.26
340.004	40.45
340.217	9.73
340.429	62.98
340.641	44.54
340.854	24.06
341.066	19.97
341.278	-0.51
341.491	73.21
341.703	77.31
341.915	67.07
342.128	77.31
342.34	54.78
342.552	50.69
342.764	77.31
342.977	73.21
343.189	40.45
343.401	15.87
343.613	9.73
343.826	22.02
344.038	11.78
344.25	65.02
344.462	26.11
344.674	99.84
344.886	9.73
345.099	42.5
345.311	65.02
345.523	48.64
345.735	17.92
345.947	34.3
346.159	-23.04
346.371	116.22
346.583	140.8
346.795	114.17
347.007	-14.85
347.219	110.08
347.431	26.11
347.643	105.98
347.855	5.63
348.067	81.41
348.279	9.73
348.491	24.06
348.703	124.41
348.915	44.54
349.127	93.69
349.339	32.26
349.551	34.3
349.763	40.45
349.975	97.79
350.187	32.26
350.399	85.5
350.61	58.88
350.822	-49.66
351.034	146.94
351.246	48.64
351.458	-0.51
351.669	9.73
351.881	3.58
352.093	81.41
352.305	-45.57
352.517	-45.57
352.728	118.27
352.94	-6.66
353.152	142.85
353.363	44.54
353.575	30.21
353.787	83.45
353.999	36.35
354.21	105.98
354.422	77.31
354.633	-74.24
354.845	40.45
355.057	44.54
355.268	28.16
355.48	46.59
355.692	48.64
355.903	19.97
356.115	56.83
356.326	99.84
356.538	65.02
356.749	-29.18
356.961	77.31
357.172	-0.51
357.384	44.54
357.595	65.02
357.807	7.68
358.018	75.26
358.23	87.55
358.441	138.75
358.653	73.21
358.864	26.11
359.075	7.68
359.287	91.65
359.498	116.22
359.709	56.83
359.921	38.4
360.132	40.45
360.344	56.83
360.555	60.93
360.766	101.89
360.977	48.64
361.189	42.5
361.4	15.87
361.611	101.89
361.823	126.46
362.034	56.83
362.245	101.89
362.456	40.45
362.667	56.83
362.879	9.73
363.09	24.06
363.301	134.65
363.512	42.5
363.723	28.16
363.935	67.07
364.146	73.21
364.357	83.45
364.568	126.46
364.779	38.4
364.99	204.28
365.201	15.87
365.412	48.64
365.623	48.64
365.834	42.5
366.045	71.17
366.256	112.13
366.467	126.46
366.678	85.5
366.889	52.74
367.1	58.88
367.311	97.79
367.522	60.93
367.733	89.6
367.944	75.26
368.155	69.12
368.366	48.64
368.577	138.75
368.788	97.79
368.999	24.06
369.209	60.93
369.42	99.84
369.631	81.41
369.842	-35.33
370.053	32.26
370.264	120.32
370.474	42.5
370.685	65.02
370.896	97.79
371.107	153.09
371.317	42.5
371.528	81.41
371.739	75.26
371.95	73.21
372.16	75.26
372.371	24.06
372.582	-4.61
372.792	75.26
373.003	97.79
373.214	95.74
373.424	48.64
373.635	89.6
373.846	97.79
374.056	9.73
374.267	73.21
374.477	130.56
374.688	89.6
374.898	11.78
375.109	-70.14
375.319	-4.61
375.53	77.31
375.74	-66.05
375.951	75.26
376.161	42.5
376.372	85.5
376.582	58.88
376.793	95.74
377.003	15.87
377.214	124.41
377.424	42.5
377.635	-14.85
377.845	32.26
378.055	112.13
378.266	73.21
378.476	146.94
378.686	73.21
378.897	50.69
379.107	77.31
379.317	9.73
379.528	60.93
379.738	99.84
379.948	7.68
380.158	71.17
380.369	11.78
380.579	124.41
380.789	17.92
380.999	99.84
381.21	83.45
381.42	44.54
381.63	24.06
381.84	97.79
382.05	75.26
382.261	97.79
382.471	69.12
382.681	7.68
382.891	91.65
383.101	36.35
383.311	56.83
383.521	34.3
383.731	34.3
383.941	118.27
384.151	101.89
384.361	40.45
384.571	52.74
384.781	126.46
384.991	138.75
385.201	28.16
385.411	81.41
385.621	108.03
385.831	-31.23
386.041	138.75
386.251	56.83
386.461	91.65
386.671	65.02
386.881	42.5
387.091	1.54
387.301	38.4
387.511	99.84
387.72	60.93
387.93	48.64
388.14	52.74
388.35	11.78
388.56	50.69
388.769	91.65
388.979	-18.94
389.189	77.31
389.399	15.87
389.609	110.08
389.818	148.99
390.028	42.5
390.238	40.45
390.447	58.88
390.657	134.65
390.867	42.5
391.076	32.26
391.286	56.83
391.496	101.89
391.705	42.5
391.915	79.36
392.125	34.3
392.334	81.41
392.544	89.6
392.753	136.7
392.963	60.93
393.172	60.93
393.382	24.06
393.591	101.89
393.801	116.22
394.01	153.09
394.22	101.89
394.429	56.83
394.639	17.92
394.848	155.13
395.058	77.31
395.267	32.26
395.477	69.12
395.686	9.73
395.895	89.6
396.105	165.37
396.314	99.84
396.524	52.74
396.733	50.69
396.942	65.02
397.152	62.98
397.361	52.74
397.57	15.87
397.78	114.17
397.989	108.03
398.198	181.76
398.407	105.98
398.617	93.69
398.826	93.69
399.035	138.75
399.244	87.55
399.453	130.56
399.663	112.13
399.872	46.59
400.081	83.45
400.29	114.17
400.499	140.8
400.708	89.6
400.917	62.98
401.127	155.13
401.336	24.06
401.545	146.94
401.754	89.6
401.963	134.65
402.172	124.41
402.381	132.61
402.59	140.8
402.799	157.18
403.008	89.6
403.217	130.56
403.426	189.95
403.635	130.56
403.844	163.33
404.053	171.52
404.262	60.93
404.471	73.21
404.68	163.33
404.888	110.08
405.097	56.83
405.306	187.9
405.515	140.8
405.724	91.65
405.933	155.13
406.142	198.14
406.35	224.76
406.559	155.13
406.768	239.1
406.977	157.18
407.185	185.85
407.394	208.38
407.603	122.37
407.812	222.72
408.02	259.58
408.229	212.48
408.438	196.09
408.646	196.09
408.855	282.11
409.064	224.76
409.272	259.58
409.481	318.97
409.69	257.53
409.898	314.88
410.107	290.3
410.315	376.31
410.524	253.44
410.733	386.55
410.941	288.25
411.15	345.59
411.358	294.4
411.567	425.47
411.775	372.22
411.984	392.7
412.192	452.09
412.401	417.27
412.609	443.9
412.818	439.8
413.026	409.08
413.234	568.82
413.443	542.2
413.651	503.29
413.86	529.91
414.068	583.16
414.276	583.16
414.485	583.16
414.693	599.54
414.901	650.74
415.11	720.37
415.318	716.28
415.526	689.65
415.734	658.93
415.943	679.41
416.151	730.61
416.359	806.39
416.567	790
416.776	814.58
416.984	878.07
417.192	955.89
417.4	826.87
417.608	871.92
417.817	947.7
418.025	1052.14
418.233	1101.3
418.441	998.9
418.649	1127.92
418.857	1134.06
419.065	1172.97
419.273	1146.35
419.481	1234.41
419.689	1308.14
419.897	1381.87
420.105	1322.48
420.313	1408.49
420.521	1469.93
420.729	1465.83
420.937	1598.95
421.145	1582.57
421.353	1695.21
421.561	1805.8
421.769	1838.56
421.977	1877.48
422.185	1932.77
422.393	1981.92
422.601	2080.22
422.809	2043.36
423.017	2139.62
423.224	2235.87
423.432	2295.26
423.64	2366.94
423.848	2420.19
424.056	2436.57
424.263	2581.98
424.471	2526.68
424.679	2651.61
424.887	2711
425.094	2962.9
425.302	2840.02
425.51	2944.47
425.718	3206.61
425.925	3139.02
426.133	3243.47
426.341	3403.21
426.548	3474.89
426.756	3464.65
426.964	3767.75
427.171	3685.83
427.379	4046.27
427.586	3874.24
427.794	4103.62
428.001	4079.04
428.209	4392.38
428.417	4349.37
428.624	4709.82
428.832	4695.48
429.039	4648.38
429.247	4701.62
429.454	4824.5
429.662	5375.41
429.869	5064.11
430.076	5502.38
430.284	5066.16
430.491	5434.8
430.699	5924.26
430.906	5666.22
431.114	5938.6
431.321	6153.63
431.528	6188.45
431.736	6534.56
431.943	6972.82
432.15	6684.06
432.358	6888.85
432.565	7130.52
432.772	7171.47
432.979	7323.02
433.187	7581.07
433.394	7701.9
433.601	8019.33
433.808	8265.09
434.016	8338.82
434.223	8623.48
434.43	8938.87
434.637	8760.7
434.844	9416.05
435.052	9493.87
435.259	9518.45
435.466	9545.07
435.673	9495.92
435.88	10128.74
436.087	10788.19
436.294	10577.25
436.501	10345.83
436.708	10689.88
436.915	11021.66
437.122	11541.84
437.329	11443.54
437.537	11732.3
437.743	11851.08
437.95	11840.84
438.157	12397.89
438.364	12862.78
438.571	12864.83
438.778	12801.34
438.985	14345.51
439.192	13665.58
439.399	14269.73
439.606	13583.66
439.813	14566.69
440.02	15146.26
440.227	14943.52
440.433	14748.96
440.64	15418.64
440.847	15351.06
441.054	15619.35
441.261	16833.79
441.467	16471.3
441.674	16715.01
441.881	17374.45
442.088	17263.86
442.294	16977.15
442.501	17808.62
442.708	18097.39
442.914	18547.94
443.121	19512.53
443.328	18978.01
443.534	20380.87
443.741	19676.37
443.948	19274.97
444.154	20559.05
444.361	20440.26
444.568	20661.44
444.774	21081.28
444.981	21107.9
445.187	21916.85
445.394	22363.31
445.6	22125.74
445.807	24523.91
446.013	23096.48
446.22	23712.92
446.426	24679.56
446.633	24835.21
446.839	25896.05
447.046	24470.67
447.252	26438.76
447.459	25955.44
447.665	26049.65
447.871	27288.67
448.078	28413.01
448.284	27100.26
448.491	27524.19
448.697	28777.54
448.903	29467.71
449.11	29719.61
449.316	28865.61
449.522	29398.08
449.728	30084.15
449.935	30524.46
450.141	30667.82
450.347	31153.19
450.553	30368.82
450.76	30520.37
450.966	31599.65
451.172	31540.25
451.378	32080.92
451.584	31122.47
451.791	31888.41
451.997	32304.15
452.203	32648.21
452.409	32984.07
452.615	32218.13
452.821	31556.64
453.027	31061.03
453.233	32314.39
453.44	31362.08
453.646	31661.08
453.852	31872.03
454.058	32513.04
454.264	31507.49
454.47	32236.56
454.676	31470.62
454.882	32537.62
455.088	29758.52
455.294	29936.7
455.5	30561.33
455.705	30987.3
455.911	29697.08
456.117	29129.8
456.323	28564.56
456.529	27634.78
456.735	28554.32
456.941	27681.88
457.147	27497.56
457.352	26385.52
457.558	25967.73
457.764	26246.26
457.97	25631.86
458.176	25033.86
458.381	25246.85
458.587	24140.94
458.793	24159.38
458.999	22787.24
459.204	24474.76
459.41	23856.28
459.616	22211.76
459.821	21961.9
460.027	22222
460.233	21802.16
460.438	20696.26
460.644	20921.54
460.85	19963.09
461.055	19608.79
461.261	19713.24
461.466	17845.49
461.672	17755.38
461.878	18830.56
462.083	17560.82
462.289	17153.27
462.494	17241.34
462.7	16491.78
462.905	15842.57
463.111	16444.68
463.316	16467.2
463.522	16112.91
463.727	16100.62
463.932	15971.6
464.138	15772.94
464.343	16080.14
464.549	15652.11
464.754	16170.25
464.959	15826.19
465.165	15713.55
465.37	15101.21
465.575	14605.6
465.781	15228.18
465.986	15179.03
466.191	14853.41
466.397	14572.83
466.602	13841.71
466.807	14445.86
467.012	14241.06
467.218	14308.65
467.423	14007.59
467.628	14148.9
467.833	14468.39
468.038	14126.38
468.244	13788.46
468.449	14423.33
468.654	13796.65
468.859	13847.85
469.064	13784.37
469.269	13053.24
469.474	13212.98
469.679	13626.67
469.885	13016.38
470.09	13348.15
470.295	13180.21
470.5	13028.67
470.705	13178.17
470.91	12596.54
471.115	12805.44
471.32	12797.24
471.525	12684.61
471.73	12375.36
471.935	12432.71
472.139	12125.51
472.344	12123.46
472.549	12051.78
472.754	11814.22
472.959	11541.84
473.164	11371.86
473.369	11165.01
473.574	11662.67
473.778	11523.41
473.983	11474.26
474.188	11361.62
474.393	10880.35
474.598	10986.84
474.802	10857.82
475.007	10825.05
475.212	10675.55
475.417	10544.48
475.621	10401.12
475.826	10493.28
476.031	10083.69
476.235	10394.98
476.44	10200.42
476.645	10026.34
476.849	9993.58
477.054	9821.55
477.259	9727.34
477.463	9882.99
477.668	9504.11
477.872	9606.51
478.077	9307.51
478.282	9104.76
478.486	9258.35
478.691	8975.74
478.895	8947.06
479.1	9080.18
479.304	9121.14
479.509	8646.01
479.713	8977.78
479.918	8813.95
480.122	8547.71
480.326	8742.27
480.531	8633.72
480.735	8676.73
480.94	8318.34
481.144	8715.64
481.348	8265.09
481.553	8508.8
481.757	8342.91
481.961	8523.13
482.166	8424.83
482.37	8377.73
482.574	8121.73
482.778	8193.41
482.983	8500.61
483.187	8342.91
483.391	8191.36
483.595	8224.13
483.8	8232.32
484.004	8344.96
484.208	8291.71
484.412	8162.69
484.616	8304
484.821	8183.17
485.025	8007.05
485.229	8299.91
485.433	8414.59
485.637	8217.99
485.841	8142.21
486.045	8213.89
486.249	8136.07
486.453	8154.5
486.657	8357.25
486.861	8158.6
487.065	8117.64
487.269	8179.08
487.473	8043.91
487.677	8242.56
487.881	8332.67
488.085	8205.7
488.289	8420.74
488.493	8312.19
488.697	8293.76
488.901	8281.47
489.105	8394.11
489.309	8420.74
489.512	8373.63
489.716	8514.94
489.92	8306.05
490.124	8404.35
490.328	8560
490.531	8336.77
490.735	8541.57
490.939	8598.91
491.143	8449.41
491.346	8338.82
491.55	8715.64
491.754	8541.57
491.958	8607.1
492.161	8568.19
492.365	8732.03
492.569	8555.9
492.772	8648.06
492.976	8758.65
493.18	8873.34
493.383	9192.82
493.587	8854.9
493.79	9248.11
493.994	9035.13
494.197	8861.05
494.401	9205.11
494.605	9108.85
494.808	9272.69
495.012	9149.81
495.215	9100.66
495.419	9241.97
495.622	9305.46
495.825	9592.17
496.029	9551.21
496.232	9899.37
496.436	9536.88
496.639	9882.99
496.843	9991.53
497.046	10093.93
497.249	10249.57
497.453	10255.72
497.656	10206.56
497.859	10210.66
498.063	10661.21
498.266	10452.32
498.469	10718.56
498.673	10698.08
498.876	10882.39
499.079	11107.67
499.282	10954.07
499.485	11287.89
499.689	11283.8
499.892	11312.47
500.095	11371.86
500.298	11803.98
500.501	11699.53
500.705	11935.05
500.908	12332.36
501.111	12131.65
501.314	12281.16
501.517	12428.61
501.72	12459.33
501.923	12709.18
502.126	12782.91
502.329	12956.99
502.532	13012.28
502.735	12959.03
502.938	13446.45
503.141	13399.35
503.344	13593.9
503.547	14009.64
503.75	14056.75
503.953	14189.86
504.156	14320.93
504.359	14222.63
504.562	14208.3
504.765	14652.7
504.968	14728.48
505.17	15031.58
505.373	14957.85
505.576	15367.45
505.779	15338.77
505.982	15656.21
506.185	15768.85
506.387	15990.03
506.59	16125.19
506.793	16219.4
506.996	16276.74
507.198	16614.66
507.401	16600.32
507.604	16815.36
507.807	17313.02
508.009	17321.21
508.212	17378.55
508.415	17751.28
508.617	17657.07
508.82	17759.47
509.022	17683.7
509.225	18228.46
509.428	18525.41
509.63	18527.46
509.833	18652.39
510.035	18992.35
510.238	19416.28
510.44	19272.92
510.643	19369.18
510.845	19674.32
511.048	19328.22
511.25	19963.09
511.453	20294.86
511.655	20802.75
511.858	20538.57
512.06	20589.77
512.262	20843.71
512.465	20903.11
512.667	21247.16
512.87	21298.36
513.072	21347.51
513.274	22052.02
513.477	21994.67
513.679	22178.99
513.881	22461.61
514.084	22873.25
514.286	22805.67
514.488	22975.65
514.69	23299.23
514.893	23575.7
515.095	23794.84
515.297	23833.75
515.499	24028.31
515.701	23887
515.904	24675.46
516.106	24575.11
516.308	24837.25
516.51	25007.23
516.712	24945.8
516.914	25468.03
517.116	25654.39
517.318	26086.51
517.52	26162.29
517.722	26143.86
517.925	26631.27
518.127	26928.23
518.329	26977.38
518.531	26731.62
518.733	27421.79
518.935	27593.82
519.136	27978.84
519.338	27851.86
519.54	28040.28
519.742	28238.93
519.944	28376.14
520.146	29123.65
520.348	28886.09
520.55	29000.77
520.752	29318.21
520.954	29738.04
521.155	29428.8
521.357	30075.96
521.559	30276.66
521.761	30798.89
521.963	30268.47
522.164	30542.89
522.366	30819.37
522.568	31446.05
522.77	31478.82
522.971	31673.37
523.173	31480.86
523.375	31951.9
523.576	31880.22
523.778	31579.17
523.98	32246.8
524.181	32746.51
524.383	32687.12
524.584	32945.16
524.786	32830.48
524.988	32685.07
525.189	33225.73
525.391	33684.48
525.592	33739.77
525.794	33776.64
525.995	33895.42
526.197	33778.68
526.398	33965.05
526.6	34079.74
526.801	34348.02
527.003	34266.1
527.204	34941.93
527.406	34556.91
527.607	34798.57
527.808	35085.29
528.01	34632.69
528.211	34835.44
528.412	35402.72
528.614	35421.16
528.815	35126.25
529.016	35546.08
529.218	35279.85
529.419	35390.44
529.62	35746.78
529.822	35584.99
530.023	36029.4
530.224	35777.5
530.425	35701.73
530.626	35361.76
530.828	35556.32
531.029	36238.3
531.23	35800.03
531.431	35851.23
531.632	35988.44
531.833	36332.5
532.035	36101.08
532.236	36428.76
532.437	36418.52
532.638	36037.59
532.839	36426.71
533.04	36750.29
533.241	35640.29
533.442	36617.17
533.643	36504.53
533.844	36461.52
534.045	36232.15
534.246	36330.45
534.447	36518.87
534.648	36314.07
534.849	36692.94
535.05	35859.42
535.251	36236.25
535.451	36707.28
535.652	36545.49
535.853	36613.07
536.054	36418.52
536.255	36598.74
536.456	36373.46
536.657	37063.63
536.857	36080.6
537.058	36365.27
537.259	36752.34
537.46	36604.88
537.66	36668.37
537.861	36643.79
538.062	36500.44
538.263	36312.02
538.463	36117.46
538.664	36441.04
538.865	36109.27
539.065	36678.61
539.266	36496.34
539.466	36627.41
539.667	35996.63
539.868	36684.75
540.068	36174.81
540.269	36389.84
540.469	36649.94
540.67	36410.32
540.87	36670.42
541.071	35884
541.271	36361.17
541.472	36127.7
541.672	36146.14
541.873	35994.59
542.073	35927
542.274	36733.9
542.474	36152.28
542.675	35939.29
542.875	36387.8
543.075	35795.93
543.276	35697.63
543.476	36428.76
543.676	35961.82
543.877	36445.14
544.077	36260.82
544.277	36037.59
544.478	36023.26
544.678	36340.69
544.878	35955.68
545.078	35957.72
545.279	35767.26
545.479	35812.32
545.679	35736.54
545.879	35861.47
546.079	36078.55
546.28	35806.17
546.48	35488.74
546.68	35861.47
546.88	35953.63
547.08	35994.59
547.28	36025.31
547.48	35423.2
547.68	36314.07
547.88	35709.92
548.081	36094.94
548.281	35802.08
548.481	35857.37
548.681	36031.45
548.881	35888.09
549.081	35752.93
549.28	35863.52
549.48	35838.94
549.68	35863.52
549.88	36154.33
550.08	35611.62
550.28	35644.38
550.48	35716.06
550.68	36160.47
550.88	35724.25
551.08	35779.55
551.279	35640.29
551.479	35056.62
551.679	35757.02
551.879	35390.44
552.079	35621.86
552.278	35312.61
552.478	35638.24
552.678	35728.35
552.878	35881.95
553.077	35376.1
553.277	35261.41
553.477	35570.66
553.676	35662.82
553.876	35025.9
554.076	35482.59
554.275	35066.86
554.475	34925.55
554.674	35591.14
554.874	35484.64
555.074	35062.76
555.273	35482.59
555.473	35464.16
555.672	35306.47
555.872	35546.08
556.071	35073
556.271	35503.07
556.47	34974.7
556.67	34939.88
556.869	34878.44
557.068	34911.21
557.268	35019.75
557.467	34675.69
557.667	34644.98
557.866	35310.57
558.065	34669.55
558.265	34264.05
558.464	34806.76
558.663	34763.76
558.863	34145.27
559.062	34864.11
559.261	34356.21
559.461	34943.98
559.66	34444.27
559.859	35054.57
560.058	34522.1
560.258	34413.55
560.457	34149.37
560.656	34415.6
560.855	33874.94
561.054	34356.21
561.253	34022.39
561.453	34278.39
561.652	34253.81
561.851	34382.84
562.05	34104.31
562.249	33909.75
562.448	34165.75
562.647	33870.84
562.846	33770.49
563.045	33926.14
563.244	33614.85
563.443	33815.55
563.642	32951.31
563.841	33707.01
564.04	33467.39
564.239	33895.42
564.438	33305.6
564.637	33565.7
564.836	33401.86
565.035	33201.16
565.234	33397.76
565.432	33242.12
565.631	33084.42
565.83	32863.24
566.029	33008.65
566.228	32654.35
566.427	32676.88
566.625	32885.77
566.824	32418.83
567.023	32703.5
567.222	32033.82
567.42	32631.82
567.619	32459.79
567.818	32367.63
568.016	32320.53
568.215	32629.77
568.414	32115.73
568.612	32601.1
568.811	32252.95
569.01	32144.41
569.208	31886.36
569.407	31984.66
569.605	31824.92
569.804	32123.93
570.002	31652.89
570.201	31562.78
570.4	31407.14
570.598	31550.49
570.797	31314.98
570.995	31114.28
571.193	31075.37
571.392	31665.18
571.59	30723.12
571.789	31040.55
571.987	30991.4
572.186	31265.83
572.384	30944.3
572.582	31071.27
572.781	31077.41
572.979	30549.04
573.177	30514.22
573.376	30903.34
573.574	30321.71
573.772	30551.09
573.971	30213.17
574.169	30555.18
574.367	30114.87
574.565	30344.24
574.763	30018.61
574.962	30336.05
575.16	29897.78
575.358	30063.67
575.556	29789.24
575.754	30202.93
575.952	29473.85
576.151	29844.54
576.349	29115.46
576.547	29477.95
576.745	29584.44
576.943	29752.38
577.141	29408.32
577.339	29383.74
577.537	29029.45
577.735	29144.13
577.933	29027.4
578.131	29230.15
578.329	28832.84
578.527	28935.24
578.725	28695.63
578.923	29060.16
579.121	28750.92
579.319	28560.46
579.516	28773.45
579.714	28845.13
579.912	28535.88
580.11	28273.74
580.308	28646.47
580.506	28034.13
580.704	27970.65
580.901	28163.15
581.099	28034.13
581.297	27849.82
581.495	28093.52
581.692	27774.04
581.89	27673.69
582.088	27892.82
582.285	27640.92
582.483	28060.76
582.681	27419.74
582.878	27266.14
583.076	27133.03
583.274	27722.84
583.471	27077.73
583.669	26915.94
583.866	26981.48
584.064	27147.36
584.262	26391.66
584.459	26979.43
584.657	26659.95
584.854	26868.84
585.052	26266.74
585.249	26776.68
585.447	26709.1
585.644	26657.9
585.841	26311.79
586.039	26928.23
586.236	26444.91
586.434	26197.1
586.631	25953.4
586.828	26074.23
587.026	26092.66
587.223	26096.75
587.42	26000.5
587.618	25760.89
587.815	25560.19
588.012	25719.93
588.21	25541.75
588.407	25691.26
588.604	25427.07
588.801	25193.6
588.999	25238.65
589.196	25080.96
589.393	25275.52
589.59	25230.46
589.787	25027.71
589.984	24900.74
590.182	24917.12
590.379	25054.34
590.576	24775.81
590.773	24837.25
590.97	24779.91
591.167	24591.5
591.364	24380.56
591.561	24331.4
591.758	24140.94
591.955	24388.75
592.152	24288.4
592.349	24341.64
592.546	24069.26
592.743	24177.81
592.94	23909.52
593.137	24011.92
593.334	24157.33
593.531	23553.18
593.727	23975.06
593.924	23938.19
594.121	23659.67
594.318	23739.54
594.515	23162.01
594.712	23624.86
594.908	23082.14
595.105	23327.9
595.302	22998.18
595.499	23344.28
595.696	23020.7
595.892	22793.38
596.089	22783.14
596.286	22826.15
596.482	22834.34
596.679	22912.16
596.876	22846.63
597.072	22514.86
597.269	22688.93
597.466	22262.96
597.662	22293.68
597.859	22430.89
598.055	22557.86
598.252	22195.37
598.448	22025.39
598.645	21888.18
598.841	22021.3
599.038	21908.66
599.234	22189.23
599.431	21900.47
599.627	21593.27
599.824	21966
600.02	21695.67
600.217	21525.69
600.413	21388.47
600.609	21394.62
600.806	21273.79
601.002	21411
601.198	21486.78
601.395	20968.64
601.591	21247.16
601.787	21087.42
601.984	20915.39
602.18	20995.26
602.376	20987.07
602.572	20829.38
602.769	20669.64
602.965	20456.65
603.161	20626.63
603.357	20614.34
603.553	20597.96
603.75	20559.05
603.946	20194.51
604.142	20419.78
604.338	20204.75
604.534	20360.39
604.73	19991.76
604.926	20358.35
605.122	20198.6
605.318	19997.9
605.514	20104.4
605.71	19637.46
605.906	19741.91
606.102	19422.42
606.298	19817.68
606.494	19762.39
606.69	19543.25
606.886	19782.87
607.082	19504.34
607.278	19690.71
607.474	19363.03
607.67	19387.61
607.866	19244.25
608.062	19422.42
608.257	19107.04
608.453	19412.18
608.649	19285.21
608.845	19109.08
609.041	19131.61
609.236	19246.3
609.432	19070.17
609.628	19111.13
609.824	19127.52
610.019	18869.47
610.215	18857.18
610.411	19070.17
610.606	18752.74
610.802	18906.34
610.998	18760.93
611.193	18795.75
611.389	18648.29
611.584	18826.46
611.78	18476.26
611.976	18482.41
612.171	18599.14
612.367	18633.96
612.562	18435.3
612.758	18482.41
612.953	18167.02
613.149	18382.06
613.344	18248.94
613.539	18537.7
613.735	18111.72
613.93	18334.95
614.126	18121.96
614.321	18349.29
614.517	18248.94
614.712	18124.01
614.907	18070.76
615.103	18031.85
615.298	18085.1
615.493	18234.6
615.688	17661.17
615.884	18246.89
616.079	17884.4
616.274	18048.24
616.47	17556.72
616.665	17749.23
616.86	17685.75
617.055	17603.83
617.25	17913.07
617.445	17800.43
617.641	17243.38
617.836	17716.47
618.031	17315.06
618.226	17296.63
618.421	17247.48
618.616	17421.56
618.811	17394.93
619.006	17431.8
619.201	16995.58
619.396	17200.38
619.591	17059.07
619.786	17155.32
619.981	16743.68
620.176	16807.17
620.371	16807.17
620.566	16942.33
620.761	16526.6
620.956	16825.6
621.151	16559.36
621.346	16573.7
621.541	16067.85
621.735	16631.04
621.93	16016.65
622.125	16076.04
622.32	15990.03
622.515	16084.23
622.709	15756.56
622.904	15707.41
623.099	15766.8
623.294	15625.49
623.488	15344.92
623.683	15598.87
623.878	15310.1
624.072	15457.56
624.267	15254.81
624.462	15207.7
624.656	15033.63
624.851	15252.76
625.046	15056.15
625.24	14718.24
625.435	14771.49
625.629	14589.22
625.824	14503.2
626.018	14546.21
626.213	14544.16
626.407	14353.7
626.602	14282.02
626.796	14361.89
626.991	14269.73
627.185	13894.96
627.38	14105.9
627.574	13810.99
627.768	13788.46
627.963	13802.8
628.157	13485.36
628.352	13718.83
628.546	13364.53
628.74	13526.32
628.935	13356.34
629.129	13497.65
629.323	13028.67
629.517	13296.95
629.712	13006.14
629.906	12854.59
630.1	13124.92
630.294	13030.71
630.489	12815.68
630.683	12938.55
630.877	12629.31
631.071	12629.31
631.265	12584.26
631.459	12514.63
631.653	12543.3
631.848	12399.94
632.042	12494.15
632.236	12385.6
632.43	12221.77
632.624	12152.13
632.818	12219.72
633.012	11990.35
633.206	12000.58
633.4	12045.64
633.594	11539.79
633.788	11812.17
633.982	11767.12
634.176	11937.1
634.369	11595.09
634.563	11711.82
634.757	11459.92
634.951	11455.83
635.145	11668.81
635.339	11275.6
635.533	11302.23
635.726	11281.75
635.92	11072.86
636.114	11025.75
636.308	10968.41
636.501	11064.66
636.695	10943.83
636.889	10949.98
637.083	10782.04
637.276	10761.56
637.47	10587.49
637.664	10728.8
637.857	10775.9
638.051	10483.04
638.244	10435.94
638.438	10268
638.632	10394.98
638.825	10138.98
639.019	10141.03
639.212	10270.05
639.406	10190.18
639.599	10095.97
639.793	10085.73
639.986	9842.03
640.18	10020.2
640.373	10030.44
640.567	9831.79
640.76	9786.73
640.954	9735.53
641.147	9571.69
641.34	9801.07
641.534	9758.06
641.727	9678.19
641.92	9608.56
642.114	9373.04
642.307	9387.38
642.5	9395.57
642.694	9223.54
642.887	9231.73
643.08	9311.6
643.273	9348.47
643.467	9209.2
643.66	9020.79
643.853	8752.51
644.046	9018.74
644.239	9067.89
644.432	8760.7
644.626	8867.19
644.819	8834.43
645.012	8752.51
645.205	8945.02
645.398	8643.96
645.591	8707.45
645.784	8486.27
645.977	8514.94
646.17	8519.04
646.363	8430.98
646.556	8242.56
646.749	8267.14
646.942	8209.79
647.135	8363.39
647.328	8185.22
647.521	8138.12
647.714	8150.4
647.907	8256.9
648.099	8138.12
648.292	8174.98
648.485	8050.05
648.678	7859.59
648.871	7966.09
649.064	7880.07
649.256	7759.24
649.449	7806.34
649.642	7738.76
649.835	7445.9
650.027	7650.7
650.22	7636.36
650.413	7533.97
650.605	7675.27
650.798	7638.41
650.991	7390.61
651.183	7447.95
651.376	7363.98
651.568	7470.48
651.761	7290.26
651.954	7259.54
652.146	7144.85
652.339	7251.35
652.531	7259.54
652.724	7273.87
652.916	6954.39
653.109	6954.39
653.301	7099.8
653.494	6997.4
653.686	6817.18
653.879	7060.88
654.071	6751.64
654.263	6751.64
654.456	6913.43
654.648	6710.68
654.84	6479.26
655.033	6546.84
655.225	6659.48
655.417	6552.99
655.61	6686.11
655.802	6415.77
655.994	6612.38
656.186	6442.4
656.379	6387.1
656.571	6278.56
656.763	6417.82
656.955	6305.18
657.148	6299.04
657.34	6217.12
657.532	6223.27
657.724	6182.31
657.916	6208.93
658.108	6055.33
658.3	6233.5
658.492	6061.48
658.684	5971.36
658.876	6010.28
659.068	6116.77
659.26	5938.6
659.452	6043.04
659.644	6088.1
659.836	5895.59
660.028	5920.17
660.22	5791.14
660.412	5789.1
660.604	5871.01
660.796	5688.75
660.988	5635.5
661.18	5643.69
661.372	5623.21
661.563	5791.14
661.755	5612.97
661.947	5537.2
662.139	5414.32
662.331	5594.54
662.522	5539.24
662.714	5504.43
662.906	5432.75
663.097	5275.06
663.289	5418.41
663.481	5348.78
663.673	5393.84
663.864	5201.33
664.056	5115.31
664.247	5356.97
664.439	5186.99
664.631	5199.28
664.822	5170.61
665.014	5111.22
665.205	5033.4
665.397	5002.68
665.588	5191.09
665.78	5043.64
665.971	4892.09
666.163	4834.74
666.354	4931
666.546	4992.44
666.737	4752.82
666.929	4982.2
667.12	4918.71
667.311	5115.31
667.503	4947.38
667.694	4820.41
667.885	4695.48
668.077	4795.83
668.268	4720.06
668.459	4720.06
668.651	4613.56
668.842	4619.71
669.033	4607.42
669.224	4525.5
669.416	4795.83
669.607	4627.9
669.798	4605.37
669.989	4464.06
670.18	4558.27
670.371	4611.51
670.563	4300.22
670.754	4457.92
670.945	4310.46
671.136	4402.62
671.327	4390.33
671.518	4447.68
671.709	4335.04
671.9	4347.33
672.091	4431.29
672.282	4273.6
672.473	4302.27
672.664	4353.47
672.855	4199.87
673.046	4437.44
673.237	4226.5
673.428	4267.45
673.619	4201.92
673.809	4218.3
674	4212.16
674.191	4171.2
674.382	4126.15
674.573	4273.6
674.764	4087.23
674.954	4070.85
675.145	4056.51
675.336	4054.47
675.527	4025.79
675.717	3990.98
675.908	4068.8
676.099	3941.83
676.289	3931.59
676.48	3892.68
676.671	4011.46
676.861	3956.16
677.052	3894.72
677.243	3907.01
677.433	3966.4
677.624	3984.84
677.814	3956.16
678.005	3767.75
678.195	3919.3
678.386	3884.48
678.576	3890.63
678.767	3972.55
678.957	3884.48
679.148	3630.54
679.338	3907.01
679.529	3788.23
679.719	3907.01
679.909	3802.57
680.1	3812.81
680.29	3677.64
680.481	3691.98
680.671	3714.5
680.861	3890.63
681.052	3694.02
681.242	3804.61
681.432	3780.04
681.622	3726.79
681.813	3595.72
682.003	3716.55
682.193	3661.26
682.383	3648.97
682.573	3575.24
682.764	3599.82
682.954	3466.7
683.144	3591.63
683.334	3474.89
683.524	3550.67
683.714	3556.81
683.904	3542.47
684.094	3603.91
684.284	3530.19
684.474	3456.46
684.664	3614.15
684.854	3419.6
685.044	3456.46
685.234	3485.13
685.424	3521.99
685.614	3411.4
685.804	3468.75
685.994	3403.21
686.184	3390.92
686.374	3417.55
686.564	3489.23
686.753	3276.24
686.943	3245.52
687.133	3423.69
687.323	3390.92
687.513	3300.81
687.702	3409.36
687.892	3218.89
688.082	3278.29
688.272	3405.26
688.461	3231.18
688.651	3227.09
688.841	3259.85
689.03	3229.13
689.22	3251.66
689.41	3212.75
689.599	3169.74
689.789	3153.36
689.979	3116.5
690.168	3096.02
690.358	3057.11
690.547	3149.26
690.737	3116.5
690.926	3065.3
691.116	3104.21
691.305	3112.4
691.495	3063.25
691.684	3069.39
691.874	2958.8
692.063	3073.49
692.252	3040.72
692.442	2913.75
692.631	2995.67
692.82	3030.48
693.01	2917.84
693.199	2971.09
693.388	2891.22
693.578	2907.6
693.767	2895.32
693.956	2778.58
694.146	2907.6
694.335	2747.86
694.524	2713.05
694.713	2864.6
694.902	2850.26
695.092	2850.26
695.281	2776.53
695.47	2645.46
695.659	2801.11
695.848	2729.43
696.037	2778.58
696.226	2704.85
696.415	2727.38
696.604	2844.12
696.793	2745.81
696.982	2717.14
697.171	2743.77
697.36	2686.42
697.549	2657.75
697.738	2756.05
697.927	2702.81
698.116	2586.07
698.305	2692.57
698.494	2596.31
698.683	2670.04
698.872	2682.33
699.061	2655.7
699.25	2610.65
699.438	2760.15
699.627	2624.98
699.816	2667.99
700.005	2659.8
700.193	2561.5
700.382	2547.16
700.571	2555.35
700.76	2530.78
700.948	2518.49
701.137	2649.56
701.326	2629.08
701.514	2489.82
701.703	2514.39
701.892	2555.35
702.08	2633.18
702.269	2723.29
702.457	2524.63
702.646	2489.82
702.834	2500.06
703.023	2522.59
703.212	2508.25
703.4	2489.82
703.589	2455
703.777	2457.05
703.965	2424.28
704.154	2622.94
704.342	2366.94
704.531	2592.22
704.719	2457.05
704.907	2514.39
705.096	2483.67
705.284	2471.39
705.472	2436.57
705.661	2493.91
705.849	2424.28
706.037	2452.95
706.226	2483.67
706.414	2420.19
706.602	2403.8
706.79	2473.43
706.979	2420.19
707.167	2438.62
707.355	2379.23
707.543	2452.95
707.731	2350.56
707.919	2352.6
708.107	2473.43
708.296	2442.71
708.484	2407.9
708.672	2424.28
708.86	2379.23
709.048	2424.28
709.236	2395.61
709.424	2414.04
709.612	2399.71
709.8	2366.94
709.988	2260.45
710.176	2342.36
710.364	2389.47
710.551	2477.53
710.739	2377.18
710.927	2299.36
711.115	2373.08
711.303	2362.84
711.491	2239.97
711.679	2225.63
711.866	2405.85
712.054	2315.74
712.242	2301.4
712.43	2481.63
712.617	2303.45
712.805	2278.88
712.993	2360.8
713.181	2244.06
713.368	2282.97
713.556	2293.21
713.744	2301.4
713.931	2268.64
714.119	2317.79
714.306	2268.64
714.494	2293.21
714.682	2358.75
714.869	2227.68
715.057	2276.83
715.244	2289.12
715.432	2285.02
715.619	2276.83
715.807	2235.87
715.994	2297.31
716.182	2289.12
716.369	2280.93
716.556	2368.99
716.744	2158.05
716.931	2311.64
717.119	2272.73
717.306	2301.4
717.493	2287.07
717.681	2350.56
717.868	2293.21
718.055	2360.8
718.242	2223.58
718.43	2278.88
718.617	2389.47
718.804	2221.53
718.991	2221.53
719.179	2276.83
719.366	2235.87
719.553	2272.73
719.74	2287.07
719.927	2223.58
720.114	2334.17
720.301	2344.41
720.488	2287.07
720.676	2203.1
720.863	2229.73
721.05	2274.78
721.237	2262.49
721.424	2158.05
721.611	2184.67
721.798	2211.29
721.985	2201.05
722.172	2235.87
722.358	2244.06
722.545	2244.06
722.732	2100.7
722.919	2325.98
723.106	2213.34
723.293	2297.31
723.48	2252.25
723.667	2268.64
723.853	2203.1
724.04	2219.49
724.227	2180.57
724.414	2219.49
724.6	2141.66
724.787	2301.4
724.974	2170.33
725.161	2104.8
725.347	2172.38
725.534	2145.76
725.72	2145.76
725.907	2268.64
726.094	2170.33
726.28	2301.4
726.467	2199.01
726.653	2067.94
726.84	2262.49
727.027	2268.64
727.213	2162.14
727.4	2149.86
727.586	2244.06
727.773	2096.61
727.959	2227.68
728.145	2147.81
728.332	2235.87
728.518	2121.18
728.705	2307.55
728.891	2170.33
729.077	2250.21
729.264	2239.97
729.45	2211.29
729.636	2264.54
729.823	2184.67
730.009	2139.62
730.195	2176.48
730.382	2170.33
730.568	2260.45
730.754	2162.14
730.94	2139.62
731.126	2248.16
731.313	2231.77
731.499	2184.67
731.685	2172.38
731.871	2098.66
732.057	2190.81
732.243	2139.62
732.429	2090.46
732.615	2211.29
732.801	2055.65
732.987	2237.92
733.173	2096.61
733.359	2184.67
733.545	2129.38
733.731	2131.42
733.917	2178.53
734.103	2141.66
734.289	2215.39
734.475	2158.05
734.661	2186.72
734.847	2112.99
735.033	2160.1
735.219	2164.19
735.404	2145.76
735.59	2133.47
735.776	2121.18
735.962	2139.62
736.148	2237.92
736.333	2272.73
736.519	2125.28
736.705	2100.7
736.89	2024.93
737.076	2041.31
737.262	1957.35
737.447	2098.66
737.633	2059.74
737.819	2100.7
738.004	2174.43
738.19	2133.47
738.375	2147.81
738.561	2057.7
738.747	2125.28
738.932	1986.02
739.118	2104.8
739.303	2072.03
739.489	2008.55
739.674	2045.41
739.859	2043.36
740.045	1998.31
740.23	1977.83
740.416	1969.63
740.601	2090.46
740.786	2016.74
740.972	2160.1
741.157	2041.31
741.342	2014.69
741.528	2055.65
741.713	1918.43
741.898	2026.98
742.084	2008.55
742.269	1932.77
742.454	1912.29
742.639	2002.4
742.824	1994.21
743.01	1977.83
743.195	1928.67
743.38	2010.59
743.565	1875.43
743.75	2000.35
743.935	1893.86
744.12	1902.05
744.305	1873.38
744.49	1900
744.675	1822.18
744.86	1793.51
745.045	1844.71
745.23	1871.33
745.415	1799.65
745.6	1883.62
745.785	1910.24
745.97	1877.48
746.155	1850.85
746.34	1768.93
746.525	1764.84
746.71	1889.76
746.895	1637.86
747.079	1680.87
747.264	1668.58
747.449	1752.55
747.634	1654.25
747.819	1744.36
748.003	1736.17
748.188	1674.73
748.373	1736.17
748.557	1672.68
748.742	1719.78
748.927	1646.05
749.111	1668.58
749.296	1654.25
749.481	1646.05
749.665	1648.1
749.85	1531.37
750.034	1596.9
750.219	1713.64
750.404	1598.95
750.588	1551.85
750.773	1459.69
750.957	1523.18
751.141	1480.17
751.326	1539.56
751.51	1469.93
751.695	1527.27
751.879	1422.83
752.064	1531.37
752.248	1424.87
752.432	1506.79
752.617	1441.26
752.801	1467.88
752.985	1424.87
753.17	1451.5
753.354	1494.51
753.538	1435.11
753.722	1410.54
753.907	1318.38
754.091	1342.96
754.275	1379.82
754.459	1379.82
754.643	1336.81
754.828	1302
755.012	1244.65
755.196	1326.57
755.38	1302
755.564	1314.28
755.748	1228.27
755.932	1281.52
756.116	1250.8
756.3	1336.81
756.484	1197.55
756.668	1220.08
756.852	1175.02
757.036	1232.37
757.22	1170.93
757.404	1187.31
757.588	1232.37
757.772	1197.55
757.956	1220.08
758.14	1226.22
758.323	1091.06
758.507	1156.59
758.691	1191.41
758.875	1080.82
759.059	1080.82
759.242	1205.74
759.426	1084.91
759.61	1099.25
759.794	1115.63
759.977	1000.94
760.161	1211.89
760.345	1113.58
760.528	1039.86
760.712	1019.38
760.895	1064.43
761.079	1097.2
761.263	968.18
761.446	933.36
761.63	1111.54
761.813	1111.54
761.997	1025.52
762.18	935.41
762.364	990.7
762.547	953.84
762.731	1066.48
762.914	1048.05
763.098	1039.86
763.281	1011.18
763.464	931.31
763.648	998.9
763.831	925.17
764.015	937.46
764.198	955.89
764.381	992.75
764.564	966.13
764.748	974.32
764.931	962.03
765.114	855.54
765.297	968.18
765.481	927.22
765.664	876.02
765.847	980.47
766.03	894.45
766.213	906.74
766.397	890.35
766.58	798.2
766.763	859.63
766.946	869.87
767.129	937.46
767.312	892.4
767.495	851.44
767.678	849.4
767.861	818.68
768.044	857.59
768.227	962.03
768.41	890.35
768.593	814.58
768.776	855.54
768.959	810.48
769.142	835.06
769.324	689.65
769.507	937.46
769.69	761.33
769.873	787.96
770.056	775.67
770.239	894.45
770.421	808.44
770.604	814.58
770.787	820.72
770.97	779.76
771.152	646.65
771.335	755.19
771.518	736.76
771.7	876.02
771.883	769.52
772.066	777.72
772.248	691.7
772.431	757.24
772.613	822.77
772.796	720.37
772.978	749.04
773.161	806.39
773.343	695.8
773.526	703.99
773.708	751.09
773.891	667.13
774.073	724.47
774.256	736.76
774.438	638.45
774.621	654.84
774.803	779.76
774.985	638.45
775.168	747
775.35	622.07
775.532	732.66
775.715	654.84
775.897	630.26
776.079	646.65
776.261	671.22
776.444	617.97
776.626	663.03
776.808	556.54
776.99	601.59
777.173	638.45
777.355	714.23
777.537	648.69
777.719	540.15
777.901	667.13
778.083	589.3
778.265	562.68
778.447	599.54
778.629	607.73
778.811	509.43
778.993	603.64
779.175	650.74
779.357	484.86
779.539	570.87
779.721	536.06
779.903	609.78
780.085	495.1
780.267	572.92
780.449	511.48
780.631	577.02
780.812	501.24
780.994	464.38
781.176	552.44
781.358	431.61
781.54	515.58
781.721	515.58
781.903	546.3
782.085	417.27
782.267	523.77
782.448	531.96
782.63	468.47
782.812	507.38
782.993	509.43
783.175	482.81
783.357	495.1
783.538	450.04
783.72	472.57
783.901	501.24
784.083	499.19
784.264	499.19
784.446	474.62
784.627	378.36
784.809	476.66
784.99	433.66
785.172	427.51
785.353	495.1
785.535	474.62
785.716	335.35
785.897	364.03
786.079	421.37
786.26	396.79
786.441	392.7
786.623	368.12
786.804	380.41
786.985	409.08
787.167	394.75
787.348	413.18
787.529	364.03
787.71	339.45
787.891	407.03
788.073	384.51
788.254	327.16
788.435	384.51
788.616	429.56
788.797	343.55
788.978	368.12
789.159	341.5
789.34	394.75
789.522	314.88
789.703	306.68
789.884	329.21
790.065	343.55
790.246	368.12
790.427	351.74
790.607	409.08
790.788	347.64
790.969	257.53
791.15	312.83
791.331	278.01
791.512	390.65
791.693	314.88
791.874	321.02
792.054	355.83
792.235	323.07
792.416	247.29
792.597	286.2
792.778	302.59
792.958	353.79
793.139	278.01
793.32	286.2
793.5	286.2
793.681	402.94
793.862	249.34
794.042	306.68
794.223	259.58
794.404	278.01
794.584	278.01
794.765	318.97
794.945	245.24
795.126	187.9
795.306	292.35
795.487	273.92
795.667	208.38
795.848	261.63
796.028	247.29
796.209	314.88
796.389	290.3
796.57	298.49
796.75	241.15
796.93	253.44
797.111	288.25
797.291	247.29
797.471	278.01
797.652	228.86
797.832	187.9
798.012	286.2
798.192	200.19
798.373	294.4
798.553	220.67
798.733	296.44
798.913	235
799.093	245.24
799.274	204.28
799.454	261.63
799.634	230.91
799.814	298.49
799.994	237.05
800.174	245.24
800.354	200.19
800.534	271.87
800.714	249.34
800.894	214.52
801.074	208.38
801.254	189.95
801.434	261.63
801.614	220.67
801.794	241.15
801.974	794.1
802.154	157.18
802.334	237.05
802.514	220.67
802.693	249.34
802.873	198.14
803.053	185.85
803.233	224.76
803.413	173.57
803.592	220.67
803.772	148.99
803.952	222.72
804.131	73.21
804.311	140.8
804.491	269.82
804.67	118.27
804.85	161.28
805.03	204.28
805.209	183.81
805.389	151.04
805.568	212.48
805.748	241.15
805.928	171.52
806.107	167.42
806.287	118.27
806.466	200.19
806.646	208.38
806.825	237.05
807.004	140.8
807.184	187.9
807.363	165.37
807.543	198.14
807.722	249.34
807.901	196.09
808.081	183.81
808.26	140.8
808.439	204.28
808.619	134.65
808.798	155.13
808.977	134.65
809.156	173.57
809.336	155.13
809.515	204.28
809.694	67.07
809.873	165.37
810.052	171.52
810.231	173.57
810.411	140.8
810.59	232.96
810.769	271.87
810.948	124.41
811.127	181.76
811.306	239.1
811.485	142.85
811.664	202.24
811.843	81.41
812.022	99.84
812.201	216.57
812.38	220.67
812.559	126.46
812.737	239.1
812.916	148.99
813.095	163.33
813.274	124.41
813.453	128.51
813.632	157.18
813.811	155.13
813.989	159.23
814.168	167.42
814.347	179.71
814.526	157.18
814.704	196.09
814.883	196.09
815.062	138.75
815.24	183.81
815.419	89.6
815.598	155.13
815.776	97.79
815.955	181.76
816.133	36.35
816.312	181.76
816.49	114.17
816.669	144.89
816.847	130.56
817.026	153.09
817.204	146.94
817.383	155.13
817.561	71.17
817.74	134.65
817.918	89.6
818.097	163.33
818.275	142.85
818.453	148.99
818.632	124.41
818.81	192
818.988	177.66
819.167	108.03
819.345	101.89
819.523	114.17
819.701	101.89
819.879	126.46
820.058	144.89
820.236	148.99
820.414	220.67
820.592	138.75
820.77	130.56
820.948	110.08
821.127	73.21
821.305	99.84
821.483	75.26
821.661	77.31
821.839	116.22
822.017	144.89
822.195	58.88
822.373	173.57
822.551	165.37
822.729	93.69
822.907	95.74
823.085	32.26
823.262	81.41
823.44	58.88
823.618	89.6
823.796	116.22
823.974	85.5
824.152	138.75
824.329	171.52
824.507	140.8
824.685	112.13
824.863	91.65
825.04	91.65
825.218	91.65
825.396	97.79
825.574	60.93
825.751	91.65
825.929	112.13
826.107	124.41
826.284	85.5
826.462	89.6
826.639	124.41
826.817	89.6
826.994	69.12
827.172	118.27
827.349	126.46
827.527	142.85
827.704	157.18
827.882	148.99
828.059	114.17
828.237	97.79
828.414	73.21
828.591	19.97
828.769	-25.09
828.946	65.02
829.124	101.89
829.301	114.17
829.478	130.56
829.655	19.97
829.833	9.73
830.01	58.88
830.187	138.75
830.364	73.21
830.542	126.46
830.719	103.93
830.896	58.88
831.073	30.21
831.25	101.89
831.427	52.74
831.604	77.31
831.782	85.5
831.959	93.69
832.136	114.17
832.313	130.56
832.49	93.69
832.667	93.69
832.844	81.41
833.021	58.88
833.198	32.26
833.374	93.69
833.551	138.75
833.728	65.02
833.905	81.41
834.082	-6.66
834.259	75.26
834.436	77.31
834.612	58.88
834.789	122.37
834.966	97.79
835.143	89.6
835.319	28.16
835.496	97.79
835.673	-16.9
835.85	77.31
836.026	34.3
836.203	97.79
836.38	42.5
836.556	124.41
836.733	48.64
836.909	128.51
837.086	48.64
837.262	32.26
837.439	40.45
837.616	122.37
837.792	142.85
837.968	83.45
838.145	24.06
838.321	99.84
838.498	-8.7
838.674	99.84
838.851	73.21
839.027	32.26
839.203	40.45
839.38	114.17
839.556	79.36
839.732	60.93
839.909	-12.8
840.085	120.32
840.261	17.92
840.437	97.79
840.614	44.54
840.79	114.17
840.966	5.63
841.142	32.26
841.318	7.68
841.494	89.6
841.671	89.6
841.847	-18.94
842.023	15.87
842.199	28.16
842.375	65.02
842.551	32.26
842.727	52.74
842.903	50.69
843.079	-4.61
843.255	65.02
843.431	15.87
843.607	89.6
843.783	-4.61
843.959	122.37
844.134	-10.75
844.31	50.69
844.486	85.5
844.662	50.69
844.838	-16.9
845.013	146.94
845.189	65.02
845.365	34.3
845.541	89.6
845.716	58.88
845.892	91.65
846.068	9.73
846.244	9.73
846.419	32.26
846.595	24.06
846.77	-6.66
846.946	30.21
847.122	30.21
847.297	89.6
847.473	105.98
847.648	24.06
847.824	77.31
847.999	34.3
848.175	32.26
848.35	-35.33
848.526	83.45
848.701	69.12
848.876	89.6
849.052	81.41
849.227	83.45
849.403	36.35
849.578	48.64
849.753	34.3
849.929	-10.75
850.104	67.07
850.279	54.78
850.454	28.16
850.63	65.02
850.805	9.73
850.98	62.98
851.155	22.02
851.33	-4.61
851.505	11.78
851.681	56.83
851.856	26.11
852.031	42.5
852.206	48.64
852.381	-0.51
852.556	15.87
852.731	122.37
852.906	26.11
853.081	32.26
853.256	95.74
853.431	38.4
853.606	85.5
853.781	116.22
853.956	52.74
854.131	24.06
854.305	91.65
854.48	42.5
854.655	120.32
854.83	97.79
855.005	-31.23
855.18	-4.61
855.354	3.58
855.529	40.45
855.704	17.92
855.879	50.69
856.053	13.82
856.228	40.45
856.403	118.27
856.577	67.07
856.752	-49.66
856.926	28.16
857.101	62.98
857.276	40.45
857.45	75.26
857.625	28.16
857.799	30.21
857.974	91.65
858.148	-8.7
858.323	-33.28
858.497	83.45
858.672	-14.85
858.846	-27.14
859.02	22.02
859.195	58.88
859.369	7.68
859.543	46.59
859.718	32.26
859.892	28.16
860.066	50.69
860.241	-16.9
860.415	-39.42
860.589	15.87
860.763	128.51
860.938	28.16
861.112	50.69
861.286	-12.8
861.46	124.41
861.634	-18.94
861.808	69.12
861.982	48.64
862.157	32.26
862.331	24.06
862.505	3.58
862.679	-20.99
862.853	28.16
863.027	40.45
863.201	46.59
863.375	15.87
863.549	56.83
863.722	24.06
863.896	36.35
864.07	-16.9
864.244	7.68
864.418	54.78
864.592	65.02
864.766	-14.85
864.939	-31.23
865.113	26.11
865.287	11.78
865.461	48.64
865.634	-0.51
865.808	15.87
865.982	48.64
866.156	-0.51
866.329	-27.14
866.503	58.88
866.676	-31.23
866.85	108.03
867.024	-57.86
867.197	89.6
867.371	62.98
867.544	7.68
867.718	-25.09
867.891	65.02
868.065	7.68
868.238	19.97
868.412	65.02
868.585	-33.28
868.759	-25.09
868.932	48.64
869.105	122.37
869.279	1.54
869.452	48.64
869.625	99.84
869.799	42.5
869.972	46.59
870.145	22.02
870.319	11.78
870.492	40.45
870.665	-16.9
870.838	34.3
871.011	-45.57
871.185	28.16
871.358	50.69
871.531	28.16
871.704	54.78
871.877	24.06
872.05	75.26
872.223	9.73
872.396	34.3
872.569	-16.9
872.742	-49.66
872.915	48.64
873.088	-82.43
873.261	58.88
873.434	9.73
873.607	-6.66
873.78	44.54
873.953	-29.18
874.126	9.73
874.299	17.92
874.471	-8.7
874.644	7.68
874.817	-61.95
874.99	-8.7
875.163	15.87
875.335	40.45
875.508	15.87
875.681	-18.94
875.853	-16.9
876.026	67.07
876.199	-4.61
876.371	19.97
876.544	-6.66
876.717	126.46
876.889	-16.9
877.062	22.02
877.234	-86.53
877.407	32.26
877.579	-55.81
877.752	114.17
877.924	-20.99
878.097	83.45
878.269	15.87
878.442	52.74
878.614	73.21
878.786	24.06
878.959	-0.51
879.131	17.92
879.303	42.5
879.476	-55.81
879.648	56.83
879.82	77.31
879.993	44.54
880.165	-0.51
880.337	-29.18
880.509	52.74
880.681	-12.8
880.854	36.35
881.026	19.97
881.198	81.41
881.37	24.06
881.542	67.07
881.714	24.06
881.886	65.02
882.058	30.21
882.23	-8.7
882.402	13.82
882.574	13.82
882.746	-25.09
882.918	58.88
883.09	81.41
883.262	73.21
883.434	48.64
883.606	56.83
883.778	34.3
883.95	36.35
884.122	-10.75
884.293	48.64
884.465	-8.7
884.637	32.26
884.809	-8.7
884.98	17.92
885.152	42.5
885.324	-23.04
885.496	11.78
885.667	-68.09
885.839	-45.57
886.011	1.54
886.182	-14.85
886.354	15.87
886.525	56.83
886.697	40.45
886.869	3.58
887.04	-0.51
887.212	28.16
887.383	69.12
887.555	-61.95
887.726	44.54
887.897	-8.7
888.069	1.54
888.24	52.74
888.412	15.87
888.583	60.93
888.754	48.64
888.926	75.26
889.097	67.07
889.268	-12.8
889.44	-2.56
889.611	-16.9
889.782	1.54
889.953	-37.38
890.125	-8.7
890.296	-27.14
890.467	34.3
890.638	7.68
890.809	34.3
890.98	36.35
891.151	-14.85
891.323	7.68
891.494	-33.28
891.665	19.97
891.836	-8.7
892.007	15.87
892.178	46.59
892.349	7.68
892.52	7.68
892.691	24.06
892.862	3.58
893.032	17.92
893.203	56.83
893.374	-53.76
893.545	65.02
893.716	-27.14
893.887	-10.75
894.057	38.4
894.228	40.45
894.399	-12.8
894.57	67.07
894.74	40.45
894.911	-6.66
895.082	-16.9
895.253	-16.9
895.423	89.6
895.594	9.73
895.764	-35.33
895.935	-23.04
896.106	36.35
896.276	81.41
896.447	28.16
896.617	15.87
896.788	-74.24
896.958	83.45
897.129	28.16
897.299	38.4
897.47	5.63
897.64	62.98
897.81	54.78
897.981	15.87
898.151	3.58
898.322	9.73
898.492	56.83
898.662	48.64
898.832	-8.7
899.003	93.69
899.173	69.12
899.343	56.83
899.513	50.69
