Data from USB4F104151__244__14-22-29-564.txt Node

Date: Thu Mar 13 14:22:29 EDT 2025
User: louis
Spectrometer: USB4F10415
Trigger mode: 4
Integration Time (sec): 2.000000E-2
Scans to average: 1
Electric dark correction enabled: true
Nonlinearity correction enabled: false
Boxcar width: 0
XAxis mode: Wavelengths
Number of Pixels in Spectrum: 3648
>>>>>Begin Spectral Data<<<<<
178.204	-196.09
178.424	-196.09
178.644	-196.09
178.864	-159.23
179.084	-144.89
179.304	-7.68
179.524	-7.68
179.744	-89.6
179.964	29.18
180.184	-38.4
180.404	37.38
180.624	12.8
180.844	-15.87
181.064	-17.92
181.283	25.09
181.503	61.95
181.723	10.75
181.943	-38.4
182.163	49.66
182.383	10.75
182.602	-38.4
182.822	-28.16
183.042	-36.35
183.262	-50.69
183.482	-19.97
183.701	-7.68
183.921	-48.64
184.141	-65.02
184.361	68.09
184.58	-34.3
184.8	49.66
185.02	-11.78
185.239	8.7
185.459	18.94
185.679	33.28
185.898	-56.83
186.118	0.51
186.338	-32.26
186.557	8.7
186.777	-15.87
186.997	-62.98
187.216	-118.27
187.436	29.18
187.655	-62.98
187.875	-85.5
188.095	-103.93
188.314	41.47
188.534	-15.87
188.753	-32.26
188.973	-36.35
189.192	84.48
189.412	25.09
189.631	-38.4
189.851	8.7
190.07	53.76
190.29	-36.35
190.509	-7.68
190.729	25.09
190.948	18.94
191.168	76.29
191.387	41.47
191.607	-7.68
191.826	0.51
192.045	-42.5
192.265	-32.26
192.484	-30.21
192.704	-36.35
192.923	-5.63
193.142	100.86
193.362	20.99
193.581	4.61
193.8	20.99
194.02	37.38
194.239	47.62
194.458	41.47
194.678	-34.3
194.897	-22.02
195.116	25.09
195.335	0.51
195.555	-32.26
195.774	-15.87
195.993	41.47
196.212	18.94
196.432	-5.63
196.651	-54.78
196.87	-36.35
197.089	59.9
197.308	57.86
197.528	-15.87
197.747	12.8
197.966	-79.36
198.185	12.8
198.404	25.09
198.623	31.23
198.842	-17.92
199.062	39.42
199.281	41.47
199.5	35.33
199.719	-36.35
199.938	23.04
200.157	35.33
200.376	10.75
200.595	4.61
200.814	-24.06
201.033	2.56
201.252	78.33
201.471	-46.59
201.69	55.81
201.909	16.9
202.128	29.18
202.347	2.56
202.566	-7.68
202.785	20.99
203.004	-50.69
203.223	57.86
203.442	-67.07
203.661	10.75
203.879	25.09
204.098	86.53
204.317	-71.17
204.536	66.05
204.755	16.9
204.974	-56.83
205.193	70.14
205.411	59.9
205.63	35.33
205.849	27.14
206.068	29.18
206.287	-73.21
206.505	27.14
206.724	-5.63
206.943	-7.68
207.162	8.7
207.381	-19.97
207.599	2.56
207.818	23.04
208.037	-7.68
208.255	4.61
208.474	-30.21
208.693	27.14
208.911	2.56
209.13	0.51
209.349	-54.78
209.567	10.75
209.786	55.81
210.005	39.42
210.223	0.51
210.442	47.62
210.661	-9.73
210.879	-22.02
211.098	-19.97
211.316	16.9
211.535	-11.78
211.753	25.09
211.972	-5.63
212.191	-46.59
212.409	25.09
212.628	51.71
212.846	43.52
213.065	25.09
213.283	16.9
213.502	-30.21
213.72	25.09
213.938	68.09
214.157	-60.93
214.375	-5.63
214.594	18.94
214.812	10.75
215.031	33.28
215.249	16.9
215.467	10.75
215.686	55.81
215.904	23.04
216.122	25.09
216.341	-24.06
216.559	51.71
216.778	20.99
216.996	0.51
217.214	-99.84
217.432	-11.78
217.651	8.7
217.869	-58.88
218.087	16.9
218.306	-9.73
218.524	29.18
218.742	25.09
218.96	90.62
219.179	-15.87
219.397	-3.58
219.615	12.8
219.833	10.75
220.051	2.56
220.27	39.42
220.488	-11.78
220.706	27.14
220.924	-17.92
221.142	-34.3
221.36	-38.4
221.578	16.9
221.796	37.38
222.015	49.66
222.233	-34.3
222.451	27.14
222.669	-15.87
222.887	25.09
223.105	33.28
223.323	20.99
223.541	-44.54
223.759	20.99
223.977	8.7
224.195	68.09
224.413	8.7
224.631	-15.87
224.849	-3.58
225.067	-56.83
225.285	-40.45
225.503	-28.16
225.721	-73.21
225.939	10.75
226.157	16.9
226.375	98.81
226.592	-56.83
226.81	76.29
227.028	2.56
227.246	57.86
227.464	18.94
227.682	92.67
227.9	25.09
228.117	-77.31
228.335	-28.16
228.553	49.66
228.771	16.9
228.989	25.09
229.206	74.24
229.424	27.14
229.642	-13.82
229.86	-15.87
230.077	66.05
230.295	92.67
230.513	-3.58
230.731	0.51
230.948	-48.64
231.166	72.19
231.384	35.33
231.601	-54.78
231.819	-5.63
232.037	-19.97
232.254	-9.73
232.472	33.28
232.689	-7.68
232.907	47.62
233.125	-62.98
233.342	-65.02
233.56	4.61
233.777	8.7
233.995	-79.36
234.213	18.94
234.43	6.66
234.648	-60.93
234.865	49.66
235.083	84.48
235.3	-38.4
235.518	8.7
235.735	111.1
235.953	66.05
236.17	4.61
236.388	-7.68
236.605	25.09
236.822	20.99
237.04	76.29
237.257	-3.58
237.475	-24.06
237.692	-44.54
237.909	20.99
238.127	-69.12
238.344	20.99
238.562	20.99
238.779	-34.3
238.996	12.8
239.214	57.86
239.431	49.66
239.648	-54.78
239.865	12.8
240.083	47.62
240.3	47.62
240.517	-26.11
240.735	-13.82
240.952	35.33
241.169	-15.87
241.386	0.51
241.603	-19.97
241.821	-11.78
242.038	14.85
242.255	29.18
242.472	-7.68
242.689	35.33
242.907	-13.82
243.124	4.61
243.341	-79.36
243.558	-40.45
243.775	49.66
243.992	-22.02
244.209	-5.63
244.426	61.95
244.643	-11.78
244.86	25.09
245.078	51.71
245.295	23.04
245.512	8.7
245.729	0.51
245.946	-30.21
246.163	41.47
246.38	47.62
246.597	4.61
246.814	29.18
247.031	25.09
247.248	-13.82
247.464	4.61
247.681	102.91
247.898	-28.16
248.115	0.51
248.332	-30.21
248.549	25.09
248.766	16.9
248.983	27.14
249.2	12.8
249.417	43.52
249.633	14.85
249.85	6.66
250.067	-22.02
250.284	4.61
250.501	25.09
250.717	66.05
250.934	0.51
251.151	29.18
251.368	16.9
251.585	2.56
251.801	4.61
252.018	-46.59
252.235	37.38
252.451	6.66
252.668	-36.35
252.885	-19.97
253.102	4.61
253.318	-1.54
253.535	-13.82
253.752	-5.63
253.968	-32.26
254.185	-122.37
254.401	41.47
254.618	-19.97
254.835	16.9
255.051	51.71
255.268	4.61
255.484	-24.06
255.701	27.14
255.917	-24.06
256.134	-13.82
256.351	35.33
256.567	-15.87
256.784	-65.02
257	-7.68
257.217	70.14
257.433	23.04
257.65	-36.35
257.866	57.86
258.082	-58.88
258.299	-9.73
258.515	-9.73
258.732	-7.68
258.948	90.62
259.165	37.38
259.381	-81.41
259.597	51.71
259.814	-46.59
260.03	-32.26
260.246	16.9
260.463	49.66
260.679	-13.82
260.895	-17.92
261.112	-89.6
261.328	16.9
261.544	-32.26
261.761	-24.06
261.977	-1.54
262.193	-54.78
262.409	-1.54
262.626	-3.58
262.842	29.18
263.058	74.24
263.274	4.61
263.49	-5.63
263.707	27.14
263.923	-13.82
264.139	-32.26
264.355	-62.98
264.571	8.7
264.787	-5.63
265.004	8.7
265.22	0.51
265.436	-40.45
265.652	-11.78
265.868	2.56
266.084	-7.68
266.3	-24.06
266.516	-5.63
266.732	25.09
266.948	-30.21
267.164	51.71
267.38	-30.21
267.596	16.9
267.812	23.04
268.028	74.24
268.244	68.09
268.46	2.56
268.676	8.7
268.892	8.7
269.108	-83.45
269.324	-65.02
269.54	-40.45
269.756	35.33
269.972	-77.31
270.188	-26.11
270.403	-97.79
270.619	57.86
270.835	10.75
271.051	16.9
271.267	-7.68
271.483	-52.74
271.698	12.8
271.914	-22.02
272.13	57.86
272.346	18.94
272.562	29.18
272.777	53.76
272.993	49.66
273.209	25.09
273.425	41.47
273.64	8.7
273.856	25.09
274.072	-58.88
274.287	-11.78
274.503	41.47
274.719	4.61
274.934	41.47
275.15	-1.54
275.366	45.57
275.581	-91.65
275.797	37.38
276.012	-13.82
276.228	25.09
276.444	74.24
276.659	-32.26
276.875	4.61
277.09	25.09
277.306	-81.41
277.521	12.8
277.737	-54.78
277.952	2.56
278.168	20.99
278.383	14.85
278.599	-42.5
278.814	10.75
279.03	6.66
279.245	27.14
279.461	-50.69
279.676	27.14
279.892	-89.6
280.107	-38.4
280.322	25.09
280.538	-19.97
280.753	41.47
280.969	-24.06
281.184	-44.54
281.399	35.33
281.615	-69.12
281.83	35.33
282.045	16.9
282.26	2.56
282.476	51.71
282.691	14.85
282.906	31.23
283.122	41.47
283.337	-36.35
283.552	-11.78
283.767	-3.58
283.983	33.28
284.198	-13.82
284.413	-1.54
284.628	51.71
284.843	29.18
285.058	51.71
285.274	-38.4
285.489	57.86
285.704	10.75
285.919	0.51
286.134	39.42
286.349	0.51
286.564	-110.08
286.779	-24.06
286.995	8.7
287.21	12.8
287.425	-7.68
287.64	37.38
287.855	31.23
288.07	-3.58
288.285	35.33
288.5	0.51
288.715	-46.59
288.93	-32.26
289.145	-120.32
289.36	33.28
289.575	6.66
289.79	-15.87
290.004	8.7
290.219	4.61
290.434	27.14
290.649	-46.59
290.864	-15.87
291.079	29.18
291.294	25.09
291.509	-7.68
291.724	-17.92
291.938	10.75
292.153	45.57
292.368	-40.45
292.583	8.7
292.798	41.47
293.012	51.71
293.227	-32.26
293.442	43.52
293.657	8.7
293.871	51.71
294.086	-19.97
294.301	41.47
294.516	59.9
294.73	51.71
294.945	-19.97
295.16	76.29
295.374	-60.93
295.589	16.9
295.804	-28.16
296.018	2.56
296.233	70.14
296.447	29.18
296.662	20.99
296.877	8.7
297.091	-7.68
297.306	-3.58
297.52	-7.68
297.735	68.09
297.949	39.42
298.164	92.67
298.378	-44.54
298.593	27.14
298.807	-44.54
299.022	0.51
299.236	-7.68
299.451	-3.58
299.665	-24.06
299.88	-32.26
300.094	-30.21
300.309	4.61
300.523	68.09
300.737	-7.68
300.952	16.9
301.166	45.57
301.381	31.23
301.595	35.33
301.809	-13.82
302.024	-7.68
302.238	-26.11
302.452	-19.97
302.667	-19.97
302.881	74.24
303.095	98.81
303.309	16.9
303.524	20.99
303.738	-42.5
303.952	0.51
304.166	-56.83
304.381	-28.16
304.595	41.47
304.809	-32.26
305.023	-7.68
305.237	-32.26
305.452	8.7
305.666	8.7
305.88	57.86
306.094	12.8
306.308	39.42
306.522	66.05
306.736	-28.16
306.95	-13.82
307.164	-58.88
307.379	18.94
307.593	27.14
307.807	27.14
308.021	8.7
308.235	25.09
308.449	2.56
308.663	25.09
308.877	-1.54
309.091	2.56
309.305	16.9
309.519	-7.68
309.733	16.9
309.947	-83.45
310.161	33.28
310.374	41.47
310.588	90.62
310.802	-11.78
311.016	-28.16
311.23	39.42
311.444	10.75
311.658	-32.26
311.872	-7.68
312.085	98.81
312.299	12.8
312.513	-48.64
312.727	-11.78
312.941	-56.83
313.154	-22.02
313.368	16.9
313.582	27.14
313.796	18.94
314.009	12.8
314.223	-48.64
314.437	-60.93
314.651	70.14
314.864	20.99
315.078	49.66
315.292	-65.02
315.505	16.9
315.719	-7.68
315.933	78.33
316.146	-40.45
316.36	47.62
316.573	49.66
316.787	6.66
317.001	2.56
317.214	33.28
317.428	66.05
317.641	-1.54
317.855	-44.54
318.068	-69.12
318.282	0.51
318.495	45.57
318.709	-1.54
318.922	-22.02
319.136	61.95
319.349	35.33
319.563	-1.54
319.776	-34.3
319.99	35.33
320.203	-28.16
320.417	-48.64
320.63	-24.06
320.843	47.62
321.057	70.14
321.27	-5.63
321.483	51.71
321.697	-1.54
321.91	-15.87
322.124	8.7
322.337	23.04
322.55	6.66
322.763	-7.68
322.977	-32.26
323.19	-28.16
323.403	-24.06
323.617	-13.82
323.83	45.57
324.043	6.66
324.256	10.75
324.469	-46.59
324.683	27.14
324.896	27.14
325.109	41.47
325.322	-11.78
325.535	-5.63
325.748	-32.26
325.962	14.85
326.175	16.9
326.388	-28.16
326.601	-1.54
326.814	-83.45
327.027	-48.64
327.24	2.56
327.453	-46.59
327.666	-11.78
327.879	37.38
328.092	12.8
328.305	-62.98
328.518	-101.89
328.731	-81.41
328.944	-1.54
329.157	18.94
329.37	0.51
329.583	61.95
329.796	121.34
330.009	45.57
330.222	100.86
330.435	23.04
330.648	-48.64
330.861	-7.68
331.073	64
331.286	0.51
331.499	49.66
331.712	-44.54
331.925	-58.88
332.138	-30.21
332.35	-62.98
332.563	-73.21
332.776	10.75
332.989	-42.5
333.202	-7.68
333.414	-22.02
333.627	2.56
333.84	27.14
334.053	-46.59
334.265	-48.64
334.478	-40.45
334.691	20.99
334.903	-15.87
335.116	-15.87
335.329	41.47
335.541	-7.68
335.754	57.86
335.966	-62.98
336.179	-24.06
336.392	4.61
336.604	-105.98
336.817	47.62
337.029	8.7
337.242	-65.02
337.454	57.86
337.667	2.56
337.88	10.75
338.092	33.28
338.305	8.7
338.517	2.56
338.729	0.51
338.942	53.76
339.154	6.66
339.367	16.9
339.579	27.14
339.792	-34.3
340.004	-48.64
340.217	-42.5
340.429	72.19
340.641	-15.87
340.854	-15.87
341.066	-19.97
341.278	-13.82
341.491	10.75
341.703	45.57
341.915	-81.41
342.128	59.9
342.34	45.57
342.552	41.47
342.764	-24.06
342.977	25.09
343.189	2.56
343.401	92.67
343.613	8.7
343.826	12.8
344.038	-32.26
344.25	66.05
344.462	37.38
344.674	-32.26
344.886	-15.87
345.099	-52.74
345.311	18.94
345.523	8.7
345.735	-36.35
345.947	12.8
346.159	43.52
346.371	49.66
346.583	66.05
346.795	29.18
347.007	0.51
347.219	18.94
347.431	-48.64
347.643	25.09
347.855	-24.06
348.067	49.66
348.279	0.51
348.491	4.61
348.703	12.8
348.915	-3.58
349.127	-44.54
349.339	55.81
349.551	33.28
349.763	-24.06
349.975	-1.54
350.187	27.14
350.399	47.62
350.61	88.57
350.822	-56.83
351.034	74.24
351.246	-46.59
351.458	-42.5
351.669	16.9
351.881	123.39
352.093	-30.21
352.305	47.62
352.517	-11.78
352.728	-5.63
352.94	35.33
353.152	-5.63
353.363	12.8
353.575	10.75
353.787	-36.35
353.999	-36.35
354.21	92.67
354.422	-50.69
354.633	6.66
354.845	-40.45
355.057	61.95
355.268	2.56
355.48	4.61
355.692	-40.45
355.903	-26.11
356.115	-40.45
356.326	-22.02
356.538	131.58
356.749	-15.87
356.961	2.56
357.172	16.9
357.384	-9.73
357.595	51.71
357.807	49.66
358.018	-32.26
358.23	-48.64
358.441	8.7
358.653	-26.11
358.864	8.7
359.075	68.09
359.287	-24.06
359.498	-81.41
359.709	-3.58
359.921	78.33
360.132	16.9
360.344	2.56
360.555	-48.64
360.766	49.66
360.977	39.42
361.189	25.09
361.4	-11.78
361.611	25.09
361.823	90.62
362.034	4.61
362.245	-69.12
362.456	90.62
362.667	4.61
362.879	-48.64
363.09	35.33
363.301	25.09
363.512	20.99
363.723	18.94
363.935	-15.87
364.146	12.8
364.357	-28.16
364.568	41.47
364.779	-36.35
364.99	47.62
365.201	-28.16
365.412	16.9
365.623	10.75
365.834	111.1
366.045	8.7
366.256	55.81
366.467	68.09
366.678	-30.21
366.889	-9.73
367.1	94.72
367.311	18.94
367.522	25.09
367.733	25.09
367.944	31.23
368.155	12.8
368.366	41.47
368.577	2.56
368.788	102.91
368.999	-52.74
369.209	18.94
369.42	25.09
369.631	92.67
369.842	12.8
370.053	37.38
370.264	25.09
370.474	-32.26
370.685	29.18
370.896	51.71
371.107	-5.63
371.317	4.61
371.528	25.09
371.739	-60.93
371.95	35.33
372.16	-48.64
372.371	-3.58
372.582	-5.63
372.792	66.05
373.003	-11.78
373.214	-32.26
373.424	18.94
373.635	-44.54
373.846	41.47
374.056	25.09
374.267	4.61
374.477	29.18
374.688	-65.02
374.898	-56.83
375.109	-5.63
375.319	-30.21
375.53	18.94
375.74	0.51
375.951	29.18
376.161	-40.45
376.372	35.33
376.582	31.23
376.793	25.09
377.003	12.8
377.214	43.52
377.424	-7.68
377.635	18.94
377.845	68.09
378.055	88.57
378.266	72.19
378.476	6.66
378.686	90.62
378.897	8.7
379.107	-5.63
379.317	35.33
379.528	-36.35
379.738	-5.63
379.948	0.51
380.158	68.09
380.369	-15.87
380.579	70.14
380.789	-5.63
380.999	41.47
381.21	53.76
381.42	74.24
381.63	-77.31
381.84	68.09
382.05	12.8
382.261	80.38
382.471	-15.87
382.681	16.9
382.891	45.57
383.101	59.9
383.311	-7.68
383.521	-32.26
383.731	59.9
383.941	82.43
384.151	-30.21
384.361	-32.26
384.571	74.24
384.781	47.62
384.991	117.25
385.201	98.81
385.411	49.66
385.621	49.66
385.831	-24.06
386.041	-24.06
386.251	2.56
386.461	35.33
386.671	-28.16
386.881	25.09
387.091	10.75
387.301	12.8
387.511	84.48
387.72	-15.87
387.93	100.86
388.14	-81.41
388.35	55.81
388.56	-28.16
388.769	102.91
388.979	-5.63
389.189	29.18
389.399	43.52
389.609	-58.88
389.818	45.57
390.028	4.61
390.238	27.14
390.447	35.33
390.657	49.66
390.867	-32.26
391.076	-5.63
391.286	61.95
391.496	49.66
391.705	2.56
391.915	18.94
392.125	43.52
392.334	25.09
392.544	-30.21
392.753	0.51
392.963	45.57
393.172	18.94
393.382	35.33
393.591	115.2
393.801	-1.54
394.01	102.91
394.22	-19.97
394.429	53.76
394.639	51.71
394.848	0.51
395.058	29.18
395.267	59.9
395.477	94.72
395.686	86.53
395.895	41.47
396.105	57.86
396.314	25.09
396.524	14.85
396.733	51.71
396.942	104.96
397.152	49.66
397.361	195.07
397.57	45.57
397.78	49.66
397.989	119.29
398.198	55.81
398.407	25.09
398.617	102.91
398.826	33.28
399.035	12.8
399.244	74.24
399.453	98.81
399.663	66.05
399.872	117.25
400.081	4.61
400.29	82.43
400.499	18.94
400.708	78.33
400.917	76.29
401.127	16.9
401.336	94.72
401.545	82.43
401.754	92.67
401.963	90.62
402.172	-36.35
402.381	4.61
402.59	8.7
402.799	102.91
403.008	109.05
403.217	43.52
403.426	49.66
403.635	92.67
403.844	6.66
404.053	45.57
404.262	49.66
404.471	51.71
404.68	-28.16
404.888	82.43
405.097	27.14
405.306	131.58
405.515	43.52
405.724	152.06
405.933	125.44
406.142	98.81
406.35	98.81
406.559	86.53
406.768	72.19
406.977	92.67
407.185	68.09
407.394	78.33
407.603	143.87
407.812	248.32
408.02	242.17
408.229	125.44
408.438	117.25
408.646	131.58
408.855	156.16
409.064	113.15
409.272	141.82
409.481	82.43
409.69	121.34
409.898	176.64
410.107	203.26
410.315	203.26
410.524	217.6
410.733	229.88
410.941	172.54
411.15	209.4
411.358	266.75
411.567	293.37
411.775	211.45
411.984	309.76
412.192	305.66
412.401	274.94
412.609	289.28
412.818	322.04
413.026	244.22
413.234	346.62
413.443	289.28
413.651	344.57
413.86	281.08
414.068	354.81
414.276	406.01
414.485	330.23
414.693	346.62
414.901	401.91
415.11	406.01
415.318	492.02
415.526	477.69
415.734	465.4
415.943	541.18
416.151	489.98
416.359	592.37
416.567	584.18
416.776	596.47
416.984	676.34
417.192	608.76
417.4	578.04
417.608	582.14
417.817	592.37
418.025	715.25
418.233	692.73
418.441	664.05
418.649	813.56
418.857	760.31
419.065	827.89
419.273	762.36
419.481	850.42
419.689	844.28
419.897	950.77
420.105	1012.21
420.313	977.39
420.521	868.85
420.729	1034.74
420.937	1057.26
421.145	1106.42
421.353	1200.62
421.561	1239.53
421.769	1313.26
421.977	1305.07
422.185	1294.83
422.393	1468.91
422.601	1323.5
422.809	1352.17
423.017	1438.19
423.224	1487.34
423.432	1499.63
423.64	1556.97
423.848	1837.54
424.056	1640.93
424.263	1810.92
424.471	1878.5
424.679	1827.3
424.887	2021.86
425.094	2028
425.302	1960.42
425.51	2050.53
425.718	2269.66
425.925	2183.65
426.133	2306.52
426.341	2318.81
426.548	2445.79
426.756	2466.27
426.964	2453.98
427.171	2652.63
427.379	2720.21
427.586	2712.02
427.794	2812.37
428.001	2945.49
428.209	3152.34
428.417	3111.38
428.624	3289.55
428.832	3203.54
429.039	3248.59
429.247	3348.94
429.454	3555.79
429.662	3627.46
429.869	3473.87
430.076	3719.62
430.284	3711.43
430.491	3916.23
430.699	4071.87
430.906	4118.98
431.114	4204.99
431.321	4229.57
431.528	4424.12
431.736	4538.81
431.943	4874.68
432.15	4698.55
432.358	4735.42
432.565	4925.88
432.772	4862.39
432.979	5343.66
433.187	5171.63
433.394	5310.89
433.601	5736.87
433.808	5824.94
434.016	5716.39
434.223	5923.24
434.43	6244.77
434.637	6193.57
434.844	6644.12
435.052	6769.05
435.259	6717.85
435.466	6760.86
435.673	6648.22
435.88	7117.2
436.087	7448.97
436.294	7336.34
436.501	7389.58
436.708	7381.39
436.915	7725.45
437.122	8034.69
437.329	7920.01
437.537	8313.22
437.743	8409.47
437.95	8268.16
438.157	8614.27
438.364	9030.01
438.571	8905.08
438.778	9050.49
438.985	9697.64
439.192	9249.14
439.399	9679.21
439.606	9681.26
439.813	10105.19
440.02	10672.48
440.227	10561.89
440.433	10355.04
440.64	10772.83
440.847	10711.39
441.054	11053.4
441.261	11555.15
441.467	11528.53
441.674	11686.22
441.881	12192.07
442.088	12046.66
442.294	12132.68
442.501	12112.2
442.708	12601.66
442.914	12869.95
443.121	13451.57
443.328	13324.6
443.534	14104.87
443.741	13754.67
443.948	13654.32
444.154	14586.15
444.361	14477.6
444.568	14567.71
444.774	14704.93
444.981	14825.76
445.187	15403.28
445.394	15544.59
445.6	15669.52
445.807	17254.65
446.013	16392.45
446.22	16441.61
446.426	17142.01
446.633	17234.17
446.839	18161.9
447.046	17295.61
447.252	18024.68
447.459	18256.11
447.665	17965.29
447.871	18790.63
448.078	19923.15
448.284	18680.03
448.491	19316.95
448.697	20211.92
448.903	20631.75
449.11	20146.38
449.316	20443.34
449.522	20709.57
449.728	21131.45
449.935	21438.65
450.141	21113.02
450.347	21676.21
450.553	20768.96
450.76	21622.97
450.966	22134.96
451.172	21731.51
451.378	22524.07
451.584	21897.39
451.791	22567.08
451.997	22429.87
452.203	22335.66
452.409	22732.97
452.615	22519.98
452.821	21827.76
453.027	21381.31
453.233	22720.68
453.44	21944.5
453.646	21938.35
453.852	22300.84
454.058	22454.44
454.264	21737.65
454.47	22548.65
454.676	21536.95
454.882	22632.61
455.088	20555.97
455.294	21055.68
455.5	21309.63
455.705	21272.76
455.911	20476.1
456.117	20242.64
456.323	19759.31
456.529	19005.66
456.735	19609.81
456.941	19206.36
457.147	18823.39
457.352	18280.68
457.558	18481.38
457.764	18368.74
457.97	17793.26
458.176	17395.96
458.381	17363.19
458.587	16711.94
458.793	16558.34
458.999	15757.58
459.204	17135.87
459.41	16130.31
459.616	15327.51
459.821	15239.45
460.027	15214.87
460.233	14960.92
460.438	14291.24
460.644	14309.67
460.85	13738.29
461.055	13547.83
461.261	13431.09
461.466	12583.23
461.672	12001.61
461.878	13091.13
462.083	12235.08
462.289	11888.97
462.494	11977.03
462.7	11143.51
462.905	10981.72
463.111	11329.88
463.316	11231.57
463.522	11221.33
463.727	11282.77
463.932	11096.41
464.138	11178.33
464.343	10946.9
464.549	10862.94
464.754	11198.81
464.959	10989.91
465.165	11018.58
465.37	10350.95
465.575	10346.85
465.781	10496.35
465.986	10621.28
466.191	10170.72
466.397	10135.91
466.602	9564.53
466.807	9955.69
467.012	9740.65
467.218	9791.85
467.423	9748.84
467.628	9666.92
467.833	10346.85
468.038	9775.47
468.244	9613.68
468.449	9986.41
468.654	9562.48
468.859	9574.77
469.064	9570.67
469.269	9273.71
469.474	9324.91
469.679	9431.41
469.885	9161.08
470.09	9240.95
470.295	9130.36
470.5	9025.91
470.705	9150.84
470.91	8939.9
471.115	8669.56
471.32	8976.76
471.525	8853.88
471.73	8673.66
471.935	8696.19
472.139	8315.27
472.344	8507.77
472.549	8294.79
472.754	8284.55
472.959	8176
473.164	7922.06
473.369	7731.59
473.574	8192.39
473.778	8155.52
473.983	7805.32
474.188	7924.1
474.393	7453.07
474.598	7686.54
474.802	7354.77
475.007	7545.23
475.212	7553.42
475.417	7264.66
475.621	7266.71
475.826	7086.48
476.031	7063.96
476.235	6922.65
476.44	7018.9
476.645	6986.13
476.849	7129.49
477.054	6906.26
477.259	6836.63
477.463	7025.04
477.668	6726.04
477.872	6736.28
478.077	6433.18
478.282	6511
478.486	6261.15
478.691	6582.68
478.895	6295.97
479.1	6361.5
479.304	6408.61
479.509	6011.3
479.713	6255.01
479.918	6130.08
480.122	6042.02
480.326	6134.18
480.531	6160.8
480.735	5902.76
480.94	6001.06
481.144	6023.59
481.348	5763.5
481.553	5859.75
481.757	5818.79
481.961	6017.44
482.166	5857.7
482.37	5904.81
482.574	5808.55
482.778	5814.7
482.983	5898.66
483.187	6029.73
483.391	5886.37
483.595	5745.06
483.8	5775.78
484.004	5849.51
484.208	5939.62
484.412	5751.21
484.616	5745.06
484.821	5769.64
485.025	5786.02
485.229	5847.46
485.433	5841.32
485.637	5820.84
485.841	5740.97
486.045	5693.87
486.249	5808.55
486.453	5644.71
486.657	5960.1
486.861	5685.67
487.065	5743.02
487.269	5802.41
487.473	5792.17
487.677	5689.77
487.881	5798.31
488.085	5575.08
488.289	5923.24
488.493	5923.24
488.697	5810.6
488.901	5851.56
489.105	5947.81
489.309	6070.69
489.512	5949.86
489.716	5874.09
489.92	5794.22
490.124	5743.02
490.328	5964.2
490.531	5960.1
490.735	6119.84
490.939	5919.14
491.143	6009.25
491.346	5816.74
491.55	6078.88
491.754	6064.55
491.958	5974.44
492.161	6142.37
492.365	6097.31
492.569	6212
492.772	6156.71
492.976	6136.23
493.18	6175.14
493.383	6300.06
493.587	6404.51
493.79	6570.4
493.994	6431.13
494.197	6326.69
494.401	6209.95
494.605	6465.95
494.808	6568.35
495.012	6609.31
495.215	6529.44
495.419	6764.95
495.622	6529.44
495.825	6654.36
496.029	6785.43
496.232	6902.17
496.436	6943.13
496.639	7000.47
496.843	6883.73
497.046	7027.09
497.249	7293.33
497.453	7066
497.656	7244.18
497.859	7405.97
498.063	7268.75
498.266	7549.32
498.469	7434.64
498.673	7608.72
498.876	7809.42
499.079	7762.31
499.282	7717.26
499.485	7895.43
499.689	7995.78
499.892	8049.03
500.095	8010.12
500.298	8335.74
500.501	8208.77
500.705	8393.09
500.908	8698.24
501.111	8663.42
501.314	8688
501.517	8776.06
501.72	8855.93
501.923	8806.78
502.126	8872.31
502.329	9257.33
502.532	9255.28
502.735	9300.34
502.938	9511.28
503.141	9439.6
503.344	9578.86
503.547	9685.36
503.75	9736.56
503.953	10021.22
504.156	10006.89
504.359	10201.44
504.562	10291.55
504.765	10572.13
504.968	10502.5
505.17	10555.74
505.373	10529.12
505.576	10832.22
505.779	11014.49
505.982	11030.87
506.185	11325.78
506.387	11016.54
506.59	11252.05
506.793	11295.06
506.996	11331.92
507.198	11823.44
507.401	11731.28
507.604	11848.01
507.807	12122.44
508.009	12456.26
508.212	12370.24
508.415	12544.32
508.617	12828.99
508.82	12702.01
509.022	12785.98
509.225	13123.9
509.428	12988.73
509.63	13297.97
509.833	13201.72
510.035	13631.79
510.238	13328.69
510.44	13662.51
510.643	14022.95
510.845	13895.98
511.048	13996.33
511.25	14106.92
511.453	14412.07
511.655	14784.8
511.858	14731.55
512.06	14889.24
512.262	14940.44
512.465	15206.68
512.667	15288.6
512.87	15237.4
513.072	15229.21
513.274	15698.19
513.477	15859.98
513.679	15991.05
513.881	15884.56
514.084	16390.41
514.286	16351.49
514.488	16304.39
514.69	16869.63
514.893	16732.42
515.095	16935.17
515.297	17064.19
515.499	17215.74
515.701	17533.17
515.904	17547.51
516.106	17866.99
516.308	17619.19
516.51	17834.22
516.712	18143.47
516.914	18315.5
517.116	18770.15
517.318	18747.62
517.52	18845.92
517.722	18807.01
517.925	19282.14
518.127	19208.41
518.329	19460.31
518.531	19415.26
518.733	19740.88
518.935	20043.98
519.136	19968.21
519.338	20353.23
519.54	20111.57
519.742	20539.59
519.944	20680.9
520.146	20703.43
520.348	21074.11
520.55	21012.67
520.752	21176.51
520.954	21530.81
521.155	21487.8
521.357	21774.52
521.559	22192.3
521.761	22388.91
521.963	22110.38
522.164	22440.11
522.366	22700.2
522.568	22915.23
522.77	22896.8
522.971	22866.08
523.173	23199.9
523.375	23330.97
523.576	23333.02
523.778	23308.44
523.98	23570.58
524.181	23791.76
524.383	24144.02
524.584	23998.61
524.786	24301.71
524.988	23746.71
525.189	24473.74
525.391	24658.06
525.592	24590.47
525.794	24727.69
525.995	24977.54
526.197	25112.7
526.398	24975.49
526.6	25251.97
526.801	25225.34
527.003	25385.08
527.204	25321.6
527.406	25540.73
527.607	25772.15
527.808	25886.84
528.01	25645.18
528.211	25335.93
528.412	26157.17
528.614	25954.42
528.815	26009.72
529.016	26140.79
529.218	26040.43
529.419	26247.28
529.62	26216.56
529.822	26282.09
530.023	26462.32
530.224	26466.41
530.425	26409.07
530.626	26390.64
530.828	26380.4
531.029	26992.74
531.23	26630.25
531.431	26601.58
531.632	26851.43
531.833	26759.27
532.035	26902.63
532.236	26996.84
532.437	26982.5
532.638	26884.2
532.839	26953.83
533.04	26945.64
533.241	26654.83
533.442	27123.81
533.643	26757.22
533.844	27072.61
534.045	27181.15
534.246	26982.5
534.447	27197.54
534.648	27314.27
534.849	27066.47
535.05	26972.26
535.251	26667.11
535.451	27207.78
535.652	27134.05
535.853	26646.63
536.054	27197.54
536.255	27504.73
536.456	26853.48
536.657	27457.63
536.857	27121.76
537.058	26587.24
537.259	27398.24
537.46	27050.08
537.66	27136.1
537.861	26882.15
538.062	26757.22
538.263	27156.58
538.463	26902.63
538.664	26818.66
538.865	26738.79
539.065	26941.54
539.266	26540.14
539.466	27166.82
539.667	26669.16
539.868	27136.1
540.068	27062.37
540.269	27048.04
540.469	27265.12
540.67	26589.29
540.87	26742.89
541.071	26658.92
541.271	26923.11
541.472	26744.94
541.672	26773.61
541.873	26929.25
542.073	26560.62
542.274	26976.36
542.474	26630.25
542.675	26847.33
542.875	26656.87
543.075	26855.53
543.276	26544.23
543.476	26851.43
543.676	26349.68
543.877	26837.09
544.077	26853.48
544.277	26730.6
544.478	26843.24
544.678	26603.63
544.878	26835.05
545.078	26785.9
545.279	26562.67
545.479	26663.02
545.679	26843.24
545.879	26222.7
546.079	26415.21
546.28	26382.45
546.48	26423.4
546.68	26439.79
546.88	26464.36
547.08	26669.16
547.28	26620.01
547.48	26462.32
547.68	26595.43
547.88	26509.42
548.081	26241.14
548.281	26566.76
548.481	26626.15
548.681	26534
548.881	26443.88
549.081	26804.33
549.28	26396.78
549.48	26544.23
549.68	26253.42
549.88	26632.3
550.08	26390.64
550.28	26523.76
550.48	26513.52
550.68	26445.93
550.88	26527.85
551.08	26466.41
551.279	26648.68
551.479	26218.61
551.679	26228.85
551.879	26208.37
552.079	26554.47
552.278	26304.62
552.478	26398.83
552.678	26280.05
552.878	26517.61
553.077	26280.05
553.277	26304.62
553.477	26339.44
553.676	26243.18
553.876	26386.54
554.076	26267.76
554.275	26173.55
554.475	25921.65
554.674	26224.75
554.874	26458.22
555.074	26132.59
555.273	26237.04
555.473	26148.98
555.672	26126.45
555.872	26052.72
556.071	25985.14
556.271	26396.78
556.47	25632.89
556.67	25643.13
556.869	25927.8
557.068	26273.9
557.268	25725.05
557.467	25700.47
557.667	25897.08
557.866	25802.87
558.065	25639.03
558.265	25507.96
558.464	25577.59
558.663	25739.38
558.863	25526.39
559.062	25966.71
559.261	25399.42
559.461	25888.88
559.66	25491.58
559.859	25665.66
560.058	25174.14
560.258	25512.06
560.457	25348.22
560.656	25639.03
560.855	25387.13
561.054	25469.05
561.253	25211.01
561.453	25376.89
561.652	25456.76
561.851	25467
562.05	25004.16
562.249	25174.14
562.448	25049.22
562.647	25383.04
562.846	25018.5
563.045	25184.38
563.244	24793.22
563.443	24909.96
563.642	24615.05
563.841	24815.75
564.04	24658.06
564.239	25028.74
564.438	24633.48
564.637	24744.07
564.836	24486.03
565.035	24217.74
565.234	24631.43
565.432	24287.37
565.631	24391.82
565.83	24443.02
566.029	24053.9
566.228	24129.68
566.427	24000.66
566.625	24139.92
566.824	23881.88
567.023	23971.99
567.222	23677.08
567.42	24027.28
567.619	23986.32
567.818	23845.01
568.016	23775.38
568.215	24058
568.414	23457.95
568.612	23965.84
568.811	23513.24
569.01	23476.38
569.208	23163.04
569.407	23625.88
569.605	23142.56
569.804	23400.6
570.002	23029.92
570.201	23158.94
570.4	23253.15
570.598	23029.92
570.797	22640.81
570.995	23027.87
571.193	22806.69
571.392	22948
571.59	22722.73
571.789	23015.58
571.987	22548.65
572.186	22456.49
572.384	22612.13
572.582	22474.92
572.781	22800.55
572.979	22372.52
573.177	22481.06
573.376	22323.37
573.574	22290.6
573.772	22024.37
573.971	22388.91
574.169	22304.94
574.367	22050.99
574.565	21977.26
574.763	21762.23
574.962	21860.53
575.16	21694.64
575.358	22005.94
575.556	21504.18
575.754	21706.93
575.952	21506.23
576.151	21717.17
576.349	21385.4
576.547	21495.99
576.745	21532.86
576.943	21360.83
577.141	21512.38
577.339	21608.63
577.537	21119.17
577.735	21096.64
577.933	21047.49
578.131	21141.69
578.329	20904.13
578.527	20723.91
578.725	21012.67
578.923	20859.07
579.121	20734.15
579.319	20484.3
579.516	20576.45
579.714	20713.67
579.912	20461.77
580.11	20566.21
580.308	20482.25
580.506	20181.2
580.704	19914.96
580.901	20345.03
581.099	20439.24
581.297	20078.8
581.495	20130
581.692	20121.8
581.89	20066.51
582.088	20365.51
582.285	19605.72
582.483	19994.83
582.681	20256.97
582.878	19765.46
583.076	19794.13
583.274	19820.75
583.471	19536.09
583.669	19669.2
583.866	19423.45
584.064	19460.31
584.262	19353.82
584.459	19488.98
584.657	19222.75
584.854	19359.96
585.052	19022.05
585.249	19312.86
585.447	19286.23
585.644	18796.77
585.841	19034.33
586.039	19306.71
586.236	18606.31
586.434	18882.78
586.631	19036.38
586.828	18677.99
587.026	18833.63
587.223	18811.1
587.42	18749.67
587.618	18718.95
587.815	18450.66
588.012	18393.32
588.21	18270.44
588.407	18407.66
588.604	18360.55
588.801	18016.49
588.999	18262.25
589.196	18137.32
589.393	18235.63
589.59	17875.18
589.787	18217.19
589.984	17850.61
590.182	17723.63
590.379	18147.56
590.576	17823.98
590.773	18065.64
590.97	17656.05
591.167	17932.53
591.364	17572.08
591.561	17533.17
591.758	17285.37
591.955	17316.09
592.152	17668.34
592.349	17217.79
592.546	17393.91
592.743	17389.81
592.94	16955.65
593.137	17289.46
593.334	17275.13
593.531	17123.58
593.727	17211.64
593.924	17006.84
594.121	16701.7
594.318	16916.73
594.515	16732.42
594.712	17027.32
594.908	16756.99
595.105	16791.81
595.302	16759.04
595.499	16523.52
595.696	16793.86
595.892	16378.12
596.089	16654.59
596.286	16392.45
596.482	16429.32
596.679	16507.14
596.876	16212.23
597.072	16279.82
597.269	16277.77
597.466	16226.57
597.662	16122.12
597.859	16197.9
598.055	16044.3
598.252	16105.74
598.448	16425.22
598.645	16003.34
598.841	15827.21
599.038	15884.56
599.234	15503.64
599.431	15679.76
599.627	15843.6
599.824	15876.37
600.02	15636.75
600.217	15577.36
600.413	15431.96
600.609	15477.01
600.806	15268.12
601.002	15307.03
601.198	15436.05
601.395	15194.39
601.591	15055.13
601.787	15251.74
601.984	15048.99
602.18	15315.22
602.376	15173.91
602.572	14948.64
602.769	15135
602.965	14623.01
603.161	14983.45
603.357	14786.85
603.553	14836
603.75	14917.92
603.946	14674.21
604.142	14848.29
604.338	14666.02
604.534	14467.36
604.73	14295.33
604.926	14426.4
605.122	14317.86
605.318	14213.42
605.514	14360.87
605.71	14328.1
605.906	14334.25
606.102	14373.16
606.298	14332.2
606.494	14283.05
606.69	14180.65
606.886	14131.5
607.082	13977.9
607.278	14356.77
607.474	14113.06
607.67	14199.08
607.866	13721.9
608.062	14033.19
608.257	14055.72
608.453	14000.43
608.649	13812.01
608.845	13515.06
609.041	13893.93
609.236	13912.36
609.432	13580.59
609.628	13732.14
609.824	13605.17
610.019	13445.43
610.215	13408.56
610.411	13695.28
610.606	13439.28
610.802	13484.34
610.998	13617.46
611.193	13500.72
611.389	13443.38
611.584	13248.82
611.78	13257.01
611.976	13379.89
612.171	13422.9
612.367	13398.32
612.562	13295.93
612.758	13005.11
612.953	12941.63
613.149	13582.64
613.344	13060.41
613.539	13316.4
613.735	13211.96
613.93	13201.72
614.126	12890.43
614.321	13281.59
614.517	13035.83
614.712	13048.12
614.907	13064.5
615.103	13076.79
615.298	12704.06
615.493	12886.33
615.688	12826.94
615.884	13097.27
616.079	12656.96
616.274	12736.83
616.47	12859.71
616.665	12872
616.86	12853.56
617.055	12562.75
617.25	12525.89
617.445	12767.55
617.641	12591.42
617.836	12767.55
618.031	12419.39
618.226	12413.25
618.421	12503.36
618.616	12736.83
618.811	12226.89
619.006	12499.27
619.201	12366.15
619.396	12276.04
619.591	12190.02
619.786	12233.03
619.981	11983.18
620.176	12130.63
620.371	12132.68
620.566	11927.88
620.761	11712.85
620.956	11956.55
621.151	11645.26
621.346	11708.75
621.541	11788.62
621.735	11747.66
621.93	11286.87
622.125	11395.41
622.32	11325.78
622.515	11594.06
622.709	11497.81
622.904	11256.15
623.099	11309.4
623.294	11278.68
623.488	11059.54
623.683	10985.82
623.878	11022.68
624.072	11157.85
624.267	11086.17
624.462	10760.54
624.656	10850.65
624.851	10989.91
625.046	10928.47
625.24	10416.48
625.435	10570.08
625.629	10723.68
625.824	10340.71
626.018	10529.12
626.213	10377.57
626.407	10367.33
626.602	10166.63
626.796	10246.5
626.991	10289.51
627.185	10097
627.38	10103.14
627.574	10021.22
627.768	10031.46
627.963	9947.5
628.157	9650.54
628.352	9777.51
628.546	9787.75
628.74	9789.8
628.935	9609.58
629.129	9591.15
629.323	9613.68
629.517	9507.18
629.712	9396.59
629.906	9304.43
630.1	9146.74
630.294	9386.35
630.489	9077.11
630.683	9298.29
630.877	9011.57
631.071	8982.9
631.265	9113.97
631.459	8956.28
631.653	8921.46
631.848	8939.9
632.042	8839.55
632.236	8808.83
632.43	8604.03
632.624	8673.66
632.818	8667.52
633.012	8501.63
633.206	8546.69
633.4	8563.07
633.594	8540.54
633.788	8479.1
633.982	8538.49
634.176	8407.42
634.369	8319.36
634.563	8219.01
634.757	8216.96
634.951	8288.64
635.145	8071.56
635.339	8173.96
635.533	7926.15
635.726	8022.41
635.92	8032.65
636.114	8108.42
636.308	7838.09
636.501	7858.57
636.695	7555.47
636.889	7647.63
637.083	7813.51
637.276	7659.92
637.47	7416.21
637.664	7766.41
637.857	7553.42
638.051	7627.15
638.244	7539.08
638.438	7502.22
638.632	7463.31
638.825	7197.07
639.019	7299.47
639.212	7303.57
639.406	7188.88
639.599	7145.87
639.793	7078.29
639.986	7258.51
640.18	7135.64
640.373	7037.33
640.567	6967.7
640.76	6979.99
640.954	6795.67
641.147	6973.85
641.34	6826.39
641.534	6877.59
641.727	6769.05
641.92	6713.75
642.114	6754.71
642.307	6883.73
642.5	6736.28
642.694	6486.43
642.887	6586.78
643.08	6666.65
643.273	6521.24
643.467	6511
643.66	6308.26
643.853	6367.65
644.046	6472.09
644.239	6367.65
644.432	6316.45
644.626	6277.54
644.819	6349.22
645.012	6183.33
645.205	6277.54
645.398	6310.3
645.591	6103.46
645.784	6117.79
645.977	6017.44
646.17	6189.47
646.363	6136.23
646.556	5931.43
646.749	5947.81
646.942	5941.67
647.135	5835.17
647.328	5728.68
647.521	5687.72
647.714	5743.02
647.907	5708.2
648.099	5669.29
648.292	5726.63
648.485	5786.02
648.678	5644.71
648.871	5747.11
649.064	5669.29
649.256	5562.8
649.449	5462.44
649.642	5497.26
649.835	5415.34
650.027	5534.12
650.22	5501.36
650.413	5407.15
650.605	5343.66
650.798	5382.57
650.991	5300.66
651.183	5237.17
651.376	5175.73
651.568	5259.7
651.761	5298.61
651.954	5251.5
652.146	5149.11
652.339	5058.99
652.531	5169.59
652.724	5050.8
652.916	4958.64
653.109	4966.84
653.301	4921.78
653.494	4852.15
653.686	4856.25
653.879	4882.87
654.071	4917.68
654.263	4950.45
654.456	4841.91
654.648	4827.57
654.84	4768.18
655.033	4817.33
655.225	4843.96
655.417	4657.59
655.61	4659.64
655.802	4772.28
655.994	4680.12
656.186	4628.92
656.379	4587.96
656.571	4669.88
656.763	4569.53
656.955	4438.46
657.148	4549.05
657.34	4483.52
657.532	4327.87
657.724	4364.73
657.916	4456.89
658.108	4327.87
658.3	4204.99
658.492	4370.88
658.684	4196.8
658.876	4202.94
659.068	4264.38
659.26	4280.77
659.452	4266.43
659.644	4104.64
659.836	4139.46
660.028	4258.24
660.22	4092.35
660.412	4221.38
660.604	4145.6
660.796	3992
660.988	4084.16
661.18	4186.56
661.372	3901.89
661.563	4018.63
661.755	3908.04
661.947	3932.61
662.139	4010.43
662.331	3951.04
662.522	3905.99
662.714	3981.76
662.906	3875.27
663.097	3897.8
663.289	3850.69
663.481	3893.7
663.673	3858.89
663.864	3709.38
664.056	3842.5
664.247	3695.05
664.439	3774.92
664.631	3662.28
664.822	3744.2
665.014	3664.33
665.205	3617.22
665.397	3549.64
665.588	3733.96
665.78	3572.17
665.971	3600.84
666.163	3604.94
666.354	3590.6
666.546	3500.49
666.737	3547.59
666.929	3498.44
667.12	3539.4
667.311	3512.78
667.503	3543.5
667.694	3580.36
667.885	3492.3
668.077	3500.49
668.268	3369.42
668.459	3424.72
668.651	3338.7
668.842	3375.56
669.033	3432.91
669.224	3320.27
669.416	3361.23
669.607	3297.74
669.798	3322.32
669.989	3451.34
670.18	3273.17
670.371	3295.69
670.563	3244.49
670.754	3361.23
670.945	3244.49
671.136	3301.84
671.327	3219.92
671.518	3285.45
671.709	3203.54
671.9	3072.47
672.091	3168.72
672.282	3181.01
672.473	3236.3
672.664	3113.42
672.855	3207.63
673.046	3238.35
673.237	3238.35
673.428	3228.11
673.619	3238.35
673.809	3273.17
674	3195.34
674.191	3203.54
674.382	3164.62
674.573	3187.15
674.764	3039.7
674.954	3123.66
675.145	3015.12
675.336	3037.65
675.527	2965.97
675.717	2933.2
675.908	3017.17
676.099	3037.65
676.289	2976.21
676.48	3070.42
676.671	2945.49
676.861	3015.12
677.052	3068.37
677.243	2933.2
677.433	3056.08
677.624	3029.46
677.814	2951.63
678.005	3084.75
678.195	3072.47
678.386	2894.29
678.576	2947.54
678.767	2925.01
678.957	2849.24
679.148	3051.99
679.338	2980.31
679.529	3039.7
679.719	2976.21
679.909	2929.11
680.1	2990.55
680.29	2996.69
680.481	2939.35
680.671	3207.63
680.861	2900.44
681.052	2929.11
681.242	3019.22
681.432	3023.31
681.622	2935.25
681.813	2916.82
682.003	2900.44
682.193	2978.26
682.383	3015.12
682.573	2910.68
682.764	2765.27
682.954	2822.61
683.144	2900.44
683.334	2798.04
683.524	2998.74
683.714	2996.69
683.904	3006.93
684.094	2849.24
684.284	2789.85
684.474	2951.63
684.664	2900.44
684.854	2865.62
685.044	2851.28
685.234	2802.13
685.424	2808.28
685.614	2867.67
685.804	2867.67
685.994	2904.53
686.184	2798.04
686.374	2720.21
686.564	2951.63
686.753	2709.97
686.943	2714.07
687.133	2785.75
687.323	2732.5
687.513	2769.37
687.702	2703.83
687.892	2664.92
688.082	2763.22
688.272	2771.41
688.461	2699.73
688.651	2802.13
688.841	2697.69
689.03	2722.26
689.22	2589.14
689.41	2597.34
689.599	2839
689.789	2707.93
689.979	2732.5
690.168	2617.82
690.358	2535.9
690.547	2673.11
690.737	2728.41
690.926	2691.54
691.116	2640.34
691.305	2539.99
691.495	2486.75
691.684	2556.38
691.874	2568.66
692.063	2529.75
692.252	2456.03
692.442	2613.72
692.631	2394.59
692.82	2574.81
693.01	2542.04
693.199	2597.34
693.388	2443.74
693.578	2464.22
693.767	2535.9
693.956	2460.12
694.146	2466.27
694.335	2400.73
694.524	2441.69
694.713	2394.59
694.902	2429.4
695.092	2376.16
695.281	2367.96
695.47	2386.4
695.659	2277.85
695.848	2310.62
696.037	2337.24
696.226	2425.31
696.415	2208.22
696.604	2376.16
696.793	2345.44
696.982	2333.15
697.171	2329.05
697.36	2269.66
697.549	2339.29
697.738	2294.24
697.927	2343.39
698.116	2232.8
698.305	2427.35
698.494	2294.24
698.683	2370.01
698.872	2339.29
699.061	2314.72
699.25	2378.2
699.438	2216.41
699.627	2169.31
699.816	2316.76
700.005	2206.17
700.193	2232.8
700.382	2451.93
700.571	2232.8
700.76	2347.48
700.948	2382.3
701.137	2216.41
701.326	2320.86
701.514	2204.13
701.703	2179.55
701.892	2341.34
702.08	2327
702.269	2306.52
702.457	2306.52
702.646	2191.84
702.834	2298.33
703.023	2169.31
703.212	2294.24
703.4	2218.46
703.589	2187.74
703.777	2232.8
703.965	2312.67
704.154	2236.89
704.342	2212.32
704.531	2177.5
704.719	2195.93
704.907	2251.23
705.096	2146.78
705.284	2228.7
705.472	2279.9
705.661	2183.65
705.849	2142.69
706.037	2142.69
706.226	2312.67
706.414	2279.9
706.602	2216.41
706.79	2296.28
706.979	2126.3
707.167	2296.28
707.355	2208.22
707.543	2220.51
707.731	2218.46
707.919	2265.57
708.107	2150.88
708.296	2288.09
708.484	2144.74
708.672	2216.41
708.86	2357.72
709.048	2187.74
709.236	2036.19
709.424	2114.02
709.612	2253.28
709.8	2144.74
709.988	2222.56
710.176	2236.89
710.364	2294.24
710.551	2165.21
710.739	2220.51
710.927	2247.13
711.115	2212.32
711.303	2183.65
711.491	2210.27
711.679	2302.43
711.866	2240.99
712.054	2085.34
712.242	2191.84
712.43	2167.26
712.617	2187.74
712.805	2120.16
712.993	2189.79
713.181	2179.55
713.368	2222.56
713.556	2189.79
713.744	2111.97
713.931	2187.74
714.119	2152.93
714.306	2191.84
714.494	2228.7
714.682	2236.89
714.869	2132.45
715.057	2245.09
715.244	2169.31
715.432	2173.41
715.619	2146.78
715.807	2171.36
715.994	2171.36
716.182	2195.93
716.369	2208.22
716.556	2214.37
716.744	2111.97
716.931	2142.69
717.119	2105.82
717.306	2230.75
717.493	2150.88
717.681	2191.84
717.868	2206.17
718.055	2124.26
718.242	2134.5
718.43	2232.8
718.617	2189.79
718.804	2101.73
718.991	2130.4
719.179	2257.37
719.366	2161.12
719.553	2220.51
719.74	2099.68
719.927	2185.69
720.114	2107.87
720.301	2032.1
720.488	2144.74
720.676	2140.64
720.863	2259.42
721.05	2177.5
721.237	2126.3
721.424	2189.79
721.611	2247.13
721.798	2163.17
721.985	2146.78
722.172	2234.85
722.358	2107.87
722.545	2089.44
722.732	2185.69
722.919	2116.06
723.106	2212.32
723.293	2105.82
723.48	2144.74
723.667	2048.48
723.853	2136.54
724.04	2138.59
724.227	2062.82
724.414	2126.3
724.6	2148.83
724.787	2109.92
724.974	2175.45
725.161	2085.34
725.347	2032.1
725.534	2238.94
725.72	2208.22
725.907	2079.2
726.094	2105.82
726.28	2085.34
726.467	2120.16
726.653	2052.58
726.84	2165.21
727.027	2101.73
727.213	2044.38
727.4	2132.45
727.586	2183.65
727.773	2132.45
727.959	2154.98
728.145	2099.68
728.332	2101.73
728.518	2089.44
728.705	2075.1
728.891	2236.89
729.077	2038.24
729.264	2148.83
729.45	2167.26
729.636	2138.59
729.823	2126.3
730.009	2048.48
730.195	2189.79
730.382	2105.82
730.568	2105.82
730.754	2195.93
730.94	2099.68
731.126	2146.78
731.313	2036.19
731.499	2079.2
731.685	2140.64
731.871	2097.63
732.057	2109.92
732.243	2157.02
732.429	2111.97
732.615	2079.2
732.801	2114.02
732.987	2040.29
733.173	2228.7
733.359	2073.06
733.545	1993.19
733.731	2077.15
733.917	2089.44
734.103	2148.83
734.289	2001.38
734.475	2105.82
734.661	2040.29
734.847	2159.07
735.033	2208.22
735.219	2101.73
735.404	2140.64
735.59	2087.39
735.776	2048.48
735.962	2124.26
736.148	2171.36
736.333	2126.3
736.519	2036.19
736.705	2056.67
736.89	2105.82
737.076	2071.01
737.262	2017.76
737.447	2048.48
737.633	1970.66
737.819	2001.38
738.004	2017.76
738.19	2028
738.375	1927.65
738.561	2212.32
738.747	2138.59
738.932	2044.38
739.118	2095.58
739.303	2056.67
739.489	1978.85
739.674	1999.33
739.859	1991.14
740.045	2050.53
740.23	2019.81
740.416	1968.61
740.601	2044.38
740.786	1874.4
740.972	1786.34
741.157	1929.7
741.342	1876.45
741.528	1982.95
741.713	1919.46
741.898	1958.37
742.084	1894.88
742.269	2015.71
742.454	1894.88
742.639	1839.59
742.824	1903.07
743.01	1929.7
743.195	1868.26
743.38	1888.74
743.565	1946.08
743.75	1913.31
743.935	1909.22
744.12	1948.13
744.305	1876.45
744.49	1833.44
744.675	1794.53
744.86	1909.22
745.045	1810.92
745.23	1798.63
745.415	1774.05
745.6	1800.68
745.785	1810.92
745.97	1835.49
746.155	1774.05
746.34	1784.29
746.525	1690.09
746.71	1716.71
746.895	1757.67
747.079	1618.41
747.264	1702.37
747.449	1806.82
747.634	1810.92
747.819	1675.75
748.003	1649.13
748.188	1583.59
748.373	1790.44
748.557	1599.98
748.742	1618.41
748.927	1628.65
749.111	1561.06
749.296	1587.69
749.481	1647.08
749.665	1556.97
749.85	1581.54
750.034	1497.58
750.219	1585.64
750.404	1522.15
750.588	1456.62
750.773	1450.47
750.957	1491.43
751.141	1487.34
751.326	1456.62
751.51	1425.9
751.695	1470.95
751.879	1423.85
752.064	1513.96
752.248	1464.81
752.432	1409.51
752.617	1497.58
752.801	1477.1
752.985	1386.99
753.17	1352.17
753.354	1329.64
753.538	1368.56
753.722	1294.83
753.907	1274.35
754.091	1323.5
754.275	1298.92
754.459	1239.53
754.643	1262.06
754.828	1339.88
755.012	1278.44
755.196	1286.64
755.38	1305.07
755.564	1210.86
755.748	1249.77
755.932	1182.19
756.116	1257.96
756.3	1133.04
756.484	1159.66
756.668	1276.4
756.852	1296.88
757.036	1192.43
757.22	1188.33
757.404	1094.13
757.588	1198.57
757.772	1151.47
757.956	1198.57
758.14	1112.56
758.323	1141.23
758.507	1094.13
758.691	1087.98
758.875	1108.46
759.059	1126.89
759.242	1087.98
759.426	971.25
759.61	1069.55
759.794	1024.5
759.977	1053.17
760.161	1087.98
760.345	1040.88
760.528	1094.13
760.712	1069.55
760.895	1034.74
761.079	995.82
761.263	946.67
761.446	942.58
761.63	1024.5
761.813	983.54
761.997	1004.02
762.18	979.44
762.364	1077.74
762.547	967.15
762.731	967.15
762.914	1001.97
763.098	895.47
763.281	883.19
763.464	932.34
763.648	969.2
763.831	926.19
764.015	926.19
764.198	975.35
764.381	942.58
764.564	918
764.748	954.87
764.931	909.81
765.114	885.23
765.297	840.18
765.481	819.7
765.664	813.56
765.847	924.15
766.03	862.71
766.213	926.19
766.397	786.93
766.58	854.51
766.763	922.1
766.946	735.73
767.129	811.51
767.312	877.04
767.495	836.08
767.678	877.04
767.861	883.19
768.044	788.98
768.227	795.12
768.41	856.56
768.593	836.08
768.776	823.8
768.959	815.6
769.142	756.21
769.324	682.49
769.507	770.55
769.69	735.73
769.873	854.51
770.056	786.93
770.239	819.7
770.421	803.32
770.604	709.11
770.787	711.16
770.97	764.4
771.152	737.78
771.335	721.4
771.518	733.68
771.7	772.6
771.883	786.93
772.066	758.26
772.248	754.16
772.431	674.29
772.613	745.97
772.796	614.9
772.978	745.97
773.161	721.4
773.343	686.58
773.526	666.1
773.708	719.35
773.891	672.25
774.073	602.61
774.256	649.72
774.438	627.19
774.621	559.61
774.803	633.33
774.985	592.37
775.168	639.48
775.35	580.09
775.532	635.38
775.715	659.96
775.897	608.76
776.079	657.91
776.261	596.47
776.444	557.56
776.626	588.28
776.808	635.38
776.99	549.37
777.173	590.33
777.355	604.66
777.537	625.14
777.719	516.6
777.901	522.74
778.083	512.5
778.265	541.18
778.447	569.85
778.629	549.37
778.811	483.83
778.993	537.08
779.175	494.07
779.357	504.31
779.539	549.37
779.721	510.46
779.903	504.31
780.085	557.56
780.267	510.46
780.449	485.88
780.631	471.54
780.812	541.18
780.994	467.45
781.176	430.59
781.358	434.68
781.54	453.11
781.721	512.5
781.903	453.11
782.085	453.11
782.267	477.69
782.448	401.91
782.63	399.87
782.812	451.07
782.993	430.59
783.175	489.98
783.357	360.95
783.538	434.68
783.72	453.11
783.901	469.5
784.083	463.35
784.264	303.61
784.446	346.62
784.627	373.24
784.809	434.68
784.99	395.77
785.172	379.39
785.353	377.34
785.535	320
785.716	401.91
785.897	401.91
786.079	393.72
786.26	358.91
786.441	303.61
786.623	320
786.804	338.43
786.985	299.52
787.167	410.11
787.348	307.71
787.529	379.39
787.71	352.76
787.891	354.81
788.073	283.13
788.254	256.51
788.435	348.67
788.616	274.94
788.797	334.33
788.978	338.43
789.159	320
789.34	371.19
789.522	336.38
789.703	266.75
789.884	217.6
790.065	281.08
790.246	344.57
790.427	352.76
790.607	352.76
790.788	348.67
790.969	262.65
791.15	336.38
791.331	262.65
791.512	260.6
791.693	270.84
791.874	291.32
792.054	313.85
792.235	258.56
792.416	268.8
792.597	281.08
792.778	320
792.958	266.75
793.139	279.04
793.32	287.23
793.5	266.75
793.681	279.04
793.862	285.18
794.042	190.97
794.223	193.02
794.404	238.08
794.584	211.45
794.765	172.54
794.945	205.31
795.126	287.23
795.306	283.13
795.487	211.45
795.667	256.51
795.848	250.36
796.028	213.5
796.209	289.28
796.389	258.56
796.57	281.08
796.75	213.5
796.93	125.44
797.111	166.4
797.291	197.12
797.471	184.83
797.652	238.08
797.832	223.74
798.012	184.83
798.192	250.36
798.373	131.58
798.553	162.3
798.733	264.7
798.913	231.93
799.093	233.98
799.274	182.78
799.454	180.73
799.634	193.02
799.814	205.31
799.994	182.78
800.174	193.02
800.354	123.39
800.534	209.4
800.714	213.5
800.894	147.97
801.074	180.73
801.254	166.4
801.434	147.97
801.614	152.06
801.794	199.16
801.974	702.97
802.154	145.92
802.334	217.6
802.514	123.39
802.693	244.22
802.873	166.4
803.053	164.35
803.233	172.54
803.413	152.06
803.592	115.2
803.772	182.78
803.952	164.35
804.131	133.63
804.311	158.21
804.491	117.25
804.67	164.35
804.85	154.11
805.03	111.1
805.209	201.21
805.389	152.06
805.568	166.4
805.748	164.35
805.928	100.86
806.107	162.3
806.287	150.01
806.466	131.58
806.646	147.97
806.825	129.53
807.004	188.93
807.184	199.16
807.363	174.59
807.543	209.4
807.722	82.43
807.901	197.12
808.081	164.35
808.26	145.92
808.439	168.45
808.619	80.38
808.798	92.67
808.977	238.08
809.156	233.98
809.336	76.29
809.515	190.97
809.694	78.33
809.873	131.58
810.052	133.63
810.231	158.21
810.411	150.01
810.59	115.2
810.769	76.29
810.948	168.45
811.127	94.72
811.306	176.64
811.485	127.49
811.664	166.4
811.843	119.29
812.022	115.2
812.201	147.97
812.38	98.81
812.559	100.86
812.737	156.16
812.916	61.95
813.095	131.58
813.274	64
813.453	158.21
813.632	156.16
813.811	74.24
813.989	123.39
814.168	156.16
814.347	45.57
814.526	131.58
814.704	72.19
814.883	127.49
815.062	96.77
815.24	111.1
815.419	129.53
815.598	33.28
815.776	55.81
815.955	107.01
816.133	127.49
816.312	90.62
816.49	150.01
816.669	86.53
816.847	76.29
817.026	61.95
817.204	68.09
817.383	147.97
817.561	57.86
817.74	147.97
817.918	98.81
818.097	84.48
818.275	-48.64
818.453	37.38
818.632	78.33
818.81	39.42
818.988	2.56
819.167	156.16
819.345	115.2
819.523	86.53
819.701	137.73
819.879	182.78
820.058	41.47
820.236	68.09
820.414	98.81
820.592	49.66
820.77	53.76
820.948	129.53
821.127	-40.45
821.305	158.21
821.483	-30.21
821.661	127.49
821.839	61.95
822.017	41.47
822.195	125.44
822.373	43.52
822.551	78.33
822.729	10.75
822.907	98.81
823.085	113.15
823.262	98.81
823.44	74.24
823.618	74.24
823.796	117.25
823.974	92.67
824.152	66.05
824.329	29.18
824.507	25.09
824.685	76.29
824.863	90.62
825.04	74.24
825.218	113.15
825.396	98.81
825.574	131.58
825.751	72.19
825.929	168.45
826.107	18.94
826.284	49.66
826.462	92.67
826.639	98.81
826.817	33.28
826.994	152.06
827.172	0.51
827.349	64
827.527	53.76
827.704	78.33
827.882	51.71
828.059	35.33
828.237	59.9
828.414	74.24
828.591	33.28
828.769	0.51
828.946	18.94
829.124	57.86
829.301	86.53
829.478	66.05
829.655	27.14
829.833	-5.63
830.01	-7.68
830.187	158.21
830.364	45.57
830.542	107.01
830.719	27.14
830.896	102.91
831.073	78.33
831.25	-3.58
831.427	53.76
831.604	43.52
831.782	107.01
831.959	43.52
832.136	-22.02
832.313	74.24
832.49	-1.54
832.667	41.47
832.844	-28.16
833.021	141.82
833.198	20.99
833.374	72.19
833.551	33.28
833.728	68.09
833.905	29.18
834.082	37.38
834.259	29.18
834.436	90.62
834.612	64
834.789	107.01
834.966	41.47
835.143	70.14
835.319	18.94
835.496	25.09
835.673	66.05
835.85	10.75
836.026	12.8
836.203	51.71
836.38	0.51
836.556	18.94
836.733	139.77
836.909	102.91
837.086	43.52
837.262	8.7
837.439	-3.58
837.616	68.09
837.792	27.14
837.968	98.81
838.145	-9.73
838.321	33.28
838.498	12.8
838.674	29.18
838.851	49.66
839.027	33.28
839.203	47.62
839.38	-13.82
839.556	33.28
839.732	61.95
839.909	51.71
840.085	74.24
840.261	-11.78
840.437	18.94
840.614	33.28
840.79	74.24
840.966	-19.97
841.142	0.51
841.318	-54.78
841.494	-44.54
841.671	49.66
841.847	4.61
842.023	-36.35
842.199	86.53
842.375	137.73
842.551	6.66
842.727	45.57
842.903	92.67
843.079	-65.02
843.255	70.14
843.431	27.14
843.607	-1.54
843.783	-32.26
843.959	-9.73
844.134	-93.69
844.31	113.15
844.486	-46.59
844.662	-56.83
844.838	25.09
845.013	33.28
845.189	61.95
845.365	43.52
845.541	49.66
845.716	-5.63
845.892	94.72
846.068	66.05
846.244	27.14
846.419	-7.68
846.595	37.38
846.77	-44.54
846.946	80.38
847.122	41.47
847.297	43.52
847.473	82.43
847.648	-3.58
847.824	49.66
847.999	45.57
848.175	41.47
848.35	27.14
848.526	25.09
848.701	53.76
848.876	-46.59
849.052	43.52
849.227	10.75
849.403	-22.02
849.578	4.61
849.753	-3.58
849.929	66.05
850.104	-32.26
850.279	41.47
850.454	59.9
850.63	-52.74
850.805	-3.58
850.98	18.94
851.155	-9.73
851.33	-44.54
851.505	29.18
851.681	66.05
851.856	33.28
852.031	74.24
852.206	8.7
852.381	-30.21
852.556	20.99
852.731	33.28
852.906	107.01
853.081	16.9
853.256	4.61
853.431	-52.74
853.606	10.75
853.781	-36.35
853.956	-30.21
854.131	-5.63
854.305	6.66
854.48	2.56
854.655	27.14
854.83	-32.26
855.005	-13.82
855.18	8.7
855.354	35.33
855.529	-32.26
855.704	2.56
855.879	86.53
856.053	-3.58
856.228	59.9
856.403	-65.02
856.577	8.7
856.752	37.38
856.926	-56.83
857.101	-38.4
857.276	-24.06
857.45	12.8
857.625	59.9
857.799	-26.11
857.974	27.14
858.148	-87.55
858.323	12.8
858.497	-48.64
858.672	-24.06
858.846	-28.16
859.02	-32.26
859.195	-15.87
859.369	33.28
859.543	70.14
859.718	-44.54
859.892	-17.92
860.066	84.48
860.241	14.85
860.415	-15.87
860.589	-15.87
860.763	35.33
860.938	29.18
861.112	45.57
861.286	-42.5
861.46	35.33
861.634	-3.58
861.808	84.48
861.982	0.51
862.157	12.8
862.331	-67.07
862.505	-89.6
862.679	-26.11
862.853	-42.5
863.027	-60.93
863.201	-34.3
863.375	-69.12
863.549	100.86
863.722	-5.63
863.896	2.56
864.07	2.56
864.244	53.76
864.418	-7.68
864.592	45.57
864.766	-69.12
864.939	66.05
865.113	-50.69
865.287	0.51
865.461	-32.26
865.634	4.61
865.808	6.66
865.982	-65.02
866.156	0.51
866.329	-1.54
866.503	-34.3
866.676	107.01
866.85	29.18
867.024	31.23
867.197	-34.3
867.371	-13.82
867.544	-7.68
867.718	-56.83
867.891	18.94
868.065	-13.82
868.238	-34.3
868.412	14.85
868.585	20.99
868.759	-24.06
868.932	4.61
869.105	-19.97
869.279	29.18
869.452	-38.4
869.625	27.14
869.799	33.28
869.972	-36.35
870.145	0.51
870.319	-11.78
870.492	-60.93
870.665	-19.97
870.838	-19.97
871.011	-5.63
871.185	57.86
871.358	-44.54
871.531	-22.02
871.704	-1.54
871.877	0.51
872.05	4.61
872.223	41.47
872.396	20.99
872.569	25.09
872.742	-15.87
872.915	35.33
873.088	12.8
873.261	-89.6
873.434	14.85
873.607	-19.97
873.78	8.7
873.953	-15.87
874.126	-13.82
874.299	57.86
874.471	-19.97
874.644	0.51
874.817	-38.4
874.99	-5.63
875.163	-11.78
875.335	16.9
875.508	-28.16
875.681	25.09
875.853	-28.16
876.026	33.28
876.199	-89.6
876.371	14.85
876.544	35.33
876.717	-30.21
876.889	8.7
877.062	-69.12
877.234	53.76
877.407	31.23
877.579	23.04
877.752	35.33
877.924	-24.06
878.097	66.05
878.269	-54.78
878.442	18.94
878.614	20.99
878.786	10.75
878.959	-71.17
879.131	-7.68
879.303	-89.6
879.476	4.61
879.648	74.24
879.82	-13.82
879.993	49.66
880.165	0.51
880.337	-36.35
880.509	-3.58
880.681	-48.64
880.854	-40.45
881.026	-15.87
881.198	16.9
881.37	-65.02
881.542	-17.92
881.714	-19.97
881.886	18.94
882.058	-65.02
882.23	-54.78
882.402	-89.6
882.574	-13.82
882.746	8.7
882.918	-15.87
883.09	-32.26
883.262	-46.59
883.434	-56.83
883.606	-38.4
883.778	-22.02
883.95	-54.78
884.122	23.04
884.293	2.56
884.465	-32.26
884.637	-1.54
884.809	-28.16
884.98	-48.64
885.152	-105.98
885.324	-22.02
885.496	-15.87
885.667	20.99
885.839	-101.89
886.011	72.19
886.182	-17.92
886.354	20.99
886.525	-24.06
886.697	20.99
886.869	-3.58
887.04	-24.06
887.212	18.94
887.383	117.25
887.555	-42.5
887.726	-15.87
887.897	-1.54
888.069	53.76
888.24	25.09
888.412	2.56
888.583	18.94
888.754	-7.68
888.926	-38.4
889.097	49.66
889.268	-15.87
889.44	-65.02
889.611	-62.98
889.782	-22.02
889.953	-15.87
890.125	8.7
890.296	-97.79
890.467	-19.97
890.638	-15.87
890.809	-7.68
890.98	-38.4
891.151	10.75
891.323	2.56
891.494	6.66
891.665	-87.55
891.836	16.9
892.007	-42.5
892.178	-30.21
892.349	35.33
892.52	16.9
892.691	25.09
892.862	35.33
893.032	-5.63
893.203	33.28
893.374	8.7
893.545	43.52
893.716	-73.21
893.887	-13.82
894.057	-32.26
894.228	-69.12
894.399	-87.55
894.57	49.66
894.74	-62.98
894.911	-13.82
895.082	-1.54
895.253	25.09
895.423	20.99
895.594	16.9
895.764	41.47
895.935	-1.54
896.106	-42.5
896.276	-34.3
896.447	-46.59
896.617	4.61
896.788	-77.31
896.958	0.51
897.129	-15.87
897.299	8.7
897.47	-36.35
897.64	-7.68
897.81	-13.82
897.981	-24.06
898.151	-40.45
898.322	-40.45
898.492	-26.11
898.662	-87.55
898.832	-36.35
899.003	35.33
899.173	18.94
899.343	-50.69
899.513	-81.41
