Data from USB4F104151__163__14-19-42-963.txt Node

Date: Thu Mar 13 14:19:42 EDT 2025
User: louis
Spectrometer: USB4F10415
Trigger mode: 4
Integration Time (sec): 2.000000E-2
Scans to average: 1
Electric dark correction enabled: true
Nonlinearity correction enabled: false
Boxcar width: 0
XAxis mode: Wavelengths
Number of Pixels in Spectrum: 3648
>>>>>Begin Spectral Data<<<<<
178.204	-101.89
178.424	-101.89
178.644	-101.89
178.864	-124.41
179.084	-65.02
179.304	-42.5
179.524	-17.92
179.744	-15.87
179.964	49.66
180.184	31.23
180.404	31.23
180.624	51.71
180.844	31.23
181.064	-36.35
181.283	-5.63
181.503	-67.07
181.723	-9.73
181.943	31.23
182.163	68.09
182.383	47.62
182.602	154.11
182.822	41.47
183.042	31.23
183.262	23.04
183.482	-11.78
183.701	-46.59
183.921	64
184.141	8.7
184.361	90.62
184.58	23.04
184.8	-1.54
185.02	47.62
185.239	98.81
185.459	84.48
185.679	115.2
185.898	16.9
186.118	74.24
186.338	82.43
186.557	25.09
186.777	-36.35
186.997	66.05
187.216	84.48
187.436	100.86
187.655	23.04
187.875	123.39
188.095	39.42
188.314	78.33
188.534	59.9
188.753	-13.82
188.973	96.77
189.192	76.29
189.412	47.62
189.631	107.01
189.851	47.62
190.07	84.48
190.29	45.57
190.509	-17.92
190.729	27.14
190.948	96.77
191.168	184.83
191.387	55.81
191.607	80.38
191.826	88.57
192.045	61.95
192.265	61.95
192.484	66.05
192.704	72.19
192.923	43.52
193.142	147.97
193.362	-42.5
193.581	104.96
193.8	43.52
194.02	25.09
194.239	43.52
194.458	100.86
194.678	64
194.897	88.57
195.116	94.72
195.335	61.95
195.555	25.09
195.774	82.43
195.993	47.62
196.212	39.42
196.432	-22.02
196.651	14.85
196.87	-1.54
197.089	147.97
197.308	8.7
197.528	47.62
197.747	45.57
197.966	41.47
198.185	78.33
198.404	33.28
198.623	23.04
198.842	49.66
199.062	98.81
199.281	53.76
199.5	-9.73
199.719	96.77
199.938	33.28
200.157	61.95
200.376	33.28
200.595	117.25
200.814	-3.58
201.033	18.94
201.252	43.52
201.471	125.44
201.69	53.76
201.909	76.29
202.128	2.56
202.347	82.43
202.566	12.8
202.785	-19.97
203.004	49.66
203.223	45.57
203.442	57.86
203.661	-26.11
203.879	47.62
204.098	47.62
204.317	90.62
204.536	72.19
204.755	80.38
204.974	6.66
205.193	45.57
205.411	137.73
205.63	47.62
205.849	61.95
206.068	55.81
206.287	55.81
206.505	53.76
206.724	64
206.943	-5.63
207.162	51.71
207.381	2.56
207.599	84.48
207.818	55.81
208.037	14.85
208.255	31.23
208.474	68.09
208.693	39.42
208.911	16.9
209.13	66.05
209.349	125.44
209.567	6.66
209.786	64
210.005	59.9
210.223	88.57
210.442	6.66
210.661	59.9
210.879	-9.73
211.098	55.81
211.316	-17.92
211.535	27.14
211.753	35.33
211.972	57.86
212.191	113.15
212.409	107.01
212.628	64
212.846	23.04
213.065	90.62
213.283	68.09
213.502	35.33
213.72	72.19
213.938	53.76
214.157	47.62
214.375	27.14
214.594	27.14
214.812	88.57
215.031	33.28
215.249	78.33
215.467	72.19
215.686	43.52
215.904	49.66
216.122	33.28
216.341	55.81
216.559	-19.97
216.778	2.56
216.996	33.28
217.214	49.66
217.432	33.28
217.651	33.28
217.869	16.9
218.087	57.86
218.306	47.62
218.524	18.94
218.742	41.47
218.96	137.73
219.179	23.04
219.397	35.33
219.615	74.24
219.833	47.62
220.051	123.39
220.27	107.01
220.488	66.05
220.706	29.18
220.924	25.09
221.142	41.47
221.36	68.09
221.578	55.81
221.796	31.23
222.015	43.52
222.233	-24.06
222.451	100.86
222.669	55.81
222.887	-30.21
223.105	74.24
223.323	64
223.541	-9.73
223.759	23.04
223.977	0.51
224.195	84.48
224.413	88.57
224.631	113.15
224.849	107.01
225.067	113.15
225.285	0.51
225.503	14.85
225.721	-34.3
225.939	94.72
226.157	39.42
226.375	133.63
226.592	47.62
226.81	119.29
227.028	57.86
227.246	49.66
227.464	104.96
227.682	107.01
227.9	82.43
228.117	135.68
228.335	49.66
228.553	45.57
228.771	23.04
228.989	-24.06
229.206	74.24
229.424	104.96
229.642	72.19
229.86	107.01
230.077	35.33
230.295	96.77
230.513	111.1
230.731	68.09
230.948	76.29
231.166	86.53
231.384	47.62
231.601	25.09
231.819	166.4
232.037	35.33
232.254	-30.21
232.472	39.42
232.689	49.66
232.907	-30.21
233.125	57.86
233.342	74.24
233.56	64
233.777	-7.68
233.995	23.04
234.213	96.77
234.43	-5.63
234.648	35.33
234.865	-58.88
235.083	23.04
235.3	23.04
235.518	72.19
235.735	80.38
235.953	64
236.17	74.24
236.388	107.01
236.605	51.71
236.822	147.97
237.04	43.52
237.257	59.9
237.475	74.24
237.692	37.38
237.909	27.14
238.127	98.81
238.344	39.42
238.562	43.52
238.779	14.85
238.996	-13.82
239.214	61.95
239.431	59.9
239.648	47.62
239.865	64
240.083	141.82
240.3	59.9
240.517	90.62
240.735	31.23
240.952	82.43
241.169	94.72
241.386	57.86
241.603	47.62
241.821	47.62
242.038	47.62
242.255	115.2
242.472	27.14
242.689	49.66
242.907	74.24
243.124	76.29
243.341	80.38
243.558	31.23
243.775	8.7
243.992	-11.78
244.209	88.57
244.426	117.25
244.643	41.47
244.86	96.77
245.078	53.76
245.295	6.66
245.512	49.66
245.729	66.05
245.946	111.1
246.163	47.62
246.38	55.81
246.597	131.58
246.814	31.23
247.031	66.05
247.248	64
247.464	121.34
247.681	68.09
247.898	33.28
248.115	39.42
248.332	16.9
248.549	113.15
248.766	72.19
248.983	74.24
249.2	107.01
249.417	68.09
249.633	66.05
249.85	98.81
250.067	80.38
250.284	-26.11
250.501	-7.68
250.717	143.87
250.934	14.85
251.151	64
251.368	27.14
251.585	47.62
251.801	27.14
252.018	76.29
252.235	70.14
252.451	39.42
252.668	70.14
252.885	100.86
253.102	27.14
253.318	117.25
253.535	90.62
253.752	121.34
253.968	39.42
254.185	14.85
254.401	82.43
254.618	68.09
254.835	70.14
255.051	80.38
255.268	8.7
255.484	121.34
255.701	14.85
255.917	14.85
256.134	-1.54
256.351	10.75
256.567	43.52
256.784	123.39
257	4.61
257.217	10.75
257.433	47.62
257.65	57.86
257.866	82.43
258.082	-28.16
258.299	41.47
258.515	88.57
258.732	14.85
258.948	0.51
259.165	43.52
259.381	64
259.597	27.14
259.814	104.96
260.03	12.8
260.246	64
260.463	84.48
260.679	47.62
260.895	-3.58
261.112	92.67
261.328	-13.82
261.544	35.33
261.761	88.57
261.977	47.62
262.193	82.43
262.409	43.52
262.626	68.09
262.842	76.29
263.058	45.57
263.274	86.53
263.49	43.52
263.707	113.15
263.923	-26.11
264.139	25.09
264.355	43.52
264.571	109.05
264.787	66.05
265.004	96.77
265.22	88.57
265.436	14.85
265.652	59.9
265.868	29.18
266.084	4.61
266.3	70.14
266.516	20.99
266.732	51.71
266.948	88.57
267.164	107.01
267.38	92.67
267.596	137.73
267.812	174.59
268.028	96.77
268.244	18.94
268.46	31.23
268.676	57.86
268.892	0.51
269.108	-24.06
269.324	23.04
269.54	-17.92
269.756	133.63
269.972	23.04
270.188	57.86
270.403	66.05
270.619	51.71
270.835	98.81
271.051	-1.54
271.267	6.66
271.483	29.18
271.698	45.57
271.914	51.71
272.13	104.96
272.346	94.72
272.562	59.9
272.777	92.67
272.993	49.66
273.209	72.19
273.425	55.81
273.64	94.72
273.856	49.66
274.072	27.14
274.287	-17.92
274.503	117.25
274.719	125.44
274.934	72.19
275.15	-17.92
275.366	23.04
275.581	39.42
275.797	-22.02
276.012	37.38
276.228	96.77
276.444	80.38
276.659	35.33
276.875	55.81
277.09	68.09
277.306	72.19
277.521	84.48
277.737	-1.54
277.952	88.57
278.168	37.38
278.383	0.51
278.599	66.05
278.814	70.14
279.03	33.28
279.245	96.77
279.461	59.9
279.676	90.62
279.892	113.15
280.107	70.14
280.322	31.23
280.538	49.66
280.753	35.33
280.969	8.7
281.184	64
281.399	104.96
281.615	35.33
281.83	123.39
282.045	53.76
282.26	55.81
282.476	43.52
282.691	76.29
282.906	86.53
283.122	88.57
283.337	74.24
283.552	-22.02
283.767	147.97
283.983	125.44
284.198	64
284.413	109.05
284.628	51.71
284.843	72.19
285.058	10.75
285.274	96.77
285.489	61.95
285.704	37.38
285.919	-7.68
286.134	-1.54
286.349	80.38
286.564	66.05
286.779	66.05
286.995	16.9
287.21	27.14
287.425	70.14
287.64	27.14
287.855	35.33
288.07	-5.63
288.285	113.15
288.5	127.49
288.715	84.48
288.93	33.28
289.145	53.76
289.36	-3.58
289.575	-58.88
289.79	74.24
290.004	39.42
290.219	76.29
290.434	59.9
290.649	10.75
290.864	47.62
291.079	88.57
291.294	57.86
291.509	59.9
291.724	64
291.938	115.2
292.153	82.43
292.368	84.48
292.583	55.81
292.798	16.9
293.012	90.62
293.227	137.73
293.442	147.97
293.657	55.81
293.871	53.76
294.086	39.42
294.301	121.34
294.516	137.73
294.73	72.19
294.945	72.19
295.16	18.94
295.374	68.09
295.589	80.38
295.804	31.23
296.018	115.2
296.233	82.43
296.447	55.81
296.662	49.66
296.877	104.96
297.091	49.66
297.306	123.39
297.52	39.42
297.735	57.86
297.949	104.96
298.164	176.64
298.378	64
298.593	96.77
298.807	12.8
299.022	96.77
299.236	166.4
299.451	25.09
299.665	96.77
299.88	29.18
300.094	115.2
300.309	59.9
300.523	35.33
300.737	74.24
300.952	98.81
301.166	55.81
301.381	53.76
301.595	2.56
301.809	64
302.024	-1.54
302.238	57.86
302.452	94.72
302.667	33.28
302.881	113.15
303.095	121.34
303.309	109.05
303.524	59.9
303.738	64
303.952	84.48
304.166	23.04
304.381	-17.92
304.595	64
304.809	14.85
305.023	86.53
305.237	33.28
305.452	25.09
305.666	74.24
305.88	39.42
306.094	31.23
306.308	37.38
306.522	57.86
306.736	27.14
306.95	55.81
307.164	76.29
307.379	2.56
307.593	125.44
307.807	80.38
308.021	82.43
308.235	18.94
308.449	-32.26
308.663	23.04
308.877	82.43
309.091	152.06
309.305	66.05
309.519	59.9
309.733	76.29
309.947	23.04
310.161	35.33
310.374	90.62
310.588	80.38
310.802	-9.73
311.016	55.81
311.23	31.23
311.444	14.85
311.658	72.19
311.872	104.96
312.085	72.19
312.299	100.86
312.513	-15.87
312.727	37.38
312.941	121.34
313.154	90.62
313.368	131.58
313.582	66.05
313.796	72.19
314.009	80.38
314.223	98.81
314.437	25.09
314.651	31.23
314.864	94.72
315.078	104.96
315.292	35.33
315.505	68.09
315.719	49.66
315.933	109.05
316.146	41.47
316.36	39.42
316.573	137.73
316.787	23.04
317.001	162.3
317.214	-48.64
317.428	74.24
317.641	61.95
317.855	27.14
318.068	72.19
318.282	27.14
318.495	88.57
318.709	23.04
318.922	43.52
319.136	137.73
319.349	80.38
319.563	82.43
319.776	-38.4
319.99	6.66
320.203	109.05
320.417	76.29
320.63	66.05
320.843	113.15
321.057	111.1
321.27	145.92
321.483	61.95
321.697	104.96
321.91	109.05
322.124	121.34
322.337	107.01
322.55	23.04
322.763	98.81
322.977	-5.63
323.19	-11.78
323.403	51.71
323.617	147.97
323.83	39.42
324.043	35.33
324.256	33.28
324.469	51.71
324.683	74.24
324.896	82.43
325.109	0.51
325.322	33.28
325.535	43.52
325.748	66.05
325.962	45.57
326.175	57.86
326.388	86.53
326.601	76.29
326.814	88.57
327.027	49.66
327.24	113.15
327.453	-13.82
327.666	76.29
327.879	14.85
328.092	141.82
328.305	162.3
328.518	10.75
328.731	37.38
328.944	92.67
329.157	53.76
329.37	45.57
329.583	57.86
329.796	145.92
330.009	-9.73
330.222	104.96
330.435	66.05
330.648	51.71
330.861	139.77
331.073	0.51
331.286	68.09
331.499	86.53
331.712	-7.68
331.925	104.96
332.138	49.66
332.35	104.96
332.563	33.28
332.776	104.96
332.989	18.94
333.202	80.38
333.414	84.48
333.627	113.15
333.84	113.15
334.053	117.25
334.265	100.86
334.478	117.25
334.691	74.24
334.903	47.62
335.116	35.33
335.329	80.38
335.541	100.86
335.754	2.56
335.966	57.86
336.179	94.72
336.392	12.8
336.604	16.9
336.817	49.66
337.029	47.62
337.242	61.95
337.454	195.07
337.667	145.92
337.88	121.34
338.092	16.9
338.305	14.85
338.517	35.33
338.729	133.63
338.942	145.92
339.154	39.42
339.367	25.09
339.579	104.96
339.792	35.33
340.004	72.19
340.217	18.94
340.429	45.57
340.641	59.9
340.854	49.66
341.066	47.62
341.278	27.14
341.491	18.94
341.703	170.49
341.915	55.81
342.128	88.57
342.34	0.51
342.552	33.28
342.764	119.29
342.977	74.24
343.189	131.58
343.401	43.52
343.613	64
343.826	96.77
344.038	55.81
344.25	57.86
344.462	-3.58
344.674	154.11
344.886	6.66
345.099	64
345.311	33.28
345.523	98.81
345.735	100.86
345.947	107.01
346.159	96.77
346.371	41.47
346.583	117.25
346.795	72.19
347.007	70.14
347.219	107.01
347.431	92.67
347.643	55.81
347.855	80.38
348.067	72.19
348.279	39.42
348.491	104.96
348.703	143.87
348.915	64
349.127	51.71
349.339	90.62
349.551	61.95
349.763	45.57
349.975	107.01
350.187	160.25
350.399	104.96
350.61	104.96
350.822	33.28
351.034	31.23
351.246	70.14
351.458	104.96
351.669	41.47
351.881	113.15
352.093	129.53
352.305	76.29
352.517	70.14
352.728	111.1
352.94	82.43
353.152	92.67
353.363	-3.58
353.575	154.11
353.787	88.57
353.999	74.24
354.21	162.3
354.422	27.14
354.633	49.66
354.845	113.15
355.057	84.48
355.268	170.49
355.48	113.15
355.692	78.33
355.903	59.9
356.115	57.86
356.326	72.19
356.538	96.77
356.749	43.52
356.961	113.15
357.172	96.77
357.384	-17.92
357.595	88.57
357.807	18.94
358.018	113.15
358.23	107.01
358.441	162.3
358.653	98.81
358.864	76.29
359.075	90.62
359.287	88.57
359.498	109.05
359.709	127.49
359.921	104.96
360.132	117.25
360.344	80.38
360.555	20.99
360.766	78.33
360.977	100.86
361.189	166.4
361.4	64
361.611	64
361.823	109.05
362.034	72.19
362.245	-26.11
362.456	92.67
362.667	-13.82
362.879	16.9
363.09	23.04
363.301	100.86
363.512	59.9
363.723	80.38
363.935	29.18
364.146	123.39
364.357	-17.92
364.568	64
364.779	25.09
364.99	68.09
365.201	53.76
365.412	57.86
365.623	55.81
365.834	76.29
366.045	137.73
366.256	64
366.467	96.77
366.678	41.47
366.889	35.33
367.1	-40.45
367.311	143.87
367.522	70.14
367.733	113.15
367.944	66.05
368.155	47.62
368.366	109.05
368.577	66.05
368.788	53.76
368.999	68.09
369.209	127.49
369.42	137.73
369.631	139.77
369.842	100.86
370.053	47.62
370.264	84.48
370.474	31.23
370.685	80.38
370.896	113.15
371.107	80.38
371.317	92.67
371.528	43.52
371.739	152.06
371.95	55.81
372.16	162.3
372.371	16.9
372.582	45.57
372.792	76.29
373.003	117.25
373.214	82.43
373.424	111.1
373.635	29.18
373.846	16.9
374.056	33.28
374.267	88.57
374.477	88.57
374.688	49.66
374.898	178.69
375.109	33.28
375.319	94.72
375.53	180.73
375.74	74.24
375.951	66.05
376.161	74.24
376.372	92.67
376.582	72.19
376.793	92.67
377.003	86.53
377.214	98.81
377.424	84.48
377.635	82.43
377.845	53.76
378.055	125.44
378.266	96.77
378.476	74.24
378.686	115.2
378.897	31.23
379.107	107.01
379.317	80.38
379.528	100.86
379.738	76.29
379.948	41.47
380.158	90.62
380.369	137.73
380.579	123.39
380.789	80.38
380.999	145.92
381.21	102.91
381.42	174.59
381.63	8.7
381.84	92.67
382.05	125.44
382.261	76.29
382.471	152.06
382.681	88.57
382.891	96.77
383.101	82.43
383.311	37.38
383.521	162.3
383.731	76.29
383.941	80.38
384.151	109.05
384.361	98.81
384.571	121.34
384.781	123.39
384.991	129.53
385.201	154.11
385.411	53.76
385.621	137.73
385.831	-5.63
386.041	59.9
386.251	86.53
386.461	137.73
386.671	115.2
386.881	109.05
387.091	139.77
387.301	121.34
387.511	74.24
387.72	139.77
387.93	129.53
388.14	72.19
388.35	47.62
388.56	121.34
388.769	139.77
388.979	82.43
389.189	100.86
389.399	49.66
389.609	190.97
389.818	66.05
390.028	25.09
390.238	139.77
390.447	131.58
390.657	49.66
390.867	33.28
391.076	88.57
391.286	84.48
391.496	84.48
391.705	55.81
391.915	98.81
392.125	109.05
392.334	154.11
392.544	47.62
392.753	121.34
392.963	90.62
393.172	82.43
393.382	41.47
393.591	104.96
393.801	104.96
394.01	154.11
394.22	154.11
394.429	158.21
394.639	98.81
394.848	84.48
395.058	88.57
395.267	129.53
395.477	92.67
395.686	72.19
395.895	172.54
396.105	203.26
396.314	115.2
396.524	115.2
396.733	121.34
396.942	178.69
397.152	223.74
397.361	164.35
397.57	164.35
397.78	158.21
397.989	123.39
398.198	168.45
398.407	131.58
398.617	139.77
398.826	100.86
399.035	162.3
399.244	188.93
399.453	154.11
399.663	125.44
399.872	225.79
400.081	137.73
400.29	215.55
400.499	121.34
400.708	213.5
400.917	211.45
401.127	129.53
401.336	195.07
401.545	184.83
401.754	219.64
401.963	190.97
402.172	109.05
402.381	225.79
402.59	123.39
402.799	203.26
403.008	205.31
403.217	213.5
403.426	221.69
403.635	166.4
403.844	244.22
404.053	178.69
404.262	184.83
404.471	297.47
404.68	244.22
404.888	258.56
405.097	215.55
405.306	211.45
405.515	336.38
405.724	260.6
405.933	242.17
406.142	186.88
406.35	367.1
406.559	328.19
406.768	305.66
406.977	377.34
407.185	369.15
407.394	301.56
407.603	301.56
407.812	256.51
408.02	348.67
408.229	344.57
408.438	317.95
408.646	328.19
408.855	320
409.064	377.34
409.272	383.48
409.481	432.63
409.69	393.72
409.898	436.73
410.107	469.5
410.315	547.32
410.524	406.01
410.733	504.31
410.941	512.5
411.15	539.13
411.358	549.37
411.567	512.5
411.775	610.81
411.984	588.28
412.192	639.48
412.401	629.24
412.609	705.01
412.818	668.15
413.026	625.14
413.234	784.88
413.443	686.58
413.651	788.98
413.86	809.46
414.068	842.23
414.276	893.43
414.485	963.06
414.693	932.34
414.901	909.81
415.11	1001.97
415.318	950.77
415.526	1032.69
415.734	1120.75
415.943	1137.13
416.151	1096.18
416.359	1186.29
416.567	1251.82
416.776	1300.97
416.984	1384.94
417.192	1350.12
417.4	1434.09
417.608	1397.23
417.817	1448.43
418.025	1518.06
418.233	1694.18
418.441	1620.46
418.649	1671.65
418.857	1851.88
419.065	1882.6
419.273	1919.46
419.481	1929.7
419.689	2062.82
419.897	2130.4
420.105	2146.78
420.313	2107.87
420.521	2228.7
420.729	2245.09
420.937	2337.24
421.145	2539.99
421.353	2580.95
421.561	2669.02
421.769	2730.45
421.977	2986.45
422.185	2892.24
422.393	2945.49
422.601	3264.97
422.809	3121.62
423.017	3242.45
423.224	3389.9
423.432	3426.76
423.64	3482.06
423.848	3957.19
424.056	3867.08
424.263	4123.07
424.471	3987.91
424.679	4071.87
424.887	4417.98
425.094	4460.99
425.302	4399.55
425.51	4659.64
425.718	4573.63
425.925	4770.23
426.133	5128.63
426.341	5188.02
426.548	5677.48
426.756	5652.91
426.964	5462.44
427.171	5880.23
427.379	5980.58
427.586	6199.71
427.794	6183.33
428.001	6640.03
428.209	6934.93
428.417	6834.58
428.624	7428.49
428.832	7266.71
429.039	7270.8
429.247	7233.94
429.454	8114.56
429.662	8352.13
429.869	7903.62
430.076	8513.92
430.284	8085.89
430.491	8485.25
430.699	9001.33
430.906	9077.11
431.114	9210.23
431.321	9517.42
431.528	9732.46
431.736	10197.35
431.943	10705.24
432.15	10373.47
432.358	10797.4
432.565	11319.64
432.772	11366.74
432.979	11901.26
433.187	11841.87
433.394	11905.35
433.601	12736.83
433.808	12466.5
434.016	12949.82
434.223	13107.51
434.43	13877.55
434.637	13431.09
434.844	14749.98
435.052	14561.57
435.259	14580
435.466	14719.26
435.673	14682.4
435.88	15733.01
436.087	16505.09
436.294	16562.44
436.501	16158.99
436.708	16388.36
436.915	17031.42
437.122	17735.92
437.329	17631.47
437.537	18233.58
437.743	18610.4
437.95	18319.59
438.157	19269.85
438.364	20031.69
438.571	19886.29
438.778	19998.93
438.985	21807.28
439.192	20916.42
439.399	21631.16
439.606	21242.04
439.813	22061.23
440.02	23787.67
440.227	23236.77
440.433	23181.47
440.64	23961.75
440.847	23468.19
441.054	24139.92
441.261	25704.57
441.467	25264.25
441.674	26148.98
441.881	26689.64
442.088	26519.66
442.294	26554.47
442.501	27123.81
442.708	27936.85
442.914	28735.56
443.121	29859.9
443.328	28987.46
443.534	31031.33
443.741	30220.34
443.948	30083.12
444.154	32061.46
444.361	31780.89
444.568	32196.63
444.774	32065.56
444.981	32477.2
445.187	33388.55
445.394	34748.4
445.6	34361.33
445.807	38010.81
446.013	36515.79
446.22	36571.09
446.426	38066.11
446.633	38115.26
446.839	39458.73
447.046	38053.82
447.252	40054.68
447.459	40292.25
447.665	40073.12
447.871	41385.86
448.078	43616.1
448.284	41525.13
448.491	42176.38
448.697	44056.42
448.903	44599.13
449.11	44765.01
449.316	43947.87
449.522	44949.33
449.728	45719.37
449.935	46458.68
450.141	46212.93
450.347	47431.47
450.553	45666.12
450.76	46577.47
450.966	48045.86
451.172	46919.48
451.378	48441.12
451.584	47517.48
451.791	48477.98
451.997	48441.12
452.203	49878.79
452.409	49352.46
452.615	49063.7
452.821	47288.11
453.027	46956.34
453.233	49690.38
453.44	47640.36
453.646	48467.74
453.852	47939.36
454.058	48908.05
454.264	47525.67
454.47	48615.19
454.676	47130.42
454.882	49233.68
455.088	44853.08
455.294	45621.06
455.5	46116.67
455.705	46585.66
455.911	44896.08
456.117	43972.45
456.323	42915.7
456.529	41236.36
456.735	42848.11
456.941	41904
457.147	41412.49
457.352	39868.32
457.558	39724.96
457.764	39669.67
457.97	38729.65
458.176	37836.73
458.381	38330.3
458.587	36202.46
458.793	36566.99
458.999	34473.97
459.204	36882.38
459.41	35897.31
459.616	33130.5
459.821	33898.49
460.027	33085.45
460.233	32643.09
460.438	31266.85
460.644	31713.31
460.85	29960.25
461.055	29782.07
461.261	29380.67
461.466	27902.04
461.672	26374.25
461.878	28463.18
462.083	26546.28
462.289	26353.77
462.494	26185.84
462.7	24795.27
462.905	23918.74
463.111	25225.34
463.316	24893.57
463.522	24639.62
463.727	24305.81
463.932	24418.44
464.138	24322.19
464.343	24443.02
464.549	23511.19
464.754	24418.44
464.959	24051.86
465.165	23902.36
465.37	23013.54
465.575	22421.67
465.781	23306.4
465.986	23244.96
466.191	22405.29
466.397	21921.97
466.602	20891.84
466.807	21598.39
467.012	21960.88
467.218	21659.83
467.423	21293.24
467.628	21543.1
467.833	22227.12
468.038	21571.77
468.244	20816.07
468.449	21622.97
468.654	21074.11
468.859	21137.6
469.064	20699.33
469.269	20281.55
469.474	20525.25
469.679	20371.66
469.885	20017.36
470.09	20259.02
470.295	19933.39
470.5	19642.58
470.705	19466.45
470.91	19194.08
471.115	19069.15
471.32	19192.03
471.525	19464.41
471.73	18749.67
471.935	18540.77
472.139	17973.49
472.344	18452.71
472.549	18104.56
472.754	17887.47
472.959	17533.17
473.164	16914.69
473.369	17072.38
473.574	17352.95
473.778	17414.39
473.983	17131.77
474.188	16943.36
474.393	16199.94
474.598	16361.73
474.802	16279.82
475.007	16218.38
475.212	16193.8
475.417	15427.86
475.621	15579.41
475.826	15591.7
476.031	15411.48
476.235	15212.82
476.44	15415.57
476.645	14936.35
476.849	15106.33
477.054	14641.44
477.259	14682.4
477.463	14637.34
477.668	14317.86
477.872	14397.73
478.077	14096.68
478.282	13920.56
478.486	13895.98
478.691	13781.29
478.895	13451.57
479.1	13615.41
479.304	13572.4
479.509	13130.04
479.713	13326.64
479.918	13226.29
480.122	12812.6
480.326	13037.88
480.531	13203.77
480.735	12843.32
480.94	12880.19
481.144	12996.92
481.348	12607.81
481.553	12798.27
481.757	12515.65
481.961	12726.59
482.166	12749.12
482.37	12503.36
482.574	12503.36
482.778	12495.17
482.983	12626.24
483.187	12374.34
483.391	12697.92
483.595	12351.81
483.8	12527.94
484.004	12343.62
484.208	12450.11
484.412	12470.59
484.616	12433.73
484.821	12589.38
485.025	12243.27
485.229	12448.07
485.433	12280.13
485.637	12327.24
485.841	12384.58
486.045	12144.97
486.249	12556.61
486.453	12245.32
486.657	12458.31
486.861	12372.29
487.065	12087.62
487.269	12366.15
487.473	12067.14
487.677	12499.27
487.881	12478.79
488.085	12343.62
488.289	12392.77
488.493	12362.05
488.697	12575.04
488.901	12448.07
489.105	12398.91
489.309	12542.27
489.512	12511.55
489.716	12452.16
489.92	12509.51
490.124	12493.12
490.328	12867.9
490.531	12562.75
490.735	12878.14
490.939	12730.69
491.143	12642.62
491.346	12761.41
491.55	12958.01
491.754	12804.41
491.958	12812.6
492.161	12652.86
492.365	13082.94
492.569	12886.33
492.772	12806.46
492.976	13291.83
493.18	13107.51
493.383	13617.46
493.587	13361.46
493.79	13666.61
493.994	13193.53
494.197	13592.88
494.401	13805.87
494.605	13496.63
494.808	13816.11
495.012	13893.93
495.215	13824.3
495.419	14035.24
495.622	14035.24
495.825	14072.11
496.029	14248.23
496.232	14283.05
496.436	14379.3
496.639	14825.76
496.843	14620.96
497.046	15005.98
497.249	15227.16
497.453	15257.88
497.656	15337.75
497.859	15438.1
498.063	15900.94
498.266	16204.04
498.469	15698.19
498.673	15993.1
498.876	16134.41
499.079	16349.45
499.282	16376.07
499.485	16759.04
499.689	16795.9
499.892	17121.53
500.095	16967.93
500.298	17225.98
500.501	17078.52
500.705	17893.61
500.908	18063.6
501.111	18024.68
501.314	18258.15
501.517	18741.47
501.72	18735.33
501.923	18413.8
502.126	19118.3
502.329	19448.02
502.532	19173.6
502.735	19618
502.938	19824.85
503.141	19826.9
503.344	20039.89
503.547	20213.96
503.75	20668.61
503.953	21063.87
504.156	21182.65
504.359	21090.49
504.562	21461.18
504.765	21745.84
504.968	22145.2
505.17	22288.56
505.373	22274.22
505.576	22804.64
505.779	22853.8
505.982	22843.56
506.185	23515.29
506.387	23173.28
506.59	23605.4
506.793	23992.47
506.996	23902.36
507.198	24985.73
507.401	24594.57
507.604	24842.37
507.807	25448.57
508.009	25411.71
508.212	25604.22
508.415	26130.55
508.617	26015.86
508.82	26218.61
509.022	26273.9
509.225	26890.34
509.428	27269.22
509.63	27240.54
509.833	27392.09
510.035	28483.66
510.238	27922.52
510.44	28198.99
510.643	28483.66
510.845	28661.83
511.048	28778.57
511.25	29077.57
511.453	29366.34
511.655	30459.95
511.858	29911.1
512.06	30412.85
512.262	31068.2
512.465	30693.42
512.667	31545.37
512.87	31426.59
513.072	31516.7
513.274	31995.93
513.477	32606.22
513.679	32456.72
513.881	32888.84
514.084	33470.47
514.286	33419.27
514.488	33599.49
514.69	34459.63
514.893	34361.33
515.095	34672.62
515.297	34768.88
515.499	34811.88
515.701	35500
515.904	36003.8
516.106	35983.32
516.308	35981.27
516.51	36964.3
516.712	36552.66
516.914	37316.55
517.116	37730.24
517.318	37746.62
517.52	38213.56
517.722	37861.31
517.925	38309.82
518.127	39188.39
518.329	39376.81
518.531	39102.38
518.733	39704.48
518.935	40042.4
519.136	40273.82
519.338	40513.43
519.54	40681.36
519.742	40847.25
519.944	41707.4
520.146	42133.37
520.348	42028.93
520.55	42420.09
520.752	42073.98
520.954	43044.72
521.155	42915.7
521.357	43370.35
521.559	43765.6
521.761	44408.67
521.963	44283.74
522.164	44711.77
522.366	44586.84
522.568	44906.32
522.77	45190.99
522.971	45883.2
523.173	45592.39
523.375	46262.08
523.576	45862.72
523.778	46180.16
523.98	46905.14
524.181	46522.17
524.383	46890.8
524.584	47570.73
524.786	47576.87
524.988	47091.51
525.189	47972.13
525.391	48135.97
525.592	47988.52
525.794	48424.73
525.995	48637.72
526.197	48520.99
526.398	48981.78
526.6	49344.27
526.801	49180.43
527.003	49266.45
527.204	49329.94
527.406	49792.78
527.607	49401.61
527.808	50075.4
528.01	49039.12
528.211	49725.19
528.412	50800.38
528.614	50435.84
528.815	50765.56
529.016	50685.69
529.218	50659.07
529.419	50779.9
529.62	50591.48
529.822	50814.71
530.023	50679.55
530.224	50743.03
530.425	50730.75
530.626	50546.43
530.828	50194.18
531.029	51531.5
531.23	50919.16
531.431	50788.09
531.632	51388.14
531.833	51580.65
532.035	51318.51
532.236	51089.14
532.437	51449.58
532.638	51621.61
532.839	51408.62
533.04	51945.19
533.241	51048.18
533.442	51803.88
533.643	51560.17
533.844	51572.46
534.045	51742.44
534.246	51568.37
534.447	51621.61
534.648	51406.58
534.849	51635.95
535.05	51652.33
535.251	51705.58
535.451	51431.15
535.652	51771.11
535.853	51285.75
536.054	51859.18
536.255	51879.66
536.456	51265.27
536.657	51994.34
536.857	51660.52
537.058	51062.52
537.259	51398.38
537.46	51662.57
537.66	51744.49
537.861	51633.9
538.062	51697.39
538.263	51592.94
538.463	51324.66
538.664	51597.04
538.865	51420.91
539.065	52279.01
539.266	50626.3
539.466	51842.79
539.667	50978.55
539.868	51990.25
540.068	51486.45
540.269	50573.05
540.469	51439.34
540.67	51039.99
540.87	51422.96
541.071	51537.65
541.271	51638
541.472	51187.44
541.672	51273.46
541.873	51025.65
542.073	50652.92
542.274	51336.94
542.474	50910.97
542.675	50921.21
542.875	51295.99
543.075	51422.96
543.276	50734.84
543.476	51386.1
543.676	50767.61
543.877	51021.56
544.077	51171.06
544.277	50929.4
544.478	50874.1
544.678	50689.79
544.878	51007.22
545.078	50978.55
545.279	50736.89
545.479	50536.19
545.679	51023.61
545.879	50644.73
546.079	50683.64
546.28	50292.48
546.48	49983.24
546.68	51085.04
546.88	50331.39
547.08	50720.51
547.28	50347.78
547.48	50007.81
547.68	50614.01
547.88	50292.48
548.081	50274.05
548.281	50456.32
548.481	50329.34
548.681	50603.77
548.881	50274.05
549.081	50491.13
549.28	50614.01
549.48	50761.47
549.68	50315.01
549.88	50685.69
550.08	49915.65
550.28	50462.46
550.48	49743.62
550.68	50700.03
550.88	49956.61
551.08	50188.03
551.279	50140.93
551.479	49911.56
551.679	50302.72
551.879	49805.06
552.079	50437.89
552.278	50022.15
552.478	50056.96
552.678	50030.34
552.878	50132.74
553.077	49944.33
553.277	49440.53
553.477	50253.57
553.676	49446.67
553.876	49729.29
554.076	49196.82
554.275	49424.14
554.475	49168.15
554.674	49342.22
554.874	49620.75
555.074	49331.98
555.273	49827.59
555.473	49772.3
555.672	49301.26
555.872	49088.27
556.071	49006.36
556.271	49420.05
556.47	49663.75
556.67	48625.43
556.869	48623.39
557.068	49137.43
557.268	49098.51
557.467	49317.65
557.667	49014.55
557.866	49149.71
558.065	49135.38
558.265	48756.5
558.464	48543.52
558.663	49266.45
558.863	48537.37
559.062	48942.87
559.261	48133.92
559.461	48637.72
559.66	48109.35
559.859	48703.26
560.058	48080.67
560.258	48183.07
560.457	47935.27
560.656	48230.18
560.855	48129.83
561.054	48391.97
561.253	47554.35
561.453	47501.1
561.652	47531.82
561.851	48250.66
562.05	48052
562.249	47736.62
562.448	48246.56
562.647	47818.53
562.846	47279.92
563.045	47822.63
563.244	47056.69
563.443	47679.27
563.642	46765.88
563.841	47275.82
564.04	47163.18
564.239	47433.52
564.438	46829.37
564.637	47200.05
564.836	46915.38
565.035	46397.24
565.234	46905.14
565.432	46765.88
565.631	46497.59
565.83	46812.98
566.029	46360.38
566.228	46518.07
566.427	46083.9
566.625	46088
566.824	45444.94
567.023	45791.05
567.222	45690.69
567.42	45836.1
567.619	45838.15
567.818	45842.24
568.016	45645.64
568.215	45918.02
568.414	45406.03
568.612	46014.27
568.811	44998.48
569.01	45715.27
569.208	44599.13
569.407	45373.26
569.605	44951.38
569.804	45440.84
570.002	44701.53
570.201	45281.1
570.4	44830.55
570.598	44695.38
570.797	44531.54
570.995	44517.21
571.193	44326.75
571.392	44869.46
571.59	43970.4
571.789	43908.96
571.987	44005.22
572.186	43812.71
572.384	43843.43
572.582	44216.16
572.781	44330.84
572.979	43448.17
573.177	43644.77
573.376	43728.74
573.574	42985.33
573.772	43487.08
573.971	43523.94
574.169	42776.44
574.367	42985.33
574.565	43419.5
574.763	42491.77
574.962	42743.67
575.16	42186.62
575.358	43067.25
575.556	41953.15
575.754	42780.53
575.952	41869.19
576.151	42428.28
576.349	41881.47
576.547	42336.12
576.745	42405.75
576.943	42200.96
577.141	41557.89
577.339	41942.91
577.537	41752.45
577.735	41533.32
577.933	41441.16
578.131	41629.57
578.329	41129.87
578.527	40791.95
578.725	41340.81
578.923	40791.95
579.121	40798.1
579.319	40279.96
579.516	41052.05
579.714	40824.72
579.912	40382.36
580.11	40701.84
580.308	40310.68
580.506	40365.98
580.704	39643.04
580.901	40175.51
581.099	39917.47
581.297	39690.15
581.495	39733.15
581.692	40085.4
581.89	39403.43
582.088	39479.21
582.285	39432.1
582.483	39913.37
582.681	39317.42
582.878	38891.44
583.076	38956.97
583.274	39432.1
583.471	38301.62
583.669	39002.03
583.866	38426.55
584.064	38862.77
584.262	38250.42
584.459	38662.07
584.657	37957.56
584.854	38356.92
585.052	37644.23
585.249	38184.89
585.447	38113.21
585.644	37711.81
585.841	37720
586.039	38182.84
586.236	37334.98
586.434	37269.45
586.631	37312.45
586.828	37502.92
587.026	37306.31
587.223	37205.96
587.42	37048.27
587.618	36988.88
587.815	36769.74
588.012	36327.38
588.21	36650.96
588.407	37025.74
588.604	36384.72
588.801	35825.63
588.999	35993.56
589.196	35968.99
589.393	36327.38
589.59	36128.73
589.787	35971.04
589.984	35596.26
590.182	35436.52
590.379	36145.11
590.576	35299.3
590.773	35723.23
590.97	35502.05
591.167	35450.85
591.364	34715.63
591.561	35088.36
591.758	35065.83
591.955	34756.59
592.152	34858.99
592.349	34639.86
592.546	34705.39
592.743	34719.73
592.94	34019.32
593.137	34293.75
593.334	34334.71
593.531	33828.86
593.727	34007.03
593.924	33869.82
594.121	33601.54
594.318	33992.7
594.515	33189.89
594.712	33746.94
594.908	33331.2
595.105	33443.84
595.302	32759.82
595.499	33216.52
595.696	33267.72
595.892	32903.18
596.089	33091.59
596.286	32987.14
596.482	32352.27
596.679	32870.41
596.876	32708.62
597.072	32534.54
597.269	32489.49
597.466	32292.88
597.662	32243.73
597.859	32000.02
598.055	31856.67
598.252	31985.69
598.448	31844.38
598.645	31916.06
598.841	31500.32
599.038	31561.76
599.234	31213.6
599.431	31316
599.627	31356.96
599.824	31139.88
600.02	31133.73
600.217	31049.77
600.413	30691.37
600.609	30591.02
600.806	30769.19
601.002	30908.46
601.198	30468.14
601.395	30099.51
601.591	30601.26
601.787	30314.55
601.984	30410.8
602.18	30380.08
602.376	29956.15
602.572	29644.86
602.769	29702.2
602.965	29829.18
603.161	30003.25
603.357	29452.35
603.553	29567.04
603.75	29773.88
603.946	29212.74
604.142	29354.05
604.338	29022.28
604.534	29280.32
604.73	28495.95
604.926	28878.92
605.122	28956.74
605.318	28543.05
605.514	28690.51
605.71	28612.68
605.906	28616.78
606.102	28475.47
606.298	28721.23
606.494	28235.86
606.69	28282.96
606.886	28069.97
607.082	27723.86
607.278	28123.22
607.474	27494.49
607.67	27926.61
607.866	27271.26
608.062	28049.49
608.257	27560.03
608.453	27885.65
608.649	28010.58
608.845	27144.29
609.041	27633.75
609.236	27633.75
609.432	27256.93
609.628	27568.22
609.824	27242.59
610.019	27035.75
610.215	27060.32
610.411	26667.11
610.606	27156.58
610.802	27023.46
610.998	27156.58
611.193	26716.26
611.389	26882.15
611.584	26835.05
611.78	26316.91
611.976	26800.23
612.171	26777.7
612.367	26525.8
612.562	26447.98
612.758	25948.28
612.953	26204.27
613.149	26650.73
613.344	26341.49
613.539	26474.6
613.735	26423.4
613.93	26593.39
614.126	26032.24
614.321	26175.6
614.517	25892.98
614.712	26155.12
614.907	25997.43
615.103	26009.72
615.298	25763.96
615.493	25743.48
615.688	25481.34
615.884	25899.12
616.079	25761.91
616.274	25919.6
616.47	25675.9
616.665	25684.09
616.86	25497.72
617.055	25360.51
617.25	25116.8
617.445	25393.28
617.641	25020.55
617.836	25092.23
618.031	25016.45
618.226	25278.59
618.421	24748.17
618.616	25006.21
618.811	24602.76
619.006	24828.04
619.201	24078.48
619.396	24420.49
619.591	24144.02
619.786	24365.2
619.981	23728.28
620.176	24156.3
620.371	24076.43
620.566	24043.67
620.761	23509.15
620.956	24068.24
621.151	23570.58
621.346	23666.84
621.541	23267.48
621.735	23662.74
621.93	23117.98
622.125	23042.21
622.32	22685.86
622.515	22900.9
622.709	22468.78
622.904	22546.6
623.099	22800.55
623.294	22780.07
623.488	22108.33
623.683	22223.02
623.878	21829.81
624.072	21995.7
624.267	21948.59
624.462	21592.25
624.656	21330.11
624.851	21301.43
625.046	21522.62
625.24	21149.89
625.435	21067.97
625.629	21211.32
625.824	20768.96
626.018	20883.65
626.213	20363.47
626.407	20478.15
626.602	20203.72
626.796	20506.82
626.991	20318.41
627.185	20177.1
627.38	20052.17
627.574	19878.1
627.768	19654.87
627.963	19437.78
628.157	19583.19
628.352	19667.16
628.546	19069.15
628.74	19460.31
628.935	19247.32
629.129	19130.59
629.323	18878.69
629.517	18786.53
629.712	18868.45
629.906	18663.65
630.1	18540.77
630.294	18360.55
630.489	18241.77
630.683	18325.74
630.877	17895.66
631.071	18161.9
631.265	18188.52
631.459	17930.48
631.653	17979.63
631.848	17752.31
632.042	17303.8
632.236	17721.59
632.43	17465.59
632.624	17406.2
632.818	17250.55
633.012	17271.03
633.206	16951.55
633.4	16945.41
633.594	16777.47
633.788	16900.35
633.982	16910.59
634.176	16865.53
634.369	16574.72
634.563	16740.61
634.757	16427.27
634.951	16533.76
635.145	16302.34
635.339	16343.3
635.533	16005.39
635.726	15978.76
635.92	15735.06
636.114	15853.84
636.308	15835.41
636.501	15542.55
636.695	15679.76
636.889	15624.47
637.083	15612.18
637.276	15241.5
637.47	15008.03
637.664	15323.41
637.857	14999.84
638.051	14940.44
638.244	14915.87
638.438	15098.14
638.632	15055.13
638.825	14737.7
639.019	14473.51
639.212	14479.65
639.406	14651.68
639.599	14401.83
639.793	14557.47
639.986	14123.3
640.18	14237.99
640.373	14293.29
640.567	14260.52
640.76	13965.61
640.954	13701.42
641.147	13715.76
641.34	13752.62
641.534	13703.47
641.727	13895.98
641.92	13351.22
642.114	13320.5
642.307	13365.56
642.5	13480.24
642.694	13177.14
642.887	13023.55
643.08	13228.34
643.273	13009.21
643.467	13007.16
643.66	12843.32
643.853	12785.98
644.046	12669.25
644.239	12654.91
644.432	12661.05
644.626	12650.81
644.819	12476.74
645.012	12583.23
645.205	12632.38
645.398	12462.4
645.591	12296.52
645.784	12276.04
645.977	12079.43
646.17	11905.35
646.363	12036.42
646.556	11708.75
646.749	11792.72
646.942	11905.35
647.135	11833.68
647.328	11592.02
647.521	11608.4
647.714	11366.74
647.907	11536.72
648.099	11456.85
648.292	11614.54
648.485	11485.52
648.678	11166.04
648.871	11125.08
649.064	11133.27
649.256	11319.64
649.449	11024.73
649.642	11016.54
649.835	10854.75
650.027	10824.03
650.22	10729.82
650.413	10799.45
650.605	10754.4
650.798	10637.66
650.991	10502.5
651.183	10699.1
651.376	10475.87
651.568	10656.09
651.761	10363.23
651.954	10367.33
652.146	10426.72
652.339	10279.27
652.531	10127.72
652.724	10133.86
652.916	10056.04
653.109	9922.92
653.301	9947.5
653.494	9931.11
653.686	9861.48
653.879	9912.68
654.071	9691.5
654.263	9761.13
654.456	9730.41
654.648	9687.4
654.84	9677.16
655.033	9683.31
655.225	9501.04
655.417	9501.04
655.61	9357.68
655.802	9468.27
655.994	9294.19
656.186	9310.58
656.379	9199.99
656.571	9247.09
656.763	9136.5
656.955	8995.19
657.148	8929.66
657.34	9159.03
657.532	8798.59
657.724	8841.59
657.916	8585.6
658.108	8984.95
658.3	8724.86
658.492	8726.91
658.684	8522.11
658.876	8640.89
659.068	8552.83
659.26	8491.39
659.452	8550.78
659.644	8409.47
659.836	8501.63
660.028	8411.52
660.22	8151.43
660.412	8081.8
660.604	8163.72
660.796	8075.65
660.988	8124.8
661.18	7995.78
661.372	8106.37
661.563	8184.2
661.755	7874.95
661.947	7827.85
662.139	8051.08
662.331	7817.61
662.522	7704.97
662.714	7772.55
662.906	7770.51
663.097	7575.95
663.289	7553.42
663.481	7512.46
663.673	7412.11
663.864	7494.03
664.056	7422.35
664.247	7453.07
664.439	7330.19
664.631	7266.71
664.822	7322
665.014	7317.9
665.205	7127.44
665.397	7068.05
665.588	7309.71
665.78	7090.58
665.971	7078.29
666.163	6973.85
666.354	7094.68
666.546	7002.52
666.737	6945.17
666.929	6881.69
667.12	6953.37
667.311	6859.16
667.503	6703.51
667.694	6746.52
667.885	6678.94
668.077	6730.14
668.268	6711.71
668.459	6609.31
668.651	6527.39
668.842	6441.37
669.033	6594.97
669.224	6388.13
669.416	6461.85
669.607	6508.96
669.798	6363.55
669.989	6441.37
670.18	6390.17
670.371	6216.1
670.563	6236.58
670.754	6189.47
670.945	6224.29
671.136	6132.13
671.327	6085.03
671.518	6123.94
671.709	6136.23
671.9	6070.69
672.091	6138.27
672.282	5986.72
672.473	5988.77
672.664	6019.49
672.855	5980.58
673.046	5986.72
673.237	5986.72
673.428	5937.57
673.619	5679.53
673.809	5958.05
674	5726.63
674.191	5839.27
674.382	5747.11
674.573	5740.97
674.764	5773.74
674.954	5652.91
675.145	5622.19
675.336	5810.6
675.527	5519.79
675.717	5708.2
675.908	5427.63
676.099	5618.09
676.289	5570.99
676.48	5503.4
676.671	5448.11
676.861	5554.6
677.052	5470.64
677.243	5335.47
677.433	5251.5
677.624	5284.27
677.814	5251.5
678.005	5380.53
678.195	5423.53
678.386	5282.22
678.576	5300.66
678.767	5161.39
678.957	5249.46
679.148	5368.24
679.338	5185.97
679.529	5276.08
679.719	5183.92
679.909	5255.6
680.1	5028.28
680.29	5147.06
680.481	5118.39
680.671	5052.85
680.861	5032.37
681.052	5040.56
681.242	4985.27
681.432	5046.71
681.622	4839.86
681.813	4874.68
682.003	4856.25
682.193	4940.21
682.383	4891.06
682.573	4786.61
682.764	4667.83
682.954	4821.43
683.144	4932.02
683.334	4749.75
683.524	4839.86
683.714	4698.55
683.904	4768.18
684.094	4778.42
684.284	4665.78
684.474	4663.74
684.664	4667.83
684.854	4639.16
685.044	4630.97
685.234	4661.69
685.424	4495.8
685.614	4544.95
685.804	4618.68
685.994	4522.43
686.184	4563.39
686.374	4561.34
686.564	4536.76
686.753	4522.43
686.943	4434.36
687.133	4340.16
687.323	4450.75
687.513	4571.58
687.702	4407.74
687.892	4172.22
688.082	4192.7
688.272	4366.78
688.461	4434.36
688.651	4356.54
688.841	4172.22
689.03	4213.18
689.22	4161.98
689.41	4112.83
689.599	4190.66
689.789	4135.36
689.979	4020.67
690.168	4176.32
690.358	4159.94
690.547	4121.03
690.737	4075.97
690.926	3959.24
691.116	4030.91
691.305	4022.72
691.495	4016.58
691.684	3955.14
691.874	3981.76
692.063	4010.43
692.252	3920.32
692.442	3969.48
692.631	3922.37
692.82	3944.9
693.01	3826.12
693.199	3752.39
693.388	3695.05
693.578	3797.45
693.767	3830.21
693.956	3799.49
694.146	3703.24
694.335	3801.54
694.524	3684.81
694.713	3738.05
694.902	3736.01
695.092	3826.12
695.281	3635.66
695.47	3660.23
695.659	3684.81
695.848	3551.69
696.037	3709.38
696.226	3629.51
696.415	3539.4
696.604	3584.46
696.793	3574.22
696.982	3662.28
697.171	3637.7
697.36	3455.44
697.549	3664.33
697.738	3516.87
697.927	3441.1
698.116	3518.92
698.305	3422.67
698.494	3344.84
698.683	3455.44
698.872	3531.21
699.061	3500.49
699.25	3496.39
699.438	3434.96
699.627	3377.61
699.816	3498.44
700.005	3344.84
700.193	3332.56
700.382	3561.93
700.571	3383.76
700.76	3381.71
700.948	3221.97
701.137	3400.14
701.326	3299.79
701.514	3279.31
701.703	3381.71
701.892	3135.95
702.08	3402.19
702.269	3310.03
702.457	3285.45
702.646	3312.08
702.834	3201.49
703.023	3156.43
703.212	3350.99
703.4	3283.41
703.589	3174.86
703.777	3187.15
703.965	3144.14
704.154	3250.64
704.342	3111.38
704.531	3107.28
704.719	3109.33
704.907	3127.76
705.096	3152.34
705.284	3041.75
705.472	3168.72
705.661	3154.38
705.849	3166.67
706.037	3064.27
706.226	3064.27
706.414	3031.51
706.602	3025.36
706.79	3025.36
706.979	3047.89
707.167	2986.45
707.355	2986.45
707.543	2898.39
707.731	3103.18
707.919	3088.85
708.107	2982.35
708.296	2894.29
708.484	2972.11
708.672	2925.01
708.86	2961.87
709.048	3066.32
709.236	2959.83
709.424	2988.5
709.612	2961.87
709.8	2937.3
709.988	2998.74
710.176	2984.4
710.364	2898.39
710.551	2816.47
710.739	2943.44
710.927	2845.14
711.115	2916.82
711.303	3011.03
711.491	2857.43
711.679	2720.21
711.866	2855.38
712.054	2853.33
712.242	2748.89
712.43	2832.85
712.617	2795.99
712.805	2779.61
712.993	2769.37
713.181	2818.52
713.368	2742.74
713.556	2763.22
713.744	2685.4
713.931	2718.17
714.119	2824.66
714.306	2849.24
714.494	2714.07
714.682	2714.07
714.869	2689.49
715.057	2759.13
715.244	2664.92
715.432	2675.16
715.619	2787.8
715.807	2705.88
715.994	2712.02
716.182	2652.63
716.369	2712.02
716.556	2703.83
716.744	2619.86
716.931	2662.87
717.119	2638.3
717.306	2623.96
717.493	2615.77
717.681	2533.85
717.868	2447.83
718.055	2533.85
718.242	2591.19
718.43	2628.06
718.617	2734.55
718.804	2564.57
718.991	2572.76
719.179	2564.57
719.366	2560.47
719.553	2501.08
719.74	2515.42
719.927	2681.3
720.114	2435.55
720.301	2449.88
720.488	2464.22
720.676	2443.74
720.863	2521.56
721.05	2570.71
721.237	2476.51
721.424	2410.97
721.611	2550.23
721.798	2365.92
721.985	2505.18
722.172	2453.98
722.358	2343.39
722.545	2384.35
722.732	2400.73
722.919	2355.68
723.106	2456.03
723.293	2339.29
723.48	2382.3
723.667	2386.4
723.853	2324.96
724.04	2294.24
724.227	2423.26
724.414	2396.64
724.6	2341.34
724.787	2458.07
724.974	2406.88
725.161	2390.49
725.347	2302.43
725.534	2275.81
725.72	2347.48
725.907	2343.39
726.094	2171.36
726.28	2195.93
726.467	2189.79
726.653	2284
726.84	2189.79
727.027	2267.61
727.213	2302.43
727.4	2337.24
727.586	2261.47
727.773	2284
727.959	2269.66
728.145	2236.89
728.332	2240.99
728.518	2152.93
728.705	2271.71
728.891	2230.75
729.077	2179.55
729.264	2267.61
729.45	2234.85
729.636	2206.17
729.823	2157.02
730.009	2247.13
730.195	2214.37
730.382	2175.45
730.568	2109.92
730.754	2136.54
730.94	2234.85
731.126	2183.65
731.313	2210.27
731.499	2163.17
731.685	2146.78
731.871	2169.31
732.057	2161.12
732.243	2165.21
732.429	2060.77
732.615	2128.35
732.801	2197.98
732.987	2187.74
733.173	2073.06
733.359	2079.2
733.545	2122.21
733.731	2083.3
733.917	2179.55
734.103	2136.54
734.289	2152.93
734.475	1982.95
734.661	2075.1
734.847	2136.54
735.033	2144.74
735.219	1999.33
735.404	2075.1
735.59	2028
735.776	2054.62
735.962	1989.09
736.148	2077.15
736.333	2042.34
736.519	2040.29
736.705	2142.69
736.89	2075.1
737.076	1976.8
737.262	2095.58
737.447	1931.75
737.633	1948.13
737.819	2064.86
738.004	1886.69
738.19	2003.43
738.375	1853.92
738.561	1962.47
738.747	1915.36
738.932	1851.88
739.118	1944.03
739.303	1944.03
739.489	1946.08
739.674	1927.65
739.859	1868.26
740.045	1909.22
740.23	1925.6
740.416	1905.12
740.601	1901.03
740.786	1808.87
740.972	1907.17
741.157	1735.14
741.342	1896.93
741.528	1851.88
741.713	1821.16
741.898	1817.06
742.084	1804.77
742.269	1825.25
742.454	1794.53
742.639	1849.83
742.824	1800.68
743.01	1849.83
743.195	1833.44
743.38	1837.54
743.565	1759.72
743.75	1892.84
743.935	1710.57
744.12	1712.61
744.305	1751.53
744.49	1714.66
744.675	1563.11
744.86	1655.27
745.045	1653.22
745.23	1655.27
745.415	1608.17
745.6	1712.61
745.785	1661.41
745.97	1616.36
746.155	1583.59
746.34	1638.89
746.525	1581.54
746.71	1698.28
746.895	1548.78
747.079	1604.07
747.264	1567.21
747.449	1581.54
747.634	1464.81
747.819	1530.34
748.003	1554.92
748.188	1477.1
748.373	1507.82
748.557	1458.67
748.742	1511.91
748.927	1415.66
749.111	1491.43
749.296	1554.92
749.481	1540.58
749.665	1444.33
749.85	1483.24
750.034	1563.11
750.219	1360.36
750.404	1425.9
750.588	1458.67
750.773	1409.51
750.957	1298.92
751.141	1421.8
751.326	1409.51
751.51	1358.32
751.695	1317.36
751.879	1366.51
752.064	1407.47
752.248	1319.4
752.432	1333.74
752.617	1311.21
752.801	1253.87
752.985	1294.83
753.17	1247.72
753.354	1288.68
753.538	1214.96
753.722	1188.33
753.907	1331.69
754.091	1219.05
754.275	1300.97
754.459	1239.53
754.643	1208.81
754.828	1233.39
755.012	1130.99
755.196	1217.01
755.38	1126.89
755.564	1087.98
755.748	1161.71
755.932	1133.04
756.116	1186.29
756.3	1100.27
756.484	1153.52
756.668	1120.75
756.852	1120.75
757.036	1098.22
757.22	1087.98
757.404	1057.26
757.588	1038.83
757.772	1200.62
757.956	1137.13
758.14	1096.18
758.323	1067.5
758.507	1073.65
758.691	1051.12
758.875	1022.45
759.059	1075.7
759.242	973.3
759.426	1073.65
759.61	1028.59
759.794	1034.74
759.977	1022.45
760.161	1022.45
760.345	989.68
760.528	950.77
760.712	924.15
760.895	911.86
761.079	1038.83
761.263	922.1
761.446	879.09
761.63	958.96
761.813	1001.97
761.997	907.76
762.18	989.68
762.364	918
762.547	868.85
762.731	977.39
762.914	887.28
763.098	901.62
763.281	942.58
763.464	928.24
763.648	858.61
763.831	924.15
764.015	883.19
764.198	938.48
764.381	909.81
764.564	864.75
764.748	840.18
764.931	877.04
765.114	924.15
765.297	934.39
765.481	907.76
765.664	1012.21
765.847	797.17
766.03	901.62
766.213	813.56
766.397	811.51
766.58	874.99
766.763	809.46
766.946	858.61
767.129	895.47
767.312	870.9
767.495	868.85
767.678	860.66
767.861	795.12
768.044	743.92
768.227	776.69
768.41	776.69
768.593	786.93
768.776	893.43
768.959	844.28
769.142	793.08
769.324	727.54
769.507	758.26
769.69	803.32
769.873	801.27
770.056	815.6
770.239	821.75
770.421	842.23
770.604	805.36
770.787	727.54
770.97	707.06
771.152	762.36
771.335	768.5
771.518	698.87
771.7	838.13
771.883	842.23
772.066	719.35
772.248	678.39
772.431	715.25
772.613	725.49
772.796	737.78
772.978	711.16
773.161	743.92
773.343	745.97
773.526	707.06
773.708	721.4
773.891	713.21
774.073	657.91
774.256	727.54
774.438	674.29
774.621	719.35
774.803	711.16
774.985	666.1
775.168	582.14
775.35	637.43
775.532	680.44
775.715	627.19
775.897	670.2
776.079	498.17
776.261	633.33
776.444	639.48
776.626	596.47
776.808	657.91
776.99	592.37
777.173	557.56
777.355	573.94
777.537	662.01
777.719	590.33
777.901	567.8
778.083	557.56
778.265	555.51
778.447	623.09
778.629	606.71
778.811	522.74
778.993	645.62
779.175	535.03
779.357	598.52
779.539	549.37
779.721	508.41
779.903	600.57
780.085	522.74
780.267	608.76
780.449	512.5
780.631	539.13
780.812	559.61
780.994	514.55
781.176	596.47
781.358	485.88
781.54	477.69
781.721	502.26
781.903	485.88
782.085	440.83
782.267	481.78
782.448	436.73
782.63	506.36
782.812	453.11
782.993	481.78
783.175	471.54
783.357	451.07
783.538	483.83
783.72	418.3
783.901	489.98
784.083	469.5
784.264	432.63
784.446	379.39
784.627	459.26
784.809	451.07
784.99	436.73
785.172	424.44
785.353	373.24
785.535	469.5
785.716	426.49
785.897	418.3
786.079	350.71
786.26	401.91
786.441	442.87
786.623	365.05
786.804	375.29
786.985	424.44
787.167	416.25
787.348	436.73
787.529	416.25
787.71	383.48
787.891	326.14
788.073	383.48
788.254	393.72
788.435	385.53
788.616	408.06
788.797	379.39
788.978	379.39
789.159	330.23
789.34	338.43
789.522	295.42
789.703	354.81
789.884	363
790.065	285.18
790.246	412.15
790.427	311.8
790.607	391.67
790.788	385.53
790.969	322.04
791.15	336.38
791.331	309.76
791.512	233.98
791.693	311.8
791.874	301.56
792.054	340.47
792.235	313.85
792.416	332.28
792.597	367.1
792.778	344.57
792.958	393.72
793.139	248.32
793.32	297.47
793.5	301.56
793.681	334.33
793.862	334.33
794.042	320
794.223	276.99
794.404	320
794.584	303.61
794.765	268.8
794.945	291.32
795.126	344.57
795.306	322.04
795.487	311.8
795.667	307.71
795.848	315.9
796.028	203.26
796.209	293.37
796.389	276.99
796.57	305.66
796.75	227.84
796.93	274.94
797.111	244.22
797.291	203.26
797.471	270.84
797.652	322.04
797.832	272.89
798.012	326.14
798.192	219.64
798.373	279.04
798.553	270.84
798.733	293.37
798.913	199.16
799.093	227.84
799.274	256.51
799.454	279.04
799.634	246.27
799.814	254.46
799.994	180.73
800.174	229.88
800.354	244.22
800.534	238.08
800.714	283.13
800.894	287.23
801.074	182.78
801.254	279.04
801.434	301.56
801.614	203.26
801.794	211.45
801.974	791.03
802.154	209.4
802.334	219.64
802.514	231.93
802.693	164.35
802.873	182.78
803.053	242.17
803.233	231.93
803.413	231.93
803.592	162.3
803.772	188.93
803.952	236.03
804.131	172.54
804.311	182.78
804.491	238.08
804.67	203.26
804.85	223.74
805.03	174.59
805.209	205.31
805.389	205.31
805.568	203.26
805.748	186.88
805.928	203.26
806.107	223.74
806.287	156.16
806.466	252.41
806.646	227.84
806.825	186.88
807.004	154.11
807.184	272.89
807.363	168.45
807.543	207.36
807.722	221.69
807.901	184.83
808.081	195.07
808.26	176.64
808.439	211.45
808.619	125.44
808.798	129.53
808.977	156.16
809.156	145.92
809.336	125.44
809.515	227.84
809.694	178.69
809.873	170.49
810.052	244.22
810.231	131.58
810.411	197.12
810.59	152.06
810.769	117.25
810.948	180.73
811.127	123.39
811.306	162.3
811.485	207.36
811.664	195.07
811.843	197.12
812.022	227.84
812.201	137.73
812.38	174.59
812.559	125.44
812.737	252.41
812.916	137.73
813.095	227.84
813.274	162.3
813.453	182.78
813.632	238.08
813.811	180.73
813.989	47.62
814.168	240.12
814.347	121.34
814.526	107.01
814.704	211.45
814.883	102.91
815.062	88.57
815.24	133.63
815.419	96.77
815.598	197.12
815.776	80.38
815.955	172.54
816.133	102.91
816.312	221.69
816.49	174.59
816.669	172.54
816.847	178.69
817.026	201.21
817.204	98.81
817.383	129.53
817.561	84.48
817.74	164.35
817.918	197.12
818.097	113.15
818.275	174.59
818.453	195.07
818.632	207.36
818.81	113.15
818.988	76.29
819.167	158.21
819.345	127.49
819.523	98.81
819.701	109.05
819.879	180.73
820.058	145.92
820.236	125.44
820.414	127.49
820.592	109.05
820.77	86.53
820.948	166.4
821.127	137.73
821.305	219.64
821.483	104.96
821.661	131.58
821.839	137.73
822.017	107.01
822.195	131.58
822.373	82.43
822.551	188.93
822.729	188.93
822.907	115.2
823.085	94.72
823.262	188.93
823.44	145.92
823.618	121.34
823.796	137.73
823.974	119.29
824.152	115.2
824.329	66.05
824.507	145.92
824.685	109.05
824.863	90.62
825.04	119.29
825.218	43.52
825.396	125.44
825.574	121.34
825.751	82.43
825.929	127.49
826.107	-17.92
826.284	92.67
826.462	59.9
826.639	92.67
826.817	35.33
826.994	86.53
827.172	68.09
827.349	123.39
827.527	76.29
827.704	35.33
827.882	109.05
828.059	88.57
828.237	111.1
828.414	154.11
828.591	14.85
828.769	92.67
828.946	18.94
829.124	154.11
829.301	111.1
829.478	123.39
829.655	119.29
829.833	68.09
830.01	47.62
830.187	66.05
830.364	125.44
830.542	68.09
830.719	96.77
830.896	127.49
831.073	74.24
831.25	115.2
831.427	80.38
831.604	115.2
831.782	61.95
831.959	45.57
832.136	84.48
832.313	104.96
832.49	49.66
832.667	53.76
832.844	84.48
833.021	53.76
833.198	102.91
833.374	0.51
833.551	72.19
833.728	16.9
833.905	162.3
834.082	49.66
834.259	154.11
834.436	76.29
834.612	47.62
834.789	98.81
834.966	47.62
835.143	57.86
835.319	156.16
835.496	199.16
835.673	76.29
835.85	156.16
836.026	96.77
836.203	39.42
836.38	25.09
836.556	41.47
836.733	139.77
836.909	186.88
837.086	131.58
837.262	10.75
837.439	82.43
837.616	139.77
837.792	82.43
837.968	64
838.145	72.19
838.321	41.47
838.498	47.62
838.674	68.09
838.851	104.96
839.027	115.2
839.203	98.81
839.38	113.15
839.556	41.47
839.732	82.43
839.909	66.05
840.085	2.56
840.261	57.86
840.437	72.19
840.614	80.38
840.79	78.33
840.966	154.11
841.142	55.81
841.318	55.81
841.494	66.05
841.671	72.19
841.847	82.43
842.023	43.52
842.199	137.73
842.375	64
842.551	72.19
842.727	10.75
842.903	109.05
843.079	16.9
843.255	59.9
843.431	121.34
843.607	131.58
843.783	10.75
843.959	43.52
844.134	74.24
844.31	127.49
844.486	141.82
844.662	-9.73
844.838	47.62
845.013	137.73
845.189	47.62
845.365	78.33
845.541	37.38
845.716	127.49
845.892	31.23
846.068	25.09
846.244	119.29
846.419	88.57
846.595	33.28
846.77	53.76
846.946	107.01
847.122	23.04
847.297	57.86
847.473	98.81
847.648	55.81
847.824	47.62
847.999	14.85
848.175	57.86
848.35	129.53
848.526	47.62
848.701	39.42
848.876	72.19
849.052	90.62
849.227	-30.21
849.403	29.18
849.578	127.49
849.753	14.85
849.929	64
850.104	109.05
850.279	76.29
850.454	74.24
850.63	64
850.805	-5.63
850.98	72.19
851.155	88.57
851.33	27.14
851.505	31.23
851.681	115.2
851.856	-5.63
852.031	51.71
852.206	104.96
852.381	35.33
852.556	59.9
852.731	-11.78
852.906	39.42
853.081	39.42
853.256	57.86
853.431	94.72
853.606	55.81
853.781	31.23
853.956	47.62
854.131	64
854.305	61.95
854.48	43.52
854.655	39.42
854.83	35.33
855.005	70.14
855.18	92.67
855.354	25.09
855.529	121.34
855.704	-3.58
855.879	88.57
856.053	8.7
856.228	80.38
856.403	-9.73
856.577	117.25
856.752	37.38
856.926	-9.73
857.101	2.56
857.276	47.62
857.45	55.81
857.625	100.86
857.799	72.19
857.974	88.57
858.148	82.43
858.323	53.76
858.497	53.76
858.672	14.85
858.846	39.42
859.02	43.52
859.195	41.47
859.369	82.43
859.543	33.28
859.718	68.09
859.892	10.75
860.066	66.05
860.241	-24.06
860.415	88.57
860.589	-17.92
860.763	98.81
860.938	88.57
861.112	43.52
861.286	37.38
861.46	137.73
861.634	-5.63
861.808	-1.54
861.982	23.04
862.157	-3.58
862.331	152.06
862.505	27.14
862.679	12.8
862.853	47.62
863.027	18.94
863.201	117.25
863.375	64
863.549	88.57
863.722	43.52
863.896	100.86
864.07	31.23
864.244	96.77
864.418	2.56
864.592	10.75
864.766	12.8
864.939	47.62
865.113	80.38
865.287	88.57
865.461	90.62
865.634	-11.78
865.808	6.66
865.982	-34.3
866.156	10.75
866.329	-17.92
866.503	35.33
866.676	109.05
866.85	90.62
867.024	25.09
867.197	43.52
867.371	41.47
867.544	72.19
867.718	-22.02
867.891	6.66
868.065	45.57
868.238	31.23
868.412	72.19
868.585	55.81
868.759	39.42
868.932	68.09
869.105	33.28
869.279	27.14
869.452	49.66
869.625	23.04
869.799	55.81
869.972	16.9
870.145	59.9
870.319	92.67
870.492	64
870.665	39.42
870.838	31.23
871.011	-50.69
871.185	2.56
871.358	33.28
871.531	96.77
871.704	-44.54
871.877	86.53
872.05	31.23
872.223	43.52
872.396	39.42
872.569	100.86
872.742	27.14
872.915	98.81
873.088	-9.73
873.261	35.33
873.434	18.94
873.607	27.14
873.78	61.95
873.953	-26.11
874.126	-3.58
874.299	55.81
874.471	64
874.644	-62.98
874.817	41.47
874.99	68.09
875.163	47.62
875.335	10.75
875.508	35.33
875.681	88.57
875.853	39.42
876.026	98.81
876.199	-1.54
876.371	55.81
876.544	53.76
876.717	39.42
876.889	39.42
877.062	2.56
877.234	64
877.407	82.43
877.579	25.09
877.752	57.86
877.924	76.29
878.097	39.42
878.269	39.42
878.442	-7.68
878.614	76.29
878.786	20.99
878.959	70.14
879.131	-1.54
879.303	14.85
879.476	39.42
879.648	23.04
879.82	107.01
879.993	51.71
880.165	-34.3
880.337	10.75
880.509	68.09
880.681	25.09
880.854	51.71
881.026	78.33
881.198	131.58
881.37	6.66
881.542	64
881.714	61.95
881.886	10.75
882.058	10.75
882.23	35.33
882.402	-32.26
882.574	33.28
882.746	47.62
882.918	72.19
883.09	-32.26
883.262	61.95
883.434	72.19
883.606	35.33
883.778	55.81
883.95	109.05
884.122	49.66
884.293	64
884.465	96.77
884.637	51.71
884.809	-32.26
884.98	25.09
885.152	64
885.324	23.04
885.496	33.28
885.667	27.14
885.839	29.18
886.011	64
886.182	-9.73
886.354	64
886.525	-3.58
886.697	-3.58
886.869	-30.21
887.04	45.57
887.212	-36.35
887.383	68.09
887.555	-17.92
887.726	2.56
887.897	29.18
888.069	25.09
888.24	72.19
888.412	47.62
888.583	59.9
888.754	23.04
888.926	37.38
889.097	66.05
889.268	-71.17
889.44	-38.4
889.611	45.57
889.782	47.62
889.953	-30.21
890.125	23.04
890.296	-26.11
890.467	2.56
890.638	20.99
890.809	8.7
890.98	51.71
891.151	76.29
891.323	117.25
891.494	23.04
891.665	27.14
891.836	-9.73
892.007	37.38
892.178	41.47
892.349	88.57
892.52	-83.45
892.691	39.42
892.862	-5.63
893.032	18.94
893.203	-9.73
893.374	8.7
893.545	41.47
893.716	10.75
893.887	14.85
894.057	78.33
894.228	51.71
894.399	-42.5
894.57	47.62
894.74	88.57
894.911	29.18
895.082	109.05
895.253	8.7
895.423	66.05
895.594	109.05
895.764	-60.93
895.935	-69.12
896.106	16.9
896.276	10.75
896.447	23.04
896.617	2.56
896.788	-56.83
896.958	47.62
897.129	-34.3
897.299	72.19
897.47	59.9
897.64	23.04
897.81	8.7
897.981	27.14
898.151	45.57
898.322	37.38
898.492	66.05
898.662	23.04
898.832	6.66
899.003	43.52
899.173	41.47
899.343	10.75
899.513	-17.92
