Data from USB4F104151__92__14-17-57-841.txt Node

Date: Thu Mar 13 14:17:57 EDT 2025
User: louis
Spectrometer: USB4F10415
Trigger mode: 4
Integration Time (sec): 2.000000E-2
Scans to average: 1
Electric dark correction enabled: true
Nonlinearity correction enabled: false
Boxcar width: 0
XAxis mode: Wavelengths
Number of Pixels in Spectrum: 3648
>>>>>Begin Spectral Data<<<<<
178.204	-78.51
178.424	-78.51
178.644	-78.51
178.864	-129.7
179.084	-152.23
179.304	9.56
179.524	-53.93
179.744	-74.41
179.964	85.33
180.184	-15.02
180.404	3.41
180.624	-37.55
180.844	-45.74
181.064	44.37
181.283	-12.97
181.503	36.18
181.723	60.76
181.943	-51.88
182.163	79.19
182.383	-0.68
182.602	19.8
182.822	38.23
183.042	30.04
183.262	9.56
183.482	58.71
183.701	-2.73
183.921	-12.97
184.141	19.8
184.361	89.43
184.58	-23.21
184.8	7.51
185.02	46.42
185.239	68.95
185.459	3.41
185.679	81.24
185.898	-17.07
186.118	95.57
186.338	-45.74
186.557	3.41
186.777	-64.17
186.997	54.61
187.216	27.99
187.436	40.28
187.655	-27.31
187.875	85.33
188.095	54.61
188.314	48.47
188.534	40.28
188.753	23.89
188.973	40.28
189.192	62.8
189.412	-53.93
189.631	62.8
189.851	17.75
190.07	52.56
190.29	48.47
190.509	-21.16
190.729	-19.11
190.948	21.85
191.168	77.14
191.387	52.56
191.607	-0.68
191.826	34.13
192.045	32.08
192.265	56.66
192.484	-21.16
192.704	-0.68
192.923	-4.78
193.142	62.8
193.362	40.28
193.581	-29.35
193.8	79.19
194.02	77.14
194.239	-10.92
194.458	-10.92
194.678	34.13
194.897	52.56
195.116	44.37
195.335	7.51
195.555	66.9
195.774	40.28
195.993	56.66
196.212	-23.21
196.432	-17.07
196.651	-27.31
196.87	-4.78
197.089	30.04
197.308	-58.03
197.528	-17.07
197.747	-23.21
197.966	3.41
198.185	71
198.404	-2.73
198.623	25.94
198.842	-19.11
199.062	44.37
199.281	62.8
199.5	-12.97
199.719	27.99
199.938	11.61
200.157	50.52
200.376	5.46
200.595	42.32
200.814	-29.35
201.033	71
201.252	68.95
201.471	-8.87
201.69	5.46
201.909	-37.55
202.128	34.13
202.347	73.04
202.566	19.8
202.785	-12.97
203.004	30.04
203.223	79.19
203.442	68.95
203.661	34.13
203.879	-15.02
204.098	64.85
204.317	-47.79
204.536	58.71
204.755	-17.07
204.974	13.65
205.193	38.23
205.411	54.61
205.63	40.28
205.849	11.61
206.068	40.28
206.287	5.46
206.505	87.38
206.724	73.04
206.943	48.47
207.162	11.61
207.381	-62.12
207.599	-8.87
207.818	52.56
208.037	-6.83
208.255	-19.11
208.474	-12.97
208.693	81.24
208.911	46.42
209.13	-4.78
209.349	44.37
209.567	-6.83
209.786	40.28
210.005	40.28
210.223	34.13
210.442	-33.45
210.661	36.18
210.879	21.85
211.098	-12.97
211.316	7.51
211.535	27.99
211.753	32.08
211.972	36.18
212.191	-27.31
212.409	77.14
212.628	52.56
212.846	13.65
213.065	15.7
213.283	68.95
213.502	60.76
213.72	32.08
213.938	-19.11
214.157	27.99
214.375	19.8
214.594	101.72
214.812	25.94
215.031	48.47
215.249	-4.78
215.467	30.04
215.686	-0.68
215.904	-12.97
216.122	44.37
216.341	-4.78
216.559	64.85
216.778	5.46
216.996	23.89
217.214	7.51
217.432	73.04
217.651	-62.12
217.869	3.41
218.087	-17.07
218.306	44.37
218.524	19.8
218.742	17.75
218.96	13.65
219.179	101.72
219.397	38.23
219.615	68.95
219.833	40.28
220.051	-25.26
220.27	44.37
220.488	-35.5
220.706	36.18
220.924	58.71
221.142	36.18
221.36	-0.68
221.578	-17.07
221.796	11.61
222.015	13.65
222.233	21.85
222.451	130.39
222.669	-12.97
222.887	68.95
223.105	85.33
223.323	30.04
223.541	5.46
223.759	105.81
223.977	34.13
224.195	91.48
224.413	38.23
224.631	30.04
224.849	124.24
225.067	89.43
225.285	-25.26
225.503	44.37
225.721	-58.03
225.939	-4.78
226.157	-17.07
226.375	114
226.592	-21.16
226.81	-25.26
227.028	54.61
227.246	27.99
227.464	13.65
227.682	32.08
227.9	87.38
228.117	73.04
228.335	5.46
228.553	-19.11
228.771	11.61
228.989	32.08
229.206	64.85
229.424	3.41
229.642	-2.73
229.86	30.04
230.077	109.91
230.295	62.8
230.513	77.14
230.731	95.57
230.948	71
231.166	46.42
231.384	40.28
231.601	-45.74
231.819	60.76
232.037	68.95
232.254	-12.97
232.472	79.19
232.689	60.76
232.907	171.35
233.125	73.04
233.342	81.24
233.56	-45.74
233.777	-27.31
233.995	44.37
234.213	36.18
234.43	19.8
234.648	-29.35
234.865	48.47
235.083	77.14
235.3	-8.87
235.518	42.32
235.735	68.95
235.953	122.2
236.17	15.7
236.388	36.18
236.605	27.99
236.822	68.95
237.04	-43.69
237.257	42.32
237.475	27.99
237.692	60.76
237.909	60.76
238.127	-45.74
238.344	101.72
238.562	13.65
238.779	15.7
238.996	-4.78
239.214	44.37
239.431	19.8
239.648	-49.83
239.865	32.08
240.083	46.42
240.3	-29.35
240.517	-29.35
240.735	-10.92
240.952	15.7
241.169	54.61
241.386	-10.92
241.603	13.65
241.821	11.61
242.038	118.1
242.255	1.37
242.472	-0.68
242.689	3.41
242.907	40.28
243.124	-21.16
243.341	-10.92
243.558	-66.22
243.775	-25.26
243.992	5.46
244.209	30.04
244.426	77.14
244.643	42.32
244.86	-37.55
245.078	-8.87
245.295	-35.5
245.512	87.38
245.729	-68.27
245.946	7.51
246.163	5.46
246.38	30.04
246.597	32.08
246.814	85.33
247.031	-15.02
247.248	3.41
247.464	50.52
247.681	30.04
247.898	-2.73
248.115	11.61
248.332	-94.89
248.549	11.61
248.766	40.28
248.983	30.04
249.2	64.85
249.417	71
249.633	44.37
249.85	-8.87
250.067	19.8
250.284	-4.78
250.501	-45.74
250.717	52.56
250.934	56.66
251.151	36.18
251.368	19.8
251.585	77.14
251.801	-21.16
252.018	-29.35
252.235	3.41
252.451	-60.07
252.668	-17.07
252.885	124.24
253.102	27.99
253.318	-12.97
253.535	-4.78
253.752	62.8
253.968	-51.88
254.185	-17.07
254.401	52.56
254.618	60.76
254.835	-37.55
255.051	54.61
255.268	-58.03
255.484	19.8
255.701	19.8
255.917	44.37
256.134	-45.74
256.351	21.85
256.567	48.47
256.784	15.7
257	-8.87
257.217	54.61
257.433	40.28
257.65	60.76
257.866	46.42
258.082	44.37
258.299	40.28
258.515	11.61
258.732	64.85
258.948	30.04
259.165	3.41
259.381	23.89
259.597	36.18
259.814	21.85
260.03	-10.92
260.246	60.76
260.463	30.04
260.679	66.9
260.895	-19.11
261.112	44.37
261.328	11.61
261.544	-37.55
261.761	40.28
261.977	19.8
262.193	27.99
262.409	19.8
262.626	27.99
262.842	109.91
263.058	13.65
263.274	89.43
263.49	60.76
263.707	85.33
263.923	23.89
264.139	-33.45
264.355	40.28
264.571	-21.16
264.787	11.61
265.004	103.76
265.22	-35.5
265.436	-21.16
265.652	52.56
265.868	44.37
266.084	32.08
266.3	-17.07
266.516	52.56
266.732	50.52
266.948	60.76
267.164	30.04
267.38	91.48
267.596	95.57
267.812	95.57
268.028	71
268.244	85.33
268.46	23.89
268.676	46.42
268.892	5.46
269.108	7.51
269.324	52.56
269.54	11.61
269.756	52.56
269.972	75.09
270.188	-45.74
270.403	21.85
270.619	77.14
270.835	15.7
271.051	87.38
271.267	34.13
271.483	62.8
271.698	38.23
271.914	56.66
272.13	36.18
272.346	-35.5
272.562	36.18
272.777	142.68
272.993	68.95
273.209	13.65
273.425	13.65
273.64	-0.68
273.856	54.61
274.072	-45.74
274.287	27.99
274.503	-37.55
274.719	52.56
274.934	-19.11
275.15	-86.7
275.366	19.8
275.581	-0.68
275.797	73.04
276.012	9.56
276.228	11.61
276.444	81.24
276.659	44.37
276.875	7.51
277.09	15.7
277.306	9.56
277.521	23.89
277.737	13.65
277.952	3.41
278.168	85.33
278.383	7.51
278.599	36.18
278.814	21.85
279.03	-12.97
279.245	40.28
279.461	36.18
279.676	32.08
279.892	42.32
280.107	44.37
280.322	52.56
280.538	101.72
280.753	11.61
280.969	52.56
281.184	-12.97
281.399	71
281.615	-2.73
281.83	77.14
282.045	-2.73
282.26	27.99
282.476	-0.68
282.691	109.91
282.906	56.66
283.122	107.86
283.337	-4.78
283.552	101.72
283.767	-21.16
283.983	19.8
284.198	1.37
284.413	118.1
284.628	-4.78
284.843	54.61
285.058	27.99
285.274	42.32
285.489	36.18
285.704	60.76
285.919	54.61
286.134	27.99
286.349	11.61
286.564	-0.68
286.779	19.8
286.995	-10.92
287.21	19.8
287.425	52.56
287.64	7.51
287.855	62.8
288.07	-37.55
288.285	95.57
288.5	132.44
288.715	-39.59
288.93	27.99
289.145	30.04
289.36	48.47
289.575	-27.31
289.79	48.47
290.004	3.41
290.219	34.13
290.434	-0.68
290.649	46.42
290.864	48.47
291.079	5.46
291.294	17.75
291.509	-4.78
291.724	52.56
291.938	-0.68
292.153	38.23
292.368	-10.92
292.583	75.09
292.798	40.28
293.012	-8.87
293.227	68.95
293.442	46.42
293.657	120.15
293.871	128.34
294.086	19.8
294.301	101.72
294.516	27.99
294.73	85.33
294.945	-17.07
295.16	40.28
295.374	11.61
295.589	40.28
295.804	-45.74
296.018	30.04
296.233	44.37
296.447	30.04
296.662	44.37
296.877	-21.16
297.091	21.85
297.306	46.42
297.52	23.89
297.735	30.04
297.949	11.61
298.164	159.06
298.378	7.51
298.593	1.37
298.807	46.42
299.022	-53.93
299.236	30.04
299.451	-29.35
299.665	30.04
299.88	103.76
300.094	-8.87
300.309	58.71
300.523	-21.16
300.737	60.76
300.952	36.18
301.166	40.28
301.381	-29.35
301.595	5.46
301.809	11.61
302.024	46.42
302.238	62.8
302.452	19.8
302.667	-0.68
302.881	-6.83
303.095	21.85
303.309	75.09
303.524	3.41
303.738	19.8
303.952	13.65
304.166	19.8
304.381	-88.75
304.595	-2.73
304.809	-8.87
305.023	85.33
305.237	-17.07
305.452	13.65
305.666	15.7
305.88	27.99
306.094	9.56
306.308	52.56
306.522	77.14
306.736	23.89
306.95	52.56
307.164	44.37
307.379	5.46
307.593	44.37
307.807	68.95
308.021	3.41
308.235	60.76
308.449	23.89
308.663	75.09
308.877	64.85
309.091	-21.16
309.305	27.99
309.519	-4.78
309.733	-21.16
309.947	23.89
310.161	25.94
310.374	73.04
310.588	68.95
310.802	54.61
311.016	-6.83
311.23	30.04
311.444	1.37
311.658	77.14
311.872	101.72
312.085	-4.78
312.299	-12.97
312.513	97.62
312.727	15.7
312.941	-0.68
313.154	17.75
313.368	27.99
313.582	-2.73
313.796	32.08
314.009	21.85
314.223	25.94
314.437	52.56
314.651	40.28
314.864	48.47
315.078	32.08
315.292	54.61
315.505	30.04
315.719	-55.98
315.933	3.41
316.146	-51.88
316.36	-21.16
316.573	60.76
316.787	109.91
317.001	52.56
317.214	-35.5
317.428	-17.07
317.641	54.61
317.855	68.95
318.068	1.37
318.282	15.7
318.495	52.56
318.709	93.52
318.922	38.23
319.136	109.91
319.349	46.42
319.563	-62.12
319.776	19.8
319.99	-29.35
320.203	38.23
320.417	32.08
320.63	89.43
320.843	136.53
321.057	40.28
321.27	40.28
321.483	15.7
321.697	93.52
321.91	32.08
322.124	73.04
322.337	30.04
322.55	27.99
322.763	34.13
322.977	48.47
323.19	-0.68
323.403	54.61
323.617	-21.16
323.83	50.52
324.043	1.37
324.256	27.99
324.469	-64.17
324.683	-4.78
324.896	36.18
325.109	71
325.322	11.61
325.535	23.89
325.748	89.43
325.962	101.72
326.175	19.8
326.388	54.61
326.601	109.91
326.814	27.99
327.027	44.37
327.24	77.14
327.453	-43.69
327.666	54.61
327.879	122.2
328.092	7.51
328.305	32.08
328.518	38.23
328.731	27.99
328.944	27.99
329.157	60.76
329.37	-0.68
329.583	109.91
329.796	62.8
330.009	-12.97
330.222	114
330.435	68.95
330.648	93.52
330.861	17.75
331.073	25.94
331.286	-2.73
331.499	75.09
331.712	15.7
331.925	30.04
332.138	62.8
332.35	68.95
332.563	30.04
332.776	126.29
332.989	5.46
333.202	-17.07
333.414	3.41
333.627	-37.55
333.84	36.18
334.053	-41.64
334.265	79.19
334.478	11.61
334.691	38.23
334.903	13.65
335.116	-33.45
335.329	40.28
335.541	25.94
335.754	25.94
335.966	-29.35
336.179	64.85
336.392	118.1
336.604	73.04
336.817	54.61
337.029	54.61
337.242	13.65
337.454	23.89
337.667	23.89
337.88	97.62
338.092	52.56
338.305	66.9
338.517	107.86
338.729	73.04
338.942	101.72
339.154	1.37
339.367	71
339.579	62.8
339.792	48.47
340.004	-27.31
340.217	19.8
340.429	87.38
340.641	-12.97
340.854	36.18
341.066	15.7
341.278	85.33
341.491	32.08
341.703	-31.4
341.915	-19.11
342.128	71
342.34	42.32
342.552	-27.31
342.764	77.14
342.977	-0.68
343.189	-12.97
343.401	60.76
343.613	21.85
343.826	38.23
344.038	-2.73
344.25	54.61
344.462	89.43
344.674	77.14
344.886	62.8
345.099	79.19
345.311	19.8
345.523	-21.16
345.735	15.7
345.947	62.8
346.159	-6.83
346.371	85.33
346.583	13.65
346.795	85.33
347.007	-51.88
347.219	-29.35
347.431	48.47
347.643	54.61
347.855	-10.92
348.067	118.1
348.279	-4.78
348.491	48.47
348.703	75.09
348.915	1.37
349.127	46.42
349.339	46.42
349.551	36.18
349.763	15.7
349.975	46.42
350.187	68.95
350.399	3.41
350.61	17.75
350.822	13.65
351.034	64.85
351.246	60.76
351.458	122.2
351.669	42.32
351.881	54.61
352.093	21.85
352.305	46.42
352.517	81.24
352.728	56.66
352.94	38.23
353.152	54.61
353.363	-27.31
353.575	21.85
353.787	77.14
353.999	68.95
354.21	50.52
354.422	11.61
354.633	-4.78
354.845	-21.16
355.057	13.65
355.268	-8.87
355.48	77.14
355.692	50.52
355.903	-35.5
356.115	136.53
356.326	11.61
356.538	5.46
356.749	13.65
356.961	93.52
357.172	27.99
357.384	7.51
357.595	109.91
357.807	40.28
358.018	32.08
358.23	7.51
358.441	34.13
358.653	75.09
358.864	11.61
359.075	32.08
359.287	93.52
359.498	77.14
359.709	71
359.921	13.65
360.132	32.08
360.344	93.52
360.555	11.61
360.766	54.61
360.977	-17.07
361.189	27.99
361.4	38.23
361.611	64.85
361.823	36.18
362.034	93.52
362.245	36.18
362.456	75.09
362.667	40.28
362.879	-8.87
363.09	52.56
363.301	122.2
363.512	81.24
363.723	-8.87
363.935	40.28
364.146	19.8
364.357	87.38
364.568	36.18
364.779	44.37
364.99	85.33
365.201	25.94
365.412	64.85
365.623	27.99
365.834	136.53
366.045	60.76
366.256	83.28
366.467	103.76
366.678	60.76
366.889	-0.68
367.1	-35.5
367.311	21.85
367.522	30.04
367.733	79.19
367.944	19.8
368.155	62.8
368.366	-2.73
368.577	68.95
368.788	23.89
368.999	32.08
369.209	9.56
369.42	79.19
369.631	64.85
369.842	27.99
370.053	11.61
370.264	-10.92
370.474	-8.87
370.685	38.23
370.896	54.61
371.107	30.04
371.317	89.43
371.528	-35.5
371.739	54.61
371.95	34.13
372.16	40.28
372.371	-12.97
372.582	85.33
372.792	44.37
373.003	46.42
373.214	60.76
373.424	68.95
373.635	3.41
373.846	46.42
374.056	27.99
374.267	30.04
374.477	44.37
374.688	-23.21
374.898	60.76
375.109	48.47
375.319	52.56
375.53	77.14
375.74	9.56
375.951	114
376.161	52.56
376.372	58.71
376.582	13.65
376.793	134.48
377.003	126.29
377.214	34.13
377.424	27.99
377.635	118.1
377.845	-8.87
378.055	77.14
378.266	52.56
378.476	54.61
378.686	60.76
378.897	36.18
379.107	62.8
379.317	77.14
379.528	27.99
379.738	71
379.948	46.42
380.158	114
380.369	-21.16
380.579	91.48
380.789	11.61
380.999	118.1
381.21	89.43
381.42	79.19
381.63	95.57
381.84	95.57
382.05	36.18
382.261	75.09
382.471	23.89
382.681	60.76
382.891	46.42
383.101	17.75
383.311	-55.98
383.521	-12.97
383.731	9.56
383.941	44.37
384.151	60.76
384.361	38.23
384.571	19.8
384.781	60.76
384.991	52.56
385.201	105.81
385.411	75.09
385.621	68.95
385.831	1.37
386.041	77.14
386.251	1.37
386.461	13.65
386.671	46.42
386.881	79.19
387.091	68.95
387.301	91.48
387.511	64.85
387.72	23.89
387.93	44.37
388.14	-12.97
388.35	89.43
388.56	68.95
388.769	21.85
388.979	138.58
389.189	81.24
389.399	36.18
389.609	34.13
389.818	97.62
390.028	68.95
390.238	46.42
390.447	-12.97
390.657	107.86
390.867	30.04
391.076	25.94
391.286	71
391.496	46.42
391.705	64.85
391.915	95.57
392.125	40.28
392.334	21.85
392.544	111.96
392.753	17.75
392.963	93.52
393.172	85.33
393.382	25.94
393.591	114
393.801	52.56
394.01	68.95
394.22	81.24
394.429	58.71
394.639	34.13
394.848	46.42
395.058	46.42
395.267	101.72
395.477	19.8
395.686	122.2
395.895	52.56
396.105	21.85
396.314	71
396.524	101.72
396.733	56.66
396.942	50.52
397.152	154.96
397.361	91.48
397.57	93.52
397.78	109.91
397.989	128.34
398.198	142.68
398.407	136.53
398.617	126.29
398.826	140.63
399.035	93.52
399.244	130.39
399.453	48.47
399.663	111.96
399.872	79.19
400.081	19.8
400.29	95.57
400.499	93.52
400.708	114
400.917	111.96
401.127	101.72
401.336	11.61
401.545	183.63
401.754	134.48
401.963	101.72
402.172	77.14
402.381	52.56
402.59	68.95
402.799	152.92
403.008	66.9
403.217	146.77
403.426	109.91
403.635	154.96
403.844	95.57
404.053	161.11
404.262	109.91
404.471	109.91
404.68	154.96
404.888	140.63
405.097	126.29
405.306	120.15
405.515	159.06
405.724	132.44
405.933	93.52
406.142	159.06
406.35	167.25
406.559	177.49
406.768	146.77
406.977	191.83
407.185	142.68
407.394	152.92
407.603	148.82
407.812	150.87
408.02	126.29
408.229	191.83
408.438	191.83
408.646	163.15
408.855	161.11
409.064	200.02
409.272	232.79
409.481	290.13
409.69	224.59
409.898	238.93
410.107	216.4
410.315	255.31
410.524	255.31
410.733	339.28
410.941	341.33
411.15	322.9
411.358	337.23
411.567	404.82
411.775	300.37
411.984	310.61
412.192	343.38
412.401	372.05
412.609	292.18
412.818	417.1
413.026	421.2
413.234	484.69
413.443	439.63
413.651	374.1
413.86	390.48
414.068	513.36
414.276	550.22
414.485	488.78
414.693	585.04
414.901	515.41
415.11	564.56
415.318	513.36
415.526	568.65
415.734	666.96
415.943	613.71
416.151	654.67
416.359	578.89
416.567	650.57
416.776	728.39
416.984	734.54
417.192	777.55
417.4	744.78
417.608	781.64
417.817	865.61
418.025	935.24
418.233	900.42
418.441	902.47
418.649	916.81
418.857	1060.17
419.065	1072.45
419.273	1039.69
419.481	1105.22
419.689	1217.86
419.897	1209.67
420.105	1307.97
420.313	1273.15
420.521	1285.44
420.729	1273.15
420.937	1400.13
421.145	1449.28
421.353	1545.53
421.561	1566.01
421.769	1555.77
421.977	1733.95
422.185	1715.52
422.393	1762.62
422.601	1889.59
422.809	1873.21
423.017	1893.69
423.224	1977.66
423.432	2061.62
423.64	2016.57
423.848	2387.25
424.056	2282.8
424.263	2327.86
424.471	2344.24
424.679	2278.71
424.887	2477.36
425.094	2557.23
425.302	2542.89
425.51	2755.88
425.718	2690.35
425.925	2788.65
426.133	2837.8
426.341	2946.34
426.548	3231.01
426.756	3282.21
426.964	3269.92
427.171	3460.38
427.379	3538.21
427.586	3566.88
427.794	3765.53
428.001	3775.77
428.209	4082.97
428.417	4033.82
428.624	4336.92
428.832	4279.57
429.039	4257.04
429.247	4255
429.454	4590.86
429.662	4871.43
429.869	4705.55
430.076	4840.72
430.284	4652.3
430.491	4967.69
430.699	5367.04
430.906	5338.37
431.114	5233.93
431.321	5477.63
431.528	5655.81
431.736	6245.62
431.943	6352.12
432.15	6128.89
432.358	6249.72
432.565	6628.59
432.772	6565.11
432.979	6941.93
433.187	7169.26
433.394	6970.6
433.601	7400.68
433.808	7351.53
434.016	7519.46
434.223	7736.54
434.43	8250.58
434.637	8051.93
434.844	8547.54
435.052	8660.18
435.259	8787.15
435.466	8860.88
435.673	8543.44
435.88	9219.27
436.087	9618.63
436.294	9538.76
436.501	9542.85
436.708	9485.51
436.915	10122.43
437.122	10468.53
437.329	10384.57
437.537	10874.03
437.743	11005.1
437.95	10695.86
438.157	11605.16
438.364	11768.99
438.571	11814.05
438.778	11775.14
438.985	13012.11
439.192	12315.8
439.399	12715.16
439.606	12237.98
439.813	13212.81
440.02	14005.38
440.227	13757.57
440.433	13712.52
440.64	14046.33
440.847	14062.72
441.054	14199.93
441.261	15314.03
441.467	15410.28
441.674	15486.06
441.881	16041.06
442.088	15920.23
442.294	15758.44
442.501	16346.2
442.708	16366.68
442.914	17269.84
443.121	17732.68
443.328	17296.46
443.534	18744.38
443.741	18275.39
443.948	18109.5
444.154	19223.6
444.361	19029.04
444.568	19260.46
444.774	19412.01
444.981	19303.47
445.187	19790.89
445.394	20825.11
445.6	20601.88
445.807	22653.95
446.013	21500.94
446.22	21554.19
446.426	22711.29
446.633	22903.8
446.839	23788.52
447.046	22666.24
447.252	24130.53
447.459	24380.39
447.665	23923.69
447.871	25027.54
448.078	26285
448.284	24597.47
448.491	25727.95
448.697	26508.22
448.903	27050.94
449.11	27081.66
449.316	26700.73
449.522	27218.87
449.728	27870.12
449.935	28154.79
450.141	27847.6
450.347	28804
450.553	27665.33
450.76	28304.29
450.966	29041.56
451.172	28636.06
451.378	29445.01
451.584	28885.92
451.791	29569.94
451.997	29750.16
452.203	29936.52
452.409	30395.27
452.615	29784.97
452.821	28801.95
453.027	28414.88
453.233	30073.74
453.44	28965.79
453.646	29221.78
453.852	29547.41
454.058	29997.96
454.264	28644.26
454.47	29672.34
454.676	28953.5
454.882	29705.1
455.088	27403.19
455.294	27800.49
455.5	28056.49
455.705	28287.91
455.911	27417.52
456.117	26551.23
456.323	26160.07
456.529	25283.54
456.735	26293.19
456.941	25228.24
457.147	25103.32
457.352	24329.19
457.558	24181.73
457.764	23968.74
457.97	23747.56
458.176	22993.91
458.381	23110.64
458.587	22111.24
458.793	22025.22
458.999	21097.49
459.204	22262.79
459.41	21892.1
459.616	20593.69
459.821	20368.41
460.027	20171.81
460.233	20001.83
460.438	19024.95
460.644	19156.02
460.85	18172.99
461.055	18080.83
461.261	17654.86
461.466	16551
461.672	16100.45
461.878	17364.04
462.083	16174.17
462.289	15807.59
462.494	15776.87
462.7	14828.66
462.905	14728.31
463.111	15254.64
463.316	15334.51
463.522	14857.33
463.727	14937.2
463.932	15055.98
464.138	14883.95
464.343	15072.37
464.549	14300.28
464.754	14593.14
464.959	14724.21
465.165	14281.85
465.37	13997.18
465.575	13593.73
465.781	14118.01
465.986	14417.02
466.191	13765.76
466.397	13382.79
466.602	12737.68
466.807	13227.15
467.012	13218.96
467.218	13358.22
467.423	12821.65
467.628	13178
467.833	13730.95
468.038	13280.39
468.244	13005.97
468.449	13270.15
468.654	12833.94
468.859	12854.42
469.064	12694.68
469.269	11981.98
469.474	12504.21
469.679	12504.21
469.885	12244.12
470.09	12342.42
470.295	12397.72
470.5	11857.06
470.705	12074.14
470.91	11889.82
471.115	11820.19
471.32	12072.09
471.525	11723.94
471.73	11504.81
471.935	11400.36
472.139	11050.16
472.344	11343.02
472.549	11293.86
472.754	11170.99
472.959	10706.1
473.164	10564.79
473.369	10437.81
473.574	10953.9
473.778	10558.64
473.983	10785.97
474.188	10667.19
474.393	10142.91
474.598	10179.77
474.802	10132.67
475.007	10071.23
475.212	10026.17
475.417	9866.43
475.621	9745.6
475.826	9678.02
476.031	9571.52
476.235	9346.25
476.44	9643.2
476.645	9342.15
476.849	9397.45
477.054	9321.67
477.259	9059.53
477.463	9178.31
477.668	8557.78
477.872	9096.39
478.077	8735.95
478.282	8758.48
478.486	8535.25
478.691	8525.01
478.895	8303.83
479.1	8420.56
479.304	8484.05
479.509	8144.09
479.713	8371.41
479.918	8154.33
480.122	8056.03
480.326	8219.86
480.531	8211.67
480.735	8172.76
480.94	7826.65
481.144	8232.15
481.348	8058.07
481.553	7752.93
481.757	7818.46
481.961	7869.66
482.166	7918.81
482.37	7935.2
482.574	7875.81
482.778	7793.89
482.983	8027.35
483.187	7820.51
483.391	8002.78
483.595	7791.84
483.8	7937.24
484.004	7957.72
484.208	7853.28
484.412	7888.09
484.616	7906.52
484.821	8049.88
485.025	7576.8
485.229	7904.48
485.433	7826.65
485.637	7937.24
485.841	7724.26
486.045	7775.45
486.249	7800.03
486.453	7818.46
486.657	7714.02
486.861	7900.38
487.065	7621.86
487.269	7933.15
487.473	7730.4
487.677	7785.69
487.881	7859.42
488.085	7802.08
488.289	7957.72
488.493	7861.47
488.697	7904.48
488.901	7840.99
489.105	8000.73
489.309	7982.3
489.512	7875.81
489.716	8058.07
489.92	8170.71
490.124	7896.28
490.328	7992.54
490.531	7961.82
490.735	8080.6
490.939	8129.75
491.143	8023.26
491.346	8146.14
491.55	8154.33
491.754	8285.4
491.958	8453.33
492.161	8230.1
492.365	8510.68
492.569	8236.25
492.772	8223.96
492.976	8514.77
493.18	8426.71
493.383	8486.1
493.587	8690.9
493.79	8672.47
493.994	8596.69
494.197	8785.1
494.401	8916.17
494.605	8791.25
494.808	8893.65
495.012	8781.01
495.215	8930.51
495.419	9211.08
495.622	9161.93
495.825	9321.67
496.029	8991.95
496.232	9213.13
496.436	9200.84
496.639	9725.12
496.843	9495.75
497.046	9544.9
497.249	9792.7
497.453	9804.99
497.656	10040.51
497.859	10038.46
498.063	9970.88
498.266	10433.72
498.469	10165.43
498.673	10556.6
498.876	10466.49
499.079	10808.5
499.282	10587.32
499.485	10996.91
499.689	10927.28
499.892	11060.4
500.095	11009.2
500.298	11238.57
500.501	11429.03
500.705	11877.54
500.908	11873.44
501.111	11979.93
501.314	11971.74
501.517	12184.73
501.72	12274.84
501.923	12145.82
502.126	12504.21
502.329	12782.74
502.532	12901.52
502.735	12723.35
502.938	12934.29
503.141	13155.47
503.344	13368.46
503.547	13380.75
503.75	13583.49
503.953	13792.39
504.156	13913.22
504.359	13982.85
504.562	14339.19
504.765	14468.22
504.968	14494.84
505.17	14734.45
505.373	14691.45
505.576	15043.7
505.779	15279.21
505.982	15178.86
506.185	15666.28
506.387	15656.04
506.59	15641.7
506.793	15684.71
506.996	15772.77
507.198	16520.28
507.401	16305.24
507.604	16696.41
507.807	16811.09
508.009	17011.79
508.212	17243.21
508.415	17169.49
508.617	17390.67
508.82	17443.92
509.022	17650.76
509.225	17808.45
509.428	18230.34
509.63	18123.84
509.833	18459.71
510.035	18840.63
510.238	18435.13
510.44	18959.41
510.643	19139.63
510.845	19412.01
511.048	19373.1
511.25	19702.82
511.453	19950.63
511.655	20538.4
511.858	20356.13
512.06	20470.81
512.262	20794.39
512.465	20890.65
512.667	21083.16
512.87	21234.71
513.072	21267.47
513.274	21859.34
513.477	22031.37
513.679	22158.34
513.881	22316.03
514.084	22610.94
514.286	22385.66
514.488	22529.02
514.69	23315.44
514.893	23305.2
515.095	23399.41
515.297	23747.56
515.499	23948.26
515.701	24146.92
515.904	24435.68
516.106	24366.05
516.308	24726.49
516.51	25271.25
516.712	25179.09
516.914	25535.44
517.116	25793.48
517.318	25748.43
517.52	26131.4
517.722	25998.28
517.925	26627.01
518.127	26772.41
518.329	26635.2
518.531	26835.9
518.733	27438
518.935	27337.65
519.136	27567.02
519.338	27655.09
519.54	28150.7
519.742	28646.3
519.944	28531.62
520.146	29100.95
520.348	29129.62
520.55	29268.89
520.752	29473.68
520.954	29703.06
521.155	29836.17
521.357	30423.94
521.559	30622.59
521.761	30708.61
521.963	30358.41
522.164	31009.66
522.366	31003.52
522.568	31390.58
522.77	31308.66
522.971	32168.81
523.173	31667.06
523.375	32162.67
523.576	32043.88
523.778	32193.39
523.98	32420.71
524.181	32674.66
524.383	32660.32
524.584	33074.01
524.786	33289.05
524.988	33172.32
525.189	33688.4
525.391	33602.39
525.592	34155.34
525.794	33604.44
525.995	34114.38
526.197	33821.52
526.398	34022.22
526.6	34388.81
526.801	34724.68
527.003	35187.52
527.204	34952
527.406	35210.04
527.607	34923.33
527.808	35373.88
528.01	34714.44
528.211	34911.04
528.412	35347.26
528.614	35838.77
528.815	35539.77
529.016	35947.31
529.218	35732.28
529.419	35967.79
529.62	36057.9
529.822	36008.75
530.023	35875.63
530.224	36033.33
530.425	36006.7
530.626	36064.05
530.828	35838.77
531.029	36834.08
531.23	36047.66
531.431	36299.56
531.632	36518.7
531.833	36657.96
532.035	36713.25
532.236	36418.35
532.437	36639.53
532.638	36406.06
532.839	36543.27
533.04	36860.71
533.241	36571.94
533.442	37126.94
533.643	36918.05
533.844	37010.21
534.045	36844.32
534.246	36776.74
534.447	36866.85
534.648	36920.1
534.849	36854.56
535.05	36561.7
535.251	37067.55
535.451	36590.38
535.652	37153.57
535.853	36541.22
536.054	37092.13
536.255	36989.73
536.456	36549.42
536.657	37638.93
536.857	37026.59
537.058	36840.23
537.259	36889.38
537.46	37378.84
537.66	36555.56
537.861	36793.12
538.062	37038.88
538.263	37274.4
538.463	36571.94
538.664	36907.81
538.865	37116.7
539.065	36883.23
539.266	36733.73
539.466	37403.42
539.667	36272.94
539.868	37311.26
540.068	36817.7
540.269	37038.88
540.469	37151.52
540.67	36571.94
540.87	37104.42
541.071	36969.25
541.271	37159.71
541.472	37077.79
541.672	36586.28
541.873	36959.01
542.073	36555.56
542.274	37253.92
542.474	36913.95
542.675	36844.32
542.875	37063.46
543.075	36832.04
543.276	36512.55
543.476	37272.35
543.676	36737.83
543.877	37270.3
544.077	36965.15
544.277	36832.04
544.478	36633.38
544.678	36582.18
544.878	36985.63
545.078	36864.8
545.279	36623.14
545.479	36864.8
545.679	37016.35
545.879	36543.27
546.079	36430.63
546.28	36584.23
546.48	35879.73
546.68	36741.92
546.88	37020.45
547.08	36596.52
547.28	36401.96
547.48	36346.67
547.68	36872.99
547.88	36313.9
548.081	36614.95
548.281	36807.46
548.481	36334.38
548.681	36903.71
548.881	36608.81
549.081	36856.61
549.28	36320.04
549.48	36610.85
549.68	36719.4
549.88	36963.11
550.08	36440.87
550.28	36655.91
550.48	36610.85
550.68	36985.63
550.88	36623.14
551.08	36442.92
551.279	36760.36
551.479	36389.67
551.679	36803.36
551.879	36352.81
552.079	36838.18
552.278	36504.36
552.478	36633.38
552.678	36686.63
552.878	36848.42
553.077	36535.08
553.277	36365.1
553.477	36520.74
553.676	36447.02
553.876	36285.23
554.076	36109.1
554.275	36307.76
554.475	36141.87
554.674	36563.75
554.874	36324.14
555.074	36334.38
555.273	36219.69
555.473	36258.6
555.672	36018.99
555.872	36444.97
556.071	36197.17
556.271	36633.38
556.47	36246.32
556.67	35756.85
556.869	36137.77
557.068	36328.24
557.268	35689.27
557.467	35896.11
557.667	36139.82
557.866	35961.65
558.065	35894.07
558.265	35984.18
558.464	35521.34
558.663	35826.48
558.863	35814.19
559.062	36211.5
559.261	35605.3
559.461	35881.78
559.66	35357.5
559.859	36000.56
560.058	35117.89
560.258	35691.32
560.457	35140.41
560.656	35601.21
560.855	35255.1
561.054	35795.76
561.253	35365.69
561.453	35257.15
561.652	35111.74
561.851	35412.79
562.05	35564.34
562.249	35015.49
562.448	35629.88
562.647	35218.24
562.846	35218.24
563.045	35552.05
563.244	34855.75
563.443	35281.72
563.642	34698.05
563.841	34902.85
564.04	34880.32
564.239	35134.27
564.438	34933.57
564.637	35083.07
564.836	34775.87
565.035	34134.86
565.234	34513.73
565.432	34206.54
565.631	34796.35
565.83	34712.39
566.029	34095.95
566.228	34460.49
566.427	34321.23
566.625	34421.58
566.824	33721.17
567.023	34243.4
567.222	33936.21
567.42	34022.22
567.619	34007.89
567.818	33876.82
568.016	33731.41
568.215	33891.15
568.414	33663.83
568.612	33882.96
568.811	33182.56
569.01	33370.97
569.208	33354.58
569.407	33526.61
569.605	33174.36
569.804	33655.64
570.002	33102.68
570.201	33323.86
570.4	33053.53
570.598	32998.24
570.797	32901.98
570.995	33026.91
571.193	32635.75
571.392	32895.84
571.59	32799.58
571.789	32635.75
571.987	32480.1
572.186	32562.02
572.384	32217.96
572.582	32254.83
572.781	32846.69
572.979	31953.77
573.177	32205.67
573.376	32289.64
573.574	31873.9
573.772	32070.51
573.971	32088.94
574.169	31781.74
574.367	31691.63
574.565	31941.49
574.763	31579
574.962	31695.73
575.16	31361.91
575.358	31464.31
575.556	30927.74
575.754	31824.75
575.952	31228.79
576.151	31478.64
576.349	31296.38
576.547	31136.63
576.745	30956.41
576.943	31026.04
577.141	30923.65
577.339	30841.73
577.537	30434.18
577.735	30681.99
577.933	30657.41
578.131	30669.7
578.329	30899.07
578.527	29932.43
578.725	30626.69
578.923	29969.29
579.121	29995.92
579.319	29787.02
579.516	30131.08
579.714	30110.6
579.912	30040.97
580.11	30116.75
580.308	30096.27
580.506	29811.6
580.704	29451.16
580.901	29600.66
581.099	30161.8
581.297	29445.01
581.495	29348.76
581.692	29457.3
581.89	28937.12
582.088	29412.24
582.285	28978.08
582.483	29567.89
582.681	29078.43
582.878	29252.5
583.076	28681.12
583.274	29002.65
583.471	28359.59
583.669	28736.41
583.866	28175.27
584.064	28638.11
584.262	28556.19
584.459	28410.79
584.657	28074.92
584.854	28617.63
585.052	27794.35
585.249	27843.5
585.447	27995.05
585.644	27667.38
585.841	27792.3
586.039	28181.42
586.236	27704.24
586.434	27401.14
586.631	27386.8
586.828	27786.16
587.026	27227.06
587.223	27704.24
587.42	27012.03
587.618	27222.97
587.815	27282.36
588.012	27007.93
588.21	26872.76
588.407	27073.46
588.604	26811.32
588.801	26504.13
588.999	26739.65
589.196	26469.31
589.393	26688.45
589.59	26764.22
589.787	26268.61
589.984	26596.29
590.182	26047.43
590.379	26358.72
590.576	26360.77
590.773	26571.71
590.97	26022.86
591.167	26194.89
591.364	25748.43
591.561	26080.2
591.758	25660.37
591.955	25701.33
592.152	25725.9
592.349	25553.87
592.546	25334.74
592.743	25721.8
592.94	25199.57
593.137	25506.77
593.334	25371.6
593.531	25103.32
593.727	25226.2
593.924	25420.75
594.121	24660.96
594.318	24916.95
594.515	24806.36
594.712	25048.02
594.908	24749.02
595.105	24683.48
595.302	24597.47
595.499	24642.53
595.696	24521.7
595.892	24407.01
596.089	24400.86
596.286	24552.41
596.482	23981.03
596.679	23974.89
596.876	24296.42
597.072	24290.27
597.269	23950.31
597.466	23694.32
597.662	23798.76
597.859	23806.95
598.055	23796.71
598.252	23499.76
598.448	23540.72
598.645	23567.34
598.841	23288.82
599.038	23491.57
599.234	23356.4
599.431	22971.38
599.627	23133.17
599.824	23524.33
600.02	22756.35
600.217	23022.58
600.413	22842.36
600.609	22758.39
600.806	22735.87
601.002	22699
601.198	22866.94
601.395	22660.09
601.591	22676.48
601.787	22711.29
601.984	22395.9
602.18	22848.5
602.376	22141.96
602.572	22135.81
602.769	22295.55
602.965	21867.53
603.161	21974.02
603.357	22057.99
603.553	22203.39
603.75	22240.26
603.946	21945.35
604.142	22131.72
604.338	21521.42
604.534	21777.42
604.73	21416.97
604.926	21603.34
605.122	21658.63
605.318	21656.59
605.514	21361.68
605.71	21163.03
605.906	21179.41
606.102	21533.71
606.298	21312.53
606.494	21220.37
606.69	21371.92
606.886	21431.31
607.082	20763.67
607.278	21230.61
607.474	20823.06
607.67	20988.95
607.866	20761.62
608.062	21144.59
608.257	20759.58
608.453	20919.32
608.649	20784.15
608.845	20710.43
609.041	20618.27
609.236	20646.94
609.432	20474.91
609.628	20550.68
609.824	20618.27
610.019	20253.73
610.215	20376.61
610.411	20223.01
610.606	20540.44
610.802	20454.43
610.998	20024.36
611.193	20298.78
611.389	20016.16
611.584	20266.02
611.78	19805.22
611.976	20096.03
612.171	19852.33
612.367	19915.81
612.562	19868.71
612.758	19600.43
612.953	19778.6
613.149	19926.05
613.344	19512.36
613.539	19917.86
613.735	19463.21
613.93	20018.21
614.126	19326
614.321	19698.73
614.517	19446.83
614.712	19399.73
614.907	19473.45
615.103	19641.39
615.298	19346.48
615.493	19663.91
615.688	19196.98
615.884	19373.1
616.079	18926.64
616.274	19285.04
616.47	19014.71
616.665	19321.9
616.86	19029.04
617.055	19149.87
617.25	18777.14
617.445	19024.95
617.641	18801.72
617.836	18750.52
618.031	18756.66
618.226	18662.46
618.421	18633.78
618.616	18613.31
618.811	18486.33
619.006	18621.5
619.201	18224.19
619.396	18689.08
619.591	18220.1
619.786	18545.72
619.981	17757.25
620.176	18228.29
620.371	18039.87
620.566	17960
620.761	17935.43
620.956	17843.27
621.151	17785.93
621.346	17728.58
621.541	17654.86
621.735	17759.3
621.93	17445.96
622.125	17327.18
622.32	17538.12
622.515	17327.18
622.709	17120.34
622.904	17030.23
623.099	17267.79
623.294	16909.4
623.488	17026.13
623.683	16997.46
623.878	16630.87
624.072	16395.36
624.267	16430.17
624.462	16268.38
624.656	16432.22
624.851	16086.11
625.046	16104.54
625.24	16100.45
625.435	15830.12
625.629	15903.84
625.824	15944.8
626.018	15866.98
626.213	15465.58
626.407	15590.5
626.602	15477.87
626.796	15354.99
626.991	15477.87
627.185	15127.66
627.38	15029.36
627.574	15125.61
627.768	15049.84
627.963	14789.75
628.157	14953.59
628.352	14851.19
628.546	14378.11
628.74	14734.45
628.935	14589.05
629.129	14414.97
629.323	14290.04
629.517	14339.19
629.712	14201.98
629.906	14566.52
630.1	13954.18
630.294	14210.17
630.489	14122.11
630.683	13868.16
630.877	13710.47
631.071	13646.98
631.265	13855.87
631.459	13667.46
631.653	13876.35
631.848	13737.09
632.042	13253.77
632.236	13470.86
632.43	13294.73
632.624	13341.83
632.818	13042.83
633.012	13042.83
633.206	12942.48
633.4	12870.8
633.594	12573.85
633.788	12743.83
633.982	12926.1
634.176	12782.74
634.369	12436.63
634.563	12629.14
634.757	12473.49
634.951	12459.16
635.145	12414.1
635.339	12463.26
635.533	12256.41
635.726	12285.08
635.92	11990.17
636.114	12070.05
636.308	11953.31
636.501	12102.81
636.695	11943.07
636.889	11754.66
637.083	11777.19
637.276	11519.14
637.47	11619.49
637.664	11568.29
637.857	11568.29
638.051	11539.62
638.244	11414.7
638.438	11502.76
638.632	11138.22
638.825	11275.43
639.019	11007.15
639.212	11064.49
639.406	11130.03
639.599	11011.25
639.793	11007.15
639.986	10777.78
640.18	10894.51
640.373	10695.86
640.567	10581.17
640.76	10663.09
640.954	10491.06
641.147	10511.54
641.34	10507.44
641.534	10489.01
641.727	10515.64
641.92	10382.52
642.114	10284.22
642.307	10167.48
642.5	10097.85
642.694	10142.91
642.887	9989.31
643.08	10022.08
643.273	10040.51
643.467	9913.53
643.66	9749.7
643.853	9733.31
644.046	9807.04
644.239	9678.02
644.432	9819.33
644.626	9579.72
644.819	9331.91
645.012	9546.95
645.205	9352.39
645.398	9368.77
645.591	9239.75
645.784	9194.7
645.977	9096.39
646.17	9176.27
646.363	8994
646.556	9080.01
646.749	9041.1
646.942	9168.07
647.135	8926.41
647.328	8658.13
647.521	8799.44
647.714	8774.86
647.907	8832.21
648.099	8688.85
648.292	8711.38
648.485	8584.4
648.678	8604.88
648.871	8494.29
649.064	8484.05
649.256	8563.92
649.449	8377.56
649.642	8228.06
649.835	8391.89
650.027	8395.99
650.22	8064.22
650.413	8115.42
650.605	7982.3
650.798	7894.24
650.991	8010.97
651.183	8035.55
651.376	7652.58
651.568	7941.34
651.761	7752.93
651.954	7744.74
652.146	7787.74
652.339	7863.52
652.531	7888.09
652.724	7544.03
652.916	7447.78
653.109	7683.3
653.301	7537.89
653.494	7511.27
653.686	7339.24
653.879	7517.41
654.071	7425.25
654.263	7382.24
654.456	7410.92
654.648	7310.57
654.84	7347.43
655.033	7312.61
655.225	7232.74
655.417	7038.19
655.61	6999.27
655.802	7097.58
655.994	7089.39
656.186	7044.33
656.379	6843.63
656.571	6929.64
656.763	6991.08
656.955	6851.82
657.148	6733.04
657.34	6786.29
657.532	6601.97
657.724	6606.06
657.916	6509.81
658.108	6493.43
658.3	6569.2
658.492	6638.83
658.684	6417.65
658.876	6538.48
659.068	6364.4
659.26	6354.16
659.452	6462.71
659.644	6350.07
659.836	6268.15
660.028	6358.26
660.22	6376.69
660.412	6526.19
660.604	6190.33
660.796	6206.71
660.988	6239.48
661.18	6067.45
661.372	6118.65
661.563	5924.09
661.755	6049.02
661.947	5995.77
662.139	6016.25
662.331	6040.83
662.522	5856.51
662.714	5907.71
662.906	5856.51
663.097	5825.79
663.289	5797.12
663.481	5815.55
663.673	5643.52
663.864	5790.97
664.056	5680.38
664.247	5668.09
664.439	5561.6
664.631	5500.16
664.822	5463.3
665.014	5655.81
665.205	5401.86
665.397	5272.84
665.588	5309.7
665.78	5393.67
665.971	5305.6
666.163	5371.14
666.354	5477.63
666.546	5225.73
666.737	5221.64
666.929	5195.01
667.12	5317.89
667.311	5201.16
667.503	5201.16
667.694	5100.81
667.885	5055.75
668.077	5037.32
668.268	4869.39
668.459	5078.28
668.651	5035.27
668.842	4977.93
669.033	4912.39
669.224	5006.6
669.416	5000.46
669.607	4756.75
669.798	4992.27
669.989	4904.2
670.18	4896.01
670.371	4787.47
670.563	4777.23
670.754	4699.41
670.945	4611.34
671.136	4705.55
671.327	4803.85
671.518	4697.36
671.709	4635.92
671.9	4633.87
672.091	4678.93
672.282	4644.11
672.473	4484.37
672.664	4508.94
672.855	4543.76
673.046	4607.25
673.237	4644.11
673.428	4386.07
673.619	4445.46
673.809	4390.16
674	4406.55
674.191	4355.35
674.382	4361.49
674.573	4361.49
674.764	4259.09
674.954	4257.04
675.145	4295.96
675.336	4220.18
675.527	4207.89
675.717	4314.39
675.908	4152.6
676.099	4257.04
676.289	4181.27
676.48	4185.37
676.671	4060.44
676.861	4107.54
677.052	4156.69
677.243	4109.59
677.433	4074.78
677.624	4078.87
677.814	4132.12
678.005	4119.83
678.195	3874.07
678.386	3919.13
678.576	4099.35
678.767	3986.71
678.957	3910.94
679.148	4021.53
679.338	3915.03
679.529	3931.42
679.719	3888.41
679.909	4027.67
680.1	3943.71
680.29	3927.32
680.481	3898.65
680.671	3857.69
680.861	3880.22
681.052	3812.64
681.242	3743
681.432	3974.42
681.622	3831.07
681.813	3779.87
682.003	3716.38
682.193	3689.76
682.383	3857.69
682.573	3734.81
682.764	3732.76
682.954	3773.72
683.144	3681.57
683.334	3685.66
683.524	3773.72
683.714	3706.14
683.904	3714.33
684.094	3573.02
684.284	3566.88
684.474	3648.8
684.664	3554.59
684.854	3540.26
685.044	3708.19
685.234	3570.97
685.424	3527.97
685.614	3525.92
685.804	3540.26
685.994	3482.91
686.184	3552.54
686.374	3484.96
686.564	3423.52
686.753	3530.02
686.943	3487.01
687.133	3329.31
687.323	3501.34
687.513	3489.06
687.702	3396.9
687.892	3343.65
688.082	3331.36
688.272	3427.62
688.461	3306.79
688.651	3304.74
688.841	3282.21
689.03	3192.1
689.22	3288.36
689.41	3145
689.599	3345.7
689.789	3177.76
689.979	3300.64
690.168	3190.05
690.358	3278.12
690.547	3036.45
690.737	3185.96
690.926	3132.71
691.116	3183.91
691.305	3198.24
691.495	3122.47
691.684	3118.37
691.874	3126.57
692.063	3075.37
692.252	2981.16
692.442	3136.81
692.631	2995.5
692.82	2962.73
693.01	2977.06
693.199	2946.34
693.388	3083.56
693.578	2985.26
693.767	2981.16
693.956	2874.67
694.146	2987.3
694.335	2946.34
694.524	2913.58
694.713	3069.22
694.902	3044.65
695.092	3020.07
695.281	2942.25
695.47	2878.76
695.659	2864.43
695.848	2962.73
696.037	2823.47
696.226	2878.76
696.415	2833.71
696.604	2891.05
696.793	2710.83
696.982	2817.32
697.171	2864.43
697.36	2848.04
697.549	2755.88
697.738	2813.23
697.927	2757.93
698.116	2805.03
698.305	2739.5
698.494	2747.69
698.683	2788.65
698.872	2737.45
699.061	2770.22
699.25	2807.08
699.438	2665.77
699.627	2665.77
699.816	2782.51
700.005	2741.55
700.193	2759.98
700.382	2653.48
700.571	2723.12
700.76	2807.08
700.948	2741.55
701.137	2739.5
701.326	2528.56
701.514	2608.43
701.703	2708.78
701.892	2665.77
702.08	2596.14
702.269	2692.4
702.457	2518.32
702.646	2606.38
702.834	2665.77
703.023	2682.16
703.212	2739.5
703.4	2645.29
703.589	2436.4
703.777	2712.88
703.965	2577.71
704.154	2506.03
704.342	2403.63
704.531	2534.7
704.719	2651.44
704.907	2538.8
705.096	2561.33
705.284	2575.66
705.472	2503.98
705.661	2413.87
705.849	2551.09
706.037	2532.65
706.226	2506.03
706.414	2526.51
706.602	2440.5
706.79	2426.16
706.979	2436.4
707.167	2506.03
707.355	2428.21
707.543	2428.21
707.731	2471.22
707.919	2528.56
708.107	2383.15
708.296	2389.3
708.484	2452.78
708.672	2428.21
708.86	2270.51
709.048	2383.15
709.236	2329.91
709.424	2348.34
709.612	2491.7
709.8	2368.82
709.988	2379.06
710.176	2546.99
710.364	2393.39
710.551	2366.77
710.739	2463.02
710.927	2379.06
711.115	2241.84
711.303	2280.75
711.491	2379.06
711.679	2211.12
711.866	2280.75
712.054	2329.91
712.242	2161.97
712.43	2282.8
712.617	2354.48
712.805	2170.16
712.993	2329.91
713.181	2225.46
713.368	2243.89
713.556	2266.42
713.744	2245.94
713.931	2211.12
714.119	2159.92
714.306	2241.84
714.494	2258.23
714.682	2104.63
714.869	2092.34
715.057	2266.42
715.244	2125.11
715.432	2235.7
715.619	2149.68
715.807	2258.23
715.994	2116.92
716.182	2192.69
716.369	2108.73
716.556	2157.88
716.744	2157.88
716.931	2010.42
717.119	2223.41
717.306	2159.92
717.493	2127.16
717.681	2067.77
717.868	2075.96
718.055	2108.73
718.242	2104.63
718.43	2075.96
718.617	2080.05
718.804	2125.11
718.991	2082.1
719.179	2061.62
719.366	2018.61
719.553	2065.72
719.74	1930.55
719.927	1969.46
720.114	1996.09
720.301	2043.19
720.488	1928.5
720.676	2014.52
720.863	2137.4
721.05	2053.43
721.237	1987.9
721.424	1916.22
721.611	2055.48
721.798	1897.78
721.985	1822.01
722.172	1865.02
722.358	1912.12
722.545	1899.83
722.732	1946.94
722.919	1991.99
723.106	1914.17
723.293	1957.18
723.48	1977.66
723.667	1942.84
723.853	1953.08
724.04	1977.66
724.227	1889.59
724.414	1875.26
724.6	1938.74
724.787	1940.79
724.974	1897.78
725.161	1899.83
725.347	1946.94
725.534	1895.74
725.72	1856.83
725.907	1836.35
726.094	1760.57
726.28	1867.06
726.467	1652.03
726.653	1783.1
726.84	1867.06
727.027	1920.31
727.213	1711.42
727.4	1805.63
727.586	1899.83
727.773	1819.96
727.959	1834.3
728.145	1830.2
728.332	1922.36
728.518	1830.2
728.705	1862.97
728.891	1793.34
729.077	1729.85
729.264	1709.37
729.45	1846.59
729.636	1797.43
729.823	1758.52
730.009	1783.1
730.195	1748.28
730.382	1766.71
730.568	1707.32
730.754	1680.7
730.94	1815.87
731.126	1578.3
731.313	1758.52
731.499	1676.6
731.685	1668.41
731.871	1723.71
732.057	1715.52
732.243	1635.64
732.429	1772.86
732.615	1754.43
732.801	1760.57
732.987	1750.33
733.173	1617.21
733.359	1756.47
733.545	1633.6
733.731	1725.75
733.917	1666.36
734.103	1682.75
734.289	1658.17
734.475	1637.69
734.661	1735.99
734.847	1680.7
735.033	1690.94
735.219	1707.32
735.404	1580.35
735.59	1600.83
735.776	1588.54
735.962	1537.34
736.148	1572.16
736.333	1551.68
736.519	1512.77
736.705	1596.73
736.89	1584.45
737.076	1529.15
737.262	1600.83
737.447	1547.58
737.633	1527.1
737.819	1482.05
738.004	1563.97
738.19	1502.53
738.375	1586.49
738.561	1523.01
738.747	1480
738.932	1541.44
739.118	1627.45
739.303	1543.49
739.489	1477.95
739.674	1461.57
739.859	1449.28
740.045	1563.97
740.23	1439.04
740.416	1441.09
740.601	1461.57
740.786	1357.12
740.972	1424.7
741.157	1502.53
741.342	1340.74
741.528	1430.85
741.713	1391.94
741.898	1420.61
742.084	1473.85
742.269	1396.03
742.454	1469.76
742.639	1523.01
742.824	1385.79
743.01	1336.64
743.195	1385.79
743.38	1318.21
743.565	1303.87
743.75	1396.03
743.935	1316.16
744.12	1443.14
744.305	1328.45
744.49	1379.65
744.675	1330.5
744.86	1224
745.045	1299.78
745.23	1215.81
745.415	1285.44
745.6	1305.92
745.785	1191.24
745.97	1326.4
746.155	1207.62
746.34	1301.83
746.525	1330.5
746.71	1299.78
746.895	1232.19
747.079	1232.19
747.264	1232.19
747.449	1244.48
747.634	1267.01
747.819	1191.24
748.003	1203.52
748.188	1125.7
748.373	1258.82
748.557	1109.32
748.742	1113.41
748.927	1158.47
749.111	1168.71
749.296	1148.23
749.481	1029.45
749.665	1221.95
749.85	1101.12
750.034	1123.65
750.219	1029.45
750.404	1088.84
750.588	1025.35
750.773	1019.21
750.957	1076.55
751.141	949.57
751.326	1117.51
751.51	972.1
751.695	945.48
751.879	1072.45
752.064	1068.36
752.248	1013.06
752.432	1142.08
752.617	1054.02
752.801	1011.01
752.985	929.1
753.17	945.48
753.354	1062.21
753.538	992.58
753.722	904.52
753.907	968.01
754.091	994.63
754.275	1019.21
754.459	867.66
754.643	890.18
754.828	914.76
755.012	922.95
755.196	941.38
755.38	929.1
755.564	828.74
755.748	943.43
755.932	959.81
756.116	945.48
756.3	961.86
756.484	841.03
756.668	894.28
756.852	830.79
757.036	875.85
757.22	838.98
757.404	798.03
757.588	953.67
757.772	830.79
757.956	816.46
758.14	781.64
758.323	732.49
758.507	935.24
758.691	750.92
758.875	793.93
759.059	732.49
759.242	765.26
759.426	818.5
759.61	808.27
759.794	757.07
759.977	810.31
760.161	904.52
760.345	838.98
760.528	765.26
760.712	712.01
760.895	748.87
761.079	701.77
761.263	691.53
761.446	609.61
761.63	726.35
761.813	789.83
761.997	734.54
762.18	716.11
762.364	650.57
762.547	761.16
762.731	752.97
762.914	687.43
763.098	750.92
763.281	718.15
763.464	742.73
763.648	738.63
763.831	634.19
764.015	605.52
764.198	677.19
764.381	693.58
764.564	675.15
764.748	638.28
764.931	638.28
765.114	626
765.297	636.24
765.481	621.9
765.664	609.61
765.847	669
766.03	636.24
766.213	619.85
766.397	666.96
766.58	689.48
766.763	644.43
766.946	589.13
767.129	593.23
767.312	576.84
767.495	658.76
767.678	533.84
767.861	560.46
768.044	611.66
768.227	666.96
768.41	646.48
768.593	658.76
768.776	638.28
768.959	595.28
769.142	566.6
769.324	626
769.507	652.62
769.69	580.94
769.873	621.9
770.056	613.71
770.239	576.84
770.421	597.32
770.604	599.37
770.787	548.17
770.97	572.75
771.152	572.75
771.335	607.56
771.518	617.8
771.7	595.28
771.883	628.04
772.066	556.36
772.248	572.75
772.431	564.56
772.613	628.04
772.796	576.84
772.978	501.07
773.161	576.84
773.343	601.42
773.526	527.69
773.708	509.26
773.891	515.41
774.073	480.59
774.256	537.93
774.438	507.21
774.621	527.69
774.803	539.98
774.985	509.26
775.168	585.04
775.35	544.08
775.532	576.84
775.715	421.2
775.897	533.84
776.079	478.54
776.261	505.17
776.444	478.54
776.626	472.4
776.808	523.6
776.99	421.2
777.173	451.92
777.355	349.52
777.537	453.97
777.719	460.11
777.901	417.1
778.083	433.49
778.265	415.06
778.447	482.64
778.629	515.41
778.811	384.34
778.993	517.45
779.175	466.25
779.357	419.15
779.539	408.91
779.721	453.97
779.903	337.23
780.085	437.58
780.267	404.82
780.449	400.72
780.631	390.48
780.812	427.34
780.994	396.62
781.176	372.05
781.358	392.53
781.54	359.76
781.721	466.25
781.903	468.3
782.085	357.71
782.267	419.15
782.448	404.82
782.63	423.25
782.812	355.66
782.993	355.66
783.175	415.06
783.357	382.29
783.538	365.9
783.72	339.28
783.901	365.9
784.083	370
784.264	380.24
784.446	331.09
784.627	363.86
784.809	326.99
784.99	347.47
785.172	347.47
785.353	343.38
785.535	296.27
785.716	380.24
785.897	341.33
786.079	316.75
786.26	322.9
786.441	333.14
786.623	257.36
786.804	326.99
786.985	361.81
787.167	310.61
787.348	372.05
787.529	277.84
787.71	374.1
787.891	279.89
788.073	222.55
788.254	288.08
788.435	273.75
788.616	283.99
788.797	318.8
788.978	224.59
789.159	253.27
789.34	347.47
789.522	275.79
789.703	257.36
789.884	302.42
790.065	243.03
790.246	337.23
790.427	238.93
790.607	367.95
790.788	318.8
790.969	308.56
791.15	290.13
791.331	185.68
791.512	224.59
791.693	148.82
791.874	224.59
792.054	210.26
792.235	251.22
792.416	234.83
792.597	224.59
792.778	273.75
792.958	245.07
793.139	183.63
793.32	257.36
793.5	202.07
793.681	308.56
793.862	183.63
794.042	179.54
794.223	142.68
794.404	269.65
794.584	185.68
794.765	243.03
794.945	286.03
795.126	234.83
795.306	247.12
795.487	200.02
795.667	245.07
795.848	202.07
796.028	175.44
796.209	183.63
796.389	253.27
796.57	267.6
796.75	169.3
796.93	232.79
797.111	167.25
797.291	159.06
797.471	124.24
797.652	191.83
797.832	161.11
798.012	210.26
798.192	193.87
798.373	175.44
798.553	105.81
798.733	169.3
798.913	159.06
799.093	175.44
799.274	146.77
799.454	177.49
799.634	167.25
799.814	177.49
799.994	175.44
800.174	191.83
800.354	128.34
800.534	134.48
800.714	175.44
800.894	187.73
801.074	191.83
801.254	175.44
801.434	249.17
801.614	130.39
801.794	144.72
801.974	773.45
802.154	146.77
802.334	218.45
802.514	140.63
802.693	159.06
802.873	159.06
803.053	216.4
803.233	216.4
803.413	56.66
803.592	142.68
803.772	97.62
803.952	163.15
804.131	93.52
804.311	185.68
804.491	144.72
804.67	68.95
804.85	126.29
805.03	261.46
805.209	204.11
805.389	144.72
805.568	93.52
805.748	95.57
805.928	101.72
806.107	128.34
806.287	134.48
806.466	148.82
806.646	118.1
806.825	183.63
807.004	128.34
807.184	195.92
807.363	185.68
807.543	114
807.722	107.86
807.901	204.11
808.081	224.59
808.26	105.81
808.439	140.63
808.619	81.24
808.798	134.48
808.977	87.38
809.156	130.39
809.336	99.67
809.515	169.3
809.694	-19.11
809.873	105.81
810.052	126.29
810.231	163.15
810.411	120.15
810.59	195.92
810.769	-8.87
810.948	75.09
811.127	99.67
811.306	159.06
811.485	46.42
811.664	126.29
811.843	142.68
812.022	79.19
812.201	140.63
812.38	97.62
812.559	38.23
812.737	30.04
812.916	60.76
813.095	114
813.274	105.81
813.453	118.1
813.632	52.56
813.811	85.33
813.989	114
814.168	71
814.347	27.99
814.526	93.52
814.704	152.92
814.883	204.11
815.062	154.96
815.24	89.43
815.419	101.72
815.598	118.1
815.776	36.18
815.955	56.66
816.133	56.66
816.312	68.95
816.49	89.43
816.669	73.04
816.847	79.19
817.026	19.8
817.204	87.38
817.383	150.87
817.561	111.96
817.74	99.67
817.918	27.99
818.097	91.48
818.275	97.62
818.453	79.19
818.632	75.09
818.81	93.52
818.988	27.99
819.167	107.86
819.345	68.95
819.523	116.05
819.701	36.18
819.879	101.72
820.058	46.42
820.236	109.91
820.414	40.28
820.592	44.37
820.77	30.04
820.948	101.72
821.127	7.51
821.305	85.33
821.483	56.66
821.661	73.04
821.839	85.33
822.017	77.14
822.195	56.66
822.373	105.81
822.551	38.23
822.729	68.95
822.907	34.13
823.085	79.19
823.262	75.09
823.44	79.19
823.618	60.76
823.796	60.76
823.974	64.85
824.152	71
824.329	68.95
824.507	116.05
824.685	91.48
824.863	148.82
825.04	130.39
825.218	46.42
825.396	30.04
825.574	87.38
825.751	77.14
825.929	81.24
826.107	44.37
826.284	56.66
826.462	87.38
826.639	83.28
826.817	27.99
826.994	128.34
827.172	-29.35
827.349	109.91
827.527	71
827.704	48.47
827.882	109.91
828.059	21.85
828.237	54.61
828.414	46.42
828.591	40.28
828.769	-4.78
828.946	-31.4
829.124	34.13
829.301	77.14
829.478	114
829.655	152.92
829.833	54.61
830.01	-4.78
830.187	81.24
830.364	73.04
830.542	60.76
830.719	118.1
830.896	124.24
831.073	32.08
831.25	9.56
831.427	85.33
831.604	118.1
831.782	23.89
831.959	27.99
832.136	62.8
832.313	-12.97
832.49	36.18
832.667	30.04
832.844	19.8
833.021	87.38
833.198	48.47
833.374	97.62
833.551	13.65
833.728	54.61
833.905	118.1
834.082	21.85
834.259	79.19
834.436	46.42
834.612	38.23
834.789	52.56
834.966	27.99
835.143	44.37
835.319	68.95
835.496	120.15
835.673	109.91
835.85	19.8
836.026	101.72
836.203	44.37
836.38	30.04
836.556	101.72
836.733	17.75
836.909	52.56
837.086	-21.16
837.262	11.61
837.439	73.04
837.616	27.99
837.792	46.42
837.968	126.29
838.145	52.56
838.321	40.28
838.498	68.95
838.674	34.13
838.851	71
839.027	19.8
839.203	21.85
839.38	36.18
839.556	-21.16
839.732	50.52
839.909	60.76
840.085	97.62
840.261	27.99
840.437	17.75
840.614	85.33
840.79	103.76
840.966	23.89
841.142	97.62
841.318	-2.73
841.494	38.23
841.671	30.04
841.847	-2.73
842.023	-37.55
842.199	54.61
842.375	34.13
842.551	9.56
842.727	17.75
842.903	60.76
843.079	44.37
843.255	97.62
843.431	-31.4
843.607	21.85
843.783	40.28
843.959	81.24
844.134	56.66
844.31	34.13
844.486	36.18
844.662	17.75
844.838	56.66
845.013	48.47
845.189	109.91
845.365	44.37
845.541	68.95
845.716	52.56
845.892	-35.5
846.068	21.85
846.244	-17.07
846.419	-8.87
846.595	21.85
846.77	-51.88
846.946	-25.26
847.122	48.47
847.297	-8.87
847.473	66.9
847.648	3.41
847.824	-10.92
847.999	38.23
848.175	-19.11
848.35	36.18
848.526	44.37
848.701	19.8
848.876	48.47
849.052	95.57
849.227	56.66
849.403	3.41
849.578	38.23
849.753	-37.55
849.929	17.75
850.104	-37.55
850.279	-27.31
850.454	36.18
850.63	7.51
850.805	19.8
850.98	-4.78
851.155	23.89
851.33	46.42
851.505	-25.26
851.681	40.28
851.856	-2.73
852.031	40.28
852.206	58.71
852.381	11.61
852.556	54.61
852.731	56.66
852.906	58.71
853.081	-4.78
853.256	27.99
853.431	-33.45
853.606	-12.97
853.781	-72.36
853.956	60.76
854.131	7.51
854.305	42.32
854.48	60.76
854.655	-25.26
854.83	40.28
855.005	11.61
855.18	11.61
855.354	30.04
855.529	91.48
855.704	-29.35
855.879	54.61
856.053	-29.35
856.228	44.37
856.403	-37.55
856.577	30.04
856.752	-17.07
856.926	-21.16
857.101	-27.31
857.276	7.51
857.45	50.52
857.625	101.72
857.799	52.56
857.974	42.32
858.148	13.65
858.323	19.8
858.497	19.8
858.672	17.75
858.846	-29.35
859.02	50.52
859.195	-10.92
859.369	21.85
859.543	-23.21
859.718	-78.51
859.892	-64.17
860.066	-10.92
860.241	-17.07
860.415	-10.92
860.589	34.13
860.763	38.23
860.938	-23.21
861.112	1.37
861.286	-25.26
861.46	30.04
861.634	40.28
861.808	42.32
861.982	-25.26
862.157	-70.31
862.331	-33.45
862.505	-8.87
862.679	-70.31
862.853	19.8
863.027	50.52
863.201	-37.55
863.375	-8.87
863.549	3.41
863.722	1.37
863.896	30.04
864.07	66.9
864.244	38.23
864.418	105.81
864.592	-4.78
864.766	9.56
864.939	-25.26
865.113	11.61
865.287	-21.16
865.461	32.08
865.634	30.04
865.808	-19.11
865.982	11.61
866.156	-0.68
866.329	11.61
866.503	27.99
866.676	9.56
866.85	19.8
867.024	11.61
867.197	-12.97
867.371	54.61
867.544	30.04
867.718	15.7
867.891	97.62
868.065	21.85
868.238	25.94
868.412	85.33
868.585	-4.78
868.759	-43.69
868.932	23.89
869.105	32.08
869.279	-29.35
869.452	-8.87
869.625	38.23
869.799	30.04
869.972	-17.07
870.145	21.85
870.319	11.61
870.492	-37.55
870.665	-51.88
870.838	-21.16
871.011	-68.27
871.185	11.61
871.358	5.46
871.531	9.56
871.704	23.89
871.877	-15.02
872.05	13.65
872.223	13.65
872.396	62.8
872.569	-0.68
872.742	-10.92
872.915	-27.31
873.088	-53.93
873.261	13.65
873.434	-23.21
873.607	-8.87
873.78	17.75
873.953	-62.12
874.126	5.46
874.299	40.28
874.471	11.61
874.644	-23.21
874.817	5.46
874.99	11.61
875.163	-27.31
875.335	3.41
875.508	-33.45
875.681	111.96
875.853	-29.35
876.026	17.75
876.199	3.41
876.371	-8.87
876.544	-8.87
876.717	-15.02
876.889	21.85
877.062	36.18
877.234	-8.87
877.407	-27.31
877.579	3.41
877.752	-2.73
877.924	62.8
878.097	19.8
878.269	-37.55
878.442	54.61
878.614	77.14
878.786	-49.83
878.959	-21.16
879.131	46.42
879.303	-39.59
879.476	7.51
879.648	-8.87
879.82	-41.64
879.993	-21.16
880.165	-19.11
880.337	7.51
880.509	7.51
880.681	9.56
880.854	11.61
881.026	58.71
881.198	77.14
881.37	30.04
881.542	15.7
881.714	3.41
881.886	60.76
882.058	-33.45
882.23	-0.68
882.402	-12.97
882.574	11.61
882.746	-37.55
882.918	-41.64
883.09	-43.69
883.262	-45.74
883.434	13.65
883.606	-37.55
883.778	-43.69
883.95	36.18
884.122	-17.07
884.293	27.99
884.465	13.65
884.637	23.89
884.809	-17.07
884.98	58.71
885.152	21.85
885.324	32.08
885.496	-51.88
885.667	-10.92
885.839	-12.97
886.011	-25.26
886.182	-43.69
886.354	21.85
886.525	48.47
886.697	93.52
886.869	-41.64
887.04	-64.17
887.212	-21.16
887.383	19.8
887.555	-15.02
887.726	3.41
887.897	-4.78
888.069	17.75
888.24	19.8
888.412	19.8
888.583	-62.12
888.754	-4.78
888.926	-19.11
889.097	-0.68
889.268	-53.93
889.44	-2.73
889.611	5.46
889.782	-8.87
889.953	-74.41
890.125	-21.16
890.296	-21.16
890.467	-33.45
890.638	27.99
890.809	15.7
890.98	-43.69
891.151	-45.74
891.323	3.41
891.494	-19.11
891.665	15.7
891.836	30.04
892.007	52.56
892.178	-17.07
892.349	38.23
892.52	-21.16
892.691	-49.83
892.862	21.85
893.032	-4.78
893.203	30.04
893.374	-29.35
893.545	3.41
893.716	27.99
893.887	5.46
894.057	-127.66
894.228	36.18
894.399	-74.41
894.57	60.76
894.74	-15.02
894.911	-64.17
895.082	-60.07
895.253	-47.79
895.423	-15.02
895.594	27.99
895.764	32.08
895.935	-35.5
896.106	-47.79
896.276	7.51
896.447	13.65
896.617	11.61
896.788	-21.16
896.958	-19.11
897.129	-74.41
897.299	3.41
897.47	-19.11
897.64	-12.97
897.81	-29.35
897.981	-21.16
898.151	44.37
898.322	-37.55
898.492	48.47
898.662	-0.68
898.832	46.42
899.003	-33.45
899.173	-4.78
899.343	11.61
899.513	-19.11
