Data from USB4F104151__273__14-23-18-607.txt Node

Date: Thu Mar 13 14:23:18 EDT 2025
User: louis
Spectrometer: USB4F10415
Trigger mode: 4
Integration Time (sec): 2.000000E-2
Scans to average: 1
Electric dark correction enabled: true
Nonlinearity correction enabled: false
Boxcar width: 0
XAxis mode: Wavelengths
Number of Pixels in Spectrum: 3648
>>>>>Begin Spectral Data<<<<<
178.204	-150.53
178.424	-150.53
178.644	-150.53
178.864	-105.47
179.084	-87.04
179.304	-9.22
179.524	33.79
179.744	-3.07
179.964	50.18
180.184	-70.65
180.404	-15.36
180.624	46.08
180.844	-31.74
181.064	-27.65
181.283	-5.12
181.503	15.36
181.723	17.41
181.943	50.18
182.163	19.46
182.383	-21.5
182.602	60.42
182.822	72.7
183.042	44.03
183.262	-1.02
183.482	89.09
183.701	64.51
183.921	3.07
184.141	21.5
184.361	52.22
184.58	-17.41
184.8	50.18
185.02	-19.46
185.239	15.36
185.459	80.89
185.679	15.36
185.898	5.12
186.118	154.62
186.338	41.98
186.557	29.7
186.777	15.36
186.997	46.08
187.216	-1.02
187.436	48.13
187.655	29.7
187.875	17.41
188.095	-31.74
188.314	48.13
188.534	-13.31
188.753	-9.22
188.973	23.55
189.192	17.41
189.412	21.5
189.631	19.46
189.851	44.03
190.07	132.09
190.29	-19.46
190.509	1.02
190.729	89.09
190.948	89.09
191.168	130.05
191.387	33.79
191.607	72.7
191.826	23.55
192.045	-17.41
192.265	7.17
192.484	9.22
192.704	25.6
192.923	-7.17
193.142	121.85
193.362	-19.46
193.581	33.79
193.8	-1.02
194.02	50.18
194.239	1.02
194.458	-21.5
194.678	46.08
194.897	7.17
195.116	23.55
195.335	-9.22
195.555	105.47
195.774	-25.6
195.993	58.37
196.212	58.37
196.432	9.22
196.651	-5.12
196.87	15.36
197.089	31.74
197.308	44.03
197.528	-60.42
197.747	-99.33
197.966	72.7
198.185	105.47
198.404	-17.41
198.623	60.42
198.842	89.09
199.062	68.61
199.281	7.17
199.5	58.37
199.719	-19.46
199.938	123.9
200.157	44.03
200.376	21.5
200.595	-9.22
200.814	33.79
201.033	-31.74
201.252	58.37
201.471	50.18
201.69	68.61
201.909	-9.22
202.128	13.31
202.347	-37.89
202.566	-11.26
202.785	-44.03
203.004	48.13
203.223	109.57
203.442	21.5
203.661	-13.31
203.879	37.89
204.098	1.02
204.317	7.17
204.536	58.37
204.755	80.89
204.974	62.46
205.193	48.13
205.411	52.22
205.63	-1.02
205.849	39.94
206.068	-41.98
206.287	39.94
206.505	76.8
206.724	-9.22
206.943	39.94
207.162	-46.08
207.381	23.55
207.599	72.7
207.818	39.94
208.037	72.7
208.255	-1.02
208.474	-33.79
208.693	-48.13
208.911	27.65
209.13	35.84
209.349	-1.02
209.567	44.03
209.786	99.33
210.005	-27.65
210.223	31.74
210.442	-25.6
210.661	37.89
210.879	17.41
211.098	15.36
211.316	11.26
211.535	7.17
211.753	7.17
211.972	68.61
212.191	17.41
212.409	-23.55
212.628	72.7
212.846	-78.85
213.065	39.94
213.283	17.41
213.502	23.55
213.72	58.37
213.938	66.56
214.157	9.22
214.375	7.17
214.594	23.55
214.812	66.56
215.031	9.22
215.249	31.74
215.467	93.18
215.686	1.02
215.904	7.17
216.122	33.79
216.341	68.61
216.559	7.17
216.778	21.5
216.996	15.36
217.214	31.74
217.432	-13.31
217.651	54.27
217.869	70.65
218.087	66.56
218.306	-5.12
218.524	3.07
218.742	-54.27
218.96	35.84
219.179	3.07
219.397	48.13
219.615	121.85
219.833	-29.7
220.051	-25.6
220.27	-3.07
220.488	31.74
220.706	72.7
220.924	56.32
221.142	44.03
221.36	-13.31
221.578	-15.36
221.796	50.18
222.015	74.75
222.233	-37.89
222.451	11.26
222.669	-15.36
222.887	48.13
223.105	-39.94
223.323	31.74
223.541	-3.07
223.759	54.27
223.977	68.61
224.195	60.42
224.413	50.18
224.631	23.55
224.849	78.85
225.067	33.79
225.285	23.55
225.503	9.22
225.721	-33.79
225.939	31.74
226.157	44.03
226.375	107.52
226.592	-15.36
226.81	-41.98
227.028	13.31
227.246	113.66
227.464	9.22
227.682	21.5
227.9	19.46
228.117	128
228.335	-48.13
228.553	-62.46
228.771	-39.94
228.989	56.32
229.206	-9.22
229.424	27.65
229.642	-15.36
229.86	9.22
230.077	76.8
230.295	15.36
230.513	87.04
230.731	7.17
230.948	82.94
231.166	66.56
231.384	48.13
231.601	35.84
231.819	11.26
232.037	15.36
232.254	27.65
232.472	11.26
232.689	19.46
232.907	-15.36
233.125	-78.85
233.342	66.56
233.56	-48.13
233.777	39.94
233.995	11.26
234.213	25.6
234.43	-21.5
234.648	-17.41
234.865	48.13
235.083	52.22
235.3	17.41
235.518	89.09
235.735	89.09
235.953	97.28
236.17	-21.5
236.388	41.98
236.605	31.74
236.822	66.56
237.04	-41.98
237.257	50.18
237.475	-58.37
237.692	50.18
237.909	13.31
238.127	64.51
238.344	76.8
238.562	46.08
238.779	11.26
238.996	-48.13
239.214	48.13
239.431	72.7
239.648	11.26
239.865	-1.02
240.083	25.6
240.3	17.41
240.517	-9.22
240.735	56.32
240.952	35.84
241.169	68.61
241.386	76.8
241.603	56.32
241.821	7.17
242.038	-46.08
242.255	31.74
242.472	-23.55
242.689	23.55
242.907	58.37
243.124	19.46
243.341	89.09
243.558	-1.02
243.775	-31.74
243.992	-5.12
244.209	19.46
244.426	80.89
244.643	11.26
244.86	33.79
245.078	46.08
245.295	31.74
245.512	33.79
245.729	-1.02
245.946	72.7
246.163	21.5
246.38	39.94
246.597	7.17
246.814	70.65
247.031	31.74
247.248	15.36
247.464	33.79
247.681	76.8
247.898	84.99
248.115	25.6
248.332	7.17
248.549	39.94
248.766	33.79
248.983	99.33
249.2	15.36
249.417	56.32
249.633	-1.02
249.85	23.55
250.067	9.22
250.284	115.71
250.501	78.85
250.717	111.61
250.934	64.51
251.151	-5.12
251.368	80.89
251.585	82.94
251.801	41.98
252.018	-25.6
252.235	15.36
252.451	-9.22
252.668	-17.41
252.885	95.23
253.102	60.42
253.318	-9.22
253.535	72.7
253.752	-7.17
253.968	7.17
254.185	-17.41
254.401	25.6
254.618	23.55
254.835	21.5
255.051	48.13
255.268	7.17
255.484	-9.22
255.701	-15.36
255.917	41.98
256.134	-13.31
256.351	-5.12
256.567	35.84
256.784	33.79
257	7.17
257.217	66.56
257.433	25.6
257.65	41.98
257.866	-21.5
258.082	35.84
258.299	31.74
258.515	56.32
258.732	29.7
258.948	17.41
259.165	-29.7
259.381	-17.41
259.597	1.02
259.814	56.32
260.03	9.22
260.246	7.17
260.463	15.36
260.679	70.65
260.895	-9.22
261.112	-1.02
261.328	-48.13
261.544	23.55
261.761	54.27
261.977	17.41
262.193	15.36
262.409	121.85
262.626	74.75
262.842	52.22
263.058	56.32
263.274	27.65
263.49	-7.17
263.707	9.22
263.923	-44.03
264.139	23.55
264.355	48.13
264.571	84.99
264.787	29.7
265.004	31.74
265.22	54.27
265.436	7.17
265.652	9.22
265.868	-13.31
266.084	37.89
266.3	101.37
266.516	46.08
266.732	17.41
266.948	-17.41
267.164	-31.74
267.38	7.17
267.596	15.36
267.812	-7.17
268.028	-15.36
268.244	5.12
268.46	33.79
268.676	11.26
268.892	52.22
269.108	-25.6
269.324	72.7
269.54	15.36
269.756	35.84
269.972	7.17
270.188	25.6
270.403	76.8
270.619	-41.98
270.835	31.74
271.051	41.98
271.267	17.41
271.483	50.18
271.698	33.79
271.914	-33.79
272.13	-1.02
272.346	23.55
272.562	44.03
272.777	80.89
272.993	33.79
273.209	-17.41
273.425	17.41
273.64	35.84
273.856	97.28
274.072	35.84
274.287	35.84
274.503	146.43
274.719	19.46
274.934	58.37
275.15	3.07
275.366	78.85
275.581	-29.7
275.797	-1.02
276.012	15.36
276.228	72.7
276.444	-5.12
276.659	48.13
276.875	-107.52
277.09	9.22
277.306	107.52
277.521	72.7
277.737	15.36
277.952	46.08
278.168	37.89
278.383	-15.36
278.599	7.17
278.814	41.98
279.03	62.46
279.245	58.37
279.461	25.6
279.676	33.79
279.892	-50.18
280.107	48.13
280.322	-89.09
280.538	5.12
280.753	-5.12
280.969	91.13
281.184	21.5
281.399	29.7
281.615	-1.02
281.83	107.52
282.045	17.41
282.26	70.65
282.476	31.74
282.691	58.37
282.906	39.94
283.122	17.41
283.337	19.46
283.552	82.94
283.767	1.02
283.983	48.13
284.198	27.65
284.413	23.55
284.628	7.17
284.843	89.09
285.058	27.65
285.274	78.85
285.489	-1.02
285.704	93.18
285.919	39.94
286.134	11.26
286.349	-41.98
286.564	76.8
286.779	87.04
286.995	72.7
287.21	35.84
287.425	80.89
287.64	11.26
287.855	50.18
288.07	-25.6
288.285	41.98
288.5	56.32
288.715	56.32
288.93	54.27
289.145	-33.79
289.36	91.13
289.575	44.03
289.79	82.94
290.004	15.36
290.219	39.94
290.434	15.36
290.649	1.02
290.864	17.41
291.079	-46.08
291.294	39.94
291.509	44.03
291.724	41.98
291.938	15.36
292.153	66.56
292.368	-7.17
292.583	39.94
292.798	25.6
293.012	17.41
293.227	7.17
293.442	-48.13
293.657	89.09
293.871	64.51
294.086	68.61
294.301	113.66
294.516	37.89
294.73	-44.03
294.945	35.84
295.16	35.84
295.374	72.7
295.589	11.26
295.804	7.17
296.018	56.32
296.233	25.6
296.447	15.36
296.662	82.94
296.877	25.6
297.091	25.6
297.306	13.31
297.52	-15.36
297.735	58.37
297.949	58.37
298.164	-7.17
298.378	95.23
298.593	41.98
298.807	60.42
299.022	58.37
299.236	33.79
299.451	-58.37
299.665	-9.22
299.88	80.89
300.094	-31.74
300.309	23.55
300.523	35.84
300.737	25.6
300.952	-17.41
301.166	66.56
301.381	-17.41
301.595	56.32
301.809	50.18
302.024	-29.7
302.238	91.13
302.452	97.28
302.667	66.56
302.881	97.28
303.095	60.42
303.309	27.65
303.524	-17.41
303.738	13.31
303.952	27.65
304.166	60.42
304.381	-21.5
304.595	41.98
304.809	39.94
305.023	56.32
305.237	31.74
305.452	50.18
305.666	23.55
305.88	56.32
306.094	39.94
306.308	50.18
306.522	60.42
306.736	64.51
306.95	50.18
307.164	-1.02
307.379	33.79
307.593	58.37
307.807	72.7
308.021	-1.02
308.235	15.36
308.449	-39.94
308.663	54.27
308.877	82.94
309.091	-9.22
309.305	58.37
309.519	44.03
309.733	44.03
309.947	-17.41
310.161	130.05
310.374	80.89
310.588	27.65
310.802	1.02
311.016	-1.02
311.23	29.7
311.444	-37.89
311.658	7.17
311.872	48.13
312.085	13.31
312.299	82.94
312.513	39.94
312.727	84.99
312.941	25.6
313.154	15.36
313.368	27.65
313.582	56.32
313.796	19.46
314.009	33.79
314.223	105.47
314.437	19.46
314.651	107.52
314.864	39.94
315.078	41.98
315.292	33.79
315.505	76.8
315.719	29.7
315.933	39.94
316.146	-29.7
316.36	17.41
316.573	35.84
316.787	50.18
317.001	107.52
317.214	58.37
317.428	-37.89
317.641	31.74
317.855	-25.6
318.068	9.22
318.282	-9.22
318.495	48.13
318.709	74.75
318.922	15.36
319.136	41.98
319.349	111.61
319.563	39.94
319.776	35.84
319.99	5.12
320.203	52.22
320.417	-9.22
320.63	-9.22
320.843	128
321.057	48.13
321.27	68.61
321.483	-17.41
321.697	72.7
321.91	105.47
322.124	17.41
322.337	44.03
322.55	-1.02
322.763	15.36
322.977	74.75
323.19	-13.31
323.403	-15.36
323.617	54.27
323.83	23.55
324.043	17.41
324.256	70.65
324.469	-54.27
324.683	-13.31
324.896	-3.07
325.109	-1.02
325.322	35.84
325.535	76.8
325.748	-1.02
325.962	-17.41
326.175	64.51
326.388	115.71
326.601	-15.36
326.814	72.7
327.027	-82.94
327.24	123.9
327.453	31.74
327.666	48.13
327.879	21.5
328.092	23.55
328.305	-9.22
328.518	52.22
328.731	23.55
328.944	48.13
329.157	80.89
329.37	-35.84
329.583	58.37
329.796	44.03
330.009	-56.32
330.222	48.13
330.435	101.37
330.648	39.94
330.861	37.89
331.073	15.36
331.286	89.09
331.499	-33.79
331.712	-9.22
331.925	27.65
332.138	48.13
332.35	84.99
332.563	-9.22
332.776	27.65
332.989	-1.02
333.202	39.94
333.414	48.13
333.627	-9.22
333.84	33.79
334.053	97.28
334.265	33.79
334.478	7.17
334.691	-33.79
334.903	125.95
335.116	50.18
335.329	1.02
335.541	64.51
335.754	64.51
335.966	-25.6
336.179	9.22
336.392	-31.74
336.604	48.13
336.817	19.46
337.029	74.75
337.242	19.46
337.454	93.18
337.667	97.28
337.88	56.32
338.092	60.42
338.305	76.8
338.517	7.17
338.729	80.89
338.942	97.28
339.154	35.84
339.367	1.02
339.579	58.37
339.792	39.94
340.004	41.98
340.217	21.5
340.429	66.56
340.641	9.22
340.854	-37.89
341.066	5.12
341.278	-1.02
341.491	23.55
341.703	11.26
341.915	76.8
342.128	56.32
342.34	48.13
342.552	56.32
342.764	5.12
342.977	44.03
343.189	39.94
343.401	39.94
343.613	41.98
343.826	44.03
344.038	23.55
344.25	46.08
344.462	44.03
344.674	39.94
344.886	27.65
345.099	39.94
345.311	82.94
345.523	64.51
345.735	-58.37
345.947	115.71
346.159	-11.26
346.371	62.46
346.583	101.37
346.795	-9.22
347.007	15.36
347.219	41.98
347.431	64.51
347.643	72.7
347.855	31.74
348.067	9.22
348.279	31.74
348.491	31.74
348.703	64.51
348.915	41.98
349.127	19.46
349.339	23.55
349.551	52.22
349.763	64.51
349.975	37.89
350.187	60.42
350.399	-3.07
350.61	52.22
350.822	74.75
351.034	52.22
351.246	84.99
351.458	89.09
351.669	7.17
351.881	80.89
352.093	23.55
352.305	58.37
352.517	80.89
352.728	52.22
352.94	39.94
353.152	76.8
353.363	60.42
353.575	60.42
353.787	52.22
353.999	89.09
354.21	15.36
354.422	17.41
354.633	142.33
354.845	66.56
355.057	23.55
355.268	64.51
355.48	80.89
355.692	-5.12
355.903	-1.02
356.115	48.13
356.326	7.17
356.538	41.98
356.749	87.04
356.961	39.94
357.172	87.04
357.384	41.98
357.595	84.99
357.807	27.65
358.018	15.36
358.23	60.42
358.441	60.42
358.653	31.74
358.864	60.42
359.075	-25.6
359.287	27.65
359.498	89.09
359.709	150.53
359.921	11.26
360.132	72.7
360.344	48.13
360.555	-1.02
360.766	27.65
360.977	80.89
361.189	80.89
361.4	80.89
361.611	84.99
361.823	68.61
362.034	121.85
362.245	-25.6
362.456	80.89
362.667	-13.31
362.879	31.74
363.09	41.98
363.301	19.46
363.512	101.37
363.723	17.41
363.935	23.55
364.146	31.74
364.357	-5.12
364.568	74.75
364.779	9.22
364.99	33.79
365.201	74.75
365.412	52.22
365.623	46.08
365.834	84.99
366.045	111.61
366.256	3.07
366.467	58.37
366.678	17.41
366.889	72.7
367.1	44.03
367.311	101.37
367.522	107.52
367.733	23.55
367.944	27.65
368.155	-1.02
368.366	64.51
368.577	56.32
368.788	19.46
368.999	11.26
369.209	115.71
369.42	105.47
369.631	99.33
369.842	50.18
370.053	25.6
370.264	156.67
370.474	17.41
370.685	35.84
370.896	15.36
371.107	29.7
371.317	74.75
371.528	-9.22
371.739	1.02
371.95	87.04
372.16	123.9
372.371	23.55
372.582	27.65
372.792	76.8
373.003	27.65
373.214	11.26
373.424	-15.36
373.635	37.89
373.846	93.18
374.056	25.6
374.267	23.55
374.477	39.94
374.688	-21.5
374.898	80.89
375.109	-7.17
375.319	76.8
375.53	9.22
375.74	142.33
375.951	31.74
376.161	11.26
376.372	105.47
376.582	74.75
376.793	31.74
377.003	93.18
377.214	74.75
377.424	62.46
377.635	97.28
377.845	-25.6
378.055	52.22
378.266	1.02
378.476	17.41
378.686	27.65
378.897	130.05
379.107	91.13
379.317	115.71
379.528	80.89
379.738	105.47
379.948	25.6
380.158	80.89
380.369	48.13
380.579	58.37
380.789	54.27
380.999	70.65
381.21	89.09
381.42	115.71
381.63	41.98
381.84	89.09
382.05	41.98
382.261	35.84
382.471	95.23
382.681	-33.79
382.891	68.61
383.101	64.51
383.311	-17.41
383.521	123.9
383.731	97.28
383.941	101.37
384.151	21.5
384.361	89.09
384.571	142.33
384.781	52.22
384.991	99.33
385.201	-29.7
385.411	95.23
385.621	70.65
385.831	97.28
386.041	64.51
386.251	64.51
386.461	138.24
386.671	33.79
386.881	113.66
387.091	39.94
387.301	72.7
387.511	41.98
387.72	91.13
387.93	66.56
388.14	74.75
388.35	44.03
388.56	54.27
388.769	68.61
388.979	41.98
389.189	-39.94
389.399	105.47
389.609	97.28
389.818	146.43
390.028	91.13
390.238	66.56
390.447	60.42
390.657	91.13
390.867	27.65
391.076	29.7
391.286	74.75
391.496	91.13
391.705	99.33
391.915	80.89
392.125	80.89
392.334	138.24
392.544	113.66
392.753	25.6
392.963	74.75
393.172	39.94
393.382	113.66
393.591	99.33
393.801	132.09
394.01	17.41
394.22	89.09
394.429	33.79
394.639	72.7
394.848	58.37
395.058	82.94
395.267	74.75
395.477	105.47
395.686	109.57
395.895	111.61
396.105	146.43
396.314	89.09
396.524	56.32
396.733	50.18
396.942	80.89
397.152	130.05
397.361	72.7
397.57	113.66
397.78	84.99
397.989	123.9
398.198	175.1
398.407	80.89
398.617	50.18
398.826	23.55
399.035	82.94
399.244	109.57
399.453	150.53
399.663	72.7
399.872	117.76
400.081	125.95
400.29	95.23
400.499	72.7
400.708	148.48
400.917	74.75
401.127	140.29
401.336	84.99
401.545	168.96
401.754	125.95
401.963	162.81
402.172	101.37
402.381	99.33
402.59	44.03
402.799	117.76
403.008	121.85
403.217	156.67
403.426	171.01
403.635	68.61
403.844	138.24
404.053	105.47
404.262	101.37
404.471	162.81
404.68	197.63
404.888	105.47
405.097	156.67
405.306	123.9
405.515	228.35
405.724	117.76
405.933	160.77
406.142	171.01
406.35	171.01
406.559	254.97
406.768	189.44
406.977	187.39
407.185	187.39
407.394	267.26
407.603	105.47
407.812	228.35
408.02	222.2
408.229	293.88
408.438	207.87
408.646	220.16
408.855	228.35
409.064	283.64
409.272	304.12
409.481	275.45
409.69	295.93
409.898	228.35
410.107	322.56
410.315	302.08
410.524	302.08
410.733	359.42
410.941	357.37
411.15	381.95
411.358	508.92
411.567	408.57
411.775	398.33
411.984	396.28
412.192	502.78
412.401	359.42
412.609	496.63
412.818	547.83
413.026	535.54
413.234	498.68
413.443	596.98
413.651	637.94
413.86	623.61
414.068	633.85
414.276	603.13
414.485	650.23
414.693	654.33
414.901	728.05
415.11	674.81
415.318	736.24
415.526	752.63
415.734	769.01
415.943	859.12
416.151	867.31
416.359	844.79
416.567	861.17
416.776	953.33
416.984	947.19
417.192	1010.67
417.4	982
417.608	1025.01
417.817	967.67
418.025	1059.82
418.233	1194.99
418.441	1131.5
418.649	1297.39
418.857	1330.16
419.065	1436.65
419.273	1344.49
419.481	1377.26
419.689	1446.89
419.897	1514.47
420.105	1489.9
420.313	1502.19
420.521	1754.09
420.729	1702.89
420.937	1737.7
421.145	1737.7
421.353	1919.97
421.561	1952.74
421.769	2087.9
421.977	2081.76
422.185	2016.23
422.393	2106.34
422.601	2304.99
422.809	2302.94
423.017	2327.52
423.224	2495.45
423.432	2452.44
423.64	2628.57
423.848	2761.69
424.056	2737.11
424.263	2886.61
424.471	2874.32
424.679	2954.19
424.887	3263.44
425.094	3173.33
425.302	3294.16
425.51	3359.69
425.718	3480.52
425.925	3445.71
426.133	3697.61
426.341	3771.33
426.548	3951.56
426.756	3941.32
426.964	4074.43
427.171	4258.75
427.379	4408.25
427.586	4316.09
427.794	4744.12
428.001	4815.8
428.209	5186.48
428.417	5067.7
428.624	5262.26
428.832	5335.98
429.039	5282.74
429.247	5194.67
429.454	5710.76
429.662	6222.75
429.869	5725.1
430.076	6151.07
430.284	6005.67
430.491	6316.96
430.699	6495.13
430.906	6468.51
431.114	6718.36
431.321	6806.42
431.528	7017.36
431.736	7574.41
431.943	7713.67
432.15	7504.78
432.358	7732.11
432.565	8127.36
432.772	8037.25
432.979	8295.3
433.187	8577.92
433.394	8549.25
433.601	9218.93
433.808	9149.3
434.016	9184.12
434.223	9659.24
434.43	10165.09
434.637	9855.85
434.844	10425.18
435.052	10861.4
435.259	10834.78
435.466	10632.03
435.673	10677.09
435.88	11422.55
436.087	12034.89
436.294	11922.25
436.501	11676.49
436.708	12055.37
436.915	12286.79
437.122	12819.26
437.329	12794.68
437.537	13069.11
437.743	13613.87
437.95	13263.67
438.157	14027.56
438.364	14699.3
438.571	14449.44
438.778	14426.92
438.985	15926.03
439.192	15223.58
439.399	15860.49
439.606	15498
439.813	16474.88
440.02	17464.05
440.227	16917.25
440.433	16988.92
440.64	17322.74
440.847	17042.17
441.054	17488.63
441.261	18750.18
441.467	18490.09
441.674	18959.07
441.881	19536.6
442.088	19401.43
442.294	19649.24
442.501	19880.66
442.708	20302.54
442.914	21154.49
443.121	21977.78
443.328	21156.54
443.534	22815.4
443.741	22201.01
443.948	21852.85
444.154	23556.76
444.361	23333.53
444.568	23435.93
444.774	23665.3
444.981	23853.72
445.187	24265.36
445.394	25422.46
445.6	25150.08
445.807	27476.57
446.013	26219.12
446.22	26626.67
446.426	27871.83
446.633	28125.78
446.839	29117
447.046	27941.46
447.252	29446.72
447.459	29250.11
447.665	29014.6
447.871	30861.87
448.078	31801.88
448.284	30800.43
448.491	31349.28
448.697	32659.98
448.903	33122.82
449.11	33360.39
449.316	32461.33
449.522	33354.24
449.728	34032.12
449.935	34550.26
450.141	34609.65
450.347	35047.91
450.553	33948.15
450.76	34523.63
450.966	35930.59
451.172	35453.41
451.378	35971.55
451.584	35637.73
451.791	36370.9
451.997	36198.87
452.203	36899.28
452.409	37020.11
452.615	36938.19
452.821	35305.96
453.027	35021.29
453.233	37140.94
453.44	35797.47
453.646	36010.46
453.852	36096.47
454.058	36477.4
454.264	35564
454.47	36477.4
454.676	35148.26
454.882	36930
455.088	33548.8
455.294	33993.21
455.5	34689.52
455.705	34908.65
455.911	33614.34
456.117	32864.78
456.323	32659.98
456.529	31056.42
456.735	32113.17
456.941	31459.87
457.147	31052.33
457.352	30009.91
457.558	29889.08
457.764	29737.53
457.97	29436.48
458.176	29039.17
458.381	28658.25
458.587	27093.6
458.793	27191.91
458.999	26157.68
459.204	27687.51
459.41	26995.3
459.616	25344.64
459.821	25367.16
460.027	25002.63
460.233	24605.32
460.438	23493.27
460.644	23952.02
460.85	22723.24
461.055	22381.23
461.261	22235.82
461.466	20775.62
461.672	19847.89
461.878	21557.94
462.083	20189.9
462.289	19393.24
462.494	19329.75
462.7	18352.87
462.905	17963.76
463.111	18952.93
463.316	18643.68
463.522	18481.89
463.727	18537.19
463.932	18283.24
464.138	18209.51
464.343	18430.69
464.549	17687.28
464.754	18002.67
464.959	18322.15
465.165	18125.55
465.37	17408.76
465.575	16747.26
465.781	17513.2
465.986	17601.27
466.191	16827.14
466.397	16630.53
466.602	15813.39
466.807	16468.74
467.012	16505.6
467.218	16368.39
467.423	16034.57
467.628	16382.73
467.833	16880.38
468.038	16132.87
468.244	15811.34
468.449	16603.91
468.654	15864.59
468.859	15909.65
469.064	15604.5
469.269	15235.86
469.474	15186.71
469.679	15504.15
469.885	14965.53
470.09	15102.75
470.295	15303.45
470.5	14770.97
470.705	14791.45
470.91	14584.61
471.115	14500.64
471.32	14490.4
471.525	14619.42
471.73	14160.68
471.935	14086.95
472.139	13470.51
472.344	13843.24
472.549	13824.81
472.754	13605.68
472.959	13398.84
473.164	12870.46
473.369	12948.28
473.574	13450.03
473.778	13191.99
473.983	13085.5
474.188	13224.76
474.393	12323.65
474.598	12698.43
474.802	12432.19
475.007	12362.56
475.212	12424
475.417	12041.03
475.621	12133.19
475.826	11952.97
476.031	12012.36
476.235	11486.03
476.44	11672.4
476.645	11379.54
476.849	11418.45
477.054	11412.31
477.259	11256.66
477.463	11324.24
477.668	10902.36
477.872	11004.76
478.077	10730.33
478.282	10447.71
478.486	10543.97
478.691	10711.9
478.895	10511.2
479.1	10318.69
479.304	10204
479.509	10029.93
479.713	10216.29
479.918	10013.54
480.122	9640.81
480.326	10120.04
480.531	10011.5
480.735	9948.01
480.94	9988.97
481.144	9976.68
481.348	9773.93
481.553	9806.7
481.757	9575.28
481.961	9747.31
482.166	9818.99
482.37	9700.2
482.574	9620.33
482.778	9522.03
482.983	9646.96
483.187	9716.59
483.391	9673.58
483.595	9460.59
483.8	9640.81
484.004	9593.71
484.208	9771.88
484.412	9546.61
484.616	9771.88
484.821	9452.4
485.025	9259.89
485.229	9649
485.433	9550.7
485.637	9767.79
485.841	9667.44
486.045	9456.5
486.249	9665.39
486.453	9528.17
486.657	9614.19
486.861	9356.15
487.065	9296.75
487.269	9878.38
487.473	9409.39
487.677	9642.86
487.881	9712.49
488.085	9593.71
488.289	9755.5
488.493	9644.91
488.697	9509.74
488.901	9626.48
489.105	9608.05
489.309	9780.07
489.512	9667.44
489.716	9646.96
489.92	9720.68
490.124	9632.62
490.328	9894.76
490.531	9681.77
490.735	9952.1
490.939	9976.68
491.143	9894.76
491.346	9677.68
491.55	9962.34
491.754	10005.35
491.958	9976.68
492.161	9937.77
492.365	9929.58
492.569	10206.05
492.772	9968.49
492.976	10029.93
493.18	10328.93
493.383	10531.68
493.587	10410.85
493.79	10574.69
493.994	10353.51
494.197	10599.26
494.401	10601.31
494.605	10759
494.808	10777.44
495.012	10937.18
495.215	11045.72
495.419	10759
495.622	10842.97
495.825	11066.2
496.029	11010.9
496.232	11461.46
496.436	11387.73
496.639	11709.26
496.843	11504.46
497.046	11758.41
497.249	11877.19
497.453	12032.84
497.656	12061.51
497.859	12131.14
498.063	12106.57
498.266	12518.21
498.469	12550.98
498.673	12489.54
498.876	12757.82
499.079	12868.41
499.282	13007.67
499.485	13269.81
499.689	13056.82
499.892	13368.12
500.095	13540.15
500.298	13914.92
500.501	13703.98
500.705	13916.97
500.908	14242.6
501.111	14277.41
501.314	14369.57
501.517	14418.72
501.72	14713.63
501.923	14793.5
502.126	14981.92
502.329	15158.04
502.532	15303.45
502.735	15383.32
502.938	15819.53
503.141	15776.53
503.344	16036.62
503.547	16046.86
503.75	16284.42
503.953	16739.07
504.156	16990.97
504.359	16835.33
504.562	17050.36
504.765	17488.63
504.968	17554.16
505.17	17693.43
505.373	17611.51
505.576	17947.37
505.779	18445.03
505.982	18465.51
506.185	18768.61
506.387	18793.19
506.59	19034.85
506.793	19241.69
506.996	19325.66
507.198	19528.41
507.401	19798.74
507.604	19864.27
507.807	20331.21
508.009	20327.11
508.212	20617.93
508.415	20957.89
508.617	21314.23
508.82	21478.07
509.022	20912.83
509.225	21490.36
509.428	21740.21
509.63	21858.99
509.833	22215.34
510.035	22723.24
510.238	22571.69
510.44	22885.03
510.643	23259.81
510.845	23427.74
511.048	23116.45
511.25	23773.85
511.453	23872.15
511.655	25051.78
511.858	24449.67
512.06	24609.42
512.262	25164.42
512.465	24943.24
512.667	25610.87
512.87	25842.29
513.072	25809.53
513.274	26163.82
513.477	26587.75
513.679	26579.56
513.881	26802.79
514.084	27152.99
514.286	27380.32
514.488	27310.69
514.69	28078.68
514.893	28033.62
515.095	28289.62
515.297	28891.72
515.499	28764.75
515.701	28854.86
515.904	29672
516.106	29682.24
516.308	30249.52
516.51	30382.64
516.712	30366.26
516.914	30569.01
517.116	31375.91
517.318	31167.01
517.52	32049.69
517.722	31423.01
517.925	32223.76
518.127	32293.4
518.329	32758.28
518.531	32586.25
518.733	33260.04
518.935	33384.96
519.136	33675.77
519.338	33726.97
519.54	34146.81
519.742	34318.84
519.944	34554.35
520.146	35031.53
520.348	35580.39
520.55	35500.51
520.752	35402.21
520.954	36223.45
521.155	35869.15
521.357	36585.94
521.559	36870.61
521.761	37681.6
521.963	37411.27
522.164	37482.95
522.366	37505.48
522.568	37652.93
522.77	38187.45
522.971	38736.3
523.173	38541.75
523.375	38789.55
523.576	38932.91
523.778	39250.35
523.98	39551.4
524.181	39668.13
524.383	39756.19
524.584	40368.54
524.786	40446.36
524.988	39946.65
525.189	40503.7
525.391	41157
525.592	40706.45
525.794	41240.97
525.995	41386.38
526.197	41189.77
526.398	41578.89
526.6	41630.08
526.801	41392.52
527.003	42119.55
527.204	42199.42
527.406	42152.32
527.607	42631.54
527.808	42991.98
528.01	41787.78
528.211	42643.83
528.412	43243.88
528.614	43139.44
528.815	42924.4
529.016	43319.66
529.218	42887.54
529.419	42953.07
529.62	43159.92
529.822	43309.42
530.023	43166.06
530.224	43247.98
530.425	43710.82
530.626	42996.08
530.828	43360.62
531.029	44226.91
531.23	43559.27
531.431	43682.15
531.632	43772.26
531.833	43899.23
532.035	43825.51
532.236	43686.25
532.437	43946.34
532.638	43323.75
532.839	43626.85
533.04	44366.17
533.241	43368.81
533.442	44061.02
533.643	44032.35
533.844	43741.54
534.045	43932
534.246	43868.51
534.447	44390.75
534.648	43813.22
534.849	44390.75
535.05	43493.74
535.251	43936.1
535.451	43954.53
535.652	43929.95
535.853	43977.06
536.054	44323.16
536.255	44267.87
536.456	43950.43
536.657	44108.13
536.857	43710.82
537.058	43497.83
537.259	44011.87
537.46	43866.47
537.66	43706.73
537.861	43790.69
538.062	43620.71
538.263	43807.08
538.463	43589.99
538.664	43706.73
538.865	43780.45
539.065	43878.75
539.266	43145.58
539.466	43843.94
539.667	43485.54
539.868	43958.63
540.068	43362.67
540.269	43460.97
540.469	43651.43
540.67	43463.02
540.87	43288.94
541.071	43311.47
541.271	43843.94
541.472	43671.91
541.672	43661.67
541.873	43680.1
542.073	43250.03
542.274	43458.92
542.474	43389.29
542.675	43071.85
542.875	43315.56
543.075	43258.22
543.276	43290.99
543.476	43579.75
543.676	42903.92
543.877	43526.5
544.077	43213.16
544.277	43340.14
544.478	43377
544.678	43043.18
544.878	43204.97
545.078	42983.79
545.279	42922.35
545.479	43110.77
545.679	43276.65
545.879	43233.64
546.079	43290.99
546.28	43028.85
546.48	42772.85
546.68	42953.07
546.88	43295.08
547.08	43086.19
547.28	43069.81
547.48	42824.05
547.68	42977.65
547.88	42523
548.081	43032.94
548.281	43016.56
548.481	43252.08
548.681	43049.33
548.881	42991.98
549.081	42846.58
549.28	42758.52
549.48	43135.34
549.68	42873.2
549.88	43338.09
550.08	42744.18
550.28	42879.35
550.48	43055.47
550.68	42791.28
550.88	42594.68
551.08	42576.25
551.279	42908.02
551.479	42557.81
551.679	42840.43
551.879	42660.21
552.079	43051.38
552.278	43030.9
552.478	43067.76
552.678	42602.87
552.878	42881.39
553.077	42400.12
553.277	42297.72
553.477	43135.34
553.676	42563.96
553.876	43026.8
554.076	42727.8
554.275	42881.39
554.475	42461.56
554.674	42748.28
554.874	42860.91
555.074	42242.43
555.273	42754.42
555.473	42623.35
555.672	42555.77
555.872	42561.91
556.071	42822
556.271	42781.04
556.47	42488.18
556.67	42117.5
556.869	42258.81
557.068	42516.86
557.268	42303.87
557.467	42324.35
557.667	42207.61
557.866	42271.1
558.065	42244.48
558.265	41789.83
558.464	41742.72
558.663	42410.36
558.863	41998.72
559.062	42613.11
559.261	41898.37
559.461	42525.05
559.66	41503.11
559.859	42367.35
560.058	42004.86
560.258	41972.1
560.457	41609.61
560.656	42307.96
560.855	41609.61
561.054	42037.63
561.253	41406.86
561.453	41855.36
561.652	41664.9
561.851	41677.19
562.05	41429.38
562.249	41249.16
562.448	41589.13
562.647	41535.88
562.846	41159.05
563.045	41210.25
563.244	40774.03
563.443	41611.65
563.642	40561.05
563.841	40794.51
564.04	40673.68
564.239	41550.21
564.438	40718.74
564.637	40913.3
564.836	40552.85
565.035	40339.86
565.234	40724.88
565.432	40008.09
565.631	40194.46
565.83	40274.33
566.029	40094.11
566.228	40145.31
566.427	40200.6
566.625	39946.65
566.824	39766.43
567.023	39870.88
567.222	39438.76
567.42	40116.64
567.619	39750.05
567.818	39850.4
568.016	39238.06
568.215	39995.81
568.414	39313.83
568.612	39539.11
568.811	38971.82
569.01	39356.84
569.208	38801.84
569.407	39111.08
569.605	38775.22
569.804	39252.39
570.002	38429.11
570.201	38629.81
570.4	38504.88
570.598	38435.25
570.797	38134.2
570.995	38508.98
571.193	38228.41
571.392	38437.3
571.59	37867.97
571.789	37859.77
571.987	37843.39
572.186	37597.63
572.384	37384.65
572.582	37833.15
572.781	37966.27
572.979	37124.55
573.177	37194.18
573.376	37335.49
573.574	37308.87
573.772	37245.38
573.971	37218.76
574.169	36682.19
574.367	36495.83
574.565	36872.65
574.763	36368.85
574.962	36409.81
575.16	36133.34
575.358	36381.14
575.556	35946.97
575.754	36194.78
575.952	36065.75
576.151	36461.01
576.349	35396.07
576.547	35762.65
576.745	35709.41
576.943	35850.72
577.141	35455.46
577.339	35664.35
577.537	35678.69
577.735	35643.87
577.933	35230.18
578.131	35420.64
578.329	34949.61
578.527	34562.54
578.725	35113.45
578.923	35082.73
579.121	34849.26
579.319	34548.21
579.516	34685.42
579.714	34736.62
579.912	34402.8
580.11	34562.54
580.308	34040.31
580.506	34056.7
580.704	33399.3
580.901	34183.67
581.099	33843.71
581.297	33577.47
581.495	33784.32
581.692	33868.28
581.89	33274.37
582.088	33929.72
582.285	33479.17
582.483	33298.95
582.681	33290.76
582.878	33149.45
583.076	32694.8
583.274	32815.63
583.471	32533.01
583.669	33008.14
583.866	32498.19
584.064	32746
584.262	32266.77
584.459	32416.27
584.657	32225.81
584.854	32346.64
585.052	31652.38
585.249	32242.2
585.447	32055.83
585.644	31357.47
585.841	31703.58
586.039	31701.53
586.236	31443.49
586.434	31640.09
586.631	31291.94
586.828	31388.19
587.026	31076.9
587.223	31257.12
587.42	30835.24
587.618	31085.09
587.815	30734.89
588.012	30681.64
588.21	30480.94
588.407	31076.9
588.604	30390.83
588.801	30102.07
588.999	30462.51
589.196	30374.45
589.393	30247.47
589.59	30366.26
589.787	30011.96
589.984	30349.87
590.182	29860.41
590.379	30063.16
590.576	29655.61
590.773	29798.97
590.97	29608.51
591.167	29696.57
591.364	29405.76
591.561	29405.76
591.758	28934.73
591.955	29061.7
592.152	29237.83
592.349	29069.89
592.546	28869.19
592.743	28938.82
592.94	28658.25
593.137	28906.05
593.334	28652.11
593.531	28410.45
593.727	28951.11
593.924	28514.89
594.121	28174.93
594.318	28564.04
594.515	28037.72
594.712	27996.76
594.908	28013.14
595.105	28021.33
595.302	27730.52
595.499	28189.27
595.696	27779.67
595.892	27552.35
596.089	27548.25
596.286	27452
596.482	27550.3
596.679	27435.61
596.876	27464.28
597.072	27028.07
597.269	27218.53
597.466	27036.26
597.662	26974.82
597.859	27030.12
598.055	26872.42
598.252	26784.36
598.448	26602.09
598.645	26511.98
598.841	26380.91
599.038	26401.39
599.234	26368.62
599.431	26042.99
599.627	26323.57
599.824	26319.47
600.02	25967.22
600.217	25999.99
600.413	26049.14
600.609	25954.93
600.806	25594.49
601.002	25780.85
601.198	25434.75
601.395	25608.83
601.591	25295.49
601.787	25399.93
601.984	25295.49
602.18	25586.3
602.376	25191.04
602.572	25078.4
602.769	25301.63
602.965	24717.96
603.161	24926.85
603.357	25072.26
603.553	25035.39
603.75	24961.67
603.946	24324.75
604.142	24644.23
604.338	24238.73
604.534	24554.12
604.73	24115.86
604.926	23874.2
605.122	24048.27
605.318	24251.02
605.514	24122
605.71	24050.32
605.906	23802.52
606.102	23841.43
606.298	23771.8
606.494	23792.28
606.69	23863.96
606.886	23794.32
607.082	23618.2
607.278	23650.97
607.474	23505.56
607.67	23587.48
607.866	23425.69
608.062	23681.69
608.257	23392.92
608.453	23663.25
608.649	22989.47
608.845	22917.79
609.041	23362.2
609.236	22952.61
609.432	22878.88
609.628	22948.51
609.824	23124.64
610.019	22565.54
610.215	22756
610.411	22796.96
610.606	22602.41
610.802	22555.3
610.998	22559.4
611.193	22792.87
611.389	22520.49
611.584	22373.03
611.78	22631.08
611.976	22217.39
612.171	22592.17
612.367	22321.84
612.562	22268.59
612.758	22100.65
612.953	21924.53
613.149	22256.3
613.344	22069.94
613.539	22330.03
613.735	21904.05
613.93	22344.36
614.126	22110.89
614.321	22028.98
614.517	21871.28
614.712	21899.95
614.907	21828.27
615.103	21885.62
615.298	21734.07
615.493	21955.25
615.688	21758.64
615.884	21979.82
616.079	21723.83
616.274	21541.56
616.47	21299.9
616.665	21449.4
616.86	21621.43
617.055	21695.16
617.25	21553.85
617.445	21373.63
617.641	21048
617.836	21211.84
618.031	20970.18
618.226	21217.98
618.421	20806.34
618.616	20828.87
618.811	20724.42
619.006	21152.45
619.201	20609.73
619.396	20744.9
619.591	20415.18
619.786	20509.38
619.981	20314.83
620.176	20314.83
620.371	20210.38
620.566	20282.06
620.761	19665.62
620.956	20237
621.151	19583.7
621.346	19808.98
621.541	19639
621.735	19536.6
621.93	19569.37
622.125	19274.46
622.32	19210.97
622.515	19194.59
622.709	19157.72
622.904	19059.42
623.099	18846.43
623.294	19012.32
623.488	18465.51
623.683	18588.39
623.878	18254.57
624.072	18551.52
624.267	18510.57
624.462	18119.4
624.656	17937.13
624.851	17752.82
625.046	17793.78
625.24	17916.65
625.435	17615.6
625.629	17576.69
625.824	17631.99
626.018	17617.65
626.213	17189.63
626.407	17302.26
626.602	17119.99
626.796	17103.61
626.991	17019.64
627.185	16655.11
627.38	16767.74
627.574	16882.43
627.768	16677.63
627.963	16579.33
628.157	16403.21
628.352	16640.77
628.546	16235.27
628.74	16274.18
628.935	16268.04
629.129	16067.34
629.323	15876.88
629.517	16186.12
629.712	16053
629.906	15772.43
630.1	15618.83
630.294	15457.04
630.489	15532.82
630.683	15629.07
630.877	15135.51
631.071	15014.68
631.265	15297.3
631.459	15086.36
631.653	14981.92
631.848	14979.87
632.042	14746.4
632.236	15026.97
632.43	14543.65
632.624	14676.77
632.818	14484.26
633.012	14390.05
633.206	14289.7
633.4	14457.64
633.594	14551.84
633.788	14355.24
633.982	14076.71
634.176	14050.09
634.369	14007.08
634.563	13810.48
634.757	13667.12
634.951	13790
635.145	13697.84
635.339	13564.72
635.533	13429.56
635.726	13632.3
635.92	13212.47
636.114	13273.91
636.308	13241.14
636.501	13024.06
636.695	13099.83
636.889	12938.04
637.083	12966.71
637.276	12817.21
637.47	13001.53
637.664	12671.81
637.857	12630.85
638.051	12671.81
638.244	12424
638.438	12593.98
638.632	12520.26
638.825	12557.12
639.019	12229.45
639.212	12165.96
639.406	12000.07
639.599	12112.71
639.793	11821.9
639.986	11883.34
640.18	11961.16
640.373	11858.76
640.567	11699.02
640.76	11803.47
640.954	11696.97
641.147	11522.9
641.34	11488.08
641.534	11391.83
641.727	11203.41
641.92	11254.61
642.114	11148.12
642.307	11211.6
642.5	11101.01
642.694	10787.68
642.887	10818.39
643.08	11164.5
643.273	10820.44
643.467	10855.26
643.66	10554.21
643.853	10709.85
644.046	10632.03
644.239	10672.99
644.432	10494.82
644.626	10486.62
644.819	10359.65
645.012	10357.6
645.205	10163.04
645.398	10392.42
645.591	10134.37
645.784	10367.84
645.977	10017.64
646.17	10224.48
646.363	9827.18
646.556	9732.97
646.749	9775.98
646.942	9814.89
647.135	9689.96
647.328	9751.4
647.521	9782.12
647.714	9526.13
647.907	9505.65
648.099	9558.89
648.292	9421.68
648.485	9284.47
648.678	9304.95
648.871	9134.96
649.064	9075.57
649.256	9390.96
649.449	9372.53
649.642	9102.2
649.835	8868.73
650.027	8866.68
650.22	8948.6
650.413	8719.23
650.605	8856.44
650.798	8805.24
650.991	8797.05
651.183	8932.22
651.376	8559.49
651.568	8563.58
651.761	8557.44
651.954	8577.92
652.146	8319.87
652.339	8530.81
652.531	8268.67
652.724	8270.72
652.916	8323.97
653.109	8321.92
653.301	8207.23
653.494	8170.37
653.686	8051.59
653.879	8070.02
654.071	7936.9
654.263	7994.25
654.456	8043.4
654.648	7885.7
654.84	7791.5
655.033	7660.43
655.225	7805.83
655.417	7877.51
655.61	7764.87
655.802	7605.13
655.994	7627.66
656.186	7766.92
656.379	7474.06
656.571	7461.77
656.763	7433.1
656.955	7342.99
657.148	7449.49
657.34	7342.99
657.532	7281.55
657.724	7285.65
657.916	7297.94
658.108	7250.83
658.3	7132.05
658.492	7183.25
658.684	6871.96
658.876	7035.8
659.068	7000.98
659.26	6970.26
659.452	7062.42
659.644	6912.92
659.836	6624.15
660.028	6804.38
660.22	6810.52
660.412	6783.9
660.604	6658.97
660.796	6613.92
660.988	6605.72
661.18	6568.86
661.372	6484.89
661.563	6589.34
661.755	6398.88
661.947	6560.67
662.139	6374.3
662.331	6298.53
662.522	6384.54
662.714	5897.13
662.906	6380.45
663.097	6314.91
663.289	6052.77
663.481	6095.78
663.673	6085.54
663.864	6114.21
664.056	6232.99
664.247	6011.81
664.439	6112.16
664.631	6073.25
664.822	6060.96
665.014	5903.27
665.205	5850.02
665.397	5725.1
665.588	5958.57
665.78	5856.17
665.971	5856.17
666.163	5766.06
666.354	5755.82
666.546	5878.69
666.737	5559.21
666.929	5614.51
667.12	5548.97
667.311	5677.99
667.503	5522.35
667.694	5546.92
667.885	5489.58
668.077	5548.97
668.268	5536.68
668.459	5438.38
668.651	5606.31
668.842	5360.56
669.033	5249.97
669.224	5393.33
669.416	5422
669.607	5284.78
669.798	5364.65
669.989	5233.58
670.18	5102.51
670.371	5063.6
670.563	5125.04
670.754	5252.02
670.945	5079.99
671.136	5295.02
671.327	5071.79
671.518	5067.7
671.709	5008.31
671.9	5221.3
672.091	5082.03
672.282	4969.4
672.473	4963.25
672.664	4875.19
672.855	4885.43
673.046	4938.68
673.237	5020.6
673.428	4944.82
673.619	4807.61
673.809	4766.65
674	4905.91
674.191	4916.15
674.382	4760.5
674.573	4582.33
674.764	4783.03
674.954	4807.61
675.145	4750.26
675.336	4746.17
675.527	4637.63
675.717	4815.8
675.908	4604.86
676.099	4639.67
676.289	4606.91
676.48	4512.7
676.671	4449.21
676.861	4490.17
677.052	4557.75
677.243	4398.01
677.433	4537.27
677.624	4498.36
677.814	4352.96
678.005	4627.39
678.195	4402.11
678.386	4455.36
678.576	4271.04
678.767	4479.93
678.957	4506.56
679.148	4467.64
679.338	4488.12
679.529	4400.06
679.719	4451.26
679.909	4391.87
680.1	4365.25
680.29	4330.43
680.481	4285.37
680.671	4494.27
680.861	4144.06
681.052	4291.52
681.242	4414.4
681.432	4297.66
681.622	4178.88
681.813	4271.04
682.003	4240.32
682.193	4160.45
682.383	4328.38
682.573	4234.18
682.764	4008.9
682.954	4066.24
683.144	4111.3
683.334	4094.91
683.524	4142.02
683.714	4094.91
683.904	4156.35
684.094	4033.47
684.284	4072.39
684.474	4080.58
684.664	4006.85
684.854	4033.47
685.044	4006.85
685.234	4041.67
685.424	4070.34
685.614	4031.43
685.804	3974.08
685.994	4021.19
686.184	4037.57
686.374	3941.32
686.564	3912.64
686.753	4056
686.943	3781.57
687.133	3914.69
687.323	3834.82
687.513	4043.71
687.702	3808.2
687.892	3947.46
688.082	3939.27
688.272	3824.58
688.461	3824.58
688.651	3924.93
688.841	3783.62
689.03	3826.63
689.22	3705.8
689.41	3664.84
689.599	3578.83
689.789	3726.28
689.979	3724.23
690.168	3652.55
690.358	3507.15
690.547	3662.79
690.737	3666.89
690.926	3705.8
691.116	3578.83
691.305	3603.4
691.495	3439.56
691.684	3625.93
691.874	3611.59
692.063	3673.03
692.252	3673.03
692.442	3566.54
692.631	3480.52
692.82	3464.14
693.01	3554.25
693.199	3412.94
693.388	3488.71
693.578	3439.56
693.767	3554.25
693.956	3496.91
694.146	3359.69
694.335	3410.89
694.524	3490.76
694.713	3394.51
694.902	3425.23
695.092	3355.6
695.281	3458
695.47	3425.23
695.659	3406.8
695.848	3474.38
696.037	3345.36
696.226	3431.37
696.415	3261.39
696.604	3455.95
696.793	3374.03
696.982	3347.4
697.171	3398.6
697.36	3439.56
697.549	3304.4
697.738	3382.22
697.927	3390.41
698.116	3380.17
698.305	3302.35
698.494	3290.06
698.683	3410.89
698.872	3343.31
699.061	3285.97
699.25	3394.51
699.438	3390.41
699.627	3255.25
699.816	3308.49
700.005	3267.53
700.193	3197.9
700.382	3443.66
700.571	3267.53
700.76	3271.63
700.948	3298.25
701.137	3285.97
701.326	3308.49
701.514	3365.84
701.703	3318.73
701.892	3232.72
702.08	3267.53
702.269	3216.33
702.457	3232.72
702.646	3156.94
702.834	3251.15
703.023	3361.74
703.212	3251.15
703.4	3181.52
703.589	3097.55
703.777	3185.62
703.965	3189.71
704.154	3154.9
704.342	3169.23
704.531	3070.93
704.719	3228.62
704.907	3152.85
705.096	3025.87
705.284	3234.77
705.472	3283.92
705.661	3242.96
705.849	2978.77
706.037	3101.65
706.226	3095.5
706.414	3181.52
706.602	3062.74
706.79	3146.7
706.979	3062.74
707.167	3144.66
707.355	3070.93
707.543	3005.39
707.731	3099.6
707.919	3202
708.107	3017.68
708.296	3079.12
708.484	2923.48
708.672	3044.31
708.86	2989.01
709.048	2982.87
709.236	2927.57
709.424	2933.72
709.612	2982.87
709.8	2950.1
709.988	2884.56
710.176	2982.87
710.364	3036.11
710.551	2888.66
710.739	2882.52
710.927	2964.43
711.115	2927.57
711.303	2923.48
711.491	2816.98
711.679	2927.57
711.866	2943.96
712.054	2864.08
712.242	2911.19
712.43	2784.21
712.617	2839.51
712.805	2819.03
712.993	2859.99
713.181	2841.56
713.368	2810.84
713.556	2816.98
713.744	2816.98
713.931	2753.49
714.119	2853.84
714.306	2776.02
714.494	2792.41
714.682	2851.8
714.869	2706.39
715.057	2841.56
715.244	2870.23
715.432	2827.22
715.619	2761.69
715.807	2804.69
715.994	2810.84
716.182	2690.01
716.369	2677.72
716.556	2710.49
716.744	2735.06
716.931	2696.15
717.119	2833.36
717.306	2759.64
717.493	2626.52
717.681	2669.53
717.868	2606.04
718.055	2761.69
718.242	2700.25
718.43	2720.73
718.617	2737.11
718.804	2630.62
718.991	2710.49
719.179	2558.94
719.366	2534.36
719.553	2626.52
719.74	2722.77
719.927	2577.37
720.114	2477.02
720.301	2565.08
720.488	2567.13
720.676	2530.27
720.863	2563.03
721.05	2608.09
721.237	2517.98
721.424	2563.03
721.611	2606.04
721.798	2513.88
721.985	2530.27
722.172	2591.7
722.358	2450.39
722.545	2411.48
722.732	2499.55
722.919	2466.78
723.106	2448.35
723.293	2489.31
723.48	2464.73
723.667	2288.61
723.853	2458.59
724.04	2417.63
724.227	2431.96
724.414	2341.85
724.6	2255.84
724.787	2468.83
724.974	2511.83
725.161	2378.72
725.347	2391
725.534	2378.72
725.72	2335.71
725.907	2345.95
726.094	2247.65
726.28	2296.8
726.467	2431.96
726.653	2307.04
726.84	2386.91
727.027	2368.48
727.213	2276.32
727.4	2296.8
727.586	2460.63
727.773	2362.33
727.959	2284.51
728.145	2362.33
728.332	2335.71
728.518	2229.21
728.705	2229.21
728.891	2294.75
729.077	2364.38
729.264	2302.94
729.45	2302.94
729.636	2190.3
729.823	2157.54
730.009	2261.98
730.195	2212.83
730.382	2294.75
730.568	2288.61
730.754	2210.78
730.94	2194.4
731.126	2300.89
731.313	2180.06
731.499	2210.78
731.685	2294.75
731.871	2333.66
732.057	2227.17
732.243	2214.88
732.429	2198.49
732.615	2284.51
732.801	2266.08
732.987	2128.86
733.173	2257.89
733.359	2210.78
733.545	2169.82
733.731	2202.59
733.917	2218.97
734.103	2196.45
734.289	2161.63
734.475	2020.32
734.661	2223.07
734.847	2071.52
735.033	2157.54
735.219	2159.58
735.404	2055.14
735.59	2071.52
735.776	2055.14
735.962	2147.3
736.148	2106.34
736.333	1940.45
736.519	2130.91
736.705	2081.76
736.89	2030.56
737.076	1985.51
737.262	2079.71
737.447	2085.86
737.633	2055.14
737.819	2022.37
738.004	1917.92
738.19	1881.06
738.375	1967.07
738.561	1934.31
738.747	1965.03
738.932	2030.56
739.118	1967.07
739.303	1942.5
739.489	1952.74
739.674	1844.2
739.859	1911.78
740.045	2038.75
740.23	1979.36
740.416	1950.69
740.601	1909.73
740.786	1850.34
740.972	1833.96
741.157	1827.81
741.342	1819.62
741.528	1887.2
741.713	1868.77
741.898	1850.34
742.084	1833.96
742.269	1817.57
742.454	1905.63
742.639	1833.96
742.824	1848.29
743.01	1811.43
743.195	1868.77
743.38	1780.71
743.565	1776.61
743.75	1825.76
743.935	1702.89
744.12	1780.71
744.305	1702.89
744.49	1729.51
744.675	1690.6
744.86	1698.79
745.045	1700.84
745.23	1752.04
745.415	1641.45
745.6	1637.35
745.785	1760.23
745.97	1672.17
746.155	1711.08
746.34	1655.78
746.525	1555.43
746.71	1661.93
746.895	1557.48
747.079	1653.73
747.264	1596.39
747.449	1565.67
747.634	1612.78
747.819	1498.09
748.003	1543.14
748.188	1551.34
748.373	1532.9
748.557	1569.77
748.742	1520.62
748.927	1473.51
749.111	1522.66
749.296	1444.84
749.481	1563.62
749.665	1481.71
749.85	1418.22
750.034	1414.12
750.219	1352.68
750.404	1534.95
750.588	1350.64
750.773	1352.68
750.957	1430.51
751.141	1428.46
751.326	1465.32
751.51	1326.06
751.695	1328.11
751.879	1289.2
752.064	1266.67
752.248	1348.59
752.432	1293.29
752.617	1303.53
752.801	1291.24
752.985	1326.06
753.17	1297.39
753.354	1252.33
753.538	1338.35
753.722	1268.72
753.907	1268.72
754.091	1217.52
754.275	1197.04
754.459	1238
754.643	1121.26
754.828	1276.91
755.012	1127.41
755.196	1137.65
755.38	1244.14
755.564	1274.86
755.748	1057.78
755.932	1188.85
756.116	1154.03
756.3	1180.65
756.484	1106.93
756.668	1080.3
756.852	1090.54
757.036	1063.92
757.22	1115.12
757.404	1188.85
757.588	1047.54
757.772	1065.97
757.956	1080.3
758.14	1022.96
758.323	1082.35
758.507	982
758.691	1051.63
758.875	977.91
759.059	1068.02
759.242	1037.3
759.426	1010.67
759.61	936.95
759.794	957.43
759.977	982
760.161	973.81
760.345	994.29
760.528	998.38
760.712	1020.91
760.895	1059.82
761.079	984.05
761.263	883.7
761.446	992.24
761.63	955.38
761.813	920.56
761.997	998.38
762.18	918.51
762.364	941.04
762.547	838.64
762.731	961.52
762.914	875.51
763.098	828.4
763.281	852.98
763.464	805.88
763.648	928.75
763.831	863.22
764.015	793.59
764.198	730.1
764.381	830.45
764.564	807.92
764.748	924.66
764.931	850.93
765.114	807.92
765.297	852.98
765.481	887.79
765.664	711.67
765.847	842.74
766.03	891.89
766.213	773.11
766.397	822.26
766.58	773.11
766.763	846.84
766.946	713.72
767.129	803.83
767.312	904.18
767.495	785.4
767.678	805.88
767.861	826.36
768.044	814.07
768.227	875.51
768.41	754.68
768.593	764.92
768.776	818.16
768.959	826.36
769.142	846.84
769.324	723.96
769.507	728.05
769.69	646.13
769.873	760.82
770.056	803.83
770.239	769.01
770.421	789.49
770.604	721.91
770.787	740.34
770.97	689.14
771.152	662.52
771.335	875.51
771.518	760.82
771.7	769.01
771.883	683
772.066	740.34
772.248	687.09
772.431	740.34
772.613	711.67
772.796	588.79
772.978	756.72
773.161	662.52
773.343	687.09
773.526	678.9
773.708	680.95
773.891	687.09
774.073	664.57
774.256	637.94
774.438	752.63
774.621	695.29
774.803	689.14
774.985	650.23
775.168	596.98
775.35	613.37
775.532	670.71
775.715	617.46
775.897	666.61
776.079	594.93
776.261	633.85
776.444	572.41
776.626	662.52
776.808	670.71
776.99	574.46
777.173	623.61
777.355	502.78
777.537	605.17
777.719	635.89
777.901	613.37
778.083	580.6
778.265	498.68
778.447	613.37
778.629	476.15
778.811	517.11
778.993	551.93
779.175	605.17
779.357	502.78
779.539	523.26
779.721	619.51
779.903	521.21
780.085	392.19
780.267	525.3
780.449	508.92
780.631	492.54
780.812	525.3
780.994	472.06
781.176	523.26
781.358	465.91
781.54	449.53
781.721	506.87
781.903	513.02
782.085	449.53
782.267	568.31
782.448	451.58
782.63	508.92
782.812	484.34
782.993	437.24
783.175	474.1
783.357	416.76
783.538	490.49
783.72	449.53
783.901	433.15
784.083	390.14
784.264	437.24
784.446	463.86
784.627	375.8
784.809	416.76
784.99	519.16
785.172	355.32
785.353	422.91
785.535	422.91
785.716	375.8
785.897	377.85
786.079	396.28
786.26	359.42
786.441	326.65
786.623	369.66
786.804	252.92
786.985	379.9
787.167	441.34
787.348	345.08
787.529	392.19
787.71	400.38
787.891	402.43
788.073	324.6
788.254	306.17
788.435	433.15
788.616	402.43
788.797	312.32
788.978	375.8
789.159	277.5
789.34	400.38
789.522	287.74
789.703	392.19
789.884	367.61
790.065	347.13
790.246	375.8
790.427	334.84
790.607	336.89
790.788	359.42
790.969	363.51
791.15	289.79
791.331	201.72
791.512	273.4
791.693	293.88
791.874	316.41
792.054	289.79
792.235	238.59
792.416	238.59
792.597	224.25
792.778	281.6
792.958	312.32
793.139	340.99
793.32	248.83
793.5	269.31
793.681	246.78
793.862	291.84
794.042	279.55
794.223	306.17
794.404	211.96
794.584	261.12
794.765	209.92
794.945	265.21
795.126	371.71
795.306	252.92
795.487	246.78
795.667	175.1
795.848	332.79
796.028	257.02
796.209	289.79
796.389	287.74
796.57	343.03
796.75	252.92
796.93	189.44
797.111	265.21
797.291	238.59
797.471	287.74
797.652	205.82
797.832	187.39
798.012	261.12
798.192	214.01
798.373	183.29
798.553	312.32
798.733	234.49
798.913	183.29
799.093	154.62
799.274	216.06
799.454	211.96
799.634	211.96
799.814	189.44
799.994	246.78
800.174	207.87
800.354	216.06
800.534	211.96
800.714	228.35
800.894	171.01
801.074	168.96
801.254	214.01
801.434	246.78
801.614	226.3
801.794	134.14
801.974	760.82
802.154	150.53
802.334	207.87
802.514	150.53
802.693	142.33
802.873	195.58
803.053	189.44
803.233	89.09
803.413	150.53
803.592	130.05
803.772	209.92
803.952	173.05
804.131	259.07
804.311	158.72
804.491	179.2
804.67	132.09
804.85	224.25
805.03	138.24
805.209	244.73
805.389	128
805.568	158.72
805.748	146.43
805.928	187.39
806.107	164.86
806.287	158.72
806.466	162.81
806.646	109.57
806.825	154.62
807.004	66.56
807.184	252.92
807.363	179.2
807.543	76.8
807.722	156.67
807.901	130.05
808.081	179.2
808.26	160.77
808.439	113.66
808.619	154.62
808.798	179.2
808.977	181.25
809.156	115.71
809.336	173.05
809.515	154.62
809.694	117.76
809.873	156.67
810.052	146.43
810.231	171.01
810.411	179.2
810.59	189.44
810.769	142.33
810.948	195.58
811.127	132.09
811.306	148.48
811.485	181.25
811.664	148.48
811.843	203.77
812.022	181.25
812.201	109.57
812.38	132.09
812.559	128
812.737	214.01
812.916	66.56
813.095	175.1
813.274	125.95
813.453	103.42
813.632	89.09
813.811	115.71
813.989	119.81
814.168	125.95
814.347	123.9
814.526	146.43
814.704	128
814.883	156.67
815.062	74.75
815.24	195.58
815.419	9.22
815.598	93.18
815.776	80.89
815.955	160.77
816.133	41.98
816.312	78.85
816.49	123.9
816.669	113.66
816.847	89.09
817.026	123.9
817.204	68.61
817.383	113.66
817.561	89.09
817.74	97.28
817.918	91.13
818.097	56.32
818.275	107.52
818.453	113.66
818.632	119.81
818.81	97.28
818.988	111.61
819.167	103.42
819.345	121.85
819.523	97.28
819.701	138.24
819.879	181.25
820.058	113.66
820.236	162.81
820.414	50.18
820.592	89.09
820.77	84.99
820.948	105.47
821.127	68.61
821.305	136.19
821.483	39.94
821.661	113.66
821.839	142.33
822.017	35.84
822.195	123.9
822.373	113.66
822.551	74.75
822.729	66.56
822.907	31.74
823.085	181.25
823.262	56.32
823.44	39.94
823.618	107.52
823.796	107.52
823.974	74.75
824.152	70.65
824.329	132.09
824.507	156.67
824.685	142.33
824.863	19.46
825.04	66.56
825.218	82.94
825.396	121.85
825.574	117.76
825.751	134.14
825.929	154.62
826.107	89.09
826.284	48.13
826.462	70.65
826.639	76.8
826.817	41.98
826.994	84.99
827.172	50.18
827.349	117.76
827.527	60.42
827.704	64.51
827.882	74.75
828.059	89.09
828.237	58.37
828.414	97.28
828.591	1.02
828.769	68.61
828.946	84.99
829.124	35.84
829.301	91.13
829.478	56.32
829.655	37.89
829.833	134.14
830.01	72.7
830.187	136.19
830.364	23.55
830.542	29.7
830.719	50.18
830.896	115.71
831.073	33.79
831.25	80.89
831.427	97.28
831.604	58.37
831.782	56.32
831.959	95.23
832.136	56.32
832.313	58.37
832.49	95.23
832.667	89.09
832.844	15.36
833.021	121.85
833.198	107.52
833.374	146.43
833.551	70.65
833.728	91.13
833.905	76.8
834.082	-56.32
834.259	175.1
834.436	82.94
834.612	56.32
834.789	64.51
834.966	-27.65
835.143	62.46
835.319	23.55
835.496	97.28
835.673	35.84
835.85	121.85
836.026	76.8
836.203	82.94
836.38	19.46
836.556	74.75
836.733	33.79
836.909	97.28
837.086	48.13
837.262	41.98
837.439	97.28
837.616	-13.31
837.792	82.94
837.968	150.53
838.145	-31.74
838.321	56.32
838.498	105.47
838.674	39.94
838.851	64.51
839.027	74.75
839.203	60.42
839.38	64.51
839.556	-17.41
839.732	52.22
839.909	175.1
840.085	31.74
840.261	80.89
840.437	89.09
840.614	-17.41
840.79	93.18
840.966	39.94
841.142	52.22
841.318	78.85
841.494	66.56
841.671	50.18
841.847	7.17
842.023	-23.55
842.199	97.28
842.375	64.51
842.551	-1.02
842.727	25.6
842.903	84.99
843.079	19.46
843.255	76.8
843.431	50.18
843.607	33.79
843.783	-48.13
843.959	97.28
844.134	44.03
844.31	66.56
844.486	3.07
844.662	-29.7
844.838	41.98
845.013	89.09
845.189	31.74
845.365	-17.41
845.541	97.28
845.716	91.13
845.892	56.32
846.068	48.13
846.244	58.37
846.419	33.79
846.595	41.98
846.77	-31.74
846.946	74.75
847.122	80.89
847.297	60.42
847.473	123.9
847.648	39.94
847.824	66.56
847.999	-80.89
848.175	52.22
848.35	66.56
848.526	39.94
848.701	84.99
848.876	52.22
849.052	62.46
849.227	62.46
849.403	23.55
849.578	109.57
849.753	76.8
849.929	29.7
850.104	25.6
850.279	-17.41
850.454	-41.98
850.63	68.61
850.805	39.94
850.98	-17.41
851.155	1.02
851.33	76.8
851.505	60.42
851.681	41.98
851.856	-66.56
852.031	9.22
852.206	-1.02
852.381	-29.7
852.556	72.7
852.731	21.5
852.906	46.08
853.081	58.37
853.256	64.51
853.431	27.65
853.606	25.6
853.781	11.26
853.956	-41.98
854.131	-17.41
854.305	-5.12
854.48	-9.22
854.655	-33.79
854.83	-9.22
855.005	-31.74
855.18	1.02
855.354	9.22
855.529	11.26
855.704	50.18
855.879	7.17
856.053	54.27
856.228	48.13
856.403	-66.56
856.577	58.37
856.752	-29.7
856.926	7.17
857.101	19.46
857.276	-7.17
857.45	64.51
857.625	13.31
857.799	-17.41
857.974	52.22
858.148	-5.12
858.323	-44.03
858.497	25.6
858.672	-9.22
858.846	23.55
859.02	1.02
859.195	-7.17
859.369	54.27
859.543	35.84
859.718	-15.36
859.892	130.05
860.066	82.94
860.241	-82.94
860.415	-48.13
860.589	11.26
860.763	76.8
860.938	27.65
861.112	52.22
861.286	64.51
861.46	17.41
861.634	89.09
861.808	3.07
861.982	52.22
862.157	7.17
862.331	72.7
862.505	-29.7
862.679	27.65
862.853	-13.31
863.027	-1.02
863.201	72.7
863.375	-31.74
863.549	-5.12
863.722	-13.31
863.896	87.04
864.07	3.07
864.244	66.56
864.418	72.7
864.592	7.17
864.766	9.22
864.939	48.13
865.113	-3.07
865.287	15.36
865.461	-1.02
865.634	-23.55
865.808	-15.36
865.982	23.55
866.156	1.02
866.329	17.41
866.503	29.7
866.676	44.03
866.85	19.46
867.024	33.79
867.197	60.42
867.371	13.31
867.544	41.98
867.718	19.46
867.891	64.51
868.065	48.13
868.238	13.31
868.412	33.79
868.585	68.61
868.759	-21.5
868.932	37.89
869.105	-7.17
869.279	15.36
869.452	1.02
869.625	-9.22
869.799	50.18
869.972	-31.74
870.145	-58.37
870.319	91.13
870.492	50.18
870.665	68.61
870.838	-19.46
871.011	-7.17
871.185	56.32
871.358	-13.31
871.531	-15.36
871.704	17.41
871.877	3.07
872.05	15.36
872.223	-107.52
872.396	-9.22
872.569	-11.26
872.742	-19.46
872.915	58.37
873.088	-29.7
873.261	-15.36
873.434	-7.17
873.607	33.79
873.78	9.22
873.953	-31.74
874.126	7.17
874.299	33.79
874.471	89.09
874.644	-1.02
874.817	39.94
874.99	80.89
875.163	-1.02
875.335	72.7
875.508	31.74
875.681	31.74
875.853	41.98
876.026	-1.02
876.199	15.36
876.371	-21.5
876.544	-91.13
876.717	7.17
876.889	21.5
877.062	13.31
877.234	-68.61
877.407	-29.7
877.579	-46.08
877.752	-15.36
877.924	-5.12
878.097	-5.12
878.269	23.55
878.442	31.74
878.614	21.5
878.786	-21.5
878.959	-31.74
879.131	-1.02
879.303	7.17
879.476	-21.5
879.648	-21.5
879.82	64.51
879.993	-19.46
880.165	39.94
880.337	-113.66
880.509	-29.7
880.681	-41.98
880.854	15.36
881.026	7.17
881.198	-13.31
881.37	3.07
881.542	56.32
881.714	-33.79
881.886	-48.13
882.058	72.7
882.23	-1.02
882.402	-17.41
882.574	68.61
882.746	39.94
882.918	-23.55
883.09	11.26
883.262	-3.07
883.434	23.55
883.606	19.46
883.778	33.79
883.95	31.74
884.122	-87.04
884.293	7.17
884.465	19.46
884.637	39.94
884.809	-15.36
884.98	-37.89
885.152	-23.55
885.324	-1.02
885.496	-58.37
885.667	31.74
885.839	-39.94
886.011	19.46
886.182	3.07
886.354	62.46
886.525	-119.81
886.697	134.14
886.869	-39.94
887.04	-50.18
887.212	3.07
887.383	62.46
887.555	-25.6
887.726	-31.74
887.897	-87.04
888.069	-1.02
888.24	27.65
888.412	-1.02
888.583	27.65
888.754	7.17
888.926	-21.5
889.097	7.17
889.268	-58.37
889.44	11.26
889.611	-41.98
889.782	-3.07
889.953	11.26
890.125	31.74
890.296	-29.7
890.467	-9.22
890.638	15.36
890.809	-50.18
890.98	11.26
891.151	-9.22
891.323	39.94
891.494	41.98
891.665	-56.32
891.836	33.79
892.007	-1.02
892.178	-48.13
892.349	27.65
892.52	9.22
892.691	-23.55
892.862	-5.12
893.032	-41.98
893.203	9.22
893.374	-19.46
893.545	80.89
893.716	-11.26
893.887	56.32
894.057	-19.46
894.228	64.51
894.399	-25.6
894.57	68.61
894.74	48.13
894.911	-17.41
895.082	48.13
895.253	-54.27
895.423	-17.41
895.594	64.51
895.764	44.03
895.935	15.36
896.106	25.6
896.276	7.17
896.447	-13.31
896.617	87.04
896.788	-25.6
896.958	-25.6
897.129	7.17
897.299	7.17
897.47	27.65
897.64	-15.36
897.81	91.13
897.981	39.94
898.151	68.61
898.322	5.12
898.492	13.31
898.662	35.84
898.832	-17.41
899.003	-35.84
899.173	13.31
899.343	-46.08
899.513	-5.12
