Data from USB4F104151__78__14-17-31-871.txt Node

Date: Thu Mar 13 14:17:31 EDT 2025
User: louis
Spectrometer: USB4F10415
Trigger mode: 4
Integration Time (sec): 2.000000E-2
Scans to average: 1
Electric dark correction enabled: true
Nonlinearity correction enabled: false
Boxcar width: 0
XAxis mode: Wavelengths
Number of Pixels in Spectrum: 3648
>>>>>Begin Spectral Data<<<<<
178.204	-116.73
178.424	-116.73
178.644	-116.73
178.864	-149.5
179.084	-116.73
179.304	14.34
179.524	-63.49
179.744	-71.68
179.964	30.72
180.184	-2.05
180.404	49.15
180.624	26.62
180.844	6.14
181.064	-73.73
181.283	59.39
181.503	0
181.723	24.58
181.943	55.3
182.163	55.3
182.383	100.35
182.602	40.96
182.822	49.15
183.042	14.34
183.262	55.3
183.482	106.49
183.701	49.15
183.921	28.67
184.141	22.53
184.361	86.01
184.58	18.43
184.8	-34.82
185.02	0
185.239	45.06
185.459	18.43
185.679	71.68
185.898	-26.62
186.118	90.11
186.338	40.96
186.557	73.73
186.777	14.34
186.997	81.92
187.216	55.3
187.436	88.06
187.655	79.87
187.875	0
188.095	49.15
188.314	71.68
188.534	28.67
188.753	-20.48
188.973	75.77
189.192	104.45
189.412	73.73
189.631	-10.24
189.851	65.54
190.07	122.88
190.29	86.01
190.509	-12.29
190.729	36.86
190.948	32.77
191.168	112.64
191.387	0
191.607	-26.62
191.826	108.54
192.045	47.1
192.265	67.58
192.484	77.82
192.704	24.58
192.923	8.19
193.142	65.54
193.362	38.91
193.581	88.06
193.8	22.53
194.02	-8.19
194.239	36.86
194.458	63.49
194.678	-49.15
194.897	38.91
195.116	-8.19
195.335	45.06
195.555	-8.19
195.774	71.68
195.993	67.58
196.212	40.96
196.432	26.62
196.651	4.1
196.87	0
197.089	112.64
197.308	129.02
197.528	38.91
197.747	-26.62
197.966	47.1
198.185	90.11
198.404	6.14
198.623	94.21
198.842	75.77
199.062	20.48
199.281	38.91
199.5	10.24
199.719	12.29
199.938	165.89
200.157	26.62
200.376	55.3
200.595	30.72
200.814	34.82
201.033	55.3
201.252	65.54
201.471	-36.86
201.69	59.39
201.909	116.73
202.128	49.15
202.347	43.01
202.566	63.49
202.785	81.92
203.004	-14.34
203.223	47.1
203.442	47.1
203.661	8.19
203.879	-14.34
204.098	71.68
204.317	30.72
204.536	16.38
204.755	108.54
204.974	43.01
205.193	94.21
205.411	126.97
205.63	57.34
205.849	38.91
206.068	-26.62
206.287	6.14
206.505	108.54
206.724	-16.38
206.943	24.58
207.162	30.72
207.381	65.54
207.599	34.82
207.818	63.49
208.037	18.43
208.255	47.1
208.474	18.43
208.693	28.67
208.911	55.3
209.13	10.24
209.349	14.34
209.567	49.15
209.786	57.34
210.005	98.3
210.223	90.11
210.442	-32.77
210.661	16.38
210.879	77.82
211.098	10.24
211.316	88.06
211.535	79.87
211.753	75.77
211.972	-47.1
212.191	-36.86
212.409	47.1
212.628	-16.38
212.846	57.34
213.065	71.68
213.283	116.73
213.502	30.72
213.72	32.77
213.938	12.29
214.157	30.72
214.375	71.68
214.594	43.01
214.812	26.62
215.031	16.38
215.249	-14.34
215.467	-34.82
215.686	6.14
215.904	137.21
216.122	71.68
216.341	-14.34
216.559	51.2
216.778	55.3
216.996	49.15
217.214	-26.62
217.432	30.72
217.651	30.72
217.869	90.11
218.087	63.49
218.306	8.19
218.524	55.3
218.742	20.48
218.96	47.1
219.179	98.3
219.397	26.62
219.615	124.93
219.833	32.77
220.051	49.15
220.27	79.87
220.488	47.1
220.706	98.3
220.924	-20.48
221.142	47.1
221.36	59.39
221.578	-22.53
221.796	30.72
222.015	55.3
222.233	6.14
222.451	77.82
222.669	55.3
222.887	22.53
223.105	-34.82
223.323	0
223.541	53.25
223.759	83.97
223.977	18.43
224.195	63.49
224.413	47.1
224.631	-8.19
224.849	18.43
225.067	88.06
225.285	71.68
225.503	83.97
225.721	-2.05
225.939	14.34
226.157	106.49
226.375	8.19
226.592	-18.43
226.81	-16.38
227.028	55.3
227.246	79.87
227.464	14.34
227.682	47.1
227.9	86.01
228.117	18.43
228.335	22.53
228.553	65.54
228.771	-4.1
228.989	51.2
229.206	24.58
229.424	22.53
229.642	69.63
229.86	22.53
230.077	51.2
230.295	133.12
230.513	73.73
230.731	43.01
230.948	73.73
231.166	153.6
231.384	34.82
231.601	110.59
231.819	137.21
232.037	32.77
232.254	28.67
232.472	59.39
232.689	20.48
232.907	45.06
233.125	-36.86
233.342	75.77
233.56	-26.62
233.777	30.72
233.995	43.01
234.213	88.06
234.43	38.91
234.648	2.05
234.865	30.72
235.083	100.35
235.3	16.38
235.518	55.3
235.735	100.35
235.953	63.49
236.17	6.14
236.388	71.68
236.605	-26.62
236.822	96.25
237.04	81.92
237.257	16.38
237.475	18.43
237.692	55.3
237.909	43.01
238.127	10.24
238.344	28.67
238.562	96.25
238.779	40.96
238.996	118.78
239.214	36.86
239.431	96.25
239.648	32.77
239.865	73.73
240.083	55.3
240.3	12.29
240.517	30.72
240.735	-16.38
240.952	43.01
241.169	28.67
241.386	14.34
241.603	92.16
241.821	45.06
242.038	55.3
242.255	124.93
242.472	57.34
242.689	67.58
242.907	16.38
243.124	-8.19
243.341	34.82
243.558	47.1
243.775	24.58
243.992	-51.2
244.209	75.77
244.426	137.21
244.643	45.06
244.86	63.49
245.078	114.69
245.295	43.01
245.512	57.34
245.729	45.06
245.946	18.43
246.163	65.54
246.38	118.78
246.597	63.49
246.814	-47.1
247.031	-2.05
247.248	-20.48
247.464	10.24
247.681	14.34
247.898	65.54
248.115	69.63
248.332	12.29
248.549	98.3
248.766	73.73
248.983	38.91
249.2	40.96
249.417	32.77
249.633	-14.34
249.85	26.62
250.067	51.2
250.284	65.54
250.501	30.72
250.717	77.82
250.934	6.14
251.151	-38.91
251.368	28.67
251.585	53.25
251.801	6.14
252.018	30.72
252.235	120.83
252.451	16.38
252.668	34.82
252.885	32.77
253.102	100.35
253.318	55.3
253.535	96.25
253.752	75.77
253.968	-16.38
254.185	24.58
254.401	71.68
254.618	47.1
254.835	14.34
255.051	75.77
255.268	67.58
255.484	10.24
255.701	30.72
255.917	47.1
256.134	43.01
256.351	65.54
256.567	49.15
256.784	4.1
257	75.77
257.217	81.92
257.433	18.43
257.65	94.21
257.866	104.45
258.082	53.25
258.299	47.1
258.515	75.77
258.732	139.26
258.948	26.62
259.165	45.06
259.381	71.68
259.597	81.92
259.814	43.01
260.03	61.44
260.246	51.2
260.463	4.1
260.679	8.19
260.895	40.96
261.112	71.68
261.328	-6.14
261.544	34.82
261.761	118.78
261.977	-55.3
262.193	71.68
262.409	114.69
262.626	120.83
262.842	20.48
263.058	79.87
263.274	90.11
263.49	43.01
263.707	88.06
263.923	77.82
264.139	30.72
264.355	55.3
264.571	145.41
264.787	51.2
265.004	67.58
265.22	57.34
265.436	0
265.652	30.72
265.868	30.72
266.084	24.58
266.3	14.34
266.516	2.05
266.732	55.3
266.948	18.43
267.164	43.01
267.38	24.58
267.596	28.67
267.812	112.64
268.028	49.15
268.244	18.43
268.46	-18.43
268.676	83.97
268.892	63.49
269.108	75.77
269.324	30.72
269.54	47.1
269.756	104.45
269.972	38.91
270.188	83.97
270.403	14.34
270.619	10.24
270.835	67.58
271.051	79.87
271.267	-2.05
271.483	10.24
271.698	53.25
271.914	38.91
272.13	40.96
272.346	24.58
272.562	63.49
272.777	14.34
272.993	-6.14
273.209	47.1
273.425	18.43
273.64	38.91
273.856	75.77
274.072	63.49
274.287	45.06
274.503	102.4
274.719	43.01
274.934	67.58
275.15	-18.43
275.366	79.87
275.581	-24.58
275.797	0
276.012	14.34
276.228	81.92
276.444	92.16
276.659	71.68
276.875	-22.53
277.09	55.3
277.306	75.77
277.521	120.83
277.737	45.06
277.952	59.39
278.168	94.21
278.383	47.1
278.599	53.25
278.814	67.58
279.03	55.3
279.245	90.11
279.461	55.3
279.676	18.43
279.892	45.06
280.107	10.24
280.322	38.91
280.538	53.25
280.753	47.1
280.969	88.06
281.184	86.01
281.399	18.43
281.615	-16.38
281.83	73.73
282.045	-22.53
282.26	0
282.476	75.77
282.691	114.69
282.906	40.96
283.122	63.49
283.337	18.43
283.552	10.24
283.767	8.19
283.983	81.92
284.198	73.73
284.413	6.14
284.628	51.2
284.843	88.06
285.058	14.34
285.274	86.01
285.489	-26.62
285.704	102.4
285.919	106.49
286.134	55.3
286.349	32.77
286.564	47.1
286.779	100.35
286.995	57.34
287.21	12.29
287.425	81.92
287.64	32.77
287.855	38.91
288.07	-12.29
288.285	6.14
288.5	40.96
288.715	96.25
288.93	24.58
289.145	28.67
289.36	51.2
289.575	38.91
289.79	67.58
290.004	8.19
290.219	22.53
290.434	22.53
290.649	-32.77
290.864	47.1
291.079	43.01
291.294	131.07
291.509	47.1
291.724	38.91
291.938	12.29
292.153	26.62
292.368	65.54
292.583	28.67
292.798	-38.91
293.012	16.38
293.227	83.97
293.442	53.25
293.657	96.25
293.871	47.1
294.086	61.44
294.301	38.91
294.516	47.1
294.73	32.77
294.945	-10.24
295.16	38.91
295.374	102.4
295.589	71.68
295.804	24.58
296.018	2.05
296.233	10.24
296.447	16.38
296.662	67.58
296.877	51.2
297.091	0
297.306	88.06
297.52	145.41
297.735	55.3
297.949	14.34
298.164	38.91
298.378	104.45
298.593	-40.96
298.807	-2.05
299.022	49.15
299.236	75.77
299.451	116.73
299.665	59.39
299.88	51.2
300.094	110.59
300.309	18.43
300.523	100.35
300.737	14.34
300.952	47.1
301.166	28.67
301.381	47.1
301.595	32.77
301.809	43.01
302.024	22.53
302.238	-47.1
302.452	40.96
302.667	36.86
302.881	83.97
303.095	79.87
303.309	75.77
303.524	100.35
303.738	-4.1
303.952	81.92
304.166	10.24
304.381	-30.72
304.595	32.77
304.809	57.34
305.023	28.67
305.237	38.91
305.452	22.53
305.666	79.87
305.88	53.25
306.094	71.68
306.308	65.54
306.522	43.01
306.736	22.53
306.95	61.44
307.164	14.34
307.379	32.77
307.593	51.2
307.807	28.67
308.021	79.87
308.235	102.4
308.449	-2.05
308.663	-4.1
308.877	112.64
309.091	36.86
309.305	38.91
309.519	-16.38
309.733	92.16
309.947	-6.14
310.161	63.49
310.374	59.39
310.588	53.25
310.802	32.77
311.016	30.72
311.23	32.77
311.444	4.1
311.658	61.44
311.872	55.3
312.085	90.11
312.299	90.11
312.513	79.87
312.727	92.16
312.941	67.58
313.154	51.2
313.368	108.54
313.582	98.3
313.796	30.72
314.009	86.01
314.223	92.16
314.437	102.4
314.651	32.77
314.864	83.97
315.078	14.34
315.292	51.2
315.505	14.34
315.719	92.16
315.933	133.12
316.146	32.77
316.36	16.38
316.573	36.86
316.787	81.92
317.001	43.01
317.214	65.54
317.428	22.53
317.641	65.54
317.855	92.16
318.068	120.83
318.282	14.34
318.495	73.73
318.709	81.92
318.922	4.1
319.136	143.36
319.349	22.53
319.563	30.72
319.776	-22.53
319.99	-4.1
320.203	36.86
320.417	40.96
320.63	106.49
320.843	81.92
321.057	36.86
321.27	47.1
321.483	0
321.697	106.49
321.91	73.73
322.124	57.34
322.337	47.1
322.55	4.1
322.763	45.06
322.977	55.3
323.19	114.69
323.403	88.06
323.617	79.87
323.83	81.92
324.043	79.87
324.256	106.49
324.469	75.77
324.683	26.62
324.896	-6.14
325.109	112.64
325.322	71.68
325.535	59.39
325.748	122.88
325.962	43.01
326.175	2.05
326.388	122.88
326.601	116.73
326.814	8.19
327.027	14.34
327.24	100.35
327.453	22.53
327.666	26.62
327.879	149.5
328.092	30.72
328.305	47.1
328.518	63.49
328.731	-2.05
328.944	32.77
329.157	63.49
329.37	75.77
329.583	6.14
329.796	108.54
330.009	16.38
330.222	96.25
330.435	4.1
330.648	98.3
330.861	12.29
331.073	100.35
331.286	32.77
331.499	22.53
331.712	30.72
331.925	96.25
332.138	51.2
332.35	40.96
332.563	63.49
332.776	47.1
332.989	-47.1
333.202	6.14
333.414	133.12
333.627	47.1
333.84	83.97
334.053	88.06
334.265	79.87
334.478	55.3
334.691	67.58
334.903	57.34
335.116	112.64
335.329	26.62
335.541	106.49
335.754	71.68
335.966	4.1
336.179	59.39
336.392	79.87
336.604	43.01
336.817	100.35
337.029	47.1
337.242	108.54
337.454	-12.29
337.667	40.96
337.88	133.12
338.092	34.82
338.305	14.34
338.517	61.44
338.729	143.36
338.942	18.43
339.154	-26.62
339.367	38.91
339.579	108.54
339.792	-57.34
340.004	47.1
340.217	20.48
340.429	104.45
340.641	38.91
340.854	-16.38
341.066	65.54
341.278	81.92
341.491	88.06
341.703	83.97
341.915	122.88
342.128	161.79
342.34	43.01
342.552	45.06
342.764	92.16
342.977	55.3
343.189	120.83
343.401	75.77
343.613	100.35
343.826	57.34
344.038	129.02
344.25	92.16
344.462	0
344.674	100.35
344.886	26.62
345.099	104.45
345.311	69.63
345.523	47.1
345.735	-10.24
345.947	67.58
346.159	2.05
346.371	32.77
346.583	-6.14
346.795	67.58
347.007	120.83
347.219	120.83
347.431	73.73
347.643	71.68
347.855	45.06
348.067	145.41
348.279	67.58
348.491	16.38
348.703	14.34
348.915	124.93
349.127	51.2
349.339	75.77
349.551	-51.2
349.763	24.58
349.975	14.34
350.187	96.25
350.399	40.96
350.61	147.45
350.822	51.2
351.034	30.72
351.246	2.05
351.458	38.91
351.669	38.91
351.881	94.21
352.093	124.93
352.305	75.77
352.517	73.73
352.728	77.82
352.94	106.49
353.152	43.01
353.363	14.34
353.575	180.22
353.787	36.86
353.999	90.11
354.21	24.58
354.422	24.58
354.633	36.86
354.845	124.93
355.057	110.59
355.268	22.53
355.48	51.2
355.692	6.14
355.903	24.58
356.115	34.82
356.326	63.49
356.538	79.87
356.749	124.93
356.961	71.68
357.172	10.24
357.384	126.97
357.595	118.78
357.807	12.29
358.018	71.68
358.23	-43.01
358.441	49.15
358.653	112.64
358.864	90.11
359.075	69.63
359.287	71.68
359.498	51.2
359.709	71.68
359.921	94.21
360.132	14.34
360.344	73.73
360.555	-8.19
360.766	47.1
360.977	90.11
361.189	79.87
361.4	71.68
361.611	73.73
361.823	30.72
362.034	81.92
362.245	51.2
362.456	124.93
362.667	86.01
362.879	65.54
363.09	14.34
363.301	90.11
363.512	145.41
363.723	77.82
363.935	51.2
364.146	98.3
364.357	81.92
364.568	104.45
364.779	-10.24
364.99	88.06
365.201	-51.2
365.412	-2.05
365.623	-16.38
365.834	163.84
366.045	-32.77
366.256	47.1
366.467	63.49
366.678	98.3
366.889	67.58
367.1	55.3
367.311	114.69
367.522	65.54
367.733	57.34
367.944	86.01
368.155	108.54
368.366	24.58
368.577	169.98
368.788	75.77
368.999	32.77
369.209	116.73
369.42	141.31
369.631	178.17
369.842	104.45
370.053	22.53
370.264	79.87
370.474	137.21
370.685	79.87
370.896	47.1
371.107	67.58
371.317	71.68
371.528	81.92
371.739	30.72
371.95	108.54
372.16	92.16
372.371	4.1
372.582	88.06
372.792	73.73
373.003	55.3
373.214	14.34
373.424	92.16
373.635	10.24
373.846	112.64
374.056	-6.14
374.267	88.06
374.477	90.11
374.688	77.82
374.898	73.73
375.109	26.62
375.319	126.97
375.53	118.78
375.74	45.06
375.951	118.78
376.161	120.83
376.372	71.68
376.582	67.58
376.793	63.49
377.003	147.45
377.214	77.82
377.424	28.67
377.635	106.49
377.845	-53.25
378.055	126.97
378.266	53.25
378.476	30.72
378.686	47.1
378.897	92.16
379.107	100.35
379.317	114.69
379.528	10.24
379.738	83.97
379.948	6.14
380.158	73.73
380.369	75.77
380.579	14.34
380.789	-2.05
380.999	100.35
381.21	63.49
381.42	100.35
381.63	55.3
381.84	133.12
382.05	71.68
382.261	55.3
382.471	55.3
382.681	63.49
382.891	63.49
383.101	34.82
383.311	49.15
383.521	38.91
383.731	129.02
383.941	116.73
384.151	108.54
384.361	94.21
384.571	22.53
384.781	110.59
384.991	126.97
385.201	106.49
385.411	145.41
385.621	73.73
385.831	71.68
386.041	100.35
386.251	98.3
386.461	32.77
386.671	98.3
386.881	71.68
387.091	67.58
387.301	135.17
387.511	38.91
387.72	104.45
387.93	169.98
388.14	122.88
388.35	43.01
388.56	36.86
388.769	104.45
388.979	96.25
389.189	100.35
389.399	65.54
389.609	100.35
389.818	79.87
390.028	6.14
390.238	96.25
390.447	55.3
390.657	139.26
390.867	59.39
391.076	73.73
391.286	90.11
391.496	81.92
391.705	153.6
391.915	135.17
392.125	94.21
392.334	75.77
392.544	114.69
392.753	106.49
392.963	73.73
393.172	104.45
393.382	116.73
393.591	129.02
393.801	124.93
394.01	108.54
394.22	75.77
394.429	112.64
394.639	67.58
394.848	147.45
395.058	32.77
395.267	174.08
395.477	79.87
395.686	88.06
395.895	180.22
396.105	108.54
396.314	114.69
396.524	163.84
396.733	129.02
396.942	161.79
397.152	106.49
397.361	163.84
397.57	143.36
397.78	34.82
397.989	190.46
398.198	178.17
398.407	108.54
398.617	112.64
398.826	90.11
399.035	118.78
399.244	143.36
399.453	192.51
399.663	153.6
399.872	94.21
400.081	79.87
400.29	194.56
400.499	90.11
400.708	145.41
400.917	120.83
401.127	96.25
401.336	159.74
401.545	206.84
401.754	210.94
401.963	129.02
402.172	231.42
402.381	163.84
402.59	141.31
402.799	131.07
403.008	182.27
403.217	110.59
403.426	159.74
403.635	96.25
403.844	169.98
404.053	190.46
404.262	221.18
404.471	294.91
404.68	202.75
404.888	188.41
405.097	215.04
405.306	237.56
405.515	131.07
405.724	249.85
405.933	276.48
406.142	194.56
406.35	339.96
406.559	149.5
406.768	245.76
406.977	229.37
407.185	260.09
407.394	202.75
407.603	212.99
407.812	268.28
408.02	352.25
408.229	219.13
408.438	344.06
408.646	284.67
408.855	317.44
409.064	296.96
409.272	346.11
409.481	342.01
409.69	311.29
409.898	366.59
410.107	327.67
410.315	417.79
410.524	378.87
410.733	473.08
410.941	432.12
411.15	452.6
411.358	432.12
411.567	491.51
411.775	475.13
411.984	456.7
412.192	550.9
412.401	589.82
412.609	632.82
412.818	616.44
413.026	626.68
413.234	645.11
413.443	589.82
413.651	661.49
413.86	657.4
414.068	745.46
414.276	761.84
414.485	749.56
414.693	729.08
414.901	800.76
415.11	862.19
415.318	860.15
415.526	808.95
415.734	917.49
415.943	983.03
416.151	1007.6
416.359	983.03
416.567	950.26
416.776	1112.05
416.984	1169.39
417.192	1087.47
417.4	1218.54
417.608	1144.81
417.817	1298.41
418.025	1300.46
418.233	1359.85
418.441	1325.04
418.649	1464.3
418.857	1601.51
419.065	1638.38
419.273	1578.98
419.481	1648.61
419.689	1665
419.897	1791.97
420.105	1853.41
420.313	1875.94
420.521	2004.96
420.729	2037.73
420.937	2078.69
421.145	2152.42
421.353	2209.76
421.561	2285.53
421.769	2373.6
421.977	2512.86
422.185	2521.05
422.393	2508.76
422.601	2611.16
422.809	2803.67
423.017	2803.67
423.224	2867.16
423.432	2848.72
423.64	2965.46
423.848	3291.09
424.056	3178.45
424.263	3442.64
424.471	3391.44
424.679	3446.73
424.887	3651.53
425.094	3766.21
425.302	3790.79
425.51	3975.11
425.718	4085.7
425.925	4331.45
426.133	4173.76
426.341	4366.27
426.548	4755.38
426.756	4704.18
426.964	4749.24
427.171	5062.58
427.379	5103.54
427.586	5382.06
427.794	5572.52
428.001	5638.06
428.209	5869.48
428.417	5791.66
428.624	6231.97
428.832	6211.49
429.039	6229.92
429.247	6039.46
429.454	6766.49
429.662	7120.79
429.869	6666.14
430.076	7231.38
430.284	6946.71
430.491	7270.29
430.699	7593.87
430.906	7866.25
431.114	7823.24
431.321	7907.21
431.528	8365.95
431.736	8683.39
431.943	9142.13
432.15	8894.33
432.358	8951.67
432.565	9512.81
432.772	9322.35
432.979	10010.47
433.187	9985.9
433.394	9994.09
433.601	10805.08
433.808	10917.72
434.016	10772.32
434.223	11394.9
434.43	11736.91
434.637	11718.48
434.844	12367.68
435.052	12732.22
435.259	12447.55
435.466	12676.93
435.673	12709.69
435.88	13281.08
436.087	13915.95
436.294	13915.95
436.501	13700.91
436.708	14128.94
436.915	14362.4
437.122	15101.72
437.329	15220.5
437.537	15480.6
437.743	15576.85
437.95	15853.33
438.157	16764.67
438.364	17061.63
438.571	16897.79
438.778	17317.62
438.985	18609.89
439.192	18089.71
439.399	18380.52
439.606	17942.25
439.813	19191.52
440.02	20352.71
440.227	20027.09
440.433	19812.05
440.64	20549.32
440.847	20190.92
441.054	20948.67
441.261	21989.04
441.467	22001.33
441.674	22032.05
441.881	22699.69
442.088	23160.48
442.294	22621.86
442.501	23543.45
442.708	23797.4
442.914	24860.29
443.121	25615.99
443.328	24956.55
443.534	26766.95
443.741	26224.24
443.948	25632.38
444.154	27512.41
444.361	27594.33
444.568	27700.83
444.774	27381.34
444.981	27733.59
445.187	28911.17
445.394	30041.65
445.6	29730.36
445.807	32099.86
446.013	31026.73
446.22	31092.26
446.426	32986.63
446.633	32873.99
446.839	34395.64
447.046	32439.83
447.252	34475.51
447.459	34352.63
447.665	34199.03
447.871	35696.1
448.078	37238.22
448.284	35390.95
448.491	36226.52
448.697	38143.42
448.903	38780.34
449.11	38833.58
449.316	38057.4
449.522	38784.43
449.728	39620
449.935	39964.06
450.141	40142.24
450.347	40730
450.553	39468.45
450.76	40029.6
450.966	41246.09
451.172	40887.7
451.378	41805.19
451.584	41616.77
451.791	42055.04
451.997	42102.14
452.203	42640.76
452.409	42798.45
452.615	42519.93
452.821	40504.73
453.027	40471.96
453.233	42526.07
453.44	40879.5
453.646	41297.29
453.852	41694.6
454.058	42284.41
454.264	41256.33
454.47	42161.53
454.676	40830.35
454.882	42087.81
455.088	38491.57
455.294	39218.6
455.5	40058.27
455.705	40109.47
455.911	38407.61
456.117	37846.46
456.323	37262.79
456.529	35165.67
456.735	36834.77
456.941	35984.86
457.147	35689.95
457.352	34592.24
457.558	33865.21
457.764	34182.65
457.97	33598.98
458.176	32826.89
458.381	32998.92
458.587	30993.96
458.793	31219.24
458.999	29558.33
459.204	31372.83
459.41	30746.15
459.616	28782.15
459.821	28845.64
460.027	28421.71
460.233	28159.57
460.438	27223.65
460.644	27332.19
460.85	25937.52
461.055	25497.21
461.261	25267.84
461.466	23387.8
461.672	22947.49
461.878	24108.69
462.083	22906.53
462.289	22433.45
462.494	22359.72
462.7	21055.17
462.905	20770.5
463.111	21370.55
463.316	21642.93
463.522	21089.98
463.727	20868.8
463.932	21010.11
464.138	20688.58
464.343	20592.33
464.549	20166.35
464.754	20723.4
464.959	20739.78
465.165	20627.14
465.37	19521.24
465.575	19037.92
465.781	20098.77
465.986	19992.27
466.191	19193.56
466.397	18937.57
466.602	17825.52
466.807	18740.96
467.012	18638.56
467.218	18585.32
467.423	18566.88
467.628	18573.03
467.833	19007.2
468.038	18708.19
468.244	17936.11
468.449	18851.55
468.654	17911.53
468.859	18013.93
469.064	17762.03
469.269	17112.83
469.474	17291
469.679	17479.41
469.885	17118.97
470.09	17604.34
470.295	17415.93
470.5	16789.25
470.705	17241.85
470.91	16656.13
471.115	16273.16
471.32	16676.61
471.525	16652.03
471.73	16381.7
471.935	16228.1
472.139	15656.72
472.344	15820.56
472.549	15496.98
472.754	15417.11
472.959	15132.44
473.164	14739.23
473.369	14698.27
473.574	15269.65
473.778	14786.33
473.983	14919.45
474.188	14989.08
474.393	14206.76
474.598	14266.15
474.802	14028.59
475.007	13958.95
475.212	13928.24
475.417	13631.28
475.621	13502.26
475.826	13698.86
476.031	13406
476.235	13107
476.44	13336.37
476.645	12767.04
476.849	13002.55
477.054	12980.03
477.259	12640.06
477.463	12695.36
477.668	12365.64
477.872	12435.27
478.077	12248.9
478.282	11943.75
478.486	11865.93
478.691	11771.72
478.895	11769.68
479.1	11593.55
479.304	11726.67
479.509	11427.67
479.713	11648.85
479.918	11083.61
480.122	11155.29
480.326	11460.43
480.531	11448.15
480.735	11161.43
480.94	10966.87
481.144	11233.11
481.348	11011.93
481.553	10921.82
481.757	10884.95
481.961	11028.31
482.166	11046.74
482.37	11024.22
482.574	10794.84
482.778	10891.1
482.983	11089.75
483.187	10817.37
483.391	10901.34
483.595	10688.35
483.8	10766.17
484.004	10831.71
484.208	11192.15
484.412	10872.67
484.616	10903.39
484.821	10835.8
485.025	10581.85
485.229	11052.89
485.433	10772.32
485.637	10825.56
485.841	10794.84
486.045	10823.51
486.249	10962.78
486.453	10770.27
486.657	10786.65
486.861	10856.28
487.065	10581.85
487.269	10843.99
487.473	10583.9
487.677	10895.19
487.881	10995.54
488.085	10817.37
488.289	10915.67
488.493	10770.27
488.697	10688.35
488.901	10975.06
489.105	10950.49
489.309	10983.26
489.512	11143
489.716	11132.76
489.92	10817.37
490.124	11069.27
490.328	11251.54
490.531	11044.7
490.735	11251.54
490.939	11108.18
491.143	11198.29
491.346	11145.05
491.55	11368.27
491.754	11229.01
491.958	11319.12
492.161	11190.1
492.365	11521.87
492.569	11358.03
492.772	11435.86
492.976	11556.69
493.18	11556.69
493.383	11583.31
493.587	11765.58
493.79	11843.4
493.994	11816.78
494.197	11865.93
494.401	12162.89
494.605	12083.02
494.808	12205.89
495.012	12126.02
495.215	12248.9
495.419	12425.03
495.622	12257.09
495.825	12676.93
496.029	12695.36
496.232	12855.1
496.436	12869.44
496.639	13031.23
496.843	12961.59
497.046	13303.6
497.249	13518.64
497.453	13627.18
497.656	13735.73
497.859	13612.85
498.063	13866.8
498.266	14149.42
498.469	14120.74
498.673	14014.25
498.876	14554.91
499.079	14337.83
499.282	14407.46
499.485	14984.99
499.689	15062.81
499.892	15064.86
500.095	15310.61
500.298	15724.3
500.501	15562.51
500.705	15683.34
500.908	15816.46
501.111	16060.17
501.314	16289.54
501.517	16529.16
501.72	16697.09
501.923	16537.35
502.126	16981.76
502.329	17139.45
502.532	17319.67
502.735	17387.25
502.938	17743.6
503.141	17917.68
503.344	18302.7
503.547	18095.85
503.75	18366.18
503.953	18743.01
504.156	18794.21
504.359	18671.33
504.562	19255
504.765	19480.28
504.968	19687.12
505.17	19977.94
505.373	20127.44
505.576	20340.43
505.779	20543.17
505.982	20780.74
506.185	20907.71
506.387	21067.45
506.59	21114.56
506.793	21866.16
506.996	21819.06
507.198	22175.41
507.401	22159.02
507.604	22351.53
507.807	22982.31
508.009	23035.55
508.212	23058.08
508.415	23217.82
508.617	23522.97
508.82	23615.13
509.022	23797.4
509.225	24219.28
509.428	24340.11
509.63	24872.58
509.833	24739.46
510.035	25312.89
510.238	25419.39
510.44	25650.81
510.643	25910.9
510.845	26074.74
511.048	26060.4
511.25	26644.07
511.453	26650.22
511.655	27795.03
511.858	27274.85
512.06	27424.35
512.262	27749.98
512.465	27721.31
512.667	28509.77
512.87	28528.2
513.072	28663.37
513.274	29138.5
513.477	29279.81
513.679	29517.37
513.881	30285.36
514.084	29992.5
514.286	29984.31
514.488	30199.35
514.69	31155.75
514.893	31235.62
515.095	31565.34
515.297	31804.95
515.499	31698.46
515.701	32452.11
515.904	32677.39
516.106	32732.68
516.308	32880.14
516.51	33385.99
516.712	33355.27
516.914	33930.75
517.116	33951.23
517.318	34495.99
517.52	34907.63
517.722	34846.19
517.925	35280.36
518.127	35511.78
518.329	35876.32
518.531	35726.81
518.733	36799.95
518.935	36619.73
519.136	36535.76
519.338	37324.23
519.54	37426.63
519.742	37438.92
519.944	37711.3
520.146	38073.79
520.348	38460.85
520.55	38495.67
520.752	38710.71
520.954	39316.9
521.155	39525.8
521.357	40011.17
521.559	40408.47
521.761	40498.58
521.963	40510.87
522.164	40703.38
522.366	41082.25
522.568	41194.89
522.77	41495.94
522.971	41971.07
523.173	41655.68
523.375	42577.27
523.576	42231.16
523.778	42270.07
523.98	42630.52
524.181	43189.61
524.383	43212.14
524.584	43593.06
524.786	43746.66
524.988	43375.98
525.189	44266.84
525.391	44420.44
525.592	44539.22
525.794	44481.88
525.995	44715.35
526.197	44875.09
526.398	45000.02
526.6	45360.46
526.801	45444.43
527.003	45755.72
527.204	45722.95
527.406	45831.49
527.607	45923.65
527.808	46134.59
528.01	45790.53
528.211	46619.96
528.412	46796.09
528.614	46400.83
528.815	46331.2
529.016	47299.89
529.218	46368.06
529.419	46599.48
529.62	47045.94
529.822	47152.43
530.023	47371.57
530.224	47318.32
530.425	47531.31
530.626	47242.54
530.828	46394.68
531.029	47932.71
531.23	47410.48
531.431	47744.3
531.632	48141.6
531.833	48123.17
532.035	47875.37
532.236	47707.43
532.437	48139.55
532.638	47674.66
532.839	48043.3
533.04	47928.61
533.241	47686.95
533.442	48631.07
533.643	48583.96
533.844	48168.22
534.045	48385.31
534.246	48059.68
534.447	48522.52
534.648	48338.21
534.849	48100.64
535.05	47691.05
535.251	48383.26
535.451	48151.84
535.652	48041.25
535.853	47793.45
536.054	48252.19
536.255	48563.48
536.456	47945
536.657	49138.96
536.857	48389.41
537.058	48098.59
537.259	48590.11
537.46	48055.59
537.66	48143.65
537.861	48493.85
538.062	48250.14
538.263	47983.91
538.463	48049.44
538.664	48100.64
538.865	48059.68
539.065	48590.11
539.266	47803.69
539.466	48547.1
539.667	47562.03
539.868	48749.85
540.068	48483.61
540.269	48233.76
540.469	48790.81
540.67	48180.51
540.87	48325.92
541.071	48182.56
541.271	48028.96
541.472	48135.46
541.672	48250.14
541.873	47869.22
542.073	47619.37
542.274	48131.36
542.474	47922.47
542.675	47785.25
542.875	48311.58
543.075	47691.05
543.276	47615.27
543.476	48479.52
543.676	47871.27
543.877	48362.78
544.077	47959.33
544.277	48194.85
544.478	47914.28
544.678	47967.52
544.878	48385.31
545.078	48297.25
545.279	47557.93
545.479	47977.76
545.679	48145.7
545.879	47785.25
546.079	47719.72
546.28	47916.32
546.48	47236.4
546.68	47660.33
546.88	48143.65
547.08	48041.25
547.28	47680.81
547.48	47619.37
547.68	47942.95
547.88	47476.01
548.081	48166.18
548.281	47654.18
548.481	47238.45
548.681	47754.54
548.881	47828.26
549.081	47729.96
549.28	47557.93
549.48	47918.37
549.68	47758.63
549.88	48325.92
550.08	47527.21
550.28	47564.07
550.48	47516.97
550.68	47815.97
550.88	47576.36
551.08	47254.83
551.279	47611.18
551.479	47047.99
551.679	47994.15
551.879	47582.51
552.079	48188.7
552.278	47598.89
552.478	47390
552.678	47314.22
552.878	47781.16
553.077	47281.45
553.277	47195.44
553.477	47621.42
553.676	47170.86
553.876	47525.16
554.076	46828.85
554.275	47441.2
554.475	46839.09
554.674	47142.19
554.874	47148.34
555.074	47349.04
555.273	47158.58
555.473	47248.69
555.672	46882.1
555.872	47097.14
556.071	47004.98
556.271	47353.13
556.47	46951.73
556.67	46415.16
556.869	46712.12
557.068	46884.15
557.268	46052.67
557.467	47148.34
557.667	46763.32
557.866	46476.6
558.065	46918.96
558.265	46720.31
558.464	46042.43
558.663	46798.13
558.863	45751.62
559.062	46726.45
559.261	46267.71
559.461	46386.49
559.66	45985.09
559.859	45987.14
560.058	46097.73
560.258	45589.83
560.457	45608.26
560.656	45786.44
560.855	45876.55
561.054	45882.69
561.253	45442.38
561.453	45831.49
561.652	45796.68
561.851	45813.06
562.05	45131.09
562.249	44969.3
562.448	45819.2
562.647	45534.54
562.846	45274.45
563.045	45454.67
563.244	44725.59
563.443	45495.63
563.642	44666.2
563.841	45247.82
564.04	45126.99
564.239	45544.78
564.438	44397.91
564.637	44645.72
564.836	45077.84
565.035	44313.95
565.234	44795.22
565.432	44782.93
565.631	44506.46
565.83	44494.17
566.029	44223.84
566.228	44141.92
566.427	44348.76
566.625	43640.17
566.824	43576.68
567.023	43916.64
567.222	43115.89
567.42	44031.33
567.619	43591.01
567.818	43595.11
568.016	43281.77
568.215	43617.64
568.414	43238.76
568.612	43615.59
568.811	43031.92
569.01	43060.59
569.208	42827.12
569.407	43218.28
569.605	42519.93
569.804	42868.08
570.002	42845.55
570.201	42677.62
570.4	42478.97
570.598	42474.87
570.797	42098.05
570.995	42399.1
571.193	41817.47
571.392	42276.22
571.59	41543.05
571.789	41809.28
571.987	41627.01
572.186	41833.86
572.384	41659.78
572.582	41547.14
572.781	41371.02
572.979	41414.02
573.177	41233.8
573.376	41127.31
573.574	41350.54
573.772	41385.35
573.971	40813.97
574.169	40783.25
574.367	40519.06
574.565	40983.95
574.763	40807.83
574.962	40766.87
575.16	40537.49
575.358	40617.36
575.556	40123.8
575.754	40471.96
575.952	39722.4
576.151	40316.31
576.349	39400.87
576.547	39415.21
576.745	39783.84
576.943	39593.38
577.141	39685.54
577.339	39450.02
577.537	39224.75
577.735	39378.34
577.933	38847.92
578.131	39054.76
578.329	39075.24
578.527	38651.31
578.725	38751.66
578.923	39173.55
579.121	38667.7
579.319	38733.23
579.516	38669.75
579.714	38630.83
579.912	38679.99
580.11	37903.81
580.308	38088.12
580.506	38141.37
580.704	37633.47
580.901	37705.15
581.099	38198.71
581.297	37866.94
581.495	37594.56
581.692	37666.24
581.89	37285.32
582.088	37612.99
582.285	36670.93
582.483	37223.88
582.681	37344.71
582.878	37129.67
583.076	36683.22
583.274	37043.66
583.471	36552.15
583.669	36570.58
583.866	36369.88
584.064	36711.89
584.262	36109.78
584.459	36472.28
584.657	36146.65
584.854	36376.02
585.052	35487.2
585.249	36287.96
585.447	35966.43
585.644	35745.25
585.841	35993.05
586.039	35978.71
586.236	35433.96
586.434	35448.29
586.631	35042.79
586.828	35370.47
587.026	35253.73
587.223	34948.59
587.42	34823.66
587.618	34786.8
587.815	34694.64
588.012	35014.12
588.21	34287.09
588.407	35413.48
588.604	34274.8
588.801	34426.35
588.999	34231.8
589.196	34190.84
589.393	34147.83
589.59	33846.78
589.787	33861.12
589.984	34002.43
590.182	33474.05
590.379	33760.76
590.576	33422.85
590.773	33490.43
590.97	33639.93
591.167	33459.71
591.364	32982.54
591.561	33123.85
591.758	32726.54
591.955	32611.85
592.152	32761.36
592.349	32890.38
592.546	32931.34
592.743	32466.45
592.94	31976.98
593.137	32249.36
593.334	32673.29
593.531	31936.02
593.727	32495.12
593.924	32122.39
594.121	32007.7
594.318	31845.91
594.515	31755.8
594.712	32118.29
594.908	31745.56
595.105	31899.16
595.302	31268.39
595.499	31436.32
595.696	31399.46
595.892	31133.22
596.089	31286.82
596.286	31176.23
596.482	31192.61
596.679	30711.34
596.876	30936.62
597.072	30996.01
597.269	30500.4
597.466	30598.7
597.662	30486.06
597.859	30570.03
598.055	30449.2
598.252	30289.46
598.448	30234.16
598.645	30135.86
598.841	29668.92
599.038	30154.29
599.234	29879.86
599.431	29707.83
599.627	29433.41
599.824	29855.29
600.02	29447.74
600.217	29431.36
600.413	29429.31
600.609	29109.83
600.806	29126.21
601.002	29029.96
601.198	28909.13
601.395	28859.98
601.591	28724.81
601.787	28769.86
601.984	28632.65
602.18	28743.24
602.376	28597.84
602.572	28505.68
602.769	28364.37
602.965	28565.07
603.161	28558.92
603.357	28188.24
603.553	28110.42
603.75	28038.74
603.946	27803.22
604.142	28022.36
604.338	27543.13
604.534	28053.08
604.73	27655.77
604.926	27580
605.122	27498.08
605.318	27039.33
605.514	27131.49
605.71	27412.06
605.906	27135.59
606.102	26865.25
606.298	27342.43
606.494	26900.07
606.69	26963.56
606.886	27111.01
607.082	26627.69
607.278	26793.58
607.474	26588.78
607.67	26977.89
607.866	26238.58
608.062	26701.42
608.257	26216.05
608.453	26336.88
608.649	26336.88
608.845	26056.31
609.041	26238.58
609.236	26377.84
609.432	26066.55
609.628	26064.5
609.824	25867.89
610.019	26089.07
610.215	25796.21
610.411	26310.25
610.606	25790.07
610.802	25958
610.998	25693.82
611.193	25491.07
611.389	25593.47
611.584	25525.88
611.78	25243.26
611.976	25382.52
612.171	25738.87
612.367	25353.85
612.562	25331.33
612.758	24977.03
612.953	24927.88
613.149	25503.35
613.344	24774.28
613.539	25405.05
613.735	24780.42
613.93	24716.93
614.126	25081.47
614.321	24770.18
614.517	24876.68
614.712	24850.05
614.907	24678.02
615.103	25046.66
615.298	24254.09
615.493	24897.16
615.688	24206.99
615.884	24843.91
616.079	24045.2
616.274	24626.82
616.47	24323.72
616.665	24278.67
616.86	24303.25
617.055	24159.89
617.25	24295.05
617.445	24524.43
617.641	23969.43
617.836	23950.99
618.031	23647.9
618.226	24092.3
618.421	23860.88
618.616	23826.07
618.811	23316.12
619.006	23910.04
619.201	23021.22
619.396	23631.51
619.591	23119.52
619.786	23352.99
619.981	22967.97
620.176	23217.82
620.371	22877.86
620.566	23015.07
620.761	22718.12
620.956	22845.09
621.151	22632.1
621.346	22599.34
621.541	22261.42
621.735	22525.61
621.93	22294.19
622.125	21972.66
622.32	21898.93
622.515	21737.14
622.709	21751.48
622.904	21714.61
623.099	21468.86
623.294	21391.03
623.488	21167.81
623.683	21409.47
623.878	21128.89
624.072	21182.14
624.267	20917.95
624.462	20879.04
624.656	20606.66
624.851	20408.01
625.046	20479.69
625.24	20571.85
625.435	20162.25
625.629	20203.21
625.824	19896.02
626.018	20080.33
626.213	19939.02
626.407	19719.89
626.602	19418.84
626.796	19465.94
626.991	19607.25
627.185	19250.91
627.38	19259.1
627.574	18988.77
627.768	18857.7
627.963	18792.16
628.157	18923.23
628.352	18753.25
628.546	18650.85
628.74	18396.9
628.935	18169.58
629.129	18415.33
629.323	18118.38
629.517	18116.33
629.712	18108.14
629.906	18171.63
630.1	17696.5
630.294	17618.68
630.489	17483.51
630.683	17770.22
630.877	17350.39
631.071	17344.25
631.265	17307.38
631.459	17168.12
631.653	17045.24
631.848	17106.68
632.042	16903.93
632.236	16942.85
632.43	16797.44
632.624	16668.42
632.818	16690.95
633.012	16594.69
633.206	16430.85
633.4	16467.72
633.594	16099.08
633.788	16176.91
633.982	16097.03
634.176	15861.52
634.369	15814.41
634.563	16080.65
634.757	15691.54
634.951	15738.64
635.145	15712.02
635.339	15574.8
635.533	15410.96
635.726	15591.19
635.92	15511.32
636.114	15376.15
636.308	15200.02
636.501	15175.45
636.695	15021.85
636.889	14556.96
637.083	14952.22
637.276	14718.75
637.47	14698.27
637.664	14532.39
637.857	14722.85
638.051	14491.43
638.244	14382.88
638.438	14368.55
638.632	14227.24
638.825	14180.14
639.019	14229.29
639.212	14139.18
639.406	13893.42
639.599	13874.99
639.793	13733.68
639.986	13774.64
640.18	13817.65
640.373	13715.25
640.567	13571.89
640.76	13707.05
640.954	12943.16
641.147	12959.55
641.34	13287.22
641.534	13211.45
641.727	13094.71
641.92	13104.95
642.114	12867.39
642.307	12953.4
642.5	12920.63
642.694	12531.52
642.887	12562.24
643.08	12715.84
643.273	12394.31
643.467	12695.36
643.66	12375.88
643.853	12109.64
644.046	12236.61
644.239	12312.39
644.432	12031.82
644.626	12035.91
644.819	12058.44
645.012	11990.86
645.205	11888.46
645.398	11790.16
645.591	11726.67
645.784	11827.02
645.977	11698
646.17	11548.5
646.363	11544.4
646.556	11380.56
646.749	11335.51
646.942	11474.77
647.135	11304.79
647.328	11161.43
647.521	11032.41
647.714	11196.25
647.907	11181.91
648.099	10882.91
648.292	10948.44
648.485	10954.58
648.678	10852.19
648.871	10684.25
649.064	10491.74
649.256	10778.46
649.449	10555.23
649.642	10561.37
649.835	10532.7
650.027	10438.5
650.22	10254.18
650.413	10231.65
650.605	10305.38
650.798	10307.43
650.991	10231.65
651.183	10231.65
651.376	10030.95
651.568	10084.2
651.761	9891.69
651.954	9762.67
652.146	9914.22
652.339	9791.34
652.531	9738.09
652.724	9531.25
652.916	9369.46
653.109	9588.59
653.301	9680.75
653.494	9420.66
653.686	9281.39
653.879	9312.11
654.071	9596.78
654.263	9262.96
654.456	9174.9
654.648	9375.6
654.84	9119.6
655.033	8943.48
655.225	8914.81
655.417	9039.73
655.61	9162.61
655.802	8892.28
655.994	8884.09
656.186	8804.22
656.379	8939.38
656.571	8773.5
656.763	8796.03
656.955	8478.59
657.148	8677.24
657.34	8333.18
657.532	8533.89
657.724	8275.84
657.916	8421.25
658.108	8363.9
658.3	8304.51
658.492	8316.8
658.684	8044.42
658.876	8181.64
659.068	8296.32
659.26	8046.47
659.452	8038.28
659.644	7948.17
659.836	8087.43
660.028	7958.41
660.22	7694.22
660.412	7806.86
660.604	7985.03
660.796	7862.15
660.988	7858.06
661.18	7606.16
661.372	7772.04
661.563	7841.67
661.755	7618.44
661.947	7585.68
662.139	7612.3
662.331	7497.61
662.522	7497.61
662.714	7618.44
662.906	7335.82
663.097	7395.22
663.289	7337.87
663.481	7243.67
663.673	7311.25
663.864	7122.84
664.056	7124.88
664.247	7270.29
664.439	6885.27
664.631	7161.75
664.822	6956.95
665.014	6944.66
665.205	6993.81
665.397	6905.75
665.588	6911.89
665.78	6725.53
665.971	6965.14
666.163	6872.98
666.354	6721.43
666.546	6653.85
666.737	6750.11
666.929	6651.8
667.12	6748.06
667.311	6721.43
667.503	6506.4
667.694	6629.27
667.885	6520.73
668.077	6569.88
668.268	6424.48
668.459	6334.37
668.651	6309.79
668.842	6369.18
669.033	6287.26
669.224	6172.58
669.416	6315.94
669.607	6172.58
669.798	6182.82
669.989	6268.83
670.18	6197.15
670.371	5939.11
670.563	5994.4
670.754	5994.4
670.945	5945.25
671.136	6080.42
671.327	5949.35
671.518	6031.27
671.709	5967.78
671.9	5871.53
672.091	5797.8
672.282	5812.14
672.473	5904.29
672.664	5793.7
672.855	5775.27
673.046	5785.51
673.237	5740.46
673.428	5693.35
673.619	5711.78
673.809	5681.07
674	5597.1
674.191	5650.35
674.382	5570.47
674.573	5539.76
674.764	5570.47
674.954	5513.13
675.145	5480.36
675.336	5373.87
675.527	5375.92
675.717	5726.12
675.908	5398.45
676.099	5466.03
676.289	5349.29
676.48	5257.14
676.671	5330.86
676.861	5193.65
677.052	5240.75
677.243	5316.53
677.433	5093.3
677.624	5234.61
677.814	5207.98
678.005	5267.38
678.195	5175.22
678.386	5167.03
678.576	5121.97
678.767	4964.28
678.957	5187.5
679.148	5330.86
679.338	5115.83
679.529	5091.25
679.719	5154.74
679.909	5093.3
680.1	5126.07
680.29	4968.37
680.481	5085.11
680.671	5056.43
680.861	4831.16
681.052	4831.16
681.242	4911.03
681.432	4865.97
681.622	4765.62
681.813	4876.21
682.003	4943.8
682.193	4747.19
682.383	4724.66
682.573	4710.33
682.764	4739
682.954	4818.87
683.144	4798.39
683.334	4837.3
683.524	4716.47
683.714	4777.91
683.904	4675.51
684.094	4786.1
684.284	4661.18
684.474	4714.42
684.664	4677.56
684.854	4677.56
685.044	4675.51
685.234	4612.03
685.424	4616.12
685.614	4677.56
685.804	4708.28
685.994	4603.83
686.184	4564.92
686.374	4505.53
686.564	4333.5
686.753	4603.83
686.943	4487.1
687.133	4370.37
687.323	4577.21
687.513	4315.07
687.702	4290.49
687.892	4325.31
688.082	4190.14
688.272	4247.49
688.461	4331.45
688.651	4249.54
688.841	4270.01
689.03	4313.02
689.22	4366.27
689.41	4136.9
689.599	4437.95
689.789	4093.89
689.979	4198.34
690.168	4073.41
690.358	4224.96
690.547	4126.66
690.737	4032.45
690.926	4140.99
691.116	4087.75
691.305	3940.29
691.495	4011.97
691.684	4065.22
691.874	4097.99
692.063	4005.83
692.252	4044.74
692.442	4032.45
692.631	4001.73
692.82	4003.78
693.01	3807.17
693.199	3796.93
693.388	3768.26
693.578	3809.22
693.767	3917.76
693.956	3631.05
694.146	3678.15
694.335	3891.14
694.524	3659.72
694.713	3887.04
694.902	3856.33
695.092	3962.82
695.281	3549.13
695.47	3643.34
695.659	3553.23
695.848	3563.47
696.037	3717.06
696.226	3710.92
696.415	3653.58
696.604	3735.49
696.793	3629
696.982	3549.13
697.171	3669.96
697.36	3528.65
697.549	3585.99
697.738	3622.86
697.927	3520.46
698.116	3514.31
698.305	3559.37
698.494	3504.07
698.683	3512.27
698.872	3553.23
699.061	3534.79
699.25	3526.6
699.438	3575.75
699.627	3485.64
699.816	3598.28
700.005	3528.65
700.193	3508.17
700.382	3571.66
700.571	3555.27
700.76	3407.82
700.948	3510.22
701.137	3536.84
701.326	3579.85
701.514	3373
701.703	3403.72
701.892	3338.19
702.08	3409.87
702.269	3549.13
702.457	3307.47
702.646	3409.87
702.834	3237.84
703.023	3356.62
703.212	3373
703.4	3291.09
703.589	3209.17
703.777	3430.35
703.965	3266.51
704.154	3299.28
704.342	3309.52
704.531	3387.34
704.719	3258.32
704.907	3272.65
705.096	3227.6
705.284	3184.59
705.472	3225.55
705.661	3129.3
705.849	3241.93
706.037	3315.66
706.226	3336.14
706.414	3108.82
706.602	3233.74
706.79	3168.21
706.979	3399.63
707.167	3215.31
707.355	3178.45
707.543	3104.72
707.731	3196.88
707.919	3184.59
708.107	3096.53
708.296	3030.99
708.484	3094.48
708.672	3131.34
708.86	3127.25
709.048	2975.7
709.236	2996.18
709.424	3112.91
709.612	2922.45
709.8	3030.99
709.988	3061.71
710.176	3153.87
710.364	3129.3
710.551	2983.89
710.739	3139.54
710.927	3166.16
711.115	3012.56
711.303	2951.12
711.491	2914.26
711.679	2887.64
711.866	2924.5
712.054	2930.64
712.242	2879.44
712.43	3053.52
712.617	3082.19
712.805	2914.26
712.993	2959.31
713.181	2824.15
713.368	2959.31
713.556	2873.3
713.744	2887.64
713.931	3104.72
714.119	2922.45
714.306	2881.49
714.494	2883.54
714.682	2813.91
714.869	2834.39
715.057	2920.4
715.244	2813.91
715.432	2930.64
715.619	2838.48
715.807	2750.42
715.994	2834.39
716.182	2832.34
716.369	2942.93
716.556	2930.64
716.744	2752.47
716.931	2660.31
717.119	2865.11
717.306	2697.17
717.493	2744.28
717.681	2824.15
717.868	2752.47
718.055	2828.24
718.242	2758.61
718.43	2637.78
718.617	2623.45
718.804	2580.44
718.991	2723.8
719.179	2666.46
719.366	2779.09
719.553	2746.33
719.74	2609.11
719.927	2619.35
720.114	2750.42
720.301	2619.35
720.488	2619.35
720.676	2602.97
720.863	2715.61
721.05	2678.74
721.237	2686.93
721.424	2512.86
721.611	2566.1
721.798	2551.77
721.985	2557.91
722.172	2596.82
722.358	2562.01
722.545	2586.58
722.732	2660.31
722.919	2582.49
723.106	2666.46
723.293	2566.1
723.48	2521.05
723.667	2523.1
723.853	2596.82
724.04	2623.45
724.227	2500.57
724.414	2478.04
724.6	2490.33
724.787	2383.84
724.974	2471.9
725.161	2529.24
725.347	2486.23
725.534	2621.4
725.72	2533.34
725.907	2463.71
726.094	2471.9
726.28	2455.51
726.467	2392.03
726.653	2498.52
726.84	2416.6
727.027	2486.23
727.213	2457.56
727.4	2475.99
727.586	2525.15
727.773	2514.91
727.959	2412.51
728.145	2547.67
728.332	2367.45
728.518	2344.92
728.705	2373.6
728.891	2457.56
729.077	2312.16
729.264	2400.22
729.45	2357.21
729.636	2398.17
729.823	2383.84
730.009	2373.6
730.195	2349.02
730.382	2437.08
730.568	2310.11
730.754	2351.07
730.94	2252.77
731.126	2365.4
731.313	2389.98
731.499	2263.01
731.685	2297.82
731.871	2414.56
732.057	2324.44
732.243	2349.02
732.429	2263.01
732.615	2254.81
732.801	2267.1
732.987	2279.39
733.173	2285.53
733.359	2349.02
733.545	2308.06
733.731	2179.04
733.917	2303.96
734.103	2336.73
734.289	2271.2
734.475	2107.36
734.661	2201.57
734.847	2242.53
735.033	2217.95
735.219	2095.07
735.404	2250.72
735.59	2209.76
735.776	2176.99
735.962	2193.37
736.148	2166.75
736.333	2209.76
736.519	2193.37
736.705	2244.57
736.89	2213.85
737.076	2209.76
737.262	2193.37
737.447	2090.98
737.633	2176.99
737.819	2152.42
738.004	2064.35
738.19	2111.46
738.375	2197.47
738.561	2164.7
738.747	2070.5
738.932	2070.5
739.118	2090.98
739.303	2215.9
739.489	2021.35
739.674	2027.49
739.859	2121.7
740.045	1998.82
740.23	2129.89
740.416	1939.43
740.601	2133.98
740.786	1935.33
740.972	2013.15
741.157	2045.92
741.342	1966.05
741.528	1996.77
741.713	2002.91
741.898	1923.04
742.084	1929.19
742.269	1951.71
742.454	1933.28
742.639	1906.66
742.824	1908.71
743.01	1951.71
743.195	1841.12
743.38	1810.4
743.565	1875.94
743.75	1851.36
743.935	1800.16
744.12	1976.29
744.305	1871.84
744.49	1759.21
744.675	1779.68
744.86	1853.41
745.045	1818.6
745.23	1902.56
745.415	1869.8
745.6	1785.83
745.785	1808.36
745.97	1796.07
746.155	1849.32
746.34	1808.36
746.525	1714.15
746.71	1810.4
746.895	1687.53
747.079	1816.55
747.264	1691.62
747.449	1685.48
747.634	1656.81
747.819	1697.77
748.003	1665
748.188	1716.2
748.373	1531.88
748.557	1626.09
748.742	1611.75
748.927	1605.61
749.111	1505.26
749.296	1640.42
749.481	1646.57
749.665	1578.98
749.85	1531.88
750.034	1554.41
750.219	1578.98
750.404	1599.46
750.588	1497.07
750.773	1490.92
750.957	1581.03
751.141	1425.39
751.326	1531.88
751.51	1441.77
751.695	1447.91
751.879	1449.96
752.064	1509.35
752.248	1413.1
752.432	1396.71
752.617	1392.62
752.801	1349.61
752.985	1427.43
753.17	1417.19
753.354	1472.49
753.538	1378.28
753.722	1351.66
753.907	1357.8
754.091	1320.94
754.275	1421.29
754.459	1400.81
754.643	1351.66
754.828	1286.12
755.012	1284.08
755.196	1292.27
755.38	1282.03
755.564	1288.17
755.748	1253.36
755.932	1202.16
756.116	1232.88
756.3	1171.44
756.484	1234.93
756.668	1234.93
756.852	1138.67
757.036	1210.35
757.22	1226.73
757.404	1212.4
757.588	1220.59
757.772	1146.86
757.956	1114.09
758.14	1138.67
758.323	1071.09
758.507	1120.24
758.691	1058.8
758.875	1185.77
759.059	1196.01
759.242	1187.82
759.426	1112.05
759.61	1091.57
759.794	1101.81
759.977	1177.58
760.161	1124.33
760.345	1026.03
760.528	1087.47
760.712	1120.24
760.895	1144.81
761.079	1038.32
761.263	1011.7
761.446	1046.51
761.63	1058.8
761.813	995.31
761.997	972.79
762.18	1038.32
762.364	1040.37
762.547	1015.79
762.731	897.01
762.914	915.44
763.098	923.63
763.281	923.63
763.464	950.26
763.648	929.78
763.831	917.49
764.015	962.55
764.198	980.98
764.381	931.83
764.564	903.15
764.748	1003.5
764.931	978.93
765.114	980.98
765.297	950.26
765.481	874.48
765.664	894.96
765.847	913.39
766.03	925.68
766.213	854
766.397	868.34
766.58	892.91
766.763	911.35
766.946	849.91
767.129	897.01
767.312	819.19
767.495	868.34
767.678	872.43
767.861	876.53
768.044	907.25
768.227	811
768.41	849.91
768.593	899.06
768.776	917.49
768.959	786.42
769.142	813.04
769.324	811
769.507	802.8
769.69	882.67
769.873	825.33
770.056	839.67
770.239	743.41
770.421	813.04
770.604	733.17
770.787	813.04
770.97	757.75
771.152	808.95
771.335	868.34
771.518	800.76
771.7	800.76
771.883	786.42
772.066	782.32
772.248	722.93
772.431	763.89
772.613	794.61
772.796	722.93
772.978	800.76
773.161	845.81
773.343	761.84
773.526	718.84
773.708	737.27
773.891	753.65
774.073	702.45
774.256	681.97
774.438	733.17
774.621	708.6
774.803	636.92
774.985	694.26
775.168	694.26
775.35	645.11
775.532	720.88
775.715	718.84
775.897	581.62
776.079	655.35
776.261	665.59
776.444	671.73
776.626	583.67
776.808	702.45
776.99	671.73
777.173	733.17
777.355	653.3
777.537	686.07
777.719	604.15
777.901	622.58
778.083	649.21
778.265	522.23
778.447	563.19
778.629	530.42
778.811	591.86
778.993	591.86
779.175	620.53
779.357	548.86
779.539	595.96
779.721	581.62
779.903	598.01
780.085	491.51
780.267	540.66
780.449	591.86
780.631	604.15
780.812	612.34
780.994	548.86
781.176	538.62
781.358	493.56
781.54	561.14
781.721	673.78
781.903	544.76
782.085	514.04
782.267	557.05
782.448	378.87
782.63	507.9
782.812	573.43
782.993	514.04
783.175	499.7
783.357	593.91
783.538	464.89
783.72	509.94
783.901	464.89
784.083	514.04
784.264	454.65
784.446	385.02
784.627	542.71
784.809	446.46
784.99	415.74
785.172	432.12
785.353	524.28
785.535	483.32
785.716	417.79
785.897	419.83
786.079	411.64
786.26	360.44
786.441	442.36
786.623	432.12
786.804	333.82
786.985	374.78
787.167	311.29
787.348	415.74
787.529	378.87
787.71	425.98
787.891	471.03
788.073	419.83
788.254	327.67
788.435	342.01
788.616	423.93
788.797	391.16
788.978	387.07
789.159	473.08
789.34	387.07
789.522	305.15
789.703	374.78
789.884	397.31
790.065	370.68
790.246	382.97
790.427	366.59
790.607	342.01
790.788	368.63
790.969	325.63
791.15	378.87
791.331	323.58
791.512	337.91
791.693	229.37
791.874	401.4
792.054	415.74
792.235	296.96
792.416	366.59
792.597	325.63
792.778	368.63
792.958	354.3
793.139	352.25
793.32	280.57
793.5	249.85
793.681	350.2
793.862	290.81
794.042	356.35
794.223	319.48
794.404	313.34
794.584	415.74
794.765	249.85
794.945	266.24
795.126	344.06
795.306	268.28
795.487	210.94
795.667	327.67
795.848	346.11
796.028	270.33
796.209	247.8
796.389	329.72
796.57	325.63
796.75	272.38
796.93	362.49
797.111	235.52
797.291	456.7
797.471	329.72
797.652	301.05
797.832	317.44
798.012	301.05
798.192	243.71
798.373	210.94
798.553	251.9
798.733	339.96
798.913	231.42
799.093	276.48
799.274	251.9
799.454	288.76
799.634	229.37
799.814	190.46
799.994	268.28
800.174	202.75
800.354	256
800.534	251.9
800.714	235.52
800.894	219.13
801.074	221.18
801.254	202.75
801.434	260.09
801.614	337.91
801.794	278.52
801.974	813.04
802.154	194.56
802.334	251.9
802.514	157.69
802.693	307.2
802.873	225.28
803.053	219.13
803.233	169.98
803.413	219.13
803.592	210.94
803.772	229.37
803.952	235.52
804.131	190.46
804.311	253.95
804.491	180.22
804.67	200.7
804.85	243.71
805.03	153.6
805.209	219.13
805.389	161.79
805.568	231.42
805.748	206.84
805.928	192.51
806.107	260.09
806.287	161.79
806.466	169.98
806.646	260.09
806.825	153.6
807.004	169.98
807.184	249.85
807.363	172.03
807.543	198.65
807.722	231.42
807.901	206.84
808.081	223.23
808.26	147.45
808.439	163.84
808.619	280.57
808.798	112.64
808.977	198.65
809.156	280.57
809.336	122.88
809.515	227.32
809.694	108.54
809.873	198.65
810.052	178.17
810.231	208.89
810.411	247.8
810.59	184.32
810.769	131.07
810.948	212.99
811.127	141.31
811.306	116.73
811.485	188.41
811.664	172.03
811.843	139.26
812.022	217.08
812.201	159.74
812.38	251.9
812.559	141.31
812.737	223.23
812.916	174.08
813.095	247.8
813.274	161.79
813.453	122.88
813.632	202.75
813.811	219.13
813.989	161.79
814.168	182.27
814.347	116.73
814.526	120.83
814.704	190.46
814.883	235.52
815.062	153.6
815.24	165.89
815.419	153.6
815.598	163.84
815.776	153.6
815.955	153.6
816.133	149.5
816.312	227.32
816.49	133.12
816.669	155.65
816.847	153.6
817.026	137.21
817.204	147.45
817.383	147.45
817.561	129.02
817.74	184.32
817.918	176.13
818.097	114.69
818.275	90.11
818.453	73.73
818.632	169.98
818.81	61.44
818.988	161.79
819.167	137.21
819.345	161.79
819.523	151.55
819.701	116.73
819.879	192.51
820.058	188.41
820.236	96.25
820.414	116.73
820.592	169.98
820.77	77.82
820.948	112.64
821.127	157.69
821.305	178.17
821.483	108.54
821.661	237.56
821.839	139.26
822.017	141.31
822.195	57.34
822.373	139.26
822.551	151.55
822.729	129.02
822.907	131.07
823.085	135.17
823.262	112.64
823.44	100.35
823.618	133.12
823.796	102.4
823.974	92.16
824.152	133.12
824.329	157.69
824.507	129.02
824.685	94.21
824.863	83.97
825.04	65.54
825.218	122.88
825.396	206.84
825.574	145.41
825.751	79.87
825.929	163.84
826.107	53.25
826.284	165.89
826.462	131.07
826.639	43.01
826.817	86.01
826.994	67.58
827.172	96.25
827.349	118.78
827.527	116.73
827.704	104.45
827.882	159.74
828.059	122.88
828.237	112.64
828.414	67.58
828.591	-18.43
828.769	147.45
828.946	137.21
829.124	100.35
829.301	137.21
829.478	32.77
829.655	63.49
829.833	139.26
830.01	90.11
830.187	112.64
830.364	98.3
830.542	129.02
830.719	92.16
830.896	145.41
831.073	135.17
831.25	129.02
831.427	137.21
831.604	71.68
831.782	106.49
831.959	69.63
832.136	108.54
832.313	112.64
832.49	133.12
832.667	92.16
832.844	81.92
833.021	120.83
833.198	55.3
833.374	108.54
833.551	145.41
833.728	59.39
833.905	129.02
834.082	157.69
834.259	90.11
834.436	79.87
834.612	106.49
834.789	129.02
834.966	55.3
835.143	26.62
835.319	59.39
835.496	55.3
835.673	30.72
835.85	145.41
836.026	104.45
836.203	141.31
836.38	94.21
836.556	-6.14
836.733	49.15
836.909	73.73
837.086	110.59
837.262	65.54
837.439	104.45
837.616	81.92
837.792	47.1
837.968	124.93
838.145	18.43
838.321	67.58
838.498	106.49
838.674	114.69
838.851	94.21
839.027	75.77
839.203	75.77
839.38	65.54
839.556	110.59
839.732	126.97
839.909	14.34
840.085	145.41
840.261	-26.62
840.437	98.3
840.614	38.91
840.79	63.49
840.966	155.65
841.142	112.64
841.318	61.44
841.494	38.91
841.671	118.78
841.847	88.06
842.023	34.82
842.199	55.3
842.375	131.07
842.551	47.1
842.727	20.48
842.903	79.87
843.079	24.58
843.255	83.97
843.431	47.1
843.607	90.11
843.783	-14.34
843.959	43.01
844.134	22.53
844.31	124.93
844.486	47.1
844.662	14.34
844.838	61.44
845.013	65.54
845.189	32.77
845.365	135.17
845.541	73.73
845.716	55.3
845.892	102.4
846.068	98.3
846.244	90.11
846.419	141.31
846.595	22.53
846.77	83.97
846.946	86.01
847.122	55.3
847.297	61.44
847.473	65.54
847.648	-73.73
847.824	79.87
847.999	8.19
848.175	73.73
848.35	43.01
848.526	129.02
848.701	116.73
848.876	81.92
849.052	114.69
849.227	129.02
849.403	77.82
849.578	49.15
849.753	112.64
849.929	47.1
850.104	81.92
850.279	22.53
850.454	65.54
850.63	49.15
850.805	96.25
850.98	38.91
851.155	88.06
851.33	-4.1
851.505	49.15
851.681	88.06
851.856	81.92
852.031	32.77
852.206	114.69
852.381	43.01
852.556	36.86
852.731	141.31
852.906	61.44
853.081	112.64
853.256	86.01
853.431	57.34
853.606	47.1
853.781	40.96
853.956	-26.62
854.131	65.54
854.305	59.39
854.48	65.54
854.655	14.34
854.83	55.3
855.005	34.82
855.18	63.49
855.354	77.82
855.529	45.06
855.704	-10.24
855.879	65.54
856.053	24.58
856.228	36.86
856.403	-22.53
856.577	4.1
856.752	71.68
856.926	-38.91
857.101	63.49
857.276	-26.62
857.45	12.29
857.625	59.39
857.799	-2.05
857.974	14.34
858.148	51.2
858.323	34.82
858.497	26.62
858.672	0
858.846	10.24
859.02	-6.14
859.195	-8.19
859.369	57.34
859.543	65.54
859.718	-47.1
859.892	-2.05
860.066	59.39
860.241	-22.53
860.415	38.91
860.589	26.62
860.763	-83.97
860.938	-24.58
861.112	139.26
861.286	6.14
861.46	36.86
861.634	34.82
861.808	116.73
861.982	16.38
862.157	57.34
862.331	81.92
862.505	-16.38
862.679	-22.53
862.853	63.49
863.027	75.77
863.201	92.16
863.375	-30.72
863.549	14.34
863.722	88.06
863.896	88.06
864.07	22.53
864.244	32.77
864.418	26.62
864.592	-18.43
864.766	24.58
864.939	94.21
865.113	55.3
865.287	79.87
865.461	55.3
865.634	-34.82
865.808	-24.58
865.982	-57.34
866.156	47.1
866.329	-24.58
866.503	-18.43
866.676	71.68
866.85	-2.05
867.024	30.72
867.197	49.15
867.371	92.16
867.544	26.62
867.718	-2.05
867.891	49.15
868.065	2.05
868.238	43.01
868.412	83.97
868.585	51.2
868.759	-75.77
868.932	55.3
869.105	8.19
869.279	22.53
869.452	-14.34
869.625	55.3
869.799	67.58
869.972	-10.24
870.145	16.38
870.319	38.91
870.492	6.14
870.665	47.1
870.838	40.96
871.011	22.53
871.185	100.35
871.358	-16.38
871.531	43.01
871.704	47.1
871.877	26.62
872.05	34.82
872.223	55.3
872.396	-4.1
872.569	26.62
872.742	32.77
872.915	32.77
873.088	65.54
873.261	18.43
873.434	16.38
873.607	16.38
873.78	63.49
873.953	-28.67
874.126	22.53
874.299	10.24
874.471	-14.34
874.644	-6.14
874.817	28.67
874.99	45.06
875.163	47.1
875.335	83.97
875.508	-40.96
875.681	32.77
875.853	-47.1
876.026	-38.91
876.199	47.1
876.371	18.43
876.544	63.49
876.717	6.14
876.889	12.29
877.062	12.29
877.234	10.24
877.407	57.34
877.579	-32.77
877.752	14.34
877.924	63.49
878.097	10.24
878.269	-12.29
878.442	14.34
878.614	-38.91
878.786	0
878.959	59.39
879.131	57.34
879.303	-34.82
879.476	43.01
879.648	55.3
879.82	83.97
879.993	24.58
880.165	-43.01
880.337	-8.19
880.509	-16.38
880.681	2.05
880.854	-6.14
881.026	4.1
881.198	55.3
881.37	67.58
881.542	14.34
881.714	-47.1
881.886	8.19
882.058	38.91
882.23	-34.82
882.402	18.43
882.574	12.29
882.746	40.96
882.918	47.1
883.09	94.21
883.262	-18.43
883.434	10.24
883.606	-16.38
883.778	71.68
883.95	-14.34
884.122	24.58
884.293	34.82
884.465	-10.24
884.637	96.25
884.809	-32.77
884.98	30.72
885.152	-38.91
885.324	96.25
885.496	-16.38
885.667	-49.15
885.839	26.62
886.011	49.15
886.182	-2.05
886.354	47.1
886.525	57.34
886.697	-8.19
886.869	30.72
887.04	59.39
887.212	30.72
887.383	79.87
887.555	77.82
887.726	-24.58
887.897	-59.39
888.069	47.1
888.24	67.58
888.412	43.01
888.583	8.19
888.754	14.34
888.926	-26.62
889.097	26.62
889.268	-20.48
889.44	22.53
889.611	-55.3
889.782	38.91
889.953	-10.24
890.125	65.54
890.296	-24.58
890.467	38.91
890.638	22.53
890.809	2.05
890.98	24.58
891.151	38.91
891.323	-6.14
891.494	36.86
891.665	65.54
891.836	47.1
892.007	43.01
892.178	24.58
892.349	-90.11
892.52	-2.05
892.691	104.45
892.862	14.34
893.032	-32.77
893.203	8.19
893.374	-26.62
893.545	10.24
893.716	32.77
893.887	22.53
894.057	26.62
894.228	43.01
894.399	0
894.57	75.77
894.74	10.24
894.911	71.68
895.082	-8.19
895.253	77.82
895.423	-18.43
895.594	32.77
895.764	6.14
895.935	36.86
896.106	4.1
896.276	34.82
896.447	112.64
896.617	38.91
896.788	-24.58
896.958	51.2
897.129	43.01
897.299	-55.3
897.47	88.06
897.64	43.01
897.81	71.68
897.981	118.78
898.151	47.1
898.322	79.87
898.492	53.25
898.662	-16.38
898.832	59.39
899.003	24.58
899.173	-24.58
899.343	-26.62
899.513	12.29
