Data from USB4F104151__309__14-24-23-304.txt Node

Date: Thu Mar 13 14:24:23 EDT 2025
User: louis
Spectrometer: USB4F10415
Trigger mode: 4
Integration Time (sec): 2.000000E-2
Scans to average: 1
Electric dark correction enabled: true
Nonlinearity correction enabled: false
Boxcar width: 0
XAxis mode: Wavelengths
Number of Pixels in Spectrum: 3648
>>>>>Begin Spectral Data<<<<<
178.204	-184.32
178.424	-184.32
178.644	-184.32
178.864	-149.5
179.084	-126.97
179.304	28.67
179.524	-43.01
179.744	14.34
179.964	4.1
180.184	-77.82
180.404	32.77
180.624	-47.1
180.844	28.67
181.064	-92.16
181.283	-2.05
181.503	67.58
181.723	86.01
181.943	24.58
182.163	90.11
182.383	28.67
182.602	-45.06
182.822	53.25
183.042	30.72
183.262	-8.19
183.482	28.67
183.701	12.29
183.921	-10.24
184.141	10.24
184.361	14.34
184.58	0
184.8	45.06
185.02	-10.24
185.239	12.29
185.459	-4.1
185.679	100.35
185.898	-28.67
186.118	45.06
186.338	-36.86
186.557	63.49
186.777	30.72
186.997	-8.19
187.216	-55.3
187.436	92.16
187.655	12.29
187.875	32.77
188.095	22.53
188.314	65.54
188.534	-49.15
188.753	-16.38
188.973	38.91
189.192	12.29
189.412	8.19
189.631	-12.29
189.851	14.34
190.07	12.29
190.29	-51.2
190.509	20.48
190.729	-10.24
190.948	12.29
191.168	137.21
191.387	71.68
191.607	47.1
191.826	69.63
192.045	12.29
192.265	14.34
192.484	4.1
192.704	10.24
192.923	-36.86
193.142	38.91
193.362	6.14
193.581	-10.24
193.8	79.87
194.02	24.58
194.239	69.63
194.458	69.63
194.678	-36.86
194.897	-12.29
195.116	-2.05
195.335	45.06
195.555	22.53
195.774	47.1
195.993	20.48
196.212	10.24
196.432	26.62
196.651	24.58
196.87	22.53
197.089	20.48
197.308	71.68
197.528	49.15
197.747	-43.01
197.966	-12.29
198.185	143.36
198.404	30.72
198.623	86.01
198.842	2.05
199.062	-40.96
199.281	38.91
199.5	-47.1
199.719	65.54
199.938	-12.29
200.157	55.3
200.376	-24.58
200.595	14.34
200.814	-18.43
201.033	14.34
201.252	79.87
201.471	-20.48
201.69	8.19
201.909	8.19
202.128	28.67
202.347	36.86
202.566	6.14
202.785	28.67
203.004	36.86
203.223	47.1
203.442	45.06
203.661	22.53
203.879	-18.43
204.098	4.1
204.317	-45.06
204.536	-24.58
204.755	47.1
204.974	61.44
205.193	-14.34
205.411	135.17
205.63	16.38
205.849	20.48
206.068	53.25
206.287	-22.53
206.505	32.77
206.724	-12.29
206.943	4.1
207.162	14.34
207.381	-8.19
207.599	28.67
207.818	14.34
208.037	-12.29
208.255	10.24
208.474	-16.38
208.693	69.63
208.911	-86.01
209.13	4.1
209.349	53.25
209.567	4.1
209.786	12.29
210.005	-26.62
210.223	20.48
210.442	-71.68
210.661	53.25
210.879	14.34
211.098	38.91
211.316	47.1
211.535	65.54
211.753	-12.29
211.972	118.78
212.191	45.06
212.409	63.49
212.628	53.25
212.846	51.2
213.065	36.86
213.283	28.67
213.502	-8.19
213.72	36.86
213.938	12.29
214.157	12.29
214.375	0
214.594	36.86
214.812	12.29
215.031	30.72
215.249	20.48
215.467	20.48
215.686	55.3
215.904	-36.86
216.122	43.01
216.341	40.96
216.559	-67.58
216.778	53.25
216.996	32.77
217.214	63.49
217.432	-40.96
217.651	-4.1
217.869	-77.82
218.087	-18.43
218.306	30.72
218.524	53.25
218.742	0
218.96	28.67
219.179	30.72
219.397	24.58
219.615	53.25
219.833	-26.62
220.051	12.29
220.27	-32.77
220.488	-20.48
220.706	53.25
220.924	-24.58
221.142	12.29
221.36	47.1
221.578	-4.1
221.796	-49.15
222.015	63.49
222.233	-4.1
222.451	102.4
222.669	40.96
222.887	55.3
223.105	-24.58
223.323	-83.97
223.541	-110.59
223.759	63.49
223.977	-53.25
224.195	61.44
224.413	-28.67
224.631	4.1
224.849	20.48
225.067	53.25
225.285	45.06
225.503	-16.38
225.721	45.06
225.939	-8.19
226.157	-36.86
226.375	65.54
226.592	20.48
226.81	77.82
227.028	51.2
227.246	102.4
227.464	-16.38
227.682	45.06
227.9	-53.25
228.117	69.63
228.335	63.49
228.553	-75.77
228.771	51.2
228.989	22.53
229.206	20.48
229.424	79.87
229.642	8.19
229.86	-4.1
230.077	47.1
230.295	-49.15
230.513	55.3
230.731	65.54
230.948	-2.05
231.166	65.54
231.384	34.82
231.601	53.25
231.819	96.25
232.037	-22.53
232.254	-18.43
232.472	79.87
232.689	36.86
232.907	106.49
233.125	-22.53
233.342	6.14
233.56	6.14
233.777	6.14
233.995	-86.01
234.213	45.06
234.43	65.54
234.648	22.53
234.865	32.77
235.083	-8.19
235.3	40.96
235.518	63.49
235.735	53.25
235.953	120.83
236.17	57.34
236.388	4.1
236.605	-20.48
236.822	18.43
237.04	36.86
237.257	16.38
237.475	30.72
237.692	-28.67
237.909	18.43
238.127	-12.29
238.344	61.44
238.562	28.67
238.779	30.72
238.996	-8.19
239.214	-53.25
239.431	65.54
239.648	-43.01
239.865	61.44
240.083	73.73
240.3	12.29
240.517	-26.62
240.735	49.15
240.952	14.34
241.169	20.48
241.386	55.3
241.603	53.25
241.821	-77.82
242.038	92.16
242.255	38.91
242.472	-20.48
242.689	4.1
242.907	20.48
243.124	94.21
243.341	12.29
243.558	-4.1
243.775	-26.62
243.992	26.62
244.209	-12.29
244.426	30.72
244.643	-2.05
244.86	-32.77
245.078	83.97
245.295	24.58
245.512	59.39
245.729	-45.06
245.946	-36.86
246.163	63.49
246.38	20.48
246.597	-16.38
246.814	36.86
247.031	-28.67
247.248	22.53
247.464	53.25
247.681	51.2
247.898	57.34
248.115	77.82
248.332	6.14
248.549	-28.67
248.766	112.64
248.983	159.74
249.2	4.1
249.417	-53.25
249.633	16.38
249.85	-34.82
250.067	-4.1
250.284	69.63
250.501	6.14
250.717	12.29
250.934	4.1
251.151	53.25
251.368	20.48
251.585	20.48
251.801	16.38
252.018	0
252.235	63.49
252.451	36.86
252.668	36.86
252.885	20.48
253.102	57.34
253.318	-18.43
253.535	-69.63
253.752	51.2
253.968	-53.25
254.185	57.34
254.401	20.48
254.618	-10.24
254.835	10.24
255.051	14.34
255.268	61.44
255.484	-36.86
255.701	98.3
255.917	65.54
256.134	-28.67
256.351	57.34
256.567	77.82
256.784	36.86
257	-83.97
257.217	26.62
257.433	38.91
257.65	55.3
257.866	92.16
258.082	-18.43
258.299	30.72
258.515	161.79
258.732	-16.38
258.948	28.67
259.165	-8.19
259.381	28.67
259.597	94.21
259.814	61.44
260.03	28.67
260.246	-10.24
260.463	59.39
260.679	32.77
260.895	2.05
261.112	77.82
261.328	-36.86
261.544	45.06
261.761	16.38
261.977	22.53
262.193	24.58
262.409	38.91
262.626	8.19
262.842	12.29
263.058	45.06
263.274	4.1
263.49	61.44
263.707	104.45
263.923	6.14
264.139	-30.72
264.355	61.44
264.571	4.1
264.787	16.38
265.004	-4.1
265.22	-8.19
265.436	28.67
265.652	20.48
265.868	49.15
266.084	67.58
266.3	36.86
266.516	4.1
266.732	24.58
266.948	43.01
267.164	6.14
267.38	69.63
267.596	-28.67
267.812	24.58
268.028	20.48
268.244	20.48
268.46	61.44
268.676	73.73
268.892	6.14
269.108	69.63
269.324	36.86
269.54	12.29
269.756	-16.38
269.972	6.14
270.188	12.29
270.403	4.1
270.619	30.72
270.835	53.25
271.051	-24.58
271.267	-28.67
271.483	16.38
271.698	114.69
271.914	55.3
272.13	-12.29
272.346	59.39
272.562	49.15
272.777	69.63
272.993	-4.1
273.209	47.1
273.425	69.63
273.64	69.63
273.856	69.63
274.072	45.06
274.287	-18.43
274.503	53.25
274.719	45.06
274.934	6.14
275.15	-53.25
275.366	-34.82
275.581	-40.96
275.797	24.58
276.012	-4.1
276.228	63.49
276.444	4.1
276.659	28.67
276.875	-51.2
277.09	47.1
277.306	-20.48
277.521	73.73
277.737	28.67
277.952	38.91
278.168	6.14
278.383	47.1
278.599	22.53
278.814	63.49
279.03	57.34
279.245	18.43
279.461	-45.06
279.676	75.77
279.892	-8.19
280.107	22.53
280.322	65.54
280.538	110.59
280.753	12.29
280.969	67.58
281.184	53.25
281.399	77.82
281.615	-34.82
281.83	57.34
282.045	-4.1
282.26	43.01
282.476	47.1
282.691	81.92
282.906	38.91
283.122	63.49
283.337	-14.34
283.552	40.96
283.767	40.96
283.983	47.1
284.198	6.14
284.413	96.25
284.628	8.19
284.843	104.45
285.058	77.82
285.274	8.19
285.489	-53.25
285.704	73.73
285.919	4.1
286.134	51.2
286.349	55.3
286.564	4.1
286.779	38.91
286.995	30.72
287.21	-20.48
287.425	36.86
287.64	-65.54
287.855	16.38
288.07	-63.49
288.285	135.17
288.5	79.87
288.715	61.44
288.93	53.25
289.145	51.2
289.36	79.87
289.575	55.3
289.79	49.15
290.004	24.58
290.219	24.58
290.434	-16.38
290.649	-8.19
290.864	-16.38
291.079	-32.77
291.294	-83.97
291.509	47.1
291.724	-36.86
291.938	26.62
292.153	57.34
292.368	-45.06
292.583	8.19
292.798	40.96
293.012	120.83
293.227	-6.14
293.442	6.14
293.657	61.44
293.871	38.91
294.086	22.53
294.301	65.54
294.516	47.1
294.73	30.72
294.945	8.19
295.16	-20.48
295.374	34.82
295.589	-10.24
295.804	38.91
296.018	10.24
296.233	28.67
296.447	36.86
296.662	4.1
296.877	81.92
297.091	90.11
297.306	67.58
297.52	-6.14
297.735	36.86
297.949	22.53
298.164	53.25
298.378	-4.1
298.593	-16.38
298.807	47.1
299.022	6.14
299.236	30.72
299.451	24.58
299.665	30.72
299.88	124.93
300.094	32.77
300.309	110.59
300.523	12.29
300.737	36.86
300.952	22.53
301.166	63.49
301.381	47.1
301.595	28.67
301.809	10.24
302.024	22.53
302.238	-10.24
302.452	20.48
302.667	-20.48
302.881	26.62
303.095	-12.29
303.309	-2.05
303.524	47.1
303.738	14.34
303.952	0
304.166	57.34
304.381	55.3
304.595	65.54
304.809	-2.05
305.023	55.3
305.237	-4.1
305.452	12.29
305.666	8.19
305.88	24.58
306.094	28.67
306.308	55.3
306.522	69.63
306.736	-2.05
306.95	-12.29
307.164	-6.14
307.379	22.53
307.593	83.97
307.807	40.96
308.021	32.77
308.235	47.1
308.449	-106.49
308.663	-8.19
308.877	28.67
309.091	53.25
309.305	49.15
309.519	-18.43
309.733	86.01
309.947	-30.72
310.161	40.96
310.374	71.68
310.588	-30.72
310.802	-6.14
311.016	32.77
311.23	8.19
311.444	4.1
311.658	36.86
311.872	73.73
312.085	57.34
312.299	77.82
312.513	69.63
312.727	20.48
312.941	-24.58
313.154	12.29
313.368	-24.58
313.582	12.29
313.796	6.14
314.009	90.11
314.223	28.67
314.437	-24.58
314.651	-36.86
314.864	36.86
315.078	-22.53
315.292	14.34
315.505	63.49
315.719	38.91
315.933	14.34
316.146	-12.29
316.36	-16.38
316.573	14.34
316.787	61.44
317.001	18.43
317.214	6.14
317.428	106.49
317.641	53.25
317.855	-24.58
318.068	-32.77
318.282	8.19
318.495	-12.29
318.709	47.1
318.922	96.25
319.136	55.3
319.349	-28.67
319.563	63.49
319.776	-28.67
319.99	61.44
320.203	83.97
320.417	28.67
320.63	6.14
320.843	65.54
321.057	57.34
321.27	38.91
321.483	22.53
321.697	-69.63
321.91	57.34
322.124	6.14
322.337	53.25
322.55	81.92
322.763	24.58
322.977	69.63
323.19	18.43
323.403	14.34
323.617	40.96
323.83	73.73
324.043	49.15
324.256	90.11
324.469	49.15
324.683	-34.82
324.896	20.48
325.109	96.25
325.322	28.67
325.535	69.63
325.748	8.19
325.962	63.49
326.175	-73.73
326.388	-28.67
326.601	-10.24
326.814	73.73
327.027	65.54
327.24	104.45
327.453	-2.05
327.666	45.06
327.879	-2.05
328.092	57.34
328.305	-8.19
328.518	-96.25
328.731	-61.44
328.944	16.38
329.157	-4.1
329.37	24.58
329.583	63.49
329.796	98.3
330.009	2.05
330.222	-26.62
330.435	-18.43
330.648	-6.14
330.861	22.53
331.073	73.73
331.286	34.82
331.499	20.48
331.712	57.34
331.925	65.54
332.138	22.53
332.35	59.39
332.563	6.14
332.776	102.4
332.989	75.77
333.202	-2.05
333.414	16.38
333.627	28.67
333.84	-69.63
334.053	16.38
334.265	28.67
334.478	20.48
334.691	36.86
334.903	28.67
335.116	53.25
335.329	-4.1
335.541	51.2
335.754	98.3
335.966	-12.29
336.179	-20.48
336.392	-18.43
336.604	-77.82
336.817	116.73
337.029	4.1
337.242	47.1
337.454	-20.48
337.667	-2.05
337.88	75.77
338.092	49.15
338.305	-49.15
338.517	-2.05
338.729	77.82
338.942	94.21
339.154	38.91
339.367	-67.58
339.579	69.63
339.792	-18.43
340.004	-12.29
340.217	24.58
340.429	47.1
340.641	-24.58
340.854	77.82
341.066	-18.43
341.278	92.16
341.491	137.21
341.703	-10.24
341.915	8.19
342.128	73.73
342.34	28.67
342.552	12.29
342.764	40.96
342.977	28.67
343.189	71.68
343.401	81.92
343.613	-12.29
343.826	-12.29
344.038	26.62
344.25	0
344.462	6.14
344.674	-49.15
344.886	-10.24
345.099	81.92
345.311	32.77
345.523	36.86
345.735	-2.05
345.947	49.15
346.159	14.34
346.371	71.68
346.583	-2.05
346.795	96.25
347.007	30.72
347.219	63.49
347.431	63.49
347.643	81.92
347.855	22.53
348.067	94.21
348.279	0
348.491	-28.67
348.703	36.86
348.915	32.77
349.127	-34.82
349.339	-24.58
349.551	8.19
349.763	-26.62
349.975	8.19
350.187	45.06
350.399	-32.77
350.61	22.53
350.822	-34.82
351.034	32.77
351.246	36.86
351.458	45.06
351.669	49.15
351.881	112.64
352.093	24.58
352.305	14.34
352.517	-2.05
352.728	47.1
352.94	53.25
353.152	-28.67
353.363	-10.24
353.575	40.96
353.787	73.73
353.999	77.82
354.21	86.01
354.422	59.39
354.633	47.1
354.845	55.3
355.057	79.87
355.268	75.77
355.48	47.1
355.692	12.29
355.903	24.58
356.115	0
356.326	30.72
356.538	49.15
356.749	40.96
356.961	-20.48
357.172	30.72
357.384	-20.48
357.595	20.48
357.807	6.14
358.018	6.14
358.23	94.21
358.441	53.25
358.653	90.11
358.864	14.34
359.075	-47.1
359.287	49.15
359.498	24.58
359.709	86.01
359.921	6.14
360.132	45.06
360.344	6.14
360.555	61.44
360.766	-8.19
360.977	47.1
361.189	36.86
361.4	-36.86
361.611	131.07
361.823	24.58
362.034	20.48
362.245	24.58
362.456	12.29
362.667	71.68
362.879	-6.14
363.09	32.77
363.301	-26.62
363.512	14.34
363.723	-14.34
363.935	61.44
364.146	79.87
364.357	-2.05
364.568	34.82
364.779	-69.63
364.99	88.06
365.201	51.2
365.412	4.1
365.623	61.44
365.834	53.25
366.045	-6.14
366.256	63.49
366.467	30.72
366.678	0
366.889	69.63
367.1	12.29
367.311	45.06
367.522	-18.43
367.733	-24.58
367.944	88.06
368.155	-28.67
368.366	6.14
368.577	77.82
368.788	96.25
368.999	20.48
369.209	45.06
369.42	61.44
369.631	180.22
369.842	20.48
370.053	18.43
370.264	6.14
370.474	6.14
370.685	53.25
370.896	49.15
371.107	28.67
371.317	92.16
371.528	-10.24
371.739	24.58
371.95	36.86
372.16	16.38
372.371	-18.43
372.582	4.1
372.792	12.29
373.003	16.38
373.214	-8.19
373.424	79.87
373.635	6.14
373.846	94.21
374.056	26.62
374.267	16.38
374.477	-4.1
374.688	47.1
374.898	-4.1
375.109	30.72
375.319	-12.29
375.53	65.54
375.74	45.06
375.951	20.48
376.161	32.77
376.372	36.86
376.582	16.38
376.793	4.1
377.003	12.29
377.214	16.38
377.424	-12.29
377.635	53.25
377.845	-4.1
378.055	51.2
378.266	-36.86
378.476	32.77
378.686	49.15
378.897	22.53
379.107	40.96
379.317	110.59
379.528	53.25
379.738	40.96
379.948	-4.1
380.158	55.3
380.369	49.15
380.579	131.07
380.789	65.54
380.999	61.44
381.21	61.44
381.42	65.54
381.63	10.24
381.84	59.39
382.05	-8.19
382.261	69.63
382.471	51.2
382.681	45.06
382.891	57.34
383.101	61.44
383.311	65.54
383.521	32.77
383.731	10.24
383.941	104.45
384.151	59.39
384.361	6.14
384.571	47.1
384.781	63.49
384.991	126.97
385.201	86.01
385.411	65.54
385.621	71.68
385.831	53.25
386.041	-38.91
386.251	32.77
386.461	94.21
386.671	-10.24
386.881	16.38
387.091	69.63
387.301	73.73
387.511	0
387.72	102.4
387.93	34.82
388.14	-38.91
388.35	45.06
388.56	79.87
388.769	73.73
388.979	45.06
389.189	28.67
389.399	40.96
389.609	8.19
389.818	139.26
390.028	-2.05
390.238	69.63
390.447	32.77
390.657	77.82
390.867	69.63
391.076	28.67
391.286	20.48
391.496	49.15
391.705	28.67
391.915	14.34
392.125	36.86
392.334	88.06
392.544	90.11
392.753	57.34
392.963	61.44
393.172	12.29
393.382	14.34
393.591	73.73
393.801	8.19
394.01	151.55
394.22	110.59
394.429	30.72
394.639	-4.1
394.848	126.97
395.058	36.86
395.267	49.15
395.477	118.78
395.686	20.48
395.895	159.74
396.105	45.06
396.314	30.72
396.524	147.45
396.733	53.25
396.942	155.65
397.152	157.69
397.361	102.4
397.57	55.3
397.78	108.54
397.989	88.06
398.198	145.41
398.407	96.25
398.617	124.93
398.826	94.21
399.035	49.15
399.244	131.07
399.453	45.06
399.663	118.78
399.872	79.87
400.081	69.63
400.29	86.01
400.499	45.06
400.708	143.36
400.917	63.49
401.127	69.63
401.336	36.86
401.545	155.65
401.754	102.4
401.963	102.4
402.172	86.01
402.381	38.91
402.59	77.82
402.799	65.54
403.008	61.44
403.217	145.41
403.426	43.01
403.635	71.68
403.844	47.1
404.053	137.21
404.262	63.49
404.471	196.61
404.68	110.59
404.888	112.64
405.097	79.87
405.306	159.74
405.515	102.4
405.724	59.39
405.933	159.74
406.142	139.26
406.35	167.93
406.559	157.69
406.768	94.21
406.977	94.21
407.185	194.56
407.394	190.46
407.603	133.12
407.812	161.79
408.02	229.37
408.229	217.08
408.438	129.02
408.646	202.75
408.855	112.64
409.064	178.17
409.272	151.55
409.481	202.75
409.69	245.76
409.898	172.03
410.107	272.38
410.315	253.95
410.524	311.29
410.733	376.83
410.941	307.2
411.15	290.81
411.358	327.67
411.567	294.91
411.775	323.58
411.984	405.5
412.192	319.48
412.401	421.88
412.609	323.58
412.818	403.45
413.026	393.21
413.234	352.25
413.443	454.65
413.651	419.83
413.86	325.63
414.068	456.7
414.276	475.13
414.485	550.9
414.693	477.18
414.901	511.99
415.11	561.14
415.318	561.14
415.526	571.38
415.734	563.19
415.943	565.24
416.151	643.06
416.359	634.87
416.567	628.73
416.776	692.21
416.984	708.6
417.192	815.09
417.4	716.79
417.608	667.64
417.817	792.56
418.025	786.42
418.233	954.35
418.441	864.24
418.649	917.49
418.857	899.06
419.065	1007.6
419.273	1042.42
419.481	1005.55
419.689	1120.24
419.897	1085.42
420.105	1138.67
420.313	1179.63
420.521	1257.45
420.729	1265.64
420.937	1259.5
421.145	1265.64
421.353	1298.41
421.561	1396.71
421.769	1406.95
421.977	1519.59
422.185	1519.59
422.393	1605.61
422.601	1751.01
422.809	1662.95
423.017	1705.96
423.224	1769.44
423.432	1882.08
423.64	1826.79
423.848	2062.3
424.056	1933.28
424.263	2142.18
424.471	2185.18
424.679	2166.75
424.887	2232.29
425.094	2377.69
425.302	2342.88
425.51	2508.76
425.718	2635.74
425.925	2502.62
426.133	2650.07
426.341	2920.4
426.548	2830.29
426.756	2840.53
426.964	3008.47
427.171	3112.91
427.379	3250.13
427.586	3252.17
427.794	3338.19
428.001	3549.13
428.209	3669.96
428.417	3569.61
428.624	3887.04
428.832	3829.7
429.039	3848.13
429.247	3848.13
429.454	4173.76
429.662	4483
429.869	4216.77
430.076	4511.68
430.284	4394.94
430.491	4476.86
430.699	4894.65
430.906	4835.25
431.114	4949.94
431.321	5152.69
431.528	5191.6
431.736	5427.12
431.943	5787.56
432.15	5517.23
432.358	5705.64
432.565	5906.34
432.772	5861.29
432.979	6336.42
433.187	6201.25
433.394	6387.61
433.601	6723.48
433.808	6762.39
434.016	6623.13
434.223	7196.56
434.43	7323.54
434.637	7341.97
434.844	7813
435.052	7862.15
435.259	7827.34
435.466	7858.06
435.673	7710.6
435.88	8222.59
436.087	8757.11
436.294	8624
436.501	8734.59
436.708	8853.37
436.915	9101.17
437.122	9400.18
437.329	9504.62
437.537	9920.36
437.743	9998.18
437.95	9869.16
438.157	10231.65
438.364	10463.07
438.571	10719.07
438.778	10639.2
438.985	11634.51
439.192	11118.42
439.399	11691.85
439.606	11347.79
439.813	11947.85
440.02	12689.21
440.227	12377.92
440.433	12255.05
440.64	12734.27
440.847	12662.59
441.054	12945.21
441.261	13848.36
441.467	13444.91
441.674	13733.68
441.881	14319.4
442.088	14389.03
442.294	14190.38
442.501	14419.75
442.708	14952.22
442.914	15697.68
443.121	15974.16
443.328	16074.51
443.534	16635.65
443.741	16330.5
443.948	16193.29
444.154	17368.82
444.361	17207.03
444.568	17258.23
444.774	17114.87
444.981	17366.78
445.187	17905.39
445.394	18829.02
445.6	18394.86
445.807	20145.87
446.013	19332.82
446.22	19551.96
446.426	20215.5
446.633	20741.83
446.839	21270.2
447.046	20184.78
447.252	21599.93
447.459	21735.09
447.665	21620.41
447.871	22460.07
448.078	23393.95
448.284	22326.96
448.491	22982.31
448.697	23899.8
448.903	24260.24
449.11	24329.87
449.316	23719.57
449.522	24188.56
449.728	25112.19
449.935	25081.47
450.141	25104
450.347	25712.25
450.553	24624.78
450.76	25239.17
450.966	26013.3
451.172	25814.65
451.378	26687.08
451.584	25974.39
451.791	26793.58
451.997	26730.09
452.203	26922.6
452.409	27205.22
452.615	27057.76
452.821	25636.47
453.027	25628.28
453.233	26955.36
453.44	25945.72
453.646	26293.87
453.852	26572.39
454.058	26619.5
454.264	26066.55
454.47	26539.63
454.676	25867.89
454.882	27139.68
455.088	24643.21
455.294	24927.88
455.5	25443.96
455.705	25646.71
455.911	24974.98
456.117	24004.24
456.323	23977.62
456.529	22630.05
456.735	23781.01
456.941	22992.55
457.147	22740.64
457.352	21943.99
457.558	21716.66
457.764	21884.59
457.97	21278.4
458.176	21053.12
458.381	20907.71
458.587	20045.52
458.793	20076.24
458.999	18673.38
459.204	20491.98
459.41	19975.89
459.616	18319.08
459.821	18652.9
460.027	18431.72
460.233	17948.4
460.438	16895.74
460.644	17329.91
460.85	16654.08
461.055	16166.67
461.261	16234.25
461.466	15165.21
461.672	14552.87
461.878	15556.37
462.083	14683.94
462.289	14329.64
462.494	14225.19
462.7	13705.01
462.905	13485.87
463.111	13631.28
463.316	13713.2
463.522	13500.21
463.727	13307.7
463.932	13535.03
464.138	13258.55
464.343	13479.73
464.549	12816.19
464.754	13350.71
464.959	13328.18
465.165	13012.79
465.37	12580.67
465.575	12236.61
465.781	12529.47
465.986	12824.38
466.191	12300.1
466.397	12076.87
466.602	11626.32
466.807	12005.19
467.012	11927.37
467.218	11910.99
467.423	11444.05
467.628	11933.51
467.833	12169.03
468.038	11736.91
468.244	11409.23
468.449	11962.19
468.654	11810.64
468.859	11542.35
469.064	11497.3
469.269	10887
469.474	11056.98
469.679	11427.67
469.885	10936.15
470.09	11310.93
470.295	11081.56
470.5	10794.84
470.705	10837.85
470.91	10628.96
471.115	10430.3
471.32	10792.8
471.525	10624.86
471.73	10534.75
471.935	10362.72
472.139	10123.11
472.344	9981.8
472.549	10082.15
472.754	10000.23
472.959	9594.73
473.164	9555.82
473.369	9510.77
473.574	9707.37
473.778	9535.34
473.983	9678.7
474.188	9531.25
474.393	9129.84
474.598	9238.39
474.802	8982.39
475.007	8951.67
475.212	9101.17
475.417	8828.79
475.621	8771.45
475.826	8836.99
476.031	8535.93
476.235	8247.17
476.44	8660.86
476.645	8480.64
476.849	8394.62
477.054	8337.28
477.259	8085.38
477.463	8023.94
477.668	8083.33
477.872	8140.68
478.077	7839.62
478.282	7772.04
478.486	7765.9
478.691	7651.21
478.895	7589.77
479.1	7647.12
479.304	7503.76
479.509	7225.23
479.713	7550.86
479.918	7364.5
480.122	7061.4
480.326	7376.78
480.531	7311.25
480.735	7159.7
480.94	7131.03
481.144	7239.57
481.348	6934.42
481.553	7114.64
481.757	7077.78
481.961	7067.54
482.166	6977.43
482.37	7034.77
482.574	6967.19
482.778	7045.01
482.983	7024.53
483.187	6938.52
483.391	7002.01
483.595	6795.16
483.8	6801.3
484.004	7059.35
484.208	7116.69
484.412	6959
484.616	6789.02
484.821	6932.37
485.025	6864.79
485.229	6979.48
485.433	6821.78
485.637	7034.77
485.841	6819.74
486.045	6944.66
486.249	7055.25
486.453	6721.43
486.657	6932.37
486.861	6895.51
487.065	6674.33
487.269	6737.82
487.473	6659.99
487.677	7012.24
487.881	6965.14
488.085	6928.28
488.289	7067.54
488.493	7079.83
488.697	7081.88
488.901	6864.79
489.105	7004.05
489.309	6997.91
489.512	7061.4
489.716	7264.15
489.92	6979.48
490.124	7069.59
490.328	7204.75
490.531	6995.86
490.735	7174.03
490.939	7079.83
491.143	7141.27
491.346	7171.99
491.55	7372.69
491.754	7137.17
491.958	7399.31
492.161	7139.22
492.365	7204.75
492.569	7264.15
492.772	7403.41
492.976	7317.39
493.18	7499.66
493.383	7503.76
493.587	7427.98
493.79	7563.15
493.994	7505.81
494.197	7634.83
494.401	7745.42
494.605	7587.72
494.808	7806.86
495.012	7778.19
495.215	7995.27
495.419	7999.37
495.622	8009.61
495.825	7847.82
496.029	7970.69
496.232	7937.93
496.436	8300.42
496.639	8245.12
496.843	8384.38
497.046	8437.63
497.249	8351.62
497.453	8437.63
497.656	8566.65
497.859	8597.37
498.063	8896.38
498.266	9013.11
498.469	8920.95
498.673	8947.58
498.876	9320.31
499.079	9308.02
499.282	9164.66
499.485	9516.91
499.689	9467.76
499.892	9602.93
500.095	9801.58
500.298	9940.84
500.501	9748.33
500.705	10323.81
500.908	10309.47
501.111	10254.18
501.314	10407.78
501.517	10372.96
501.72	10686.3
501.923	10751.84
502.126	11001.69
502.329	10776.41
502.532	11177.81
502.735	10973.02
502.938	11343.7
503.141	11351.89
503.344	11425.62
503.547	11566.93
503.75	11820.88
503.953	11841.36
504.156	12031.82
504.359	12185.41
504.562	12203.85
504.765	12427.07
504.968	12654.4
505.17	12627.78
505.373	12799.8
505.576	12887.87
505.779	12947.26
505.982	13008.7
506.185	13186.87
506.387	13496.11
506.59	13481.78
506.793	13950.76
506.996	13807.41
507.198	13971.24
507.401	13967.15
507.604	14026.54
507.807	14700.32
508.009	14577.44
508.212	14898.97
508.415	14868.25
508.617	15005.47
508.82	15089.43
509.022	15124.25
509.225	15605.52
509.428	15712.02
509.63	15701.78
509.833	15781.65
510.035	16125.71
510.238	16137.99
510.44	16236.3
510.643	16457.48
510.845	16785.15
511.048	16465.67
511.25	16713.47
511.453	16850.69
511.655	17403.64
511.858	17481.46
512.06	17485.56
512.262	17669.87
512.465	17422.07
512.667	18075.37
512.87	18202.35
513.072	18302.7
513.274	18515.69
513.477	18884.32
513.679	18693.86
513.881	18898.66
514.084	19326.68
514.286	19062.49
514.488	19306.2
514.69	19793.62
514.893	20022.99
515.095	19959.5
515.297	20045.52
515.499	20344.52
515.701	20518.6
515.904	20891.33
516.106	21063.36
516.308	20917.95
516.51	21159.61
516.712	21204.67
516.914	21632.69
517.116	21984.94
517.318	21855.92
517.52	22367.91
517.722	22238.89
517.925	22464.17
518.127	22879.91
518.329	23185.05
518.531	22609.57
518.733	23522.97
518.935	23486.11
519.136	23412.38
519.338	24118.93
519.54	23881.36
519.742	24270.48
519.944	24282.77
520.146	24843.91
520.348	24753.8
520.55	24684.17
520.752	24727.17
520.954	25509.5
521.155	25343.61
521.357	25788.02
521.559	25841.27
521.761	26113.65
521.963	26209.9
522.164	26197.62
522.366	26304.11
522.568	26889.83
522.77	26820.2
522.971	27205.22
523.173	27061.86
523.375	27342.43
523.576	27237.98
523.778	27205.22
523.98	27657.82
524.181	27848.28
524.383	27633.24
524.584	28278.35
524.786	28163.67
524.988	28208.72
525.189	28606.03
525.391	28638.79
525.592	29173.31
525.794	29013.57
525.995	29077.06
526.197	29148.74
526.398	29167.17
526.6	29662.78
526.801	29507.13
527.003	29675.07
527.204	29597.24
527.406	29890.1
527.607	29779.51
527.808	29988.41
528.01	29505.09
528.211	30115.38
528.412	30647.85
528.614	30658.09
528.815	30363.18
529.016	30383.66
529.218	30668.33
529.419	30584.37
529.62	30277.17
529.822	31041.06
530.023	30821.93
530.224	31010.34
530.425	30922.28
530.626	30856.75
530.828	30594.61
531.029	31319.59
531.23	31032.87
531.431	30942.76
531.632	31041.06
531.833	31407.65
532.035	31315.49
532.236	31495.71
532.437	31544.86
532.638	31182.37
532.839	31657.5
533.04	31720.99
533.241	31321.63
533.442	31798.81
533.643	31698.46
533.844	31325.73
534.045	31847.96
534.246	31264.29
534.447	31606.3
534.648	31368.74
534.849	31587.87
535.05	31061.54
535.251	31598.11
535.451	31077.93
535.652	31784.47
535.853	31170.08
536.054	31960.6
536.255	31651.36
536.456	31366.69
536.657	32085.53
536.857	31512.1
537.058	31260.19
537.259	31718.94
537.46	31680.03
537.66	31444.51
537.861	31645.21
538.062	31340.07
538.263	31565.34
538.463	31530.53
538.664	31438.37
538.865	31460.9
539.065	31514.14
539.266	31217.19
539.466	31606.3
539.667	31196.71
539.868	31671.84
540.068	31766.04
540.269	31464.99
540.469	31620.64
540.67	31323.68
540.87	31561.25
541.071	31305.25
541.271	31194.66
541.472	31628.83
541.672	31403.55
541.873	31440.42
542.073	31034.92
542.274	31737.37
542.474	31399.46
542.675	31071.78
542.875	31432.22
543.075	31452.7
543.276	31225.38
543.476	31483.42
543.676	31116.84
543.877	31383.07
544.077	31311.39
544.277	31034.92
544.478	31243.81
544.678	31571.49
544.878	31030.82
545.078	31356.45
545.279	31141.41
545.479	31239.72
545.679	31071.78
545.879	30950.95
546.079	31065.64
546.28	31229.48
546.48	30924.33
546.68	31094.31
546.88	31176.23
547.08	31161.89
547.28	30862.89
547.48	31088.17
547.68	31202.85
547.88	30883.37
548.081	30934.57
548.281	31018.53
548.481	31012.39
548.681	31307.3
548.881	30975.53
549.081	31100.45
549.28	30891.56
549.48	30963.24
549.68	31047.21
549.88	30959.14
550.08	30529.07
550.28	31245.86
550.48	30690.86
550.68	31364.64
550.88	30658.09
551.08	31180.32
551.279	30838.31
551.479	30828.07
551.679	30766.63
551.879	30635.56
552.079	31010.34
552.278	30615.08
552.478	30752.3
552.678	30942.76
552.878	31180.32
553.077	30572.08
553.277	30545.45
553.477	31272.48
553.676	30832.17
553.876	30813.74
554.076	30539.31
554.275	30821.93
554.475	30602.8
554.674	30819.88
554.874	31157.8
555.074	30635.56
555.273	30619.18
555.473	30514.73
555.672	30459.44
555.872	30660.14
556.071	30590.51
556.271	30721.58
556.47	30268.98
556.67	30430.77
556.869	30551.6
557.068	30565.93
557.268	30385.71
557.467	30303.79
557.667	30168.63
557.866	30123.57
558.065	30150.2
558.265	30015.03
558.464	30373.42
558.663	30142
558.863	29914.68
559.062	30484.01
559.261	29771.32
559.461	30361.14
559.66	29498.94
559.859	29892.15
560.058	29640.25
560.258	29611.58
560.457	29910.58
560.656	29955.64
560.855	29566.52
561.054	30162.48
561.253	29433.41
561.453	29589.05
561.652	29660.73
561.851	29670.97
562.05	29378.11
562.249	29376.06
562.448	29621.82
562.647	29410.88
562.846	29173.31
563.045	29644.35
563.244	29253.19
563.443	29374.02
563.642	28771.91
563.841	29056.58
564.04	28872.26
564.239	29279.81
564.438	28919.37
564.637	28771.91
564.836	29165.12
565.035	28765.77
565.234	28935.75
565.432	28763.72
565.631	28939.85
565.83	28632.65
566.029	28696.14
566.228	28595.79
566.427	28253.78
566.625	28225.11
566.824	27958.87
567.023	28259.92
567.222	28104.28
567.42	28153.43
567.619	28264.02
567.818	28155.47
568.016	27811.42
568.215	28208.72
568.414	27922.01
568.612	28081.75
568.811	27713.11
569.01	27797.08
569.208	27207.26
569.407	27590.24
569.605	27356.77
569.804	27919.96
570.002	27502.17
570.201	27391.58
570.4	27493.98
570.598	27465.31
570.797	26820.2
570.995	27041.38
571.193	26891.88
571.392	27131.49
571.59	27170.4
571.789	26797.67
571.987	26914.41
572.186	27090.53
572.384	26637.93
572.582	26965.6
572.781	26572.39
572.979	26214
573.177	26594.92
573.376	26394.22
573.574	26273.39
573.772	26523.24
573.971	26283.63
574.169	26144.37
574.367	26209.9
574.565	26398.32
574.763	26101.36
574.962	25931.38
575.16	25890.42
575.358	25898.61
575.556	25732.73
575.754	25863.8
575.952	25319.04
576.151	25781.88
576.349	25190.02
576.547	25589.37
576.745	25661.05
576.943	25345.66
577.141	25228.93
577.339	25130.62
577.537	25153.15
577.735	25144.96
577.933	25110.14
578.131	25284.22
578.329	24893.06
578.527	24555.15
578.725	25056.9
578.923	24837.76
579.121	24819.33
579.319	24505.99
579.516	25042.56
579.714	24473.23
579.912	24514.19
580.11	24608.39
580.308	24555.15
580.506	24600.2
580.704	24045.2
580.901	24387.21
581.099	24313.49
581.297	23864.98
581.495	24071.82
581.692	23852.69
581.89	23721.62
582.088	23572.12
582.285	23643.8
582.483	23725.72
582.681	23633.56
582.878	23520.92
583.076	23207.58
583.274	23391.9
583.471	23434.91
583.669	23426.71
583.866	23189.15
584.064	23463.58
584.262	22902.43
584.459	23576.22
584.657	22918.82
584.854	23320.22
585.052	22822.56
585.249	22965.92
585.447	22933.15
585.644	22640.29
585.841	22775.46
586.039	22642.34
586.236	22744.74
586.434	22439.59
586.631	22507.18
586.828	22529.7
587.026	22412.97
587.223	22232.75
587.42	22064.82
587.618	22386.35
587.815	22191.79
588.012	22156.97
588.21	21794.48
588.407	21771.96
588.604	21900.98
588.801	21438.14
588.999	21581.49
589.196	21536.44
589.393	21655.22
589.59	21634.74
589.787	21354.17
589.984	21362.36
590.182	21092.03
590.379	21393.08
590.576	21210.81
590.773	21194.43
590.97	21122.75
591.167	21137.09
591.364	20809.41
591.561	21145.28
591.758	20836.03
591.955	20717.25
592.152	20627.14
592.349	20707.01
592.546	20707.01
592.743	20838.08
592.94	20068.05
593.137	20758.21
593.334	20758.21
593.531	20133.58
593.727	20289.23
593.924	20180.68
594.121	20330.19
594.318	20111.05
594.515	20076.24
594.712	20227.79
594.908	19988.17
595.105	20217.55
595.302	19664.6
595.499	19949.26
595.696	19705.56
595.892	19877.58
596.089	19715.8
596.286	19701.46
596.482	19650.26
596.679	19541.72
596.876	19586.77
597.072	19343.06
597.269	19355.35
597.466	19338.97
597.662	19134.17
597.859	19097.31
598.055	19271.39
598.252	18861.79
598.448	18886.37
598.645	18980.57
598.841	18724.58
599.038	18771.68
599.234	18912.99
599.431	18927.33
599.627	18650.85
599.824	18675.43
600.02	18665.19
600.217	18693.86
600.413	18454.25
600.609	18476.77
600.806	18253.55
601.002	18439.91
601.198	18116.33
601.395	18155.24
601.591	18171.63
601.787	18054.89
601.984	18061.04
602.18	18255.59
602.376	17891.06
602.572	17987.31
602.769	18104.04
602.965	17606.39
603.161	17604.34
603.357	17696.5
603.553	17741.55
603.75	17575.67
603.946	17268.47
604.142	17698.55
604.338	17297.14
604.534	17628.92
604.73	17321.72
604.926	16971.52
605.122	17258.23
605.318	17247.99
605.514	17223.42
605.71	16948.99
605.906	16971.52
606.102	17004.28
606.298	17139.45
606.494	16920.32
606.69	16895.74
606.886	16903.93
607.082	16887.55
607.278	16664.32
607.474	16494.34
607.67	16785.15
607.866	16633.6
608.062	16750.34
608.257	16424.71
608.453	16475.91
608.649	16514.82
608.845	16486.15
609.041	16271.11
609.236	16531.2
609.432	16230.15
609.628	16221.96
609.824	16213.77
610.019	16041.74
610.215	16277.26
610.411	16197.38
610.606	15922.96
610.802	16152.33
610.998	16140.04
611.193	16002.83
611.389	15826.7
611.584	15980.3
611.78	15959.82
611.976	16090.89
612.171	16045.84
612.367	16045.84
612.562	15875.85
612.758	15496.98
612.953	15683.34
613.149	15736.59
613.344	15623.95
613.539	15892.24
613.735	15642.39
613.93	15527.7
614.126	15464.21
614.321	15650.58
614.517	15570.71
614.712	15699.73
614.907	15501.08
615.103	15478.55
615.298	15441.68
615.493	15730.45
615.688	15243.03
615.884	15619.86
616.079	15539.99
616.274	15363.86
616.47	15286.04
616.665	15253.27
616.86	15191.83
617.055	14946.08
617.25	15005.47
617.445	15249.18
617.641	14737.18
617.836	15027.99
618.031	14739.23
618.226	14765.85
618.421	14786.33
618.616	15134.49
618.811	14710.56
619.006	14972.7
619.201	14483.23
619.396	14796.57
619.591	14507.81
619.786	14524.19
619.981	14266.15
620.176	14645.02
620.371	14335.78
620.566	14358.31
620.761	14186.28
620.956	14372.64
621.151	13967.15
621.346	14120.74
621.541	13719.34
621.735	14096.17
621.93	13641.52
622.125	13758.25
622.32	13672.24
622.515	13733.68
622.709	13811.5
622.904	13606.7
623.099	13299.51
623.294	13598.51
623.488	13305.65
623.683	13238.07
623.878	12969.79
624.072	13018.94
624.267	13127.48
624.462	12930.87
624.656	12799.8
624.851	13086.52
625.046	12752.7
625.24	12898.11
625.435	12631.87
625.629	12795.71
625.824	12377.92
626.018	12414.79
626.213	12253
626.407	12384.07
626.602	12382.02
626.796	12212.04
626.991	12154.69
627.185	12152.65
627.38	11804.49
627.574	12119.88
627.768	11769.68
627.963	11913.03
628.157	11683.66
628.352	11788.11
628.546	11630.41
628.74	11677.52
628.935	11478.86
629.129	11442
629.323	11458.39
629.517	11308.88
629.712	11235.16
629.906	11276.12
630.1	10970.97
630.294	11157.33
630.489	10954.58
630.683	11067.22
630.877	11038.55
631.071	10843.99
631.265	11026.26
631.459	10747.74
631.653	10817.37
631.848	10649.44
632.042	10420.06
632.236	10501.98
632.43	10475.36
632.624	10471.26
632.818	10442.59
633.012	10334.05
633.206	10356.58
633.4	10375.01
633.594	10213.22
633.788	10286.95
633.982	10194.79
634.176	10008.42
634.369	9942.89
634.563	10006.38
634.757	9777
634.951	9744.24
635.145	9854.83
635.339	9828.2
635.533	9639.79
635.726	9707.37
635.92	9594.73
636.114	9576.3
636.308	9328.5
636.501	9308.02
636.695	9387.89
636.889	9375.6
637.083	9197.43
637.276	8970.1
637.47	9209.72
637.664	9064.31
637.857	9146.23
638.051	9207.67
638.244	8970.1
638.438	8974.2
638.632	9068.41
638.825	8873.85
639.019	8990.58
639.212	8738.68
639.406	8775.55
639.599	8628.09
639.793	8742.78
639.986	8398.72
640.18	8615.8
640.373	8638.33
640.567	8404.86
640.76	8472.45
640.954	8343.42
641.147	8335.23
641.34	8183.68
641.534	8288.13
641.727	8181.64
641.92	8179.59
642.114	8042.37
642.307	8077.19
642.5	7966.6
642.694	7866.25
642.887	8044.42
643.08	7905.16
643.273	7761.8
643.467	7995.27
643.66	7663.5
643.853	7823.24
644.046	7706.51
644.239	7622.54
644.432	7501.71
644.626	7679.88
644.819	7499.66
645.012	7663.5
645.205	7536.52
645.398	7247.76
645.591	7397.26
645.784	7409.55
645.977	7409.55
646.17	7214.99
646.363	7278.48
646.556	7079.83
646.749	7100.31
646.942	7040.92
647.135	7098.26
647.328	7065.49
647.521	6893.46
647.714	6840.22
647.907	6907.8
648.099	6911.89
648.292	6999.96
648.485	6813.59
648.678	6672.28
648.871	6928.28
649.064	6655.9
649.256	6647.71
649.449	6664.09
649.642	6600.6
649.835	6463.39
650.027	6719.39
650.22	6596.51
650.413	6418.33
650.605	6533.02
650.798	6453.15
650.991	6303.65
651.183	6379.42
651.376	6385.57
651.568	6254.5
651.761	6277.02
651.954	6234.02
652.146	6156.19
652.339	6041.51
652.531	6197.15
652.724	6041.51
652.916	5889.96
653.109	6074.28
653.301	5969.83
653.494	6150.05
653.686	5885.86
653.879	6078.37
654.071	5943.21
654.263	5922.73
654.456	5793.7
654.648	5779.37
654.84	5713.83
655.033	5627.82
655.225	5648.3
655.417	5697.45
655.61	5672.87
655.802	5681.07
655.994	5586.86
656.186	5842.85
656.379	5406.64
656.571	5560.24
656.763	5431.21
656.955	5238.7
657.148	5339.05
657.34	5482.41
657.532	5328.81
657.724	5308.34
657.916	5343.15
658.108	5373.87
658.3	5109.68
658.492	5154.74
658.684	5181.36
658.876	5308.34
659.068	5263.28
659.26	5005.24
659.452	5216.18
659.644	5017.52
659.836	5150.64
660.028	5031.86
660.22	4894.65
660.412	5144.5
660.604	4960.18
660.796	4976.56
660.988	4898.74
661.18	4800.44
661.372	5025.72
661.563	4861.88
661.755	4820.92
661.947	4816.82
662.139	4683.7
662.331	4861.88
662.522	4485.05
662.714	4771.77
662.906	4722.62
663.097	4616.12
663.289	4644.79
663.481	4493.24
663.673	4562.87
663.864	4468.67
664.056	4517.82
664.247	4476.86
664.439	4419.52
664.631	4573.11
664.822	4485.05
665.014	4470.72
665.205	4421.56
665.397	4255.68
665.588	4321.21
665.78	4308.93
665.971	4388.8
666.163	4345.79
666.354	4124.61
666.546	4251.58
666.737	4184
666.929	4052.93
667.12	4190.14
667.311	4116.42
667.503	4132.8
667.694	4282.3
667.885	4128.7
668.077	4155.33
668.268	4087.75
668.459	3958.72
668.651	4018.11
668.842	4046.79
669.033	3936.2
669.224	3956.68
669.416	4052.93
669.607	3940.29
669.798	3930.05
669.989	3985.35
670.18	3829.7
670.371	3889.09
670.563	3805.13
670.754	3903.43
670.945	3841.99
671.136	3839.94
671.327	3758.02
671.518	3739.59
671.709	3798.98
671.9	3792.84
672.091	3833.8
672.282	3735.49
672.473	3770.31
672.664	3700.68
672.855	3659.72
673.046	3674.06
673.237	3770.31
673.428	3708.87
673.619	3809.22
673.809	3616.71
674	3594.19
674.191	3694.54
674.382	3561.42
674.573	3801.03
674.764	3538.89
674.954	3567.56
675.145	3510.22
675.336	3553.23
675.527	3526.6
675.717	3606.47
675.908	3520.46
676.099	3373
676.289	3424.2
676.48	3485.64
676.671	3461.07
676.861	3581.9
677.052	3520.46
677.243	3176.4
677.433	3338.19
677.624	3381.2
677.814	3338.19
678.005	3434.44
678.195	3387.34
678.386	3403.72
678.576	3291.09
678.767	3452.88
678.957	3389.39
679.148	3493.83
679.338	3348.43
679.529	3321.81
679.719	3280.85
679.909	3432.4
680.1	3317.71
680.29	3373
680.481	3330
680.671	3370.96
680.861	3225.55
681.052	3352.52
681.242	3346.38
681.432	3274.7
681.622	3258.32
681.813	3262.41
682.003	3254.22
682.193	3139.54
682.383	3395.53
682.573	3200.98
682.764	3258.32
682.954	3215.31
683.144	3239.89
683.334	3282.89
683.524	3164.11
683.714	3307.47
683.904	3211.22
684.094	3108.82
684.284	3200.98
684.474	3243.98
684.664	3264.46
684.854	3252.17
685.044	3102.67
685.234	3119.06
685.424	3207.12
685.614	3000.27
685.804	3141.58
685.994	3117.01
686.184	3166.16
686.374	2983.89
686.564	3176.4
686.753	3117.01
686.943	2965.46
687.133	2971.6
687.323	2977.75
687.513	3059.67
687.702	3078.1
687.892	3033.04
688.082	2947.03
688.272	2928.6
688.461	2897.88
688.651	2990.03
688.841	2789.33
689.03	2904.02
689.22	2881.49
689.41	2920.4
689.599	2944.98
689.789	2922.45
689.979	2742.23
690.168	2805.72
690.358	2854.87
690.547	2793.43
690.737	2848.72
690.926	2789.33
691.116	2674.65
691.305	2850.77
691.495	2758.61
691.684	2709.46
691.874	2756.57
692.063	2670.55
692.252	2607.06
692.442	2707.41
692.631	2617.3
692.82	2725.85
693.01	2674.65
693.199	2543.58
693.388	2674.65
693.578	2594.78
693.767	2535.39
693.956	2566.1
694.146	2607.06
694.335	2527.19
694.524	2463.71
694.713	2557.91
694.902	2633.69
695.092	2555.86
695.281	2500.57
695.47	2516.95
695.659	2506.71
695.848	2461.66
696.037	2539.48
696.226	2451.42
696.415	2422.75
696.604	2453.47
696.793	2461.66
696.982	2449.37
697.171	2480.09
697.36	2408.41
697.549	2547.67
697.738	2420.7
697.927	2461.66
698.116	2439.13
698.305	2482.14
698.494	2396.12
698.683	2424.8
698.872	2465.75
699.061	2392.03
699.25	2478.04
699.438	2389.98
699.627	2277.34
699.816	2435.03
700.005	2428.89
700.193	2209.76
700.382	2392.03
700.571	2330.59
700.76	2461.66
700.948	2355.16
701.137	2349.02
701.326	2420.7
701.514	2322.4
701.703	2297.82
701.892	2297.82
702.08	2422.75
702.269	2306.01
702.457	2289.63
702.646	2322.4
702.834	2265.05
703.023	2318.3
703.212	2297.82
703.4	2297.82
703.589	2297.82
703.777	2338.78
703.965	2168.8
704.154	2355.16
704.342	2232.29
704.531	2316.25
704.719	2215.9
704.907	2406.36
705.096	2269.15
705.284	2220
705.472	2283.49
705.661	2291.68
705.849	2273.25
706.037	2256.86
706.226	2254.81
706.414	2340.83
706.602	2244.57
706.79	2269.15
706.979	2355.16
707.167	2160.61
707.355	2248.67
707.543	2230.24
707.731	2308.06
707.919	2240.48
708.107	2287.58
708.296	2166.75
708.484	2201.57
708.672	2224.09
708.86	2267.1
709.048	2230.24
709.236	2230.24
709.424	2349.02
709.612	2256.86
709.8	2228.19
709.988	2238.43
710.176	2291.68
710.364	2133.98
710.551	2295.77
710.739	2269.15
710.927	2240.48
711.115	2389.98
711.303	2338.78
711.491	2217.95
711.679	2310.11
711.866	2201.57
712.054	2234.33
712.242	2269.15
712.43	2179.04
712.617	2136.03
712.805	2203.61
712.993	2289.63
713.181	2062.3
713.368	2301.92
713.556	2203.61
713.744	2195.42
713.931	2185.18
714.119	2109.41
714.306	2183.13
714.494	2183.13
714.682	2166.75
714.869	2170.85
715.057	2236.38
715.244	2136.03
715.432	2242.53
715.619	2213.85
715.807	2252.77
715.994	2150.37
716.182	2265.05
716.369	2187.23
716.556	2314.2
716.744	2068.45
716.931	2142.18
717.119	2189.28
717.306	2170.85
717.493	2244.57
717.681	2158.56
717.868	2117.6
718.055	2090.98
718.242	2136.03
718.43	2199.52
718.617	2121.7
718.804	2232.29
718.991	2148.32
719.179	2127.84
719.366	2240.48
719.553	2176.99
719.74	2281.44
719.927	2217.95
720.114	2140.13
720.301	2199.52
720.488	2168.8
720.676	2174.94
720.863	2138.08
721.05	2322.4
721.237	2160.61
721.424	2168.8
721.611	2215.9
721.798	2093.02
721.985	2224.09
722.172	2217.95
722.358	2107.36
722.545	2166.75
722.732	2150.37
722.919	2199.52
723.106	2144.22
723.293	2076.64
723.48	2166.75
723.667	2070.5
723.853	2107.36
724.04	2142.18
724.227	2086.88
724.414	2166.75
724.6	2179.04
724.787	2074.59
724.974	2129.89
725.161	2076.64
725.347	2144.22
725.534	2191.33
725.72	2195.42
725.907	2211.81
726.094	2109.41
726.28	2142.18
726.467	2035.68
726.653	2209.76
726.84	2097.12
727.027	2105.31
727.213	2109.41
727.4	2150.37
727.586	2056.16
727.773	2205.66
727.959	2064.35
728.145	2166.75
728.332	2129.89
728.518	2144.22
728.705	2070.5
728.891	2109.41
729.077	2105.31
729.264	2078.69
729.45	2097.12
729.636	2119.65
729.823	2076.64
730.009	2197.47
730.195	2062.3
730.382	2150.37
730.568	2109.41
730.754	2131.94
730.94	2150.37
731.126	2174.94
731.313	2164.7
731.499	2080.74
731.685	2138.08
731.871	2015.2
732.057	2103.26
732.243	2154.46
732.429	2043.87
732.615	2027.49
732.801	2117.6
732.987	2093.02
733.173	2072.54
733.359	2125.79
733.545	2115.55
733.731	2066.4
733.917	2111.46
734.103	2035.68
734.289	2045.92
734.475	2056.16
734.661	2107.36
734.847	2052.06
735.033	2166.75
735.219	2217.95
735.404	2129.89
735.59	1972.19
735.776	2062.3
735.962	2070.5
736.148	2199.52
736.333	2095.07
736.519	2027.49
736.705	2111.46
736.89	2093.02
737.076	2047.97
737.262	2031.59
737.447	1980.39
737.633	2062.3
737.819	2133.98
738.004	2039.78
738.19	1937.38
738.375	2043.87
738.561	2062.3
738.747	1957.86
738.932	2011.11
739.118	2125.79
739.303	2101.22
739.489	2045.92
739.674	2127.84
739.859	1863.65
740.045	1986.53
740.23	1986.53
740.416	1898.47
740.601	2031.59
740.786	1912.8
740.972	1871.84
741.157	1931.23
741.342	1914.85
741.528	1988.58
741.713	1904.61
741.898	1957.86
742.084	1896.42
742.269	2019.3
742.454	1970.15
742.639	1884.13
742.824	1839.08
743.01	1843.17
743.195	1998.82
743.38	1814.5
743.565	1810.4
743.75	1853.41
743.935	1957.86
744.12	1937.38
744.305	1871.84
744.49	1849.32
744.675	1798.12
744.86	1771.49
745.045	1787.88
745.23	1855.46
745.415	1839.08
745.6	1855.46
745.785	1775.59
745.97	1841.12
746.155	1630.18
746.34	1769.44
746.525	1798.12
746.71	1830.88
746.895	1816.55
747.079	1712.1
747.264	1685.48
747.449	1773.54
747.634	1683.43
747.819	1644.52
748.003	1708.01
748.188	1609.7
748.373	1675.24
748.557	1753.06
748.742	1728.49
748.927	1589.22
749.111	1650.66
749.296	1568.74
749.481	1548.26
749.665	1621.99
749.85	1578.98
750.034	1583.08
750.219	1531.88
750.404	1449.96
750.588	1538.02
750.773	1441.77
750.957	1511.4
751.141	1576.94
751.326	1562.6
751.51	1447.91
751.695	1429.48
751.879	1443.82
752.064	1472.49
752.248	1427.43
752.432	1423.34
752.617	1466.35
752.801	1447.91
752.985	1443.82
753.17	1396.71
753.354	1429.48
753.538	1282.03
753.722	1431.53
753.907	1327.08
754.091	1347.56
754.275	1380.33
754.459	1353.71
754.643	1275.88
754.828	1341.42
755.012	1292.27
755.196	1273.84
755.38	1249.26
755.564	1185.77
755.748	1257.45
755.932	1220.59
756.116	1185.77
756.3	1140.72
756.484	1204.21
756.668	1214.45
756.852	1196.01
757.036	1193.97
757.22	1148.91
757.404	1200.11
757.588	1126.38
757.772	1126.38
757.956	1189.87
758.14	1204.21
758.323	1134.57
758.507	1185.77
758.691	1046.51
758.875	1167.34
759.059	1112.05
759.242	1165.29
759.426	1091.57
759.61	1011.7
759.794	1134.57
759.977	1052.66
760.161	997.36
760.345	1062.9
760.528	1062.9
760.712	1030.13
760.895	1013.74
761.079	1056.75
761.263	937.97
761.446	964.59
761.63	974.83
761.813	1011.7
761.997	1013.74
762.18	985.07
762.364	1044.46
762.547	1007.6
762.731	954.35
762.914	1005.55
763.098	1028.08
763.281	950.26
763.464	987.12
763.648	933.87
763.831	854
764.015	921.59
764.198	909.3
764.381	890.87
764.564	991.22
764.748	964.59
764.931	937.97
765.114	940.02
765.297	788.47
765.481	792.56
765.664	921.59
765.847	831.48
766.03	868.34
766.213	851.95
766.397	905.2
766.58	901.11
766.763	909.3
766.946	899.06
767.129	851.95
767.312	827.38
767.495	944.11
767.678	759.8
767.861	858.1
768.044	796.66
768.227	813.04
768.41	784.37
768.593	798.71
768.776	802.8
768.959	829.43
769.142	839.67
769.324	817.14
769.507	757.75
769.69	813.04
769.873	825.33
770.056	821.24
770.239	761.84
770.421	792.56
770.604	784.37
770.787	745.46
770.97	694.26
771.152	679.93
771.335	741.36
771.518	692.21
771.7	790.52
771.883	745.46
772.066	724.98
772.248	747.51
772.431	767.99
772.613	667.64
772.796	751.6
772.978	733.17
773.161	770.04
773.343	643.06
773.526	679.93
773.708	638.97
773.891	720.88
774.073	720.88
774.256	661.49
774.438	735.22
774.621	655.35
774.803	641.01
774.985	665.59
775.168	679.93
775.35	659.45
775.532	675.83
775.715	593.91
775.897	634.87
776.079	538.62
776.261	634.87
776.444	573.43
776.626	661.49
776.808	548.86
776.99	610.29
777.173	630.77
777.355	569.34
777.537	626.68
777.719	587.77
777.901	552.95
778.083	555
778.265	579.58
778.447	579.58
778.629	542.71
778.811	587.77
778.993	536.57
779.175	581.62
779.357	552.95
779.539	524.28
779.721	530.42
779.903	585.72
780.085	434.17
780.267	593.91
780.449	466.94
780.631	563.19
780.812	528.38
780.994	544.76
781.176	530.42
781.358	499.7
781.54	511.99
781.721	464.89
781.903	479.22
782.085	483.32
782.267	479.22
782.448	450.55
782.63	438.27
782.812	499.7
782.993	511.99
783.175	432.12
783.357	421.88
783.538	456.7
783.72	364.54
783.901	395.26
784.083	497.66
784.264	479.22
784.446	315.39
784.627	448.51
784.809	434.17
784.99	380.92
785.172	352.25
785.353	374.78
785.535	421.88
785.716	364.54
785.897	432.12
786.079	421.88
786.26	331.77
786.441	372.73
786.623	260.09
786.804	358.39
786.985	339.96
787.167	397.31
787.348	286.72
787.529	380.92
787.71	385.02
787.891	364.54
788.073	346.11
788.254	327.67
788.435	292.86
788.616	440.31
788.797	303.1
788.978	391.16
789.159	321.53
789.34	366.59
789.522	335.87
789.703	286.72
789.884	342.01
790.065	333.82
790.246	313.34
790.427	260.09
790.607	274.43
790.788	348.15
790.969	198.65
791.15	292.86
791.331	301.05
791.512	294.91
791.693	303.1
791.874	129.02
792.054	333.82
792.235	299
792.416	292.86
792.597	278.52
792.778	309.24
792.958	292.86
793.139	315.39
793.32	374.78
793.5	368.63
793.681	307.2
793.862	331.77
794.042	319.48
794.223	307.2
794.404	350.2
794.584	258.04
794.765	262.14
794.945	217.08
795.126	200.7
795.306	266.24
795.487	229.37
795.667	266.24
795.848	241.66
796.028	219.13
796.209	243.71
796.389	268.28
796.57	272.38
796.75	192.51
796.93	167.93
797.111	145.41
797.291	256
797.471	221.18
797.652	278.52
797.832	253.95
798.012	243.71
798.192	204.8
798.373	143.36
798.553	190.46
798.733	200.7
798.913	270.33
799.093	217.08
799.274	262.14
799.454	290.81
799.634	225.28
799.814	167.93
799.994	215.04
800.174	210.94
800.354	299
800.534	116.73
800.714	262.14
800.894	186.37
801.074	184.32
801.254	239.61
801.434	204.8
801.614	215.04
801.794	106.49
801.974	751.6
802.154	194.56
802.334	243.71
802.514	180.22
802.693	176.13
802.873	159.74
803.053	260.09
803.233	182.27
803.413	233.47
803.592	137.21
803.772	190.46
803.952	190.46
804.131	155.65
804.311	221.18
804.491	198.65
804.67	186.37
804.85	145.41
805.03	151.55
805.209	253.95
805.389	258.04
805.568	118.78
805.748	219.13
805.928	169.98
806.107	169.98
806.287	126.97
806.466	186.37
806.646	249.85
806.825	231.42
807.004	192.51
807.184	106.49
807.363	102.4
807.543	159.74
807.722	202.75
807.901	221.18
808.081	223.23
808.26	131.07
808.439	104.45
808.619	122.88
808.798	180.22
808.977	215.04
809.156	169.98
809.336	139.26
809.515	196.61
809.694	102.4
809.873	176.13
810.052	163.84
810.231	163.84
810.411	120.83
810.59	159.74
810.769	231.42
810.948	184.32
811.127	137.21
811.306	176.13
811.485	139.26
811.664	165.89
811.843	126.97
812.022	155.65
812.201	110.59
812.38	96.25
812.559	143.36
812.737	194.56
812.916	79.87
813.095	36.86
813.274	118.78
813.453	96.25
813.632	69.63
813.811	159.74
813.989	112.64
814.168	100.35
814.347	110.59
814.526	110.59
814.704	151.55
814.883	208.89
815.062	28.67
815.24	184.32
815.419	32.77
815.598	110.59
815.776	135.17
815.955	165.89
816.133	12.29
816.312	176.13
816.49	77.82
816.669	77.82
816.847	169.98
817.026	163.84
817.204	94.21
817.383	61.44
817.561	100.35
817.74	147.45
817.918	86.01
818.097	161.79
818.275	131.07
818.453	98.3
818.632	151.55
818.81	88.06
818.988	73.73
819.167	12.29
819.345	129.02
819.523	38.91
819.701	151.55
819.879	155.65
820.058	83.97
820.236	63.49
820.414	83.97
820.592	12.29
820.77	100.35
820.948	86.01
821.127	94.21
821.305	88.06
821.483	106.49
821.661	106.49
821.839	36.86
822.017	36.86
822.195	163.84
822.373	137.21
822.551	86.01
822.729	131.07
822.907	88.06
823.085	129.02
823.262	92.16
823.44	94.21
823.618	40.96
823.796	79.87
823.974	114.69
824.152	118.78
824.329	65.54
824.507	51.2
824.685	90.11
824.863	94.21
825.04	86.01
825.218	67.58
825.396	94.21
825.574	147.45
825.751	26.62
825.929	77.82
826.107	61.44
826.284	104.45
826.462	88.06
826.639	114.69
826.817	59.39
826.994	57.34
827.172	22.53
827.349	38.91
827.527	106.49
827.704	77.82
827.882	139.26
828.059	108.54
828.237	61.44
828.414	98.3
828.591	20.48
828.769	100.35
828.946	61.44
829.124	100.35
829.301	61.44
829.478	96.25
829.655	73.73
829.833	-8.19
830.01	61.44
830.187	86.01
830.364	65.54
830.542	88.06
830.719	69.63
830.896	106.49
831.073	94.21
831.25	73.73
831.427	139.26
831.604	-4.1
831.782	131.07
831.959	131.07
832.136	102.4
832.313	59.39
832.49	49.15
832.667	36.86
832.844	53.25
833.021	69.63
833.198	124.93
833.374	88.06
833.551	96.25
833.728	53.25
833.905	112.64
834.082	122.88
834.259	12.29
834.436	45.06
834.612	69.63
834.789	81.92
834.966	61.44
835.143	36.86
835.319	18.43
835.496	16.38
835.673	79.87
835.85	135.17
836.026	143.36
836.203	28.67
836.38	28.67
836.556	-24.58
836.733	43.01
836.909	55.3
837.086	81.92
837.262	81.92
837.439	16.38
837.616	30.72
837.792	73.73
837.968	14.34
838.145	4.1
838.321	63.49
838.498	57.34
838.674	8.19
838.851	71.68
839.027	-18.43
839.203	73.73
839.38	73.73
839.556	30.72
839.732	131.07
839.909	8.19
840.085	12.29
840.261	12.29
840.437	20.48
840.614	40.96
840.79	47.1
840.966	-4.1
841.142	71.68
841.318	53.25
841.494	126.97
841.671	28.67
841.847	110.59
842.023	16.38
842.199	63.49
842.375	-12.29
842.551	0
842.727	36.86
842.903	126.97
843.079	2.05
843.255	83.97
843.431	-61.44
843.607	79.87
843.783	51.2
843.959	65.54
844.134	4.1
844.31	61.44
844.486	-34.82
844.662	38.91
844.838	67.58
845.013	114.69
845.189	88.06
845.365	4.1
845.541	0
845.716	20.48
845.892	26.62
846.068	20.48
846.244	81.92
846.419	-8.19
846.595	24.58
846.77	40.96
846.946	12.29
847.122	51.2
847.297	-40.96
847.473	110.59
847.648	10.24
847.824	-4.1
847.999	69.63
848.175	53.25
848.35	22.53
848.526	118.78
848.701	88.06
848.876	49.15
849.052	40.96
849.227	12.29
849.403	-6.14
849.578	4.1
849.753	30.72
849.929	47.1
850.104	4.1
850.279	59.39
850.454	55.3
850.63	43.01
850.805	24.58
850.98	-4.1
851.155	34.82
851.33	47.1
851.505	28.67
851.681	102.4
851.856	-26.62
852.031	69.63
852.206	-2.05
852.381	-45.06
852.556	-20.48
852.731	53.25
852.906	0
853.081	2.05
853.256	90.11
853.431	-24.58
853.606	-16.38
853.781	-18.43
853.956	30.72
854.131	24.58
854.305	18.43
854.48	2.05
854.655	45.06
854.83	38.91
855.005	51.2
855.18	86.01
855.354	-40.96
855.529	-53.25
855.704	86.01
855.879	102.4
856.053	47.1
856.228	55.3
856.403	26.62
856.577	14.34
856.752	-2.05
856.926	77.82
857.101	-10.24
857.276	-24.58
857.45	12.29
857.625	77.82
857.799	83.97
857.974	83.97
858.148	38.91
858.323	4.1
858.497	79.87
858.672	-59.39
858.846	-57.34
859.02	77.82
859.195	-18.43
859.369	24.58
859.543	-28.67
859.718	47.1
859.892	34.82
860.066	69.63
860.241	57.34
860.415	4.1
860.589	-18.43
860.763	57.34
860.938	-32.77
861.112	6.14
861.286	43.01
861.46	38.91
861.634	102.4
861.808	77.82
861.982	-110.59
862.157	-18.43
862.331	-20.48
862.505	-92.16
862.679	-14.34
862.853	8.19
863.027	12.29
863.201	24.58
863.375	-34.82
863.549	-57.34
863.722	-59.39
863.896	92.16
864.07	92.16
864.244	10.24
864.418	4.1
864.592	4.1
864.766	45.06
864.939	38.91
865.113	-28.67
865.287	81.92
865.461	-18.43
865.634	30.72
865.808	24.58
865.982	45.06
866.156	-45.06
866.329	-45.06
866.503	8.19
866.676	-2.05
866.85	36.86
867.024	49.15
867.197	4.1
867.371	16.38
867.544	53.25
867.718	8.19
867.891	77.82
868.065	6.14
868.238	-14.34
868.412	-69.63
868.585	53.25
868.759	18.43
868.932	-10.24
869.105	16.38
869.279	40.96
869.452	30.72
869.625	14.34
869.799	10.24
869.972	-18.43
870.145	-38.91
870.319	51.2
870.492	26.62
870.665	75.77
870.838	-26.62
871.011	-2.05
871.185	30.72
871.358	-30.72
871.531	38.91
871.704	20.48
871.877	38.91
872.05	4.1
872.223	45.06
872.396	24.58
872.569	-10.24
872.742	-38.91
872.915	45.06
873.088	24.58
873.261	-61.44
873.434	67.58
873.607	0
873.78	73.73
873.953	-69.63
874.126	8.19
874.299	36.86
874.471	-38.91
874.644	-20.48
874.817	-12.29
874.99	79.87
875.163	-24.58
875.335	4.1
875.508	-26.62
875.681	6.14
875.853	-59.39
876.026	57.34
876.199	45.06
876.371	98.3
876.544	-34.82
876.717	77.82
876.889	79.87
877.062	-2.05
877.234	-22.53
877.407	-16.38
877.579	-10.24
877.752	0
877.924	2.05
878.097	-2.05
878.269	47.1
878.442	20.48
878.614	12.29
878.786	-28.67
878.959	-4.1
879.131	57.34
879.303	30.72
879.476	-26.62
879.648	-36.86
879.82	51.2
879.993	8.19
880.165	4.1
880.337	-51.2
880.509	-22.53
880.681	18.43
880.854	-4.1
881.026	-12.29
881.198	94.21
881.37	-36.86
881.542	-2.05
881.714	24.58
881.886	4.1
882.058	-53.25
882.23	-4.1
882.402	-55.3
882.574	55.3
882.746	-53.25
882.918	83.97
883.09	69.63
883.262	-20.48
883.434	-4.1
883.606	-38.91
883.778	-57.34
883.95	94.21
884.122	-20.48
884.293	4.1
884.465	-57.34
884.637	-4.1
884.809	32.77
884.98	-69.63
885.152	51.2
885.324	20.48
885.496	24.58
885.667	-24.58
885.839	12.29
886.011	49.15
886.182	38.91
886.354	2.05
886.525	-8.19
886.697	53.25
886.869	38.91
887.04	18.43
887.212	75.77
887.383	12.29
887.555	77.82
887.726	77.82
887.897	-2.05
888.069	-40.96
888.24	-10.24
888.412	20.48
888.583	26.62
888.754	-61.44
888.926	12.29
889.097	2.05
889.268	24.58
889.44	14.34
889.611	-40.96
889.782	-4.1
889.953	-36.86
890.125	67.58
890.296	-8.19
890.467	24.58
890.638	-53.25
890.809	102.4
890.98	65.54
891.151	36.86
891.323	-4.1
891.494	14.34
891.665	20.48
891.836	-43.01
892.007	-24.58
892.178	98.3
892.349	0
892.52	-63.49
892.691	-2.05
892.862	-12.29
893.032	2.05
893.203	-28.67
893.374	-34.82
893.545	69.63
893.716	4.1
893.887	-12.29
894.057	-30.72
894.228	24.58
894.399	-36.86
894.57	18.43
894.74	2.05
894.911	4.1
895.082	-4.1
895.253	-18.43
895.423	28.67
895.594	8.19
895.764	16.38
895.935	12.29
896.106	30.72
896.276	10.24
896.447	24.58
896.617	-20.48
896.788	-55.3
896.958	-4.1
897.129	-26.62
897.299	-32.77
897.47	18.43
897.64	-4.1
897.81	40.96
897.981	-18.43
898.151	-45.06
898.322	-24.58
898.492	4.1
898.662	-4.1
898.832	-8.19
899.003	59.39
899.173	-2.05
899.343	-22.53
899.513	-28.67
