Data from USB4F104151__289__14-23-46-496.txt Node

Date: Thu Mar 13 14:23:46 EDT 2025
User: louis
Spectrometer: USB4F10415
Trigger mode: 4
Integration Time (sec): 2.000000E-2
Scans to average: 1
Electric dark correction enabled: true
Nonlinearity correction enabled: false
Boxcar width: 0
XAxis mode: Wavelengths
Number of Pixels in Spectrum: 3648
>>>>>Begin Spectral Data<<<<<
178.204	-107.69
178.424	-107.69
178.644	-107.69
178.864	-117.93
179.084	-68.78
179.304	-36.01
179.524	-48.3
179.744	13.14
179.964	21.33
180.184	-11.43
180.404	19.29
180.624	19.29
180.844	39.76
181.064	-7.34
181.283	-33.96
181.503	-3.24
181.723	27.48
181.943	-44.2
182.163	56.15
182.383	-23.72
182.602	33.62
182.822	58.2
183.042	25.43
183.262	-23.72
183.482	43.86
183.701	86.87
183.921	52.05
184.141	62.29
184.361	-15.53
184.58	86.87
184.8	-23.72
185.02	13.14
185.239	47.96
185.459	29.52
185.679	43.86
185.898	15.19
186.118	70.48
186.338	37.72
186.557	9.05
186.777	-27.82
186.997	54.1
187.216	-19.63
187.436	21.33
187.655	-3.24
187.875	23.38
188.095	45.91
188.314	56.15
188.534	58.2
188.753	33.62
188.973	-56.49
189.192	90.96
189.412	15.19
189.631	39.76
189.851	-38.06
190.07	80.72
190.29	-66.73
190.509	41.81
190.729	-50.35
190.948	54.1
191.168	152.4
191.387	37.72
191.607	37.72
191.826	-5.29
192.045	56.15
192.265	-23.72
192.484	11.09
192.704	17.24
192.923	-25.77
193.142	129.88
193.362	29.52
193.581	13.14
193.8	-3.24
194.02	-5.29
194.239	41.81
194.458	13.14
194.678	74.58
194.897	-13.48
195.116	-17.58
195.335	-19.63
195.555	39.76
195.774	-11.43
195.993	-11.43
196.212	7
196.432	-31.91
196.651	56.15
196.87	64.34
197.089	64.34
197.308	47.96
197.528	-15.53
197.747	-44.2
197.966	4.95
198.185	56.15
198.404	7
198.623	37.72
198.842	88.92
199.062	13.14
199.281	54.1
199.5	88.92
199.719	45.91
199.938	70.48
200.157	35.67
200.376	-52.39
200.595	-9.39
200.814	-25.77
201.033	-42.15
201.252	39.76
201.471	45.91
201.69	95.06
201.909	107.35
202.128	45.91
202.347	43.86
202.566	54.1
202.785	45.91
203.004	-3.24
203.223	121.68
203.442	99.16
203.661	-31.91
203.879	-1.19
204.098	64.34
204.317	4.95
204.536	62.29
204.755	72.53
204.974	-9.39
205.193	52.05
205.411	80.72
205.63	7
205.849	54.1
206.068	76.63
206.287	86.87
206.505	15.19
206.724	52.05
206.943	33.62
207.162	-66.73
207.381	37.72
207.599	56.15
207.818	74.58
208.037	4.95
208.255	31.57
208.474	-7.34
208.693	-1.19
208.911	-3.24
209.13	15.19
209.349	4.95
209.567	64.34
209.786	-11.43
210.005	47.96
210.223	-3.24
210.442	9.05
210.661	62.29
210.879	-19.63
211.098	78.68
211.316	-36.01
211.535	58.2
211.753	33.62
211.972	88.92
212.191	37.72
212.409	0.85
212.628	19.29
212.846	17.24
213.065	50
213.283	80.72
213.502	-5.29
213.72	45.91
213.938	35.67
214.157	78.68
214.375	-19.63
214.594	21.33
214.812	27.48
215.031	58.2
215.249	27.48
215.467	39.76
215.686	-15.53
215.904	7
216.122	-27.82
216.341	35.67
216.559	19.29
216.778	13.14
216.996	58.2
217.214	-19.63
217.432	37.72
217.651	47.96
217.869	-31.91
218.087	21.33
218.306	66.39
218.524	29.52
218.742	31.57
218.96	41.81
219.179	25.43
219.397	47.96
219.615	78.68
219.833	150.36
220.051	29.52
220.27	117.59
220.488	54.1
220.706	13.14
220.924	19.29
221.142	47.96
221.36	121.68
221.578	86.87
221.796	-19.63
222.015	37.72
222.233	-36.01
222.451	54.1
222.669	11.09
222.887	-11.43
223.105	21.33
223.323	-3.24
223.541	15.19
223.759	86.87
223.977	-19.63
224.195	68.44
224.413	9.05
224.631	11.09
224.849	17.24
225.067	50
225.285	4.95
225.503	88.92
225.721	-40.11
225.939	-3.24
226.157	11.09
226.375	113.49
226.592	-25.77
226.81	39.76
227.028	31.57
227.246	138.07
227.464	15.19
227.682	70.48
227.9	62.29
228.117	90.96
228.335	43.86
228.553	72.53
228.771	-81.07
228.989	80.72
229.206	43.86
229.424	-1.19
229.642	39.76
229.86	-68.78
230.077	64.34
230.295	41.81
230.513	90.96
230.731	-3.24
230.948	86.87
231.166	70.48
231.384	0.85
231.601	-9.39
231.819	31.57
232.037	45.91
232.254	-11.43
232.472	82.77
232.689	-42.15
232.907	37.72
233.125	-5.29
233.342	15.19
233.56	45.91
233.777	-17.58
233.995	76.63
234.213	90.96
234.43	17.24
234.648	62.29
234.865	54.1
235.083	-1.19
235.3	50
235.518	41.81
235.735	33.62
235.953	156.5
236.17	21.33
236.388	45.91
236.605	25.43
236.822	54.1
237.04	56.15
237.257	11.09
237.475	21.33
237.692	27.48
237.909	35.67
238.127	17.24
238.344	37.72
238.562	31.57
238.779	72.53
238.996	33.62
239.214	64.34
239.431	82.77
239.648	15.19
239.865	15.19
240.083	70.48
240.3	13.14
240.517	56.15
240.735	21.33
240.952	-9.39
241.169	88.92
241.386	39.76
241.603	29.52
241.821	56.15
242.038	78.68
242.255	-5.29
242.472	9.05
242.689	72.53
242.907	23.38
243.124	64.34
243.341	47.96
243.558	17.24
243.775	-19.63
243.992	58.2
244.209	62.29
244.426	50
244.643	33.62
244.86	23.38
245.078	45.91
245.295	74.58
245.512	-11.43
245.729	13.14
245.946	-33.96
246.163	-25.77
246.38	-40.11
246.597	97.11
246.814	-19.63
247.031	47.96
247.248	4.95
247.464	58.2
247.681	4.95
247.898	41.81
248.115	95.06
248.332	-21.67
248.549	21.33
248.766	37.72
248.983	35.67
249.2	76.63
249.417	13.14
249.633	60.24
249.85	103.25
250.067	13.14
250.284	93.01
250.501	54.1
250.717	90.96
250.934	-3.24
251.151	47.96
251.368	64.34
251.585	25.43
251.801	39.76
252.018	29.52
252.235	66.39
252.451	-58.54
252.668	41.81
252.885	66.39
253.102	29.52
253.318	-40.11
253.535	13.14
253.752	21.33
253.968	-40.11
254.185	27.48
254.401	31.57
254.618	37.72
254.835	13.14
255.051	7
255.268	95.06
255.484	90.96
255.701	56.15
255.917	17.24
256.134	-3.24
256.351	-13.48
256.567	-25.77
256.784	4.95
257	21.33
257.217	62.29
257.433	97.11
257.65	45.91
257.866	78.68
258.082	25.43
258.299	-17.58
258.515	64.34
258.732	21.33
258.948	9.05
259.165	176.98
259.381	23.38
259.597	54.1
259.814	-3.24
260.03	13.14
260.246	13.14
260.463	62.29
260.679	37.72
260.895	78.68
261.112	17.24
261.328	-1.19
261.544	-27.82
261.761	50
261.977	41.81
262.193	-19.63
262.409	60.24
262.626	39.76
262.842	31.57
263.058	9.05
263.274	35.67
263.49	17.24
263.707	2.9
263.923	29.52
264.139	-36.01
264.355	13.14
264.571	121.68
264.787	-52.39
265.004	29.52
265.22	31.57
265.436	29.52
265.652	-11.43
265.868	56.15
266.084	33.62
266.3	37.72
266.516	-1.19
266.732	-5.29
266.948	39.76
267.164	13.14
267.38	54.1
267.596	72.53
267.812	7
268.028	37.72
268.244	37.72
268.46	52.05
268.676	-56.49
268.892	37.72
269.108	-23.72
269.324	13.14
269.54	9.05
269.756	68.44
269.972	52.05
270.188	-3.24
270.403	27.48
270.619	72.53
270.835	21.33
271.051	17.24
271.267	17.24
271.483	9.05
271.698	41.81
271.914	62.29
272.13	115.54
272.346	105.3
272.562	56.15
272.777	-17.58
272.993	70.48
273.209	21.33
273.425	17.24
273.64	-3.24
273.856	60.24
274.072	-3.24
274.287	-9.39
274.503	17.24
274.719	62.29
274.934	4.95
275.15	60.24
275.366	86.87
275.581	54.1
275.797	29.52
276.012	-44.2
276.228	7
276.444	70.48
276.659	99.16
276.875	-21.67
277.09	37.72
277.306	-19.63
277.521	72.53
277.737	29.52
277.952	7
278.168	7
278.383	68.44
278.599	27.48
278.814	43.86
279.03	4.95
279.245	111.44
279.461	4.95
279.676	-9.39
279.892	29.52
280.107	17.24
280.322	-1.19
280.538	29.52
280.753	-36.01
280.969	54.1
281.184	-23.72
281.399	35.67
281.615	0.85
281.83	56.15
282.045	-1.19
282.26	-11.43
282.476	-3.24
282.691	50
282.906	50
283.122	-54.44
283.337	45.91
283.552	66.39
283.767	9.05
283.983	64.34
284.198	21.33
284.413	88.92
284.628	31.57
284.843	27.48
285.058	23.38
285.274	45.91
285.489	-36.01
285.704	50
285.919	-5.29
286.134	78.68
286.349	-3.24
286.564	29.52
286.779	21.33
286.995	13.14
287.21	-3.24
287.425	45.91
287.64	11.09
287.855	52.05
288.07	33.62
288.285	23.38
288.5	-19.63
288.715	97.11
288.93	82.77
289.145	64.34
289.36	72.53
289.575	4.95
289.79	58.2
290.004	78.68
290.219	-5.29
290.434	113.49
290.649	23.38
290.864	23.38
291.079	-3.24
291.294	7
291.509	41.81
291.724	23.38
291.938	50
292.153	127.83
292.368	80.72
292.583	50
292.798	70.48
293.012	19.29
293.227	-15.53
293.442	129.88
293.657	50
293.871	15.19
294.086	47.96
294.301	127.83
294.516	123.73
294.73	7
294.945	21.33
295.16	9.05
295.374	39.76
295.589	4.95
295.804	4.95
296.018	15.19
296.233	47.96
296.447	21.33
296.662	-23.72
296.877	80.72
297.091	58.2
297.306	66.39
297.52	-9.39
297.735	17.24
297.949	47.96
298.164	90.96
298.378	7
298.593	45.91
298.807	74.58
299.022	31.57
299.236	33.62
299.451	37.72
299.665	31.57
299.88	54.1
300.094	17.24
300.309	45.91
300.523	4.95
300.737	-11.43
300.952	62.29
301.166	47.96
301.381	15.19
301.595	13.14
301.809	60.24
302.024	9.05
302.238	54.1
302.452	107.35
302.667	127.83
302.881	90.96
303.095	31.57
303.309	37.72
303.524	78.68
303.738	136.02
303.952	86.87
304.166	45.91
304.381	45.91
304.595	111.44
304.809	82.77
305.023	95.06
305.237	50
305.452	47.96
305.666	47.96
305.88	47.96
306.094	2.9
306.308	97.11
306.522	41.81
306.736	86.87
306.95	80.72
307.164	58.2
307.379	45.91
307.593	78.68
307.807	164.69
308.021	-48.3
308.235	33.62
308.449	-19.63
308.663	25.43
308.877	86.87
309.091	31.57
309.305	-11.43
309.519	19.29
309.733	80.72
309.947	15.19
310.161	37.72
310.374	-25.77
310.588	25.43
310.802	15.19
311.016	23.38
311.23	78.68
311.444	-23.72
311.658	7
311.872	119.64
312.085	21.33
312.299	47.96
312.513	33.62
312.727	62.29
312.941	19.29
313.154	25.43
313.368	17.24
313.582	90.96
313.796	47.96
314.009	-13.48
314.223	15.19
314.437	68.44
314.651	21.33
314.864	43.86
315.078	-13.48
315.292	56.15
315.505	50
315.719	107.35
315.933	33.62
316.146	64.34
316.36	-13.48
316.573	4.95
316.787	-11.43
317.001	31.57
317.214	13.14
317.428	37.72
317.641	50
317.855	-9.39
318.068	29.52
318.282	0.85
318.495	99.16
318.709	103.25
318.922	41.81
319.136	72.53
319.349	80.72
319.563	62.29
319.776	-15.53
319.99	-9.39
320.203	76.63
320.417	-3.24
320.63	37.72
320.843	39.76
321.057	-5.29
321.27	13.14
321.483	78.68
321.697	80.72
321.91	7
322.124	70.48
322.337	23.38
322.55	56.15
322.763	-27.82
322.977	-11.43
323.19	-52.39
323.403	33.62
323.617	47.96
323.83	7
324.043	68.44
324.256	74.58
324.469	-9.39
324.683	99.16
324.896	29.52
325.109	39.76
325.322	0.85
325.535	43.86
325.748	39.76
325.962	41.81
326.175	29.52
326.388	50
326.601	54.1
326.814	4.95
327.027	78.68
327.24	76.63
327.453	29.52
327.666	-27.82
327.879	39.76
328.092	74.58
328.305	127.83
328.518	82.77
328.731	-3.24
328.944	-27.82
329.157	160.59
329.37	-40.11
329.583	62.29
329.796	9.05
330.009	-42.15
330.222	47.96
330.435	97.11
330.648	78.68
330.861	-27.82
331.073	17.24
331.286	78.68
331.499	45.91
331.712	119.64
331.925	45.91
332.138	47.96
332.35	97.11
332.563	15.19
332.776	103.25
332.989	23.38
333.202	41.81
333.414	37.72
333.627	50
333.84	54.1
334.053	17.24
334.265	25.43
334.478	-23.72
334.691	13.14
334.903	86.87
335.116	33.62
335.329	7
335.541	17.24
335.754	50
335.966	-9.39
336.179	17.24
336.392	-1.19
336.604	70.48
336.817	-3.24
337.029	66.39
337.242	37.72
337.454	90.96
337.667	19.29
337.88	-13.48
338.092	27.48
338.305	56.15
338.517	31.57
338.729	2.9
338.942	31.57
339.154	95.06
339.367	68.44
339.579	37.72
339.792	37.72
340.004	60.24
340.217	56.15
340.429	109.4
340.641	107.35
340.854	4.95
341.066	39.76
341.278	9.05
341.491	19.29
341.703	-11.43
341.915	64.34
342.128	41.81
342.34	-15.53
342.552	43.86
342.764	-9.39
342.977	54.1
343.189	21.33
343.401	21.33
343.613	-13.48
343.826	25.43
344.038	-33.96
344.25	37.72
344.462	78.68
344.674	74.58
344.886	-9.39
345.099	56.15
345.311	25.43
345.523	54.1
345.735	56.15
345.947	23.38
346.159	54.1
346.371	21.33
346.583	103.25
346.795	82.77
347.007	0.85
347.219	21.33
347.431	37.72
347.643	146.26
347.855	21.33
348.067	115.54
348.279	-52.39
348.491	62.29
348.703	-3.24
348.915	37.72
349.127	84.82
349.339	37.72
349.551	33.62
349.763	115.54
349.975	76.63
350.187	4.95
350.399	41.81
350.61	41.81
350.822	-9.39
351.034	23.38
351.246	19.29
351.458	101.2
351.669	97.11
351.881	103.25
352.093	74.58
352.305	33.62
352.517	19.29
352.728	23.38
352.94	99.16
353.152	7
353.363	-1.19
353.575	90.96
353.787	50
353.999	52.05
354.21	-9.39
354.422	45.91
354.633	21.33
354.845	4.95
355.057	121.68
355.268	88.92
355.48	0.85
355.692	4.95
355.903	99.16
356.115	7
356.326	-29.87
356.538	144.21
356.749	-44.2
356.961	84.82
357.172	11.09
357.384	127.83
357.595	78.68
357.807	-3.24
358.018	52.05
358.23	127.83
358.441	90.96
358.653	31.57
358.864	107.35
359.075	47.96
359.287	-1.19
359.498	56.15
359.709	9.05
359.921	86.87
360.132	15.19
360.344	70.48
360.555	74.58
360.766	56.15
360.977	-36.01
361.189	39.76
361.4	56.15
361.611	58.2
361.823	25.43
362.034	56.15
362.245	23.38
362.456	103.25
362.667	33.62
362.879	72.53
363.09	27.48
363.301	64.34
363.512	82.77
363.723	62.29
363.935	45.91
364.146	70.48
364.357	13.14
364.568	103.25
364.779	2.9
364.99	68.44
365.201	54.1
365.412	15.19
365.623	27.48
365.834	7
366.045	25.43
366.256	86.87
366.467	103.25
366.678	58.2
366.889	13.14
367.1	4.95
367.311	127.83
367.522	66.39
367.733	82.77
367.944	45.91
368.155	13.14
368.366	121.68
368.577	103.25
368.788	86.87
368.999	62.29
369.209	15.19
369.42	86.87
369.631	136.02
369.842	-7.34
370.053	58.2
370.264	74.58
370.474	-3.24
370.685	23.38
370.896	15.19
371.107	148.31
371.317	136.02
371.528	25.43
371.739	64.34
371.95	17.24
372.16	113.49
372.371	39.76
372.582	-17.58
372.792	62.29
373.003	29.52
373.214	86.87
373.424	95.06
373.635	78.68
373.846	107.35
374.056	-27.82
374.267	74.58
374.477	33.62
374.688	-23.72
374.898	39.76
375.109	54.1
375.319	33.62
375.53	101.2
375.74	33.62
375.951	15.19
376.161	70.48
376.372	146.26
376.582	19.29
376.793	64.34
377.003	9.05
377.214	0.85
377.424	90.96
377.635	31.57
377.845	13.14
378.055	76.63
378.266	-9.39
378.476	-9.39
378.686	13.14
378.897	52.05
379.107	111.44
379.317	47.96
379.528	37.72
379.738	70.48
379.948	-11.43
380.158	133.97
380.369	-3.24
380.579	74.58
380.789	39.76
380.999	47.96
381.21	72.53
381.42	131.92
381.63	21.33
381.84	41.81
382.05	52.05
382.261	74.58
382.471	90.96
382.681	-17.58
382.891	82.77
383.101	88.92
383.311	70.48
383.521	88.92
383.731	47.96
383.941	4.95
384.151	70.48
384.361	90.96
384.571	97.11
384.781	88.92
384.991	70.48
385.201	33.62
385.411	80.72
385.621	99.16
385.831	23.38
386.041	64.34
386.251	74.58
386.461	64.34
386.671	4.95
386.881	54.1
387.091	19.29
387.301	54.1
387.511	39.76
387.72	88.92
387.93	29.52
388.14	37.72
388.35	31.57
388.56	86.87
388.769	58.2
388.979	21.33
389.189	13.14
389.399	21.33
389.609	72.53
389.818	105.3
390.028	43.86
390.238	-25.77
390.447	23.38
390.657	78.68
390.867	25.43
391.076	-17.58
391.286	17.24
391.496	21.33
391.705	117.59
391.915	54.1
392.125	62.29
392.334	37.72
392.544	109.4
392.753	82.77
392.963	-56.49
393.172	54.1
393.382	58.2
393.591	127.83
393.801	62.29
394.01	105.3
394.22	64.34
394.429	64.34
394.639	19.29
394.848	150.36
395.058	111.44
395.267	144.21
395.477	74.58
395.686	119.64
395.895	111.44
396.105	148.31
396.314	86.87
396.524	78.68
396.733	45.91
396.942	66.39
397.152	62.29
397.361	105.3
397.57	52.05
397.78	52.05
397.989	105.3
398.198	160.59
398.407	86.87
398.617	148.31
398.826	54.1
399.035	127.83
399.244	95.06
399.453	115.54
399.663	58.2
399.872	70.48
400.081	111.44
400.29	154.45
400.499	103.25
400.708	209.75
400.917	127.83
401.127	52.05
401.336	119.64
401.545	144.21
401.754	136.02
401.963	152.4
402.172	111.44
402.381	95.06
402.59	123.73
402.799	133.97
403.008	76.63
403.217	123.73
403.426	101.2
403.635	70.48
403.844	150.36
404.053	125.78
404.262	101.2
404.471	170.83
404.68	121.68
404.888	64.34
405.097	158.55
405.306	209.75
405.515	172.88
405.724	160.59
405.933	101.2
406.142	162.64
406.35	191.31
406.559	152.4
406.768	242.51
406.977	142.16
407.185	195.41
407.394	267.09
407.603	136.02
407.812	226.13
408.02	185.17
408.229	189.27
408.438	203.6
408.646	183.12
408.855	185.17
409.064	228.18
409.272	232.27
409.481	258.9
409.69	289.62
409.898	258.9
410.107	301.9
410.315	207.7
410.524	349.01
410.733	349.01
410.941	402.26
411.15	324.43
411.358	367.44
411.567	392.02
411.775	414.54
411.984	418.64
412.192	537.42
412.401	469.84
412.609	510.8
412.818	465.74
413.026	586.57
413.234	465.74
413.443	469.84
413.651	496.46
413.86	494.41
414.068	600.91
414.276	627.53
414.485	572.24
414.693	717.64
414.901	695.11
415.11	703.31
415.318	682.83
415.526	699.21
415.734	766.79
415.943	764.75
416.151	795.47
416.359	822.09
416.567	820.04
416.776	809.8
416.984	924.49
417.192	1006.41
417.4	967.49
417.608	1030.98
417.817	1000.26
418.025	1063.75
418.233	1139.52
418.441	1028.93
418.649	1180.48
418.857	1213.25
419.065	1282.88
419.273	1160
419.481	1375.04
419.689	1420.1
419.897	1502.01
420.105	1471.29
420.313	1428.29
420.521	1598.27
420.729	1569.6
420.937	1581.89
421.145	1663.8
421.353	1872.7
421.561	1825.59
421.769	1876.79
421.977	2014.01
422.185	1930.04
422.393	2183.99
422.601	2243.38
422.809	2183.99
423.017	2081.59
423.224	2227
423.432	2335.54
423.64	2333.49
423.848	2620.21
424.056	2519.85
424.263	2679.6
424.471	2798.38
424.679	2855.72
424.887	2888.49
425.094	2964.26
425.302	3117.86
425.51	3119.91
425.718	3087.14
425.925	3406.63
426.133	3175.2
426.341	3490.59
426.548	3697.44
426.756	3758.88
426.964	3789.6
427.171	3955.48
427.379	4037.4
427.586	4098.84
427.794	4207.38
428.001	4629.26
428.209	4594.45
428.417	4576.02
428.624	4823.82
428.832	4954.89
429.039	4938.51
429.247	4821.77
429.454	5184.26
429.662	5675.77
429.869	5260.04
430.076	5710.59
430.284	5591.81
430.491	5874.43
430.699	6255.35
430.906	6218.49
431.114	6150.9
431.321	6445.81
431.528	6478.58
431.736	6879.98
431.943	7230.18
432.15	7000.81
432.358	7105.26
432.565	7592.67
432.772	7510.75
432.979	7957.21
433.187	8149.72
433.394	8135.39
433.601	8626.9
433.808	8434.39
434.016	8383.19
434.223	9026.25
434.43	9595.59
434.637	9366.21
434.844	9960.13
435.052	10058.43
435.259	9953.98
435.466	10171.07
435.673	9786.05
435.88	10597.04
436.087	11154.09
436.294	11254.44
436.501	10984.11
436.708	11524.77
436.915	11453.09
437.122	12145.31
437.329	12120.73
437.537	12450.46
437.743	12528.28
437.95	12622.48
438.157	13083.28
438.364	13769.35
438.571	13542.02
438.778	13687.43
438.985	15084.14
439.192	14267
439.399	14656.12
439.606	14353.02
439.813	15350.38
440.02	16202.33
440.227	15907.43
440.433	16026.21
440.64	16292.44
440.847	16024.16
441.054	16564.82
441.261	17699.4
441.467	17373.77
441.674	17947.2
441.881	18262.59
442.088	18418.24
442.294	18242.11
442.501	18637.37
442.708	18805.3
442.914	19661.35
443.121	20765.21
443.328	20263.46
443.534	21340.69
443.741	21000.72
443.948	20326.94
444.154	22057.48
444.361	21838.34
444.568	22422.02
444.774	22364.67
444.981	21910.02
445.187	22931.96
445.394	24019.43
445.6	23673.32
445.807	25674.19
446.013	24795.61
446.22	25291.22
446.426	26370.5
446.633	26399.17
446.839	27109.82
447.046	26188.23
447.252	27519.41
447.459	27707.82
447.665	27498.93
447.871	28756.38
448.078	30286.22
448.284	28498.34
448.491	29579.67
448.697	30515.59
448.903	30980.48
449.11	30990.72
449.316	30316.93
449.522	31187.32
449.728	32246.12
449.935	32059.76
450.141	32325.99
450.347	32944.48
450.553	32090.48
450.76	32110.96
450.966	33749.33
451.172	33503.57
451.378	34060.62
451.584	33366.36
451.791	34306.38
451.997	33943.89
452.203	34701.64
452.409	34484.55
452.615	34842.95
452.821	33499.48
453.027	32969.05
453.233	34750.79
453.44	33134.94
453.646	33857.87
453.852	33917.26
454.058	34269.51
454.264	33470.81
454.47	34507.08
454.676	32944.48
454.882	34609.48
455.088	31621.49
455.294	32098.67
455.5	32506.21
455.705	33055.07
455.911	31338.87
456.117	31259
456.323	30554.5
456.529	29251.99
456.735	30128.52
456.941	29550.99
457.147	28907.93
457.352	28170.66
457.558	28066.22
457.764	28000.68
457.97	27597.23
458.176	27052.47
458.381	27015.61
458.587	25453.01
458.793	25899.47
458.999	24445.41
459.204	26296.77
459.41	25340.37
459.616	23597.55
459.821	24347.11
460.027	23560.69
460.233	23282.16
460.438	22135.3
460.644	22454.78
460.85	21172.75
461.055	20822.55
461.261	20970.01
461.466	19378.73
461.672	18963
461.878	19952.16
462.083	18915.89
462.289	18526.78
462.494	18233.92
462.7	17721.93
462.905	16960.08
463.111	17582.67
463.316	17470.03
463.522	17195.6
463.727	17347.15
463.932	17013.33
464.138	17001.04
464.343	16912.98
464.549	16661.08
464.754	17191.5
464.959	17003.09
465.165	16761.43
465.37	16319.07
465.575	15845.99
465.781	16456.28
465.986	16546.39
466.191	16030.3
466.397	15561.32
466.602	14543.48
466.807	15118.96
467.012	15336.04
467.218	15194.73
467.423	15231.6
467.628	15393.39
467.833	15911.52
468.038	15334
468.244	14766.71
468.449	15573.61
468.654	14873.2
468.859	14924.4
469.064	14711.41
469.269	14082.69
469.474	14226.04
469.679	14492.28
469.885	14029.44
470.09	14283.39
470.295	14054.01
470.5	13769.35
470.705	13961.86
470.91	13587.08
471.115	13515.4
471.32	13851.27
471.525	13644.42
471.73	13259.4
471.935	13105.81
472.139	12849.81
472.344	12989.07
472.549	12890.77
472.754	12898.96
472.959	12595.86
473.164	12303
473.369	12102.3
473.574	12726.93
473.778	12419.74
473.983	12325.53
474.188	12206.75
474.393	11723.43
474.598	11696.8
474.802	11428.52
475.007	11743.91
475.212	11596.45
475.417	11133.61
475.621	11213.48
475.826	11193
476.031	11023.02
476.235	10730.16
476.44	11131.56
476.645	10681.01
476.849	10961.58
477.054	10713.78
477.259	10588.85
477.463	10433.21
477.668	10273.46
477.872	10261.18
478.077	10201.79
478.282	9904.83
478.486	9781.95
478.691	9933.5
478.895	9943.74
479.1	9896.64
479.304	9894.59
479.509	9523.91
479.713	9679.55
479.918	9405.13
480.122	9310.92
480.326	9409.22
480.531	9501.38
480.735	9380.55
480.94	9269.96
481.144	9536.2
481.348	8999.63
481.553	9312.97
481.757	8833.74
481.961	9163.47
482.166	9284.3
482.37	9009.87
482.574	8841.93
482.778	8827.6
482.983	9255.62
483.187	8903.37
483.391	8927.95
483.595	8805.07
483.8	8891.09
484.004	9173.71
484.208	9089.74
484.412	9042.64
484.616	8819.41
484.821	8968.91
485.025	8862.41
485.229	9179.85
485.433	8927.95
485.637	8803.02
485.841	9007.82
486.045	9048.78
486.249	8999.63
486.453	8968.91
486.657	9079.5
486.861	9200.33
487.065	8811.21
487.269	8813.26
487.473	8731.34
487.677	9198.28
487.881	9130.7
488.085	8942.28
488.289	9046.73
488.493	9091.79
488.697	9050.83
488.901	9044.68
489.105	8870.61
489.309	9067.21
489.512	9022.16
489.716	9149.13
489.92	9118.41
490.124	8952.52
490.328	9169.61
490.531	9040.59
490.735	9269.96
490.939	9294.54
491.143	9319.11
491.346	9204.42
491.55	9339.59
491.754	9390.79
491.958	9247.43
492.161	9550.53
492.365	9401.03
492.569	9556.68
492.772	9374.41
492.976	9614.02
493.18	9411.27
493.383	9949.89
493.587	9794.24
493.79	9999.04
493.994	9808.58
494.197	9964.22
494.401	9968.32
494.605	9929.41
494.808	10179.26
495.012	10150.59
495.215	10214.07
495.419	10318.52
495.622	10275.51
495.825	10562.23
496.029	10451.64
496.232	10609.33
496.436	10789.55
496.639	10924.72
496.843	10523.32
497.046	10928.81
497.249	11033.26
497.453	11209.39
497.656	11131.56
497.859	11268.78
498.063	11410.09
498.266	11770.53
498.469	11659.94
498.673	11614.88
498.876	11960.99
499.079	11989.66
499.282	11834.02
499.485	12235.42
499.689	12538.52
499.892	12563.09
500.095	12513.94
500.298	12763.79
500.501	12808.85
500.705	12909.2
500.908	13365.9
501.111	13259.4
501.314	13312.65
501.517	13388.43
501.72	13787.78
501.923	13767.3
502.126	13965.95
502.329	14226.04
502.532	14197.37
502.735	14402.17
502.938	14654.07
503.141	14783.09
503.344	14926.45
503.547	14957.17
503.75	15346.28
503.953	15549.03
504.156	15528.55
504.359	15768.16
504.562	15618.66
504.765	16106.08
504.968	16407.13
505.17	16577.11
505.373	16263.77
505.576	16665.18
505.779	16941.65
505.982	16929.36
506.185	17306.19
506.387	17107.54
506.59	17537.61
506.793	17783.37
506.996	17883.72
507.198	18256.45
507.401	18041.41
507.604	18455.1
507.807	18864.69
508.009	18876.98
508.212	19059.25
508.415	19155.51
508.617	19505.71
508.82	19601.96
509.022	19694.12
509.225	19958.31
509.428	20376.09
509.63	20408.86
509.833	20435.49
510.035	20886.04
510.238	20865.56
510.44	21123.6
510.643	21453.33
510.845	21606.92
511.048	21590.54
511.25	21875.21
511.453	22086.15
511.655	22725.11
511.858	22516.22
512.06	22573.56
512.262	22874.62
512.465	23118.32
512.667	23132.66
512.87	23402.99
513.072	23560.69
513.274	23839.21
513.477	24252.9
513.679	24390.11
513.881	24637.92
514.084	25086.42
514.286	24883.67
514.488	25242.07
514.69	26282.44
514.893	25858.51
515.095	25956.81
515.297	26110.41
515.499	26614.21
515.701	26921.4
515.904	27097.53
516.106	27333.04
516.308	27271.61
516.51	27873.71
516.712	27900.33
516.914	28293.54
517.116	28551.59
517.318	28791.2
517.52	28594.59
517.722	28717.47
517.925	29344.15
518.127	29864.33
518.329	30036.36
518.531	29827.47
518.733	30343.56
518.935	30529.92
519.136	30611.84
519.338	31160.7
519.54	31111.55
519.742	31883.63
519.944	31568.24
520.146	32160.11
520.348	32321.9
520.55	32715.11
520.752	32149.87
520.954	33134.94
521.155	32717.15
521.357	33184.09
521.559	33460.57
521.761	33784.15
521.963	33993.04
522.164	34453.83
522.366	34521.41
522.568	34660.68
522.77	34904.38
522.971	35184.96
523.173	35133.76
523.375	35232.06
523.576	35367.23
523.778	35719.48
523.98	35979.57
524.181	36274.48
524.383	35924.27
524.584	36784.42
524.786	36243.76
524.988	36589.86
525.189	37028.13
525.391	36809
525.592	37382.43
525.794	37464.35
525.995	37384.47
526.197	37742.87
526.398	37955.86
526.6	38213.9
526.801	38146.32
527.003	38308.11
527.204	38283.53
527.406	38605.06
527.607	38529.29
527.808	39037.19
528.01	38293.77
528.211	39028.99
528.412	39467.26
528.614	39057.67
528.815	38863.11
529.016	39549.18
529.218	39061.76
529.419	39405.82
529.62	39393.53
529.822	39459.07
530.023	39766.26
530.224	39305.47
530.425	39624.95
530.626	39414.01
530.828	39098.62
531.029	40204.53
531.23	39772.41
531.431	39790.84
531.632	40085.75
531.833	40122.61
532.035	39991.54
532.236	39926
532.437	40286.45
532.638	39930.1
532.839	39962.87
533.04	40677.61
533.241	39739.64
533.442	41023.72
533.643	40327.41
533.844	40548.59
534.045	40012.02
534.246	40044.79
534.447	40468.72
534.648	40198.38
534.849	40485.1
535.05	40007.92
535.251	40161.52
535.451	40327.41
535.652	40560.87
535.853	39870.71
536.054	40716.52
536.255	40691.94
536.456	40134.9
536.657	40489.2
536.857	40300.78
537.058	39878.9
537.259	40556.78
537.46	40253.68
537.66	40456.43
537.861	39934.2
538.062	40263.92
538.263	40280.3
538.463	40249.58
538.664	40003.83
538.865	40202.48
539.065	40413.42
539.266	40081.65
539.466	40249.58
539.667	39620.86
539.868	40442.09
540.068	40071.41
540.269	39815.41
540.469	40067.31
540.67	40018.16
540.87	40153.33
541.071	39618.81
541.271	40130.8
541.472	40087.79
541.672	39788.79
541.873	39717.11
542.073	39274.75
542.274	40157.42
542.474	39420.16
542.675	39506.17
542.875	39796.98
543.075	39747.83
543.276	39295.23
543.476	40014.07
543.676	39528.7
543.877	39547.13
544.077	40038.64
544.277	39500.03
544.478	40028.4
544.678	40040.69
544.878	39471.36
545.078	39946.48
545.279	39624.95
545.479	39663.86
545.679	39710.97
545.879	39575.8
546.079	39737.59
546.28	39864.57
546.48	39567.61
546.68	39608.57
546.88	39741.69
547.08	39848.18
547.28	39395.58
547.48	39553.27
547.68	39973.11
547.88	39371
548.081	39680.25
548.281	39536.89
548.481	39258.37
548.681	39821.56
548.881	39237.89
549.081	39717.11
549.28	39153.92
549.48	39729.4
549.68	39862.52
549.88	40138.99
550.08	39303.42
550.28	39649.53
550.48	39764.21
550.68	39543.03
550.88	38936.84
551.08	39104.77
551.279	39514.36
551.479	39184.64
551.679	39332.09
551.879	39207.17
552.079	39278.85
552.278	39348.48
552.478	39409.92
552.678	39520.51
552.878	39665.91
553.077	39416.06
553.277	39274.75
553.477	39813.37
553.676	39379.2
553.876	39246.08
554.076	39299.33
554.275	39252.22
554.475	38580.49
554.674	39201.02
554.874	39188.74
555.074	39207.17
555.273	39328
555.473	39551.23
555.672	38873.35
555.872	38883.59
556.071	39414.01
556.271	39229.69
556.47	38940.93
556.67	38805.77
556.869	38850.82
557.068	38768.9
557.268	38580.49
557.467	39168.26
557.667	38650.12
557.866	38955.27
558.065	38756.61
558.265	38338.83
558.464	38578.44
558.663	38826.24
558.863	38570.25
559.062	39121.15
559.261	38170.89
559.461	38836.48
559.66	38295.82
559.859	38740.23
560.058	38308.11
560.258	38506.76
560.457	38019.35
560.656	38779.14
560.855	38166.8
561.054	38269.2
561.253	38142.22
561.453	38185.23
561.652	38250.77
561.851	38297.87
562.05	37822.74
562.249	37667.09
562.448	38088.98
562.647	38123.79
562.846	37884.18
563.045	38007.06
563.244	37407
563.443	38304.01
563.642	37157.15
563.841	37318.94
564.04	37120.29
564.239	38080.78
564.438	36989.22
564.637	37640.47
564.836	37650.71
565.035	37222.69
565.234	37222.69
565.432	36827.43
565.631	37015.84
565.83	37064.99
566.029	36604.2
566.228	36329.77
566.427	36753.7
566.625	36440.36
566.824	36391.21
567.023	36608.29
567.222	35694.9
567.42	36929.83
567.619	36309.29
567.818	36608.29
568.016	36200.75
568.215	36184.37
568.414	36450.6
568.612	36671.78
568.811	35803.44
569.01	36127.02
569.208	35670.33
569.407	36092.21
569.605	35043.65
569.804	36053.3
570.002	35348.79
570.201	35508.54
570.4	34982.21
570.598	35180.86
570.797	35369.27
570.995	35258.68
571.193	34853.19
571.392	35629.37
571.59	34660.68
571.789	34640.2
571.987	34476.36
572.186	34738.5
572.384	34302.28
572.582	34566.47
572.781	34384.2
572.979	34179.4
573.177	34150.73
573.376	34480.46
573.574	34046.29
573.772	34253.13
573.971	33808.72
574.169	34068.81
574.367	33675.6
574.565	33642.84
574.763	33585.49
574.962	33435.99
575.16	33362.26
575.358	33376.6
575.556	33194.33
575.754	33372.5
575.952	33057.12
576.151	32954.72
576.349	32907.62
576.547	32870.75
576.745	33046.88
576.943	32831.84
577.141	32663.91
577.339	32391.53
577.537	32418.15
577.735	32678.24
577.933	32465.25
578.131	32397.67
578.329	32745.83
578.527	31914.35
578.725	31938.93
578.923	32125.29
579.121	32192.87
579.319	31586.68
579.516	31764.85
579.714	31969.65
579.912	31392.12
580.11	31451.51
580.308	31652.21
580.506	31568.24
580.704	30757.25
580.901	31398.26
581.099	31218.04
581.297	30853.5
581.495	31027.58
581.692	31115.64
581.89	30820.74
582.088	30716.29
582.285	30439.81
582.483	30751.1
582.681	30443.91
582.878	30310.79
583.076	30075.27
583.274	30482.82
583.471	29921.68
583.669	30138.76
583.866	29985.16
584.064	30116.23
584.262	29583.76
584.459	29915.53
584.657	29616.53
584.854	29792.65
585.052	29272.47
585.249	29710.74
585.447	29987.21
585.644	29106.59
585.841	29239.7
586.039	29282.71
586.236	28889.5
586.434	29051.29
586.631	29153.69
586.828	29036.95
587.026	28692.9
587.223	28608.93
587.42	28854.69
587.618	28506.53
587.815	28463.52
588.012	28477.86
588.21	28172.71
588.407	28522.91
588.604	28035.5
588.801	28195.24
588.999	27906.48
589.196	27673.01
589.393	27845.04
589.59	28086.7
589.787	27931.05
589.984	27507.12
590.182	27482.55
590.379	27716.01
590.576	27582.9
590.773	27513.27
590.97	27320.76
591.167	27312.56
591.364	27265.46
591.561	27040.18
591.758	26874.3
591.955	27120.06
592.152	27269.56
592.349	26982.84
592.546	26894.78
592.743	27031.99
592.94	26663.36
593.137	26485.19
593.334	26653.12
593.531	26427.84
593.727	26427.84
593.924	26134.98
594.121	25956.81
594.318	26171.85
594.515	25868.75
594.712	26147.27
594.908	25829.84
595.105	25950.67
595.302	25530.83
595.499	25690.57
595.696	25858.51
595.892	25377.23
596.089	25774.54
596.286	25446.87
596.482	25024.98
596.679	25391.57
596.876	25444.82
597.072	24811.99
597.269	25330.13
597.466	24744.41
597.662	25111
597.859	25121.24
598.055	24760.8
598.252	24637.92
598.448	24728.03
598.645	24816.09
598.841	24400.35
599.038	24545.76
599.234	24183.27
599.431	24109.54
599.627	24156.64
599.824	24330.72
600.02	24013.29
600.217	24084.97
600.413	23904.74
600.609	23771.63
600.806	23757.29
601.002	23935.46
601.198	23908.84
601.395	23767.53
601.591	23644.65
601.787	23661.04
601.984	23368.18
602.18	23794.15
602.376	23319.03
602.572	23224.82
602.769	23341.55
602.965	23020.02
603.161	23247.35
603.357	23179.76
603.553	22860.28
603.75	22958.58
603.946	22897.14
604.142	23007.73
604.338	22548.99
604.534	22847.99
604.73	22483.45
604.926	22458.88
605.122	22514.17
605.318	22176.26
605.514	22147.59
605.71	22237.7
605.906	22596.09
606.102	21973.51
606.298	22211.07
606.494	22166.02
606.69	22100.48
606.886	21873.16
607.082	21664.27
607.278	21912.07
607.474	21803.53
607.67	21975.56
607.866	21230.1
608.062	21778.95
608.257	21404.17
608.453	21449.23
608.649	21828.1
608.845	21400.08
609.041	21703.18
609.236	21541.39
609.432	21334.54
609.628	21232.15
609.824	21402.13
610.019	21127.7
610.215	21201.43
610.411	21142.03
610.606	21127.7
610.802	21160.47
610.998	20957.72
611.193	21047.83
611.389	20918.81
611.584	21146.13
611.78	20695.58
611.976	21041.68
612.171	20941.33
612.367	20658.71
612.562	20535.84
612.758	20791.83
612.953	20283.94
613.149	20685.34
613.344	20335.14
613.539	21119.51
613.735	20486.68
613.93	20761.11
614.126	20433.44
614.321	20617.75
614.517	20615.71
614.712	20488.73
614.907	20249.12
615.103	20417.05
615.298	20126.24
615.493	20509.21
615.688	20042.28
615.884	20566.56
616.079	20007.46
616.274	20177.44
616.47	19593.77
616.665	19972.64
616.86	19814.95
617.055	19913.25
617.25	19900.97
617.445	19915.3
617.641	19393.07
617.836	19720.74
618.031	19323.44
618.226	19675.69
618.421	19479.08
618.616	19845.67
618.811	19321.39
619.006	19745.32
619.201	19163.7
619.396	19407.41
619.591	19100.21
619.786	19163.7
619.981	18952.76
620.176	19053.11
620.371	18516.54
620.566	18909.75
620.761	18594.36
620.956	18911.8
621.151	18469.44
621.346	18813.49
621.541	18352.7
621.735	18451
621.93	17879.62
622.125	18522.68
622.32	18184.77
622.515	17881.67
622.709	17750.6
622.904	17805.89
623.099	17652.3
623.294	17830.47
623.488	17384.01
623.683	17648.2
623.878	17154.64
624.072	17279.57
624.267	17093.2
624.462	17273.42
624.656	16841.3
624.851	17007.19
625.046	16697.94
625.24	16824.92
625.435	16439.9
625.629	16755.29
625.824	16532.06
626.018	16519.77
626.213	16091.74
626.407	16276.06
626.602	15991.39
626.796	16087.65
626.991	15975.01
627.185	16013.92
627.38	15856.23
627.574	15587.94
627.768	15577.7
627.963	15383.15
628.157	15389.29
628.352	15442.54
628.546	15102.57
628.74	15282.8
628.935	15053.42
629.129	14953.07
629.323	14701.17
629.517	14783.09
629.712	14660.21
629.906	14860.91
630.1	14598.77
630.294	14723.7
630.489	14535.29
630.683	14520.95
630.877	14316.15
631.071	14193.28
631.265	14350.97
631.459	14078.59
631.653	13916.8
631.848	13843.07
632.042	13937.28
632.236	14004.86
632.43	13644.42
632.624	13779.59
632.818	13707.91
633.012	13376.14
633.206	13630.09
633.4	13419.14
633.594	13259.4
633.788	13286.03
633.982	13494.92
634.176	13259.4
634.369	12941.97
634.563	12974.74
634.757	12718.74
634.951	12868.24
635.145	13001.36
635.339	12731.03
635.533	12804.75
635.726	12817.04
635.92	12513.94
636.114	12501.65
636.308	12319.39
636.501	12214.94
636.695	12436.12
636.889	12317.34
637.083	12284.57
637.276	12429.98
637.47	11938.46
637.664	12120.73
637.857	12001.95
638.051	11956.89
638.244	11791.01
638.438	11686.56
638.632	11352.74
638.825	11537.06
639.019	11430.57
639.212	11612.84
639.406	11268.78
639.599	11285.16
639.793	11276.97
639.986	11061.93
640.18	11027.12
640.373	11211.43
640.567	11190.95
640.76	11004.59
640.954	10906.29
641.147	10711.73
641.34	10572.47
641.534	10734.26
641.727	10738.35
641.92	10590.9
642.114	10674.87
642.307	10547.89
642.5	10295.99
642.694	10232.51
642.887	10265.27
643.08	10343.1
643.273	10132.15
643.467	10101.44
643.66	10214.07
643.853	10029.76
644.046	9915.07
644.239	10099.39
644.432	9654.98
644.626	9730.75
644.819	9583.3
645.012	9702.08
645.205	9646.79
645.398	9753.28
645.591	9550.53
645.784	9540.29
645.977	9247.43
646.17	9476.8
646.363	9366.21
646.556	9206.47
646.749	9362.12
646.942	9374.41
647.135	9050.83
647.328	9159.37
647.521	8954.57
647.714	9030.35
647.907	8868.56
648.099	9001.68
648.292	9081.55
648.485	8886.99
648.678	8667.86
648.871	8712.91
649.064	8737.49
649.256	8594.13
649.449	8751.82
649.642	8522.45
649.835	8434.39
650.027	8362.71
650.22	8321.75
650.413	8280.79
650.605	8235.74
650.798	8116.95
650.991	8106.71
651.183	8026.84
651.376	8157.91
651.568	8106.71
651.761	7756.51
651.954	7863.01
652.146	7967.45
652.339	8112.86
652.531	7844.57
652.724	7830.24
652.916	7713.5
653.109	7535.33
653.301	7525.09
653.494	7635.68
653.686	7594.72
653.879	7688.93
654.071	7557.86
654.263	7369.44
654.456	7402.21
654.648	7469.8
654.84	7412.45
655.033	7228.14
655.225	7346.92
655.417	7265
655.61	7432.93
655.802	7248.61
655.994	6900.46
656.186	7078.63
656.379	6994.67
656.571	7037.67
656.763	6937.32
656.955	6830.83
657.148	6935.28
657.34	7029.48
657.532	6886.12
657.724	6882.03
657.916	6697.71
658.108	6740.72
658.3	6796.01
658.492	6597.36
658.684	6572.79
658.876	6429.43
659.068	6556.4
659.26	6451.95
659.452	6437.62
659.644	6370.04
659.836	6425.33
660.028	6533.87
660.22	6148.86
660.412	6322.93
660.604	6378.23
660.796	6247.16
660.988	6206.2
661.18	6185.72
661.372	6118.14
661.563	6249.21
661.755	6017.79
661.947	6015.74
662.139	5821.18
662.331	5864.19
662.522	6128.38
662.714	5819.13
662.906	5872.38
663.097	5956.35
663.289	5806.84
663.481	5772.03
663.673	5757.69
663.864	5718.78
664.056	5624.58
664.247	5686.01
664.439	5675.77
664.631	5710.59
664.822	5583.62
665.014	5593.86
665.205	5698.3
665.397	5511.94
665.588	5305.09
665.78	5477.12
665.971	5288.71
666.163	5415.68
666.354	5421.83
666.546	5339.91
666.737	5391.11
666.929	5321.48
667.12	5174.02
667.311	5149.45
667.503	5157.64
667.694	5112.58
667.885	5112.58
668.077	5100.3
668.268	5124.87
668.459	5077.77
668.651	5094.15
668.842	5018.38
669.033	4862.73
669.224	4844.3
669.416	4958.99
669.607	4823.82
669.798	4907.79
669.989	4883.21
670.18	4864.78
670.371	4592.4
670.563	4887.31
670.754	4887.31
670.945	4625.17
671.136	4793.1
671.327	4735.76
671.518	4508.43
671.709	4600.59
671.9	4805.39
672.091	4621.07
672.282	4625.17
672.473	4530.96
672.664	4541.2
672.855	4563.73
673.046	4535.06
673.237	4430.61
673.428	4461.33
673.619	4391.7
673.809	4446.99
674	4506.38
674.191	4420.37
674.382	4371.22
674.573	4363.03
674.764	4469.52
674.954	4240.15
675.145	4311.83
675.336	4281.11
675.527	4340.5
675.717	4295.44
675.908	4209.43
676.099	4147.99
676.289	4029.21
676.48	4201.24
676.671	4109.08
676.861	4098.84
677.052	4109.08
677.243	4074.26
677.433	3969.82
677.624	4188.95
677.814	3937.05
678.005	4096.79
678.195	4070.17
678.386	3922.71
678.576	4049.69
678.767	3914.52
678.957	4010.78
679.148	4027.16
679.338	3947.29
679.529	3978.01
679.719	3791.64
679.909	3916.57
680.1	3781.4
680.29	3830.55
680.481	3904.28
680.671	3928.86
680.861	3685.15
681.052	3875.61
681.242	3814.17
681.432	3750.68
681.622	3752.73
681.813	3658.53
682.003	3707.68
682.193	3734.3
682.383	3865.37
682.573	3646.24
682.764	3691.29
682.954	3773.21
683.144	3736.35
683.334	3603.23
683.524	3658.53
683.714	3556.13
683.904	3564.32
684.094	3588.89
684.284	3562.27
684.474	3601.18
684.664	3574.56
684.854	3494.69
685.044	3404.58
685.234	3576.61
685.424	3453.73
685.614	3558.18
685.804	3537.7
685.994	3468.06
686.184	3545.89
686.374	3451.68
686.564	3463.97
686.753	3388.19
686.943	3265.32
687.133	3302.18
687.323	3314.47
687.513	3351.33
687.702	3283.75
687.892	3275.56
688.082	3351.33
688.272	3347.23
688.461	3265.32
688.651	3218.21
688.841	3314.47
689.03	3330.85
689.22	3089.19
689.41	3212.07
689.599	3207.97
689.789	3185.44
689.979	3142.44
690.168	3332.9
690.358	3177.25
690.547	3136.29
690.737	3113.77
690.926	3187.49
691.116	3130.15
691.305	3105.57
691.495	3150.63
691.684	3068.71
691.874	3101.48
692.063	3023.66
692.252	2974.5
692.442	3081
692.631	3074.85
692.82	3103.53
693.01	3011.37
693.199	2915.11
693.388	3083.05
693.578	2951.98
693.767	2968.36
693.956	2935.59
694.146	3021.61
694.335	2861.87
694.524	2882.35
694.713	2986.79
694.902	2847.53
695.092	2974.5
695.281	2929.45
695.47	2904.87
695.659	3040.04
695.848	2855.72
696.037	2724.65
696.226	2806.57
696.415	2931.5
696.604	2947.88
696.793	2982.7
696.982	2818.86
697.171	2915.11
697.36	2880.3
697.549	2892.59
697.738	2863.91
697.927	2835.24
698.116	2726.7
698.305	2792.23
698.494	2851.63
698.683	2773.8
698.872	2868.01
699.061	2851.63
699.25	2857.77
699.438	2904.87
699.627	2804.52
699.816	2792.23
700.005	2837.29
700.193	2736.94
700.382	2773.8
700.571	2722.6
700.76	2790.19
700.948	2726.7
701.137	2640.69
701.326	2681.64
701.514	2863.91
701.703	2781.99
701.892	2792.23
702.08	2749.23
702.269	2685.74
702.457	2773.8
702.646	2708.27
702.834	2757.42
703.023	2718.51
703.212	2738.99
703.4	2745.13
703.589	2640.69
703.777	2624.3
703.965	2792.23
704.154	2665.26
704.342	2655.02
704.531	2710.32
704.719	2765.61
704.907	2521.9
705.096	2587.44
705.284	2673.45
705.472	2601.77
705.661	2587.44
705.849	2659.12
706.037	2620.21
706.226	2667.31
706.414	2616.11
706.602	2669.36
706.79	2603.82
706.979	2650.92
707.167	2601.77
707.355	2368.31
707.543	2632.49
707.731	2669.36
707.919	2599.73
708.107	2597.68
708.296	2616.11
708.484	2491.18
708.672	2515.76
708.86	2573.1
709.048	2595.63
709.236	2593.58
709.424	2579.25
709.612	2704.17
709.8	2603.82
709.988	2528.05
710.176	2462.51
710.364	2517.81
710.551	2495.28
710.739	2472.75
710.927	2564.91
711.115	2482.99
711.303	2458.42
711.491	2501.42
711.679	2523.95
711.866	2523.95
712.054	2495.28
712.242	2442.03
712.43	2515.76
712.617	2399.02
712.805	2577.2
712.993	2343.73
713.181	2548.53
713.368	2364.21
713.556	2499.38
713.744	2382.64
713.931	2622.25
714.119	2388.78
714.306	2399.02
714.494	2388.78
714.682	2409.26
714.869	2382.64
715.057	2474.8
715.244	2396.98
715.432	2399.02
715.619	2290.48
715.807	2302.77
715.994	2290.48
716.182	2450.22
716.369	2339.63
716.556	2454.32
716.744	2327.35
716.931	2335.54
717.119	2407.22
717.306	2315.06
717.493	2224.95
717.681	2294.58
717.868	2356.02
718.055	2343.73
718.242	2222.9
718.43	2274.1
718.617	2267.95
718.804	2306.87
718.991	2335.54
719.179	2263.86
719.366	2302.77
719.553	2261.81
719.74	2267.95
719.927	2126.64
720.114	2364.21
720.301	2231.09
720.488	2147.12
720.676	2272.05
720.863	2292.53
721.05	2227
721.237	2265.91
721.424	2257.71
721.611	2128.69
721.798	2167.6
721.985	2196.28
722.172	2224.95
722.358	2093.88
722.545	2212.66
722.732	2130.74
722.919	2177.84
723.106	2089.78
723.293	2147.12
723.48	2169.65
723.667	2122.55
723.853	2038.58
724.04	2130.74
724.227	2061.11
724.414	2251.57
724.6	2087.73
724.787	2157.36
724.974	2022.2
725.161	2046.77
725.347	2130.74
725.534	2118.45
725.72	2134.84
725.907	2054.97
726.094	2020.15
726.28	2036.53
726.467	2032.44
726.653	2026.29
726.84	2143.03
727.027	2233.14
727.213	1956.66
727.4	1999.67
727.586	2022.2
727.773	2005.81
727.959	2016.05
728.145	2028.34
728.332	1907.51
728.518	1831.74
728.705	1999.67
728.891	2001.72
729.077	1987.38
729.264	1973.05
729.45	2003.77
729.636	1950.52
729.823	1948.47
730.009	1913.66
730.195	1973.05
730.382	2085.69
730.568	1909.56
730.754	2032.44
730.94	1932.09
731.126	1911.61
731.313	1962.81
731.499	1841.98
731.685	1893.18
731.871	1882.94
732.057	1930.04
732.243	1944.38
732.429	1923.9
732.615	1917.75
732.801	1891.13
732.987	1862.46
733.173	1801.02
733.359	1868.6
733.545	1796.92
733.731	1864.5
733.917	1868.6
734.103	1798.97
734.289	1807.16
734.475	1780.54
734.661	1815.35
734.847	1825.59
735.033	1839.93
735.219	1856.31
735.404	1915.7
735.59	1829.69
735.776	1854.27
735.962	1741.63
736.148	1776.44
736.333	1743.67
736.519	1692.48
736.705	1796.92
736.89	1798.97
737.076	1751.87
737.262	1684.28
737.447	1760.06
737.633	1692.48
737.819	1776.44
738.004	1655.61
738.19	1708.86
738.375	1686.33
738.561	1741.63
738.747	1620.8
738.932	1631.04
739.118	1817.4
739.303	1672
739.489	1758.01
739.674	1581.89
739.859	1577.79
740.045	1653.56
740.23	1647.42
740.416	1684.28
740.601	1643.32
740.786	1686.33
740.972	1540.93
741.157	1624.89
741.342	1583.93
741.528	1631.04
741.713	1585.98
741.898	1555.26
742.084	1635.13
742.269	1624.89
742.454	1608.51
742.639	1649.47
742.824	1545.02
743.01	1555.26
743.195	1616.7
743.38	1528.64
743.565	1512.25
743.75	1542.97
743.935	1553.21
744.12	1553.21
744.305	1438.53
744.49	1495.87
744.675	1456.96
744.86	1426.24
745.045	1618.75
745.23	1465.15
745.415	1522.49
745.6	1549.12
745.785	1508.16
745.97	1389.38
746.155	1430.34
746.34	1334.08
746.525	1413.95
746.71	1436.48
746.895	1432.38
747.079	1352.51
747.264	1364.8
747.449	1317.7
747.634	1301.31
747.819	1413.95
748.003	1262.4
748.188	1307.46
748.373	1319.75
748.557	1295.17
748.742	1282.88
748.927	1264.45
749.111	1303.36
749.296	1229.63
749.481	1303.36
749.665	1268.55
749.85	1286.98
750.034	1299.27
750.219	1291.07
750.404	1129.28
750.588	1211.2
750.773	1319.75
750.957	1233.73
751.141	1143.62
751.326	1170.24
751.51	1211.2
751.695	1225.54
751.879	1184.58
752.064	1213.25
752.248	1153.86
752.432	1112.9
752.617	1184.58
752.801	1049.41
752.985	1198.92
753.17	1110.85
753.354	1069.89
753.538	1229.63
753.722	1149.76
753.907	1065.8
754.091	1008.45
754.275	1012.55
754.459	1071.94
754.643	1102.66
754.828	1061.7
755.012	1119.04
755.196	1063.75
755.38	1069.89
755.564	1063.75
755.748	1071.94
755.932	971.59
756.116	1026.89
756.3	1004.36
756.484	963.4
756.668	1143.62
756.852	916.3
757.036	856.9
757.22	996.17
757.404	922.44
757.588	856.9
757.772	867.14
757.956	963.4
758.14	930.63
758.323	1004.36
758.507	947.01
758.691	940.87
758.875	947.01
759.059	918.34
759.242	942.92
759.426	838.47
759.61	844.62
759.794	832.33
759.977	820.04
760.161	889.67
760.345	836.42
760.528	920.39
760.712	883.53
760.895	815.94
761.079	817.99
761.263	744.27
761.446	822.09
761.63	799.56
761.813	881.48
761.997	768.84
762.18	744.27
762.364	832.33
762.547	893.77
762.731	785.23
762.914	791.37
763.098	783.18
763.281	748.36
763.464	693.07
763.648	740.17
763.831	758.6
764.015	764.75
764.198	760.65
764.381	770.89
764.564	766.79
764.748	840.52
764.931	832.33
765.114	785.23
765.297	719.69
765.481	721.74
765.664	693.07
765.847	793.42
766.03	799.56
766.213	705.35
766.397	709.45
766.58	701.26
766.763	750.41
766.946	697.16
767.129	645.96
767.312	686.92
767.495	758.6
767.678	668.49
767.861	668.49
768.044	762.7
768.227	725.83
768.41	623.44
768.593	727.88
768.776	736.07
768.959	652.11
769.142	705.35
769.324	750.41
769.507	654.16
769.69	744.27
769.873	586.57
770.056	734.03
770.239	742.22
770.421	695.11
770.604	703.31
770.787	684.87
770.97	594.76
771.152	670.54
771.335	697.16
771.518	662.35
771.7	586.57
771.883	693.07
772.066	625.48
772.248	738.12
772.431	635.72
772.613	613.2
772.796	627.53
772.978	621.39
773.161	594.76
773.343	623.44
773.526	674.64
773.708	602.96
773.891	613.2
774.073	629.58
774.256	613.2
774.438	660.3
774.621	564.04
774.803	605
774.985	525.13
775.168	650.06
775.35	600.91
775.532	572.24
775.715	562
775.897	592.72
776.079	537.42
776.261	594.76
776.444	535.37
776.626	562
776.808	512.85
776.99	480.08
777.173	586.57
777.355	566.09
777.537	521.04
777.719	480.08
777.901	525.13
778.083	562
778.265	480.08
778.447	516.94
778.629	430.93
778.811	478.03
778.993	455.5
779.175	512.85
779.357	504.65
779.539	480.08
779.721	482.13
779.903	430.93
780.085	480.08
780.267	441.17
780.449	457.55
780.631	471.89
780.812	533.33
780.994	475.98
781.176	482.13
781.358	418.64
781.54	449.36
781.721	430.93
781.903	478.03
782.085	430.93
782.267	406.35
782.448	437.07
782.63	426.83
782.812	412.5
782.993	406.35
783.175	412.5
783.357	406.35
783.538	506.7
783.72	455.5
783.901	451.41
784.083	353.1
784.264	389.97
784.446	226.13
784.627	365.39
784.809	414.54
784.99	351.06
785.172	312.14
785.353	359.25
785.535	355.15
785.716	330.58
785.897	308.05
786.079	398.16
786.26	373.58
786.441	361.3
786.623	332.62
786.804	365.39
786.985	344.91
787.167	404.3
787.348	283.47
787.529	381.78
787.71	344.91
787.891	287.57
788.073	324.43
788.254	303.95
788.435	351.06
788.616	351.06
788.797	273.23
788.978	340.82
789.159	285.52
789.34	344.91
789.522	295.76
789.703	324.43
789.884	219.99
790.065	357.2
790.246	308.05
790.427	295.76
790.607	312.14
790.788	357.2
790.969	246.61
791.15	258.9
791.331	297.81
791.512	295.76
791.693	279.38
791.874	295.76
792.054	375.63
792.235	252.75
792.416	217.94
792.597	301.9
792.778	246.61
792.958	242.51
793.139	187.22
793.32	258.9
793.5	301.9
793.681	242.51
793.862	283.47
794.042	254.8
794.223	242.51
794.404	246.61
794.584	238.42
794.765	230.23
794.945	195.41
795.126	320.34
795.306	316.24
795.487	205.65
795.667	236.37
795.848	269.14
796.028	144.21
796.209	203.6
796.389	203.6
796.57	109.4
796.75	187.22
796.93	201.55
797.111	209.75
797.291	201.55
797.471	213.84
797.652	146.26
797.832	170.83
798.012	234.32
798.192	244.56
798.373	234.32
798.553	236.37
798.733	308.05
798.913	217.94
799.093	103.25
799.274	193.36
799.454	267.09
799.634	183.12
799.814	240.47
799.994	187.22
800.174	205.65
800.354	115.54
800.534	162.64
800.714	176.98
800.894	181.07
801.074	113.49
801.254	152.4
801.434	189.27
801.614	115.54
801.794	189.27
801.974	795.47
802.154	179.03
802.334	222.03
802.514	234.32
802.693	144.21
802.873	201.55
803.053	117.59
803.233	199.51
803.413	226.13
803.592	138.07
803.772	174.93
803.952	156.5
804.131	187.22
804.311	234.32
804.491	179.03
804.67	191.31
804.85	131.92
805.03	172.88
805.209	170.83
805.389	189.27
805.568	56.15
805.748	189.27
805.928	246.61
806.107	136.02
806.287	168.79
806.466	50
806.646	191.31
806.825	193.36
807.004	224.08
807.184	170.83
807.363	144.21
807.543	183.12
807.722	136.02
807.901	254.8
808.081	172.88
808.26	136.02
808.439	121.68
808.619	127.83
808.798	146.26
808.977	90.96
809.156	230.23
809.336	117.59
809.515	133.97
809.694	146.26
809.873	82.77
810.052	148.31
810.231	127.83
810.411	127.83
810.59	95.06
810.769	121.68
810.948	150.36
811.127	156.5
811.306	172.88
811.485	129.88
811.664	205.65
811.843	201.55
812.022	105.3
812.201	107.35
812.38	131.92
812.559	121.68
812.737	119.64
812.916	11.09
813.095	187.22
813.274	189.27
813.453	121.68
813.632	111.44
813.811	144.21
813.989	78.68
814.168	154.45
814.347	90.96
814.526	154.45
814.704	86.87
814.883	179.03
815.062	86.87
815.24	119.64
815.419	70.48
815.598	162.64
815.776	9.05
815.955	101.2
816.133	31.57
816.312	121.68
816.49	97.11
816.669	105.3
816.847	103.25
817.026	70.48
817.204	99.16
817.383	29.52
817.561	148.31
817.74	113.49
817.918	117.59
818.097	105.3
818.275	119.64
818.453	64.34
818.632	99.16
818.81	74.58
818.988	39.76
819.167	54.1
819.345	111.44
819.523	64.34
819.701	103.25
819.879	154.45
820.058	119.64
820.236	109.4
820.414	115.54
820.592	162.64
820.77	111.44
820.948	68.44
821.127	66.39
821.305	136.02
821.483	62.29
821.661	172.88
821.839	0.85
822.017	-7.34
822.195	97.11
822.373	144.21
822.551	78.68
822.729	127.83
822.907	17.24
823.085	60.24
823.262	78.68
823.44	140.12
823.618	109.4
823.796	50
823.974	113.49
824.152	101.2
824.329	127.83
824.507	95.06
824.685	39.76
824.863	103.25
825.04	115.54
825.218	127.83
825.396	209.75
825.574	101.2
825.751	88.92
825.929	80.72
826.107	80.72
826.284	23.38
826.462	66.39
826.639	99.16
826.817	39.76
826.994	4.95
827.172	33.62
827.349	160.59
827.527	29.52
827.704	90.96
827.882	82.77
828.059	27.48
828.237	35.67
828.414	95.06
828.591	39.76
828.769	76.63
828.946	62.29
829.124	160.59
829.301	17.24
829.478	35.67
829.655	72.53
829.833	103.25
830.01	45.91
830.187	4.95
830.364	78.68
830.542	15.19
830.719	111.44
830.896	80.72
831.073	29.52
831.25	131.92
831.427	25.43
831.604	39.76
831.782	101.2
831.959	39.76
832.136	127.83
832.313	70.48
832.49	39.76
832.667	82.77
832.844	17.24
833.021	78.68
833.198	47.96
833.374	23.38
833.551	95.06
833.728	62.29
833.905	72.53
834.082	50
834.259	11.09
834.436	131.92
834.612	97.11
834.789	78.68
834.966	15.19
835.143	64.34
835.319	-5.29
835.496	66.39
835.673	47.96
835.85	121.68
836.026	23.38
836.203	111.44
836.38	37.72
836.556	60.24
836.733	11.09
836.909	66.39
837.086	78.68
837.262	9.05
837.439	60.24
837.616	7
837.792	-11.43
837.968	70.48
838.145	-33.96
838.321	-3.24
838.498	37.72
838.674	33.62
838.851	29.52
839.027	-36.01
839.203	88.92
839.38	62.29
839.556	54.1
839.732	7
839.909	15.19
840.085	80.72
840.261	19.29
840.437	80.72
840.614	52.05
840.79	107.35
840.966	103.25
841.142	-3.24
841.318	33.62
841.494	13.14
841.671	62.29
841.847	-36.01
842.023	-29.87
842.199	62.29
842.375	78.68
842.551	-72.87
842.727	-36.01
842.903	107.35
843.079	47.96
843.255	21.33
843.431	82.77
843.607	70.48
843.783	35.67
843.959	45.91
844.134	72.53
844.31	105.3
844.486	97.11
844.662	58.2
844.838	17.24
845.013	15.19
845.189	64.34
845.365	66.39
845.541	9.05
845.716	117.59
845.892	56.15
846.068	25.43
846.244	-70.83
846.419	37.72
846.595	21.33
846.77	21.33
846.946	60.24
847.122	-50.35
847.297	31.57
847.473	37.72
847.648	23.38
847.824	23.38
847.999	-54.44
848.175	29.52
848.35	-48.3
848.526	7
848.701	88.92
848.876	88.92
849.052	7
849.227	41.81
849.403	21.33
849.578	13.14
849.753	64.34
849.929	-19.63
850.104	-15.53
850.279	103.25
850.454	60.24
850.63	9.05
850.805	27.48
850.98	86.87
851.155	11.09
851.33	113.49
851.505	-15.53
851.681	2.9
851.856	45.91
852.031	52.05
852.206	95.06
852.381	-9.39
852.556	4.95
852.731	86.87
852.906	156.5
853.081	-7.34
853.256	43.86
853.431	107.35
853.606	-27.82
853.781	23.38
853.956	-36.01
854.131	15.19
854.305	43.86
854.48	66.39
854.655	0.85
854.83	56.15
855.005	43.86
855.18	47.96
855.354	-89.26
855.529	29.52
855.704	62.29
855.879	45.91
856.053	-62.63
856.228	54.1
856.403	29.52
856.577	37.72
856.752	-3.24
856.926	45.91
857.101	21.33
857.276	41.81
857.45	-7.34
857.625	47.96
857.799	-11.43
857.974	0.85
858.148	-52.39
858.323	15.19
858.497	-54.44
858.672	54.1
858.846	-36.01
859.02	15.19
859.195	13.14
859.369	78.68
859.543	21.33
859.718	15.19
859.892	11.09
860.066	39.76
860.241	-19.63
860.415	-19.63
860.589	-7.34
860.763	9.05
860.938	33.62
861.112	47.96
861.286	-40.11
861.46	0.85
861.634	78.68
861.808	0.85
861.982	-36.01
862.157	-7.34
862.331	72.53
862.505	-56.49
862.679	-11.43
862.853	27.48
863.027	-25.77
863.201	37.72
863.375	15.19
863.549	-3.24
863.722	25.43
863.896	13.14
864.07	19.29
864.244	109.4
864.418	37.72
864.592	23.38
864.766	95.06
864.939	13.14
865.113	-27.82
865.287	56.15
865.461	37.72
865.634	4.95
865.808	4.95
865.982	4.95
866.156	33.62
866.329	-44.2
866.503	-33.96
866.676	37.72
866.85	78.68
867.024	-58.54
867.197	80.72
867.371	17.24
867.544	95.06
867.718	-11.43
867.891	9.05
868.065	9.05
868.238	11.09
868.412	-19.63
868.585	11.09
868.759	13.14
868.932	95.06
869.105	-25.77
869.279	21.33
869.452	21.33
869.625	-48.3
869.799	88.92
869.972	-19.63
870.145	-54.44
870.319	56.15
870.492	21.33
870.665	-3.24
870.838	-48.3
871.011	-36.01
871.185	31.57
871.358	11.09
871.531	35.67
871.704	-9.39
871.877	54.1
872.05	-44.2
872.223	-19.63
872.396	45.91
872.569	33.62
872.742	23.38
872.915	45.91
873.088	-15.53
873.261	-1.19
873.434	43.86
873.607	56.15
873.78	23.38
873.953	-21.67
874.126	25.43
874.299	-3.24
874.471	-1.19
874.644	37.72
874.817	37.72
874.99	115.54
875.163	45.91
875.335	-46.25
875.508	-40.11
875.681	7
875.853	17.24
876.026	39.76
876.199	54.1
876.371	4.95
876.544	43.86
876.717	50
876.889	-44.2
877.062	-25.77
877.234	27.48
877.407	39.76
877.579	23.38
877.752	7
877.924	25.43
878.097	-3.24
878.269	4.95
878.442	15.19
878.614	33.62
878.786	4.95
878.959	97.11
879.131	35.67
879.303	-58.54
879.476	13.14
879.648	62.29
879.82	56.15
879.993	45.91
880.165	21.33
880.337	-74.92
880.509	21.33
880.681	-7.34
880.854	4.95
881.026	56.15
881.198	0.85
881.37	31.57
881.542	-21.67
881.714	-11.43
881.886	-58.54
882.058	88.92
882.23	-50.35
882.402	27.48
882.574	31.57
882.746	70.48
882.918	27.48
883.09	-31.91
883.262	35.67
883.434	31.57
883.606	0.85
883.778	-36.01
883.95	7
884.122	29.52
884.293	-50.35
884.465	13.14
884.637	7
884.809	-40.11
884.98	21.33
885.152	29.52
885.324	-19.63
885.496	-15.53
885.667	-23.72
885.839	21.33
886.011	31.57
886.182	-56.49
886.354	9.05
886.525	-36.01
886.697	21.33
886.869	-27.82
887.04	-21.67
887.212	37.72
887.383	86.87
887.555	-23.72
887.726	31.57
887.897	13.14
888.069	-44.2
888.24	52.05
888.412	-23.72
888.583	29.52
888.754	31.57
888.926	-66.73
889.097	-17.58
889.268	-70.83
889.44	-1.19
889.611	-89.26
889.782	-27.82
889.953	-17.58
890.125	62.29
890.296	-9.39
890.467	95.06
890.638	-7.34
890.809	29.52
890.98	54.1
891.151	-7.34
891.323	66.39
891.494	-40.11
891.665	15.19
891.836	-23.72
892.007	-3.24
892.178	-7.34
892.349	64.34
892.52	82.77
892.691	35.67
892.862	33.62
893.032	23.38
893.203	29.52
893.374	37.72
893.545	23.38
893.716	21.33
893.887	-13.48
894.057	31.57
894.228	23.38
894.399	21.33
894.57	37.72
894.74	-23.72
894.911	15.19
895.082	31.57
895.253	45.91
895.423	47.96
895.594	23.38
895.764	60.24
895.935	15.19
896.106	-66.73
896.276	78.68
896.447	-15.53
896.617	13.14
896.788	41.81
896.958	-83.11
897.129	-9.39
897.299	4.95
897.47	-23.72
897.64	62.29
897.81	-109.74
897.981	7
898.151	-81.07
898.322	31.57
898.492	-25.77
898.662	-31.91
898.832	4.95
899.003	13.14
899.173	-7.34
899.343	-33.96
899.513	13.14
