Data from USB4F104151__68__14-17-19-114.txt Node

Date: Thu Mar 13 14:17:19 EDT 2025
User: louis
Spectrometer: USB4F10415
Trigger mode: 4
Integration Time (sec): 2.000000E-2
Scans to average: 1
Electric dark correction enabled: true
Nonlinearity correction enabled: false
Boxcar width: 0
XAxis mode: Wavelengths
Number of Pixels in Spectrum: 3648
>>>>>Begin Spectral Data<<<<<
178.204	-124.24
178.424	-124.24
178.644	-124.24
178.864	-73.04
179.084	-99.67
179.304	-79.19
179.524	-13.65
179.744	53.93
179.964	29.35
180.184	-32.08
180.404	10.92
180.624	-13.65
180.844	25.26
181.064	4.78
181.283	8.87
181.503	-62.8
181.723	68.27
181.943	-64.85
182.163	41.64
182.383	15.02
182.602	76.46
182.822	66.22
183.042	47.79
183.262	12.97
183.482	43.69
183.701	25.26
183.921	-11.61
184.141	-13.65
184.361	109.23
184.58	25.26
184.8	115.37
185.02	17.07
185.239	37.55
185.459	12.97
185.679	80.55
185.898	12.97
186.118	80.55
186.338	82.6
186.557	113.32
186.777	-40.28
186.997	-3.41
187.216	49.83
187.436	78.51
187.655	74.41
187.875	78.51
188.095	-3.41
188.314	10.92
188.534	41.64
188.753	76.46
188.973	62.12
189.192	41.64
189.412	74.41
189.631	113.32
189.851	98.99
190.07	84.65
190.29	35.5
190.509	25.26
190.729	82.6
190.948	68.27
191.168	82.6
191.387	70.31
191.607	8.87
191.826	66.22
192.045	27.31
192.265	-13.65
192.484	27.31
192.704	2.73
192.923	17.07
193.142	53.93
193.362	109.23
193.581	103.08
193.8	94.89
194.02	94.89
194.239	37.55
194.458	12.97
194.678	94.89
194.897	6.83
195.116	10.92
195.335	8.87
195.555	96.94
195.774	19.11
195.993	80.55
196.212	-34.13
196.432	39.59
196.651	64.17
196.87	-3.41
197.089	111.27
197.308	35.5
197.528	10.92
197.747	76.46
197.966	51.88
198.185	133.8
198.404	-3.41
198.623	21.16
198.842	90.79
199.062	23.21
199.281	74.41
199.5	29.35
199.719	17.07
199.938	17.07
200.157	64.17
200.376	41.64
200.595	66.22
200.814	23.21
201.033	0.68
201.252	35.5
201.471	33.45
201.69	80.55
201.909	-9.56
202.128	41.64
202.347	55.98
202.566	-11.61
202.785	41.64
203.004	31.4
203.223	78.51
203.442	72.36
203.661	27.31
203.879	2.73
204.098	137.9
204.317	-7.51
204.536	64.17
204.755	76.46
204.974	62.12
205.193	51.88
205.411	103.08
205.63	55.98
205.849	82.6
206.068	49.83
206.287	-15.7
206.505	119.46
206.724	31.4
206.943	117.42
207.162	41.64
207.381	94.89
207.599	43.69
207.818	41.64
208.037	53.93
208.255	-5.46
208.474	66.22
208.693	60.07
208.911	-11.61
209.13	115.37
209.349	51.88
209.567	51.88
209.786	-7.51
210.005	23.21
210.223	101.03
210.442	127.66
210.661	139.94
210.879	27.31
211.098	12.97
211.316	-48.47
211.535	66.22
211.753	49.83
211.972	98.99
212.191	35.5
212.409	33.45
212.628	10.92
212.846	35.5
213.065	90.79
213.283	25.26
213.502	-23.89
213.72	-34.13
213.938	53.93
214.157	78.51
214.375	74.41
214.594	-11.61
214.812	47.79
215.031	49.83
215.249	27.31
215.467	0.68
215.686	21.16
215.904	101.03
216.122	92.84
216.341	113.32
216.559	47.79
216.778	-15.7
216.996	117.42
217.214	27.31
217.432	19.11
217.651	43.69
217.869	45.74
218.087	-44.37
218.306	33.45
218.524	125.61
218.742	64.17
218.96	74.41
219.179	45.74
219.397	-7.51
219.615	117.42
219.833	19.11
220.051	103.08
220.27	58.03
220.488	66.22
220.706	76.46
220.924	43.69
221.142	-1.37
221.36	43.69
221.578	43.69
221.796	58.03
222.015	78.51
222.233	33.45
222.451	33.45
222.669	-11.61
222.887	49.83
223.105	12.97
223.323	125.61
223.541	2.73
223.759	131.75
223.977	-44.37
224.195	107.18
224.413	70.31
224.631	66.22
224.849	41.64
225.067	33.45
225.285	-7.51
225.503	66.22
225.721	-40.28
225.939	29.35
226.157	74.41
226.375	150.18
226.592	-7.51
226.81	113.32
227.028	84.65
227.246	74.41
227.464	62.12
227.682	8.87
227.9	37.55
228.117	94.89
228.335	86.7
228.553	33.45
228.771	39.59
228.989	0.68
229.206	72.36
229.424	-21.84
229.642	4.78
229.86	25.26
230.077	37.55
230.295	64.17
230.513	74.41
230.731	49.83
230.948	41.64
231.166	49.83
231.384	70.31
231.601	-11.61
231.819	115.37
232.037	74.41
232.254	8.87
232.472	35.5
232.689	92.84
232.907	41.64
233.125	33.45
233.342	68.27
233.56	35.5
233.777	35.5
233.995	49.83
234.213	51.88
234.43	25.26
234.648	37.55
234.865	-15.7
235.083	2.73
235.3	21.16
235.518	47.79
235.735	90.79
235.953	119.46
236.17	33.45
236.388	62.12
236.605	29.35
236.822	92.84
237.04	123.56
237.257	70.31
237.475	0.68
237.692	51.88
237.909	144.04
238.127	60.07
238.344	0.68
238.562	35.5
238.779	19.11
238.996	-23.89
239.214	35.5
239.431	68.27
239.648	47.79
239.865	43.69
240.083	84.65
240.3	123.56
240.517	-13.65
240.735	49.83
240.952	15.02
241.169	70.31
241.386	17.07
241.603	53.93
241.821	37.55
242.038	62.12
242.255	0.68
242.472	12.97
242.689	68.27
242.907	119.46
243.124	17.07
243.341	29.35
243.558	72.36
243.775	-3.41
243.992	-56.66
244.209	-3.41
244.426	82.6
244.643	12.97
244.86	60.07
245.078	86.7
245.295	47.79
245.512	66.22
245.729	53.93
245.946	21.16
246.163	60.07
246.38	17.07
246.597	62.12
246.814	74.41
247.031	25.26
247.248	41.64
247.464	-30.04
247.681	101.03
247.898	35.5
248.115	31.4
248.332	12.97
248.549	66.22
248.766	82.6
248.983	10.92
249.2	45.74
249.417	37.55
249.633	-23.89
249.85	17.07
250.067	74.41
250.284	-13.65
250.501	21.16
250.717	49.83
250.934	35.5
251.151	68.27
251.368	94.89
251.585	74.41
251.801	51.88
252.018	25.26
252.235	12.97
252.451	43.69
252.668	37.55
252.885	131.75
253.102	68.27
253.318	82.6
253.535	-7.51
253.752	35.5
253.968	66.22
254.185	41.64
254.401	86.7
254.618	84.65
254.835	51.88
255.051	107.18
255.268	-1.37
255.484	12.97
255.701	27.31
255.917	27.31
256.134	8.87
256.351	131.75
256.567	58.03
256.784	58.03
257	29.35
257.217	78.51
257.433	62.12
257.65	27.31
257.866	27.31
258.082	17.07
258.299	47.79
258.515	58.03
258.732	17.07
258.948	66.22
259.165	29.35
259.381	94.89
259.597	66.22
259.814	17.07
260.03	35.5
260.246	60.07
260.463	76.46
260.679	47.79
260.895	35.5
261.112	68.27
261.328	25.26
261.544	-36.18
261.761	92.84
261.977	74.41
262.193	33.45
262.409	58.03
262.626	96.94
262.842	49.83
263.058	84.65
263.274	66.22
263.49	94.89
263.707	82.6
263.923	86.7
264.139	-1.37
264.355	17.07
264.571	70.31
264.787	101.03
265.004	74.41
265.22	8.87
265.436	41.64
265.652	92.84
265.868	119.46
266.084	49.83
266.3	51.88
266.516	-3.41
266.732	84.65
266.948	-34.13
267.164	41.64
267.38	17.07
267.596	53.93
267.812	60.07
268.028	66.22
268.244	86.7
268.46	41.64
268.676	2.73
268.892	51.88
269.108	43.69
269.324	49.83
269.54	-60.76
269.756	82.6
269.972	-30.04
270.188	92.84
270.403	60.07
270.619	90.79
270.835	-17.75
271.051	-11.61
271.267	-1.37
271.483	8.87
271.698	74.41
271.914	17.07
272.13	27.31
272.346	12.97
272.562	60.07
272.777	31.4
272.993	4.78
273.209	-15.7
273.425	27.31
273.64	94.89
273.856	55.98
274.072	49.83
274.287	19.11
274.503	92.84
274.719	68.27
274.934	19.11
275.15	15.02
275.366	119.46
275.581	92.84
275.797	47.79
276.012	41.64
276.228	8.87
276.444	86.7
276.659	82.6
276.875	-11.61
277.09	0.68
277.306	2.73
277.521	0.68
277.737	25.26
277.952	74.41
278.168	74.41
278.383	66.22
278.599	41.64
278.814	86.7
279.03	45.74
279.245	107.18
279.461	-9.56
279.676	55.98
279.892	-13.65
280.107	-15.7
280.322	2.73
280.538	131.75
280.753	8.87
280.969	76.46
281.184	82.6
281.399	70.31
281.615	27.31
281.83	21.16
282.045	12.97
282.26	74.41
282.476	74.41
282.691	49.83
282.906	33.45
283.122	19.11
283.337	-7.51
283.552	94.89
283.767	-15.7
283.983	82.6
284.198	19.11
284.413	82.6
284.628	-11.61
284.843	66.22
285.058	10.92
285.274	25.26
285.489	27.31
285.704	70.31
285.919	66.22
286.134	58.03
286.349	-38.23
286.564	-21.84
286.779	25.26
286.995	82.6
287.21	131.75
287.425	90.79
287.64	-3.41
287.855	117.42
288.07	49.83
288.285	29.35
288.5	96.94
288.715	58.03
288.93	119.46
289.145	84.65
289.36	19.11
289.575	35.5
289.79	49.83
290.004	66.22
290.219	66.22
290.434	51.88
290.649	76.46
290.864	80.55
291.079	53.93
291.294	66.22
291.509	21.16
291.724	76.46
291.938	-7.51
292.153	-40.28
292.368	25.26
292.583	35.5
292.798	-9.56
293.012	144.04
293.227	107.18
293.442	8.87
293.657	25.26
293.871	176.81
294.086	35.5
294.301	125.61
294.516	74.41
294.73	68.27
294.945	-7.51
295.16	35.5
295.374	74.41
295.589	19.11
295.804	68.27
296.018	131.75
296.233	74.41
296.447	90.79
296.662	-27.99
296.877	33.45
297.091	35.5
297.306	17.07
297.52	49.83
297.735	25.26
297.949	-21.84
298.164	35.5
298.378	31.4
298.593	35.5
298.807	2.73
299.022	35.5
299.236	68.27
299.451	37.55
299.665	19.11
299.88	19.11
300.094	31.4
300.309	-3.41
300.523	66.22
300.737	-15.7
300.952	60.07
301.166	90.79
301.381	35.5
301.595	41.64
301.809	-7.51
302.024	58.03
302.238	-1.37
302.452	66.22
302.667	107.18
302.881	98.99
303.095	70.31
303.309	39.59
303.524	53.93
303.738	109.23
303.952	6.83
304.166	43.69
304.381	-11.61
304.595	78.51
304.809	-7.51
305.023	78.51
305.237	53.93
305.452	12.97
305.666	131.75
305.88	41.64
306.094	66.22
306.308	41.64
306.522	25.26
306.736	64.17
306.95	68.27
307.164	123.56
307.379	76.46
307.593	55.98
307.807	68.27
308.021	82.6
308.235	-15.7
308.449	58.03
308.663	4.78
308.877	92.84
309.091	58.03
309.305	33.45
309.519	-42.32
309.733	109.23
309.947	-60.76
310.161	-1.37
310.374	78.51
310.588	60.07
310.802	78.51
311.016	64.17
311.23	82.6
311.444	51.88
311.658	29.35
311.872	92.84
312.085	47.79
312.299	125.61
312.513	19.11
312.727	-9.56
312.941	94.89
313.154	135.85
313.368	121.51
313.582	51.88
313.796	131.75
314.009	-17.75
314.223	33.45
314.437	43.69
314.651	47.79
314.864	33.45
315.078	144.04
315.292	2.73
315.505	49.83
315.719	35.5
315.933	35.5
316.146	33.45
316.36	-7.51
316.573	150.18
316.787	41.64
317.001	68.27
317.214	-85.33
317.428	70.31
317.641	35.5
317.855	76.46
318.068	17.07
318.282	96.94
318.495	70.31
318.709	17.07
318.922	6.83
319.136	148.14
319.349	66.22
319.563	64.17
319.776	33.45
319.99	8.87
320.203	90.79
320.417	51.88
320.63	49.83
320.843	123.56
321.057	111.27
321.27	62.12
321.483	60.07
321.697	62.12
321.91	41.64
322.124	70.31
322.337	27.31
322.55	10.92
322.763	27.31
322.977	33.45
323.19	6.83
323.403	68.27
323.617	17.07
323.83	76.46
324.043	68.27
324.256	45.74
324.469	23.21
324.683	68.27
324.896	58.03
325.109	-40.28
325.322	27.31
325.535	-7.51
325.748	131.75
325.962	88.75
326.175	37.55
326.388	74.41
326.601	33.45
326.814	45.74
327.027	58.03
327.24	17.07
327.453	39.59
327.666	60.07
327.879	62.12
328.092	31.4
328.305	25.26
328.518	49.83
328.731	49.83
328.944	68.27
329.157	35.5
329.37	68.27
329.583	43.69
329.796	72.36
330.009	6.83
330.222	62.12
330.435	41.64
330.648	98.99
330.861	84.65
331.073	70.31
331.286	123.56
331.499	80.55
331.712	-13.65
331.925	60.07
332.138	45.74
332.35	121.51
332.563	72.36
332.776	123.56
332.989	47.79
333.202	60.07
333.414	45.74
333.627	68.27
333.84	70.31
334.053	55.98
334.265	70.31
334.478	29.35
334.691	53.93
334.903	66.22
335.116	66.22
335.329	94.89
335.541	62.12
335.754	82.6
335.966	8.87
336.179	156.33
336.392	0.68
336.604	98.99
336.817	92.84
337.029	27.31
337.242	-9.56
337.454	101.03
337.667	123.56
337.88	94.89
338.092	45.74
338.305	133.8
338.517	-13.65
338.729	113.32
338.942	105.13
339.154	39.59
339.367	8.87
339.579	105.13
339.792	31.4
340.004	105.13
340.217	27.31
340.429	74.41
340.641	15.02
340.854	10.92
341.066	2.73
341.278	35.5
341.491	135.85
341.703	62.12
341.915	-36.18
342.128	8.87
342.34	58.03
342.552	62.12
342.764	84.65
342.977	107.18
343.189	17.07
343.401	58.03
343.613	10.92
343.826	12.97
344.038	58.03
344.25	96.94
344.462	76.46
344.674	117.42
344.886	47.79
345.099	80.55
345.311	23.21
345.523	68.27
345.735	37.55
345.947	74.41
346.159	-7.51
346.371	53.93
346.583	53.93
346.795	84.65
347.007	135.85
347.219	49.83
347.431	78.51
347.643	113.32
347.855	-3.41
348.067	78.51
348.279	21.16
348.491	64.17
348.703	88.75
348.915	53.93
349.127	90.79
349.339	107.18
349.551	96.94
349.763	53.93
349.975	25.26
350.187	119.46
350.399	88.75
350.61	82.6
350.822	-17.75
351.034	53.93
351.246	45.74
351.458	98.99
351.669	41.64
351.881	47.79
352.093	72.36
352.305	66.22
352.517	76.46
352.728	84.65
352.94	101.03
353.152	98.99
353.363	25.26
353.575	78.51
353.787	98.99
353.999	101.03
354.21	80.55
354.422	10.92
354.633	41.64
354.845	41.64
355.057	35.5
355.268	21.16
355.48	111.27
355.692	88.75
355.903	45.74
356.115	58.03
356.326	58.03
356.538	82.6
356.749	27.31
356.961	78.51
357.172	74.41
357.384	19.11
357.595	105.13
357.807	23.21
358.018	58.03
358.23	70.31
358.441	58.03
358.653	45.74
358.864	119.46
359.075	166.57
359.287	68.27
359.498	62.12
359.709	125.61
359.921	35.5
360.132	51.88
360.344	92.84
360.555	25.26
360.766	90.79
360.977	19.11
361.189	66.22
361.4	58.03
361.611	72.36
361.823	139.94
362.034	62.12
362.245	37.55
362.456	119.46
362.667	113.32
362.879	53.93
363.09	88.75
363.301	45.74
363.512	82.6
363.723	78.51
363.935	8.87
364.146	58.03
364.357	96.94
364.568	58.03
364.779	29.35
364.99	86.7
365.201	101.03
365.412	90.79
365.623	121.51
365.834	49.83
366.045	25.26
366.256	49.83
366.467	37.55
366.678	80.55
366.889	-15.7
367.1	70.31
367.311	101.03
367.522	76.46
367.733	53.93
367.944	53.93
368.155	47.79
368.366	33.45
368.577	125.61
368.788	125.61
368.999	133.8
369.209	58.03
369.42	113.32
369.631	144.04
369.842	90.79
370.053	68.27
370.264	90.79
370.474	58.03
370.685	70.31
370.896	58.03
371.107	101.03
371.317	90.79
371.528	107.18
371.739	51.88
371.95	72.36
372.16	94.89
372.371	53.93
372.582	90.79
372.792	96.94
373.003	115.37
373.214	113.32
373.424	10.92
373.635	68.27
373.846	51.88
374.056	29.35
374.267	25.26
374.477	43.69
374.688	82.6
374.898	41.64
375.109	49.83
375.319	74.41
375.53	109.23
375.74	60.07
375.951	121.51
376.161	58.03
376.372	66.22
376.582	58.03
376.793	12.97
377.003	10.92
377.214	58.03
377.424	58.03
377.635	17.07
377.845	43.69
378.055	78.51
378.266	25.26
378.476	150.18
378.686	78.51
378.897	68.27
379.107	117.42
379.317	152.23
379.528	17.07
379.738	25.26
379.948	45.74
380.158	107.18
380.369	101.03
380.579	41.64
380.789	39.59
380.999	62.12
381.21	90.79
381.42	117.42
381.63	15.02
381.84	62.12
382.05	43.69
382.261	84.65
382.471	82.6
382.681	98.99
382.891	133.8
383.101	117.42
383.311	66.22
383.521	-7.51
383.731	92.84
383.941	98.99
384.151	68.27
384.361	111.27
384.571	74.41
384.781	33.45
384.991	180.9
385.201	92.84
385.411	82.6
385.621	41.64
385.831	92.84
386.041	53.93
386.251	141.99
386.461	135.85
386.671	51.88
386.881	76.46
387.091	82.6
387.301	62.12
387.511	125.61
387.72	90.79
387.93	68.27
388.14	-7.51
388.35	41.64
388.56	117.42
388.769	78.51
388.979	115.37
389.189	60.07
389.399	94.89
389.609	62.12
389.818	162.47
390.028	64.17
390.238	96.94
390.447	98.99
390.657	103.08
390.867	94.89
391.076	117.42
391.286	125.61
391.496	82.6
391.705	27.31
391.915	58.03
392.125	101.03
392.334	82.6
392.544	115.37
392.753	76.46
392.963	25.26
393.172	115.37
393.382	33.45
393.591	154.28
393.801	62.12
394.01	131.75
394.22	115.37
394.429	135.85
394.639	185
394.848	115.37
395.058	35.5
395.267	98.99
395.477	90.79
395.686	135.85
395.895	139.94
396.105	141.99
396.314	90.79
396.524	146.09
396.733	119.46
396.942	84.65
397.152	144.04
397.361	86.7
397.57	127.66
397.78	180.9
397.989	74.41
398.198	107.18
398.407	98.99
398.617	66.22
398.826	98.99
399.035	189.1
399.244	117.42
399.453	90.79
399.663	148.14
399.872	168.62
400.081	144.04
400.29	158.38
400.499	51.88
400.708	158.38
400.917	182.95
401.127	135.85
401.336	98.99
401.545	205.48
401.754	101.03
401.963	182.95
402.172	129.7
402.381	107.18
402.59	123.56
402.799	174.76
403.008	131.75
403.217	78.51
403.426	182.95
403.635	101.03
403.844	170.66
404.053	172.71
404.262	166.57
404.471	266.92
404.68	189.1
404.888	133.8
405.097	197.29
405.306	123.56
405.515	123.56
405.724	156.33
405.933	238.25
406.142	144.04
406.35	168.62
406.559	164.52
406.768	279.21
406.977	223.91
407.185	215.72
407.394	207.53
407.603	230.06
407.812	262.82
408.02	385.7
408.229	287.4
408.438	230.06
408.646	215.72
408.855	240.3
409.064	340.65
409.272	213.67
409.481	260.77
409.69	309.93
409.898	271.01
410.107	299.69
410.315	350.89
410.524	324.26
410.733	369.32
410.941	330.41
411.15	475.81
411.358	400.04
411.567	508.58
411.775	397.99
411.984	436.9
412.192	492.2
412.401	508.58
412.609	533.15
412.818	484
413.026	586.4
413.234	582.31
413.443	549.54
413.651	516.77
413.86	545.44
414.068	674.46
414.276	647.84
414.485	570.02
414.693	672.42
414.901	754.34
415.11	768.67
415.318	647.84
415.526	709.28
415.734	746.14
415.943	817.82
416.151	895.64
416.359	901.79
416.567	914.08
416.776	957.08
416.984	895.64
417.192	1020.57
417.4	1002.14
417.608	1098.39
417.817	1071.77
418.025	1090.2
418.233	1256.09
418.441	1057.43
418.649	1229.46
418.857	1354.39
419.065	1348.25
419.273	1325.72
419.481	1313.43
419.689	1483.41
419.897	1458.84
420.105	1514.13
420.313	1569.43
420.521	1632.91
420.729	1684.11
420.937	1741.46
421.145	1755.79
421.353	1811.09
421.561	2030.22
421.769	1960.59
421.977	2087.56
422.185	2105.99
422.393	2228.87
422.601	2306.7
422.809	2394.76
423.017	2280.07
423.224	2425.48
423.432	2466.44
423.64	2460.29
423.848	2671.23
424.056	2728.58
424.263	2804.35
424.471	2951.81
424.679	3037.82
424.887	3027.58
425.094	3244.67
425.302	3279.48
425.51	3277.43
425.718	3566.2
425.925	3500.66
426.133	3580.53
426.341	3805.81
426.548	3877.49
426.756	4006.51
426.964	4035.18
427.171	4342.38
427.379	4313.7
427.586	4352.62
427.794	4424.3
428.001	4649.57
428.209	4915.81
428.417	4889.18
428.624	5143.13
428.832	5302.87
429.039	5177.95
429.247	5225.05
429.454	5651.03
429.662	6062.67
429.869	5710.42
430.076	6013.52
430.284	5833.3
430.491	6339.15
430.699	6595.14
430.906	6625.86
431.114	6765.12
431.321	6810.18
431.528	6920.77
431.736	7393.85
431.943	7758.39
432.15	7516.73
432.358	7588.41
432.565	8036.91
432.772	7938.61
432.979	8356.4
433.187	8665.64
433.394	8579.62
433.601	9179.68
433.808	9333.28
434.016	9048.61
434.223	9400.86
434.43	10179.09
434.637	9763.35
434.844	10717.7
435.052	10625.54
435.259	10623.5
435.466	10766.85
435.673	10592.78
435.88	11270.65
436.087	11930.1
436.294	12151.28
436.501	11608.57
436.708	11889.14
436.915	12440.04
437.122	12806.63
437.329	12634.6
437.537	13218.27
437.743	13580.76
437.95	13320.67
438.157	13787.61
438.364	14287.31
438.571	14391.76
438.778	14748.11
438.985	15882.68
439.192	15210.95
439.399	15667.64
439.606	15157.7
439.813	16146.87
440.02	17101.22
440.227	16742.83
440.433	16765.35
440.64	17232.29
440.847	17222.05
441.054	17764.76
441.261	18821.52
441.467	18682.25
441.674	19091.85
441.881	19884.41
442.088	19650.94
442.294	19237.25
442.501	19804.54
442.708	20261.24
442.914	20932.97
443.121	22079.83
443.328	21387.62
443.534	22999.37
443.741	22333.78
443.948	21688.67
444.154	23226.7
444.361	23249.22
444.568	23814.46
444.774	23613.76
444.981	23810.37
445.187	24207.67
445.394	25760.03
445.6	24994.09
445.807	27185.42
446.013	26202.39
446.22	26976.53
446.426	27949.31
446.633	28186.88
446.839	28969.2
447.046	27883.78
447.252	29311.21
447.459	29698.28
447.665	29309.16
447.871	30658.77
448.078	31885.51
448.284	30382.3
448.491	31324.36
448.697	32471.23
448.903	33149.1
449.11	33034.42
449.316	32745.65
449.522	32608.44
449.728	34031.78
449.935	34429.09
450.141	34072.74
450.347	35197.07
450.553	33816.74
450.76	34519.2
450.966	35645.58
451.172	35020.95
451.378	35874.95
451.584	35401.87
451.791	36343.94
451.997	36233.35
452.203	36464.77
452.409	36829.3
452.615	36511.87
452.821	35131.54
453.027	34979.99
453.233	36905.08
453.44	34982.04
453.646	35571.85
453.852	35856.52
454.058	36456.57
454.264	35330.19
454.47	36429.95
454.676	35256.46
454.882	36374.66
455.088	33304.75
455.294	33585.32
455.5	34164.9
455.705	34621.59
455.911	33204.4
456.117	32467.13
456.323	32348.35
456.529	30652.63
456.735	32155.84
456.941	31187.15
457.147	30730.45
457.352	29460.71
457.558	29202.67
457.764	29417.71
457.97	28926.19
458.176	28211.45
458.381	28315.9
458.587	27066.64
458.793	26652.95
458.999	25481.51
459.204	27472.14
459.41	26851.6
459.616	25016.62
459.821	24973.61
460.027	24863.02
460.233	24383.8
460.438	23019.85
460.644	23232.84
460.85	22358.36
461.055	21823.84
461.261	21815.65
461.466	20201.85
461.672	19669.37
461.878	21129.58
462.083	19718.53
462.289	19452.29
462.494	19339.65
462.7	18231.7
462.905	17807.77
463.111	18502.03
463.316	18571.66
463.522	18035.1
463.727	18166.17
463.932	18031
464.138	17656.22
464.343	18098.58
464.549	17385.89
464.754	18000.28
464.959	17795.48
465.165	17463.71
465.37	16916.9
465.575	16435.63
465.781	17375.65
465.986	17230.24
466.191	16497.07
466.397	16279.99
466.602	15409.6
466.807	16044.47
467.012	16161.2
467.218	16155.06
467.423	16011.7
467.628	16075.19
467.833	16558.51
468.038	15968.69
468.244	15651.26
468.449	16206.26
468.654	15681.98
468.859	15587.77
469.064	15387.07
469.269	14944.71
469.474	15051.21
469.679	15397.31
469.885	14606.8
470.09	15036.87
470.295	14887.37
470.5	14522.83
470.705	14504.4
470.91	14514.64
471.115	14266.83
471.32	14447.05
471.525	14375.38
471.73	13826.52
471.935	14031.32
472.139	13486.56
472.344	13625.82
472.549	13527.52
472.754	13316.58
472.959	13076.96
473.164	12861.93
473.369	12700.14
473.574	13052.39
473.778	13036
473.983	12597.74
474.188	12857.83
474.393	12235.25
474.598	12351.98
474.802	12188.14
475.007	11735.54
475.212	12034.55
475.417	11731.45
475.621	11719.16
475.826	11790.84
476.031	11471.36
476.235	11389.44
476.44	11489.79
476.645	11104.77
476.849	11436.54
477.054	10985.99
477.259	11221.5
477.463	11000.32
477.668	10553.87
477.872	10912.26
478.077	10584.59
478.282	10248.72
478.486	10351.12
478.691	10355.21
478.895	10394.12
479.1	10224.14
479.304	10314.25
479.509	9798.17
479.713	10113.55
479.918	9955.86
480.122	9749.01
480.326	9878.04
480.531	9884.18
480.735	9732.63
480.94	9667.1
481.144	10103.31
481.348	9437.72
481.553	9720.34
481.757	9359.9
481.961	9560.6
482.166	9683.48
482.37	9579.03
482.574	9341.47
482.778	9331.23
482.983	9716.25
483.187	9323.04
483.391	9585.18
483.595	9476.63
483.8	9404.96
484.004	9413.15
484.208	9439.77
484.412	9624.09
484.616	9429.53
484.821	9564.7
485.025	9169.44
485.229	9490.97
485.433	9374.24
485.637	9632.28
485.841	9226.78
486.045	9323.04
486.249	9544.22
486.453	9220.64
486.657	9443.87
486.861	9761.3
487.065	9263.65
487.269	9495.07
487.473	9439.77
487.677	9587.22
487.881	9447.96
488.085	9460.25
488.289	9404.96
488.493	9355.8
488.697	9368.09
488.901	9447.96
489.105	9409.05
489.309	9644.57
489.512	9589.27
489.716	9880.08
489.92	9411.1
490.124	9486.87
490.328	9632.28
490.531	9775.64
490.735	9785.88
490.939	9851.41
491.143	9439.77
491.346	9843.22
491.55	9839.12
491.754	9726.49
491.958	9980.43
492.161	9896.47
492.365	9757.21
492.569	10074.64
492.772	9980.43
492.976	10015.25
493.18	10213.9
493.383	10498.57
493.587	10215.95
493.79	10146.32
493.994	10349.07
494.197	10359.31
494.401	10471.95
494.605	10453.52
494.808	10822.15
495.012	10660.36
495.215	10895.88
495.419	10809.86
495.622	10586.63
495.825	10992.13
496.029	10826.25
496.232	11311.61
496.436	11434.49
496.639	11555.32
496.843	11440.64
497.046	11422.2
497.249	11708.92
497.453	11833.85
497.656	11856.37
497.859	11833.85
498.063	12003.83
498.266	12335.6
498.469	12286.45
498.673	12481
498.876	12481
499.079	12759.53
499.282	12696.04
499.485	12947.94
499.689	12894.69
499.892	13257.18
500.095	13156.83
500.298	13701.59
500.501	13545.95
500.705	13924.82
500.908	13955.54
501.111	14107.09
501.314	14574.03
501.517	14268.88
501.72	14506.45
501.923	14557.64
502.126	14877.13
502.329	15112.64
502.532	15043.01
502.735	15327.68
502.938	15530.43
503.141	15647.16
503.344	15772.09
503.547	15724.99
503.75	16222.64
503.953	16499.12
504.156	16255.41
504.359	16435.63
504.562	16626.09
504.765	17062.31
504.968	17310.11
505.17	17555.87
505.373	17555.87
505.576	17787.29
505.779	17873.31
505.982	18067.86
506.185	18370.96
506.387	18491.79
506.59	18792.84
506.793	18770.32
506.996	18876.81
507.198	19607.94
507.401	19126.66
507.604	19620.22
507.807	19939.71
508.009	20074.87
508.212	20216.18
508.415	20443.51
508.617	20441.46
508.82	20814.19
509.022	20801.9
509.225	21373.28
509.428	21733.73
509.63	21680.48
509.833	21676.38
510.035	22139.22
510.238	22092.12
510.44	22563.15
510.643	22708.56
510.845	23208.26
511.048	22917.45
511.25	23427.4
511.453	23454.02
511.655	24578.36
511.858	23867.71
512.06	24412.47
512.262	24469.81
512.465	24439.09
512.667	24789.3
512.87	25094.44
513.072	25270.57
513.274	25690.4
513.477	25669.92
513.679	26159.39
513.881	26220.83
514.084	26444.06
514.286	26687.76
514.488	26663.19
514.69	27482.38
514.893	27506.95
515.095	27678.98
515.297	28231.93
515.499	28414.2
515.701	28557.56
515.904	28721.4
516.106	28786.93
516.308	29059.31
516.51	29591.78
516.712	29573.35
516.914	29497.58
517.116	30273.76
517.318	30312.67
517.52	30513.37
517.722	30578.9
517.925	31054.03
518.127	31932.61
518.329	31895.75
518.531	31649.99
518.733	32362.68
518.935	32610.49
519.136	32645.3
519.338	32764.09
519.54	33294.51
519.742	33607.85
519.944	33540.27
520.146	34343.07
520.348	33990.82
520.55	34322.59
520.752	34554.01
520.954	35246.22
521.155	34906.26
521.357	35731.59
521.559	35676.3
521.761	36210.82
521.963	36157.57
522.164	36233.35
522.366	36667.52
522.568	37087.35
522.77	36769.91
522.971	37632.11
523.173	37259.38
523.375	37959.78
523.576	37820.52
523.778	37771.37
523.98	38242.4
524.181	38443.1
524.383	38439.01
524.584	39221.33
524.786	39366.74
524.988	38791.26
525.189	39430.22
525.391	39506
525.592	39856.2
525.794	39788.62
525.995	40169.54
526.197	39960.65
526.398	40179.78
526.6	40456.26
526.801	40716.35
527.003	40947.77
527.204	41093.18
527.406	41459.76
527.607	41228.34
527.808	41924.65
528.01	40871.99
528.211	41398.32
528.412	42281
528.614	41549.87
528.815	41998.38
529.016	41992.23
529.218	42061.86
529.419	41869.36
529.62	42762.27
529.822	42344.48
530.023	42541.09
530.224	42553.38
530.425	42516.51
530.626	42256.42
530.828	42344.48
531.029	43175.96
531.23	42674.21
531.431	42799.13
531.632	42907.68
531.833	43366.42
532.035	42792.99
532.236	43364.37
532.437	43264.02
532.638	43188.25
532.839	43290.65
533.04	43399.19
533.241	42915.87
533.442	43677.71
533.643	43626.51
533.844	42924.06
534.045	43446.29
534.246	42780.7
534.447	43597.84
534.648	43499.54
534.849	43538.45
535.05	43145.24
535.251	43800.59
535.451	43061.27
535.652	43690
535.853	43528.21
536.054	43470.87
536.255	43325.46
536.456	43069.47
536.657	43870.22
536.857	43546.64
537.058	43253.78
537.259	44062.73
537.46	43560.98
537.66	43694.1
537.861	43474.96
538.062	43466.77
538.263	43751.44
538.463	43331.61
538.664	43372.56
538.865	43663.38
539.065	43454.48
539.266	43358.23
539.466	43718.67
539.667	42862.62
539.868	43929.61
540.068	43239.45
540.269	43196.44
540.469	43716.62
540.67	43517.97
540.87	43477.01
541.071	43554.83
541.271	43503.63
541.472	43282.45
541.672	43790.35
541.873	43261.97
542.073	42670.11
542.274	43946
542.474	43325.46
542.675	43143.19
542.875	43749.39
543.075	43397.14
543.276	42651.68
543.476	43792.4
543.676	43124.76
543.877	43362.32
544.077	43366.42
544.277	43341.85
544.478	43464.72
544.678	43460.63
544.878	43345.94
545.078	43042.84
545.279	42991.64
545.479	43208.73
545.679	43114.52
545.879	43114.52
546.079	42981.4
546.28	42975.26
546.48	42909.72
546.68	42872.86
546.88	43229.21
547.08	43178.01
547.28	42870.81
547.48	42879
547.68	43178.01
547.88	42768.41
548.081	43618.32
548.281	42674.21
548.481	43370.52
548.681	42870.81
548.881	42985.5
549.081	43173.91
549.28	42653.73
549.48	43218.97
549.68	43106.33
549.88	43171.86
550.08	42532.9
550.28	42946.59
550.48	42737.69
550.68	43096.09
550.88	42917.92
551.08	42627.1
551.279	42938.4
551.479	42371.11
551.679	42631.2
551.879	42629.15
552.079	42989.59
552.278	42780.7
552.478	42608.67
552.678	43132.95
552.878	43075.61
553.077	42608.67
553.277	42027.05
553.477	42848.28
553.676	42774.56
553.876	43087.9
554.076	42113.06
554.275	42541.09
554.475	42389.54
554.674	43012.12
554.874	42661.92
555.074	42092.58
555.273	42682.4
555.473	42637.34
555.672	42000.43
555.872	42031.15
556.071	42242.09
556.271	42455.07
556.47	42235.94
556.67	41701.42
556.869	41834.54
557.068	42299.43
557.268	41959.47
557.467	42313.76
557.667	42055.72
557.866	42160.17
558.065	41699.37
558.265	41844.78
558.464	41760.81
558.663	41945.13
558.863	41465.91
559.062	42252.33
559.261	41797.68
559.461	42012.71
559.66	41644.08
559.859	41556.02
560.058	41519.15
560.258	41285.68
560.457	41193.53
560.656	41484.34
560.855	41345.08
561.054	41564.21
561.253	41130.04
561.453	41289.78
561.652	41271.35
561.851	41328.69
562.05	40964.15
562.249	40714.3
562.448	41080.89
562.647	40591.42
562.846	40710.21
563.045	41179.19
563.244	40349.76
563.443	40831.04
563.642	40142.92
563.841	40597.57
564.04	40040.52
564.239	40630.33
564.438	39876.68
564.637	40155.21
564.836	39970.89
565.035	39678.03
565.234	40218.69
565.432	39694.41
565.631	39622.73
565.83	39706.7
566.029	39571.53
566.228	39544.91
566.427	39850.06
566.625	39295.06
566.824	39372.88
567.023	39417.94
567.222	38885.47
567.42	39712.84
567.619	39233.62
567.818	39043.16
568.016	39252.05
568.215	39327.83
568.414	38901.85
568.612	38932.57
568.811	38705.24
569.01	38758.49
569.208	38248.55
569.407	38793.31
569.605	38129.76
569.804	38140
570.002	37863.53
570.201	38326.37
570.4	37988.46
570.598	38097
570.797	37761.13
570.995	37853.29
571.193	37298.29
571.392	38025.32
571.59	37306.48
571.789	37695.6
571.987	37675.12
572.186	37668.97
572.384	37273.71
572.582	37478.51
572.781	37415.02
572.979	36923.51
573.177	36921.46
573.376	36931.7
573.574	36866.17
573.772	36784.25
573.971	36397.18
574.169	36440.19
574.367	36413.57
574.565	36726.91
574.763	36122.76
574.962	36458.62
575.16	35915.91
575.358	36161.67
575.556	36272.26
575.754	35993.73
575.952	35332.24
576.151	35696.78
576.349	35278.99
576.547	35516.56
576.745	35584.14
576.943	35743.88
577.141	35297.42
577.339	35416.21
577.537	35438.73
577.735	35104.92
577.933	35086.48
578.131	35274.9
578.329	34816.15
578.527	34906.26
578.725	34801.82
578.923	34717.85
579.121	34283.68
579.319	34764.95
579.516	34453.66
579.714	34640.03
579.912	34578.59
580.11	33986.72
580.308	34095.27
580.506	34128.03
580.704	33159.34
580.901	33867.94
581.099	34056.35
581.297	33556.65
581.495	33732.78
581.692	33298.61
581.89	33241.26
582.088	33507.5
582.285	33110.19
582.483	33757.35
582.681	33155.25
582.878	32807.09
583.076	33067.19
583.274	32891.06
583.471	32594.11
583.669	33106.1
583.866	32260.29
584.064	32741.56
584.262	32100.54
584.459	32506.04
584.657	32272.57
584.854	32688.31
585.052	32041.15
585.249	31971.52
585.447	32067.78
585.644	31652.04
585.841	31752.39
586.039	32041.15
586.236	31709.38
586.434	31279.31
586.631	31506.63
586.828	31363.28
587.026	31484.11
587.223	31156.43
587.42	31307.98
587.618	31174.86
587.815	30836.95
588.012	30912.72
588.21	31082.7
588.407	31217.87
588.604	30447.83
588.801	30367.96
588.999	30036.19
589.196	30404.83
589.393	30492.89
589.59	30165.21
589.787	30025.95
589.984	30312.67
590.182	29939.94
590.379	29876.45
590.576	29513.96
590.773	29972.71
590.97	29391.08
591.167	29556.97
591.364	29458.67
591.561	29509.86
591.758	29417.71
591.955	29325.55
592.152	29630.69
592.349	28874.99
592.546	29198.57
592.743	29098.22
592.94	28510.46
593.137	28762.36
593.334	28715.25
593.531	28541.18
593.727	28410.11
593.924	28737.78
594.121	28207.36
594.318	28592.37
594.515	27775.23
594.712	28162.3
594.908	28176.64
595.105	28305.66
595.302	28152.06
595.499	27889.92
595.696	27869.44
595.892	27631.88
596.089	27619.59
596.286	27898.11
596.482	27414.79
596.679	27773.19
596.876	27455.75
597.072	26870.03
597.269	27050.25
597.466	26853.65
597.662	26941.71
597.859	26581.27
598.055	26958.1
598.252	26956.05
598.448	26935.57
598.645	26312.99
598.841	26454.29
599.038	26374.42
599.234	26464.53
599.431	25780.51
599.627	26052.89
599.824	26380.57
600.02	25958.69
600.217	26087.71
600.413	26018.08
600.609	25717.03
600.806	25698.59
601.002	25872.67
601.198	25270.57
601.395	25129.26
601.591	25585.96
601.787	25368.87
601.984	25315.62
602.18	25387.3
602.376	25245.99
602.572	24951.09
602.769	25272.62
602.965	24635.7
603.161	24983.85
603.357	24738.1
603.553	24860.98
603.75	24779.06
603.946	24607.03
604.142	24850.74
604.338	24283.45
604.534	24781.1
604.73	24207.67
604.926	24375.61
605.122	23978.3
605.318	24193.34
605.514	23830.85
605.71	23933.25
605.906	23931.2
606.102	23845.18
606.298	23839.04
606.494	23779.65
606.69	23861.57
606.886	23859.52
607.082	23415.11
607.278	23554.37
607.474	23220.55
607.67	23523.65
607.866	22858.06
608.062	23345.48
608.257	23232.84
608.453	23370.05
608.649	23179.59
608.845	23021.9
609.041	22804.81
609.236	23040.33
609.432	22735.18
609.628	22982.99
609.824	22817.1
610.019	22554.96
610.215	22948.17
610.411	22612.31
610.606	22407.51
610.802	22790.48
610.998	22565.2
611.193	22505.81
611.389	22419.8
611.584	22081.88
611.78	22344.02
611.976	22341.97
612.171	22348.12
612.367	22247.77
612.562	22362.45
612.758	21823.84
612.953	21789.02
613.149	22147.42
613.344	22038.87
613.539	22274.39
613.735	21829.98
613.93	21901.66
614.126	21901.66
614.321	21883.23
614.517	21674.34
614.712	21594.47
614.907	21545.31
615.103	21977.44
615.298	21580.13
615.493	21524.83
615.688	21457.25
615.884	21768.54
616.079	20953.45
616.274	21315.94
616.47	21549.41
616.665	21240.17
616.86	20932.97
617.055	21135.72
617.25	21045.61
617.445	21250.41
617.641	20859.24
617.836	21025.13
618.031	20564.34
618.226	20959.59
618.421	20695.41
618.616	20861.29
618.811	20414.84
619.006	20846.96
619.201	20191.61
619.396	20631.92
619.591	20224.37
619.786	20568.43
619.981	19775.87
620.176	20228.47
620.371	19884.41
620.566	19833.21
620.761	19779.96
620.956	19954.04
621.151	19454.34
621.346	19499.39
621.541	19243.4
621.735	19659.13
621.93	19151.24
622.125	19118.47
622.32	18743.69
622.515	19333.51
622.709	18985.35
622.904	18792.84
623.099	18563.47
623.294	18940.3
623.488	18485.65
623.683	18499.98
623.878	18248.08
624.072	18319.76
624.267	18418.07
624.462	18293.14
624.656	18141.59
624.851	17809.82
625.046	17756.57
625.24	18067.86
625.435	17535.39
625.629	17656.22
625.824	17349.03
626.018	17299.87
626.213	16929.19
626.407	17258.92
626.602	16814.51
626.796	17076.65
626.991	16996.78
627.185	16826.79
627.38	16714.16
627.574	16576.94
627.768	16761.26
627.963	16503.21
628.157	16277.94
628.352	16433.58
628.546	16114.1
628.74	16183.73
628.935	15892.92
629.129	15845.82
629.323	15860.15
629.517	15647.16
629.712	15487.42
629.906	15720.89
630.1	15428.03
630.294	15626.68
630.489	15409.6
630.683	15385.02
630.877	15172.04
631.071	15047.11
631.265	15315.39
631.459	15049.16
631.653	14983.62
631.848	14840.26
632.042	14762.44
632.236	14754.25
632.43	14621.13
632.624	14776.78
632.818	14320.08
633.012	14225.87
633.206	14369.23
633.4	14457.29
633.594	14041.56
633.788	14393.81
633.982	13947.35
634.176	13976.02
634.369	13971.93
634.563	13701.59
634.757	13636.06
634.951	13982.17
635.145	13826.52
635.339	13603.29
635.533	13476.32
635.726	13550.04
635.92	13406.69
636.114	13437.41
636.308	13267.42
636.501	13406.69
636.695	13156.83
636.889	13165.03
637.083	12784.1
637.276	12732.9
637.47	12995.04
637.664	12708.33
637.857	12798.44
638.051	12790.25
638.244	12556.78
638.438	12415.47
638.632	12403.18
638.825	12499.44
639.019	12462.57
639.212	12225.01
639.406	12214.77
639.599	12059.12
639.793	12052.98
639.986	11880.95
640.18	11780.6
640.373	12005.88
640.567	11684.34
640.76	11821.56
640.954	11602.43
641.147	11530.75
641.34	11493.88
641.534	11457.02
641.727	11592.19
641.92	11301.37
642.114	11411.96
642.307	11162.11
642.5	11217.41
642.694	11069.95
642.887	10760.71
643.08	11346.43
643.273	11241.98
643.467	10881.54
643.66	10723.85
643.853	10756.61
644.046	10680.84
644.239	10609.16
644.432	10670.6
644.626	10568.2
644.819	10285.58
645.012	10476.04
645.205	10471.95
645.398	10476.04
645.591	10322.45
645.784	10301.97
645.977	10043.92
646.17	10134.03
646.363	10007.06
646.556	10037.78
646.749	9816.6
646.942	9962
647.135	10021.39
647.328	9777.69
647.521	9536.03
647.714	9628.18
647.907	9497.11
648.099	9583.13
648.292	9830.93
648.485	9417.24
648.678	9396.76
648.871	9484.83
649.064	9386.52
649.256	9452.06
649.449	9171.49
649.642	9159.2
649.835	9019.94
650.027	9095.71
650.22	9013.79
650.413	9134.62
650.605	8950.31
650.798	8856.1
650.991	8782.37
651.183	8938.02
651.376	8770.08
651.568	8688.17
651.761	8618.54
651.954	8761.89
652.146	8561.19
652.339	8544.81
652.531	8559.14
652.724	8462.89
652.916	8153.65
653.109	8350.25
653.301	8254
653.494	8274.48
653.686	8108.59
653.879	8385.07
654.071	8112.69
654.263	8213.04
654.456	8335.92
654.648	7975.47
654.84	7877.17
655.033	8077.87
655.225	7879.22
655.417	7754.29
655.61	7928.37
655.802	7875.12
655.994	7830.07
656.186	7694.9
656.379	7739.96
656.571	7606.84
656.763	7567.93
656.955	7330.36
657.148	7619.13
657.34	7463.48
657.532	7457.34
657.724	7359.03
657.916	7459.38
658.108	7520.82
658.3	7154.24
658.492	7266.88
658.684	7391.8
658.876	7096.89
659.068	7144
659.26	7029.31
659.452	7258.68
659.644	7154.24
659.836	6906.43
660.028	7053.89
660.22	6744.64
660.412	7039.55
660.604	6662.72
660.796	6779.46
660.988	6820.42
661.18	6615.62
661.372	6808.13
661.563	6724.16
661.755	6769.22
661.947	6615.62
662.139	6484.55
662.331	6550.09
662.522	6423.11
662.714	6480.46
662.906	6337.1
663.097	6324.81
663.289	6490.7
663.481	6230.6
663.673	6318.67
663.864	6193.74
664.056	6132.3
664.247	6302.28
664.439	6138.44
664.631	6206.03
664.822	6193.74
665.014	6095.44
665.205	5976.66
665.397	6038.09
665.588	6128.21
665.78	6046.29
665.971	5810.77
666.163	5927.5
666.354	5904.98
666.546	5878.35
666.737	5702.23
666.929	5837.39
667.12	5784.15
667.311	5771.86
667.503	5665.36
667.694	5792.34
667.885	5646.93
668.077	5681.75
668.268	5655.12
668.459	5507.67
668.651	5634.64
668.842	5522.01
669.033	5567.06
669.224	5515.86
669.416	5679.7
669.607	5468.76
669.798	5438.04
669.989	5522.01
670.18	5204.57
670.371	5343.83
670.563	5300.83
670.754	5458.52
670.945	5190.24
671.136	5272.15
671.327	5259.87
671.518	5288.54
671.709	5329.5
671.9	5218.91
672.091	5128.8
672.282	5231.19
672.473	5157.47
672.664	5104.22
672.855	4983.39
673.046	5020.25
673.237	5147.23
673.428	5122.65
673.619	4981.34
673.809	4842.08
674	5100.12
674.191	4973.15
674.382	4940.38
674.573	4958.81
674.764	4817.51
674.954	4809.31
675.145	4797.03
675.336	4721.25
675.527	4686.44
675.717	4825.7
675.908	4760.16
676.099	4774.5
676.289	4702.82
676.48	4602.47
676.671	4600.42
676.861	4643.43
677.052	4663.91
677.243	4555.37
677.433	4586.08
677.624	4616.8
677.814	4571.75
678.005	4637.28
678.195	4635.24
678.386	4473.45
678.576	4559.46
678.767	4549.22
678.957	4614.76
679.148	4514.41
679.338	4530.79
679.529	4502.12
679.719	4424.3
679.909	4530.79
680.1	4502.12
680.29	4514.41
680.481	4502.12
680.671	4487.78
680.861	4424.3
681.052	4305.51
681.242	4338.28
681.432	4487.78
681.622	4330.09
681.813	4389.48
682.003	4268.65
682.193	4266.6
682.383	4383.34
682.573	4287.08
682.764	4260.46
682.954	4272.75
683.144	4422.25
683.334	4332.14
683.524	4143.72
683.714	4178.54
683.904	4199.02
684.094	4110.96
684.284	4125.29
684.474	4309.61
684.664	4264.55
684.854	4252.27
685.044	4133.48
685.234	4096.62
685.424	4131.44
685.614	4149.87
685.804	4090.48
685.994	4100.72
686.184	4147.82
686.374	4086.38
686.564	4059.76
686.753	3990.13
686.943	3961.45
687.133	3998.32
687.323	3809.9
687.513	3836.53
687.702	4010.61
687.892	3811.95
688.082	3961.45
688.272	4055.66
688.461	3762.8
688.651	3852.91
688.841	3850.86
689.03	3801.71
689.22	3928.69
689.41	3883.63
689.599	3846.77
689.789	3750.51
689.979	3734.13
690.168	3723.89
690.358	3867.25
690.547	3623.54
690.737	3656.31
690.926	3684.98
691.116	3623.54
691.305	3814
691.495	3744.37
691.684	3558
691.874	3541.62
692.063	3768.95
692.252	3558
692.442	3562.1
692.631	3588.72
692.82	3566.2
693.01	3539.57
693.199	3625.59
693.388	3422.84
693.578	3558
693.767	3410.55
693.956	3318.39
694.146	3392.12
694.335	3383.93
694.524	3265.14
694.713	3449.46
694.902	3486.33
695.092	3558
695.281	3302.01
695.47	3195.51
695.659	3312.25
695.848	3361.4
696.037	3187.32
696.226	3277.43
696.415	3392.12
696.604	3248.76
696.793	3302.01
696.982	3203.71
697.171	3240.57
697.36	3422.84
697.549	3269.24
697.738	3177.08
697.927	3195.51
698.116	3326.58
698.305	3113.6
698.494	3267.19
698.683	3230.33
698.872	3164.79
699.061	3222.14
699.25	3031.68
699.438	3115.64
699.627	3189.37
699.816	3207.8
700.005	3138.17
700.193	3123.84
700.382	3134.07
700.571	3084.92
700.76	3183.23
700.948	3179.13
701.137	3209.85
701.326	3168.89
701.514	3068.54
701.703	3101.31
701.892	2925.18
702.08	3140.22
702.269	3121.79
702.457	3058.3
702.646	3095.16
702.834	3082.88
703.023	3048.06
703.212	3025.53
703.4	3011.2
703.589	2970.24
703.777	3041.92
703.965	3074.68
704.154	3109.5
704.342	3035.77
704.531	2916.99
704.719	3031.68
704.907	2998.91
705.096	2931.33
705.284	3056.25
705.472	2968.19
705.661	2966.14
705.849	3007.1
706.037	3025.53
706.226	2867.84
706.414	2990.72
706.602	2986.62
706.79	2966.14
706.979	2744.96
707.167	2810.5
707.355	2941.57
707.543	2986.62
707.731	3089.02
707.919	2876.03
708.107	2781.82
708.296	2966.14
708.484	2919.04
708.672	2837.12
708.86	2974.33
709.048	2785.92
709.236	2761.34
709.424	2843.26
709.612	2761.34
709.8	2777.73
709.988	2943.61
710.176	2873.98
710.364	2876.03
710.551	2714.24
710.739	2749.06
710.927	2841.22
711.115	2837.12
711.303	2853.5
711.491	2712.19
711.679	2663.04
711.866	2806.4
712.054	2753.15
712.242	2812.54
712.43	2747.01
712.617	2847.36
712.805	2726.53
712.993	2767.49
713.181	2597.51
713.368	2687.62
713.556	2589.32
713.744	2681.47
713.931	2740.86
714.119	2673.28
714.306	2742.91
714.494	2595.46
714.682	2671.23
714.869	2695.81
715.057	2712.19
715.244	2597.51
715.432	2572.93
715.619	2689.67
715.807	2593.41
715.994	2613.89
716.182	2679.43
716.369	2646.66
716.556	2691.71
716.744	2601.6
716.931	2456.2
717.119	2671.23
717.306	2656.9
717.493	2695.81
717.681	2679.43
717.868	2523.78
718.055	2577.03
718.242	2691.71
718.43	2425.48
718.617	2587.27
718.804	2550.4
718.991	2570.88
719.179	2515.59
719.366	2574.98
719.553	2638.47
719.74	2505.35
719.927	2523.78
720.114	2505.35
720.301	2591.36
720.488	2493.06
720.676	2435.72
720.863	2591.36
721.05	2601.6
721.237	2540.16
721.424	2454.15
721.611	2478.72
721.798	2482.82
721.985	2429.57
722.172	2491.01
722.358	2495.11
722.545	2441.86
722.732	2433.67
722.919	2486.92
723.106	2497.16
723.293	2329.22
723.48	2493.06
723.667	2437.77
723.853	2341.51
724.04	2378.37
724.227	2503.3
724.414	2347.65
724.6	2474.63
724.787	2423.43
724.974	2441.86
725.161	2353.8
725.347	2355.85
725.534	2396.81
725.72	2425.48
725.907	2409.09
726.094	2443.91
726.28	2312.84
726.467	2458.25
726.653	2411.14
726.84	2316.94
727.027	2421.38
727.213	2294.41
727.4	2425.48
727.586	2331.27
727.773	2345.61
727.959	2359.94
728.145	2329.22
728.332	2427.53
728.518	2314.89
728.705	2376.33
728.891	2271.88
729.077	2253.45
729.264	2339.46
729.45	2353.8
729.636	2325.13
729.823	2343.56
730.009	2407.05
730.195	2321.03
730.382	2232.97
730.568	2222.73
730.754	2286.22
730.94	2282.12
731.126	2329.22
731.313	2323.08
731.499	2198.15
731.685	2368.13
731.871	2192.01
732.057	2192.01
732.243	2304.65
732.429	2327.18
732.615	2310.79
732.801	2316.94
732.987	2177.67
733.173	2163.34
733.359	2280.07
733.545	2220.68
733.731	2253.45
733.917	2185.87
734.103	2316.94
734.289	2253.45
734.475	2175.63
734.661	2146.95
734.847	2187.91
735.033	2185.87
735.219	2181.77
735.404	2288.26
735.59	2173.58
735.776	2159.24
735.962	2132.62
736.148	2196.11
736.333	2163.34
736.519	2255.5
736.705	2224.78
736.89	2230.92
737.076	2067.08
737.262	2114.19
737.447	2085.51
737.633	2196.11
737.819	2175.63
738.004	2083.47
738.19	2110.09
738.375	2159.24
738.561	2220.68
738.747	2140.81
738.932	1993.36
739.118	2173.58
739.303	2140.81
739.489	2112.14
739.674	1952.4
739.859	2122.38
740.045	2044.56
740.23	2028.17
740.416	1960.59
740.601	2040.46
740.786	1968.78
740.972	2034.32
741.157	2065.04
741.342	1991.31
741.528	2071.18
741.713	2138.76
741.898	2026.12
742.084	1962.64
742.269	1999.5
742.454	1938.06
742.639	2056.84
742.824	1974.92
743.01	1979.02
743.195	1944.2
743.38	1940.11
743.565	1839.76
743.75	1925.77
743.935	1886.86
744.12	1901.2
744.305	1786.51
744.49	1936.01
744.675	1919.63
744.86	1850
745.045	1950.35
745.23	1770.13
745.415	1874.57
745.6	1833.61
745.785	1811.09
745.97	1806.99
746.155	1827.47
746.34	1733.26
746.525	1716.88
746.71	1802.9
746.895	1745.55
747.079	1837.71
747.264	1747.6
747.449	1739.41
747.634	1804.94
747.819	1692.3
748.003	1589.91
748.188	1733.26
748.373	1649.3
748.557	1614.48
748.742	1548.95
748.927	1723.02
749.111	1690.26
749.296	1540.76
749.481	1622.67
749.665	1522.32
749.85	1589.91
750.034	1598.1
750.219	1614.48
750.404	1637.01
750.588	1647.25
750.773	1475.22
750.957	1553.04
751.141	1454.74
751.326	1487.51
751.51	1464.98
751.695	1393.3
751.879	1352.34
752.064	1464.98
752.248	1426.07
752.432	1510.04
752.617	1411.73
752.801	1579.67
752.985	1399.45
753.17	1415.83
753.354	1368.73
753.538	1370.77
753.722	1368.73
753.907	1319.57
754.091	1325.72
754.275	1321.62
754.459	1331.86
754.643	1219.22
754.828	1254.04
755.012	1317.53
755.196	1307.29
755.38	1292.95
755.564	1313.43
755.748	1311.38
755.932	1254.04
756.116	1256.09
756.3	1290.9
756.484	1147.55
756.668	1247.9
756.852	1122.97
757.036	1184.41
757.22	1147.55
757.404	1086.11
757.588	1198.74
757.772	1208.98
757.956	1143.45
758.14	1163.93
758.323	1139.35
758.507	1174.17
758.691	1125.02
758.875	1051.29
759.059	1020.57
759.242	1055.39
759.426	1108.63
759.61	1000.09
759.794	1059.48
759.977	1082.01
760.161	1086.11
760.345	1094.3
760.528	1051.29
760.712	1069.72
760.895	1049.24
761.079	1016.48
761.263	1067.67
761.446	1047.19
761.63	991.9
761.813	959.13
761.997	1004.19
762.18	1039
762.364	1061.53
762.547	918.17
762.731	1032.86
762.914	1041.05
763.098	993.95
763.281	967.32
763.464	912.03
763.648	1012.38
763.831	852.64
764.015	893.6
764.198	942.75
764.381	985.76
764.564	907.93
764.748	950.94
764.931	918.17
765.114	844.45
765.297	930.46
765.481	844.45
765.664	987.8
765.847	932.51
766.03	944.8
766.213	895.64
766.397	864.93
766.58	932.51
766.763	821.92
766.946	920.22
767.129	842.4
767.312	787.1
767.495	877.21
767.678	891.55
767.861	854.69
768.044	897.69
768.227	856.73
768.41	821.92
768.593	823.97
768.776	862.88
768.959	858.78
769.142	928.41
769.324	877.21
769.507	826.01
769.69	823.97
769.873	785.05
770.056	795.29
770.239	862.88
770.421	836.25
770.604	815.77
770.787	852.64
770.97	852.64
771.152	721.57
771.335	764.58
771.518	746.14
771.7	770.72
771.883	823.97
772.066	748.19
772.248	787.1
772.431	758.43
772.613	789.15
772.796	787.1
772.978	789.15
773.161	746.14
773.343	715.42
773.526	746.14
773.708	674.46
773.891	750.24
774.073	699.04
774.256	705.18
774.438	752.29
774.621	651.94
774.803	701.09
774.985	690.85
775.168	682.66
775.35	713.38
775.532	617.12
775.715	688.8
775.897	699.04
776.079	668.32
776.261	598.69
776.444	606.88
776.626	625.31
776.808	701.09
776.99	596.64
777.173	647.84
777.355	656.03
777.537	664.22
777.719	604.83
777.901	635.55
778.083	592.55
778.265	545.44
778.447	586.4
778.629	537.25
778.811	594.59
778.993	598.69
779.175	639.65
779.357	602.79
779.539	484
779.721	549.54
779.903	633.51
780.085	524.96
780.267	623.27
780.449	492.2
780.631	549.54
780.812	518.82
780.994	590.5
781.176	627.36
781.358	565.92
781.54	570.02
781.721	567.97
781.903	615.07
782.085	518.82
782.267	461.48
782.448	563.87
782.63	578.21
782.812	496.29
782.993	535.2
783.175	529.06
783.357	459.43
783.538	500.39
783.72	443.04
783.901	451.24
784.083	447.14
784.264	494.24
784.446	408.23
784.627	436.9
784.809	426.66
784.99	395.94
785.172	488.1
785.353	529.06
785.535	508.58
785.716	381.6
785.897	475.81
786.079	379.56
786.26	438.95
786.441	389.8
786.623	408.23
786.804	418.47
786.985	307.88
787.167	465.57
787.348	332.45
787.529	414.37
787.71	500.39
787.891	404.13
788.073	389.8
788.254	434.85
788.435	426.66
788.616	395.94
788.797	361.13
788.978	352.93
789.159	451.24
789.34	375.46
789.522	381.6
789.703	352.93
789.884	451.24
790.065	418.47
790.246	371.37
790.427	406.18
790.607	418.47
790.788	375.46
790.969	307.88
791.15	348.84
791.331	303.78
791.512	322.21
791.693	340.65
791.874	295.59
792.054	393.89
792.235	408.23
792.416	311.97
792.597	307.88
792.778	369.32
792.958	418.47
793.139	393.89
793.32	305.83
793.5	252.58
793.681	334.5
793.862	336.55
794.042	326.31
794.223	215.72
794.404	271.01
794.584	283.3
794.765	340.65
794.945	359.08
795.126	236.2
795.306	295.59
795.487	268.97
795.667	217.77
795.848	246.44
796.028	254.63
796.209	283.3
796.389	330.41
796.57	246.44
796.75	246.44
796.93	205.48
797.111	221.86
797.291	340.65
797.471	256.68
797.652	240.3
797.832	279.21
798.012	295.59
798.192	258.73
798.373	203.43
798.553	271.01
798.733	295.59
798.913	299.69
799.093	287.4
799.274	238.25
799.454	256.68
799.634	242.34
799.814	248.49
799.994	262.82
800.174	326.31
800.354	199.34
800.534	240.3
800.714	266.92
800.894	254.63
801.074	148.14
801.254	238.25
801.434	273.06
801.614	225.96
801.794	219.82
801.974	811.68
802.154	246.44
802.334	217.77
802.514	232.1
802.693	191.14
802.873	185
803.053	225.96
803.233	180.9
803.413	232.1
803.592	236.2
803.772	234.15
803.952	240.3
804.131	221.86
804.311	139.94
804.491	242.34
804.67	197.29
804.85	189.1
805.03	256.68
805.209	180.9
805.389	234.15
805.568	193.19
805.748	215.72
805.928	191.14
806.107	225.96
806.287	207.53
806.466	209.58
806.646	172.71
806.825	189.1
807.004	174.76
807.184	189.1
807.363	195.24
807.543	158.38
807.722	144.04
807.901	168.62
808.081	180.9
808.26	103.08
808.439	248.49
808.619	105.13
808.798	213.67
808.977	185
809.156	168.62
809.336	139.94
809.515	213.67
809.694	133.8
809.873	117.42
810.052	207.53
810.231	242.34
810.411	158.38
810.59	254.63
810.769	199.34
810.948	215.72
811.127	176.81
811.306	189.1
811.485	119.46
811.664	244.39
811.843	180.9
812.022	113.32
812.201	125.61
812.38	201.38
812.559	109.23
812.737	139.94
812.916	174.76
813.095	127.66
813.274	178.86
813.453	131.75
813.632	182.95
813.811	289.45
813.989	150.18
814.168	176.81
814.347	101.03
814.526	109.23
814.704	135.85
814.883	197.29
815.062	230.06
815.24	172.71
815.419	90.79
815.598	123.56
815.776	131.75
815.955	189.1
816.133	66.22
816.312	230.06
816.49	78.51
816.669	111.27
816.847	174.76
817.026	160.42
817.204	123.56
817.383	94.89
817.561	141.99
817.74	123.56
817.918	111.27
818.097	109.23
818.275	62.12
818.453	232.1
818.632	250.53
818.81	90.79
818.988	115.37
819.167	84.65
819.345	119.46
819.523	168.62
819.701	107.18
819.879	133.8
820.058	158.38
820.236	146.09
820.414	133.8
820.592	66.22
820.77	107.18
820.948	178.86
821.127	29.35
821.305	115.37
821.483	101.03
821.661	189.1
821.839	19.11
822.017	70.31
822.195	107.18
822.373	82.6
822.551	82.6
822.729	98.99
822.907	135.85
823.085	123.56
823.262	135.85
823.44	156.33
823.618	66.22
823.796	107.18
823.974	158.38
824.152	109.23
824.329	51.88
824.507	180.9
824.685	119.46
824.863	35.5
825.04	117.42
825.218	82.6
825.396	123.56
825.574	66.22
825.751	139.94
825.929	185
826.107	25.26
826.284	98.99
826.462	160.42
826.639	78.51
826.817	94.89
826.994	60.07
827.172	68.27
827.349	162.47
827.527	86.7
827.704	125.61
827.882	35.5
828.059	66.22
828.237	74.41
828.414	96.94
828.591	12.97
828.769	141.99
828.946	139.94
829.124	152.23
829.301	109.23
829.478	51.88
829.655	23.21
829.833	88.75
830.01	27.31
830.187	123.56
830.364	98.99
830.542	66.22
830.719	172.71
830.896	92.84
831.073	55.98
831.25	66.22
831.427	98.99
831.604	117.42
831.782	70.31
831.959	105.13
832.136	144.04
832.313	53.93
832.49	82.6
832.667	148.14
832.844	45.74
833.021	92.84
833.198	68.27
833.374	139.94
833.551	121.51
833.728	51.88
833.905	49.83
834.082	74.41
834.259	41.64
834.436	76.46
834.612	-13.65
834.789	221.86
834.966	60.07
835.143	127.66
835.319	49.83
835.496	80.55
835.673	98.99
835.85	78.51
836.026	109.23
836.203	90.79
836.38	53.93
836.556	15.02
836.733	78.51
836.909	109.23
837.086	109.23
837.262	80.55
837.439	60.07
837.616	35.5
837.792	60.07
837.968	60.07
838.145	39.59
838.321	82.6
838.498	90.79
838.674	115.37
838.851	115.37
839.027	19.11
839.203	49.83
839.38	62.12
839.556	76.46
839.732	72.36
839.909	45.74
840.085	98.99
840.261	92.84
840.437	33.45
840.614	172.71
840.79	49.83
840.966	51.88
841.142	4.78
841.318	45.74
841.494	92.84
841.671	74.41
841.847	90.79
842.023	51.88
842.199	66.22
842.375	94.89
842.551	55.98
842.727	17.07
842.903	78.51
843.079	88.75
843.255	105.13
843.431	84.65
843.607	41.64
843.783	19.11
843.959	170.66
844.134	74.41
844.31	74.41
844.486	82.6
844.662	25.26
844.838	17.07
845.013	133.8
845.189	86.7
845.365	82.6
845.541	96.94
845.716	70.31
845.892	66.22
846.068	123.56
846.244	17.07
846.419	129.7
846.595	33.45
846.77	0.68
846.946	45.74
847.122	19.11
847.297	68.27
847.473	68.27
847.648	58.03
847.824	92.84
847.999	27.31
848.175	98.99
848.35	166.57
848.526	66.22
848.701	88.75
848.876	107.18
849.052	101.03
849.227	27.31
849.403	98.99
849.578	29.35
849.753	103.08
849.929	62.12
850.104	19.11
850.279	76.46
850.454	72.36
850.63	94.89
850.805	35.5
850.98	94.89
851.155	109.23
851.33	33.45
851.505	78.51
851.681	129.7
851.856	31.4
852.031	115.37
852.206	90.79
852.381	2.73
852.556	-7.51
852.731	98.99
852.906	25.26
853.081	12.97
853.256	111.27
853.431	58.03
853.606	21.16
853.781	25.26
853.956	45.74
854.131	58.03
854.305	17.07
854.48	58.03
854.655	25.26
854.83	27.31
855.005	51.88
855.18	66.22
855.354	58.03
855.529	96.94
855.704	60.07
855.879	76.46
856.053	25.26
856.228	53.93
856.403	37.55
856.577	78.51
856.752	94.89
856.926	66.22
857.101	2.73
857.276	35.5
857.45	66.22
857.625	109.23
857.799	35.5
857.974	41.64
858.148	17.07
858.323	74.41
858.497	74.41
858.672	33.45
858.846	-46.42
859.02	90.79
859.195	58.03
859.369	64.17
859.543	35.5
859.718	60.07
859.892	107.18
860.066	66.22
860.241	-48.47
860.415	-30.04
860.589	45.74
860.763	86.7
860.938	17.07
861.112	-9.56
861.286	25.26
861.46	-36.18
861.634	82.6
861.808	84.65
861.982	10.92
862.157	27.31
862.331	8.87
862.505	-5.46
862.679	-85.33
862.853	111.27
863.027	41.64
863.201	74.41
863.375	6.83
863.549	19.11
863.722	15.02
863.896	109.23
864.07	-23.89
864.244	-13.65
864.418	2.73
864.592	41.64
864.766	-7.51
864.939	41.64
865.113	0.68
865.287	29.35
865.461	35.5
865.634	55.98
865.808	33.45
865.982	82.6
866.156	12.97
866.329	72.36
866.503	103.08
866.676	117.42
866.85	43.69
867.024	10.92
867.197	37.55
867.371	109.23
867.544	2.73
867.718	74.41
867.891	47.79
868.065	17.07
868.238	60.07
868.412	49.83
868.585	25.26
868.759	47.79
868.932	64.17
869.105	-25.94
869.279	17.07
869.452	21.16
869.625	31.4
869.799	4.78
869.972	-40.28
870.145	25.26
870.319	25.26
870.492	0.68
870.665	2.73
870.838	-46.42
871.011	-62.8
871.185	-34.13
871.358	2.73
871.531	45.74
871.704	60.07
871.877	-7.51
872.05	12.97
872.223	-54.61
872.396	64.17
872.569	33.45
872.742	6.83
872.915	-11.61
873.088	45.74
873.261	62.12
873.434	-3.41
873.607	2.73
873.78	70.31
873.953	70.31
874.126	0.68
874.299	-13.65
874.471	78.51
874.644	31.4
874.817	45.74
874.99	39.59
875.163	-3.41
875.335	49.83
875.508	-40.28
875.681	17.07
875.853	-40.28
876.026	62.12
876.199	-5.46
876.371	51.88
876.544	45.74
876.717	74.41
876.889	70.31
877.062	39.59
877.234	4.78
877.407	58.03
877.579	31.4
877.752	17.07
877.924	58.03
878.097	-38.23
878.269	-5.46
878.442	25.26
878.614	43.69
878.786	4.78
878.959	62.12
879.131	15.02
879.303	55.98
879.476	12.97
879.648	109.23
879.82	29.35
879.993	19.11
880.165	-3.41
880.337	-7.51
880.509	29.35
880.681	49.83
880.854	12.97
881.026	8.87
881.198	51.88
881.37	58.03
881.542	47.79
881.714	-79.19
881.886	-85.33
882.058	17.07
882.23	19.11
882.402	-3.41
882.574	-5.46
882.746	29.35
882.918	78.51
883.09	17.07
883.262	39.59
883.434	-13.65
883.606	68.27
883.778	17.07
883.95	17.07
884.122	37.55
884.293	41.64
884.465	41.64
884.637	92.84
884.809	60.07
884.98	19.11
885.152	60.07
885.324	2.73
885.496	17.07
885.667	55.98
885.839	-25.94
886.011	33.45
886.182	35.5
886.354	-7.51
886.525	82.6
886.697	80.55
886.869	33.45
887.04	-11.61
887.212	115.37
887.383	41.64
887.555	4.78
887.726	-17.75
887.897	25.26
888.069	60.07
888.24	66.22
888.412	29.35
888.583	10.92
888.754	41.64
888.926	2.73
889.097	68.27
889.268	-7.51
889.44	-30.04
889.611	8.87
889.782	70.31
889.953	33.45
890.125	2.73
890.296	-3.41
890.467	23.21
890.638	55.98
890.809	41.64
890.98	35.5
891.151	41.64
891.323	62.12
891.494	119.46
891.665	35.5
891.836	-40.28
892.007	-7.51
892.178	-32.08
892.349	49.83
892.52	-42.32
892.691	55.98
892.862	4.78
893.032	25.26
893.203	17.07
893.374	-9.56
893.545	82.6
893.716	-48.47
893.887	66.22
894.057	-60.76
894.228	70.31
894.399	33.45
894.57	66.22
894.74	8.87
894.911	33.45
895.082	-30.04
895.253	19.11
895.423	8.87
895.594	-7.51
895.764	41.64
895.935	-23.89
896.106	-5.46
896.276	0.68
896.447	51.88
896.617	-17.75
896.788	27.31
896.958	27.31
897.129	-46.42
897.299	27.31
897.47	23.21
897.64	101.03
897.81	-27.99
897.981	8.87
898.151	8.87
898.322	4.78
898.492	76.46
898.662	92.84
898.832	-13.65
899.003	12.97
899.173	64.17
899.343	41.64
899.513	-56.66
