Data from USB4F104151__74__14-17-24-972.txt Node

Date: Thu Mar 13 14:17:24 EDT 2025
User: louis
Spectrometer: USB4F10415
Trigger mode: 4
Integration Time (sec): 2.000000E-2
Scans to average: 1
Electric dark correction enabled: true
Nonlinearity correction enabled: false
Boxcar width: 0
XAxis mode: Wavelengths
Number of Pixels in Spectrum: 3648
>>>>>Begin Spectral Data<<<<<
178.204	-38.74
178.424	-38.74
178.644	-38.74
178.864	-96.08
179.084	-120.66
179.304	-5.97
179.524	37.03
179.744	-94.04
179.964	14.51
180.184	-71.51
180.404	114.86
180.624	53.42
180.844	-5.97
181.064	-30.55
181.283	-38.74
181.503	30.89
181.723	-3.93
181.943	37.03
182.163	10.41
182.383	-48.98
182.602	-16.21
182.822	71.85
183.042	26.79
183.262	41.13
183.482	-1.88
183.701	77.99
183.921	67.75
184.141	-20.31
184.361	86.19
184.58	49.32
184.8	34.99
185.02	4.27
185.239	-30.55
185.459	34.99
185.679	47.27
185.898	-44.88
186.118	75.95
186.338	-40.79
186.557	80.04
186.777	6.31
186.997	-10.07
187.216	-5.97
187.436	43.18
187.655	61.61
187.875	22.7
188.095	-22.36
188.314	18.6
188.534	14.51
188.753	-12.12
188.973	84.14
189.192	6.31
189.412	55.47
189.631	-16.21
189.851	96.43
190.07	45.23
190.29	-73.56
190.509	67.75
190.729	14.51
190.948	65.71
191.168	51.37
191.387	92.33
191.607	61.61
191.826	12.46
192.045	10.41
192.265	53.42
192.484	-8.02
192.704	34.99
192.923	-34.64
193.142	28.84
193.362	12.46
193.581	53.42
193.8	18.6
194.02	63.66
194.239	-20.31
194.458	-22.36
194.678	110.76
194.897	45.23
195.116	34.99
195.335	26.79
195.555	94.38
195.774	47.27
195.993	98.47
196.212	-5.97
196.432	-32.6
196.651	-3.93
196.87	53.42
197.089	67.75
197.308	18.6
197.528	-42.84
197.747	-30.55
197.966	10.41
198.185	125.1
198.404	10.41
198.623	-5.97
198.842	55.47
199.062	20.65
199.281	43.18
199.5	26.79
199.719	75.95
199.938	28.84
200.157	145.58
200.376	39.08
200.595	20.65
200.814	43.18
201.033	39.08
201.252	49.32
201.471	51.37
201.69	63.66
201.909	10.41
202.128	71.85
202.347	-20.31
202.566	69.8
202.785	53.42
203.004	-22.36
203.223	51.37
203.442	2.22
203.661	18.6
203.879	18.6
204.098	47.27
204.317	10.41
204.536	118.95
204.755	77.99
204.974	69.8
205.193	6.31
205.411	34.99
205.63	53.42
205.849	75.95
206.068	47.27
206.287	6.31
206.505	98.47
206.724	20.65
206.943	6.31
207.162	16.55
207.381	57.51
207.599	-30.55
207.818	18.6
208.037	-14.17
208.255	18.6
208.474	108.71
208.693	61.61
208.911	39.08
209.13	63.66
209.349	84.14
209.567	16.55
209.786	39.08
210.005	92.33
210.223	14.51
210.442	-10.07
210.661	20.65
210.879	0.17
211.098	16.55
211.316	43.18
211.535	-34.64
211.753	55.47
211.972	-22.36
212.191	10.41
212.409	10.41
212.628	59.56
212.846	-14.17
213.065	-14.17
213.283	67.75
213.502	6.31
213.72	71.85
213.938	22.7
214.157	18.6
214.375	51.37
214.594	80.04
214.812	4.27
215.031	67.75
215.249	43.18
215.467	51.37
215.686	18.6
215.904	10.41
216.122	-5.97
216.341	51.37
216.559	-12.12
216.778	14.51
216.996	34.99
217.214	71.85
217.432	-10.07
217.651	-24.4
217.869	75.95
218.087	26.79
218.306	2.22
218.524	10.41
218.742	14.51
218.96	61.61
219.179	-3.93
219.397	18.6
219.615	67.75
219.833	55.47
220.051	53.42
220.27	75.95
220.488	-5.97
220.706	61.61
220.924	0.17
221.142	22.7
221.36	80.04
221.578	22.7
221.796	24.75
222.015	4.27
222.233	0.17
222.451	90.28
222.669	-3.93
222.887	86.19
223.105	6.31
223.323	32.94
223.541	-5.97
223.759	18.6
223.977	34.99
224.195	110.76
224.413	80.04
224.631	59.56
224.849	-22.36
225.067	88.23
225.285	41.13
225.503	-44.88
225.721	-51.03
225.939	39.08
226.157	63.66
226.375	125.1
226.592	-30.55
226.81	37.03
227.028	39.08
227.246	26.79
227.464	53.42
227.682	-20.31
227.9	80.04
228.117	51.37
228.335	20.65
228.553	30.89
228.771	22.7
228.989	-28.5
229.206	53.42
229.424	-22.36
229.642	125.1
229.86	-28.5
230.077	86.19
230.295	-28.5
230.513	2.22
230.731	-8.02
230.948	43.18
231.166	112.81
231.384	26.79
231.601	18.6
231.819	100.52
232.037	51.37
232.254	28.84
232.472	49.32
232.689	-10.07
232.907	18.6
233.125	92.33
233.342	12.46
233.56	37.03
233.777	47.27
233.995	86.19
234.213	26.79
234.43	112.81
234.648	63.66
234.865	51.37
235.083	18.6
235.3	14.51
235.518	86.19
235.735	69.8
235.953	51.37
236.17	-26.45
236.388	69.8
236.605	20.65
236.822	82.09
237.04	34.99
237.257	53.42
237.475	8.36
237.692	-34.64
237.909	-44.88
238.127	12.46
238.344	34.99
238.562	2.22
238.779	18.6
238.996	-24.4
239.214	-26.45
239.431	43.18
239.648	116.9
239.865	94.38
240.083	96.43
240.3	2.22
240.517	26.79
240.735	26.79
240.952	84.14
241.169	8.36
241.386	30.89
241.603	28.84
241.821	-40.79
242.038	-5.97
242.255	69.8
242.472	-3.93
242.689	96.43
242.907	28.84
243.124	59.56
243.341	55.47
243.558	4.27
243.775	26.79
243.992	-3.93
244.209	16.55
244.426	71.85
244.643	55.47
244.86	-5.97
245.078	34.99
245.295	-69.46
245.512	22.7
245.729	18.6
245.946	26.79
246.163	28.84
246.38	37.03
246.597	-32.6
246.814	45.23
247.031	26.79
247.248	14.51
247.464	-28.5
247.681	18.6
247.898	84.14
248.115	92.33
248.332	-38.74
248.549	69.8
248.766	-12.12
248.983	24.75
249.2	114.86
249.417	6.31
249.633	-34.64
249.85	94.38
250.067	51.37
250.284	51.37
250.501	59.56
250.717	18.6
250.934	6.31
251.151	45.23
251.368	53.42
251.585	43.18
251.801	39.08
252.018	-46.93
252.235	43.18
252.451	43.18
252.668	-14.17
252.885	24.75
253.102	10.41
253.318	12.46
253.535	116.9
253.752	2.22
253.968	43.18
254.185	18.6
254.401	12.46
254.618	-24.4
254.835	16.55
255.051	55.47
255.268	53.42
255.484	65.71
255.701	43.18
255.917	102.57
256.134	-34.64
256.351	-22.36
256.567	43.18
256.784	59.56
257	-20.31
257.217	47.27
257.433	88.23
257.65	14.51
257.866	47.27
258.082	-3.93
258.299	32.94
258.515	59.56
258.732	59.56
258.948	47.27
259.165	92.33
259.381	73.9
259.597	32.94
259.814	30.89
260.03	12.46
260.246	59.56
260.463	-14.17
260.679	43.18
260.895	96.43
261.112	67.75
261.328	-5.97
261.544	-3.93
261.761	67.75
261.977	4.27
262.193	39.08
262.409	18.6
262.626	45.23
262.842	114.86
263.058	86.19
263.274	100.52
263.49	20.65
263.707	100.52
263.923	98.47
264.139	2.22
264.355	80.04
264.571	0.17
264.787	-3.93
265.004	67.75
265.22	2.22
265.436	45.23
265.652	24.75
265.868	18.6
266.084	-55.12
266.3	-44.88
266.516	41.13
266.732	51.37
266.948	65.71
267.164	110.76
267.38	73.9
267.596	26.79
267.812	96.43
268.028	-42.84
268.244	-28.5
268.46	-5.97
268.676	69.8
268.892	65.71
269.108	-38.74
269.324	0.17
269.54	6.31
269.756	39.08
269.972	55.47
270.188	92.33
270.403	14.51
270.619	59.56
270.835	100.52
271.051	2.22
271.267	84.14
271.483	4.27
271.698	71.85
271.914	61.61
272.13	-1.88
272.346	6.31
272.562	63.66
272.777	53.42
272.993	63.66
273.209	45.23
273.425	61.61
273.64	67.75
273.856	92.33
274.072	32.94
274.287	8.36
274.503	84.14
274.719	26.79
274.934	26.79
275.15	8.36
275.366	61.61
275.581	-34.64
275.797	84.14
276.012	-51.03
276.228	55.47
276.444	10.41
276.659	67.75
276.875	43.18
277.09	37.03
277.306	10.41
277.521	100.52
277.737	12.46
277.952	61.61
278.168	-16.21
278.383	104.62
278.599	26.79
278.814	110.76
279.03	34.99
279.245	77.99
279.461	26.79
279.676	34.99
279.892	-51.03
280.107	57.51
280.322	55.47
280.538	4.27
280.753	16.55
280.969	88.23
281.184	8.36
281.399	98.47
281.615	86.19
281.83	59.56
282.045	-36.69
282.26	10.41
282.476	104.62
282.691	26.79
282.906	18.6
283.122	18.6
283.337	6.31
283.552	51.37
283.767	34.99
283.983	92.33
284.198	22.7
284.413	-5.97
284.628	-53.08
284.843	75.95
285.058	51.37
285.274	137.38
285.489	-30.55
285.704	104.62
285.919	-38.74
286.134	59.56
286.349	-1.88
286.564	-28.5
286.779	6.31
286.995	-10.07
287.21	37.03
287.425	65.71
287.64	43.18
287.855	6.31
288.07	14.51
288.285	69.8
288.5	-67.41
288.715	-10.07
288.93	47.27
289.145	71.85
289.36	94.38
289.575	-30.55
289.79	75.95
290.004	-18.26
290.219	18.6
290.434	28.84
290.649	-55.12
290.864	75.95
291.079	10.41
291.294	86.19
291.509	30.89
291.724	-55.12
291.938	26.79
292.153	69.8
292.368	69.8
292.583	94.38
292.798	53.42
293.012	39.08
293.227	86.19
293.442	2.22
293.657	59.56
293.871	-14.17
294.086	-3.93
294.301	18.6
294.516	104.62
294.73	45.23
294.945	112.81
295.16	-1.88
295.374	47.27
295.589	96.43
295.804	26.79
296.018	108.71
296.233	127.14
296.447	49.32
296.662	-16.21
296.877	80.04
297.091	59.56
297.306	59.56
297.52	65.71
297.735	45.23
297.949	63.66
298.164	94.38
298.378	16.55
298.593	8.36
298.807	20.65
299.022	100.52
299.236	24.75
299.451	77.99
299.665	26.79
299.88	75.95
300.094	8.36
300.309	-3.93
300.523	100.52
300.737	-38.74
300.952	12.46
301.166	22.7
301.381	39.08
301.595	37.03
301.809	24.75
302.024	-61.27
302.238	-34.64
302.452	75.95
302.667	92.33
302.881	75.95
303.095	61.61
303.309	37.03
303.524	-30.55
303.738	34.99
303.952	34.99
304.166	32.94
304.381	-32.6
304.595	43.18
304.809	10.41
305.023	-10.07
305.237	24.75
305.452	133.29
305.666	51.37
305.88	73.9
306.094	34.99
306.308	108.71
306.522	125.1
306.736	16.55
306.95	92.33
307.164	-1.88
307.379	6.31
307.593	6.31
307.807	6.31
308.021	82.09
308.235	26.79
308.449	37.03
308.663	2.22
308.877	26.79
309.091	24.75
309.305	106.67
309.519	57.51
309.733	125.1
309.947	6.31
310.161	-34.64
310.374	24.75
310.588	51.37
310.802	53.42
311.016	16.55
311.23	26.79
311.444	-40.79
311.658	92.33
311.872	77.99
312.085	-12.12
312.299	28.84
312.513	18.6
312.727	30.89
312.941	-1.88
313.154	96.43
313.368	-5.97
313.582	18.6
313.796	55.47
314.009	61.61
314.223	75.95
314.437	37.03
314.651	53.42
314.864	26.79
315.078	51.37
315.292	14.51
315.505	77.99
315.719	69.8
315.933	63.66
316.146	4.27
316.36	30.89
316.573	84.14
316.787	71.85
317.001	108.71
317.214	2.22
317.428	28.84
317.641	92.33
317.855	67.75
318.068	-5.97
318.282	39.08
318.495	18.6
318.709	86.19
318.922	24.75
319.136	75.95
319.349	53.42
319.563	0.17
319.776	67.75
319.99	20.65
320.203	-20.31
320.417	82.09
320.63	84.14
320.843	71.85
321.057	92.33
321.27	121
321.483	4.27
321.697	108.71
321.91	34.99
322.124	110.76
322.337	34.99
322.55	45.23
322.763	4.27
322.977	34.99
323.19	18.6
323.403	20.65
323.617	100.52
323.83	63.66
324.043	75.95
324.256	28.84
324.469	14.51
324.683	84.14
324.896	114.86
325.109	77.99
325.322	-40.79
325.535	10.41
325.748	69.8
325.962	2.22
326.175	34.99
326.388	75.95
326.601	26.79
326.814	-46.93
327.027	32.94
327.24	86.19
327.453	-1.88
327.666	18.6
327.879	69.8
328.092	20.65
328.305	22.7
328.518	0.17
328.731	34.99
328.944	39.08
329.157	71.85
329.37	61.61
329.583	180.39
329.796	94.38
330.009	71.85
330.222	53.42
330.435	28.84
330.648	69.8
330.861	39.08
331.073	37.03
331.286	82.09
331.499	145.58
331.712	75.95
331.925	2.22
332.138	69.8
332.35	53.42
332.563	67.75
332.776	22.7
332.989	-22.36
333.202	67.75
333.414	-12.12
333.627	43.18
333.84	8.36
334.053	51.37
334.265	20.65
334.478	30.89
334.691	-10.07
334.903	55.47
335.116	22.7
335.329	-1.88
335.541	14.51
335.754	18.6
335.966	-10.07
336.179	34.99
336.392	37.03
336.604	37.03
336.817	96.43
337.029	67.75
337.242	30.89
337.454	84.14
337.667	32.94
337.88	106.67
338.092	4.27
338.305	30.89
338.517	-3.93
338.729	6.31
338.942	133.29
339.154	18.6
339.367	-3.93
339.579	59.56
339.792	47.27
340.004	90.28
340.217	26.79
340.429	149.67
340.641	10.41
340.854	65.71
341.066	26.79
341.278	67.75
341.491	141.48
341.703	45.23
341.915	84.14
342.128	57.51
342.34	96.43
342.552	-14.17
342.764	26.79
342.977	110.76
343.189	53.42
343.401	34.99
343.613	51.37
343.826	61.61
344.038	80.04
344.25	51.37
344.462	47.27
344.674	10.41
344.886	67.75
345.099	61.61
345.311	-22.36
345.523	6.31
345.735	34.99
345.947	77.99
346.159	2.22
346.371	-28.5
346.583	6.31
346.795	92.33
347.007	41.13
347.219	26.79
347.431	55.47
347.643	71.85
347.855	34.99
348.067	-12.12
348.279	-20.31
348.491	2.22
348.703	-20.31
348.915	22.7
349.127	4.27
349.339	20.65
349.551	10.41
349.763	123.05
349.975	2.22
350.187	32.94
350.399	114.86
350.61	-5.97
350.822	20.65
351.034	82.09
351.246	14.51
351.458	61.61
351.669	26.79
351.881	-14.17
352.093	55.47
352.305	94.38
352.517	0.17
352.728	80.04
352.94	22.7
353.152	32.94
353.363	34.99
353.575	41.13
353.787	-14.17
353.999	125.1
354.21	53.42
354.422	16.55
354.633	20.65
354.845	10.41
355.057	61.61
355.268	116.9
355.48	51.37
355.692	22.7
355.903	75.95
356.115	-8.02
356.326	34.99
356.538	96.43
356.749	63.66
356.961	32.94
357.172	30.89
357.384	55.47
357.595	98.47
357.807	43.18
358.018	10.41
358.23	84.14
358.441	30.89
358.653	18.6
358.864	41.13
359.075	43.18
359.287	65.71
359.498	67.75
359.709	63.66
359.921	4.27
360.132	-16.21
360.344	57.51
360.555	18.6
360.766	2.22
360.977	43.18
361.189	90.28
361.4	-10.07
361.611	75.95
361.823	82.09
362.034	90.28
362.245	-26.45
362.456	26.79
362.667	12.46
362.879	45.23
363.09	57.51
363.301	63.66
363.512	-20.31
363.723	41.13
363.935	69.8
364.146	26.79
364.357	28.84
364.568	49.32
364.779	2.22
364.99	55.47
365.201	34.99
365.412	69.8
365.623	-16.21
365.834	61.61
366.045	4.27
366.256	118.95
366.467	84.14
366.678	63.66
366.889	28.84
367.1	53.42
367.311	8.36
367.522	94.38
367.733	94.38
367.944	75.95
368.155	10.41
368.366	80.04
368.577	112.81
368.788	39.08
368.999	67.75
369.209	104.62
369.42	55.47
369.631	104.62
369.842	51.37
370.053	88.23
370.264	92.33
370.474	-3.93
370.685	67.75
370.896	43.18
371.107	34.99
371.317	34.99
371.528	110.76
371.739	88.23
371.95	61.61
372.16	151.72
372.371	10.41
372.582	90.28
372.792	-38.74
373.003	80.04
373.214	34.99
373.424	12.46
373.635	6.31
373.846	114.86
374.056	49.32
374.267	30.89
374.477	92.33
374.688	53.42
374.898	75.95
375.109	84.14
375.319	57.51
375.53	112.81
375.74	32.94
375.951	2.22
376.161	26.79
376.372	69.8
376.582	86.19
376.793	8.36
377.003	51.37
377.214	-28.5
377.424	47.27
377.635	59.56
377.845	43.18
378.055	10.41
378.266	51.37
378.476	55.47
378.686	14.51
378.897	41.13
379.107	-3.93
379.317	26.79
379.528	6.31
379.738	28.84
379.948	10.41
380.158	94.38
380.369	30.89
380.579	57.51
380.789	2.22
380.999	69.8
381.21	45.23
381.42	139.43
381.63	-38.74
381.84	88.23
382.05	12.46
382.261	86.19
382.471	39.08
382.681	63.66
382.891	116.9
383.101	104.62
383.311	57.51
383.521	90.28
383.731	75.95
383.941	18.6
384.151	133.29
384.361	161.96
384.571	92.33
384.781	75.95
384.991	88.23
385.201	37.03
385.411	84.14
385.621	108.71
385.831	82.09
386.041	102.57
386.251	12.46
386.461	80.04
386.671	71.85
386.881	55.47
387.091	110.76
387.301	84.14
387.511	92.33
387.72	108.71
387.93	104.62
388.14	45.23
388.35	141.48
388.56	116.9
388.769	45.23
388.979	118.95
389.189	-18.26
389.399	41.13
389.609	65.71
389.818	49.32
390.028	10.41
390.238	135.34
390.447	92.33
390.657	96.43
390.867	108.71
391.076	82.09
391.286	90.28
391.496	61.61
391.705	139.43
391.915	157.86
392.125	47.27
392.334	100.52
392.544	133.29
392.753	94.38
392.963	59.56
393.172	77.99
393.382	100.52
393.591	141.48
393.801	86.19
394.01	94.38
394.22	86.19
394.429	34.99
394.639	110.76
394.848	47.27
395.058	155.82
395.267	34.99
395.477	51.37
395.686	112.81
395.895	161.96
396.105	47.27
396.314	75.95
396.524	75.95
396.733	149.67
396.942	143.53
397.152	125.1
397.361	133.29
397.57	51.37
397.78	51.37
397.989	127.14
398.198	131.24
398.407	90.28
398.617	137.38
398.826	110.76
399.035	47.27
399.244	108.71
399.453	141.48
399.663	94.38
399.872	127.14
400.081	112.81
400.29	137.38
400.499	59.56
400.708	94.38
400.917	174.25
401.127	108.71
401.336	53.42
401.545	184.49
401.754	125.1
401.963	135.34
402.172	39.08
402.381	26.79
402.59	159.91
402.799	141.48
403.008	108.71
403.217	149.67
403.426	166.06
403.635	104.62
403.844	123.05
404.053	88.23
404.262	135.34
404.471	104.62
404.68	149.67
404.888	108.71
405.097	129.19
405.306	194.73
405.515	127.14
405.724	194.73
405.933	211.11
406.142	215.21
406.35	202.92
406.559	166.06
406.768	247.97
406.977	235.69
407.185	262.31
407.394	243.88
407.603	217.26
407.812	207.02
408.02	288.93
408.229	231.59
408.438	258.21
408.646	282.79
408.855	235.69
409.064	379.04
409.272	284.84
409.481	329.89
409.69	288.93
409.898	305.32
410.107	428.2
410.315	424.1
410.524	293.03
410.733	411.81
410.941	383.14
411.15	456.87
411.358	438.44
411.567	409.76
411.775	428.2
411.984	411.81
412.192	442.53
412.401	422.05
412.609	489.64
412.818	583.84
413.026	573.6
413.234	575.65
413.443	567.46
413.651	567.46
413.86	571.55
414.068	706.72
414.276	620.71
414.485	723.1
414.693	745.63
414.901	739.49
415.11	839.84
415.318	770.21
415.526	759.97
415.734	850.08
415.943	800.93
416.151	944.28
416.359	833.69
416.567	936.09
416.776	983.2
416.984	1067.16
417.192	1089.69
417.4	1124.51
417.608	1026.2
417.817	1167.51
418.025	1071.26
418.233	1296.53
418.441	1288.34
418.649	1257.62
418.857	1429.65
419.065	1407.13
419.273	1411.22
419.481	1511.57
419.689	1566.87
419.897	1609.87
420.105	1689.74
420.313	1640.59
420.521	1822.86
420.729	1681.55
420.937	1845.39
421.145	1917.07
421.353	1945.74
421.561	2060.43
421.769	2150.54
421.977	2119.82
422.185	2195.59
422.393	2164.87
422.601	2345.09
422.809	2439.3
423.017	2394.25
423.224	2623.62
423.432	2674.82
423.64	2674.82
423.848	2943.1
424.056	2842.75
424.263	3096.7
424.471	2918.53
424.679	3207.29
424.887	3444.85
425.094	3305.59
425.302	3457.14
425.51	3680.37
425.718	3659.89
425.925	3704.95
426.133	3729.52
426.341	4061.29
426.548	4286.57
426.756	4280.43
426.964	4241.51
427.171	4583.52
427.379	4632.68
427.586	4614.24
427.794	4870.24
428.001	5165.15
428.209	5509.21
428.417	5255.26
428.624	5664.85
428.832	5558.36
429.039	5566.55
429.247	5671
429.454	6148.17
429.662	6289.48
429.869	6000.72
430.076	6465.61
430.284	6402.12
430.491	6590.53
430.699	6973.5
430.906	6981.7
431.114	7100.48
431.321	7481.4
431.528	7401.53
431.736	7821.36
431.943	8353.84
432.15	8142.89
432.358	8226.86
432.565	8626.22
432.772	8581.16
432.979	9039.9
433.187	9259.04
433.394	9332.76
433.601	9912.34
433.808	9947.15
434.016	9682.97
434.223	10166.29
434.43	10700.81
434.637	10713.1
434.844	11358.21
435.052	11458.56
435.259	11266.05
435.466	11413.5
435.673	11364.35
435.88	12230.64
436.087	12707.82
436.294	12754.92
436.501	12324.85
436.708	12494.83
436.915	13279.2
437.122	13758.42
437.329	13707.23
437.537	14110.68
437.743	14309.33
437.95	14073.81
438.157	15015.88
438.364	15433.66
438.571	15228.87
438.778	15706.04
438.985	16816.04
439.192	16242.61
439.399	16748.46
439.606	16416.69
439.813	17622.94
440.02	18595.73
440.227	17991.58
440.433	17805.21
440.64	18646.93
440.847	18220.95
441.054	19220.36
441.261	19969.91
441.467	19750.78
441.674	20375.41
441.881	20686.7
442.088	20729.71
442.294	20539.25
442.501	21342.05
442.708	21823.33
442.914	22407
443.121	23375.69
443.328	23131.98
443.534	24414.01
443.741	23713.6
443.948	23469.89
444.154	24915.76
444.361	25280.3
444.568	25249.58
444.774	25079.6
444.981	25562.92
445.187	25855.78
445.394	26941.2
445.6	26771.22
445.807	29177.58
446.013	28208.89
446.22	28342.01
446.426	29632.23
446.633	29898.47
446.839	31141.58
447.046	29576.94
447.252	31299.28
447.459	30947.03
447.665	31057.62
447.871	32495.29
448.078	33771.18
448.284	32171.71
448.491	33212.08
448.697	34424.48
448.903	35034.77
449.11	34956.95
449.316	34596.51
449.522	35262.1
449.728	35968.65
449.935	36361.86
450.141	36644.48
450.347	36927.1
450.553	36083.33
450.76	36337.28
450.966	37570.16
451.172	37047.93
451.378	38446.69
451.584	37330.55
451.791	38299.23
451.997	38119.01
452.203	38852.19
452.409	38973.02
452.615	38399.58
452.821	37312.11
453.027	37260.91
453.233	38936.15
453.44	37469.81
453.646	37682.8
453.852	38024.81
454.058	38178.4
454.264	36994.68
454.47	37869.16
454.676	37072.5
454.882	38280.8
455.088	35352.21
455.294	35901.06
455.5	36032.13
455.705	36699.77
455.911	34760.34
456.117	34399.9
456.323	33834.66
456.529	32126.66
456.735	33797.8
456.941	32593.59
457.147	32333.5
457.352	31211.21
457.558	31102.67
457.764	31217.36
457.97	30211.81
458.176	30084.83
458.381	29984.48
458.587	28358.39
458.793	28045.05
458.999	26935.06
459.204	28892.91
459.41	27479.82
459.616	26349.34
459.821	26070.81
460.027	26449.69
460.233	25372.46
460.438	24162.11
460.644	24373.05
460.85	23332.68
461.055	22845.26
461.261	23045.96
461.466	21106.54
461.672	20698.99
461.878	22105.95
462.083	20715.37
462.289	20320.12
462.494	20037.5
462.7	19140.49
462.905	18679.69
463.111	19480.45
463.316	19341.19
463.522	19023.75
463.727	19177.35
463.932	19031.94
464.138	18780.04
464.343	18806.67
464.549	18313.11
464.754	18773.9
464.959	18890.63
465.165	18575.25
465.37	17794.97
465.575	17461.15
465.781	17854.36
465.986	18325.4
466.191	17739.68
466.397	17307.55
466.602	16256.95
466.807	17074.09
467.012	16936.87
467.218	16764.84
467.423	16662.44
467.628	16885.67
467.833	17549.21
468.038	16527.28
468.244	16371.63
468.449	17006.5
468.654	16357.3
468.859	16478.13
469.064	16396.21
469.269	15630.27
469.474	15599.55
469.679	16117.68
469.885	15597.5
470.09	15704
470.295	15765.43
470.5	15304.64
470.705	15560.64
470.91	15267.78
471.115	15032.26
471.32	15081.41
471.525	15218.63
471.73	15065.03
471.935	14530.51
472.139	14120.92
472.344	14471.12
472.549	14225.36
472.754	14112.72
472.959	13832.15
473.164	13610.97
473.369	13381.6
473.574	13942.74
473.778	13397.98
473.983	13592.54
474.188	13596.64
474.393	12716.01
474.598	13090.79
474.802	12756.97
475.007	12849.13
475.212	12795.88
475.417	12281.84
475.621	12402.67
475.826	12574.7
476.031	12140.53
476.235	11806.71
476.44	11976.69
476.645	11825.14
476.849	11821.05
477.054	11816.95
477.259	11366.4
477.463	11325.44
477.668	11282.43
477.872	11511.8
478.077	11220.99
478.282	10760.2
478.486	11063.3
478.691	10905.6
478.895	10893.32
479.1	10649.61
479.304	10649.61
479.509	10264.59
479.713	10651.66
479.918	10295.31
480.122	10364.94
480.326	10473.48
480.531	10235.92
480.735	10221.58
480.94	10020.88
481.144	10594.31
481.348	10067.99
481.553	10039.31
481.757	10067.99
481.961	9902.1
482.166	10225.68
482.37	10176.53
482.574	9848.85
482.778	10004.5
482.983	10283.02
483.187	9867.28
483.391	9979.92
483.595	9762.84
483.8	9676.82
484.004	9910.29
484.208	9959.44
484.412	9973.78
484.616	9992.21
484.821	9883.67
485.025	9662.49
485.229	9789.46
485.433	9783.32
485.637	10010.64
485.841	9910.29
486.045	9914.39
486.249	9916.44
486.453	9725.97
486.657	9754.65
486.861	9883.67
487.065	9613.34
487.269	9781.27
487.473	9658.39
487.677	9975.83
487.881	9852.95
488.085	9723.93
488.289	10086.42
488.493	9668.63
488.697	9934.87
488.901	9963.54
489.105	9906.2
489.309	9959.44
489.512	10033.17
489.716	9986.07
489.92	9916.44
490.124	10067.99
490.328	10012.69
490.531	10027.03
490.735	10242.06
490.939	10053.65
491.143	9965.59
491.346	10090.51
491.55	10225.68
491.754	10164.24
491.958	10328.08
492.161	10303.5
492.365	10276.88
492.569	10266.64
492.772	10442.76
492.976	10536.97
493.18	10493.96
493.383	10602.5
493.587	10790.92
493.79	10858.5
493.994	10469.39
494.197	10745.86
494.401	10991.62
494.605	11014.15
494.808	10958.85
495.012	11005.95
495.215	11319.29
495.419	11257.85
495.622	11323.39
495.825	11331.58
496.029	11333.63
496.232	11759.61
496.436	11522.04
496.639	11853.81
496.843	11829.24
497.046	12152.82
497.249	12550.12
497.453	12175.34
497.656	12341.23
497.859	12408.81
498.063	12554.22
498.266	12830.69
498.469	12740.58
498.673	13115.36
498.876	13154.27
499.079	13068.26
499.282	13109.22
499.485	13678.55
499.689	13424.61
499.892	13791.19
500.095	14116.82
500.298	14331.86
500.501	13977.56
500.705	14370.77
500.908	14514.13
501.111	14665.67
501.314	14923.72
501.517	14772.17
501.72	15173.57
501.923	15075.27
502.126	15527.87
502.329	15474.62
502.532	15706.04
502.735	15863.74
502.938	16195.51
503.141	16400.3
503.344	16558
503.547	16492.46
503.75	16809.9
503.953	16971.69
504.156	17063.85
504.359	17475.49
504.562	17561.5
504.765	17682.33
504.968	17950.62
505.17	18171.8
505.373	18065.3
505.576	18591.63
505.779	18618.25
505.982	18724.75
506.185	19122.05
506.387	19152.77
506.59	19472.26
506.793	19894.14
506.996	19732.35
507.198	19957.63
507.401	20133.75
507.604	20336.5
507.807	20899.69
508.009	20889.45
508.212	21217.13
508.415	21335.91
508.617	21698.4
508.82	21790.56
509.022	21589.86
509.225	22095.71
509.428	22335.32
509.63	22290.26
509.833	22409.04
510.035	23162.7
510.238	22789.97
510.44	23312.2
510.643	23648.07
510.845	23654.21
511.048	23732.03
511.25	24289.08
511.453	24532.79
511.655	25251.63
511.858	24897.33
512.06	25349.93
512.262	25284.39
512.465	25550.63
512.667	25841.44
512.87	26064.67
513.072	26275.61
513.274	26304.28
513.477	27039.5
513.679	27121.42
513.881	27463.43
514.084	27588.36
514.286	27531.01
514.488	27954.94
514.69	28940.02
514.893	28552.95
515.095	28655.35
515.297	28903.15
515.499	29249.26
515.701	29415.15
515.904	29904.61
516.106	29861.6
516.308	30326.49
516.51	30701.27
516.712	30607.06
516.914	31086.29
517.116	31712.97
517.318	31561.42
517.52	31850.18
517.722	32005.83
517.925	32399.04
518.127	32728.76
518.329	32857.78
518.531	32773.81
518.733	33521.32
518.935	33429.16
519.136	33715.88
519.338	34469.53
519.54	34150.05
519.742	34664.09
519.944	34752.15
520.146	35526.28
520.348	35288.72
520.55	35575.44
520.752	35735.18
520.954	36740.73
521.155	36023.94
521.357	36728.44
521.559	36910.71
521.761	37305.97
521.963	37484.14
522.164	37471.85
522.366	37783.15
522.568	38033
522.77	38202.98
522.971	38698.59
523.173	38602.33
523.375	38426.21
523.576	38911.58
523.778	39138.9
523.98	39695.95
524.181	39876.17
524.383	39728.72
524.584	40183.37
524.786	40422.98
524.988	40134.21
525.189	40703.55
525.391	41023.03
525.592	41686.57
525.794	41203.25
525.995	41258.55
526.197	41363
526.398	41670.19
526.6	41983.53
526.801	42055.21
527.003	42016.3
527.204	42358.31
527.406	42487.33
527.607	42352.16
527.808	42841.63
528.01	42180.14
528.211	42903.07
528.412	43427.35
528.614	43154.97
528.815	43386.39
529.016	43275.8
529.218	43038.23
529.419	43408.92
529.62	43703.82
529.822	43449.88
530.023	43712.02
530.224	43656.72
530.425	43673.1
530.626	43957.77
530.828	43879.95
531.029	44580.35
531.23	44166.66
531.431	43998.73
531.632	44371.46
531.833	44432.9
532.035	44473.86
532.236	44500.48
532.437	44826.11
532.638	44238.34
532.839	45055.48
533.04	44619.27
533.241	44056.07
533.442	45446.65
533.643	44721.66
533.844	44449.28
534.045	44652.03
534.246	44692.99
534.447	44850.69
534.648	44490.24
534.849	44678.66
535.05	44291.59
535.251	44643.84
535.451	44592.64
535.652	44963.32
535.853	44717.57
536.054	44695.04
536.255	44885.5
536.456	44709.38
536.657	44969.47
536.857	44604.93
537.058	44523.01
537.259	44987.9
537.46	44748.29
537.66	44635.65
537.861	44516.87
538.062	44381.7
538.263	44633.6
538.463	44127.75
538.664	44883.45
538.865	44727.81
539.065	44664.32
539.266	44285.45
539.466	45180.41
539.667	44201.48
539.868	44774.91
540.068	44832.25
540.269	44781.06
540.469	44910.08
540.67	44592.64
540.87	44473.86
541.071	44486.15
541.271	44602.88
541.472	44510.72
541.672	44307.97
541.873	44170.76
542.073	44219.91
542.274	44692.99
542.474	44619.27
542.675	44320.26
542.875	44635.65
543.075	44416.52
543.276	44062.22
543.476	44908.03
543.676	44152.33
543.877	44731.9
544.077	44633.6
544.277	44463.62
544.478	44129.8
544.678	44504.58
544.878	44246.54
545.078	44203.53
545.279	43927.05
545.479	44193.29
545.679	44123.66
545.879	44414.47
546.079	44135.95
546.28	44219.91
546.48	43980.3
546.68	44051.98
546.88	44549.63
547.08	44473.86
547.28	44219.91
547.48	43413.01
547.68	44070.41
547.88	44064.27
548.081	44275.21
548.281	44430.85
548.481	44176.9
548.681	44082.7
548.881	44400.13
549.081	44111.37
549.28	43660.82
549.48	44228.1
549.68	44191.24
549.88	44684.8
550.08	44021.26
550.28	44037.64
550.48	43927.05
550.68	44461.57
550.88	43884.05
551.08	44070.41
551.279	44187.14
551.479	43755.02
551.679	43517.46
551.879	43345.43
552.079	44367.37
552.278	43406.87
552.478	44113.42
552.678	44137.99
552.878	44056.07
553.077	43453.97
553.277	43339.29
553.477	44258.82
553.676	43535.89
553.876	44000.78
554.076	43912.72
554.275	43159.06
554.475	43136.54
554.674	43335.19
554.874	43644.43
555.074	43116.06
555.273	43236.89
555.473	43871.76
555.672	43222.55
555.872	43421.2
556.071	43316.76
556.271	43359.77
556.47	43380.24
556.67	42819.1
556.869	43116.06
557.068	43283.99
557.268	43159.06
557.467	43175.45
557.667	43234.84
557.866	43404.82
558.065	42950.17
558.265	42860.06
558.464	42735.13
558.663	43091.48
558.863	42702.37
559.062	43228.7
559.261	42636.83
559.461	42993.18
559.66	42067.5
559.859	42759.71
560.058	42102.31
560.258	42743.33
560.457	42231.33
560.656	42624.54
560.855	42073.64
561.054	41991.72
561.253	42257.96
561.453	42266.15
561.652	41995.82
561.851	42159.66
562.05	42014.25
562.249	41836.08
562.448	41991.72
562.647	42075.69
562.846	41778.73
563.045	42004.01
563.244	41541.17
563.443	42456.61
563.642	41029.18
563.841	41201.21
564.04	41399.86
564.239	41950.76
564.438	41213.49
564.637	41047.61
564.836	41276.98
565.035	41289.27
565.234	41354.8
565.432	40783.42
565.631	40926.78
565.83	41154.1
566.029	40711.74
566.228	40885.82
566.427	40363.59
566.625	40515.14
566.824	40547.9
567.023	40658.49
567.222	40033.86
567.42	40500.8
567.619	40345.16
567.818	40318.53
568.016	39972.42
568.215	40599.1
568.414	40025.67
568.612	40427.07
568.811	40115.78
569.01	39863.88
569.208	39415.38
569.407	39646.8
569.605	39630.41
569.804	39939.66
570.002	39306.83
570.201	39698
570.4	39267.92
570.598	39237.2
570.797	39398.99
570.995	39149.14
571.193	38936.15
571.392	39040.6
571.59	38229.6
571.789	38843.99
571.987	38606.43
572.186	38428.26
572.384	38178.4
572.582	38620.77
572.781	38475.36
572.979	37617.26
573.177	38143.59
573.376	38336.1
573.574	37754.47
573.772	38106.73
573.971	37998.18
574.169	37707.37
574.367	37164.66
574.565	37547.63
574.763	37498.48
574.962	37596.78
575.16	36447.87
575.358	37467.76
575.556	36658.81
575.754	37129.84
575.952	36626.04
576.151	37406.32
576.349	36406.91
576.547	37070.45
576.745	36640.38
576.943	36730.49
577.141	36148.87
577.339	36435.58
577.537	36376.19
577.735	36114.05
577.933	36204.16
578.131	36093.57
578.329	35686.03
578.527	35454.61
578.725	35708.55
578.923	35862.15
579.121	35784.33
579.319	35665.55
579.516	35411.6
579.714	35233.43
579.912	35411.6
580.11	35323.54
580.308	35210.9
580.506	34883.22
580.704	34545.31
580.901	34875.03
581.099	35049.11
581.297	34533.02
581.495	34590.36
581.692	34434.72
581.89	34356.89
582.088	34768.54
582.285	34150.05
582.483	34449.05
582.681	34010.79
582.878	34158.24
583.076	33554.09
583.274	34395.81
583.471	33674.92
583.669	33746.6
583.866	33478.32
584.064	33859.24
584.262	33250.99
584.459	33734.31
584.657	33431.21
584.854	33478.32
585.052	33035.95
585.249	33476.27
585.447	33152.69
585.644	32722.62
585.841	32622.26
586.039	33611.43
586.236	32616.12
586.434	32276.16
586.631	32388.8
586.828	32495.29
587.026	32304.83
587.223	32419.52
587.42	32050.88
587.618	32376.51
587.815	31870.66
588.012	31942.34
588.21	31682.25
588.407	32022.21
588.604	31872.71
588.801	31411.92
588.999	31604.42
589.196	31209.17
589.393	31452.87
589.59	30951.12
589.787	31049.42
589.984	30949.07
590.182	30842.58
590.379	30949.07
590.576	30574.3
590.773	30811.86
590.97	30789.33
591.167	30822.1
591.364	29802.21
591.561	30625.5
591.758	29728.49
591.955	30181.09
592.152	30482.14
592.349	30041.82
592.546	30103.26
592.743	30076.64
592.94	29617.89
593.137	29937.38
593.334	29560.55
593.531	29316.84
593.727	29353.71
593.924	29443.82
594.121	29185.77
594.318	29290.22
594.515	29038.32
594.712	29409
594.908	29042.42
595.105	29001.46
595.302	28688.12
595.499	28931.83
595.696	28872.43
595.892	28542.71
596.089	28581.62
596.286	28397.31
596.482	28337.91
596.679	28251.9
596.876	28057.34
597.072	28329.72
597.269	27983.62
597.466	27741.96
597.662	27641.6
597.859	27881.22
598.055	27686.66
598.252	27776.77
598.448	27490.06
598.645	27782.91
598.841	27092.75
599.038	27424.52
599.234	27164.43
599.431	27344.65
599.627	27320.07
599.824	27295.5
600.02	26947.34
600.217	27275.02
600.413	26990.35
600.609	26586.9
600.806	26681.11
601.002	26629.91
601.198	26335
601.395	26275.61
601.591	26404.63
601.787	26472.21
601.984	26117.92
602.18	25935.65
602.376	26056.48
602.572	26136.35
602.769	25866.02
602.965	25855.78
603.161	26183.45
603.357	25515.81
603.553	25712.42
603.75	25540.39
603.946	25061.16
604.142	25569.06
604.338	25308.97
604.534	25386.79
604.73	25104.17
604.926	24995.63
605.122	25063.21
605.318	24622.9
605.514	24708.91
605.71	24514.36
605.906	24872.75
606.102	24647.47
606.298	24579.89
606.494	24571.7
606.69	24442.68
606.886	24430.39
607.082	24110.91
607.278	24596.28
607.474	24186.68
607.67	24170.3
607.866	23854.91
608.062	24354.62
608.257	24008.51
608.453	24207.16
608.649	24250.17
608.845	23592.77
609.041	23844.67
609.236	23816
609.432	23506.76
609.628	23426.89
609.824	23422.79
610.019	23617.35
610.215	23594.82
610.411	23721.79
610.606	23424.84
610.802	23617.35
610.998	23433.03
611.193	23469.89
611.389	23076.68
611.584	23015.24
611.78	23181.13
611.976	23234.38
612.171	22865.74
612.367	23019.34
612.562	22804.3
612.758	22785.87
612.953	22601.55
613.149	23091.02
613.344	22888.27
613.539	23279.43
613.735	23050.06
613.93	22613.84
614.126	22609.75
614.321	22882.13
614.517	22411.09
614.712	22525.78
614.907	22230.87
615.103	22579.03
615.298	22339.41
615.493	22347.61
615.688	22175.58
615.884	22456.15
616.079	21784.41
616.274	22175.58
616.47	22120.28
616.665	22269.78
616.86	22028.12
617.055	21950.3
617.25	21868.38
617.445	21628.77
617.641	21636.96
617.836	21802.85
618.031	21319.53
618.226	21618.53
618.421	21477.22
618.616	21964.64
618.811	20983.66
619.006	21516.13
619.201	20967.27
619.396	21206.89
619.591	20889.45
619.786	21081.96
619.981	20911.98
620.176	21018.47
620.371	20545.39
620.566	20703.09
620.761	20479.86
620.956	20834.16
621.151	20187
621.346	20383.6
621.541	20062.07
621.735	20039.54
621.93	20096.89
622.125	20115.32
622.32	19718.01
622.515	19828.6
622.709	19787.64
622.904	19666.81
623.099	19402.63
623.294	19599.23
623.488	19208.07
623.683	19408.77
623.878	19122.05
624.072	19115.91
624.267	18913.16
624.462	18857.87
624.656	18532.24
624.851	18485.14
625.046	18282.39
625.24	18339.73
625.435	18077.59
625.629	18259.86
625.824	18167.7
626.018	18153.37
626.213	17495.97
626.407	17633.18
626.602	17624.99
626.796	17880.99
626.991	17770.4
627.185	17668
627.38	17371.04
627.574	16963.5
627.768	16967.59
627.963	17047.46
628.157	17026.98
628.352	17041.32
628.546	16789.42
628.74	16770.99
628.935	16836.52
629.129	16715.69
629.323	16500.65
629.517	16328.63
629.712	16299.95
629.906	16349.11
630.1	16230.32
630.294	16185.27
630.489	16381.87
630.683	16172.98
630.877	15511.49
631.071	15708.09
631.265	15654.84
631.459	15689.66
631.653	15349.7
631.848	15683.52
632.042	15357.89
632.236	15452.09
632.43	15366.08
632.624	15149
632.818	14919.62
633.012	14931.91
633.206	14972.87
633.4	14870.47
633.594	14497.74
633.788	14856.14
633.982	14704.59
634.176	14456.78
634.369	14184.4
634.563	14516.17
634.757	14573.52
634.951	14356.43
635.145	14471.12
635.339	14229.46
635.533	14092.24
635.726	14149.59
635.92	13830.1
636.114	13668.31
636.308	13604.83
636.501	13576.16
636.695	13658.07
636.889	13561.82
637.083	13651.93
637.276	13305.82
637.47	13334.5
637.664	13322.21
637.857	13273.06
638.051	12978.15
638.244	12914.66
638.438	13002.72
638.632	12824.55
638.825	12994.53
639.019	12842.98
639.212	12746.73
639.406	12652.52
639.599	12703.72
639.793	12607.47
639.986	12617.71
640.18	12382.19
640.373	12486.64
640.567	12275.7
640.76	12404.72
640.954	12134.39
641.147	11980.79
641.34	12105.71
641.534	11991.03
641.727	12021.75
641.92	11806.71
642.114	11888.63
642.307	11636.73
642.5	11712.5
642.694	11698.17
642.887	11372.54
643.08	11462.65
643.273	11323.39
643.467	11376.64
643.66	11167.74
643.853	11307.01
644.046	10817.54
644.239	11104.26
644.432	10962.95
644.626	11063.3
644.819	10620.94
645.012	10928.13
645.205	10915.84
645.398	10850.31
645.591	10684.42
645.784	10696.71
645.977	10706.95
646.17	10702.86
646.363	10598.41
646.556	10430.48
646.749	10330.13
646.942	10446.86
647.135	10209.29
647.328	10184.72
647.521	10078.22
647.714	9934.87
647.907	9811.99
648.099	10008.59
648.292	9848.85
648.485	9992.21
648.678	9820.18
648.871	9801.75
649.064	9654.3
649.256	9685.01
649.449	9588.76
649.642	9742.36
649.835	9474.07
650.027	9420.83
650.22	9410.59
650.413	9252.89
650.605	9381.92
650.798	9295.9
650.991	9283.61
651.183	9146.4
651.376	9170.97
651.568	9095.2
651.761	9048.1
651.954	9123.87
652.146	9005.09
652.339	9025.57
652.531	9037.86
652.724	8988.71
652.916	8681.51
653.109	8853.54
653.301	8710.18
653.494	8683.56
653.686	8491.05
653.879	8558.63
654.071	8501.29
654.263	8343.6
654.456	8546.34
654.648	8331.31
654.84	8190
655.033	8175.66
655.225	8149.04
655.417	7946.29
655.61	8114.22
655.802	8210.48
655.994	7981.1
656.186	8228.91
656.379	8030.26
656.571	7739.44
656.763	7897.14
656.955	7645.24
657.148	7817.27
657.34	7841.84
657.532	7745.59
657.724	7747.64
657.916	7645.24
658.108	7653.43
658.3	7563.32
658.492	7475.26
658.684	7391.29
658.876	7272.51
659.068	7458.87
659.26	7311.42
659.452	7262.27
659.644	7370.81
659.836	7188.54
660.028	7227.45
660.22	7272.51
660.412	7098.43
660.604	7243.84
660.796	7112.77
660.988	7055.42
661.18	7098.43
661.372	6914.11
661.563	6953.02
661.755	6883.39
661.947	6955.07
662.139	6817.86
662.331	6793.28
662.522	6649.93
662.714	6809.67
662.906	6778.95
663.097	6762.56
663.289	6682.69
663.481	6506.57
663.673	6686.79
663.864	6676.55
664.056	6424.65
664.247	6410.31
664.439	6383.69
664.631	6410.31
664.822	6463.56
665.014	6375.5
665.205	6344.78
665.397	6266.96
665.588	6260.81
665.78	6137.93
665.971	6182.99
666.163	6105.17
666.354	6166.6
666.546	6119.5
666.737	5924.94
666.929	5980.24
667.12	6176.84
667.311	6154.32
667.503	5949.52
667.694	5908.56
667.885	6035.53
668.077	5818.45
668.268	5945.42
668.459	5695.57
668.651	5800.02
668.842	5754.96
669.033	5699.67
669.224	5576.79
669.416	5763.15
669.607	5767.25
669.798	5554.26
669.989	5761.11
670.18	5523.54
670.371	5482.58
670.563	5482.58
670.754	5533.78
670.945	5589.08
671.136	5437.53
671.327	5175.39
671.518	5277.79
671.709	5558.36
671.9	5378.14
672.091	5392.47
672.282	5402.71
672.473	5349.47
672.664	5277.79
672.855	5148.76
673.046	5181.53
673.237	5298.27
673.428	5156.96
673.619	5195.87
673.809	5070.94
674	5179.48
674.191	5087.33
674.382	5116
674.573	4995.17
674.764	5122.14
674.954	5154.91
675.145	5052.51
675.336	5050.46
675.527	4929.63
675.717	5025.89
675.908	4925.54
676.099	4946.02
676.289	5019.74
676.48	4845.66
676.671	4771.94
676.861	4972.64
677.052	4986.97
677.243	4773.99
677.433	4829.28
677.624	4939.87
677.814	4769.89
678.005	4857.95
678.195	4829.28
678.386	4696.16
678.576	4626.53
678.767	4776.03
678.957	4733.03
679.148	4720.74
679.338	4714.59
679.529	4610.15
679.719	4667.49
679.909	4649.06
680.1	4540.52
680.29	4589.67
680.481	4671.59
680.671	4520.04
680.861	4571.24
681.052	4651.11
681.242	4544.61
681.432	4610.15
681.622	4593.76
681.813	4520.04
682.003	4442.21
682.193	4503.65
682.383	4442.21
682.573	4401.26
682.764	4411.5
682.954	4526.18
683.144	4431.98
683.334	4466.79
683.524	4444.26
683.714	4534.37
683.904	4165.74
684.094	4399.21
684.284	4345.96
684.474	4343.91
684.664	4331.62
684.854	4317.29
685.044	4302.95
685.234	4155.5
685.424	4106.35
685.614	4188.27
685.804	4257.9
685.994	4206.7
686.184	4171.88
686.374	4163.69
686.564	4094.06
686.753	4098.16
686.943	3991.66
687.133	4268.14
687.323	4044.91
687.513	4106.35
687.702	4053.1
687.892	3960.94
688.082	3967.09
688.272	3969.13
688.461	3948.65
688.651	3979.37
688.841	4001.9
689.03	3887.22
689.22	3879.02
689.41	3915.89
689.599	3917.93
689.789	3944.56
689.979	4065.39
690.168	3962.99
690.358	3809.39
690.547	3936.37
690.737	3782.77
690.926	3854.45
691.116	3706.99
691.305	3641.46
691.495	3702.9
691.684	3694.71
691.874	3750
692.063	3694.71
692.252	3788.91
692.442	3682.42
692.631	3788.91
692.82	3483.77
693.01	3663.99
693.199	3573.88
693.388	3516.53
693.578	3557.49
693.767	3557.49
693.956	3496.05
694.146	3465.33
694.335	3424.37
694.524	3426.42
694.713	3444.85
694.902	3461.24
695.092	3524.72
695.281	3405.94
695.47	3594.36
695.659	3358.84
695.848	3483.77
696.037	3461.24
696.226	3555.44
696.415	3403.89
696.604	3401.85
696.793	3397.75
696.982	3381.37
697.171	3377.27
697.36	3311.74
697.549	3438.71
697.738	3303.54
697.927	3362.94
698.116	3395.7
698.305	3274.87
698.494	3233.91
698.683	3297.4
698.872	3274.87
699.061	3369.08
699.25	3246.2
699.438	3258.49
699.627	3242.11
699.816	3254.39
700.005	3209.34
700.193	3317.88
700.382	3131.51
700.571	3188.86
700.76	3129.47
700.948	3084.41
701.137	3164.28
701.326	3113.08
701.514	3115.13
701.703	3336.31
701.892	3035.26
702.08	3338.36
702.269	3172.47
702.457	3049.6
702.646	3084.41
702.834	3131.51
703.023	3149.95
703.212	3117.18
703.4	3276.92
703.589	3188.86
703.777	3059.84
703.965	2984.06
704.154	3084.41
704.342	3057.79
704.531	3170.43
704.719	2963.58
704.907	3070.08
705.096	3086.46
705.284	2920.57
705.472	3059.84
705.661	3117.18
705.849	2906.24
706.037	2990.21
706.226	2920.57
706.414	3082.36
706.602	2906.24
706.79	2957.44
706.979	3043.45
707.167	2918.53
707.355	2936.96
707.543	3063.93
707.731	3016.83
707.919	2988.16
708.107	2928.77
708.296	2936.96
708.484	2902.14
708.672	2855.04
708.86	2850.94
709.048	3016.83
709.236	2871.42
709.424	2891.9
709.612	2951.29
709.8	2797.7
709.988	2867.33
710.176	2828.42
710.364	2842.75
710.551	2877.57
710.739	2826.37
710.927	2805.89
711.115	2756.74
711.303	2850.94
711.491	2711.68
711.679	2771.07
711.866	2760.83
712.054	2789.5
712.242	2846.85
712.43	2918.53
712.617	2844.8
712.805	2834.56
712.993	2844.8
713.181	2680.96
713.368	2822.27
713.556	2730.11
713.744	2691.2
713.931	2795.65
714.119	2830.46
714.306	2674.82
714.494	2828.42
714.682	2683.01
714.869	2648.19
715.057	2816.13
715.244	2523.27
715.432	2795.65
715.619	2668.67
715.807	2773.12
715.994	2697.35
716.182	2658.43
716.369	2764.93
716.556	2642.05
716.744	2789.5
716.931	2676.87
717.119	2777.22
717.306	2578.56
717.493	2605.19
717.681	2625.67
717.868	2590.85
718.055	2726.02
718.242	2519.17
718.43	2726.02
718.617	2613.38
718.804	2504.84
718.991	2590.85
719.179	2668.67
719.366	2590.85
719.553	2568.32
719.74	2615.43
719.927	2480.26
720.114	2670.72
720.301	2539.65
720.488	2547.84
720.676	2635.91
720.863	2648.19
721.05	2551.94
721.237	2422.92
721.424	2498.69
721.611	2609.28
721.798	2547.84
721.985	2486.4
722.172	2429.06
722.358	2447.49
722.545	2535.56
722.732	2357.38
722.919	2535.56
723.106	2449.54
723.293	2377.86
723.48	2457.73
723.667	2424.97
723.853	2478.21
724.04	2386.05
724.227	2427.01
724.414	2406.53
724.6	2480.26
724.787	2494.6
724.974	2459.78
725.161	2422.92
725.347	2349.19
725.534	2506.88
725.72	2420.87
725.907	2402.44
726.094	2367.62
726.28	2328.71
726.467	2402.44
726.653	2326.66
726.84	2439.3
727.027	2467.97
727.213	2304.14
727.4	2328.71
727.586	2422.92
727.773	2222.22
727.959	2324.62
728.145	2263.18
728.332	2314.38
728.518	2361.48
728.705	2328.71
728.891	2410.63
729.077	2433.16
729.264	2285.7
729.45	2295.94
729.636	2330.76
729.823	2291.85
730.009	2345.09
730.195	2365.57
730.382	2238.6
730.568	2308.23
730.754	2312.33
730.94	2269.32
731.126	2209.93
731.313	2287.75
731.499	2222.22
731.685	2353.29
731.871	2189.45
732.057	2341
732.243	2304.14
732.429	2214.02
732.615	2285.7
732.801	2250.89
732.987	2148.49
733.173	2232.46
733.359	2091.15
733.545	2150.54
733.731	2236.55
733.917	2234.5
734.103	2144.39
734.289	2271.37
734.475	2134.15
734.661	2142.35
734.847	2132.11
735.033	2254.98
735.219	2119.82
735.404	2181.26
735.59	2173.07
735.776	2150.54
735.962	2207.88
736.148	2181.26
736.333	2132.11
736.519	2179.21
736.705	2132.11
736.89	2115.72
737.076	2164.87
737.262	2142.35
737.447	2152.59
737.633	2089.1
737.819	2099.34
738.004	2119.82
738.19	2068.62
738.375	2089.1
738.561	2240.65
738.747	2082.95
738.932	2107.53
739.118	2123.91
739.303	2125.96
739.489	2095.24
739.674	2054.28
739.859	2029.71
740.045	1939.6
740.23	2115.72
740.416	2031.76
740.601	2035.85
740.786	1888.4
740.972	1992.84
741.157	1933.45
741.342	1976.46
741.528	1986.7
741.713	1927.31
741.898	1992.84
742.084	2001.04
742.269	1904.78
742.454	1906.83
742.639	1892.49
742.824	1912.97
743.01	1775.76
743.195	2044.04
743.38	1915.02
743.565	1812.62
743.75	1935.5
743.935	1751.18
744.12	1886.35
744.305	1816.72
744.49	1910.93
744.675	1747.09
744.86	1771.66
745.045	1788.05
745.23	1857.68
745.415	1710.22
745.6	1796.24
745.785	1720.46
745.97	1763.47
746.155	1714.32
746.34	1689.74
746.525	1685.65
746.71	1677.46
746.895	1740.94
747.079	1648.79
747.264	1716.37
747.449	1673.36
747.634	1702.03
747.819	1675.41
748.003	1736.85
748.188	1609.87
748.373	1640.59
748.557	1618.07
748.742	1659.03
748.927	1689.74
749.111	1511.57
749.296	1577.11
749.481	1519.76
749.665	1552.53
749.85	1503.38
750.034	1532.05
750.219	1507.48
750.404	1517.72
750.588	1527.96
750.773	1464.47
750.957	1448.08
751.141	1435.8
751.326	1454.23
751.51	1435.8
751.695	1446.04
751.879	1353.88
752.064	1482.9
752.248	1331.35
752.432	1501.33
752.617	1484.95
752.801	1480.85
752.985	1452.18
753.17	1378.45
753.354	1423.51
753.538	1353.88
753.722	1329.3
753.907	1308.82
754.091	1341.59
754.275	1292.44
754.459	1200.28
754.643	1181.85
754.828	1263.77
755.012	1280.15
755.196	1292.44
755.38	1222.81
755.564	1243.29
755.748	1231
755.932	1239.19
756.116	1216.66
756.3	1243.29
756.484	1157.27
756.668	1185.94
756.852	1169.56
757.036	1247.38
757.22	1095.83
757.404	1101.98
757.588	1075.35
757.772	1181.85
757.956	1159.32
758.14	1218.71
758.323	1147.03
758.507	1142.94
758.691	1075.35
758.875	1181.85
759.059	1157.27
759.242	1108.12
759.426	1144.99
759.61	1052.83
759.794	1030.3
759.977	1075.35
760.161	1071.26
760.345	1081.5
760.528	1134.75
760.712	956.57
760.895	1050.78
761.079	1042.59
761.263	960.67
761.446	948.38
761.63	1050.78
761.813	1026.2
761.997	911.52
762.18	952.48
762.364	1001.63
762.547	1042.59
762.731	944.28
762.914	1030.3
763.098	962.72
763.281	1036.44
763.464	936.09
763.648	944.28
763.831	1005.72
764.015	897.18
764.198	948.38
764.381	962.72
764.564	921.76
764.748	829.6
764.931	895.13
765.114	893.09
765.297	927.9
765.481	850.08
765.664	823.45
765.847	888.99
766.03	938.14
766.213	944.28
766.397	813.21
766.58	796.83
766.763	854.17
766.946	882.85
767.129	829.6
767.312	813.21
767.495	929.95
767.678	829.6
767.861	882.85
768.044	903.32
768.227	854.17
768.41	858.27
768.593	874.65
768.776	837.79
768.959	839.84
769.142	919.71
769.324	788.64
769.507	768.16
769.69	743.58
769.873	788.64
770.056	884.89
770.239	759.97
770.421	792.73
770.604	796.83
770.787	772.25
770.97	706.72
771.152	782.49
771.335	671.9
771.518	762.02
771.7	745.63
771.883	721.06
772.066	829.6
772.248	780.45
772.431	733.34
772.613	735.39
772.796	747.68
772.978	759.97
773.161	751.78
773.343	751.78
773.526	657.57
773.708	606.37
773.891	661.66
774.073	706.72
774.256	630.95
774.438	723.1
774.621	645.28
774.803	635.04
774.985	776.35
775.168	700.58
775.35	696.48
775.532	647.33
775.715	676
775.897	704.67
776.079	690.34
776.261	667.81
776.444	708.77
776.626	628.9
776.808	622.75
776.99	542.88
777.173	624.8
777.355	575.65
777.537	579.75
777.719	592.03
777.901	538.79
778.083	669.86
778.265	538.79
778.447	600.23
778.629	567.46
778.811	612.51
778.993	528.55
779.175	608.42
779.357	700.58
779.539	514.21
779.721	444.58
779.903	579.75
780.085	536.74
780.267	542.88
780.449	528.55
780.631	526.5
780.812	622.75
780.994	567.46
781.176	460.96
781.358	501.92
781.54	520.35
781.721	520.35
781.903	501.92
782.085	493.73
782.267	487.59
782.448	477.35
782.63	444.58
782.812	522.4
782.993	495.78
783.175	497.83
783.357	411.81
783.538	460.96
783.72	506.02
783.901	393.38
784.083	487.59
784.264	448.68
784.446	432.29
784.627	372.9
784.809	506.02
784.99	395.43
785.172	479.4
785.353	338.09
785.535	444.58
785.716	403.62
785.897	452.77
786.079	452.77
786.26	344.23
786.441	344.23
786.623	364.71
786.804	432.29
786.985	420
787.167	395.43
787.348	333.99
787.529	333.99
787.71	346.28
787.891	471.2
788.073	354.47
788.254	450.72
788.435	403.62
788.616	338.09
788.797	309.41
788.978	389.28
789.159	344.23
789.34	346.28
789.522	297.13
789.703	379.04
789.884	387.24
790.065	346.28
790.246	348.33
790.427	315.56
790.607	333.99
790.788	409.76
790.969	243.88
791.15	358.57
791.331	315.56
791.512	350.37
791.693	268.45
791.874	344.23
792.054	346.28
792.235	321.7
792.416	274.6
792.597	358.57
792.778	325.8
792.958	305.32
793.139	301.22
793.32	219.3
793.5	225.45
793.681	280.74
793.862	309.41
794.042	274.6
794.223	239.78
794.404	278.69
794.584	270.5
794.765	340.13
794.945	327.85
795.126	278.69
795.306	231.59
795.487	282.79
795.667	262.31
795.848	280.74
796.028	268.45
796.209	274.6
796.389	252.07
796.57	288.93
796.75	172.2
796.93	258.21
797.111	233.64
797.291	305.32
797.471	260.26
797.652	280.74
797.832	207.02
798.012	243.88
798.192	211.11
798.373	225.45
798.553	186.54
798.733	278.69
798.913	274.6
799.093	313.51
799.274	192.68
799.454	200.87
799.634	235.69
799.814	260.26
799.994	188.58
800.174	258.21
800.354	299.17
800.534	198.82
800.714	288.93
800.894	180.39
801.074	247.97
801.254	276.65
801.434	270.5
801.614	209.06
801.794	202.92
801.974	802.97
802.154	168.1
802.334	258.21
802.514	168.1
802.693	192.68
802.873	215.21
803.053	215.21
803.233	186.54
803.413	133.29
803.592	243.88
803.772	190.63
803.952	209.06
804.131	247.97
804.311	207.02
804.491	235.69
804.67	133.29
804.85	108.71
805.03	231.59
805.209	174.25
805.389	223.4
805.568	161.96
805.748	155.82
805.928	123.05
806.107	118.95
806.287	247.97
806.466	149.67
806.646	151.72
806.825	129.19
807.004	190.63
807.184	151.72
807.363	151.72
807.543	145.58
807.722	159.91
807.901	180.39
808.081	145.58
808.26	153.77
808.439	200.87
808.619	188.58
808.798	178.34
808.977	211.11
809.156	131.24
809.336	176.3
809.515	194.73
809.694	186.54
809.873	102.57
810.052	141.48
810.231	149.67
810.411	235.69
810.59	178.34
810.769	129.19
810.948	176.3
811.127	139.43
811.306	166.06
811.485	108.71
811.664	190.63
811.843	133.29
812.022	121
812.201	90.28
812.38	153.77
812.559	94.38
812.737	153.77
812.916	92.33
813.095	174.25
813.274	131.24
813.453	151.72
813.632	217.26
813.811	94.38
813.989	116.9
814.168	118.95
814.347	96.43
814.526	80.04
814.704	118.95
814.883	133.29
815.062	139.43
815.24	127.14
815.419	47.27
815.598	100.52
815.776	137.38
815.955	125.1
816.133	123.05
816.312	186.54
816.49	131.24
816.669	196.78
816.847	145.58
817.026	190.63
817.204	131.24
817.383	112.81
817.561	61.61
817.74	123.05
817.918	133.29
818.097	198.82
818.275	114.86
818.453	125.1
818.632	118.95
818.81	63.66
818.988	143.53
819.167	127.14
819.345	100.52
819.523	178.34
819.701	174.25
819.879	151.72
820.058	135.34
820.236	182.44
820.414	141.48
820.592	80.04
820.77	75.95
820.948	80.04
821.127	131.24
821.305	112.81
821.483	125.1
821.661	88.23
821.839	84.14
822.017	118.95
822.195	98.47
822.373	104.62
822.551	55.47
822.729	141.48
822.907	84.14
823.085	168.1
823.262	147.62
823.44	108.71
823.618	139.43
823.796	39.08
823.974	94.38
824.152	75.95
824.329	59.56
824.507	108.71
824.685	118.95
824.863	123.05
825.04	59.56
825.218	127.14
825.396	53.42
825.574	104.62
825.751	108.71
825.929	141.48
826.107	59.56
826.284	88.23
826.462	174.25
826.639	41.13
826.817	24.75
826.994	82.09
827.172	90.28
827.349	118.95
827.527	26.79
827.704	133.29
827.882	108.71
828.059	84.14
828.237	63.66
828.414	55.47
828.591	53.42
828.769	53.42
828.946	28.84
829.124	100.52
829.301	59.56
829.478	100.52
829.655	96.43
829.833	84.14
830.01	108.71
830.187	116.9
830.364	84.14
830.542	100.52
830.719	34.99
830.896	80.04
831.073	84.14
831.25	88.23
831.427	164.01
831.604	39.08
831.782	84.14
831.959	69.8
832.136	96.43
832.313	94.38
832.49	22.7
832.667	75.95
832.844	-40.79
833.021	80.04
833.198	100.52
833.374	110.76
833.551	149.67
833.728	71.85
833.905	39.08
834.082	61.61
834.259	104.62
834.436	121
834.612	90.28
834.789	47.27
834.966	108.71
835.143	133.29
835.319	2.22
835.496	77.99
835.673	55.47
835.85	84.14
836.026	55.47
836.203	57.51
836.38	12.46
836.556	43.18
836.733	51.37
836.909	94.38
837.086	53.42
837.262	110.76
837.439	127.14
837.616	30.89
837.792	43.18
837.968	108.71
838.145	34.99
838.321	88.23
838.498	84.14
838.674	63.66
838.851	63.66
839.027	116.9
839.203	57.51
839.38	26.79
839.556	82.09
839.732	39.08
839.909	-5.97
840.085	30.89
840.261	12.46
840.437	55.47
840.614	18.6
840.79	69.8
840.966	110.76
841.142	12.46
841.318	59.56
841.494	75.95
841.671	75.95
841.847	61.61
842.023	32.94
842.199	104.62
842.375	94.38
842.551	20.65
842.727	51.37
842.903	26.79
843.079	39.08
843.255	45.23
843.431	-10.07
843.607	84.14
843.783	51.37
843.959	37.03
844.134	43.18
844.31	39.08
844.486	51.37
844.662	-28.5
844.838	34.99
845.013	37.03
845.189	100.52
845.365	100.52
845.541	84.14
845.716	47.27
845.892	88.23
846.068	34.99
846.244	-22.36
846.419	96.43
846.595	-10.07
846.77	20.65
846.946	-22.36
847.122	59.56
847.297	71.85
847.473	102.57
847.648	-28.5
847.824	26.79
847.999	32.94
848.175	4.27
848.35	41.13
848.526	69.8
848.701	55.47
848.876	34.99
849.052	-3.93
849.227	22.7
849.403	43.18
849.578	26.79
849.753	10.41
849.929	51.37
850.104	8.36
850.279	14.51
850.454	53.42
850.63	2.22
850.805	43.18
850.98	37.03
851.155	43.18
851.33	57.51
851.505	6.31
851.681	96.43
851.856	45.23
852.031	-5.97
852.206	12.46
852.381	49.32
852.556	0.17
852.731	34.99
852.906	10.41
853.081	63.66
853.256	47.27
853.431	67.75
853.606	22.7
853.781	6.31
853.956	-22.36
854.131	63.66
854.305	118.95
854.48	16.55
854.655	4.27
854.83	53.42
855.005	59.56
855.18	20.65
855.354	-28.5
855.529	39.08
855.704	-30.55
855.879	104.62
856.053	10.41
856.228	84.14
856.403	55.47
856.577	-14.17
856.752	-46.93
856.926	-18.26
857.101	-34.64
857.276	26.79
857.45	-14.17
857.625	82.09
857.799	10.41
857.974	-12.12
858.148	59.56
858.323	47.27
858.497	2.22
858.672	53.42
858.846	-16.21
859.02	4.27
859.195	30.89
859.369	59.56
859.543	80.04
859.718	63.66
859.892	-20.31
860.066	65.71
860.241	34.99
860.415	59.56
860.589	67.75
860.763	26.79
860.938	-14.17
861.112	-26.45
861.286	8.36
861.46	-14.17
861.634	59.56
861.808	6.31
861.982	32.94
862.157	34.99
862.331	12.46
862.505	-22.36
862.679	18.6
862.853	51.37
863.027	-30.55
863.201	114.86
863.375	28.84
863.549	12.46
863.722	-32.6
863.896	116.9
864.07	-5.97
864.244	86.19
864.418	26.79
864.592	-30.55
864.766	-18.26
864.939	18.6
865.113	61.61
865.287	80.04
865.461	-1.88
865.634	41.13
865.808	-12.12
865.982	18.6
866.156	86.19
866.329	30.89
866.503	-16.21
866.676	45.23
866.85	12.46
867.024	34.99
867.197	26.79
867.371	26.79
867.544	14.51
867.718	47.27
867.891	37.03
868.065	4.27
868.238	-18.26
868.412	34.99
868.585	45.23
868.759	34.99
868.932	-94.04
869.105	-16.21
869.279	-24.4
869.452	12.46
869.625	-44.88
869.799	-51.03
869.972	12.46
870.145	-12.12
870.319	22.7
870.492	2.22
870.665	-30.55
870.838	16.55
871.011	-5.97
871.185	82.09
871.358	59.56
871.531	59.56
871.704	-20.31
871.877	22.7
872.05	34.99
872.223	-42.84
872.396	34.99
872.569	-14.17
872.742	-5.97
872.915	43.18
873.088	-28.5
873.261	-48.98
873.434	45.23
873.607	49.32
873.78	49.32
873.953	-55.12
874.126	-51.03
874.299	-22.36
874.471	-61.27
874.644	-18.26
874.817	86.19
874.99	37.03
875.163	-30.55
875.335	34.99
875.508	8.36
875.681	69.8
875.853	-5.97
876.026	61.61
876.199	73.9
876.371	-30.55
876.544	20.65
876.717	-48.98
876.889	-5.97
877.062	-46.93
877.234	6.31
877.407	26.79
877.579	80.04
877.752	14.51
877.924	41.13
878.097	-55.12
878.269	45.23
878.442	-10.07
878.614	51.37
878.786	22.7
878.959	26.79
879.131	69.8
879.303	-63.32
879.476	4.27
879.648	47.27
879.82	-26.45
879.993	-30.55
880.165	-28.5
880.337	-59.22
880.509	12.46
880.681	-20.31
880.854	-1.88
881.026	-53.08
881.198	102.57
881.37	-5.97
881.542	-20.31
881.714	-53.08
881.886	2.22
882.058	2.22
882.23	-22.36
882.402	121
882.574	43.18
882.746	61.61
882.918	-14.17
883.09	-14.17
883.262	12.46
883.434	-116.56
883.606	-71.51
883.778	-1.88
883.95	-22.36
884.122	-16.21
884.293	-5.97
884.465	-5.97
884.637	6.31
884.809	24.75
884.98	22.7
885.152	88.23
885.324	14.51
885.496	45.23
885.667	-22.36
885.839	-3.93
886.011	24.75
886.182	45.23
886.354	10.41
886.525	-20.31
886.697	20.65
886.869	37.03
887.04	-34.64
887.212	55.47
887.383	2.22
887.555	-5.97
887.726	37.03
887.897	51.37
888.069	-26.45
888.24	2.22
888.412	-63.32
888.583	37.03
888.754	37.03
888.926	-18.26
889.097	37.03
889.268	-48.98
889.44	-20.31
889.611	34.99
889.782	63.66
889.953	-20.31
890.125	-14.17
890.296	-20.31
890.467	6.31
890.638	34.99
890.809	-5.97
890.98	-12.12
891.151	37.03
891.323	-36.69
891.494	-61.27
891.665	-22.36
891.836	-38.74
892.007	30.89
892.178	2.22
892.349	-34.64
892.52	-5.97
892.691	80.04
892.862	22.7
893.032	-30.55
893.203	4.27
893.374	28.84
893.545	-28.5
893.716	-20.31
893.887	67.75
894.057	-36.69
894.228	80.04
894.399	-30.55
894.57	-30.55
894.74	51.37
894.911	67.75
895.082	-63.32
895.253	39.08
895.423	-30.55
895.594	10.41
895.764	-5.97
895.935	-22.36
896.106	34.99
896.276	-26.45
896.447	59.56
896.617	-30.55
896.788	-137.04
896.958	2.22
897.129	-30.55
897.299	14.51
897.47	4.27
897.64	55.47
897.81	4.27
897.981	61.61
898.151	55.47
898.322	43.18
898.492	-18.26
898.662	2.22
898.832	-26.45
899.003	10.41
899.173	-28.5
899.343	45.23
899.513	4.27
