Data from USB4F104151__252__14-22-37-361.txt Node

Date: Thu Mar 13 14:22:37 EDT 2025
User: louis
Spectrometer: USB4F10415
Trigger mode: 4
Integration Time (sec): 2.000000E-2
Scans to average: 1
Electric dark correction enabled: true
Nonlinearity correction enabled: false
Boxcar width: 0
XAxis mode: Wavelengths
Number of Pixels in Spectrum: 3648
>>>>>Begin Spectral Data<<<<<
178.204	-90.45
178.424	-90.45
178.644	-90.45
178.864	-69.97
179.084	-106.84
179.304	-49.49
179.524	20.14
179.744	-16.73
179.964	81.58
180.184	-22.87
180.404	-63.83
180.624	18.09
180.844	61.1
181.064	-92.5
181.283	5.8
181.503	22.19
181.723	36.52
181.943	-47.44
182.163	65.19
182.383	34.47
182.602	40.62
182.822	52.91
183.042	75.43
183.262	40.62
183.482	42.67
183.701	-16.73
183.921	42.67
184.141	-29.01
184.361	40.62
184.58	16.04
184.8	-24.92
185.02	40.62
185.239	75.43
185.459	46.76
185.679	7.85
185.898	32.43
186.118	40.62
186.338	-12.63
186.557	97.96
186.777	79.53
186.997	3.75
187.216	-4.44
187.436	30.38
187.655	40.62
187.875	81.58
188.095	48.81
188.314	32.43
188.534	28.33
188.753	81.58
188.973	11.95
189.192	50.86
189.412	-0.34
189.631	28.33
189.851	16.04
190.07	85.67
190.29	79.53
190.509	24.23
190.729	-0.34
190.948	26.28
191.168	151.21
191.387	106.15
191.607	-39.25
191.826	-12.63
192.045	9.9
192.265	13.99
192.484	57
192.704	-41.3
192.923	32.43
193.142	28.33
193.362	-39.25
193.581	77.48
193.8	65.19
194.02	57
194.239	1.71
194.458	50.86
194.678	1.71
194.897	34.47
195.116	16.04
195.335	16.04
195.555	59.05
195.774	65.19
195.993	69.29
196.212	-22.87
196.432	-72.02
196.651	-14.68
196.87	79.53
197.089	83.63
197.308	57
197.528	48.81
197.747	-57.68
197.966	97.96
198.185	61.1
198.404	122.54
198.623	42.67
198.842	1.71
199.062	59.05
199.281	18.09
199.5	52.91
199.719	18.09
199.938	57
200.157	36.52
200.376	34.47
200.595	34.47
200.814	46.76
201.033	16.04
201.252	28.33
201.471	16.04
201.69	59.05
201.909	34.47
202.128	46.76
202.347	-8.53
202.566	3.75
202.785	-12.63
203.004	40.62
203.223	24.23
203.442	-29.01
203.661	-57.68
203.879	18.09
204.098	40.62
204.317	-8.53
204.536	44.71
204.755	44.71
204.974	59.05
205.193	-39.25
205.411	130.73
205.63	16.04
205.849	11.95
206.068	44.71
206.287	26.28
206.505	95.91
206.724	-53.59
206.943	-24.92
207.162	-20.82
207.381	-10.58
207.599	-14.68
207.818	-26.96
208.037	48.81
208.255	-129.36
208.474	81.58
208.693	83.63
208.911	-16.73
209.13	-20.82
209.349	-4.44
209.567	28.33
209.786	67.24
210.005	3.75
210.223	93.87
210.442	-49.49
210.661	73.39
210.879	40.62
211.098	-6.49
211.316	1.71
211.535	7.85
211.753	83.63
211.972	-6.49
212.191	-0.34
212.409	11.95
212.628	-39.25
212.846	3.75
213.065	24.23
213.283	3.75
213.502	-8.53
213.72	1.71
213.938	11.95
214.157	48.81
214.375	69.29
214.594	30.38
214.812	50.86
215.031	40.62
215.249	9.9
215.467	106.15
215.686	7.85
215.904	48.81
216.122	-16.73
216.341	69.29
216.559	44.71
216.778	75.43
216.996	28.33
217.214	-29.01
217.432	28.33
217.651	24.23
217.869	11.95
218.087	42.67
218.306	38.57
218.524	16.04
218.742	48.81
218.96	67.24
219.179	-0.34
219.397	-2.39
219.615	3.75
219.833	81.58
220.051	65.19
220.27	42.67
220.488	18.09
220.706	40.62
220.924	40.62
221.142	-6.49
221.36	-72.02
221.578	28.33
221.796	83.63
222.015	-49.49
222.233	18.09
222.451	-8.53
222.669	-61.78
222.887	-8.53
223.105	-6.49
223.323	48.81
223.541	-41.3
223.759	42.67
223.977	26.28
224.195	57
224.413	67.24
224.631	114.34
224.849	-24.92
225.067	61.1
225.285	16.04
225.503	102.06
225.721	30.38
225.939	-31.06
226.157	-18.77
226.375	36.52
226.592	9.9
226.81	57
227.028	128.68
227.246	67.24
227.464	-2.39
227.682	93.87
227.9	85.67
228.117	67.24
228.335	61.1
228.553	18.09
228.771	110.25
228.989	118.44
229.206	-6.49
229.424	-0.34
229.642	1.71
229.86	18.09
230.077	7.85
230.295	-24.92
230.513	20.14
230.731	16.04
230.948	48.81
231.166	73.39
231.384	-67.92
231.601	24.23
231.819	81.58
232.037	24.23
232.254	-0.34
232.472	42.67
232.689	13.99
232.907	-8.53
233.125	26.28
233.342	-0.34
233.56	108.2
233.777	24.23
233.995	-4.44
234.213	91.82
234.43	7.85
234.648	81.58
234.865	20.14
235.083	20.14
235.3	67.24
235.518	-22.87
235.735	52.91
235.953	110.25
236.17	11.95
236.388	9.9
236.605	-49.49
236.822	97.96
237.04	9.9
237.257	50.86
237.475	18.09
237.692	89.77
237.909	-6.49
238.127	16.04
238.344	-16.73
238.562	16.04
238.779	-29.01
238.996	3.75
239.214	1.71
239.431	50.86
239.648	-0.34
239.865	59.05
240.083	-20.82
240.3	40.62
240.517	-20.82
240.735	-6.49
240.952	87.72
241.169	46.76
241.386	-39.25
241.603	44.71
241.821	1.71
242.038	40.62
242.255	-6.49
242.472	16.04
242.689	36.52
242.907	18.09
243.124	52.91
243.341	52.91
243.558	85.67
243.775	11.95
243.992	-49.49
244.209	42.67
244.426	-0.34
244.643	97.96
244.86	-33.11
245.078	40.62
245.295	-24.92
245.512	40.62
245.729	26.28
245.946	73.39
246.163	28.33
246.38	89.77
246.597	67.24
246.814	20.14
247.031	32.43
247.248	32.43
247.464	-41.3
247.681	9.9
247.898	20.14
248.115	-0.34
248.332	61.1
248.549	57
248.766	-49.49
248.983	91.82
249.2	-12.63
249.417	16.04
249.633	24.23
249.85	83.63
250.067	30.38
250.284	81.58
250.501	34.47
250.717	7.85
250.934	38.57
251.151	-41.3
251.368	-16.73
251.585	65.19
251.801	32.43
252.018	-31.06
252.235	-8.53
252.451	-0.34
252.668	57
252.885	106.15
253.102	36.52
253.318	26.28
253.535	26.28
253.752	-24.92
253.968	-22.87
254.185	-51.54
254.401	42.67
254.618	-29.01
254.835	-4.44
255.051	59.05
255.268	93.87
255.484	93.87
255.701	-8.53
255.917	50.86
256.134	34.47
256.351	11.95
256.567	-0.34
256.784	65.19
257	-29.01
257.217	34.47
257.433	16.04
257.65	95.91
257.866	57
258.082	-41.3
258.299	-37.2
258.515	16.04
258.732	44.71
258.948	73.39
259.165	57
259.381	7.85
259.597	52.91
259.814	-26.96
260.03	52.91
260.246	3.75
260.463	26.28
260.679	93.87
260.895	-39.25
261.112	75.43
261.328	11.95
261.544	9.9
261.761	63.15
261.977	-14.68
262.193	24.23
262.409	44.71
262.626	-16.73
262.842	75.43
263.058	104.11
263.274	40.62
263.49	22.19
263.707	-22.87
263.923	9.9
264.139	-8.53
264.355	34.47
264.571	28.33
264.787	40.62
265.004	73.39
265.22	-12.63
265.436	-39.25
265.652	26.28
265.868	65.19
266.084	30.38
266.3	75.43
266.516	1.71
266.732	20.14
266.948	-0.34
267.164	48.81
267.38	120.49
267.596	-14.68
267.812	100.01
268.028	-22.87
268.244	-33.11
268.46	-4.44
268.676	24.23
268.892	32.43
269.108	42.67
269.324	34.47
269.54	26.28
269.756	83.63
269.972	-43.35
270.188	57
270.403	7.85
270.619	44.71
270.835	-41.3
271.051	52.91
271.267	-4.44
271.483	-14.68
271.698	71.34
271.914	5.8
272.13	11.95
272.346	-0.34
272.562	11.95
272.777	110.25
272.993	42.67
273.209	5.8
273.425	-0.34
273.64	32.43
273.856	102.06
274.072	104.11
274.287	20.14
274.503	16.04
274.719	-12.63
274.934	20.14
275.15	-43.35
275.366	57
275.581	52.91
275.797	22.19
276.012	63.15
276.228	44.71
276.444	13.99
276.659	77.48
276.875	-57.68
277.09	-33.11
277.306	30.38
277.521	77.48
277.737	30.38
277.952	16.04
278.168	20.14
278.383	16.04
278.599	1.71
278.814	30.38
279.03	-18.77
279.245	65.19
279.461	-31.06
279.676	91.82
279.892	-29.01
280.107	9.9
280.322	-41.3
280.538	-2.39
280.753	-14.68
280.969	-0.34
281.184	91.82
281.399	28.33
281.615	-12.63
281.83	48.81
282.045	9.9
282.26	38.57
282.476	59.05
282.691	65.19
282.906	24.23
283.122	79.53
283.337	75.43
283.552	42.67
283.767	11.95
283.983	32.43
284.198	16.04
284.413	-49.49
284.628	18.09
284.843	-39.25
285.058	18.09
285.274	42.67
285.489	65.19
285.704	50.86
285.919	-6.49
286.134	24.23
286.349	20.14
286.564	48.81
286.779	87.72
286.995	7.85
287.21	7.85
287.425	69.29
287.64	24.23
287.855	81.58
288.07	18.09
288.285	67.24
288.5	7.85
288.715	83.63
288.93	36.52
289.145	97.96
289.36	32.43
289.575	-55.64
289.79	24.23
290.004	75.43
290.219	57
290.434	-69.97
290.649	1.71
290.864	-41.3
291.079	32.43
291.294	26.28
291.509	54.95
291.724	48.81
291.938	-20.82
292.153	5.8
292.368	73.39
292.583	89.77
292.798	48.81
293.012	67.24
293.227	-12.63
293.442	59.05
293.657	-2.39
293.871	71.34
294.086	32.43
294.301	67.24
294.516	9.9
294.73	26.28
294.945	18.09
295.16	28.33
295.374	48.81
295.589	79.53
295.804	-16.73
296.018	46.76
296.233	75.43
296.447	-16.73
296.662	54.95
296.877	13.99
297.091	85.67
297.306	32.43
297.52	36.52
297.735	50.86
297.949	-24.92
298.164	71.34
298.378	32.43
298.593	7.85
298.807	-65.88
299.022	42.67
299.236	1.71
299.451	28.33
299.665	-53.59
299.88	-8.53
300.094	34.47
300.309	97.96
300.523	34.47
300.737	65.19
300.952	52.91
301.166	-4.44
301.381	36.52
301.595	9.9
301.809	-14.68
302.024	40.62
302.238	59.05
302.452	89.77
302.667	69.29
302.881	5.8
303.095	40.62
303.309	16.04
303.524	26.28
303.738	24.23
303.952	40.62
304.166	54.95
304.381	24.23
304.595	106.15
304.809	20.14
305.023	7.85
305.237	30.38
305.452	-39.25
305.666	38.57
305.88	-6.49
306.094	-0.34
306.308	-16.73
306.522	110.25
306.736	32.43
306.95	44.71
307.164	-8.53
307.379	42.67
307.593	89.77
307.807	-6.49
308.021	108.2
308.235	16.04
308.449	-59.73
308.663	20.14
308.877	132.78
309.091	114.34
309.305	63.15
309.519	16.04
309.733	40.62
309.947	-24.92
310.161	9.9
310.374	34.47
310.588	73.39
310.802	16.04
311.016	9.9
311.23	-2.39
311.444	7.85
311.658	-57.68
311.872	100.01
312.085	67.24
312.299	81.58
312.513	32.43
312.727	77.48
312.941	-57.68
313.154	89.77
313.368	-31.06
313.582	30.38
313.796	71.34
314.009	67.24
314.223	50.86
314.437	81.58
314.651	44.71
314.864	-47.44
315.078	-0.34
315.292	-4.44
315.505	5.8
315.719	-49.49
315.933	-8.53
316.146	32.43
316.36	34.47
316.573	28.33
316.787	112.3
317.001	59.05
317.214	-43.35
317.428	-16.73
317.641	-0.34
317.855	73.39
318.068	24.23
318.282	-12.63
318.495	130.73
318.709	54.95
318.922	100.01
319.136	34.47
319.349	-16.73
319.563	36.52
319.776	63.15
319.99	34.47
320.203	46.76
320.417	54.95
320.63	75.43
320.843	26.28
321.057	93.87
321.27	57
321.483	104.11
321.697	136.87
321.91	42.67
322.124	36.52
322.337	73.39
322.55	59.05
322.763	-26.96
322.977	44.71
323.19	-12.63
323.403	34.47
323.617	20.14
323.83	24.23
324.043	-39.25
324.256	44.71
324.469	-16.73
324.683	36.52
324.896	42.67
325.109	34.47
325.322	28.33
325.535	24.23
325.748	9.9
325.962	83.63
326.175	67.24
326.388	102.06
326.601	75.43
326.814	89.77
327.027	81.58
327.24	65.19
327.453	-24.92
327.666	24.23
327.879	-16.73
328.092	16.04
328.305	52.91
328.518	65.19
328.731	32.43
328.944	18.09
329.157	-49.49
329.37	32.43
329.583	57
329.796	40.62
330.009	44.71
330.222	-6.49
330.435	48.81
330.648	22.19
330.861	65.19
331.073	38.57
331.286	104.11
331.499	85.67
331.712	26.28
331.925	44.71
332.138	65.19
332.35	118.44
332.563	-41.3
332.776	32.43
332.989	-12.63
333.202	67.24
333.414	1.71
333.627	24.23
333.84	57
334.053	65.19
334.265	11.95
334.478	22.19
334.691	24.23
334.903	18.09
335.116	-2.39
335.329	-72.02
335.541	11.95
335.754	9.9
335.966	7.85
336.179	13.99
336.392	-0.34
336.604	28.33
336.817	85.67
337.029	57
337.242	44.71
337.454	34.47
337.667	48.81
337.88	89.77
338.092	83.63
338.305	52.91
338.517	-31.06
338.729	26.28
338.942	-0.34
339.154	-47.44
339.367	11.95
339.579	36.52
339.792	75.43
340.004	9.9
340.217	24.23
340.429	-16.73
340.641	18.09
340.854	-14.68
341.066	-22.87
341.278	32.43
341.491	75.43
341.703	40.62
341.915	73.39
342.128	48.81
342.34	48.81
342.552	-14.68
342.764	-0.34
342.977	59.05
343.189	89.77
343.401	116.39
343.613	-37.2
343.826	9.9
344.038	-51.54
344.25	42.67
344.462	5.8
344.674	13.99
344.886	11.95
345.099	3.75
345.311	5.8
345.523	-14.68
345.735	-0.34
345.947	48.81
346.159	24.23
346.371	32.43
346.583	44.71
346.795	97.96
347.007	-10.58
347.219	11.95
347.431	67.24
347.643	-8.53
347.855	-8.53
348.067	87.72
348.279	20.14
348.491	30.38
348.703	18.09
348.915	73.39
349.127	7.85
349.339	13.99
349.551	-0.34
349.763	7.85
349.975	11.95
350.187	59.05
350.399	77.48
350.61	65.19
350.822	-33.11
351.034	5.8
351.246	40.62
351.458	32.43
351.669	44.71
351.881	28.33
352.093	83.63
352.305	81.58
352.517	48.81
352.728	59.05
352.94	11.95
353.152	1.71
353.363	-22.87
353.575	-41.3
353.787	34.47
353.999	-6.49
354.21	93.87
354.422	-16.73
354.633	1.71
354.845	40.62
355.057	-12.63
355.268	3.75
355.48	46.76
355.692	36.52
355.903	-4.44
356.115	32.43
356.326	36.52
356.538	81.58
356.749	50.86
356.961	108.2
357.172	1.71
357.384	-16.73
357.595	91.82
357.807	16.04
358.018	-6.49
358.23	-0.34
358.441	9.9
358.653	106.15
358.864	-0.34
359.075	40.62
359.287	69.29
359.498	91.82
359.709	61.1
359.921	16.04
360.132	-55.64
360.344	50.86
360.555	57
360.766	44.71
360.977	-20.82
361.189	16.04
361.4	34.47
361.611	108.2
361.823	143.02
362.034	83.63
362.245	18.09
362.456	-8.53
362.667	85.67
362.879	9.9
363.09	11.95
363.301	-16.73
363.512	36.52
363.723	1.71
363.935	1.71
364.146	106.15
364.357	-63.83
364.568	63.15
364.779	75.43
364.99	18.09
365.201	48.81
365.412	42.67
365.623	-41.3
365.834	102.06
366.045	48.81
366.256	-33.11
366.467	75.43
366.678	28.33
366.889	50.86
367.1	40.62
367.311	50.86
367.522	20.14
367.733	75.43
367.944	48.81
368.155	11.95
368.366	32.43
368.577	102.06
368.788	73.39
368.999	48.81
369.209	18.09
369.42	97.96
369.631	124.58
369.842	110.25
370.053	7.85
370.264	28.33
370.474	11.95
370.685	-24.92
370.896	73.39
371.107	91.82
371.317	36.52
371.528	11.95
371.739	-0.34
371.95	83.63
372.16	-53.59
372.371	7.85
372.582	77.48
372.792	-16.73
373.003	83.63
373.214	52.91
373.424	-0.34
373.635	69.29
373.846	-0.34
374.056	114.34
374.267	-2.39
374.477	57
374.688	50.86
374.898	124.58
375.109	16.04
375.319	67.24
375.53	34.47
375.74	52.91
375.951	7.85
376.161	16.04
376.372	34.47
376.582	57
376.793	24.23
377.003	54.95
377.214	11.95
377.424	73.39
377.635	59.05
377.845	50.86
378.055	16.04
378.266	28.33
378.476	52.91
378.686	61.1
378.897	-16.73
379.107	-33.11
379.317	104.11
379.528	1.71
379.738	44.71
379.948	-10.58
380.158	57
380.369	-12.63
380.579	46.76
380.789	-10.58
380.999	83.63
381.21	65.19
381.42	100.01
381.63	71.34
381.84	7.85
382.05	36.52
382.261	91.82
382.471	-8.53
382.681	57
382.891	67.24
383.101	16.04
383.311	-0.34
383.521	63.15
383.731	50.86
383.941	18.09
384.151	18.09
384.361	9.9
384.571	38.57
384.781	89.77
384.991	108.2
385.201	130.73
385.411	52.91
385.621	75.43
385.831	44.71
386.041	7.85
386.251	48.81
386.461	5.8
386.671	-8.53
386.881	36.52
387.091	71.34
387.301	22.19
387.511	81.58
387.72	-18.77
387.93	89.77
388.14	-2.39
388.35	24.23
388.56	36.52
388.769	40.62
388.979	42.67
389.189	-39.25
389.399	75.43
389.609	32.43
389.818	32.43
390.028	32.43
390.238	100.01
390.447	-20.82
390.657	81.58
390.867	83.63
391.076	24.23
391.286	-22.87
391.496	63.15
391.705	52.91
391.915	75.43
392.125	75.43
392.334	40.62
392.544	38.57
392.753	26.28
392.963	-4.44
393.172	44.71
393.382	-6.49
393.591	93.87
393.801	24.23
394.01	61.1
394.22	122.54
394.429	73.39
394.639	32.43
394.848	91.82
395.058	32.43
395.267	16.04
395.477	140.97
395.686	7.85
395.895	57
396.105	140.97
396.314	42.67
396.524	44.71
396.733	48.81
396.942	59.05
397.152	104.11
397.361	61.1
397.57	38.57
397.78	-45.4
397.989	52.91
398.198	179.88
398.407	48.81
398.617	75.43
398.826	40.62
399.035	134.82
399.244	114.34
399.453	67.24
399.663	61.1
399.872	122.54
400.081	38.57
400.29	75.43
400.499	65.19
400.708	73.39
400.917	36.52
401.127	97.96
401.336	52.91
401.545	108.2
401.754	112.3
401.963	138.92
402.172	104.11
402.381	122.54
402.59	71.34
402.799	138.92
403.008	38.57
403.217	124.58
403.426	100.01
403.635	155.3
403.844	120.49
404.053	132.78
404.262	81.58
404.471	81.58
404.68	57
404.888	153.26
405.097	97.96
405.306	24.23
405.515	126.63
405.724	140.97
405.933	89.77
406.142	83.63
406.35	147.11
406.559	140.97
406.768	67.24
406.977	110.25
407.185	196.26
407.394	120.49
407.603	116.39
407.812	181.93
408.02	145.06
408.229	138.92
408.438	206.5
408.646	163.5
408.855	147.11
409.064	188.07
409.272	143.02
409.481	188.07
409.69	151.21
409.898	145.06
410.107	163.5
410.315	276.13
410.524	237.22
410.733	171.69
410.941	239.27
411.15	259.75
411.358	204.46
411.567	265.89
411.775	282.28
411.984	206.5
412.192	208.55
412.401	280.23
412.609	308.9
412.818	339.62
413.026	356.01
413.234	310.95
413.443	386.72
413.651	337.57
413.86	388.77
414.068	409.25
414.276	403.11
414.485	325.29
414.693	466.6
414.901	474.79
415.11	462.5
415.318	423.59
415.526	442.02
415.734	489.12
415.943	507.55
416.151	485.03
416.359	536.23
416.567	495.27
416.776	519.84
416.984	497.32
417.192	712.35
417.4	550.56
417.608	591.52
417.817	622.24
418.025	698.02
418.233	745.12
418.441	691.87
418.649	808.61
418.857	835.23
419.065	835.23
419.273	792.22
419.481	794.27
419.689	902.81
419.897	892.57
420.105	978.59
420.313	937.63
420.521	1042.07
420.729	1083.03
420.937	1027.74
421.145	1099.42
421.353	1154.71
421.561	1195.67
421.769	1179.29
421.977	1271.45
422.185	1154.71
422.393	1326.74
422.601	1392.28
422.809	1359.51
423.017	1406.61
423.224	1410.71
423.432	1519.25
423.64	1502.87
423.848	1711.76
424.056	1564.31
424.263	1730.19
424.471	1699.47
424.679	1828.49
424.887	1826.45
425.094	1910.41
425.302	1787.54
425.51	1953.42
425.718	2121.35
425.925	2057.87
426.133	2207.37
426.341	2334.34
426.548	2377.35
426.756	2363.01
426.964	2442.89
427.171	2451.08
427.379	2559.62
427.586	2729.6
427.794	2772.61
428.001	2895.49
428.209	2858.62
428.417	2926.21
428.624	3159.67
428.832	3040.89
429.039	3075.71
429.247	3030.65
429.454	3473.01
429.662	3692.15
429.869	3300.98
430.076	3632.76
430.284	3569.27
430.491	3657.33
430.699	3985.01
430.906	3853.94
431.114	3876.46
431.321	4091.5
431.528	4068.97
431.736	4476.52
431.943	4609.64
432.15	4398.7
432.358	4585.06
432.565	4836.96
432.772	4720.23
432.979	5119.58
433.187	5070.43
433.394	5168.73
433.601	5482.07
433.808	5471.83
434.016	5410.39
434.223	5611.09
434.43	6039.12
434.637	5899.86
434.844	6213.2
435.052	6411.85
435.259	6307.4
435.466	6446.66
435.673	6387.27
435.88	6792.77
436.087	7155.26
436.294	6917.7
436.501	6889.03
436.708	6983.23
436.915	7396.92
437.122	7751.22
437.329	7503.42
437.537	7913.01
437.743	7904.82
437.95	8052.27
438.157	8373.8
438.364	8771.11
438.571	8494.63
438.778	8562.22
438.985	9559.58
439.192	9219.61
439.399	9430.55
439.606	8977.95
439.813	9610.78
440.02	10272.27
440.227	10190.35
440.433	9958.93
440.64	10210.83
440.847	10255.89
441.054	10489.35
441.261	11009.54
441.467	10915.33
441.674	11089.41
441.881	11587.07
442.088	11574.78
442.294	11605.5
442.501	11888.12
442.708	12281.33
442.914	12361.2
443.121	12695.02
443.328	12598.76
443.534	13614.55
443.741	13041.12
443.948	13073.89
444.154	13759.96
444.361	13819.35
444.568	13753.82
444.774	13772.25
444.981	13929.94
445.187	14239.19
445.394	14955.97
445.6	14765.51
445.807	16166.32
446.013	15371.71
446.22	15744.44
446.426	16291.25
446.633	16532.91
446.839	17302.95
447.046	16149.94
447.252	17425.82
447.459	17352.1
447.665	17237.41
447.871	17880.47
448.078	18924.94
448.284	18007.45
448.491	18367.89
448.697	18939.27
448.903	19598.72
449.11	19561.86
449.316	19162.5
449.522	19817.85
449.728	20125.05
449.935	19967.35
450.141	20223.35
450.347	20522.35
450.553	20200.82
450.76	20385.14
450.966	21159.27
451.172	20921.71
451.378	21378.4
451.584	20948.33
451.791	21433.7
451.997	21204.33
452.203	21570.91
452.409	21806.43
452.615	21884.25
452.821	20819.31
453.027	20524.4
453.233	21677.41
453.44	21044.59
453.646	21472.61
453.852	21364.07
454.058	21822.81
454.264	20942.19
454.47	21282.15
454.676	20874.6
454.882	21697.89
455.088	19828.09
455.294	19910.01
455.5	20411.76
455.705	20858.22
455.911	19707.26
456.117	19584.38
456.323	19152.26
456.529	18159
456.735	19062.15
456.941	18609.55
457.147	18435.47
457.352	17718.68
457.558	17491.36
457.764	17487.26
457.97	17225.12
458.176	17051.05
458.381	16842.15
458.587	16074.17
458.793	16195
458.999	15377.86
459.204	16530.86
459.41	15769.02
459.616	14749.13
459.821	15046.09
460.027	14661.07
460.233	14591.44
460.438	13630.94
460.644	14036.44
460.85	13479.39
461.055	13333.98
461.261	13020.64
461.466	11920.88
461.672	11734.52
461.878	12555.76
462.083	11705.85
462.289	11613.69
462.494	11578.87
462.7	10976.77
462.905	10821.13
463.111	10913.28
463.316	11124.22
463.522	10896.9
463.727	10759.69
463.932	10675.72
464.138	10520.07
464.343	10673.67
464.549	10300.94
464.754	10886.66
464.959	10595.85
465.165	10610.18
465.37	10290.7
465.575	9852.44
465.781	10386.96
465.986	10327.57
466.191	9842.2
466.397	9805.33
466.602	9338.4
466.807	9584.15
467.012	9670.17
467.218	9739.8
467.423	9600.54
467.628	9618.97
467.833	9883.16
468.038	9657.88
468.244	9205.28
468.449	9698.84
468.654	9420.31
468.859	9219.61
469.064	9223.71
469.269	8859.17
469.474	8959.52
469.679	9174.56
469.885	8842.79
470.09	9033.25
470.295	9018.91
470.5	8781.35
470.705	8674.85
470.91	8523.3
471.115	8551.98
471.32	8611.37
471.525	8418.86
471.73	8320.56
471.935	8371.75
472.139	8142.38
472.344	8355.37
472.549	8203.82
472.754	8017.46
472.959	7865.91
473.164	7722.55
473.369	7566.9
473.574	7808.56
473.778	7802.42
473.983	7972.4
474.188	7724.6
474.393	7179.84
474.598	7468.6
474.802	7165.5
475.007	7118.4
475.212	7306.81
475.417	7142.97
475.621	7179.84
475.826	6970.94
476.031	6886.98
476.235	6753.86
476.44	6913.6
476.645	6833.73
476.849	6778.44
477.054	6622.79
477.259	6479.43
477.463	6456.9
477.668	6356.55
477.872	6581.83
478.077	6340.17
478.282	6073.93
478.486	6237.77
478.691	6112.85
478.895	6047.31
479.1	5979.73
479.304	6202.96
479.509	5840.47
479.713	5969.49
479.918	5822.03
480.122	5729.88
480.326	5783.12
480.531	5877.33
480.735	5729.88
480.94	5713.49
481.144	5754.45
481.348	5660.24
481.553	5785.17
481.757	5455.45
481.961	5631.57
482.166	5615.19
482.37	5664.34
482.574	5629.52
482.778	5621.33
482.983	5746.26
483.187	5580.37
483.391	5584.47
483.595	5520.98
483.8	5498.45
484.004	5543.51
484.208	5717.59
484.412	5408.34
484.616	5617.24
484.821	5547.61
485.025	5557.85
485.229	5713.49
485.433	5539.41
485.637	5637.72
485.841	5504.6
486.045	5432.92
486.249	5537.37
486.453	5660.24
486.657	5504.6
486.861	5570.13
487.065	5420.63
487.269	5414.49
487.473	5332.57
487.677	5488.21
487.881	5602.9
488.085	5527.13
488.289	5498.45
488.493	5488.21
488.697	5723.73
488.901	5557.85
489.105	5588.57
489.309	5531.22
489.512	5729.88
489.716	5668.44
489.92	5580.37
490.124	5504.6
490.328	5721.68
490.531	5611.09
490.735	5791.31
490.939	5783.12
491.143	5684.82
491.346	5647.96
491.55	5682.77
491.754	5738.07
491.958	5733.97
492.161	5709.4
492.365	6035.02
492.569	5688.92
492.772	5795.41
492.976	5895.76
493.18	6102.61
493.383	6088.27
493.587	6055.5
493.79	6012.49
493.994	5963.34
494.197	5940.82
494.401	6282.83
494.605	6188.62
494.808	6430.28
495.012	6217.29
495.215	6299.21
495.419	6473.29
495.622	6401.61
495.825	6409.8
496.029	6456.9
496.232	6667.84
496.436	6467.14
496.639	6626.89
496.843	6757.96
497.046	6661.7
497.249	6884.93
497.453	6829.63
497.656	6940.22
497.859	6954.56
498.063	7102.01
498.266	7093.82
498.469	7173.69
498.673	7421.5
498.876	7153.21
499.079	7476.79
499.282	7441.98
499.485	7671.35
499.689	7695.93
499.892	7605.81
500.095	7640.63
500.298	7947.83
500.501	7814.71
500.705	8078.9
500.908	8166.96
501.111	8146.48
501.314	8298.03
501.517	8341.04
501.72	8465.96
501.923	8445.48
502.126	8654.37
502.329	8713.77
502.532	8975.91
502.735	8748.58
502.938	9002.53
503.141	9197.09
503.344	9266.72
503.547	9338.4
503.75	9340.44
503.953	9487.9
504.156	9649.69
504.359	9573.91
504.562	9758.23
504.765	9819.67
504.968	10034.71
505.17	9913.88
505.373	10231.31
505.576	10090
505.779	10374.67
505.982	10362.38
506.185	10544.65
506.387	10814.98
506.59	10694.15
506.793	11017.73
506.996	11066.88
507.198	11296.25
507.401	11150.85
507.604	11499
507.807	11634.17
508.009	11570.68
508.212	11537.91
508.415	11843.06
508.617	11865.59
508.82	12230.13
509.022	12047.86
509.225	12260.85
509.428	12287.47
509.63	12525.04
509.833	12629.48
510.035	12850.66
510.238	12760.55
510.44	12895.72
510.643	13133.28
510.845	13252.06
511.048	13186.53
511.25	13557.21
511.453	13436.38
511.655	14009.81
511.858	13848.02
512.06	14036.44
512.262	14161.36
512.465	13991.38
512.667	14099.92
512.87	14589.39
513.072	14499.28
513.274	14896.58
513.477	14867.91
513.679	15074.76
513.881	15154.63
514.084	15250.88
514.286	15482.3
514.488	15207.87
514.69	15596.99
514.893	15769.02
515.095	15904.18
515.297	16154.04
515.499	16061.88
515.701	16522.67
515.904	16580.01
516.106	16926.12
516.308	16649.64
516.51	17208.74
516.712	17214.88
516.914	17481.12
517.116	17681.82
517.318	17696.16
517.52	17681.82
517.722	17767.84
517.925	18140.57
518.127	18390.42
518.329	18283.92
518.531	18163.09
518.733	18644.37
518.935	18855.31
519.136	19047.82
519.338	18883.98
519.54	19168.65
519.742	19529.09
519.944	19363.2
520.146	19672.45
520.348	19895.68
520.55	20092.28
520.752	20053.37
520.954	20424.05
521.155	20129.14
521.357	20688.24
521.559	20538.74
521.761	20899.18
521.963	20856.17
522.164	21333.35
522.366	21439.84
522.568	21300.58
522.77	21560.67
522.971	21863.77
523.173	21601.63
523.375	22142.3
523.576	22084.95
523.778	22013.27
523.98	22193.5
524.181	22152.54
524.383	22510.93
524.584	22549.84
524.786	22373.72
524.988	22648.15
525.189	23199.05
525.391	23358.79
525.592	23176.52
525.794	23379.27
525.995	23430.47
526.197	23440.71
526.398	23655.75
526.6	23694.66
526.801	23688.51
527.003	23782.72
527.204	24044.86
527.406	24030.52
527.607	24345.91
527.808	24149.31
528.01	23913.79
528.211	24231.22
528.412	24722.74
528.614	24735.03
528.815	24458.55
529.016	24837.42
529.218	24378.68
529.419	24374.58
529.62	25234.73
529.822	24720.69
530.023	24960.3
530.224	25242.92
530.425	24710.45
530.626	24864.05
530.828	24606
531.029	25638.18
531.23	24997.17
531.431	25058.6
531.632	24976.69
531.833	25296.17
532.035	25118
532.236	25300.26
532.437	25412.9
532.638	25083.18
532.839	25550.12
533.04	25097.52
533.241	25277.74
533.442	25550.12
533.643	25795.87
533.844	24968.49
534.045	25634.08
534.246	25365.8
534.447	25693.47
534.648	25402.66
534.849	25541.92
535.05	25427.24
535.251	25294.12
535.451	25259.31
535.652	25670.95
535.853	25040.17
536.054	25574.69
536.255	25568.55
536.456	25150.76
536.657	25791.78
536.857	25642.28
537.058	25390.38
537.259	25965.85
537.46	25769.25
537.66	25793.83
537.861	25419.05
538.062	25412.9
538.263	25281.83
538.463	25312.55
538.664	25302.31
538.865	25595.17
539.065	25572.64
539.266	25326.89
539.466	25589.03
539.667	25052.46
539.868	25672.99
540.068	25654.56
540.269	25570.6
540.469	25601.32
540.67	25302.31
540.87	25300.26
541.071	25402.66
541.271	25480.49
541.472	25505.06
541.672	25300.26
541.873	25402.66
542.073	24927.53
542.274	25402.66
542.474	25230.63
542.675	25267.5
542.875	25564.45
543.075	25195.82
543.276	24855.86
543.476	25201.96
543.676	25269.55
543.877	25228.59
544.077	25181.48
544.277	24974.64
544.478	25285.93
544.678	25064.75
544.878	25189.67
545.078	25283.88
545.279	25077.04
545.479	25070.89
545.679	24993.07
545.879	24976.69
546.079	25195.82
546.28	25142.57
546.48	24923.44
546.68	25179.43
546.88	24941.87
547.08	25308.46
547.28	24683.83
547.48	24882.48
547.68	25255.21
547.88	24931.63
548.081	25169.19
548.281	25113.9
548.481	24900.91
548.681	25087.28
548.881	25050.41
549.081	25232.68
549.28	24902.96
549.48	25034.03
549.68	24524.08
549.88	25171.24
550.08	24573.24
550.28	24706.35
550.48	24741.17
550.68	25058.6
550.88	24915.25
551.08	25077.04
551.279	24993.07
551.479	24612.15
551.679	25048.36
551.879	24851.76
552.079	25324.84
552.278	25025.84
552.478	24692.02
552.678	24991.02
552.878	24913.2
553.077	24782.13
553.277	24255.8
553.477	24939.82
553.676	24366.39
553.876	24657.2
554.076	24665.39
554.275	24438.07
554.475	24239.42
554.674	24667.44
554.874	24509.75
555.074	24630.58
555.273	24948.01
555.473	24667.44
555.672	24513.84
555.872	24556.85
556.071	24622.39
556.271	24687.92
556.47	24409.4
556.67	24272.18
556.869	24468.79
557.068	24472.89
557.268	24167.74
557.467	24587.57
557.667	24421.69
557.866	24274.23
558.065	24341.82
558.265	24194.36
558.464	24067.39
558.663	24145.21
558.863	23870.78
559.062	24431.93
559.261	23932.22
559.461	24317.24
559.66	23807.3
559.859	24128.83
560.058	24016.19
560.258	23973.18
560.457	23833.92
560.656	24094.01
560.855	23721.28
561.054	24048.96
561.253	23803.2
561.453	23864.64
561.652	23772.48
561.851	23782.72
562.05	23379.27
562.249	23485.76
562.448	23708.99
562.647	23391.56
562.846	23612.74
563.045	23176.52
563.244	23209.29
563.443	23610.69
563.642	23088.46
563.841	23084.36
564.04	23133.51
564.239	23455.04
564.438	23096.65
564.637	22920.52
564.836	23326.02
565.035	22869.33
565.234	23102.79
565.432	23135.56
565.631	22764.88
565.83	23051.59
566.029	22893.9
566.228	22703.44
566.427	22721.87
566.625	22568.27
566.824	22629.71
567.023	22787.41
567.222	22365.53
567.42	22480.21
567.619	22472.02
567.818	22203.74
568.016	22248.79
568.215	22203.74
568.414	22310.23
568.612	22455.64
568.811	22254.94
569.01	22058.33
569.208	22011.23
569.407	22134.1
569.605	22191.45
569.804	22236.5
570.002	21654.88
570.201	21839.2
570.4	21282.15
570.598	21314.92
570.797	21402.98
570.995	21779.81
571.193	21499.23
571.392	21622.11
571.59	21327.21
571.789	21230.95
571.987	21310.82
572.186	21417.32
572.384	21124.46
572.582	21368.16
572.781	21144.94
572.979	20929.9
573.177	20987.24
573.376	21179.75
573.574	20649.33
573.772	21101.93
573.971	21060.97
574.169	20753.77
574.367	20245.88
574.565	20807.02
574.763	20700.53
574.962	20481.39
575.16	20553.07
575.358	20596.08
575.556	20292.98
575.754	20303.22
575.952	20151.67
576.151	20307.32
576.349	20123
576.547	20268.41
576.745	20000.12
576.943	20041.08
577.141	20112.76
577.339	19881.34
577.537	19948.92
577.735	19871.1
577.933	19752.32
578.131	20004.22
578.329	19768.7
578.527	19815.8
578.725	19752.32
578.923	19776.89
579.121	19479.94
579.319	19467.65
579.516	19549.57
579.714	19701.12
579.912	19389.83
580.11	19094.92
580.308	19420.55
580.506	19242.37
580.704	19152.26
580.901	19209.61
581.099	19633.54
581.297	18955.66
581.495	18871.69
581.692	19109.26
581.89	18582.93
582.088	18797.96
582.285	18789.77
582.483	18838.92
582.681	18486.67
582.878	18523.54
583.076	18601.36
583.274	18666.89
583.471	18414.99
583.669	18525.58
583.866	18367.89
584.064	18533.78
584.262	18165.14
584.459	18513.3
584.657	18128.28
584.854	18281.88
585.052	18062.74
585.249	18019.74
585.447	18017.69
585.644	17991.06
585.841	17976.73
586.039	18011.54
586.236	17694.11
586.434	17497.5
586.631	17798.56
586.828	17823.13
587.026	17890.71
587.223	17448.35
587.42	17587.61
587.618	17472.93
587.815	17440.16
588.012	17231.27
588.21	17618.33
588.407	17724.83
588.604	17227.17
588.801	17339.81
588.999	17169.83
589.196	17102.25
589.393	17194.4
589.59	17120.68
589.787	17046.95
589.984	16846.25
590.182	16776.62
590.379	16973.22
590.576	16686.51
590.773	16924.07
590.97	16817.58
591.167	16745.9
591.364	16510.38
591.561	16442.8
591.758	16471.47
591.955	16465.33
592.152	16641.45
592.349	16371.12
592.546	16475.57
592.743	16260.53
592.94	16086.45
593.137	16289.2
593.334	16010.68
593.531	15941.05
593.727	16235.95
593.924	16207.28
594.121	15924.66
594.318	15986.1
594.515	15629.76
594.712	15879.61
594.908	15984.05
595.105	15746.49
595.302	15603.13
595.499	15781.31
595.696	15670.72
595.892	15697.34
596.089	15721.91
596.286	15486.4
596.482	15371.71
596.679	15664.57
596.876	15486.4
597.072	15082.95
597.269	15162.82
597.466	15097.28
597.662	15070.66
597.859	15123.91
598.055	15322.56
598.252	15076.8
598.448	15285.7
598.645	14937.54
598.841	14757.32
599.038	14812.62
599.234	14747.08
599.431	14626.25
599.627	14706.12
599.824	14462.41
600.02	14530
600.217	14640.59
600.413	14433.74
600.609	14618.06
600.806	14362.06
601.002	14622.16
601.198	14390.74
601.395	14362.06
601.591	14175.7
601.787	14280.14
601.984	14048.72
602.18	14118.36
602.376	14138.83
602.572	13972.95
602.769	14048.72
602.965	13788.63
603.161	13854.17
603.357	14003.67
603.553	13985.24
603.75	13856.22
603.946	13876.69
604.142	13911.51
604.338	13637.08
604.534	13745.62
604.73	13471.2
604.926	13430.24
605.122	13544.92
605.318	13544.92
605.514	13374.94
605.71	13139.43
605.906	13391.33
606.102	13188.58
606.298	13209.06
606.494	13077.99
606.69	13426.14
606.886	13155.81
607.082	12871.14
607.278	13155.81
607.474	12910.05
607.67	13043.17
607.866	13039.08
608.062	13077.99
608.257	12965.35
608.453	13215.2
608.649	12850.66
608.845	12869.09
609.041	12932.58
609.236	12879.33
609.432	12844.52
609.628	12830.18
609.824	12875.24
610.019	12910.05
610.215	12725.74
610.411	12785.13
610.606	12623.34
610.802	12445.16
610.998	12576.23
611.193	12690.92
611.389	12551.66
611.584	12547.56
611.78	12389.87
611.976	12316.14
612.171	12652.01
612.367	12549.61
612.562	12387.82
612.758	12178.93
612.953	12381.68
613.149	12613.1
613.344	12426.73
613.539	12418.54
613.735	12303.85
613.93	12410.35
614.126	12269.04
614.321	12451.31
614.517	11961.84
614.712	12103.15
614.907	12158.45
615.103	12197.36
615.298	12135.92
615.493	12115.44
615.688	11910.64
615.884	12520.94
616.079	12056.05
616.274	12135.92
616.47	11945.46
616.665	11851.25
616.86	12049.91
617.055	11953.65
617.25	11916.79
617.445	12017.14
617.641	11806.2
617.836	12113.39
618.031	11732.47
618.226	11785.72
618.421	11609.59
618.616	11863.54
618.811	11664.89
619.006	11752.95
619.201	11511.29
619.396	11591.16
619.591	11427.32
619.786	11435.52
619.981	11398.65
620.176	11570.68
620.371	11249.15
620.566	11316.73
620.761	11361.79
620.956	11437.56
621.151	11058.69
621.346	11378.17
621.541	10886.66
621.735	11005.44
621.93	10767.88
622.125	10814.98
622.32	10800.65
622.515	10780.17
622.709	10731.01
622.904	10587.66
623.099	10649.1
623.294	10614.28
623.488	10649.1
623.683	10440.2
623.878	10362.38
624.072	10360.33
624.267	10202.64
624.462	10278.41
624.656	10010.13
624.851	10034.71
625.046	10126.86
625.24	9979.41
625.435	9868.82
625.629	9840.15
625.824	9887.25
626.018	9924.12
626.213	9498.14
626.407	9709.08
626.602	9463.32
626.796	9578.01
626.991	9643.54
627.185	9494.04
627.38	9510.43
627.574	9152.03
627.768	9330.2
627.963	9217.57
628.157	8920.61
628.352	9367.07
628.546	8969.76
628.74	9217.57
628.935	8996.39
629.129	9076.26
629.323	8859.17
629.517	8871.46
629.712	8918.56
629.906	8791.59
630.1	8644.13
630.294	8754.73
630.489	8635.94
630.683	8805.92
630.877	8506.92
631.071	8484.39
631.265	8545.83
631.459	8531.5
631.653	8375.85
631.848	8355.37
632.042	8248.88
632.236	8404.52
632.43	8248.88
632.624	8162.86
632.818	8076.85
633.012	8130.09
633.206	7996.98
633.4	8068.66
633.594	7915.06
633.788	8171.05
633.982	8001.07
634.176	7988.78
634.369	7722.55
634.563	7751.22
634.757	7642.68
634.951	7786.04
635.145	7786.04
635.339	7673.4
635.533	7319.1
635.726	7624.25
635.92	7482.94
636.114	7403.07
636.308	7470.65
636.501	7331.39
636.695	7282.24
636.889	7126.59
637.083	7388.73
637.276	7341.63
637.47	7251.52
637.664	7044.67
637.857	7151.17
638.051	7165.5
638.244	7124.54
638.438	7167.55
638.632	6823.49
638.825	7030.34
639.019	7013.95
639.212	6870.59
639.406	7018.05
639.599	6700.61
639.793	6782.53
639.986	6827.59
640.18	6643.27
640.373	6712.9
640.567	6471.24
640.76	6610.5
640.954	6569.54
641.147	6528.58
641.34	6473.29
641.534	6450.76
641.727	6530.63
641.92	6348.36
642.114	6489.67
642.307	6334.03
642.5	6231.63
642.694	6037.07
642.887	6090.32
643.08	6135.37
643.273	6112.85
643.467	6190.67
643.66	5899.86
643.853	6071.89
644.046	5961.3
644.239	5908.05
644.432	5887.57
644.626	5936.72
644.819	5848.66
645.012	5815.89
645.205	5770.83
645.398	5799.51
645.591	5865.04
645.784	5672.53
645.977	5658.2
646.17	5662.29
646.363	5508.69
646.556	5623.38
646.749	5424.73
646.942	5502.55
647.135	5604.95
647.328	5566.04
647.521	5484.12
647.714	5459.54
647.907	5488.21
648.099	5449.3
648.292	5445.21
648.485	5267.03
648.678	5348.95
648.871	5267.03
649.064	5195.36
649.256	5250.65
649.449	5312.09
649.642	5109.34
649.835	5062.24
650.027	5135.96
650.22	5142.11
650.413	5119.58
650.605	4990.56
650.798	4968.03
650.991	4982.37
651.183	5029.47
651.376	5008.99
651.568	4873.82
651.761	4845.15
651.954	4968.03
652.146	4785.76
652.339	4796
652.531	4865.63
652.724	4640.36
652.916	4712.03
653.109	4718.18
653.301	4595.3
653.494	4853.34
653.686	4578.92
653.879	4603.49
654.071	4585.06
654.263	4507.24
654.456	4626.02
654.648	4509.29
654.84	4552.29
655.033	4439.65
655.225	4269.67
655.417	4359.78
655.61	4505.19
655.802	4474.47
655.994	4253.29
656.186	4341.35
656.379	4251.24
656.571	4421.22
656.763	4267.63
656.955	4351.59
657.148	4132.46
657.34	4159.08
657.532	4177.51
657.724	4312.68
657.916	4171.37
658.108	4122.22
658.3	4161.13
658.492	4097.64
658.684	3931.76
658.876	4152.94
659.068	4001.39
659.26	3976.81
659.452	3972.72
659.644	3966.57
659.836	3919.47
660.028	3937.9
660.22	3972.72
660.412	3868.27
660.604	3972.72
660.796	3765.87
660.988	3907.18
661.18	3884.66
661.372	3819.12
661.563	3716.72
661.755	3694.19
661.947	3812.98
662.139	3761.78
662.331	3686
662.522	3608.18
662.714	3722.87
662.906	3542.64
663.097	3632.76
663.289	3700.34
663.481	3577.46
663.673	3677.81
663.864	3579.51
664.056	3595.89
664.247	3432.05
664.439	3579.51
664.631	3540.6
664.822	3597.94
665.014	3448.44
665.205	3466.87
665.397	3456.63
665.588	3419.77
665.78	3436.15
665.971	3454.58
666.163	3448.44
666.354	3407.48
666.546	3352.18
666.737	3255.93
666.929	3317.37
667.12	3395.19
667.311	3161.72
667.503	3362.42
667.694	3221.11
667.885	3235.45
668.077	3296.89
668.268	3300.98
668.459	3255.93
668.651	3178.11
668.842	3194.49
669.033	3106.43
669.224	3202.68
669.416	3198.59
669.607	3178.11
669.798	3051.13
669.989	3147.39
670.18	3071.61
670.371	3133.05
670.563	2940.54
670.754	3137.15
670.945	2969.21
671.136	3014.27
671.327	3044.99
671.518	3126.91
671.709	3184.25
671.9	3104.38
672.091	2997.88
672.282	3006.08
672.473	2961.02
672.664	3044.99
672.855	2844.29
673.046	3079.8
673.237	3090.04
673.428	2891.39
673.619	2856.58
673.809	2956.93
674	2989.69
674.191	2850.43
674.382	2891.39
674.573	2887.29
674.764	2852.48
674.954	2850.43
675.145	2915.97
675.336	2895.49
675.527	2821.76
675.717	2926.21
675.908	2901.63
676.099	2895.49
676.289	2932.35
676.48	2788.99
676.671	2809.47
676.861	2813.57
677.052	2723.46
677.243	2805.38
677.433	2889.34
677.624	2891.39
677.814	2786.94
678.005	2721.41
678.195	2719.36
678.386	2870.91
678.576	2680.45
678.767	2686.59
678.957	2752.13
679.148	2741.89
679.338	2811.52
679.529	2743.94
679.719	2680.45
679.909	2819.71
680.1	2719.36
680.29	2858.62
680.481	2735.74
680.671	2664.07
680.861	2647.68
681.052	2788.99
681.242	2711.17
681.432	2655.87
681.622	2702.98
681.813	2713.22
682.003	2619.01
682.193	2731.65
682.383	2784.9
682.573	2743.94
682.764	2666.11
682.954	2688.64
683.144	2737.79
683.334	2582.15
683.524	2670.21
683.714	2774.66
683.904	2567.81
684.094	2713.22
684.284	2635.39
684.474	2657.92
684.664	2569.86
684.854	2600.58
685.044	2649.73
685.234	2571.91
685.424	2664.07
685.614	2578.05
685.804	2629.25
685.994	2510.47
686.184	2604.67
686.374	2522.76
686.564	2571.91
686.753	2498.18
686.943	2432.65
687.133	2508.42
687.323	2573.96
687.513	2463.37
687.702	2500.23
687.892	2522.76
688.082	2522.76
688.272	2563.72
688.461	2596.48
688.651	2442.89
688.841	2461.32
689.03	2408.07
689.22	2358.92
689.41	2387.59
689.599	2473.6
689.789	2449.03
689.979	2449.03
690.168	2352.77
690.358	2350.73
690.547	2334.34
690.737	2338.44
690.926	2360.97
691.116	2293.38
691.305	2338.44
691.495	2373.25
691.684	2377.35
691.874	2297.48
692.063	2262.66
692.252	2338.44
692.442	2238.09
692.631	2260.62
692.82	2285.19
693.01	2293.38
693.199	2272.9
693.388	2281.1
693.578	2182.79
693.767	2260.62
693.956	2227.85
694.146	2182.79
694.335	2195.08
694.524	2283.14
694.713	2260.62
694.902	2274.95
695.092	2227.85
695.281	2203.27
695.47	2119.31
695.659	2190.99
695.848	2119.31
696.037	2107.02
696.226	2129.55
696.415	2104.97
696.604	2217.61
696.793	2100.87
696.982	2104.97
697.171	2035.34
697.36	2104.97
697.549	2072.2
697.738	1982.09
697.927	2049.68
698.116	2055.82
698.305	2051.72
698.494	2021
698.683	2057.87
698.872	2059.92
699.061	2074.25
699.25	2166.41
699.438	2047.63
699.627	2051.72
699.816	2082.44
700.005	2162.31
700.193	2037.39
700.382	2090.63
700.571	2027.15
700.76	2086.54
700.948	2084.49
701.137	2162.31
701.326	2002.57
701.514	2098.83
701.703	2021
701.892	1978
702.08	2170.51
702.269	2039.44
702.457	1953.42
702.646	2031.24
702.834	1943.18
703.023	1967.76
703.212	1994.38
703.4	2014.86
703.589	1957.52
703.777	1992.33
703.965	1990.28
704.154	2033.29
704.342	1998.48
704.531	2035.34
704.719	1900.17
704.907	2100.87
705.096	1961.61
705.284	1908.37
705.472	1887.89
705.661	2047.63
705.849	1992.33
706.037	2004.62
706.226	1969.8
706.414	2023.05
706.602	1916.56
706.79	1998.48
706.979	1994.38
707.167	1965.71
707.355	1912.46
707.543	1928.85
707.731	1990.28
707.919	2178.7
708.107	1916.56
708.296	1900.17
708.484	1978
708.672	1965.71
708.86	2018.96
709.048	2033.29
709.236	2039.44
709.424	2031.24
709.612	1957.52
709.8	1949.32
709.988	1963.66
710.176	2039.44
710.364	1937.04
710.551	2047.63
710.739	1957.52
710.927	1984.14
711.115	1945.23
711.303	2064.01
711.491	1932.94
711.679	1982.09
711.866	1967.76
712.054	2016.91
712.242	1992.33
712.43	2047.63
712.617	2023.05
712.805	2035.34
712.993	1986.19
713.181	1889.93
713.368	1951.37
713.556	1967.76
713.744	1844.88
713.931	1932.94
714.119	2002.57
714.306	2014.86
714.494	2027.15
714.682	1992.33
714.869	1877.65
715.057	1957.52
715.244	1982.09
715.432	2088.59
715.619	1883.79
715.807	1910.41
715.994	1932.94
716.182	1994.38
716.369	1801.87
716.556	1908.37
716.744	1898.13
716.931	2008.72
717.119	2068.11
717.306	1928.85
717.493	1889.93
717.681	1957.52
717.868	1908.37
718.055	1932.94
718.242	1912.46
718.43	1879.69
718.617	1937.04
718.804	1959.56
718.991	1820.3
719.179	1930.89
719.366	1945.23
719.553	1949.32
719.74	1984.14
719.927	1955.47
720.114	1965.71
720.301	1924.75
720.488	2012.81
720.676	1947.28
720.863	1902.22
721.05	1883.79
721.237	1891.98
721.424	2096.78
721.611	1941.13
721.798	1980.04
721.985	1910.41
722.172	1920.65
722.358	1855.12
722.545	1971.85
722.732	1822.35
722.919	1980.04
723.106	2006.67
723.293	2016.91
723.48	1865.36
723.667	1894.03
723.853	1990.28
724.04	1973.9
724.227	1941.13
724.414	1949.32
724.6	2008.72
724.787	1889.93
724.974	1965.71
725.161	2078.35
725.347	1949.32
725.534	1883.79
725.72	2016.91
725.907	1973.9
726.094	1916.56
726.28	1861.26
726.467	1973.9
726.653	1891.98
726.84	1945.23
727.027	1967.76
727.213	1908.37
727.4	1877.65
727.586	1945.23
727.773	1855.12
727.959	1975.95
728.145	1746.58
728.332	1932.94
728.518	1988.24
728.705	1982.09
728.891	2000.52
729.077	2018.96
729.264	1869.45
729.45	1918.61
729.636	1910.41
729.823	1924.75
730.009	1951.37
730.195	1959.56
730.382	2045.58
730.568	1838.73
730.754	1959.56
730.94	1861.26
731.126	2055.82
731.313	2006.67
731.499	1926.8
731.685	1894.03
731.871	1851.02
732.057	1943.18
732.243	1939.09
732.429	1885.84
732.615	1883.79
732.801	1990.28
732.987	1887.89
733.173	2012.81
733.359	1945.23
733.545	1883.79
733.731	1853.07
733.917	1951.37
734.103	1879.69
734.289	1939.09
734.475	1859.21
734.661	1918.61
734.847	1808.02
735.033	1793.68
735.219	1906.32
735.404	1891.98
735.59	1705.62
735.776	1937.04
735.962	1859.21
736.148	1961.61
736.333	1926.8
736.519	1904.27
736.705	1826.45
736.89	1871.5
737.076	1937.04
737.262	1894.03
737.447	1853.07
737.633	1894.03
737.819	1928.85
738.004	1781.39
738.19	1855.12
738.375	1922.7
738.561	1914.51
738.747	1883.79
738.932	1846.93
739.118	1869.45
739.303	1842.83
739.489	1822.35
739.674	1730.19
739.859	1828.49
740.045	1719.95
740.23	1826.45
740.416	1748.62
740.601	1777.3
740.786	1801.87
740.972	1719.95
741.157	1681.04
741.342	1795.73
741.528	1746.58
741.713	1769.1
741.898	1777.3
742.084	1656.47
742.269	1818.25
742.454	1808.02
742.639	1773.2
742.824	1678.99
743.01	1760.91
743.195	1779.34
743.38	1681.04
743.565	1713.81
743.75	1791.63
743.935	1816.21
744.12	1820.3
744.305	1656.47
744.49	1633.94
744.675	1549.97
744.86	1654.42
745.045	1543.83
745.23	1648.27
745.415	1588.88
745.6	1670.8
745.785	1609.36
745.97	1531.54
746.155	1646.23
746.34	1525.4
746.525	1506.96
746.71	1732.24
746.895	1537.68
747.079	1484.44
747.264	1599.12
747.449	1599.12
747.634	1506.96
747.819	1521.3
748.003	1535.64
748.188	1459.86
748.373	1601.17
748.557	1498.77
748.742	1474.2
748.927	1451.67
749.111	1543.83
749.296	1437.33
749.481	1486.48
749.665	1408.66
749.85	1474.2
750.034	1408.66
750.219	1367.7
750.404	1330.84
750.588	1408.66
750.773	1365.65
750.957	1386.13
751.141	1486.48
751.326	1384.09
751.51	1386.13
751.695	1425.04
751.879	1367.7
752.064	1449.62
752.248	1318.55
752.432	1371.8
752.617	1322.65
752.801	1300.12
752.985	1345.17
753.17	1222.3
753.354	1343.13
753.538	1212.06
753.722	1285.78
753.907	1140.38
754.091	1236.63
754.275	1164.95
754.459	1218.2
754.643	1156.76
754.828	1115.8
755.012	1199.77
755.196	1158.81
755.38	1140.38
755.564	1144.47
755.748	1175.19
755.932	1109.66
756.116	1158.81
756.3	1205.91
756.484	1167
756.668	1158.81
756.852	1042.07
757.036	1138.33
757.22	1058.46
757.404	1019.55
757.588	1087.13
757.772	1060.51
757.956	978.59
758.14	1089.18
758.323	1089.18
758.507	1068.7
758.691	1076.89
758.875	1095.32
759.059	1013.4
759.242	1080.99
759.426	1015.45
759.61	1087.13
759.794	937.63
759.977	1009.31
760.161	1031.83
760.345	937.63
760.528	982.68
760.712	999.07
760.895	902.81
761.079	949.92
761.263	859.81
761.446	941.72
761.63	902.81
761.813	949.92
761.997	923.29
762.18	904.86
762.364	951.96
762.547	853.66
762.731	880.29
762.914	937.63
763.098	808.61
763.281	786.08
763.464	890.53
763.648	835.23
763.831	868
764.015	841.37
764.198	865.95
764.381	788.13
764.564	802.46
764.748	800.41
764.931	908.96
765.114	857.76
765.297	851.61
765.481	788.13
765.664	843.42
765.847	769.69
766.03	822.94
766.213	765.6
766.397	806.56
766.58	730.78
766.763	868
766.946	724.64
767.129	722.59
767.312	677.54
767.495	722.59
767.678	747.17
767.861	755.36
768.044	745.12
768.227	751.26
768.41	738.98
768.593	738.98
768.776	671.39
768.959	704.16
769.142	730.78
769.324	736.93
769.507	648.86
769.69	736.93
769.873	732.83
770.056	691.87
770.239	683.68
770.421	788.13
770.604	712.35
770.787	765.6
770.97	657.06
771.152	652.96
771.335	657.06
771.518	673.44
771.7	722.59
771.883	712.35
772.066	677.54
772.248	646.82
772.431	661.15
772.613	644.77
772.796	695.97
772.978	607.91
773.161	677.54
773.343	618.15
773.526	577.19
773.708	616.1
773.891	605.86
774.073	612
774.256	698.02
774.438	671.39
774.621	634.53
774.803	638.62
774.985	556.71
775.168	698.02
775.35	601.76
775.532	573.09
775.715	605.86
775.897	540.32
776.079	585.38
776.261	605.86
776.444	585.38
776.626	566.95
776.808	577.19
776.99	525.99
777.173	419.49
777.355	528.03
777.537	564.9
777.719	515.75
777.901	517.79
778.083	540.32
778.265	442.02
778.447	544.42
778.629	417.44
778.811	523.94
778.993	421.54
779.175	499.36
779.357	523.94
779.539	485.03
779.721	433.83
779.903	474.79
780.085	466.6
780.267	482.98
780.449	501.41
780.631	460.45
780.812	462.5
780.994	452.26
781.176	468.64
781.358	411.3
781.54	478.88
781.721	474.79
781.903	423.59
782.085	407.2
782.267	392.87
782.448	442.02
782.63	407.2
782.812	446.12
782.993	437.92
783.175	470.69
783.357	417.44
783.538	485.03
783.72	384.68
783.901	362.15
784.083	405.16
784.264	409.25
784.446	376.48
784.627	368.29
784.809	401.06
784.99	356.01
785.172	376.48
785.353	306.85
785.535	431.78
785.716	351.91
785.897	300.71
786.079	321.19
786.26	392.87
786.441	458.4
786.623	274.09
786.804	319.14
786.985	315.05
787.167	286.37
787.348	253.61
787.529	286.37
787.71	380.58
787.891	353.96
788.073	306.85
788.254	278.18
788.435	261.8
788.616	290.47
788.797	325.29
788.978	251.56
789.159	319.14
789.34	302.76
789.522	343.72
789.703	304.81
789.884	247.46
790.065	327.33
790.246	335.53
790.427	290.47
790.607	380.58
790.788	347.81
790.969	267.94
791.15	288.42
791.331	331.43
791.512	247.46
791.693	302.76
791.874	282.28
792.054	280.23
792.235	278.18
792.416	229.03
792.597	183.98
792.778	290.47
792.958	261.8
793.139	249.51
793.32	286.37
793.5	216.74
793.681	255.65
793.862	278.18
794.042	194.22
794.223	304.81
794.404	313
794.584	208.55
794.765	220.84
794.945	247.46
795.126	239.27
795.306	210.6
795.487	247.46
795.667	245.41
795.848	186.02
796.028	198.31
796.209	298.66
796.389	302.76
796.57	224.94
796.75	229.03
796.93	173.74
797.111	188.07
797.291	302.76
797.471	239.27
797.652	200.36
797.832	100.01
798.012	188.07
798.192	249.51
798.373	165.54
798.553	255.65
798.733	241.32
798.913	181.93
799.093	130.73
799.274	233.13
799.454	188.07
799.634	286.37
799.814	155.3
799.994	181.93
800.174	220.84
800.354	169.64
800.534	175.78
800.714	151.21
800.894	122.54
801.074	95.91
801.254	206.5
801.434	222.89
801.614	165.54
801.794	204.46
801.974	640.67
802.154	143.02
802.334	220.84
802.514	269.99
802.693	167.59
802.873	143.02
803.053	229.03
803.233	155.3
803.413	224.94
803.592	116.39
803.772	106.15
803.952	100.01
804.131	169.64
804.311	192.17
804.491	173.74
804.67	118.44
804.85	181.93
805.03	196.26
805.209	229.03
805.389	175.78
805.568	167.59
805.748	124.58
805.928	134.82
806.107	89.77
806.287	188.07
806.466	220.84
806.646	134.82
806.825	183.98
807.004	124.58
807.184	200.36
807.363	188.07
807.543	181.93
807.722	89.77
807.901	173.74
808.081	157.35
808.26	110.25
808.439	161.45
808.619	159.4
808.798	153.26
808.977	108.2
809.156	198.31
809.336	224.94
809.515	188.07
809.694	130.73
809.873	87.72
810.052	153.26
810.231	173.74
810.411	198.31
810.59	132.78
810.769	157.35
810.948	102.06
811.127	120.49
811.306	100.01
811.485	153.26
811.664	136.87
811.843	79.53
812.022	138.92
812.201	106.15
812.38	128.68
812.559	28.33
812.737	108.2
812.916	122.54
813.095	93.87
813.274	114.34
813.453	73.39
813.632	134.82
813.811	95.91
813.989	34.47
814.168	167.59
814.347	83.63
814.526	138.92
814.704	116.39
814.883	118.44
815.062	104.11
815.24	147.11
815.419	22.19
815.598	188.07
815.776	65.19
815.955	140.97
816.133	13.99
816.312	171.69
816.49	122.54
816.669	124.58
816.847	73.39
817.026	136.87
817.204	83.63
817.383	97.96
817.561	89.77
817.74	132.78
817.918	116.39
818.097	50.86
818.275	112.3
818.453	134.82
818.632	122.54
818.81	155.3
818.988	134.82
819.167	89.77
819.345	102.06
819.523	138.92
819.701	116.39
819.879	67.24
820.058	114.34
820.236	136.87
820.414	54.95
820.592	114.34
820.77	155.3
820.948	63.15
821.127	138.92
821.305	93.87
821.483	65.19
821.661	116.39
821.839	46.76
822.017	128.68
822.195	91.82
822.373	128.68
822.551	52.91
822.729	91.82
822.907	100.01
823.085	138.92
823.262	59.05
823.44	65.19
823.618	97.96
823.796	118.44
823.974	89.77
824.152	42.67
824.329	44.71
824.507	89.77
824.685	77.48
824.863	77.48
825.04	44.71
825.218	147.11
825.396	89.77
825.574	57
825.751	50.86
825.929	69.29
826.107	87.72
826.284	89.77
826.462	71.34
826.639	24.23
826.817	20.14
826.994	89.77
827.172	77.48
827.349	77.48
827.527	114.34
827.704	65.19
827.882	102.06
828.059	81.58
828.237	169.64
828.414	100.01
828.591	57
828.769	130.73
828.946	34.47
829.124	32.43
829.301	81.58
829.478	100.01
829.655	24.23
829.833	95.91
830.01	34.47
830.187	122.54
830.364	122.54
830.542	120.49
830.719	112.3
830.896	112.3
831.073	93.87
831.25	149.16
831.427	114.34
831.604	126.63
831.782	36.52
831.959	20.14
832.136	26.28
832.313	44.71
832.49	163.5
832.667	108.2
832.844	69.29
833.021	67.24
833.198	20.14
833.374	32.43
833.551	138.92
833.728	52.91
833.905	100.01
834.082	57
834.259	138.92
834.436	102.06
834.612	24.23
834.789	124.58
834.966	52.91
835.143	75.43
835.319	-33.11
835.496	91.82
835.673	59.05
835.85	87.72
836.026	-0.34
836.203	81.58
836.38	24.23
836.556	-41.3
836.733	54.95
836.909	104.11
837.086	57
837.262	81.58
837.439	7.85
837.616	18.09
837.792	57
837.968	73.39
838.145	-8.53
838.321	1.71
838.498	85.67
838.674	-16.73
838.851	40.62
839.027	93.87
839.203	57
839.38	124.58
839.556	-8.53
839.732	106.15
839.909	65.19
840.085	30.38
840.261	32.43
840.437	57
840.614	36.52
840.79	71.34
840.966	-2.39
841.142	-4.44
841.318	18.09
841.494	110.25
841.671	36.52
841.847	-6.49
842.023	81.58
842.199	65.19
842.375	65.19
842.551	40.62
842.727	57
842.903	36.52
843.079	40.62
843.255	130.73
843.431	24.23
843.607	36.52
843.783	-35.16
843.959	34.47
844.134	-0.34
844.31	89.77
844.486	24.23
844.662	67.24
844.838	50.86
845.013	67.24
845.189	28.33
845.365	3.75
845.541	63.15
845.716	57
845.892	81.58
846.068	34.47
846.244	18.09
846.419	32.43
846.595	1.71
846.77	9.9
846.946	89.77
847.122	50.86
847.297	-12.63
847.473	52.91
847.648	69.29
847.824	-6.49
847.999	32.43
848.175	-16.73
848.35	11.95
848.526	87.72
848.701	81.58
848.876	81.58
849.052	24.23
849.227	-22.87
849.403	114.34
849.578	44.71
849.753	24.23
849.929	57
850.104	71.34
850.279	32.43
850.454	3.75
850.63	67.24
850.805	1.71
850.98	118.44
851.155	-6.49
851.33	140.97
851.505	-8.53
851.681	5.8
851.856	16.04
852.031	138.92
852.206	102.06
852.381	34.47
852.556	48.81
852.731	40.62
852.906	61.1
853.081	42.67
853.256	114.34
853.431	79.53
853.606	-14.68
853.781	3.75
853.956	-47.44
854.131	44.71
854.305	18.09
854.48	-24.92
854.655	-90.45
854.83	-22.87
855.005	32.43
855.18	13.99
855.354	26.28
855.529	40.62
855.704	52.91
855.879	71.34
856.053	-8.53
856.228	59.05
856.403	-12.63
856.577	24.23
856.752	-63.83
856.926	40.62
857.101	40.62
857.276	-0.34
857.45	22.19
857.625	77.48
857.799	34.47
857.974	52.91
858.148	20.14
858.323	28.33
858.497	18.09
858.672	30.38
858.846	26.28
859.02	89.77
859.195	-65.88
859.369	40.62
859.543	16.04
859.718	9.9
859.892	-24.92
860.066	3.75
860.241	-16.73
860.415	61.1
860.589	24.23
860.763	24.23
860.938	-8.53
861.112	1.71
861.286	54.95
861.46	1.71
861.634	7.85
861.808	-22.87
861.982	11.95
862.157	24.23
862.331	16.04
862.505	48.81
862.679	20.14
862.853	93.87
863.027	-20.82
863.201	57
863.375	7.85
863.549	18.09
863.722	20.14
863.896	32.43
864.07	-43.35
864.244	24.23
864.418	32.43
864.592	67.24
864.766	-22.87
864.939	20.14
865.113	52.91
865.287	73.39
865.461	9.9
865.634	75.43
865.808	-10.58
865.982	5.8
866.156	-14.68
866.329	48.81
866.503	9.9
866.676	48.81
866.85	-12.63
867.024	-16.73
867.197	-49.49
867.371	-45.4
867.544	9.9
867.718	1.71
867.891	36.52
868.065	-39.25
868.238	20.14
868.412	16.04
868.585	52.91
868.759	34.47
868.932	7.85
869.105	73.39
869.279	32.43
869.452	28.33
869.625	-0.34
869.799	-0.34
869.972	-57.68
870.145	26.28
870.319	-0.34
870.492	73.39
870.665	-24.92
870.838	-22.87
871.011	-12.63
871.185	16.04
871.358	1.71
871.531	-49.49
871.704	-55.64
871.877	18.09
872.05	-0.34
872.223	-82.26
872.396	1.71
872.569	67.24
872.742	-24.92
872.915	16.04
873.088	13.99
873.261	16.04
873.434	-33.11
873.607	30.38
873.78	89.77
873.953	-41.3
874.126	-6.49
874.299	59.05
874.471	36.52
874.644	50.86
874.817	24.23
874.99	50.86
875.163	-0.34
875.335	61.1
875.508	-78.16
875.681	-16.73
875.853	3.75
876.026	-14.68
876.199	81.58
876.371	9.9
876.544	1.71
876.717	69.29
876.889	-16.73
877.062	34.47
877.234	36.52
877.407	-22.87
877.579	-31.06
877.752	26.28
877.924	79.53
878.097	89.77
878.269	3.75
878.442	18.09
878.614	75.43
878.786	61.1
878.959	38.57
879.131	91.82
879.303	-20.82
879.476	48.81
879.648	13.99
879.82	36.52
879.993	3.75
880.165	9.9
880.337	46.76
880.509	32.43
880.681	-53.59
880.854	87.72
881.026	3.75
881.198	95.91
881.37	42.67
881.542	85.67
881.714	-10.58
881.886	3.75
882.058	-0.34
882.23	32.43
882.402	-55.64
882.574	73.39
882.746	11.95
882.918	89.77
883.09	69.29
883.262	32.43
883.434	30.38
883.606	-8.53
883.778	1.71
883.95	40.62
884.122	-18.77
884.293	-6.49
884.465	-39.25
884.637	54.95
884.809	18.09
884.98	48.81
885.152	-16.73
885.324	26.28
885.496	-43.35
885.667	89.77
885.839	-22.87
886.011	26.28
886.182	-43.35
886.354	-49.49
886.525	-14.68
886.697	65.19
886.869	89.77
887.04	50.86
887.212	48.81
887.383	73.39
887.555	-39.25
887.726	-4.44
887.897	59.05
888.069	38.57
888.24	-0.34
888.412	-18.77
888.583	-22.87
888.754	-14.68
888.926	-33.11
889.097	83.63
889.268	-82.26
889.44	36.52
889.611	-86.36
889.782	-41.3
889.953	57
890.125	26.28
890.296	7.85
890.467	7.85
890.638	-10.58
890.809	-6.49
890.98	32.43
891.151	-6.49
891.323	-0.34
891.494	-41.3
891.665	71.34
891.836	20.14
892.007	13.99
892.178	-0.34
892.349	-2.39
892.52	-39.25
892.691	-47.44
892.862	116.39
893.032	-127.32
893.203	1.71
893.374	65.19
893.545	34.47
893.716	-45.4
893.887	40.62
894.057	-53.59
894.228	7.85
894.399	7.85
894.57	73.39
894.74	32.43
894.911	9.9
895.082	-16.73
895.253	18.09
895.423	-2.39
895.594	106.15
895.764	18.09
895.935	-72.02
896.106	7.85
896.276	120.49
896.447	26.28
896.617	32.43
896.788	18.09
896.958	-24.92
897.129	-55.64
897.299	50.86
897.47	83.63
897.64	40.62
897.81	-74.07
897.981	-0.34
898.151	-61.78
898.322	16.04
898.492	-12.63
898.662	-63.83
898.832	26.28
899.003	28.33
899.173	73.39
899.343	-12.63
899.513	-22.87
