Data from USB4F104151__260__14-22-45-478.txt Node

Date: Thu Mar 13 14:22:45 EDT 2025
User: louis
Spectrometer: USB4F10415
Trigger mode: 4
Integration Time (sec): 2.000000E-2
Scans to average: 1
Electric dark correction enabled: true
Nonlinearity correction enabled: false
Boxcar width: 0
XAxis mode: Wavelengths
Number of Pixels in Spectrum: 3648
>>>>>Begin Spectral Data<<<<<
178.204	-109.74
178.424	-109.74
178.644	-109.74
178.864	-144.55
179.084	-134.31
179.304	2.9
179.524	64.34
179.744	29.52
179.964	35.67
180.184	2.9
180.404	-33.96
180.624	-5.29
180.844	-3.24
181.064	-93.35
181.283	29.52
181.503	-46.25
181.723	17.24
181.943	-19.63
182.163	50
182.383	60.24
182.602	31.57
182.822	47.96
183.042	27.48
183.262	50
183.482	82.77
183.701	7
183.921	17.24
184.141	-83.11
184.361	-5.29
184.58	-27.82
184.8	11.09
185.02	-3.24
185.239	2.9
185.459	-1.19
185.679	39.76
185.898	-25.77
186.118	43.86
186.338	2.9
186.557	88.92
186.777	19.29
186.997	-38.06
187.216	-33.96
187.436	60.24
187.655	-21.67
187.875	60.24
188.095	-9.39
188.314	37.72
188.534	-11.43
188.753	27.48
188.973	29.52
189.192	43.86
189.412	88.92
189.631	11.09
189.851	-15.53
190.07	31.57
190.29	-11.43
190.509	-95.4
190.729	-3.24
190.948	37.72
191.168	23.38
191.387	-5.29
191.607	-29.87
191.826	-5.29
192.045	7
192.265	27.48
192.484	-52.39
192.704	-21.67
192.923	-9.39
193.142	70.48
193.362	-15.53
193.581	43.86
193.8	64.34
194.02	43.86
194.239	-42.15
194.458	-25.77
194.678	11.09
194.897	-21.67
195.116	-64.68
195.335	-3.24
195.555	62.29
195.774	7
195.993	52.05
196.212	-29.87
196.432	35.67
196.651	-1.19
196.87	43.86
197.089	95.06
197.308	50
197.528	13.14
197.747	2.9
197.966	-23.72
198.185	43.86
198.404	43.86
198.623	33.62
198.842	52.05
199.062	-50.35
199.281	72.53
199.5	-15.53
199.719	-29.87
199.938	66.39
200.157	35.67
200.376	52.05
200.595	-1.19
200.814	15.19
201.033	-19.63
201.252	-23.72
201.471	-5.29
201.69	62.29
201.909	29.52
202.128	62.29
202.347	68.44
202.566	-1.19
202.785	-31.91
203.004	-5.29
203.223	43.86
203.442	-38.06
203.661	4.95
203.879	72.53
204.098	52.05
204.317	-42.15
204.536	37.72
204.755	-9.39
204.974	21.33
205.193	47.96
205.411	52.05
205.63	68.44
205.849	33.62
206.068	43.86
206.287	-9.39
206.505	31.57
206.724	0.85
206.943	-13.48
207.162	39.76
207.381	2.9
207.599	21.33
207.818	-44.2
208.037	-68.78
208.255	-19.63
208.474	35.67
208.693	-3.24
208.911	-11.43
209.13	29.52
209.349	70.48
209.567	0.85
209.786	23.38
210.005	-54.44
210.223	19.29
210.442	-33.96
210.661	66.39
210.879	-21.67
211.098	52.05
211.316	56.15
211.535	43.86
211.753	-19.63
211.972	52.05
212.191	-79.02
212.409	13.14
212.628	84.82
212.846	37.72
213.065	37.72
213.283	93.01
213.502	-17.58
213.72	11.09
213.938	27.48
214.157	19.29
214.375	27.48
214.594	-1.19
214.812	66.39
215.031	-25.77
215.249	-58.54
215.467	90.96
215.686	29.52
215.904	58.2
216.122	-7.34
216.341	-17.58
216.559	-21.67
216.778	-33.96
216.996	47.96
217.214	-17.58
217.432	39.76
217.651	-50.35
217.869	2.9
218.087	15.19
218.306	-9.39
218.524	-33.96
218.742	35.67
218.96	2.9
219.179	23.38
219.397	33.62
219.615	23.38
219.833	54.1
220.051	-46.25
220.27	52.05
220.488	-11.43
220.706	52.05
220.924	35.67
221.142	37.72
221.36	27.48
221.578	60.24
221.796	39.76
222.015	-13.48
222.233	39.76
222.451	97.11
222.669	13.14
222.887	19.29
223.105	-81.07
223.323	39.76
223.541	-85.16
223.759	2.9
223.977	121.68
224.195	2.9
224.413	29.52
224.631	31.57
224.849	11.09
225.067	62.29
225.285	19.29
225.503	7
225.721	11.09
225.939	7
226.157	-58.54
226.375	113.49
226.592	-13.48
226.81	-33.96
227.028	56.15
227.246	66.39
227.464	-21.67
227.682	72.53
227.9	29.52
228.117	29.52
228.335	70.48
228.553	33.62
228.771	25.43
228.989	29.52
229.206	11.09
229.424	-50.35
229.642	-13.48
229.86	-21.67
230.077	62.29
230.295	-1.19
230.513	25.43
230.731	11.09
230.948	62.29
231.166	82.77
231.384	23.38
231.601	-40.11
231.819	-9.39
232.037	-38.06
232.254	-21.67
232.472	23.38
232.689	-33.96
232.907	-5.29
233.125	2.9
233.342	31.57
233.56	-66.73
233.777	-11.43
233.995	-27.82
234.213	119.64
234.43	37.72
234.648	19.29
234.865	84.82
235.083	23.38
235.3	39.76
235.518	27.48
235.735	52.05
235.953	43.86
236.17	-5.29
236.388	11.09
236.605	50
236.822	27.48
237.04	60.24
237.257	93.01
237.475	-21.67
237.692	-70.83
237.909	2.9
238.127	0.85
238.344	19.29
238.562	-46.25
238.779	-50.35
238.996	31.57
239.214	21.33
239.431	-17.58
239.648	-33.96
239.865	7
240.083	19.29
240.3	-1.19
240.517	11.09
240.735	68.44
240.952	39.76
241.169	84.82
241.386	-21.67
241.603	-62.63
241.821	-46.25
242.038	43.86
242.255	52.05
242.472	-91.31
242.689	39.76
242.907	52.05
243.124	13.14
243.341	-3.24
243.558	-5.29
243.775	-29.87
243.992	2.9
244.209	-5.29
244.426	27.48
244.643	47.96
244.86	-17.58
245.078	-76.97
245.295	27.48
245.512	7
245.729	19.29
245.946	-52.39
246.163	56.15
246.38	-21.67
246.597	62.29
246.814	-38.06
247.031	-23.72
247.248	52.05
247.464	13.14
247.681	35.67
247.898	37.72
248.115	76.63
248.332	-11.43
248.549	-25.77
248.766	52.05
248.983	90.96
249.2	-15.53
249.417	19.29
249.633	4.95
249.85	-27.82
250.067	13.14
250.284	35.67
250.501	13.14
250.717	-3.24
250.934	60.24
251.151	19.29
251.368	-9.39
251.585	70.48
251.801	7
252.018	39.76
252.235	-44.2
252.451	-27.82
252.668	-95.4
252.885	-3.24
253.102	29.52
253.318	-25.77
253.535	25.43
253.752	-36.01
253.968	2.9
254.185	-27.82
254.401	-29.87
254.618	-36.01
254.835	31.57
255.051	64.34
255.268	4.95
255.484	56.15
255.701	-46.25
255.917	78.68
256.134	-68.78
256.351	68.44
256.567	25.43
256.784	-13.48
257	-56.49
257.217	23.38
257.433	19.29
257.65	-7.34
257.866	15.19
258.082	4.95
258.299	35.67
258.515	62.29
258.732	-11.43
258.948	-5.29
259.165	-17.58
259.381	68.44
259.597	-7.34
259.814	-36.01
260.03	-46.25
260.246	52.05
260.463	37.72
260.679	31.57
260.895	39.76
261.112	43.86
261.328	31.57
261.544	-72.87
261.761	7
261.977	-11.43
262.193	-1.19
262.409	88.92
262.626	4.95
262.842	-3.24
263.058	27.48
263.274	39.76
263.49	-60.59
263.707	-9.39
263.923	4.95
264.139	39.76
264.355	19.29
264.571	60.24
264.787	60.24
265.004	2.9
265.22	35.67
265.436	-46.25
265.652	-21.67
265.868	31.57
266.084	-74.92
266.3	23.38
266.516	-13.48
266.732	35.67
266.948	13.14
267.164	-5.29
267.38	13.14
267.596	37.72
267.812	113.49
268.028	-7.34
268.244	-122.02
268.46	68.44
268.676	-21.67
268.892	-25.77
269.108	-21.67
269.324	35.67
269.54	-46.25
269.756	35.67
269.972	7
270.188	29.52
270.403	4.95
270.619	-27.82
270.835	2.9
271.051	19.29
271.267	-1.19
271.483	35.67
271.698	54.1
271.914	35.67
272.13	-9.39
272.346	-5.29
272.562	-31.91
272.777	39.76
272.993	-13.48
273.209	43.86
273.425	7
273.64	84.82
273.856	2.9
274.072	7
274.287	-3.24
274.503	2.9
274.719	76.63
274.934	27.48
275.15	-36.01
275.366	-36.01
275.581	-25.77
275.797	-15.53
276.012	19.29
276.228	-79.02
276.444	84.82
276.659	58.2
276.875	-56.49
277.09	19.29
277.306	-3.24
277.521	-3.24
277.737	0.85
277.952	52.05
278.168	-13.48
278.383	11.09
278.599	-21.67
278.814	99.16
279.03	62.29
279.245	56.15
279.461	-21.67
279.676	45.91
279.892	-54.44
280.107	11.09
280.322	-3.24
280.538	35.67
280.753	86.87
280.969	68.44
281.184	58.2
281.399	76.63
281.615	11.09
281.83	68.44
282.045	-21.67
282.26	-1.19
282.476	-25.77
282.691	37.72
282.906	-56.49
283.122	-3.24
283.337	-66.73
283.552	7
283.767	2.9
283.983	-62.63
284.198	-9.39
284.413	27.48
284.628	-66.73
284.843	27.48
285.058	39.76
285.274	76.63
285.489	13.14
285.704	35.67
285.919	52.05
286.134	95.06
286.349	-33.96
286.564	4.95
286.779	21.33
286.995	-11.43
287.21	-11.43
287.425	-21.67
287.64	25.43
287.855	-5.29
288.07	54.1
288.285	113.49
288.5	-42.15
288.715	-13.48
288.93	-40.11
289.145	4.95
289.36	7
289.575	19.29
289.79	-3.24
290.004	-17.58
290.219	-44.2
290.434	25.43
290.649	-1.19
290.864	-38.06
291.079	15.19
291.294	35.67
291.509	9.05
291.724	39.76
291.938	11.09
292.153	23.38
292.368	-29.87
292.583	45.91
292.798	2.9
293.012	111.44
293.227	-50.35
293.442	2.9
293.657	27.48
293.871	19.29
294.086	-33.96
294.301	23.38
294.516	37.72
294.73	-54.44
294.945	-13.48
295.16	78.68
295.374	52.05
295.589	-11.43
295.804	4.95
296.018	35.67
296.233	54.1
296.447	23.38
296.662	-15.53
296.877	11.09
297.091	72.53
297.306	29.52
297.52	-48.3
297.735	-3.24
297.949	27.48
298.164	56.15
298.378	-60.59
298.593	-62.63
298.807	-19.63
299.022	7
299.236	-46.25
299.451	2.9
299.665	-17.58
299.88	-13.48
300.094	-13.48
300.309	-33.96
300.523	76.63
300.737	27.48
300.952	52.05
301.166	31.57
301.381	-27.82
301.595	7
301.809	19.29
302.024	11.09
302.238	47.96
302.452	-9.39
302.667	109.4
302.881	76.63
303.095	-3.24
303.309	11.09
303.524	-21.67
303.738	-46.25
303.952	-72.87
304.166	11.09
304.381	-36.01
304.595	47.96
304.809	-5.29
305.023	-5.29
305.237	45.91
305.452	13.14
305.666	2.9
305.88	-38.06
306.094	35.67
306.308	-13.48
306.522	23.38
306.736	27.48
306.95	54.1
307.164	15.19
307.379	66.39
307.593	29.52
307.807	64.34
308.021	111.44
308.235	19.29
308.449	-3.24
308.663	2.9
308.877	52.05
309.091	11.09
309.305	111.44
309.519	-38.06
309.733	19.29
309.947	-27.82
310.161	27.48
310.374	4.95
310.588	13.14
310.802	-27.82
311.016	7
311.23	31.57
311.444	2.9
311.658	-23.72
311.872	80.72
312.085	54.1
312.299	47.96
312.513	72.53
312.727	47.96
312.941	17.24
313.154	19.29
313.368	-93.35
313.582	39.76
313.796	31.57
314.009	2.9
314.223	-27.82
314.437	31.57
314.651	-5.29
314.864	43.86
315.078	-13.48
315.292	2.9
315.505	47.96
315.719	23.38
315.933	4.95
316.146	-25.77
316.36	9.05
316.573	58.2
316.787	17.24
317.001	15.19
317.214	-29.87
317.428	2.9
317.641	13.14
317.855	17.24
318.068	7
318.282	17.24
318.495	27.48
318.709	72.53
318.922	23.38
319.136	43.86
319.349	-3.24
319.563	-29.87
319.776	54.1
319.99	47.96
320.203	-3.24
320.417	-25.77
320.63	72.53
320.843	43.86
321.057	-29.87
321.27	25.43
321.483	-70.83
321.697	43.86
321.91	58.2
322.124	2.9
322.337	43.86
322.55	37.72
322.763	-3.24
322.977	29.52
323.19	19.29
323.403	-11.43
323.617	43.86
323.83	4.95
324.043	13.14
324.256	-5.29
324.469	-44.2
324.683	31.57
324.896	-7.34
325.109	-11.43
325.322	-11.43
325.535	19.29
325.748	-38.06
325.962	39.76
326.175	47.96
326.388	76.63
326.601	43.86
326.814	-52.39
327.027	-21.67
327.24	50
327.453	2.9
327.666	19.29
327.879	29.52
328.092	-13.48
328.305	41.81
328.518	60.24
328.731	-58.54
328.944	-38.06
329.157	-9.39
329.37	-1.19
329.583	-17.58
329.796	62.29
330.009	39.76
330.222	-29.87
330.435	-13.48
330.648	27.48
330.861	13.14
331.073	64.34
331.286	43.86
331.499	78.68
331.712	-23.72
331.925	45.91
332.138	9.05
332.35	31.57
332.563	-50.35
332.776	-5.29
332.989	15.19
333.202	56.15
333.414	-48.3
333.627	13.14
333.84	-19.63
334.053	43.86
334.265	0.85
334.478	23.38
334.691	-23.72
334.903	-5.29
335.116	-11.43
335.329	70.48
335.541	19.29
335.754	-13.48
335.966	72.53
336.179	11.09
336.392	15.19
336.604	-7.34
336.817	35.67
337.029	41.81
337.242	-87.21
337.454	-19.63
337.667	-21.67
337.88	-21.67
338.092	39.76
338.305	95.06
338.517	-85.16
338.729	68.44
338.942	39.76
339.154	19.29
339.367	54.1
339.579	54.1
339.792	-3.24
340.004	13.14
340.217	13.14
340.429	-19.63
340.641	-5.29
340.854	45.91
341.066	21.33
341.278	37.72
341.491	-13.48
341.703	74.58
341.915	45.91
342.128	23.38
342.34	31.57
342.552	-3.24
342.764	-7.34
342.977	50
343.189	27.48
343.401	0.85
343.613	-17.58
343.826	-5.29
344.038	9.05
344.25	68.44
344.462	2.9
344.674	11.09
344.886	29.52
345.099	-36.01
345.311	-31.91
345.523	-9.39
345.735	-11.43
345.947	7
346.159	39.76
346.371	-46.25
346.583	19.29
346.795	7
347.007	29.52
347.219	76.63
347.431	11.09
347.643	-62.63
347.855	21.33
348.067	43.86
348.279	-33.96
348.491	66.39
348.703	-3.24
348.915	-83.11
349.127	35.67
349.339	39.76
349.551	7
349.763	35.67
349.975	21.33
350.187	43.86
350.399	74.58
350.61	-13.48
350.822	68.44
351.034	56.15
351.246	-33.96
351.458	60.24
351.669	45.91
351.881	138.07
352.093	-15.53
352.305	11.09
352.517	2.9
352.728	11.09
352.94	60.24
353.152	-15.53
353.363	56.15
353.575	23.38
353.787	11.09
353.999	17.24
354.21	31.57
354.422	25.43
354.633	-1.19
354.845	52.05
355.057	52.05
355.268	29.52
355.48	29.52
355.692	-46.25
355.903	-13.48
356.115	45.91
356.326	-74.92
356.538	56.15
356.749	78.68
356.961	11.09
357.172	62.29
357.384	-9.39
357.595	45.91
357.807	72.53
358.018	0.85
358.23	19.29
358.441	84.82
358.653	17.24
358.864	-9.39
359.075	-25.77
359.287	60.24
359.498	39.76
359.709	29.52
359.921	11.09
360.132	-11.43
360.344	29.52
360.555	50
360.766	29.52
360.977	-9.39
361.189	37.72
361.4	7
361.611	84.82
361.823	95.06
362.034	-21.67
362.245	-15.53
362.456	33.62
362.667	52.05
362.879	-29.87
363.09	-17.58
363.301	35.67
363.512	-27.82
363.723	19.29
363.935	-5.29
364.146	-13.48
364.357	68.44
364.568	-21.67
364.779	17.24
364.99	82.77
365.201	54.1
365.412	-13.48
365.623	-36.01
365.834	-5.29
366.045	7
366.256	52.05
366.467	45.91
366.678	35.67
366.889	56.15
367.1	-36.01
367.311	19.29
367.522	60.24
367.733	-5.29
367.944	27.48
368.155	-9.39
368.366	15.19
368.577	29.52
368.788	41.81
368.999	-1.19
369.209	-5.29
369.42	101.2
369.631	35.67
369.842	68.44
370.053	78.68
370.264	45.91
370.474	-68.78
370.685	-5.29
370.896	-19.63
371.107	11.09
371.317	17.24
371.528	-1.19
371.739	84.82
371.95	37.72
372.16	-70.83
372.371	52.05
372.582	45.91
372.792	60.24
373.003	9.05
373.214	101.2
373.424	31.57
373.635	-7.34
373.846	9.05
374.056	68.44
374.267	-5.29
374.477	58.2
374.688	27.48
374.898	2.9
375.109	-11.43
375.319	7
375.53	70.48
375.74	60.24
375.951	13.14
376.161	35.67
376.372	93.01
376.582	60.24
376.793	21.33
377.003	27.48
377.214	27.48
377.424	-52.39
377.635	45.91
377.845	66.39
378.055	127.83
378.266	-54.44
378.476	-42.15
378.686	-42.15
378.897	-29.87
379.107	39.76
379.317	60.24
379.528	-17.58
379.738	19.29
379.948	-38.06
380.158	13.14
380.369	-15.53
380.579	68.44
380.789	-9.39
380.999	2.9
381.21	-1.19
381.42	19.29
381.63	9.05
381.84	19.29
382.05	52.05
382.261	47.96
382.471	27.48
382.681	27.48
382.891	27.48
383.101	19.29
383.311	56.15
383.521	41.81
383.731	74.58
383.941	23.38
384.151	-56.49
384.361	47.96
384.571	64.34
384.781	23.38
384.991	101.2
385.201	78.68
385.411	-11.43
385.621	54.1
385.831	39.76
386.041	45.91
386.251	35.67
386.461	154.45
386.671	-3.24
386.881	-48.3
387.091	-38.06
387.301	54.1
387.511	19.29
387.72	-46.25
387.93	-17.58
388.14	-7.34
388.35	-13.48
388.56	41.81
388.769	31.57
388.979	25.43
389.189	47.96
389.399	29.52
389.609	54.1
389.818	7
390.028	21.33
390.238	2.9
390.447	-1.19
390.657	74.58
390.867	2.9
391.076	21.33
391.286	93.01
391.496	-1.19
391.705	56.15
391.915	4.95
392.125	39.76
392.334	13.14
392.544	-5.29
392.753	52.05
392.963	43.86
393.172	35.67
393.382	39.76
393.591	97.11
393.801	37.72
394.01	37.72
394.22	39.76
394.429	45.91
394.639	37.72
394.848	29.52
395.058	68.44
395.267	76.63
395.477	80.72
395.686	43.86
395.895	29.52
396.105	117.59
396.314	-21.67
396.524	70.48
396.733	103.25
396.942	86.87
397.152	64.34
397.361	43.86
397.57	-13.48
397.78	76.63
397.989	105.3
398.198	133.97
398.407	-23.72
398.617	-21.67
398.826	58.2
399.035	56.15
399.244	47.96
399.453	109.4
399.663	35.67
399.872	72.53
400.081	15.19
400.29	115.54
400.499	76.63
400.708	60.24
400.917	70.48
401.127	11.09
401.336	45.91
401.545	133.97
401.754	93.01
401.963	13.14
402.172	-36.01
402.381	109.4
402.59	29.52
402.799	17.24
403.008	58.2
403.217	-13.48
403.426	50
403.635	-5.29
403.844	76.63
404.053	109.4
404.262	52.05
404.471	162.64
404.68	80.72
404.888	13.14
405.097	21.33
405.306	62.29
405.515	95.06
405.724	95.06
405.933	62.29
406.142	29.52
406.35	113.49
406.559	76.63
406.768	133.97
406.977	119.64
407.185	62.29
407.394	105.3
407.603	95.06
407.812	150.36
408.02	138.07
408.229	138.07
408.438	166.74
408.646	150.36
408.855	109.4
409.064	105.3
409.272	144.21
409.481	195.41
409.69	105.3
409.898	45.91
410.107	136.02
410.315	174.93
410.524	129.88
410.733	240.47
410.941	170.83
411.15	166.74
411.358	203.6
411.567	314.19
411.775	199.51
411.984	289.62
412.192	242.51
412.401	203.6
412.609	291.66
412.818	322.38
413.026	248.66
413.234	287.57
413.443	297.81
413.651	240.47
413.86	244.56
414.068	355.15
414.276	361.3
414.485	320.34
414.693	334.67
414.901	432.97
415.11	375.63
415.318	389.97
415.526	426.83
415.734	387.92
415.943	406.35
416.151	527.18
416.359	441.17
416.567	422.73
416.776	469.84
416.984	508.75
417.192	494.41
417.4	531.28
417.608	447.31
417.817	611.15
418.025	654.16
418.233	566.09
418.441	639.82
418.649	693.07
418.857	625.48
419.065	727.88
419.273	748.36
419.481	627.53
419.689	789.32
419.897	834.38
420.105	789.32
420.313	856.9
420.521	875.34
420.729	869.19
420.937	944.97
421.145	1028.93
421.353	987.97
421.561	1026.89
421.769	959.3
421.977	1088.32
422.185	1041.22
422.393	1237.83
422.601	1225.54
422.809	1313.6
423.017	1252.16
423.224	1362.75
423.432	1297.22
423.64	1262.4
423.848	1444.67
424.056	1407.81
424.263	1452.86
424.471	1604.41
424.679	1633.08
424.887	1487.68
425.094	1702.72
425.302	1723.2
425.51	1747.77
425.718	1731.39
425.925	1813.31
426.133	1815.35
426.341	1907.51
426.548	2181.94
426.756	2149.17
426.964	2183.99
427.171	2286.39
427.379	2356.02
427.586	2173.75
427.794	2378.55
428.001	2562.86
428.209	2687.79
428.417	2616.11
428.624	2839.34
428.832	2743.08
429.039	2730.8
429.247	2814.76
429.454	3019.56
429.662	3230.5
429.869	3013.42
430.076	3205.92
430.284	3130.15
430.491	3279.65
430.699	3439.39
430.906	3380
431.114	3496.74
431.321	3666.72
431.528	3699.48
431.736	3996.44
431.943	4041.5
432.15	4033.3
432.358	4096.79
432.565	4305.68
432.772	4000.54
432.979	4459.28
433.187	4569.87
433.394	4494.1
433.601	4805.39
433.808	4948.75
434.016	4940.55
434.223	5090.06
434.43	5231.37
434.637	5131.02
434.844	5688.06
435.052	5665.53
435.259	5608.19
435.466	5626.62
435.673	5704.45
435.88	6044.41
436.087	6279.93
436.294	6302.45
436.501	6370.04
436.708	6261.49
436.915	6535.92
437.122	6753.01
437.329	6734.57
437.537	6798.06
437.743	7080.68
437.95	7197.42
438.157	7547.62
438.364	7424.74
438.571	7553.76
438.778	7658.21
438.985	8538.84
439.192	8035.03
439.399	8225.5
439.606	8166.1
439.813	8540.88
440.02	9030.35
440.227	9026.25
440.433	8964.81
440.64	9210.57
440.847	9206.47
441.054	9089.74
441.261	9827.01
441.467	9818.82
441.674	9921.21
441.881	10080.96
442.088	10160.83
442.294	10171.07
442.501	10468.02
442.708	10570.42
442.914	10926.77
443.121	11684.52
443.328	11266.73
443.534	12151.45
443.741	11653.8
443.948	11426.47
444.154	12307.1
444.361	12251.8
444.568	12378.78
444.774	12466.84
444.981	12489.37
445.187	12976.78
445.394	13083.28
445.6	13243.02
445.807	14305.92
446.013	13816.45
446.22	14086.78
446.426	14846.58
446.633	14703.22
446.839	15608.42
447.046	14690.93
447.252	15524.46
447.459	15669.86
447.665	15424.11
447.871	16011.87
448.078	17017.43
448.284	15956.58
448.491	16507.48
448.697	17279.57
448.903	17361.48
449.11	17322.57
449.316	17166.93
449.522	17463.88
449.728	17797.7
449.935	18321.98
450.141	18006.59
450.347	18489.92
450.553	17953.35
450.76	18264.64
450.966	19014.2
451.172	18762.3
451.378	19210.8
451.584	18629.18
451.791	19159.6
451.997	19216.94
452.203	19280.43
452.409	19429.93
452.615	19700.26
452.821	18586.17
453.027	18418.24
453.233	19714.6
453.44	18688.57
453.646	19008.05
453.852	19159.6
454.058	19431.98
454.264	18838.07
454.47	19442.22
454.676	18786.87
454.882	19608.11
455.088	17877.57
455.294	18233.92
455.5	18328.13
455.705	18704.95
455.911	17756.74
456.117	17349.2
456.323	17146.45
456.529	16411.23
456.735	17074.77
456.941	16915.03
457.147	16357.98
457.352	16018.02
457.558	15624.81
457.764	15852.13
457.97	15665.77
458.176	15178.35
458.381	15229.55
458.587	14578.29
458.793	14588.53
458.999	13867.65
459.204	14590.58
459.41	14348.92
459.616	13312.65
459.821	13415.05
460.027	13318.79
460.233	13142.67
460.438	12640.92
460.644	12823.19
460.85	12004
461.055	12047.01
461.261	11895.46
461.466	10807.98
461.672	10527.41
461.878	11285.16
462.083	10687.15
462.289	10384.05
462.494	10390.2
462.7	9814.72
462.905	9853.63
463.111	10117.82
463.316	9982.65
463.522	9554.63
463.727	9652.93
463.932	9726.66
464.138	9808.58
464.343	9480.9
464.549	9464.52
464.754	9632.45
464.959	9544.39
465.165	9603.78
465.37	8999.63
465.575	8975.05
465.781	9173.71
465.986	9149.13
466.191	8950.48
466.397	8860.37
466.602	8403.67
466.807	8665.81
467.012	8714.96
467.218	8491.73
467.423	8325.85
467.628	8555.22
467.833	8776.4
468.038	8497.88
468.244	8180.44
468.449	8575.7
468.654	8360.66
468.859	8284.89
469.064	8248.02
469.269	7973.6
469.474	7879.39
469.679	8067.8
469.885	7826.14
470.09	7688.93
470.295	8141.53
470.5	7817.95
470.705	7731.94
470.91	7566.05
471.115	7656.16
471.32	7727.84
471.525	7746.27
471.73	7434.98
471.935	7473.89
472.139	7308.01
472.344	7424.74
472.549	7092.97
472.754	7189.22
472.959	7043.82
473.164	6836.97
473.369	6779.63
473.574	7019.24
473.778	6861.55
473.983	6845.16
474.188	6931.18
474.393	6578.93
474.598	6564.59
474.802	6533.87
475.007	6411
475.212	6548.21
475.417	6255.35
475.621	6351.6
475.826	6195.96
476.031	6212.34
476.235	6107.9
476.44	6169.34
476.645	5978.87
476.849	5989.11
477.054	5837.56
477.259	5753.6
477.463	5909.24
477.668	5716.73
477.872	5837.56
478.077	5470.98
478.282	5442.31
478.486	5419.78
478.691	5372.68
478.895	5470.98
479.1	5280.52
479.304	5419.78
479.509	5114.63
479.713	5249.8
479.918	5214.98
480.122	5245.7
480.326	5167.88
480.531	5221.13
480.735	5260.04
480.94	4997.9
481.144	5311.24
481.348	5110.54
481.553	5063.43
481.757	4987.66
481.961	5053.19
482.166	4952.84
482.37	4971.27
482.574	4954.89
482.778	4877.07
482.983	5024.52
483.187	4934.41
483.391	4975.37
483.595	4961.03
483.8	4907.79
484.004	5020.42
484.208	4938.51
484.412	4897.55
484.616	5053.19
484.821	5020.42
485.025	4928.27
485.229	4995.85
485.433	4844.3
485.637	4797.2
485.841	4844.3
486.045	4872.97
486.249	5030.66
486.453	4907.79
486.657	4746
486.861	4971.27
487.065	4821.77
487.269	4848.4
487.473	4866.83
487.677	5118.73
487.881	4997.9
488.085	4946.7
488.289	4985.61
488.493	4872.97
488.697	5245.7
488.901	4965.13
489.105	5100.3
489.309	4872.97
489.512	4999.95
489.716	5079.82
489.92	5085.96
490.124	4997.9
490.328	4922.12
490.531	5208.84
490.735	5147.4
490.939	5153.54
491.143	5081.86
491.346	5053.19
491.55	5092.1
491.754	5133.06
491.958	5104.39
492.161	5061.38
492.365	5239.56
492.569	5106.44
492.772	5214.98
492.976	5264.13
493.18	5141.25
493.383	5397.25
493.587	5460.74
493.79	5327.62
493.994	5374.72
494.197	5393.16
494.401	5526.27
494.605	5421.83
494.808	5628.67
495.012	5397.25
495.215	5616.38
495.419	5540.61
495.622	5802.75
495.825	5624.58
496.029	5686.01
496.232	5686.01
496.436	5798.65
496.639	5976.83
496.843	5933.82
497.046	6157.05
497.249	5987.07
497.453	6171.38
497.656	6222.58
497.859	6015.74
498.063	6075.13
498.266	6515.44
498.469	6441.72
498.673	6523.63
498.876	6544.11
499.079	6558.45
499.282	6433.52
499.485	6796.01
499.689	6722.29
499.892	6820.59
500.095	6785.77
500.298	6828.78
500.501	6892.27
500.705	7203.56
500.908	6984.43
501.111	7097.07
501.314	7391.97
501.517	7369.44
501.72	7588.58
501.923	7293.67
502.126	7561.95
502.329	7756.51
502.532	7621.35
502.735	7795.42
502.938	7738.08
503.141	8090.33
503.344	8217.3
503.547	8202.97
503.75	8153.82
503.953	8336.09
504.156	8366.81
504.359	8479.44
504.562	8612.56
504.765	8882.89
504.968	8989.39
505.17	8760.02
505.373	8921.81
505.576	9016.01
505.779	9022.16
505.982	9132.75
506.185	9333.45
506.387	9646.79
506.59	9552.58
506.793	9560.77
506.996	9499.33
507.198	9681.6
507.401	9861.82
507.604	9999.04
507.807	10011.32
508.009	10136.25
508.212	10195.64
508.415	10515.12
508.617	10433.21
508.82	10492.6
509.022	10668.72
509.225	10902.19
509.428	10994.35
509.63	11043.5
509.833	11117.23
510.035	11205.29
510.238	11180.71
510.44	11285.16
510.643	11711.14
510.845	11563.68
511.048	11614.88
511.25	11889.31
511.453	11758.24
511.655	12286.62
511.858	12186.27
512.06	12161.69
512.262	12577.43
512.465	12636.82
512.667	12655.25
512.87	12860.05
513.072	12878.48
513.274	13015.69
513.477	12962.45
513.679	13331.08
513.881	13392.52
514.084	13400.71
514.286	13339.27
514.488	13544.07
514.69	13986.43
514.893	13970.05
515.095	13810.31
515.297	14252.67
515.499	14299.77
515.701	14250.62
515.904	14887.54
516.106	14596.73
516.308	15024.75
516.51	15004.27
516.712	15039.09
516.914	15065.71
517.116	15385.19
517.318	15569.51
517.52	15645.29
517.722	15546.98
517.925	15723.11
518.127	16036.45
518.329	16122.46
518.531	16091.74
518.733	16398.94
518.935	16370.27
519.136	16323.16
519.338	17046.1
519.54	16773.72
519.742	17068.62
519.944	16857.68
520.146	17136.21
520.348	17427.02
520.55	17349.2
520.752	17631.82
520.954	18147.9
521.155	17820.23
521.357	17818.18
521.559	18352.7
521.761	18256.45
521.963	18442.81
522.164	18309.69
522.366	18584.12
522.568	18870.84
522.77	18946.61
522.971	19282.48
523.173	18862.65
523.375	19331.63
523.576	19135.03
523.778	19356.21
523.98	19558.95
524.181	19612.2
524.383	19872.29
524.584	19929.64
524.786	19927.59
524.988	19976.74
525.189	20154.91
525.391	20441.63
525.592	20290.08
525.794	20488.73
525.995	20511.26
526.197	20621.85
526.398	20931.09
526.6	20947.48
526.801	20736.54
527.003	20875.8
527.204	20871.7
527.406	21076.5
527.607	21291.54
527.808	21594.64
528.01	20765.21
528.211	20994.58
528.412	21615.12
528.614	21520.91
528.815	21357.07
529.016	21826.06
529.218	21389.84
529.419	21848.58
529.62	21621.26
529.822	21893.64
530.023	21772.81
530.224	21928.45
530.425	21506.57
530.626	21764.62
530.828	21711.37
531.029	22264.32
531.23	22129.16
531.431	21830.15
531.632	21971.46
531.833	22045.19
532.035	22225.41
532.236	22069.76
532.437	22227.46
532.638	22061.57
532.839	22139.4
533.04	22155.78
533.241	22106.63
533.442	22671.87
533.643	22153.73
533.844	22233.6
534.045	22258.18
534.246	22018.57
534.447	22305.28
534.648	22258.18
534.849	22237.7
535.05	22043.14
535.251	22270.47
535.451	22329.86
535.652	22405.63
535.853	22252.03
536.054	22358.53
536.255	22321.66
536.456	21969.41
536.657	22462.97
536.857	22147.59
537.058	22485.5
537.259	22426.11
537.46	22473.21
537.66	22432.26
537.861	21985.8
538.062	22155.78
538.263	22387.2
538.463	22516.22
538.664	22182.4
538.865	22362.62
539.065	22260.23
539.266	22276.61
539.466	22374.91
539.667	22163.97
539.868	22471.17
540.068	22485.5
540.269	22047.24
540.469	22276.61
540.67	22454.78
540.87	22297.09
541.071	22065.67
541.271	21852.68
541.472	22030.85
541.672	22260.23
541.873	22063.62
542.073	21885.45
542.274	22303.23
542.474	22080
542.675	21969.41
542.875	22235.65
543.075	22317.57
543.276	21764.62
543.476	22065.67
543.676	21844.49
543.877	22237.7
544.077	22092.29
544.277	22028.81
544.478	21899.78
544.678	21934.6
544.878	22141.44
545.078	22108.68
545.279	21940.74
545.479	21910.02
545.679	22141.44
545.879	21907.98
546.079	22018.57
546.28	21760.52
546.48	21649.93
546.68	22041.09
546.88	21944.84
547.08	22045.19
547.28	21985.8
547.48	21438.99
547.68	21756.43
547.88	21981.7
548.081	21924.36
548.281	21658.12
548.481	21832.2
548.681	21844.49
548.881	21793.29
549.081	21912.07
549.28	21623.31
549.48	21768.71
549.68	21809.67
549.88	22155.78
550.08	21869.06
550.28	21682.7
550.48	21768.71
550.68	21721.61
550.88	21586.44
551.08	21815.82
551.279	22055.43
551.479	21785.1
551.679	22004.23
551.879	21783.05
552.079	22051.33
552.278	21484.05
552.478	21993.99
552.678	21666.31
552.878	21781
553.077	21508.62
553.277	21539.34
553.477	21907.98
553.676	21613.07
553.876	21727.75
554.076	21539.34
554.275	21387.79
554.475	21430.8
554.674	21494.29
554.874	21656.07
555.074	21766.67
555.273	21772.81
555.473	21389.84
555.672	21291.54
555.872	21418.51
556.071	21527.05
556.271	21629.45
556.47	21299.73
556.67	21107.22
556.869	21273.1
557.068	21365.26
557.268	21201.43
557.467	21250.58
557.667	21150.23
557.866	21244.43
558.065	21121.56
558.265	21090.84
558.464	20929.05
558.663	21041.68
558.863	20972.05
559.062	20904.47
559.261	20894.23
559.461	20982.29
559.66	20916.76
559.859	20939.29
560.058	20978.2
560.258	21066.26
560.457	20814.36
560.656	20941.33
560.855	20767.26
561.054	20959.77
561.253	20615.71
561.453	20648.47
561.652	20662.81
561.851	20918.81
562.05	20687.39
562.249	20417.05
562.448	20605.47
562.647	20605.47
562.846	20261.41
563.045	20584.99
563.244	20238.88
563.443	20689.43
563.642	20253.22
563.841	20412.96
564.04	20484.64
564.239	20523.55
564.438	20023.84
564.637	20032.04
564.836	20226.59
565.035	20187.68
565.234	20206.11
565.432	19862.05
565.631	19986.98
565.83	20189.73
566.029	19917.35
566.228	19737.13
566.427	19763.75
566.625	19567.15
566.824	19446.32
567.023	19921.45
567.222	19360.3
567.42	19972.64
567.619	19565.1
567.818	19616.3
568.016	19436.08
568.215	19601.96
568.414	19601.96
568.612	19431.98
568.811	19212.85
569.01	19411.5
569.208	19126.83
569.407	19483.18
569.605	18733.62
569.804	19270.19
570.002	19124.79
570.201	19130.93
570.4	18827.83
570.598	18895.41
570.797	18858.55
570.995	19132.98
571.193	18489.92
571.392	18872.89
571.59	18532.92
571.789	18584.12
571.987	18414.14
572.186	18702.9
572.384	18403.9
572.582	18694.71
572.781	18524.73
572.979	18139.71
573.177	18274.88
573.376	18653.75
573.574	18344.51
573.772	18250.3
573.971	18012.74
574.169	18074.18
574.367	17885.76
574.565	18129.47
574.763	18037.31
574.962	17893.96
575.16	17672.78
575.358	17928.77
575.556	17713.74
575.754	17961.54
575.952	17470.03
576.151	17898.05
576.349	17584.71
576.547	17492.55
576.745	17758.79
576.943	17807.94
577.141	17547.85
577.339	17584.71
577.537	17553.99
577.735	17467.98
577.933	17287.76
578.131	17324.62
578.329	17445.45
578.527	17265.23
578.725	17203.79
578.923	17107.54
579.121	17035.86
579.319	16962.13
579.516	16906.84
579.714	17214.03
579.912	16839.25
580.11	16816.72
580.308	16788.05
580.506	16786.01
580.704	16630.36
580.901	16767.57
581.099	16878.16
581.297	16726.61
581.495	16407.13
581.692	16304.73
581.89	16364.12
582.088	16452.19
582.285	16378.46
582.483	16245.34
582.681	16355.93
582.878	16351.84
583.076	16151.13
583.274	16400.99
583.471	16161.37
583.669	15919.71
583.866	16034.4
584.064	16173.66
584.262	15716.97
584.459	16194.14
584.657	15968.87
584.854	16003.68
585.052	15696.49
585.249	15645.29
585.447	15762.02
585.644	15553.13
585.841	15745.64
586.039	15764.07
586.236	15356.52
586.434	15501.93
586.631	15452.78
586.828	15366.76
587.026	15485.55
587.223	15340.14
587.42	15340.14
587.618	15307.37
587.815	15014.51
588.012	15067.76
588.21	15207.02
588.407	15278.7
588.604	15123.05
588.801	14891.63
588.999	14830.2
589.196	14983.79
589.393	14924.4
589.59	14783.09
589.787	14641.78
589.984	14592.63
590.182	14662.26
590.379	14738.04
590.576	14338.68
590.773	14719.6
590.97	14590.58
591.167	14551.67
591.364	14387.83
591.561	14322.3
591.758	14232.19
591.955	14375.55
592.152	14420.6
592.349	14074.49
592.546	14191.23
592.743	14056.06
592.94	13906.56
593.137	13980.29
593.334	14232.19
593.531	13804.16
593.727	14094.97
593.924	13871.75
594.121	13908.61
594.318	13867.65
594.515	13642.37
594.712	13718.15
594.908	13781.64
595.105	13601.41
595.302	13415.05
595.499	13552.26
595.696	13339.27
595.892	13380.23
596.089	13679.24
596.286	13544.07
596.482	13374.09
596.679	13367.95
596.876	13283.98
597.072	13226.64
597.269	13306.51
597.466	13218.44
597.662	13144.72
597.859	13103.76
598.055	13023.89
598.252	12970.64
598.448	12939.92
598.645	13011.6
598.841	12761.75
599.038	12864.15
599.234	12849.81
599.431	12634.77
599.627	12909.2
599.824	12782.23
600.02	12731.03
600.217	12749.46
600.413	12436.12
600.609	12608.15
600.806	12612.24
601.002	12579.48
601.198	12368.54
601.395	12294.81
601.591	12452.5
601.787	12192.41
601.984	12391.06
602.18	12581.53
602.376	12085.92
602.572	12087.96
602.769	12327.58
602.965	11991.71
603.161	12225.18
603.357	12030.62
603.553	12133.02
603.75	11973.28
603.946	11850.4
604.142	12049.05
604.338	11670.18
604.534	12004
604.73	11702.95
604.926	11711.14
605.122	11844.26
605.318	11741.86
605.514	11618.98
605.71	11520.68
605.906	11760.29
606.102	11606.69
606.298	11690.66
606.494	11444.9
606.69	11485.86
606.886	11700.9
607.082	11324.07
607.278	11352.74
607.474	11283.11
607.67	11393.7
607.866	11131.56
608.062	11311.78
608.257	11428.52
608.453	11297.45
608.649	11236.01
608.845	11135.66
609.041	11178.67
609.236	11268.78
609.432	11338.41
609.628	11045.55
609.824	11045.55
610.019	11098.8
610.215	11117.23
610.411	11147.95
610.606	11121.32
610.802	11057.84
610.998	10955.44
611.193	10959.53
611.389	10914.48
611.584	10824.37
611.78	10822.32
611.976	10889.9
612.171	10867.38
612.367	10775.22
612.562	10687.15
612.758	10465.97
612.953	10660.53
613.149	10644.15
613.344	10547.89
613.539	10844.85
613.735	10769.07
613.93	10812.08
614.126	10500.79
614.321	10730.16
614.517	10638
614.712	10527.41
614.907	10498.74
615.103	10545.84
615.298	10351.29
615.493	10611.38
615.688	10302.14
615.884	10595
616.079	10392.25
616.274	10414.77
616.47	10402.49
616.665	10449.59
616.86	10271.42
617.055	10300.09
617.25	10316.47
617.445	10273.46
617.641	10144.44
617.836	10386.1
618.031	10058.43
618.226	10384.05
618.421	10138.3
618.616	10029.76
618.811	9970.37
619.006	10042.04
619.201	9833.15
619.396	9939.65
619.591	9851.58
619.786	9915.07
619.981	9886.4
620.176	9906.88
620.371	9800.38
620.566	9681.6
620.761	9976.51
620.956	9761.47
621.151	9583.3
621.346	9634.5
621.541	9358.02
621.735	9464.52
621.93	9355.97
622.125	9552.58
622.32	9247.43
622.515	9333.45
622.709	9128.65
622.904	9251.53
623.099	9304.78
623.294	9210.57
623.488	8940.24
623.683	9024.2
623.878	8927.95
624.072	8872.65
624.267	8843.98
624.462	8772.3
624.656	8686.29
624.851	8858.32
625.046	8655.57
625.24	8485.59
625.435	8657.62
625.629	8418
625.824	8612.56
626.018	8671.95
626.213	8407.77
626.407	8512.21
626.602	8223.45
626.796	8217.3
626.991	8323.8
627.185	8256.22
627.38	8229.59
627.574	8035.03
627.768	8164.06
627.963	8082.14
628.157	7906.01
628.352	8057.56
628.546	7619.3
628.74	7842.53
628.935	7768.8
629.129	7750.37
629.323	7764.7
629.517	7600.87
629.712	7578.34
629.906	7863.01
630.1	7570.15
630.294	7584.48
630.489	7400.16
630.683	7500.51
630.877	7305.96
631.071	7420.64
631.265	7242.47
631.459	7142.12
631.653	7267.05
631.848	7322.34
632.042	7064.3
632.236	7273.19
632.43	6931.18
632.624	7211.75
632.818	7168.74
633.012	7047.91
633.206	6931.18
633.4	7023.34
633.594	7023.34
633.788	6916.84
633.982	6916.84
634.176	6734.57
634.369	6699.76
634.563	6685.42
634.757	6556.4
634.951	6705.9
635.145	6720.24
635.339	6613.74
635.533	6542.07
635.726	6443.76
635.92	6492.91
636.114	6499.06
636.308	6363.89
636.501	6279.93
636.695	6263.54
636.889	6392.56
637.083	6388.47
637.276	6222.58
637.47	6220.53
637.664	6185.72
637.857	6271.73
638.051	6040.31
638.244	6109.94
638.438	6101.75
638.632	6097.66
638.825	5944.06
639.019	5784.32
639.212	5884.67
639.406	5858.04
639.599	5929.72
639.793	5794.56
639.986	5761.79
640.18	5821.18
640.373	5866.24
640.567	5686.01
640.76	5595.9
640.954	5679.87
641.147	5589.76
641.34	5712.64
641.534	5491.46
641.727	5630.72
641.92	5556.99
642.114	5356.29
642.307	5415.68
642.5	5344
642.694	5212.93
642.887	5325.57
643.08	5458.69
643.273	5423.87
643.467	5321.48
643.66	5219.08
643.853	5278.47
644.046	5077.77
644.239	5194.5
644.432	5200.65
644.626	4948.75
644.819	5223.17
645.012	5088.01
645.205	4909.83
645.398	5004.04
645.591	4952.84
645.784	5020.42
645.977	4983.56
646.17	4893.45
646.363	4909.83
646.556	4782.86
646.749	4799.24
646.942	4911.88
647.135	4862.73
647.328	4758.28
647.521	4752.14
647.714	4750.09
647.907	4778.76
648.099	4664.08
648.292	4682.51
648.485	4535.06
648.678	4614.93
648.871	4668.17
649.064	4377.36
649.256	4651.79
649.449	4469.52
649.642	4557.58
649.835	4322.07
650.027	4336.4
650.22	4555.54
650.413	4344.6
650.605	4418.32
650.798	4315.92
650.991	4363.03
651.183	4272.92
651.376	4354.83
651.568	4221.72
651.761	4119.32
651.954	4162.33
652.146	4234
652.339	4090.65
652.531	4164.37
652.724	4025.11
652.916	3945.24
653.109	4043.54
653.301	4098.84
653.494	4066.07
653.686	3873.56
653.879	4137.75
654.071	4000.54
654.263	3998.49
654.456	3961.62
654.648	3939.1
654.84	3941.15
655.033	4053.78
655.225	3918.62
655.417	3789.6
655.61	3777.31
655.802	3732.25
655.994	3869.47
656.186	3681.05
656.379	3756.83
656.571	3762.97
656.763	3640.09
656.955	3611.42
657.148	3636
657.34	3748.64
657.532	3722.01
657.724	3699.48
657.916	3623.71
658.108	3640.09
658.3	3541.79
658.492	3451.68
658.684	3474.21
658.876	3482.4
659.068	3570.46
659.26	3410.72
659.452	3361.57
659.644	3312.42
659.836	3398.43
660.028	3410.72
660.22	3371.81
660.412	3369.76
660.604	3298.08
660.796	3328.8
660.988	3375.91
661.18	3230.5
661.372	3230.5
661.563	3300.13
661.755	3365.67
661.947	3160.87
662.139	3191.59
662.331	3140.39
662.522	3212.07
662.714	3164.97
662.906	3085.09
663.097	3119.91
663.289	3148.58
663.481	3089.19
663.673	3181.35
663.864	3121.96
664.056	3113.77
664.247	3119.91
664.439	3019.56
664.631	2925.35
664.822	2988.84
665.014	2921.26
665.205	3011.37
665.397	3042.09
665.588	2906.92
665.78	2962.22
665.971	2980.65
666.163	2968.36
666.354	2935.59
666.546	2845.48
666.737	2798.38
666.929	2931.5
667.12	2886.44
667.311	2820.91
667.503	2861.87
667.694	2902.83
667.885	2908.97
668.077	2837.29
668.268	2800.43
668.459	2732.84
668.651	2687.79
668.842	2790.19
669.033	2585.39
669.224	2607.92
669.416	2870.06
669.607	2704.17
669.798	2632.49
669.989	2657.07
670.18	2667.31
670.371	2667.31
670.563	2577.2
670.754	2636.59
670.945	2689.84
671.136	2640.69
671.327	2599.73
671.518	2698.03
671.709	2691.88
671.9	2640.69
672.091	2646.83
672.282	2538.29
672.473	2427.7
672.664	2491.18
672.855	2583.34
673.046	2546.48
673.237	2575.15
673.428	2431.79
673.619	2548.53
673.809	2489.14
674	2585.39
674.191	2407.22
674.382	2480.94
674.573	2517.81
674.764	2540.33
674.954	2515.76
675.145	2384.69
675.336	2485.04
675.527	2427.7
675.717	2407.22
675.908	2386.74
676.099	2526
676.289	2413.36
676.48	2401.07
676.671	2394.93
676.861	2456.37
677.052	2382.64
677.243	2247.48
677.433	2448.18
677.624	2247.48
677.814	2353.97
678.005	2331.44
678.195	2503.47
678.386	2298.67
678.576	2337.59
678.767	2333.49
678.957	2437.94
679.148	2399.02
679.338	2331.44
679.529	2378.55
679.719	2296.63
679.909	2321.2
680.1	2384.69
680.29	2163.51
680.481	2394.93
680.671	2437.94
680.861	2245.43
681.052	2259.76
681.242	2317.11
681.432	2292.53
681.622	2300.72
681.813	2267.95
682.003	2319.15
682.193	2196.28
682.383	2386.74
682.573	2267.95
682.764	2267.95
682.954	2329.39
683.144	2190.13
683.334	2173.75
683.524	2218.8
683.714	2263.86
683.904	2192.18
684.094	2177.84
684.284	2218.8
684.474	2290.48
684.664	2151.22
684.854	2181.94
685.044	2239.28
685.234	2249.52
685.424	2179.89
685.614	2218.8
685.804	2257.71
685.994	2206.52
686.184	2132.79
686.374	2157.36
686.564	2140.98
686.753	2183.99
686.943	2198.32
687.133	2171.7
687.323	2034.49
687.513	2118.45
687.702	2181.94
687.892	2036.53
688.082	2116.41
688.272	2014.01
688.461	2087.73
688.651	2151.22
688.841	2059.06
689.03	2134.84
689.22	2057.01
689.41	1958.71
689.599	2036.53
689.789	1985.34
689.979	1987.38
690.168	1985.34
690.358	1921.85
690.547	2038.58
690.737	1993.53
690.926	2030.39
691.116	1940.28
691.305	2009.91
691.495	1952.57
691.684	1846.07
691.874	2011.96
692.063	1868.6
692.252	1897.27
692.442	1825.59
692.631	1944.38
692.82	1747.77
693.01	1936.18
693.199	1796.92
693.388	1866.55
693.578	1872.7
693.767	1864.5
693.956	1841.98
694.146	1782.59
694.335	1813.31
694.524	1768.25
694.713	1891.13
694.902	1770.3
695.092	1829.69
695.281	1796.92
695.47	1837.88
695.659	1755.96
695.848	1727.29
696.037	1776.44
696.226	1776.44
696.415	1635.13
696.604	1854.27
696.793	1778.49
696.982	1780.54
697.171	1755.96
697.36	1661.76
697.549	1751.87
697.738	1694.52
697.927	1698.62
698.116	1624.89
698.305	1766.2
698.494	1651.52
698.683	1764.15
698.872	1733.43
699.061	1727.29
699.25	1661.76
699.438	1692.48
699.627	1698.62
699.816	1749.82
700.005	1710.91
700.193	1698.62
700.382	1770.3
700.571	1678.14
700.76	1696.57
700.948	1733.43
701.137	1596.22
701.326	1749.82
701.514	1758.01
701.703	1772.35
701.892	1672
702.08	1731.39
702.269	1766.2
702.457	1680.19
702.646	1739.58
702.834	1715
703.023	1719.1
703.212	1751.87
703.4	1700.67
703.589	1563.45
703.777	1710.91
703.965	1782.59
704.154	1600.32
704.342	1682.24
704.531	1702.72
704.719	1667.9
704.907	1624.89
705.096	1772.35
705.284	1674.04
705.472	1626.94
705.661	1643.32
705.849	1700.67
706.037	1772.35
706.226	1674.04
706.414	1618.75
706.602	1657.66
706.79	1774.39
706.979	1688.38
707.167	1567.55
707.355	1649.47
707.543	1710.91
707.731	1616.7
707.919	1753.91
708.107	1637.18
708.296	1635.13
708.484	1735.48
708.672	1809.21
708.86	1657.66
709.048	1702.72
709.236	1772.35
709.424	1702.72
709.612	1725.24
709.8	1596.22
709.988	1649.47
710.176	1686.33
710.364	1739.58
710.551	1739.58
710.739	1649.47
710.927	1661.76
711.115	1821.5
711.303	1567.55
711.491	1667.9
711.679	1624.89
711.866	1649.47
712.054	1706.81
712.242	1731.39
712.43	1647.42
712.617	1635.13
712.805	1715
712.993	1665.85
713.181	1672
713.368	1727.29
713.556	1725.24
713.744	1672
713.931	1676.09
714.119	1661.76
714.306	1698.62
714.494	1661.76
714.682	1768.25
714.869	1669.95
715.057	1755.96
715.244	1633.08
715.432	1645.37
715.619	1782.59
715.807	1559.36
715.994	1633.08
716.182	1657.66
716.369	1690.43
716.556	1684.28
716.744	1700.67
716.931	1700.67
717.119	1649.47
717.306	1674.04
717.493	1690.43
717.681	1659.71
717.868	1686.33
718.055	1583.93
718.242	1631.04
718.43	1739.58
718.617	1764.15
718.804	1624.89
718.991	1725.24
719.179	1686.33
719.366	1680.19
719.553	1608.51
719.74	1624.89
719.927	1690.43
720.114	1694.52
720.301	1723.2
720.488	1624.89
720.676	1659.71
720.863	1739.58
721.05	1747.77
721.237	1768.25
721.424	1762.11
721.611	1706.81
721.798	1563.45
721.985	1725.24
722.172	1690.43
722.358	1686.33
722.545	1676.09
722.732	1694.52
722.919	1745.72
723.106	1637.18
723.293	1633.08
723.48	1692.48
723.667	1616.7
723.853	1602.36
724.04	1674.04
724.227	1657.66
724.414	1628.99
724.6	1715
724.787	1684.28
724.974	1776.44
725.161	1727.29
725.347	1674.04
725.534	1631.04
725.72	1674.04
725.907	1747.77
726.094	1696.57
726.28	1678.14
726.467	1628.99
726.653	1626.94
726.84	1807.16
727.027	1753.91
727.213	1686.33
727.4	1665.85
727.586	1774.39
727.773	1618.75
727.959	1739.58
728.145	1784.63
728.332	1692.48
728.518	1655.61
728.705	1645.37
728.891	1657.66
729.077	1758.01
729.264	1684.28
729.45	1674.04
729.636	1758.01
729.823	1688.38
730.009	1747.77
730.195	1665.85
730.382	1708.86
730.568	1710.91
730.754	1794.87
730.94	1674.04
731.126	1667.9
731.313	1692.48
731.499	1592.13
731.685	1661.76
731.871	1602.36
732.057	1772.35
732.243	1702.72
732.429	1764.15
732.615	1651.52
732.801	1686.33
732.987	1653.56
733.173	1663.8
733.359	1710.91
733.545	1633.08
733.731	1704.76
733.917	1649.47
734.103	1585.98
734.289	1760.06
734.475	1612.6
734.661	1770.3
734.847	1764.15
735.033	1604.41
735.219	1678.14
735.404	1573.69
735.59	1653.56
735.776	1663.8
735.962	1653.56
736.148	1747.77
736.333	1749.82
736.519	1590.08
736.705	1723.2
736.89	1604.41
737.076	1583.93
737.262	1657.66
737.447	1682.24
737.633	1579.84
737.819	1551.17
738.004	1706.81
738.19	1678.14
738.375	1719.1
738.561	1778.49
738.747	1596.22
738.932	1600.32
739.118	1690.43
739.303	1626.94
739.489	1594.17
739.674	1524.54
739.859	1565.5
740.045	1553.21
740.23	1549.12
740.416	1524.54
740.601	1616.7
740.786	1653.56
740.972	1545.02
741.157	1604.41
741.342	1581.89
741.528	1592.13
741.713	1620.8
741.898	1563.45
742.084	1452.86
742.269	1547.07
742.454	1602.36
742.639	1571.65
742.824	1467.2
743.01	1616.7
743.195	1649.47
743.38	1514.3
743.565	1559.36
743.75	1461.06
743.935	1428.29
744.12	1508.16
744.305	1532.73
744.49	1448.77
744.675	1434.43
744.86	1387.33
745.045	1463.1
745.23	1518.4
745.415	1454.91
745.6	1403.71
745.785	1424.19
745.97	1434.43
746.155	1506.11
746.34	1405.76
746.525	1389.38
746.71	1467.2
746.895	1430.34
747.079	1336.13
747.264	1334.08
747.449	1524.54
747.634	1444.67
747.819	1297.22
748.003	1299.27
748.188	1370.94
748.373	1338.18
748.557	1219.39
748.742	1233.73
748.927	1327.94
749.111	1329.99
749.296	1321.79
749.481	1370.94
749.665	1274.69
749.85	1295.17
750.034	1317.7
750.219	1215.3
750.404	1411.9
750.588	1203.01
750.773	1256.26
750.957	1108.8
751.141	1264.45
751.326	1198.92
751.51	1178.44
751.695	1180.48
751.879	1225.54
752.064	1108.8
752.248	1149.76
752.432	1192.77
752.617	1119.04
752.801	1160
752.985	1104.71
753.17	1127.24
753.354	1174.34
753.538	1129.28
753.722	1043.27
753.907	1176.39
754.091	1176.39
754.275	1180.48
754.459	1090.37
754.643	1073.99
754.828	1018.69
755.012	1059.65
755.196	1069.89
755.38	1041.22
755.564	996.17
755.748	990.02
755.932	996.17
756.116	1051.46
756.3	869.19
756.484	979.78
756.668	932.68
756.852	973.64
757.036	961.35
757.22	961.35
757.404	871.24
757.588	944.97
757.772	914.25
757.956	930.63
758.14	1037.13
758.323	951.11
758.507	944.97
758.691	865.1
758.875	928.58
759.059	891.72
759.242	893.77
759.426	891.72
759.61	795.47
759.794	815.94
759.977	809.8
760.161	930.63
760.345	906.06
760.528	842.57
760.712	846.66
760.895	799.56
761.079	908.1
761.263	836.42
761.446	832.33
761.63	840.52
761.813	846.66
761.997	777.03
762.18	840.52
762.364	797.51
762.547	750.41
762.731	760.65
762.914	793.42
763.098	766.79
763.281	805.71
763.464	758.6
763.648	744.27
763.831	789.32
764.015	768.84
764.198	756.55
764.381	770.89
764.564	760.65
764.748	772.94
764.931	791.37
765.114	742.22
765.297	768.84
765.481	664.4
765.664	668.49
765.847	688.97
766.03	725.83
766.213	768.84
766.397	654.16
766.58	682.83
766.763	678.73
766.946	709.45
767.129	654.16
767.312	602.96
767.495	717.64
767.678	609.1
767.861	731.98
768.044	707.4
768.227	648.01
768.41	695.11
768.593	719.69
768.776	688.97
768.959	596.81
769.142	740.17
769.324	629.58
769.507	637.77
769.69	564.04
769.873	727.88
770.056	662.35
770.239	598.86
770.421	688.97
770.604	672.59
770.787	596.81
770.97	605
771.152	559.95
771.335	629.58
771.518	543.57
771.7	588.62
771.883	611.15
772.066	545.61
772.248	562
772.431	652.11
772.613	549.71
772.796	572.24
772.978	613.2
773.161	629.58
773.343	494.41
773.526	518.99
773.708	486.22
773.891	488.27
774.073	570.19
774.256	559.95
774.438	553.8
774.621	537.42
774.803	494.41
774.985	514.89
775.168	551.76
775.35	486.22
775.532	555.85
775.715	430.93
775.897	525.13
776.079	453.45
776.261	478.03
776.444	488.27
776.626	480.08
776.808	492.37
776.99	504.65
777.173	469.84
777.355	478.03
777.537	422.73
777.719	463.69
777.901	447.31
778.083	478.03
778.265	451.41
778.447	486.22
778.629	461.65
778.811	461.65
778.993	420.69
779.175	455.5
779.357	504.65
779.539	357.2
779.721	478.03
779.903	371.54
780.085	461.65
780.267	398.16
780.449	389.97
780.631	461.65
780.812	410.45
780.994	400.21
781.176	398.16
781.358	385.87
781.54	422.73
781.721	459.6
781.903	443.21
782.085	394.06
782.267	385.87
782.448	371.54
782.63	334.67
782.812	381.78
782.993	400.21
783.175	389.97
783.357	367.44
783.538	308.05
783.72	316.24
783.901	340.82
784.083	355.15
784.264	398.16
784.446	326.48
784.627	267.09
784.809	312.14
784.99	357.2
785.172	230.23
785.353	357.2
785.535	314.19
785.716	285.52
785.897	299.86
786.079	338.77
786.26	314.19
786.441	377.68
786.623	330.58
786.804	265.04
786.985	234.32
787.167	349.01
787.348	301.9
787.529	306
787.71	281.43
787.891	291.66
788.073	240.47
788.254	314.19
788.435	187.22
788.616	279.38
788.797	285.52
788.978	297.81
789.159	306
789.34	222.03
789.522	236.37
789.703	299.86
789.884	219.99
790.065	285.52
790.246	273.23
790.427	306
790.607	291.66
790.788	369.49
790.969	217.94
791.15	269.14
791.331	295.76
791.512	316.24
791.693	187.22
791.874	158.55
792.054	299.86
792.235	201.55
792.416	179.03
792.597	256.85
792.778	252.75
792.958	256.85
793.139	183.12
793.32	246.61
793.5	121.68
793.681	324.43
793.862	217.94
794.042	232.27
794.223	183.12
794.404	285.52
794.584	160.59
794.765	277.33
794.945	170.83
795.126	174.93
795.306	185.17
795.487	158.55
795.667	215.89
795.848	181.07
796.028	236.37
796.209	179.03
796.389	164.69
796.57	187.22
796.75	215.89
796.93	258.9
797.111	158.55
797.291	176.98
797.471	242.51
797.652	152.4
797.832	142.16
798.012	291.66
798.192	191.31
798.373	179.03
798.553	127.83
798.733	174.93
798.913	230.23
799.093	201.55
799.274	119.64
799.454	174.93
799.634	154.45
799.814	142.16
799.994	207.7
800.174	217.94
800.354	133.97
800.534	166.74
800.714	256.85
800.894	183.12
801.074	41.81
801.254	109.4
801.434	154.45
801.614	146.26
801.794	136.02
801.974	717.64
802.154	150.36
802.334	168.79
802.514	119.64
802.693	144.21
802.873	105.3
803.053	187.22
803.233	119.64
803.413	201.55
803.592	160.59
803.772	164.69
803.952	183.12
804.131	103.25
804.311	154.45
804.491	207.7
804.67	170.83
804.85	150.36
805.03	109.4
805.209	125.78
805.389	95.06
805.568	215.89
805.748	117.59
805.928	105.3
806.107	195.41
806.287	172.88
806.466	101.2
806.646	37.72
806.825	64.34
807.004	84.82
807.184	127.83
807.363	111.44
807.543	170.83
807.722	80.72
807.901	189.27
808.081	97.11
808.26	105.3
808.439	101.2
808.619	60.24
808.798	117.59
808.977	19.29
809.156	125.78
809.336	109.4
809.515	117.59
809.694	60.24
809.873	109.4
810.052	84.82
810.231	191.31
810.411	76.63
810.59	125.78
810.769	60.24
810.948	117.59
811.127	107.35
811.306	76.63
811.485	58.2
811.664	84.82
811.843	68.44
812.022	93.01
812.201	0.85
812.38	76.63
812.559	84.82
812.737	144.21
812.916	35.67
813.095	90.96
813.274	140.12
813.453	125.78
813.632	68.44
813.811	90.96
813.989	60.24
814.168	-21.67
814.347	-27.82
814.526	144.21
814.704	84.82
814.883	35.67
815.062	64.34
815.24	84.82
815.419	109.4
815.598	56.15
815.776	-5.29
815.955	2.9
816.133	45.91
816.312	72.53
816.49	78.68
816.669	62.29
816.847	133.97
817.026	170.83
817.204	76.63
817.383	-5.29
817.561	107.35
817.74	70.48
817.918	117.59
818.097	95.06
818.275	88.92
818.453	60.24
818.632	93.01
818.81	97.11
818.988	31.57
819.167	62.29
819.345	21.33
819.523	101.2
819.701	39.76
819.879	84.82
820.058	76.63
820.236	78.68
820.414	168.79
820.592	68.44
820.77	45.91
820.948	68.44
821.127	76.63
821.305	125.78
821.483	76.63
821.661	60.24
821.839	60.24
822.017	62.29
822.195	-29.87
822.373	176.98
822.551	60.24
822.729	133.97
822.907	52.05
823.085	111.44
823.262	150.36
823.44	127.83
823.618	37.72
823.796	80.72
823.974	88.92
824.152	31.57
824.329	29.52
824.507	54.1
824.685	76.63
824.863	-25.77
825.04	95.06
825.218	56.15
825.396	11.09
825.574	113.49
825.751	80.72
825.929	105.3
826.107	19.29
826.284	37.72
826.462	121.68
826.639	68.44
826.817	27.48
826.994	76.63
827.172	-33.96
827.349	52.05
827.527	68.44
827.704	101.2
827.882	43.86
828.059	60.24
828.237	35.67
828.414	158.55
828.591	66.39
828.769	23.38
828.946	27.48
829.124	86.87
829.301	47.96
829.478	88.92
829.655	45.91
829.833	93.01
830.01	80.72
830.187	-3.24
830.364	-15.53
830.542	-11.43
830.719	54.1
830.896	-17.58
831.073	60.24
831.25	84.82
831.427	29.52
831.604	103.25
831.782	58.2
831.959	56.15
832.136	-19.63
832.313	84.82
832.49	2.9
832.667	50
832.844	-23.72
833.021	68.44
833.198	11.09
833.374	84.82
833.551	13.14
833.728	95.06
833.905	62.29
834.082	-5.29
834.259	52.05
834.436	72.53
834.612	2.9
834.789	-36.01
834.966	84.82
835.143	52.05
835.319	2.9
835.496	62.29
835.673	52.05
835.85	41.81
836.026	45.91
836.203	23.38
836.38	52.05
836.556	-5.29
836.733	50
836.909	82.77
837.086	2.9
837.262	15.19
837.439	-13.48
837.616	88.92
837.792	11.09
837.968	31.57
838.145	29.52
838.321	88.92
838.498	11.09
838.674	97.11
838.851	-42.15
839.027	15.19
839.203	95.06
839.38	11.09
839.556	-29.87
839.732	70.48
839.909	13.14
840.085	101.2
840.261	41.81
840.437	35.67
840.614	-5.29
840.79	37.72
840.966	76.63
841.142	2.9
841.318	31.57
841.494	50
841.671	58.2
841.847	60.24
842.023	-13.48
842.199	19.29
842.375	60.24
842.551	-48.3
842.727	23.38
842.903	54.1
843.079	15.19
843.255	111.44
843.431	31.57
843.607	105.3
843.783	-17.58
843.959	47.96
844.134	21.33
844.31	23.38
844.486	31.57
844.662	64.34
844.838	37.72
845.013	29.52
845.189	33.62
845.365	7
845.541	35.67
845.716	19.29
845.892	125.78
846.068	15.19
846.244	13.14
846.419	60.24
846.595	-109.74
846.77	52.05
846.946	4.95
847.122	11.09
847.297	-29.87
847.473	76.63
847.648	-44.2
847.824	31.57
847.999	17.24
848.175	4.95
848.35	-21.67
848.526	60.24
848.701	7
848.876	7
849.052	7
849.227	-15.53
849.403	0.85
849.578	29.52
849.753	-9.39
849.929	17.24
850.104	-58.54
850.279	7
850.454	50
850.63	11.09
850.805	-5.29
850.98	107.35
851.155	-1.19
851.33	-36.01
851.505	11.09
851.681	47.96
851.856	7
852.031	82.77
852.206	21.33
852.381	-11.43
852.556	-13.48
852.731	23.38
852.906	47.96
853.081	-5.29
853.256	-9.39
853.431	80.72
853.606	-7.34
853.781	72.53
853.956	-54.44
854.131	-50.35
854.305	-36.01
854.48	-23.72
854.655	4.95
854.83	-13.48
855.005	-50.35
855.18	72.53
855.354	47.96
855.529	29.52
855.704	54.1
855.879	54.1
856.053	72.53
856.228	-46.25
856.403	-13.48
856.577	-17.58
856.752	-1.19
856.926	-3.24
857.101	19.29
857.276	11.09
857.45	15.19
857.625	13.14
857.799	31.57
857.974	64.34
858.148	-1.19
858.323	0.85
858.497	15.19
858.672	17.24
858.846	-93.35
859.02	37.72
859.195	11.09
859.369	54.1
859.543	-3.24
859.718	25.43
859.892	-31.91
860.066	-27.82
860.241	-68.78
860.415	76.63
860.589	60.24
860.763	-54.44
860.938	19.29
861.112	25.43
861.286	95.06
861.46	-38.06
861.634	29.52
861.808	-25.77
861.982	-5.29
862.157	-3.24
862.331	27.48
862.505	-54.44
862.679	-62.63
862.853	-19.63
863.027	-38.06
863.201	43.86
863.375	47.96
863.549	101.2
863.722	-11.43
863.896	84.82
864.07	-60.59
864.244	4.95
864.418	-91.31
864.592	-33.96
864.766	33.62
864.939	-27.82
865.113	9.05
865.287	-11.43
865.461	7
865.634	-17.58
865.808	27.48
865.982	-7.34
866.156	-58.54
866.329	43.86
866.503	-29.87
866.676	19.29
866.85	-46.25
867.024	19.29
867.197	13.14
867.371	60.24
867.544	-17.58
867.718	0.85
867.891	-1.19
868.065	2.9
868.238	-36.01
868.412	-5.29
868.585	43.86
868.759	-3.24
868.932	-13.48
869.105	19.29
869.279	39.76
869.452	-15.53
869.625	37.72
869.799	72.53
869.972	-91.31
870.145	13.14
870.319	-46.25
870.492	-21.67
870.665	-68.78
870.838	-25.77
871.011	-83.11
871.185	-72.87
871.358	2.9
871.531	7
871.704	21.33
871.877	43.86
872.05	-3.24
872.223	-42.15
872.396	-50.35
872.569	-15.53
872.742	-76.97
872.915	-5.29
873.088	11.09
873.261	-38.06
873.434	-7.34
873.607	37.72
873.78	7
873.953	-29.87
874.126	-46.25
874.299	-74.92
874.471	-42.15
874.644	2.9
874.817	7
874.99	-3.24
875.163	-1.19
875.335	-62.63
875.508	-60.59
875.681	-13.48
875.853	-46.25
876.026	43.86
876.199	-29.87
876.371	13.14
876.544	-25.77
876.717	23.38
876.889	11.09
877.062	-38.06
877.234	-44.2
877.407	-23.72
877.579	23.38
877.752	-25.77
877.924	21.33
878.097	29.52
878.269	-44.2
878.442	-46.25
878.614	-13.48
878.786	21.33
878.959	-99.5
879.131	23.38
879.303	-31.91
879.476	27.48
879.648	-9.39
879.82	-9.39
879.993	-99.5
880.165	-79.02
880.337	-19.63
880.509	-44.2
880.681	-9.39
880.854	21.33
881.026	-19.63
881.198	117.59
881.37	19.29
881.542	-29.87
881.714	-29.87
881.886	-27.82
882.058	29.52
882.23	11.09
882.402	11.09
882.574	13.14
882.746	13.14
882.918	84.82
883.09	47.96
883.262	-3.24
883.434	-29.87
883.606	2.9
883.778	21.33
883.95	11.09
884.122	-58.54
884.293	29.52
884.465	-36.01
884.637	-1.19
884.809	-29.87
884.98	35.67
885.152	-85.16
885.324	-17.58
885.496	-58.54
885.667	-1.19
885.839	-9.39
886.011	68.44
886.182	2.9
886.354	23.38
886.525	41.81
886.697	78.68
886.869	-25.77
887.04	7
887.212	-17.58
887.383	54.1
887.555	-38.06
887.726	-17.58
887.897	-33.96
888.069	15.19
888.24	-11.43
888.412	62.29
888.583	-33.96
888.754	-36.01
888.926	-38.06
889.097	2.9
889.268	-38.06
889.44	113.49
889.611	7
889.782	2.9
889.953	7
890.125	86.87
890.296	-15.53
890.467	52.05
890.638	7
890.809	2.9
890.98	-58.54
891.151	-19.63
891.323	13.14
891.494	23.38
891.665	-1.19
891.836	-29.87
892.007	2.9
892.178	-21.67
892.349	19.29
892.52	4.95
892.691	21.33
892.862	-1.19
893.032	-3.24
893.203	70.48
893.374	-54.44
893.545	-5.29
893.716	-38.06
893.887	21.33
894.057	19.29
894.228	-38.06
894.399	15.19
894.57	27.48
894.74	-13.48
894.911	43.86
895.082	27.48
895.253	-3.24
895.423	-44.2
895.594	23.38
895.764	64.34
895.935	-29.87
896.106	-5.29
896.276	-54.44
896.447	-21.67
896.617	-29.87
896.788	-23.72
896.958	-33.96
897.129	-19.63
897.299	-15.53
897.47	15.19
897.64	99.16
897.81	-52.39
897.981	-42.15
898.151	-42.15
898.322	2.9
898.492	23.38
898.662	-25.77
898.832	-46.25
899.003	62.29
899.173	11.09
899.343	19.29
899.513	2.9
