Data from USB4F104151__108__14-18-13-755.txt Node

Date: Thu Mar 13 14:18:13 EDT 2025
User: louis
Spectrometer: USB4F10415
Trigger mode: 4
Integration Time (sec): 2.000000E-2
Scans to average: 1
Electric dark correction enabled: true
Nonlinearity correction enabled: false
Boxcar width: 0
XAxis mode: Wavelengths
Number of Pixels in Spectrum: 3648
>>>>>Begin Spectral Data<<<<<
178.204	-64.34
178.424	-64.34
178.644	-64.34
178.864	-99.16
179.084	-95.06
179.304	-58.2
179.524	27.82
179.744	31.91
179.964	-41.81
180.184	-9.05
180.404	-15.19
180.624	36.01
180.844	29.87
181.064	9.39
181.283	-4.95
181.503	-41.81
181.723	36.01
181.943	-113.49
182.163	-31.57
182.383	50.35
182.602	44.2
182.822	48.3
183.042	17.58
183.262	31.91
183.482	70.83
183.701	15.53
183.921	56.49
184.141	33.96
184.361	7.34
184.58	15.53
184.8	1.19
185.02	-13.14
185.239	107.69
185.459	7.34
185.679	-13.14
185.898	3.24
186.118	119.98
186.338	72.87
186.557	48.3
186.777	-29.52
186.997	50.35
187.216	36.01
187.436	48.3
187.655	27.82
187.875	-9.05
188.095	25.77
188.314	40.11
188.534	31.91
188.753	-41.81
188.973	64.68
189.192	21.67
189.412	-29.52
189.631	44.2
189.851	38.06
190.07	36.01
190.29	-64.34
190.509	15.53
190.729	48.3
190.948	3.24
191.168	83.11
191.387	68.78
191.607	-7
191.826	60.59
192.045	-43.86
192.265	3.24
192.484	64.68
192.704	83.11
192.923	-62.29
193.142	85.16
193.362	-4.95
193.581	-37.72
193.8	25.77
194.02	31.91
194.239	58.54
194.458	-7
194.678	-33.62
194.897	60.59
195.116	-9.05
195.335	50.35
195.555	79.02
195.774	56.49
195.993	-15.19
196.212	-15.19
196.432	56.49
196.651	7.34
196.87	40.11
197.089	107.69
197.308	58.54
197.528	70.83
197.747	-39.76
197.966	138.41
198.185	-0.85
198.404	15.53
198.623	-4.95
198.842	44.2
199.062	156.84
199.281	29.87
199.5	3.24
199.719	40.11
199.938	44.2
200.157	40.11
200.376	31.91
200.595	154.79
200.814	7.34
201.033	56.49
201.252	36.01
201.471	66.73
201.69	33.96
201.909	17.58
202.128	-25.43
202.347	64.68
202.566	60.59
202.785	58.54
203.004	64.68
203.223	56.49
203.442	17.58
203.661	7.34
203.879	72.87
204.098	89.26
204.317	-11.09
204.536	105.64
204.755	9.39
204.974	7.34
205.193	42.15
205.411	81.07
205.63	81.07
205.849	25.77
206.068	97.45
206.287	27.82
206.505	107.69
206.724	-58.2
206.943	89.26
207.162	-21.33
207.381	138.41
207.599	23.72
207.818	11.43
208.037	85.16
208.255	-50
208.474	25.77
208.693	46.25
208.911	-4.95
209.13	7.34
209.349	-15.19
209.567	64.68
209.786	13.48
210.005	58.54
210.223	58.54
210.442	56.49
210.661	27.82
210.879	113.83
211.098	33.96
211.316	74.92
211.535	89.26
211.753	42.15
211.972	-31.57
212.191	-25.43
212.409	15.53
212.628	46.25
212.846	7.34
213.065	5.29
213.283	11.43
213.502	33.96
213.72	40.11
213.938	-50
214.157	-21.33
214.375	-9.05
214.594	89.26
214.812	79.02
215.031	64.68
215.249	-0.85
215.467	-9.05
215.686	122.02
215.904	115.88
216.122	5.29
216.341	89.26
216.559	40.11
216.778	29.87
216.996	46.25
217.214	64.68
217.432	40.11
217.651	95.4
217.869	-45.91
218.087	25.77
218.306	-56.15
218.524	60.59
218.742	-33.62
218.96	89.26
219.179	25.77
219.397	64.68
219.615	40.11
219.833	36.01
220.051	31.91
220.27	146.6
220.488	25.77
220.706	5.29
220.924	13.48
221.142	25.77
221.36	-7
221.578	-31.57
221.796	44.2
222.015	27.82
222.233	27.82
222.451	52.39
222.669	-62.29
222.887	54.44
223.105	11.43
223.323	-31.57
223.541	17.58
223.759	48.3
223.977	7.34
224.195	1.19
224.413	70.83
224.631	36.01
224.849	-9.05
225.067	56.49
225.285	70.83
225.503	7.34
225.721	9.39
225.939	-45.91
226.157	89.26
226.375	138.41
226.592	-9.05
226.81	-7
227.028	31.91
227.246	140.46
227.464	38.06
227.682	31.91
227.9	50.35
228.117	31.91
228.335	97.45
228.553	115.88
228.771	29.87
228.989	107.69
229.206	44.2
229.424	48.3
229.642	99.5
229.86	117.93
230.077	95.4
230.295	15.53
230.513	38.06
230.731	56.49
230.948	56.49
231.166	56.49
231.384	-9.05
231.601	23.72
231.819	21.67
232.037	52.39
232.254	-9.05
232.472	68.78
232.689	40.11
232.907	36.01
233.125	9.39
233.342	97.45
233.56	9.39
233.777	54.44
233.995	-7
234.213	79.02
234.43	-17.24
234.648	11.43
234.865	25.77
235.083	-33.62
235.3	23.72
235.518	40.11
235.735	17.58
235.953	64.68
236.17	40.11
236.388	11.43
236.605	36.01
236.822	23.72
237.04	19.63
237.257	25.77
237.475	-33.62
237.692	-0.85
237.909	19.63
238.127	-0.85
238.344	15.53
238.562	9.39
238.779	15.53
238.996	-23.38
239.214	17.58
239.431	60.59
239.648	46.25
239.865	27.82
240.083	93.35
240.3	27.82
240.517	56.49
240.735	31.91
240.952	83.11
241.169	48.3
241.386	109.74
241.603	25.77
241.821	-23.38
242.038	130.22
242.255	-0.85
242.472	40.11
242.689	70.83
242.907	40.11
243.124	56.49
243.341	74.92
243.558	9.39
243.775	-33.62
243.992	-17.24
244.209	64.68
244.426	40.11
244.643	56.49
244.86	-43.86
245.078	3.24
245.295	9.39
245.512	66.73
245.729	1.19
245.946	72.87
246.163	48.3
246.38	48.3
246.597	56.49
246.814	31.91
247.031	40.11
247.248	-0.85
247.464	68.78
247.681	-29.52
247.898	23.72
248.115	93.35
248.332	83.11
248.549	46.25
248.766	156.84
248.983	44.2
249.2	54.44
249.417	101.55
249.633	36.01
249.85	48.3
250.067	-9.05
250.284	50.35
250.501	50.35
250.717	85.16
250.934	21.67
251.151	113.83
251.368	-21.33
251.585	7.34
251.801	79.02
252.018	-56.15
252.235	52.39
252.451	132.26
252.668	42.15
252.885	13.48
253.102	101.55
253.318	3.24
253.535	38.06
253.752	68.78
253.968	33.96
254.185	15.53
254.401	-15.19
254.618	89.26
254.835	-23.38
255.051	44.2
255.268	93.35
255.484	122.02
255.701	23.72
255.917	50.35
256.134	-11.09
256.351	40.11
256.567	-23.38
256.784	56.49
257	-37.72
257.217	31.91
257.433	23.72
257.65	44.2
257.866	126.12
258.082	60.59
258.299	3.24
258.515	48.3
258.732	83.11
258.948	3.24
259.165	33.96
259.381	72.87
259.597	42.15
259.814	83.11
260.03	60.59
260.246	68.78
260.463	64.68
260.679	97.45
260.895	-17.24
261.112	91.31
261.328	-25.43
261.544	17.58
261.761	58.54
261.977	44.2
262.193	93.35
262.409	33.96
262.626	74.92
262.842	52.39
263.058	60.59
263.274	66.73
263.49	42.15
263.707	42.15
263.923	-27.48
264.139	15.53
264.355	93.35
264.571	64.68
264.787	27.82
265.004	74.92
265.22	1.19
265.436	38.06
265.652	17.58
265.868	50.35
266.084	-7
266.3	31.91
266.516	-2.9
266.732	-23.38
266.948	44.2
267.164	56.49
267.38	74.92
267.596	42.15
267.812	-0.85
268.028	9.39
268.244	50.35
268.46	31.91
268.676	62.63
268.892	9.39
269.108	56.49
269.324	-13.14
269.54	36.01
269.756	109.74
269.972	-0.85
270.188	105.64
270.403	21.67
270.619	76.97
270.835	66.73
271.051	64.68
271.267	31.91
271.483	15.53
271.698	105.64
271.914	60.59
272.13	50.35
272.346	27.82
272.562	25.77
272.777	152.74
272.993	42.15
273.209	48.3
273.425	52.39
273.64	-21.33
273.856	-17.24
274.072	1.19
274.287	72.87
274.503	113.83
274.719	15.53
274.934	48.3
275.15	25.77
275.366	48.3
275.581	74.92
275.797	46.25
276.012	85.16
276.228	27.82
276.444	31.91
276.659	76.97
276.875	56.49
277.09	60.59
277.306	19.63
277.521	60.59
277.737	9.39
277.952	52.39
278.168	89.26
278.383	50.35
278.599	89.26
278.814	97.45
279.03	42.15
279.245	79.02
279.461	66.73
279.676	40.11
279.892	-33.62
280.107	-4.95
280.322	-0.85
280.538	-0.85
280.753	19.63
280.969	89.26
281.184	91.31
281.399	93.35
281.615	-9.05
281.83	52.39
282.045	11.43
282.26	7.34
282.476	27.82
282.691	44.2
282.906	66.73
283.122	31.91
283.337	60.59
283.552	56.49
283.767	74.92
283.983	7.34
284.198	-43.86
284.413	64.68
284.628	27.82
284.843	101.55
285.058	19.63
285.274	27.82
285.489	50.35
285.704	56.49
285.919	48.3
286.134	42.15
286.349	44.2
286.564	31.91
286.779	93.35
286.995	27.82
287.21	31.91
287.425	50.35
287.64	31.91
287.855	154.79
288.07	-33.62
288.285	3.24
288.5	74.92
288.715	7.34
288.93	85.16
289.145	56.49
289.36	70.83
289.575	-11.09
289.79	-23.38
290.004	33.96
290.219	-39.76
290.434	60.59
290.649	52.39
290.864	91.31
291.079	15.53
291.294	56.49
291.509	72.87
291.724	46.25
291.938	66.73
292.153	76.97
292.368	64.68
292.583	44.2
292.798	91.31
293.012	23.72
293.227	111.78
293.442	-64.34
293.657	89.26
293.871	93.35
294.086	156.84
294.301	83.11
294.516	17.58
294.73	62.63
294.945	-27.48
295.16	23.72
295.374	44.2
295.589	23.72
295.804	48.3
296.018	23.72
296.233	99.5
296.447	89.26
296.662	19.63
296.877	23.72
297.091	97.45
297.306	56.49
297.52	46.25
297.735	31.91
297.949	105.64
298.164	44.2
298.378	-13.14
298.593	-41.81
298.807	72.87
299.022	48.3
299.236	76.97
299.451	87.21
299.665	74.92
299.88	29.87
300.094	21.67
300.309	91.31
300.523	46.25
300.737	-19.29
300.952	7.34
301.166	44.2
301.381	81.07
301.595	66.73
301.809	27.82
302.024	23.72
302.238	-25.43
302.452	97.45
302.667	91.31
302.881	89.26
303.095	99.5
303.309	68.78
303.524	-0.85
303.738	21.67
303.952	7.34
304.166	72.87
304.381	11.43
304.595	13.48
304.809	83.11
305.023	66.73
305.237	152.74
305.452	44.2
305.666	23.72
305.88	70.83
306.094	70.83
306.308	83.11
306.522	109.74
306.736	85.16
306.95	72.87
307.164	-17.24
307.379	56.49
307.593	89.26
307.807	27.82
308.021	89.26
308.235	124.07
308.449	17.58
308.663	99.5
308.877	109.74
309.091	58.54
309.305	113.83
309.519	9.39
309.733	109.74
309.947	11.43
310.161	-0.85
310.374	23.72
310.588	25.77
310.802	9.39
311.016	17.58
311.23	50.35
311.444	58.54
311.658	25.77
311.872	76.97
312.085	44.2
312.299	97.45
312.513	54.44
312.727	81.07
312.941	-70.48
313.154	56.49
313.368	58.54
313.582	91.31
313.796	66.73
314.009	58.54
314.223	48.3
314.437	81.07
314.651	29.87
314.864	40.11
315.078	99.5
315.292	89.26
315.505	17.58
315.719	64.68
315.933	68.78
316.146	62.63
316.36	27.82
316.573	89.26
316.787	-0.85
317.001	66.73
317.214	31.91
317.428	3.24
317.641	23.72
317.855	-33.62
318.068	-37.72
318.282	44.2
318.495	97.45
318.709	48.3
318.922	72.87
319.136	68.78
319.349	-9.05
319.563	97.45
319.776	17.58
319.99	-7
320.203	38.06
320.417	48.3
320.63	52.39
320.843	128.17
321.057	60.59
321.27	50.35
321.483	25.77
321.697	140.46
321.91	48.3
322.124	79.02
322.337	-0.85
322.55	25.77
322.763	7.34
322.977	126.12
323.19	50.35
323.403	91.31
323.617	50.35
323.83	113.83
324.043	60.59
324.256	56.49
324.469	76.97
324.683	81.07
324.896	27.82
325.109	93.35
325.322	91.31
325.535	91.31
325.748	74.92
325.962	48.3
326.175	91.31
326.388	79.02
326.601	3.24
326.814	64.68
327.027	-9.05
327.24	95.4
327.453	-27.48
327.666	72.87
327.879	68.78
328.092	25.77
328.305	33.96
328.518	115.88
328.731	19.63
328.944	89.26
329.157	142.5
329.37	48.3
329.583	85.16
329.796	66.73
330.009	-9.05
330.222	15.53
330.435	89.26
330.648	81.07
330.861	81.07
331.073	-0.85
331.286	132.26
331.499	50.35
331.712	40.11
331.925	-0.85
332.138	-4.95
332.35	64.68
332.563	44.2
332.776	87.21
332.989	-2.9
333.202	56.49
333.414	72.87
333.627	126.12
333.84	36.01
334.053	48.3
334.265	-21.33
334.478	11.43
334.691	25.77
334.903	81.07
335.116	68.78
335.329	72.87
335.541	31.91
335.754	72.87
335.966	42.15
336.179	33.96
336.392	42.15
336.604	83.11
336.817	83.11
337.029	60.59
337.242	103.59
337.454	58.54
337.667	-27.48
337.88	-2.9
338.092	-25.43
338.305	25.77
338.517	79.02
338.729	113.83
338.942	72.87
339.154	25.77
339.367	1.19
339.579	-9.05
339.792	-9.05
340.004	97.45
340.217	72.87
340.429	89.26
340.641	7.34
340.854	64.68
341.066	46.25
341.278	109.74
341.491	81.07
341.703	56.49
341.915	72.87
342.128	15.53
342.34	50.35
342.552	52.39
342.764	199.85
342.977	58.54
343.189	31.91
343.401	48.3
343.613	-50
343.826	33.96
344.038	-19.29
344.25	148.65
344.462	7.34
344.674	74.92
344.886	89.26
345.099	117.93
345.311	109.74
345.523	17.58
345.735	-29.52
345.947	36.01
346.159	48.3
346.371	44.2
346.583	-39.76
346.795	140.46
347.007	-25.43
347.219	15.53
347.431	23.72
347.643	11.43
347.855	23.72
348.067	27.82
348.279	-17.24
348.491	56.49
348.703	40.11
348.915	-27.48
349.127	31.91
349.339	83.11
349.551	-62.29
349.763	85.16
349.975	60.59
350.187	105.64
350.399	-7
350.61	48.3
350.822	68.78
351.034	89.26
351.246	25.77
351.458	83.11
351.669	38.06
351.881	72.87
352.093	60.59
352.305	122.02
352.517	93.35
352.728	64.68
352.94	29.87
353.152	31.91
353.363	36.01
353.575	9.39
353.787	177.32
353.999	107.69
354.21	99.5
354.422	13.48
354.633	11.43
354.845	23.72
355.057	66.73
355.268	-7
355.48	76.97
355.692	15.53
355.903	21.67
356.115	38.06
356.326	23.72
356.538	64.68
356.749	56.49
356.961	40.11
357.172	38.06
357.384	58.54
357.595	89.26
357.807	72.87
358.018	83.11
358.23	89.26
358.441	113.83
358.653	64.68
358.864	76.97
359.075	44.2
359.287	95.4
359.498	-4.95
359.709	-31.57
359.921	83.11
360.132	83.11
360.344	97.45
360.555	105.64
360.766	124.07
360.977	-7
361.189	-0.85
361.4	48.3
361.611	38.06
361.823	60.59
362.034	60.59
362.245	29.87
362.456	68.78
362.667	1.19
362.879	-33.62
363.09	40.11
363.301	76.97
363.512	62.63
363.723	56.49
363.935	66.73
364.146	62.63
364.357	58.54
364.568	99.5
364.779	31.91
364.99	115.88
365.201	-35.67
365.412	115.88
365.623	48.3
365.834	56.49
366.045	64.68
366.256	95.4
366.467	56.49
366.678	85.16
366.889	101.55
367.1	48.3
367.311	31.91
367.522	48.3
367.733	113.83
367.944	107.69
368.155	1.19
368.366	19.63
368.577	68.78
368.788	60.59
368.999	66.73
369.209	74.92
369.42	89.26
369.631	126.12
369.842	79.02
370.053	40.11
370.264	15.53
370.474	42.15
370.685	17.58
370.896	60.59
371.107	64.68
371.317	64.68
371.528	27.82
371.739	58.54
371.95	62.63
372.16	48.3
372.371	48.3
372.582	25.77
372.792	146.6
373.003	99.5
373.214	60.59
373.424	44.2
373.635	42.15
373.846	128.17
374.056	60.59
374.267	46.25
374.477	81.07
374.688	95.4
374.898	9.39
375.109	52.39
375.319	38.06
375.53	115.88
375.74	66.73
375.951	81.07
376.161	7.34
376.372	99.5
376.582	64.68
376.793	124.07
377.003	68.78
377.214	46.25
377.424	42.15
377.635	64.68
377.845	64.68
378.055	52.39
378.266	64.68
378.476	33.96
378.686	50.35
378.897	66.73
379.107	60.59
379.317	109.74
379.528	113.83
379.738	83.11
379.948	58.54
380.158	142.5
380.369	91.31
380.579	99.5
380.789	44.2
380.999	138.41
381.21	40.11
381.42	95.4
381.63	85.16
381.84	-7
382.05	126.12
382.261	74.92
382.471	72.87
382.681	99.5
382.891	93.35
383.101	-4.95
383.311	-4.95
383.521	64.68
383.731	56.49
383.941	91.31
384.151	93.35
384.361	122.02
384.571	70.83
384.781	31.91
384.991	89.26
385.201	44.2
385.411	111.78
385.621	72.87
385.831	74.92
386.041	81.07
386.251	64.68
386.461	79.02
386.671	81.07
386.881	134.31
387.091	66.73
387.301	89.26
387.511	-4.95
387.72	87.21
387.93	119.98
388.14	122.02
388.35	-7
388.56	101.55
388.769	105.64
388.979	-33.62
389.189	105.64
389.399	130.22
389.609	29.87
389.818	107.69
390.028	70.83
390.238	21.67
390.447	52.39
390.657	132.26
390.867	83.11
391.076	52.39
391.286	117.93
391.496	79.02
391.705	146.6
391.915	40.11
392.125	138.41
392.334	38.06
392.544	122.02
392.753	109.74
392.963	138.41
393.172	81.07
393.382	126.12
393.591	158.89
393.801	83.11
394.01	101.55
394.22	74.92
394.429	91.31
394.639	68.78
394.848	140.46
395.058	103.59
395.267	130.22
395.477	54.44
395.686	173.22
395.895	122.02
396.105	138.41
396.314	56.49
396.524	76.97
396.733	130.22
396.942	109.74
397.152	93.35
397.361	101.55
397.57	81.07
397.78	124.07
397.989	111.78
398.198	210.09
398.407	58.54
398.617	130.22
398.826	111.78
399.035	111.78
399.244	128.17
399.453	146.6
399.663	115.88
399.872	171.18
400.081	146.6
400.29	203.94
400.499	113.83
400.708	183.46
400.917	187.56
401.127	138.41
401.336	146.6
401.545	144.55
401.754	175.27
401.963	212.14
402.172	122.02
402.381	122.02
402.59	222.38
402.799	167.08
403.008	228.52
403.217	138.41
403.426	136.36
403.635	197.8
403.844	244.9
404.053	187.56
404.262	234.66
404.471	181.42
404.68	203.94
404.888	263.33
405.097	140.46
405.306	224.42
405.515	199.85
405.724	140.46
405.933	201.9
406.142	287.91
406.35	345.25
406.559	236.71
406.768	240.81
406.977	316.58
407.185	300.2
407.394	294.05
407.603	251.05
407.812	314.53
408.02	378.02
408.229	343.21
408.438	380.07
408.646	312.49
408.855	367.78
409.064	273.57
409.272	355.49
409.481	410.79
409.69	343.21
409.898	375.97
410.107	425.12
410.315	482.47
410.524	427.17
410.733	410.79
410.941	482.47
411.15	527.52
411.358	597.15
411.567	607.39
411.775	504.99
411.984	584.87
412.192	654.5
412.401	642.21
412.609	734.37
412.818	771.23
413.026	711.84
413.234	679.07
413.443	742.56
413.651	822.43
413.86	806.05
414.068	859.29
414.276	910.49
414.485	797.85
414.693	1019.04
414.901	1029.27
415.11	965.79
415.318	1016.99
415.526	1086.62
415.734	1109.15
415.943	1156.25
416.151	1105.05
416.359	1103
416.567	1133.72
416.776	1279.13
416.984	1303.7
417.192	1326.23
417.4	1367.19
417.608	1492.12
417.817	1588.37
418.025	1490.07
418.233	1719.44
418.441	1576.08
418.649	1776.78
418.857	1856.65
419.065	1846.41
419.273	1944.72
419.481	1973.39
419.689	2108.55
419.897	2137.23
420.105	2204.81
420.313	2284.68
420.521	2264.2
420.729	2350.21
420.937	2452.61
421.145	2514.05
421.353	2612.35
421.561	2788.48
421.769	2788.48
421.977	2827.39
422.185	2796.67
422.393	3105.92
422.601	3251.32
422.809	3140.73
423.017	3337.34
423.224	3417.21
423.432	3529.84
423.64	3480.69
423.848	3882.1
424.056	3710.07
424.263	4127.85
424.471	4162.67
424.679	4029.55
424.887	4359.27
425.094	4433
425.302	4414.57
425.51	4525.16
425.718	4725.86
425.925	4938.85
426.133	5102.68
426.341	5256.28
426.548	5528.66
426.756	5583.96
426.964	5373.02
427.171	5973.07
427.379	6085.71
427.586	6194.25
427.794	6265.93
428.001	6583.37
428.209	6954.05
428.417	6810.69
428.624	7406.65
428.832	7482.42
429.039	7267.39
429.247	7380.03
429.454	7734.32
429.662	8596.52
429.869	8031.28
430.076	8487.98
430.284	8389.67
430.491	8715.3
430.699	9002.02
430.906	9004.07
431.114	9266.21
431.321	9829.4
431.528	9845.78
431.736	10370.06
431.943	11060.23
432.15	10597.38
432.358	10468.36
432.565	11123.71
432.772	11398.14
432.979	11922.42
433.187	11918.32
433.394	11834.36
433.601	12862.44
433.808	12655.59
434.016	12884.97
434.223	13433.82
434.43	13990.87
434.637	13990.87
434.844	14898.12
435.052	14941.13
435.259	14728.14
435.466	15174.6
435.673	14900.17
435.88	15965.11
436.087	16688.04
436.294	16671.66
436.501	16167.86
436.708	16585.65
436.915	17118.12
437.122	18031.51
437.329	17808.28
437.537	18193.3
437.743	18697.1
437.95	18508.69
438.157	19391.36
438.364	20157.3
438.571	20159.35
438.778	20296.56
438.985	21912.41
439.192	21054.31
439.399	21891.93
439.606	21379.94
439.813	22422.36
440.02	24251.19
440.227	23694.15
440.433	23305.03
440.64	24324.92
440.847	24050.49
441.054	24474.42
441.261	25803.55
441.467	25762.59
441.674	26032.93
441.881	27351.82
442.088	27071.25
442.294	26972.94
442.501	27579.14
442.708	28433.14
442.914	28816.11
443.121	30268.12
443.328	29297.39
443.534	31267.53
443.741	30485.21
443.948	30241.5
444.154	32623.29
444.361	32324.29
444.568	32719.54
444.774	32647.86
444.981	32811.7
445.187	33802.92
445.394	35213.97
445.6	34650.78
445.807	37890.66
446.013	36524.67
446.22	36819.58
446.426	38709.85
446.633	39117.4
446.839	39860.81
447.046	38343.27
447.252	40587.84
447.459	40512.06
447.665	40147.53
447.871	42203.69
448.078	43657.74
448.284	41751.09
448.491	42766.88
448.697	44386.82
448.903	45365.75
449.11	45402.61
449.316	44823.04
449.522	45492.72
449.728	46731.75
449.935	46805.47
450.141	46776.8
450.347	48110.03
450.553	46594.53
450.76	47675.86
450.966	48617.92
451.172	48034.25
451.378	49131.96
451.584	48423.37
451.791	49521.08
451.997	49158.59
452.203	50352.55
452.409	50153.9
452.615	49703.35
452.821	47884.75
453.027	47409.62
453.233	50071.98
453.44	48095.69
453.646	48433.61
453.852	49066.43
454.058	49750.45
454.264	48220.62
454.47	49371.58
454.676	47843.79
454.882	49564.09
455.088	45691.38
455.294	46086.64
455.5	47253.98
455.705	47043.04
455.911	45171.19
456.117	44575.23
456.323	44104.2
456.529	41681.45
456.735	43608.59
456.941	42324.52
457.147	41914.92
457.352	40636.99
457.558	39991.88
457.764	40176.2
457.97	39830.09
458.176	38834.78
458.381	38691.42
458.587	37059.19
458.793	36911.74
458.999	34736.79
459.204	37554.8
459.41	36633.21
459.616	34011.81
459.821	34067.11
460.027	33895.08
460.233	33247.92
460.438	31820.49
460.644	32336.57
460.85	30694.1
461.055	29872.87
461.261	30477.02
461.466	27974.4
461.672	26964.75
461.878	28754.68
462.083	27095.82
462.289	26718.99
462.494	26395.42
462.7	25209.64
462.905	24611.64
463.111	25490.21
463.316	25391.91
463.522	24822.58
463.727	24924.97
463.932	25051.95
464.138	24820.53
464.343	24877.87
464.549	24040.25
464.754	24562.48
464.959	24660.79
465.165	24527.67
465.37	23178.06
465.575	22801.23
465.781	23685.95
465.986	23563.08
466.191	22889.29
466.397	22551.38
466.602	21517.15
466.807	22129.5
467.012	22500.18
467.218	22149.98
467.423	21750.62
467.628	21918.56
467.833	22760.27
468.038	21943.13
468.244	21259.11
468.449	22002.52
468.654	21388.13
468.859	21281.64
469.064	21119.85
469.269	20511.6
469.474	20597.62
469.679	21160.81
469.885	20599.66
470.09	20796.27
470.295	20527.99
470.5	20220.79
470.705	20323.19
470.91	19766.14
471.115	19766.14
471.32	19942.27
471.525	19747.71
471.73	19157.89
471.935	19170.18
472.139	18578.32
472.344	18807.69
472.549	18744.2
472.754	18373.52
472.959	18418.58
473.164	17494.94
473.369	17537.95
473.574	18193.3
473.778	17986.46
473.983	17546.14
474.188	17580.96
474.393	17038.25
474.598	17355.68
474.802	16796.59
475.007	16538.54
475.212	16731.05
475.417	16155.57
475.621	16219.06
475.826	16217.01
476.031	15821.75
476.235	15664.06
476.44	16079.8
476.645	15553.47
476.849	15514.56
477.054	15043.53
477.259	15240.13
477.463	15414.21
477.668	14801.86
477.872	14715.85
478.077	14640.08
478.282	14130.13
478.486	14181.33
478.691	14144.47
478.895	14144.47
479.1	14046.16
479.304	13921.24
479.509	13525.98
479.713	13870.04
479.918	13331.42
480.122	13241.31
480.326	13503.45
480.531	13564.89
480.735	13286.37
480.94	13130.72
481.144	13499.36
481.348	12940.26
481.553	13011.94
481.757	12932.07
481.961	13009.89
482.166	13310.94
482.37	12930.02
482.574	12778.47
482.778	12981.22
482.983	13159.39
483.187	12952.55
483.391	13026.28
483.595	12737.51
483.8	12678.12
484.004	13181.92
484.208	12987.36
484.412	12770.28
484.616	12995.56
484.821	12747.75
485.025	12639.21
485.229	12977.12
485.433	12841.96
485.637	12876.77
485.841	12704.74
486.045	12731.37
486.249	12729.32
486.453	12741.61
486.657	12882.92
486.861	12934.12
487.065	12639.21
487.269	12891.11
487.473	12901.35
487.677	12794.86
487.881	12979.17
488.085	12909.54
488.289	13138.91
488.493	12805.1
488.697	13073.38
488.901	13030.37
489.105	13036.52
489.309	13091.81
489.512	13110.24
489.716	13120.48
489.92	13120.48
490.124	13071.33
490.328	13267.94
490.531	13089.76
490.735	13341.66
490.939	13306.85
491.143	13108.19
491.346	13306.85
491.55	13302.75
491.754	13419.49
491.958	13482.97
492.161	13487.07
492.365	13720.54
492.569	13474.78
492.772	13591.52
492.976	13812.7
493.18	13695.96
493.383	13949.91
493.587	14150.61
493.79	14269.39
493.994	13968.34
494.197	14031.83
494.401	14207.95
494.605	14007.25
494.808	14316.5
495.012	14396.37
495.215	14535.63
495.419	14662.6
495.622	14566.35
495.825	14789.58
496.029	14900.17
496.232	15158.21
496.436	15080.39
496.639	15377.34
496.843	15465.41
497.046	15608.76
497.249	15680.44
497.453	16049.08
497.656	15915.96
497.859	16219.06
498.063	16131
498.266	16550.83
498.469	16640.94
498.673	16692.14
498.876	16991.14
499.079	17159.08
499.282	17230.76
499.485	17595.29
499.689	17591.2
499.892	17730.46
500.095	17925.02
500.298	18236.31
500.501	18027.42
500.705	18727.82
500.908	18994.06
501.111	19254.15
501.314	19237.77
501.517	19288.96
501.72	19782.52
501.923	19460.99
502.126	20231.03
502.329	20491.12
502.532	20532.08
502.735	20527.99
502.938	20980.59
503.141	20775.79
503.344	21154.66
503.547	21322.6
503.75	21742.43
503.953	22158.17
504.156	22147.93
504.359	22358.87
504.562	22401.88
504.765	23094.09
504.968	22838.09
505.17	23472.96
505.373	23597.89
505.576	24019.77
505.779	24030.01
505.982	23952.19
506.185	24732.47
506.387	24795.95
506.59	24945.45
506.793	25609
506.996	25365.29
507.198	26090.27
507.401	25930.53
507.604	26094.36
507.807	27149.07
508.009	26563.35
508.212	26809.11
508.415	27347.72
508.617	27585.29
508.82	27775.75
509.022	27646.72
509.225	28353.27
509.428	28623.61
509.63	28779.25
509.833	28922.61
510.035	29432.55
510.238	29614.82
510.44	29846.24
510.643	30595.8
510.845	30497.5
511.048	30409.43
511.25	30640.86
511.453	31472.33
511.655	32205.5
511.858	31865.54
512.06	31980.23
512.262	32508.6
512.465	32350.91
512.667	33012.4
512.87	33319.6
513.072	33331.89
513.274	33839.78
513.477	34415.26
513.679	34345.63
513.881	34802.33
514.084	35080.85
514.286	35175.06
514.488	35457.68
514.69	36178.56
514.893	36512.38
515.095	36467.33
515.297	37016.18
515.499	36995.7
515.701	37481.07
515.904	38249.06
516.106	38005.35
516.308	38646.36
516.51	38941.27
516.712	39146.07
516.914	39352.91
517.116	39813.71
517.318	39930.44
517.52	40262.21
517.722	40462.91
517.925	40817.21
518.127	41140.79
518.329	41488.95
518.531	41642.54
518.733	42340.9
518.935	42277.41
519.136	42474.02
519.338	43020.83
519.54	43334.17
519.742	43242.01
519.944	43633.17
520.146	44591.62
520.348	44263.94
520.55	44470.79
520.752	44831.23
520.954	45449.72
521.155	45378.04
521.357	45994.48
521.559	46158.31
521.761	47079.9
521.963	47051.23
522.164	47141.34
522.366	47485.4
522.568	47532.5
522.77	47688.15
522.971	48366.02
523.173	48503.24
523.375	48505.29
523.576	48167.37
523.778	48583.11
523.98	49091.01
524.181	49576.37
524.383	49535.41
524.584	50233.77
524.786	50235.82
524.988	50028.98
525.189	50733.48
525.391	50702.76
525.592	51081.63
525.794	51413.4
525.995	51483.03
526.197	51458.46
526.398	51376.54
526.6	51960.21
526.801	52210.06
527.003	52085.14
527.204	52556.17
527.406	52734.34
527.607	52472.2
527.808	52969.86
528.01	52552.07
528.211	52644.23
528.412	53965.17
528.614	53791.09
528.815	53911.92
529.016	53909.88
529.218	53528.95
529.419	53883.25
529.62	54403.44
529.822	53897.59
530.023	53858.68
530.224	54215.02
530.425	54262.13
530.626	53887.35
530.828	53537.15
531.029	55095.65
531.23	54233.46
531.431	54376.81
531.632	54645.1
531.833	54761.83
532.035	54444.4
532.236	54694.25
532.437	55075.17
532.638	54514.03
532.839	55009.64
533.04	55011.68
533.241	54659.43
533.442	55161.18
533.643	54968.68
533.844	54804.84
534.045	55157.09
534.246	54716.78
534.447	55456.09
534.648	55023.97
534.849	55357.79
535.05	55013.73
535.251	54759.78
535.451	54518.12
535.652	55206.24
535.853	55265.63
536.054	55128.42
536.255	55284.06
536.456	54700.39
536.657	55920.98
536.857	54841.7
537.058	55112.03
537.259	55185.76
537.46	55271.78
537.66	54829.41
537.861	55284.06
538.062	55050.59
538.263	55247.2
538.463	55120.23
538.664	54944.1
538.865	55511.39
539.065	55783.77
539.266	55175.52
539.466	55380.32
539.667	54653.29
539.868	55372.13
540.068	54901.09
540.269	54983.01
540.469	55183.71
540.67	54802.79
540.87	54890.85
541.071	54970.72
541.271	55251.3
541.472	54673.77
541.672	54415.72
541.873	54866.28
542.073	54296.94
542.274	55517.53
542.474	55054.69
542.675	54460.78
542.875	55224.67
543.075	54806.89
543.276	54479.21
543.476	55355.74
543.676	54231.41
543.877	54788.45
544.077	54731.11
544.277	54206.83
544.478	54888.81
544.678	54634.86
544.878	54520.17
545.078	54708.58
545.279	54495.6
545.479	54499.69
545.679	54839.65
545.879	54835.56
546.079	54319.47
546.28	54370.67
546.48	54301.04
546.68	54178.16
546.88	54892.9
547.08	54679.91
547.28	54319.47
547.48	54110.58
547.68	54372.72
547.88	53946.74
548.081	54765.93
548.281	54765.93
548.481	54098.29
548.681	54563.18
548.881	53944.69
549.081	53885.3
549.28	54186.35
549.48	54778.21
549.68	54120.82
549.88	55079.27
550.08	54448.49
550.28	54159.73
550.48	54241.65
550.68	54833.51
550.88	54030.71
551.08	53963.12
551.279	54178.16
551.479	53655.93
551.679	54004.08
551.879	53981.55
552.079	54282.61
552.278	53813.62
552.478	54028.66
552.678	53531
552.878	54219.12
553.077	54137.2
553.277	53565.82
553.477	54485.36
553.676	53662.07
553.876	53713.27
554.076	53668.22
554.275	53324.16
554.475	53100.93
554.674	53741.94
554.874	53739.89
555.074	53574.01
555.273	53717.37
555.473	53813.62
555.672	52920.71
555.872	53305.73
556.071	53168.51
556.271	53862.77
556.47	52984.19
556.67	52572.55
556.869	52744.58
557.068	52846.98
557.268	52625.8
557.467	53096.83
557.667	52976
557.866	53070.21
558.065	52853.12
558.265	52668.81
558.464	52670.85
558.663	53678.46
558.863	52369.8
559.062	53215.61
559.261	52341.13
559.461	53424.51
559.66	52269.45
559.859	52885.89
560.058	51847.57
560.258	52619.66
560.457	52054.42
560.656	52605.32
560.855	51937.68
561.054	52251.02
561.253	51931.54
561.453	52171.15
561.652	52320.65
561.851	52517.26
562.05	51937.68
562.249	51435.93
562.448	52103.57
562.647	51612.06
562.846	51622.29
563.045	51741.08
563.244	51306.91
563.443	51702.17
563.642	50983.33
563.841	51669.4
564.04	51081.63
564.239	51329.44
564.438	51005.86
564.637	51147.17
564.836	51339.68
565.035	50735.52
565.234	50993.57
565.432	50598.31
565.631	50796.96
565.83	50862.5
566.029	50614.69
566.228	50590.12
566.427	50344.36
566.625	50049.45
566.824	49646.01
567.023	50391.47
567.222	49551.8
567.42	50239.92
567.619	49678.77
567.818	49979.82
568.016	49691.06
568.215	49844.66
568.414	49635.77
568.612	49902
568.811	49383.87
569.01	49547.7
569.208	48929.22
569.407	49424.82
569.605	48650.69
569.804	49344.95
570.002	48640.45
570.201	49050.05
570.4	48609.73
570.598	48677.32
570.797	48386.5
570.995	48275.91
571.193	47958.48
571.392	48697.8
571.59	47958.48
571.789	48142.8
571.987	48044.49
572.186	48032.21
572.384	47636.95
572.582	47671.76
572.781	47845.84
572.979	47221.21
573.177	47018.46
573.376	47501.78
573.574	46784.99
573.772	47727.06
573.971	47040.99
574.169	47104.48
574.367	46240.23
574.565	47258.07
574.763	46670.31
574.962	46399.97
575.16	46264.81
575.358	46686.69
575.556	46213.61
575.754	46752.23
575.952	46125.55
576.151	46508.52
576.349	45683.19
576.547	45861.36
576.745	45834.74
576.943	45982.19
577.141	45691.38
577.339	45447.67
577.537	45490.68
577.735	44796.42
577.933	44790.27
578.131	45365.75
578.329	45257.21
578.527	44640.77
578.725	44702.21
578.923	44687.87
579.121	44698.11
579.319	44696.06
579.516	44458.5
579.714	44388.87
579.912	44489.22
580.11	44126.73
580.308	44306.95
580.506	44257.8
580.704	43659.79
580.901	43729.42
581.099	44184.07
581.297	43440.66
581.495	43323.93
581.692	43399.7
581.89	42674.72
582.088	43414.04
582.285	43108.89
582.483	43244.05
582.681	42684.96
582.878	42476.07
583.076	42660.38
583.274	42834.46
583.471	42232.36
583.669	42650.14
583.866	42142.25
584.064	42476.07
584.262	41726.51
584.459	42265.13
584.657	42013.23
584.854	41777.71
585.052	41114.17
585.249	41931.31
585.447	41757.23
585.644	41280.05
585.841	41513.52
586.039	41644.59
586.236	40927.8
586.434	40741.44
586.631	40645.18
586.828	40817.21
587.026	40757.82
587.223	40854.08
587.42	40528.45
587.618	40366.66
587.815	40065.61
588.012	40086.09
588.21	40081.99
588.407	40536.64
588.604	39520.85
588.801	39453.26
588.999	39737.93
589.196	39613.01
589.393	39752.27
589.59	39324.24
589.787	39150.17
589.984	39070.29
590.182	39060.05
590.379	38826.59
590.576	39023.19
590.773	39219.8
590.97	38556.25
591.167	38871.64
591.364	37724.78
591.561	38455.9
591.758	37935.72
591.955	38265.44
592.152	38265.44
592.349	38103.65
592.546	38048.36
592.743	38156.9
592.94	37288.56
593.137	37980.78
593.334	37497.45
593.531	37081.72
593.727	37325.43
593.924	37395.06
594.121	37196.4
594.318	37216.88
594.515	36561.53
594.712	37198.45
594.908	36672.12
595.105	36938.36
595.302	36274.82
595.499	36674.17
595.696	36151.94
595.892	35936.9
596.089	36471.42
596.286	36393.6
596.482	35703.43
596.679	36137.6
596.876	36070.02
597.072	35580.56
597.269	35342.99
597.466	35084.95
597.662	35539.6
597.859	35289.74
598.055	35177.11
598.252	35074.71
598.448	34808.47
598.645	34818.71
598.841	34540.19
599.038	34671.26
599.234	34814.62
599.431	34286.24
599.627	34149.03
599.824	34566.81
600.02	33993.38
600.217	34138.79
600.413	33895.08
600.609	33657.51
600.806	33729.19
601.002	33774.25
601.198	33397.42
601.395	33430.19
601.591	33249.97
601.787	33669.8
601.984	33327.79
602.18	33061.55
602.376	32754.36
602.572	33133.23
602.769	33106.61
602.965	32682.68
603.161	32570.04
603.357	32365.24
603.553	32268.99
603.75	32434.88
603.946	32004.8
604.142	32045.76
604.338	31673.03
604.534	32031.43
604.73	31636.17
604.926	31720.13
605.122	32019.14
605.318	31654.6
605.514	31304.4
605.71	31161.04
605.906	31212.24
606.102	31425.23
606.298	31222.48
606.494	31054.54
606.69	30952.15
606.886	31021.78
607.082	30679.77
607.278	31212.24
607.474	30698.2
607.67	30665.43
607.866	30528.22
608.062	30757.59
608.257	30733.01
608.453	30315.23
608.649	30665.43
608.845	30116.58
609.041	30489.31
609.236	30008.03
609.432	30214.88
609.628	29952.74
609.824	29969.12
610.019	30108.38
610.215	29756.13
610.411	29852.39
610.606	29549.29
610.802	29666.02
610.998	29860.58
611.193	30081.76
611.389	29600.49
611.584	29434.6
611.78	29180.65
611.976	29311.72
612.171	29330.16
612.367	29197.04
612.562	28834.55
612.758	28613.37
612.953	28711.67
613.149	29059.82
613.344	28902.13
613.539	29115.12
613.735	28949.23
613.93	29137.65
614.126	28719.86
614.321	28996.34
614.517	28627.7
614.712	28623.61
614.907	28433.14
615.103	28556.02
615.298	28500.73
615.493	28660.47
615.688	28371.71
615.884	28984.05
616.079	28099.33
616.274	28134.14
616.47	27953.92
616.665	28121.85
616.86	27900.67
617.055	27804.42
617.25	27738.88
617.445	27865.86
617.641	27355.91
617.836	27867.91
618.031	27532.04
618.226	27388.68
618.421	27380.49
618.616	27683.59
618.811	26700.56
619.006	27587.33
619.201	26749.71
619.396	27044.62
619.591	26784.53
619.786	27036.43
619.981	26690.32
620.176	26770.19
620.371	26250.01
620.566	26551.06
620.761	25963.29
620.956	26508.05
621.151	25697.06
621.346	25951.01
621.541	25711.39
621.735	25893.66
621.93	25469.73
622.125	25699.11
622.32	25117.48
622.515	25183.02
622.709	24765.23
622.904	24888.11
623.099	24720.18
623.294	24793.9
623.488	24560.44
623.683	24296.25
623.878	24206.14
624.072	24478.52
624.267	24079.16
624.462	24111.93
624.656	23771.97
624.851	23788.35
625.046	23542.6
625.24	23325.51
625.435	23522.12
625.629	23255.88
625.824	22891.34
626.018	23112.52
626.213	22324.05
626.407	22690.64
626.602	22453.08
626.796	22606.67
626.991	22657.87
627.185	22254.42
627.38	22029.15
627.574	21973.85
627.768	21885.79
627.963	21642.08
628.157	21607.26
628.352	21703.52
628.546	21259.11
628.74	21556.07
628.935	21125.99
629.129	21281.64
629.323	20843.37
629.517	21062.51
629.712	20839.28
629.906	20872.04
630.1	20444.02
630.294	20611.95
630.489	20317.04
630.683	20589.42
630.877	20122.49
631.071	19929.98
631.265	20075.38
631.459	19813.24
631.653	19745.66
631.848	19682.17
632.042	19360.64
632.236	19426.18
632.43	19473.28
632.624	19547.01
632.818	19311.49
633.012	18860.94
633.206	18867.08
633.4	18981.77
633.594	18555.79
633.788	18684.81
633.982	18908.04
634.176	18602.89
634.369	18465.68
634.563	18271.12
634.757	18187.16
634.951	18295.7
635.145	18228.12
635.339	18072.47
635.533	17726.36
635.726	17951.64
635.92	17736.6
636.114	17783.71
636.308	17439.65
636.501	17687.45
636.695	17603.49
636.889	17097.64
637.083	17154.98
637.276	17042.34
637.47	17017.77
637.664	16892.84
637.857	17038.25
638.051	16651.18
638.244	16579.5
638.438	16704.43
638.632	16421.81
638.825	16489.39
639.019	16229.3
639.212	16241.59
639.406	15958.97
639.599	16063.41
639.793	16096.18
639.986	15670.2
640.18	15637.44
640.373	15770.55
640.567	15782.84
640.76	15598.52
640.954	15418.3
641.147	15276.99
641.34	15279.04
641.534	15291.33
641.727	15549.37
641.92	15147.97
642.114	15236.03
642.307	14986.18
642.5	14943.17
642.694	14824.39
642.887	14744.52
643.08	14810.06
643.273	14687.18
643.467	14441.42
643.66	13865.94
643.853	14523.34
644.046	14042.07
644.239	14138.32
644.432	14113.75
644.626	14068.69
644.819	13818.84
645.012	13941.72
645.205	13872.09
645.398	13867.99
645.591	13616.09
645.784	13786.07
645.977	13454.3
646.17	13358.05
646.363	13345.76
646.556	13140.96
646.749	13100
646.942	13423.58
647.135	13188.07
647.328	12985.32
647.521	12870.63
647.714	13013.99
647.907	12991.46
648.099	12729.32
648.292	12743.66
648.485	12579.82
648.678	12573.67
648.871	12655.59
649.064	12489.71
649.256	12329.97
649.449	12379.12
649.642	12295.15
649.835	11996.15
650.027	12438.51
650.22	12088.31
650.413	11973.62
650.605	11779.06
650.798	11961.33
650.991	12049.39
651.183	11820.02
651.376	11715.58
651.568	11752.44
651.761	11709.43
651.954	11553.79
652.146	11355.13
652.339	11518.97
652.531	11486.2
652.724	11248.64
652.916	11033.6
653.109	11172.86
653.301	11232.26
653.494	11209.73
653.686	10920.96
653.879	10955.78
654.071	10759.17
654.263	10841.09
654.456	10695.69
654.648	10718.22
654.84	10499.08
655.033	10714.12
655.225	10699.78
655.417	10339.34
655.61	10451.98
655.802	10654.73
655.994	10357.77
656.186	10255.37
656.379	10198.03
656.571	10183.7
656.763	10191.89
656.955	10001.43
657.148	10177.55
657.34	10069.01
657.532	9989.14
657.724	9997.33
657.916	9804.82
658.108	9987.09
658.3	9718.81
658.492	9663.51
658.684	9487.39
658.876	9665.56
659.068	9634.84
659.26	9444.38
659.452	9419.8
659.644	9413.66
659.836	9286.68
660.028	9393.18
660.22	9122.85
660.412	9237.53
660.604	9251.87
660.796	9169.95
660.988	9116.7
661.18	9122.85
661.372	8829.99
661.563	8956.96
661.755	8889.38
661.947	8682.53
662.139	8754.21
662.331	8891.43
662.522	8733.73
662.714	8688.68
662.906	8709.16
663.097	8535.08
663.289	8432.68
663.481	8436.78
663.673	8418.35
663.864	8191.02
664.056	8395.82
664.247	8354.86
664.439	8090.67
664.631	8332.33
664.822	8397.87
665.014	8438.83
665.205	7916.59
665.397	8055.86
665.588	8141.87
665.78	7900.21
665.971	7863.35
666.163	8256.56
666.354	7863.35
666.546	7855.15
666.737	7668.79
666.929	7760.95
667.12	7763
667.311	7801.91
667.503	7779.38
667.694	7640.12
667.885	7545.91
668.077	7617.59
668.268	7609.4
668.459	7461.94
668.651	7341.11
668.842	7599.16
669.033	7390.27
669.224	7463.99
669.416	7480.38
669.607	7273.53
669.798	7259.2
669.989	7185.47
670.18	7242.81
670.371	7113.79
670.563	7158.85
670.754	7158.85
670.945	7027.78
671.136	7019.58
671.327	7072.83
671.518	6958.14
671.709	7021.63
671.9	6964.29
672.091	7093.31
672.282	6882.37
672.473	6687.81
672.664	6984.77
672.855	6687.81
673.046	6745.16
673.237	6732.87
673.428	6657.09
673.619	6734.92
673.809	6472.78
674	6509.64
674.191	6562.89
674.382	6560.84
674.573	6634.57
674.764	6560.84
674.954	6718.53
675.145	6380.62
675.336	6384.71
675.527	6454.34
675.717	6470.73
675.908	6413.38
676.099	6460.49
676.289	6390.86
676.48	6210.64
676.671	6175.82
676.861	6274.12
677.052	6302.79
677.243	6216.78
677.433	6270.03
677.624	6274.12
677.814	6356.04
678.005	6245.45
678.195	6063.18
678.386	6085.71
678.576	6061.13
678.767	6054.99
678.957	6079.57
679.148	5971.02
679.338	6093.9
679.529	6032.46
679.719	5839.95
679.909	5971.02
680.1	5956.69
680.29	6011.98
680.481	5960.78
680.671	5782.61
680.861	5780.56
681.052	5899.34
681.242	5631.06
681.432	6011.98
681.622	5669.97
681.813	5610.58
682.003	5862.48
682.193	5758.03
682.383	5618.77
682.573	5637.2
682.764	5555.29
682.954	5719.12
683.144	5620.82
683.334	5649.49
683.524	5667.92
683.714	5678.16
683.904	5579.86
684.094	5641.3
684.284	5624.92
684.474	5553.24
684.664	5545.05
684.854	5506.13
685.044	5538.9
685.234	5330.01
685.424	5358.68
685.614	5358.68
685.804	5626.96
685.994	5342.3
686.184	5409.88
686.374	5430.36
686.564	5330.01
686.753	5274.71
686.943	5315.67
687.133	5307.48
687.323	5192.8
687.513	5327.96
687.702	5291.1
687.892	5196.89
688.082	5129.31
688.272	5155.93
688.461	5256.28
688.651	5024.86
688.841	5008.48
689.03	4947.04
689.22	5014.62
689.41	4996.19
689.599	4985.95
689.789	4930.66
689.979	4840.54
690.168	4881.5
690.358	5012.57
690.547	4897.89
690.737	4922.46
690.926	4818.02
691.116	4910.18
691.305	4893.79
691.495	4811.87
691.684	4654.18
691.874	4662.37
692.063	4772.96
692.252	4779.11
692.442	4738.15
692.631	4549.73
692.82	4643.94
693.01	4482.15
693.199	4586.6
693.388	4555.88
693.578	4490.34
693.767	4496.49
693.956	4476.01
694.146	4445.29
694.335	4418.66
694.524	4447.33
694.713	4500.58
694.902	4283.5
695.092	4441.19
695.281	4359.27
695.47	4430.95
695.659	4375.66
695.848	4303.98
696.037	4279.4
696.226	4338.79
696.415	4240.49
696.604	4156.52
696.793	4211.82
696.982	4291.69
697.171	4277.35
697.36	4240.49
697.549	4103.28
697.738	4217.96
697.927	4185.19
698.116	4209.77
698.305	4369.51
698.494	4373.61
698.683	4260.97
698.872	4177
699.061	4062.32
699.25	4177
699.438	4086.89
699.627	4004.97
699.816	4140.14
700.005	3982.45
700.193	3931.25
700.382	4220.01
700.571	4090.99
700.76	3992.69
700.948	3968.11
701.137	4031.6
701.326	3955.82
701.514	4013.17
701.703	4080.75
701.892	4058.22
702.08	3998.83
702.269	4015.21
702.457	3933.29
702.646	3976.3
702.834	3769.46
703.023	3794.03
703.212	3902.58
703.4	3972.21
703.589	3818.61
703.777	3863.66
703.965	3783.79
704.154	3857.52
704.342	3753.07
704.531	3884.14
704.719	3632.24
704.907	3884.14
705.096	3646.58
705.284	3808.37
705.472	3796.08
705.661	3759.22
705.849	3918.96
706.037	3679.35
706.226	3767.41
706.414	3648.63
706.602	3589.24
706.79	3662.96
706.979	3558.52
707.167	3660.91
707.355	3636.34
707.543	3691.63
707.731	3714.16
707.919	3648.63
708.107	3726.45
708.296	3695.73
708.484	3546.23
708.672	3601.52
708.86	3556.47
709.048	3652.72
709.236	3533.94
709.424	3589.24
709.612	3499.13
709.8	3662.96
709.988	3490.93
710.176	3406.97
710.364	3626.1
710.551	3480.69
710.739	3320.95
710.927	3495.03
711.115	3425.4
711.303	3501.17
711.491	3499.13
711.679	3382.39
711.866	3439.73
712.054	3642.48
712.242	3402.87
712.43	3445.88
712.617	3460.21
712.805	3284.09
712.993	3353.72
713.181	3509.37
713.368	3454.07
713.556	3402.87
713.744	3218.55
713.931	3337.34
714.119	3380.34
714.306	3343.48
714.494	3341.43
714.682	3378.3
714.869	3265.66
715.057	3335.29
715.244	3282.04
715.432	3396.73
715.619	3267.7
715.807	3460.21
715.994	3228.79
716.182	3275.9
716.369	3214.46
716.556	3284.09
716.744	3208.31
716.931	3345.53
717.119	3300.47
717.306	3316.86
717.493	3275.9
717.681	3275.9
717.868	3191.93
718.055	3265.66
718.242	3132.54
718.43	3183.74
718.617	3148.92
718.804	3277.94
718.991	3171.45
719.179	3341.43
719.366	3079.29
719.553	3187.83
719.74	3062.91
719.927	3077.24
720.114	3116.16
720.301	3085.44
720.488	3019.9
720.676	2956.41
720.863	3206.27
721.05	3124.35
721.237	3144.83
721.424	3234.94
721.611	3017.85
721.798	3099.77
721.985	3118.2
722.172	3042.43
722.358	3032.19
722.545	2980.99
722.732	3040.38
722.919	3032.19
723.106	3138.68
723.293	3120.25
723.48	3116.16
723.667	3079.29
723.853	3054.72
724.04	2966.65
724.227	3126.39
724.414	2940.03
724.6	2985.09
724.787	2956.41
724.974	3038.33
725.161	3073.15
725.347	2860.16
725.534	2966.65
725.72	2997.37
725.907	2997.37
726.094	2948.22
726.28	2944.13
726.467	2868.35
726.653	3009.66
726.84	2892.93
727.027	2972.8
727.213	2843.78
727.4	2882.69
727.586	2735.23
727.773	2915.45
727.959	2718.85
728.145	2950.27
728.332	2843.78
728.518	2948.22
728.705	2892.93
728.891	2825.34
729.077	2956.41
729.264	2884.73
729.45	2874.49
729.636	2884.73
729.823	2849.92
730.009	2849.92
730.195	2819.2
730.382	3062.91
730.568	2778.24
730.754	2708.61
730.94	2780.29
731.126	2923.65
731.313	2913.41
731.499	2862.21
731.685	2794.62
731.871	2653.31
732.057	2638.98
732.243	2737.28
732.429	2778.24
732.615	2903.17
732.801	2747.52
732.987	2845.82
733.173	2733.18
733.359	2735.23
733.545	2655.36
733.731	2720.9
733.917	2731.14
734.103	2759.81
734.289	2710.66
734.475	2612.35
734.661	2665.6
734.847	2653.31
735.033	2743.42
735.219	2714.75
735.404	2706.56
735.59	2712.71
735.776	2716.8
735.962	2718.85
736.148	2628.74
736.333	2587.78
736.519	2669.7
736.705	2657.41
736.89	2710.66
737.076	2673.79
737.262	2532.48
737.447	2555.01
737.633	2440.33
737.819	2659.46
738.004	2540.68
738.19	2561.16
738.375	2595.97
738.561	2714.75
738.747	2565.25
738.932	2499.72
739.118	2653.31
739.303	2473.09
739.489	2559.11
739.674	2493.57
739.859	2507.91
740.045	2434.18
740.23	2456.71
740.416	2393.22
740.601	2573.44
740.786	2530.44
740.972	2456.71
741.157	2382.98
741.342	2415.75
741.528	2479.24
741.713	2425.99
741.898	2475.14
742.084	2393.22
742.269	2432.13
742.454	2432.13
742.639	2374.79
742.824	2497.67
743.01	2350.21
743.195	2303.11
743.38	2337.93
743.565	2333.83
743.75	2348.17
743.935	2284.68
744.12	2215.05
744.305	2309.26
744.49	2174.09
744.675	2301.06
744.86	2278.54
745.045	2387.08
745.23	2276.49
745.415	2321.54
745.6	2366.6
745.785	2186.38
745.97	2231.43
746.155	2194.57
746.34	2188.43
746.525	2131.08
746.71	2155.66
746.895	2137.23
747.079	2008.2
747.264	2184.33
747.449	2020.49
747.634	2047.12
747.819	2149.51
748.003	2014.35
748.188	2008.2
748.373	2014.35
748.557	2071.69
748.742	1975.44
748.927	2014.35
749.111	1942.67
749.296	1993.87
749.481	1971.34
749.665	1924.24
749.85	1989.77
750.034	1932.43
750.219	1903.76
750.404	1797.26
750.588	1948.81
750.773	1879.18
750.957	1916.05
751.141	1782.93
751.326	1963.15
751.51	1811.6
751.695	1787.02
751.879	1801.36
752.064	1698.96
752.248	1791.12
752.432	1778.83
752.617	1770.64
752.801	1803.41
752.985	1748.11
753.17	1705.1
753.354	1709.2
753.538	1725.58
753.722	1641.62
753.907	1692.82
754.091	1533.08
754.275	1664.15
754.459	1678.48
754.643	1645.71
754.828	1641.62
755.012	1658
755.196	1518.74
755.38	1547.41
755.564	1598.61
755.748	1576.08
755.932	1561.75
756.116	1522.84
756.3	1516.69
756.484	1451.16
756.668	1498.26
756.852	1457.3
757.036	1377.43
757.22	1350.81
757.404	1465.49
757.588	1354.9
757.772	1397.91
757.956	1410.2
758.14	1436.82
758.323	1359
758.507	1436.82
758.691	1416.34
758.875	1387.67
759.059	1395.86
759.242	1322.13
759.426	1336.47
759.61	1293.46
759.794	1318.04
759.977	1377.43
760.161	1305.75
760.345	1260.7
760.528	1301.65
760.712	1309.85
760.895	1227.93
761.079	1248.41
761.263	1303.7
761.446	1174.68
761.63	1301.65
761.813	1186.97
761.997	1236.12
762.18	1254.55
762.364	1227.93
762.547	1213.59
762.731	1260.7
762.914	1240.22
763.098	1141.91
763.281	1164.44
763.464	1184.92
763.648	1080.47
763.831	1039.51
764.015	1086.62
764.198	1176.73
764.381	1055.9
764.564	1170.58
764.748	1158.3
764.931	1092.76
765.114	1105.05
765.297	998.56
765.481	1021.08
765.664	1105.05
765.847	1078.43
766.03	1088.67
766.213	1088.67
766.397	1121.43
766.58	990.36
766.763	1072.28
766.946	1088.67
767.129	998.56
767.312	998.56
767.495	1039.51
767.678	1033.37
767.861	1105.05
768.044	1035.42
768.227	1002.65
768.41	1021.08
768.593	1059.99
768.776	941.21
768.959	1084.57
769.142	1023.13
769.324	871.58
769.507	1016.99
769.69	1064.09
769.873	933.02
770.056	994.46
770.239	906.4
770.421	1035.42
770.604	904.35
770.787	980.12
770.97	961.69
771.152	877.73
771.335	879.77
771.518	969.88
771.7	933.02
771.883	916.64
772.066	1047.71
772.248	916.64
772.431	914.59
772.613	900.25
772.796	881.82
772.978	890.01
773.161	928.92
773.343	867.49
773.526	900.25
773.708	908.44
773.891	834.72
774.073	879.77
774.256	920.73
774.438	982.17
774.621	814.24
774.803	869.53
774.985	760.99
775.168	887.97
775.35	763.04
775.532	769.18
775.715	783.52
775.897	787.61
776.079	830.62
776.261	781.47
776.444	793.76
776.626	744.61
776.808	756.9
776.99	822.43
777.173	750.75
777.355	806.05
777.537	662.69
777.719	646.3
777.901	654.5
778.083	724.13
778.265	697.5
778.447	760.99
778.629	746.66
778.811	752.8
778.993	713.89
779.175	787.61
779.357	724.13
779.539	701.6
779.721	672.93
779.903	670.88
780.085	691.36
780.267	636.06
780.449	666.78
780.631	685.22
780.812	744.61
780.994	711.84
781.176	623.78
781.358	638.11
781.54	519.33
781.721	634.02
781.903	656.54
782.085	638.11
782.267	654.5
782.448	566.43
782.63	609.44
782.812	580.77
782.993	586.91
783.175	570.53
783.357	550.05
783.538	515.23
783.72	593.06
783.901	488.61
784.083	560.29
784.264	607.39
784.446	531.62
784.627	500.9
784.809	486.56
784.99	558.24
785.172	427.17
785.353	646.3
785.535	588.96
785.716	490.66
785.897	498.85
786.079	437.41
786.26	498.85
786.441	517.28
786.623	533.67
786.804	498.85
786.985	509.09
787.167	482.47
787.348	429.22
787.529	525.47
787.71	519.33
787.891	494.76
788.073	429.22
788.254	445.6
788.435	459.94
788.616	433.32
788.797	367.78
788.978	373.92
789.159	406.69
789.34	451.75
789.522	400.55
789.703	449.7
789.884	459.94
790.065	449.7
790.246	410.79
790.427	468.13
790.607	502.95
790.788	394.4
790.969	359.59
791.15	410.79
791.331	427.17
791.512	261.29
791.693	310.44
791.874	365.73
792.054	441.51
792.235	453.8
792.416	421.03
792.597	410.79
792.778	375.97
792.958	517.28
793.139	392.36
793.32	390.31
793.5	289.96
793.681	343.21
793.862	408.74
794.042	375.97
794.223	369.83
794.404	375.97
794.584	294.05
794.765	412.84
794.945	322.73
795.126	363.69
795.306	355.49
795.487	326.82
795.667	394.4
795.848	339.11
796.028	378.02
796.209	302.25
796.389	304.29
796.57	298.15
796.75	193.7
796.93	292.01
797.111	281.77
797.291	345.25
797.471	367.78
797.652	292.01
797.832	230.57
798.012	361.64
798.192	306.34
798.373	232.62
798.553	353.45
798.733	281.77
798.913	330.92
799.093	318.63
799.274	310.44
799.454	273.57
799.634	271.53
799.814	320.68
799.994	230.57
800.174	351.4
800.354	269.48
800.534	246.95
800.714	287.91
800.894	294.05
801.074	285.86
801.254	285.86
801.434	294.05
801.614	287.91
801.794	212.14
801.974	836.77
802.154	320.68
802.334	281.77
802.514	230.57
802.693	263.33
802.873	203.94
803.053	269.48
803.233	271.53
803.413	277.67
803.592	267.43
803.772	236.71
803.952	269.48
804.131	228.52
804.311	269.48
804.491	232.62
804.67	216.23
804.85	142.5
805.03	281.77
805.209	251.05
805.389	199.85
805.568	214.18
805.748	287.91
805.928	208.04
806.107	298.15
806.287	171.18
806.466	195.75
806.646	244.9
806.825	203.94
807.004	228.52
807.184	285.86
807.363	232.62
807.543	203.94
807.722	220.33
807.901	289.96
808.081	216.23
808.26	115.88
808.439	169.13
808.619	263.33
808.798	296.1
808.977	232.62
809.156	214.18
809.336	277.67
809.515	214.18
809.694	130.22
809.873	191.66
810.052	199.85
810.231	246.95
810.411	249
810.59	199.85
810.769	205.99
810.948	150.7
811.127	148.65
811.306	138.41
811.485	212.14
811.664	185.51
811.843	117.93
812.022	240.81
812.201	136.36
812.38	220.33
812.559	175.27
812.737	240.81
812.916	144.55
813.095	124.07
813.274	185.51
813.453	140.46
813.632	179.37
813.811	160.94
813.989	144.55
814.168	138.41
814.347	117.93
814.526	154.79
814.704	169.13
814.883	203.94
815.062	68.78
815.24	146.6
815.419	156.84
815.598	187.56
815.776	134.31
815.955	158.89
816.133	126.12
816.312	68.78
816.49	117.93
816.669	146.6
816.847	91.31
817.026	158.89
817.204	154.79
817.383	171.18
817.561	154.79
817.74	50.35
817.918	146.6
818.097	142.5
818.275	117.93
818.453	208.04
818.632	187.56
818.81	171.18
818.988	107.69
819.167	189.61
819.345	224.42
819.523	142.5
819.701	99.5
819.879	126.12
820.058	89.26
820.236	191.66
820.414	171.18
820.592	113.83
820.77	154.79
820.948	91.31
821.127	99.5
821.305	97.45
821.483	138.41
821.661	193.7
821.839	140.46
822.017	126.12
822.195	107.69
822.373	142.5
822.551	44.2
822.729	154.79
822.907	107.69
823.085	132.26
823.262	165.03
823.44	15.53
823.618	132.26
823.796	93.35
823.974	113.83
824.152	124.07
824.329	212.14
824.507	148.65
824.685	74.92
824.863	158.89
825.04	126.12
825.218	199.85
825.396	138.41
825.574	154.79
825.751	124.07
825.929	169.13
826.107	122.02
826.284	146.6
826.462	103.59
826.639	79.02
826.817	124.07
826.994	117.93
827.172	72.87
827.349	107.69
827.527	162.98
827.704	72.87
827.882	93.35
828.059	91.31
828.237	42.15
828.414	97.45
828.591	74.92
828.769	50.35
828.946	85.16
829.124	122.02
829.301	58.54
829.478	156.84
829.655	85.16
829.833	81.07
830.01	97.45
830.187	81.07
830.364	195.75
830.542	72.87
830.719	111.78
830.896	122.02
831.073	64.68
831.25	21.67
831.427	154.79
831.604	91.31
831.782	95.4
831.959	64.68
832.136	81.07
832.313	85.16
832.49	7.34
832.667	93.35
832.844	23.72
833.021	179.37
833.198	105.64
833.374	126.12
833.551	68.78
833.728	58.54
833.905	134.31
834.082	128.17
834.259	105.64
834.436	117.93
834.612	99.5
834.789	64.68
834.966	162.98
835.143	205.99
835.319	74.92
835.496	99.5
835.673	97.45
835.85	58.54
836.026	1.19
836.203	44.2
836.38	107.69
836.556	130.22
836.733	93.35
836.909	134.31
837.086	29.87
837.262	111.78
837.439	46.25
837.616	54.44
837.792	124.07
837.968	50.35
838.145	89.26
838.321	95.4
838.498	48.3
838.674	99.5
838.851	50.35
839.027	7.34
839.203	113.83
839.38	62.63
839.556	68.78
839.732	27.82
839.909	76.97
840.085	60.59
840.261	60.59
840.437	33.96
840.614	-0.85
840.79	56.49
840.966	72.87
841.142	138.41
841.318	83.11
841.494	7.34
841.671	150.7
841.847	72.87
842.023	48.3
842.199	76.97
842.375	74.92
842.551	-0.85
842.727	27.82
842.903	148.65
843.079	3.24
843.255	115.88
843.431	3.24
843.607	-45.91
843.783	-25.43
843.959	50.35
844.134	89.26
844.31	64.68
844.486	105.64
844.662	58.54
844.838	40.11
845.013	64.68
845.189	58.54
845.365	-15.19
845.541	50.35
845.716	105.64
845.892	99.5
846.068	76.97
846.244	27.82
846.419	105.64
846.595	-31.57
846.77	56.49
846.946	46.25
847.122	17.58
847.297	3.24
847.473	56.49
847.648	-17.24
847.824	105.64
847.999	9.39
848.175	66.73
848.35	27.82
848.526	56.49
848.701	68.78
848.876	52.39
849.052	68.78
849.227	56.49
849.403	58.54
849.578	85.16
849.753	54.44
849.929	130.22
850.104	-41.81
850.279	17.58
850.454	93.35
850.63	48.3
850.805	23.72
850.98	44.2
851.155	113.83
851.33	9.39
851.505	27.82
851.681	50.35
851.856	44.2
852.031	97.45
852.206	38.06
852.381	66.73
852.556	122.02
852.731	33.96
852.906	48.3
853.081	42.15
853.256	50.35
853.431	-31.57
853.606	113.83
853.781	-23.38
853.956	40.11
854.131	48.3
854.305	9.39
854.48	107.69
854.655	25.77
854.83	58.54
855.005	40.11
855.18	79.02
855.354	23.72
855.529	40.11
855.704	87.21
855.879	21.67
856.053	-23.38
856.228	72.87
856.403	1.19
856.577	15.53
856.752	17.58
856.926	58.54
857.101	89.26
857.276	-41.81
857.45	64.68
857.625	76.97
857.799	48.3
857.974	99.5
858.148	29.87
858.323	66.73
858.497	50.35
858.672	11.43
858.846	-9.05
859.02	97.45
859.195	15.53
859.369	-15.19
859.543	25.77
859.718	31.91
859.892	13.48
860.066	3.24
860.241	60.59
860.415	-17.24
860.589	15.53
860.763	124.07
860.938	-41.81
861.112	3.24
861.286	-7
861.46	54.44
861.634	-0.85
861.808	105.64
861.982	-25.43
862.157	72.87
862.331	-21.33
862.505	40.11
862.679	7.34
862.853	33.96
863.027	9.39
863.201	46.25
863.375	83.11
863.549	1.19
863.722	54.44
863.896	130.22
864.07	15.53
864.244	38.06
864.418	-4.95
864.592	-9.05
864.766	29.87
864.939	66.73
865.113	52.39
865.287	91.31
865.461	-33.62
865.634	-7
865.808	56.49
865.982	99.5
866.156	48.3
866.329	-33.62
866.503	-7
866.676	-11.09
866.85	23.72
867.024	27.82
867.197	3.24
867.371	15.53
867.544	-2.9
867.718	-50
867.891	15.53
868.065	-7
868.238	25.77
868.412	-9.05
868.585	48.3
868.759	-29.52
868.932	11.43
869.105	-19.29
869.279	27.82
869.452	-0.85
869.625	132.26
869.799	-7
869.972	-0.85
870.145	-58.2
870.319	76.97
870.492	-33.62
870.665	-0.85
870.838	-41.81
871.011	9.39
871.185	-19.29
871.358	44.2
871.531	-4.95
871.704	74.92
871.877	36.01
872.05	15.53
872.223	-31.57
872.396	5.29
872.569	-0.85
872.742	-39.76
872.915	81.07
873.088	56.49
873.261	-2.9
873.434	72.87
873.607	13.48
873.78	-17.24
873.953	7.34
874.126	11.43
874.299	64.68
874.471	-21.33
874.644	-23.38
874.817	36.01
874.99	58.54
875.163	23.72
875.335	31.91
875.508	-21.33
875.681	-0.85
875.853	-15.19
876.026	31.91
876.199	-31.57
876.371	76.97
876.544	-4.95
876.717	7.34
876.889	31.91
877.062	93.35
877.234	-37.72
877.407	5.29
877.579	31.91
877.752	9.39
877.924	56.49
878.097	70.83
878.269	-25.43
878.442	66.73
878.614	60.59
878.786	11.43
878.959	-15.19
879.131	44.2
879.303	-23.38
879.476	23.72
879.648	89.26
879.82	36.01
879.993	-7
880.165	25.77
880.337	-21.33
880.509	-33.62
880.681	-68.44
880.854	-50
881.026	89.26
881.198	64.68
881.37	29.87
881.542	23.72
881.714	-9.05
881.886	-7
882.058	42.15
882.23	-45.91
882.402	-43.86
882.574	-0.85
882.746	124.07
882.918	-25.43
883.09	60.59
883.262	-27.48
883.434	-0.85
883.606	19.63
883.778	7.34
883.95	31.91
884.122	-41.81
884.293	76.97
884.465	-23.38
884.637	70.83
884.809	48.3
884.98	-2.9
885.152	56.49
885.324	25.77
885.496	1.19
885.667	7.34
885.839	17.58
886.011	68.78
886.182	-0.85
886.354	105.64
886.525	-4.95
886.697	23.72
886.869	40.11
887.04	-31.57
887.212	44.2
887.383	105.64
887.555	46.25
887.726	-17.24
887.897	3.24
888.069	17.58
888.24	36.01
888.412	29.87
888.583	42.15
888.754	-29.52
888.926	-93.01
889.097	-21.33
889.268	17.58
889.44	74.92
889.611	-27.48
889.782	23.72
889.953	7.34
890.125	9.39
890.296	-37.72
890.467	-9.05
890.638	-25.43
890.809	17.58
890.98	-76.63
891.151	64.68
891.323	19.63
891.494	-39.76
891.665	-0.85
891.836	56.49
892.007	-17.24
892.178	-31.57
892.349	-52.05
892.52	9.39
892.691	27.82
892.862	40.11
893.032	-103.25
893.203	31.91
893.374	11.43
893.545	23.72
893.716	-25.43
893.887	23.72
894.057	-11.09
894.228	33.96
894.399	-74.58
894.57	40.11
894.74	-2.9
894.911	15.53
895.082	-13.14
895.253	-0.85
895.423	-29.52
895.594	-9.05
895.764	36.01
895.935	64.68
896.106	74.92
896.276	3.24
896.447	-25.43
896.617	1.19
896.788	-60.24
896.958	17.58
897.129	-7
897.299	33.96
897.47	-13.14
897.64	52.39
897.81	27.82
897.981	7.34
898.151	15.53
898.322	1.19
898.492	-25.43
898.662	-25.43
898.832	21.67
899.003	-41.81
899.173	-0.85
899.343	7.34
899.513	-50
